timestamp,x,y,z
1480688953369206,-0.9375,-1.6875,0.5625
1480688953392271,0.625,-1.5,-1
1480688953414829,0.3125,-1.25,-1.5625
1480688953435382,-0.4375,-1.125,-2
1480688953458945,-1.625,-1.375,-2.8125
1480688953472482,-4.375,-1.5625,-3
1480688953490533,-7.375,-1.5625,-3.125
1480688953511585,-5.0625,-0.125,-3.1875
1480688953532640,-6.25,4,-4.1875
1480688953555202,-6.625,4.6875,-3.625
1480688953571745,-4.875,1,-1.0625
1480688953600321,-3.5,-0.5,-0.0625
1480688953610849,-1.375,0.75,-0.4375
1480688953631404,1.5625,-1.375,1.0625
1480688953652459,4.1875,-4.6875,2.75
1480688953677025,5.5625,-4.4375,2.375
1480688953699083,4.8125,-2.375,2.3125
1480688953713622,7.1875,-1.8125,3.125
1480688953729164,9.4375,-0.625,3.4375
1480688953751724,8.5625,0.9375,3.0625
1480688953772780,5.625,-0.3125,3.1875
1480688953789324,2.625,-2.75,3.4375
1480688953819404,0.375,-3.1875,2.3125
1480688953832940,-1.6875,-2.75,0.9375
1480688953857010,-1.75,-2,0.3125
1480688953879062,0.25,-2.125,0.0625
1480688953893602,2.25,-2.5,-1.25
1480688953908641,3.5,-3.125,-3.6875
1480688953939723,3.875,-2.125,-4.6875
1480688953954764,4.125,-0.4375,-5.5625
1480688953969301,3.375,-0.875,-6.25
1480688953992364,1.375,-3.25,-6.3125
1480688954014422,0.9375,-4.375,-6.25
1480688954028960,1.625,-4.375,-5.9375
1480688954051520,2.1875,-4.4375,-6.1875
1480688954082102,2.5625,-3.375,-6.8125
1480688954088619,2.9375,-2.0625,-7.375
1480688954111680,3.25,-1.125,-8.375
1480688954135243,3.9375,-0.25,-9.875
1480688954157302,3.1875,0.25,-10.875
1480688954179360,2.4375,0.625,-11.25
1480688954201920,2.3125,1.125,-11.75
1480688954208439,2.5,1.3125,-11.6875
1480688954231500,2.1875,1.75,-11.3125
1480688954254059,1.75,2,-10.5625
1480688954268598,1.8125,2.125,-10.125
1480688954297675,2.125,2.125,-10.125
1480688954314219,3.1875,2.375,-9.9375
1480688954328757,4.875,2.5625,-9.625
1480688954352321,5.75,2.875,-9.5625
1480688954374380,5.875,2.9375,-9.8125
1480688954388918,5.6875,2.875,-9.125
1480688954411979,5.875,2.75,-8.3125
1480688954434038,5.3125,2.5625,-8.1875
1480688954455094,4.75,2.6875,-7.9375
1480688954479385,5.5,3.25,-7.125
1480688954493925,6.0625,3.8125,-6.4375
1480688954514980,6.6875,4.3125,-5.625
1480688954532025,6.5,4.5625,-5.5625
1480688954555589,6.75,5.4375,-5.9375
1480688954575140,7.75,6.4375,-7.375
1480688954591684,7.3125,7.25,-9.3125
1480688954614244,5.9375,7.5625,-10.9375
1480688954636303,2.6875,7.3125,-11.8125
1480688954651844,0.625,7.3125,-12.5625
1480688954673902,0.375,6.9375,-12.6875
1480688954696462,0.8125,6.4375,-12.3125
1480688954719525,2.25,5.75,-11.75
1480688954735567,4.0625,4.75,-10.5625
1480688954755120,5.125,3.4375,-9.5625
1480688954777679,5.125,1.8125,-8.3125
1480688954794222,4.1875,-0.0625,-6.75
1480688954815278,2.625,-1.8125,-5
1480688954831822,2.25,-3.4375,-3.75
1480688954854383,2.4375,-4.625,-2.8125
1480688954875439,3.375,-5.6875,-2.25
1480688954891983,4.1875,-6.5625,-1.625
1480688954922063,3.1875,-7.6875,-0.1875
1480688954944121,1.6875,-8.75,1.9375
1480688954952644,-1.0625,-9.5625,4.625
1480688954974201,-3.9375,-10.5,6.5625
1480688955011802,-6.125,-11.25,7.5625
1480688955013807,-7.9375,-11.6875,6.4375
1480688955034363,-7.5625,-11.625,4.4375
1480688955056424,-7.125,-11.875,2.4375
1480688955070959,-5.9375,-12.625,0.875
1480688955094020,-4.625,-13,-0.25
1480688955116580,-1.75,-12.9375,-0.5625
1480688955131119,0.5625,-12.9375,1.5625
1480688955154182,-1.125,-12.8125,6
1480688955176740,-6.5625,-12.25,12.0625
1480688955197796,-11.9375,-11,18
1480688955221861,-13.6875,-9.6875,20.375
1480688955236399,-15.3125,-8.5625,19.5625
1480688955267481,-13.4375,-5.6875,14.9375
1480688955280015,-11.1875,-2.125,8.375
1480688955297060,-6.5625,1.3125,3
1480688955319119,-4.25,3.0625,0.875
1480688955347694,-5.8125,0.6875,2.75
1480688955356722,-5.6875,-2.75,4.875
1480688955377775,-1,-4,5.375
1480688955400334,-0.25,-2.625,3.5
1480688955424400,-0.75,-3.6875,0.4375
1480688955437434,-2.125,-6.6875,-0.75
1480688955454479,-3.125,-9.25,-2.625
1480688955477039,-1.5625,-10.0625,-2.5625
1480688955497596,-0.4375,-10.875,-1
1480688955521658,3.4375,-10.9375,-0.5625
1480688955542714,7.125,-10.8125,-0.875
1480688955565272,7.375,-9.875,-0.9375
1480688955574297,5,-8.1875,-1.5
1480688955596857,1.4375,-6.125,-2.6875
1480688955617912,-0.625,-3.625,-3.5625
1480688955634958,-1.125,-0.5625,-4.3125
1480688955664036,0.1875,2.9375,-5.1875
1480688955677571,2.3125,6.6875,-5.375
1480688955694115,3.625,10.375,-5.4375
1480688955716676,3.5,13.25,-5.625
1480688955737731,0,14.75,-5.9375
1480688955754275,-3,15.5,-6.75
1480688955782854,-5.8125,15.0625,-7.75
1480688955797892,-5.375,14.0625,-8.75
1480688955813934,-2.25,11.8125,-9.1875
1480688955844014,1.9375,8.8125,-9.5625
1480688955859054,7.375,5.4375,-9.9375
1480688955874094,11.0625,1.5,-9.25
1480688955904174,13.875,-2.9375,-8.0625
1480688955925230,14.25,-6.875,-6.75
1480688955934254,14.5625,-8.9375,-6.125
1480688955956814,14.0625,-9.75,-5.625
1480688955987896,11.75,-10.4375,-4.375
1480688955994916,8.625,-10.3125,-3.5
1480688956019982,4.875,-9.25,-2.75
1480688956045048,1.75,-7.125,-2.4375
1480688956053572,-1.375,-4.5625,-2.6875
1480688956082649,-3.25,-1.875,-3.125
1480688956098692,-4.25,-0.0625,-3.5
1480688956137295,-3.5,1.0625,-5.25
1480688956139805,-4.125,1.875,-3.375
1480688956165368,-2.75,1.8125,-1.5
1480688956173390,-0.6875,1.6875,-2.5625
1480688956196452,-2.5625,0.5,-2
1480688956219011,-1.375,0.25,-0.8125
1480688956233550,-0.625,0.6875,0.3125
1480688956256612,-1.5,0,0.5625
1480688956285188,-3.9375,0.125,1.0625
1480688956294212,-3.9375,1.875,1.5625
1480688956330308,-3.3125,3.375,2.1875
1480688956340334,-4.125,4.5,2.3125
1480688956360387,-4.9375,5.3125,2.5625
1480688956377434,-6,5.75,3.25
1480688956398990,-6.5,6.125,3.6875
1480688956420046,-7.5,6.125,3.75
1480688956436590,-7.875,5.5,3.625
1480688956459150,-7.4375,4.875,4.125
1480688956480206,-6.9375,4.5625,4.0625
1480688956496750,-5.5625,3.8125,3.5625
1480688956519310,-4.375,2.75,2.875
1480688956541870,-2.8125,1.5,2.125
1480688956564434,-0.625,0.9375,0.8125
1480688956586489,1.125,1.5625,-0.75
1480688956600025,1.5,1.9375,-1.625
1480688956617070,1.5,1.6875,-1.75
1480688956646649,2.1875,1.5625,-2.3125
1480688956660185,2.0625,1.125,-2.875
1480688956676729,1.875,1.0625,-3.125
1480688956699288,1.625,1.375,-3.0625
1480688956720845,2.0625,0.9375,-2.4375
1480688956738894,2.0625,0.5,-1.6875
1480688956758947,2.3125,0.75,-1.25
1480688956780004,2.3125,0.9375,-0.75
1480688956796548,2.125,1.1875,-1
1480688956819107,1.875,1.125,-1.3125
1480688956842169,1.5625,1.125,-0.75
1480688956856211,1.8125,1.0625,-0.5
1480688956878766,2.125,1.125,-0.9375
1480688956901828,1.8125,1.1875,-1.4375
1480688956916867,1.375,1.1875,-1.6875
1480688956945945,1.375,1.3125,-1.875
1480688956969006,1.5,1.4375,-2.25
1480688956976025,1.375,1.6875,-2.4375
1480688956999086,1.8125,2.5625,-2.375
1480688957023651,1.6875,2.875,-1.5
1480688957043202,0.8125,3.125,-1.0625
1480688957059245,0.3125,3.25,-0.625
1480688957081805,0.125,3.4375,-0.0625
1480688957095843,-0.375,3.25,0.6875
1480688957119405,-0.5625,3,1.125
1480688957141464,-0.75,2.9375,1
1480688957156005,-0.4375,2.6875,0.875
1480688957179065,-0.3125,2.375,0.3125
1480688957201625,-0.125,2.0625,-0.1875
1480688957230200,0.0625,1.5625,-0.3125
1480688957245743,0.875,1,-0.4375
1480688957267298,1.3125,0.5625,-0.4375
1480688957282840,1,0.0625,-0.625
1480688957298883,0.8125,0.0625,-0.8125
1480688957321944,1,0.125,-0.625
1480688957342499,0.5625,0.1875,-0.1875
1480688957360548,0.75,0.4375,0
1480688957381603,0.5625,0.75,0.25
1480688957410180,0.0625,1.25,0
1480688957425220,-0.125,1.3125,-0.4375
1480688957441763,-0.25,1.25,-0.3125
1480688957462819,-0.375,0.875,-0.1875
1480688957479363,-0.125,0.625,-0.1875
1480688957501424,0.125,0.375,-0.3125
1480688957522979,0.3125,0.1875,-0.375
1480688957539022,0.1875,0.25,-0.25
1480688957561581,0.625,0.125,-0.3125
1480688957582638,0.3125,0.25,-0.3125
1480688957599182,0.3125,0.3125,-0.3125
1480688957627758,0.5625,0.625,-0.125
1480688957643299,-0.0625,0.4375,-0.0625
1480688957666862,-0.1875,0.5,0.0625
1480688957681902,0.25,0.5625,0.375
1480688957702456,0.375,0.4375,0.625
1480688957719000,0,0.5,0.875
1480688957742061,-0.375,0.6875,0.9375
1480688957764121,-0.375,0.5,1
1480688957787683,-0.625,0.5,0.9375
1480688957802723,-0.4375,0.5,0.9375
1480688957839821,-0.3125,0.4375,0.6875
1480688957842328,-0.25,0.3125,0.625
1480688957861379,-0.4375,0.125,0.625
1480688957884440,-0.875,0,0.6875
1480688957899481,-0.875,0,0.75
1480688957921540,-0.5,0.0625,0.625
1480688957944098,-0.4375,-0.0625,0.625
1480688957958638,-0.3125,0.125,0.75
1480688957981699,0,0.1875,0.8125
1480688958004259,-0.1875,0.375,1
1480688958018296,-0.25,0.4375,0.75
1480688958042360,-0.375,0.1875,1.1875
1480688958064419,-0.8125,0.0625,1.1875
1480688958078456,-1.4375,0,1.125
1480688958101517,-1.4375,0.25,1.1875
1480688958130093,-1.0625,0.125,1.3125
1480688958138621,-0.9375,0.0625,1.625
1480688958161677,-0.75,0,1.5625
1480688958184237,-0.875,0,1.4375
1480688958206296,-1.125,-0.25,1.375
1480688958221838,-0.5625,-0.125,1.0625
1480688958252418,-0.5,-0.375,1
1480688958272973,-0.375,-0.3125,1
1480688958290520,0.4375,-0.1875,0.9375
1480688958304056,0.625,-0.25,1
1480688958332632,0.25,-0.375,0.6875
1480688958349177,1.375,-0.125,0.1875
1480688958364216,2.3125,0.375,0.0625
1480688958385775,2.9375,0.5,-0.0625
1480688958408835,2.4375,0.9375,-0.375
1480688958432899,2.125,1.1875,-0.75
1480688958446435,1.375,0.9375,-1
1480688958468995,1.4375,1.25,-1.1875
1480688958492557,1.375,1.0625,-1.3125
1480688958513613,1.875,1.375,-1.1875
1480688958521636,1.5625,1.625,-0.6875
1480688958544195,1.9375,1.875,-0.75
1480688958581794,2.1875,2.4375,-0.5
1480688958584304,3.3125,2.8125,-0.1875
1480688958604355,3.0625,3.125,0.25
1480688958624908,1.625,3.5625,0.875
1480688958641454,0.6875,4.125,1
1480688958664016,0.5625,4.875,1.875
1480688958685069,0.3125,5.3125,2.625
1480688958701614,0.875,6,2.625
1480688958724674,1.375,6.25,2.8125
1480688958747735,2.125,6.5,3.4375
1480688958769293,1.875,6.8125,3.8125
1480688958791854,0.9375,7,3.75
1480688958819928,1.125,7.3125,3.625
1480688958833965,1.3125,8.125,3.3125
1480688958843992,2.375,9.25,2.5625
1480688958866552,4.0625,9.75,2.375
1480688958887608,5.0625,9.625,2.8125
1480688958903650,5.5625,9.0625,3.5625
1480688958926712,5.5,8.625,3.625
1480688958941753,4.625,8.5,3.8125
1480688958964813,4.875,8.8125,3.4375
1480688958993890,5.125,9.0625,2.5
1480688959000910,4.3125,8.625,2.5
1480688959023970,3.875,8.3125,3.9375
1480688959047533,4.875,8.4375,5.625
1480688959063575,5.5,8.9375,7.0625
1480688959085634,4.75,9.3125,8.6875
1480688959106690,5.1875,10.1875,9.9375
1480688959129250,6.5,11.5625,10
1480688959144291,5.9375,12.4375,9.9375
1480688959166850,3.375,12.75,10.25
1480688959196429,0.5625,13.1875,10.75
1480688959211470,-1.75,13.25,10.75
1480688959226509,-2.3125,13.4375,10.25
1480688959247565,-2.5,13.375,9.3125
1480688959272633,-2.1875,13.0625,7.625
1480688959287172,0,12.6875,5.875
1480688959307726,1.6875,11.8125,4.375
1480688959331287,2.25,10,3.1875
1480688959369890,2.4375,8.125,2.1875
1480688959371896,2.3125,6.125,1.0625
1480688959391949,2.375,4.5,-0.0625
1480688959406488,2.9375,2.75,-0.6875
1480688959427543,3.1875,1.25,-0.875
1480688959444088,3.625,0.3125,-1.0625
1480688959466647,4.125,-0.125,-1.1875
1480688959487704,4.125,-0.3125,-1.25
1480688959512273,3.5,-0.25,-1.6875
1480688959526807,2.5,-0.125,-1.9375
1480688959547864,2.4375,0.625,-2
1480688959569923,2.6875,1.125,-2.0625
1480688959586466,3.3125,1.5625,-2.25
1480688959607523,3.875,2.125,-2.3125
1480688959624067,3.6875,2.3125,-2.125
1480688959646627,2.4375,2.375,-1.9375
1480688959669186,1.1875,2.375,-1.625
1480688959684226,0,2.5,-1.3125
1480688959706787,-0.375,2.75,-0.75
1480688959729346,0.0625,3.0625,-0.375
1480688959753411,0.6875,3.375,-0.1875
1480688959766444,1,2.5625,0.125
1480688959798028,1.25,2.4375,0.8125
1480688959803543,0.6875,3.5,0.875
1480688959827607,-0.1875,3.625,0.6875
1480688959849166,-0.5625,3.1875,1.1875
1480688959863202,-0.125,2.875,1.25
1480688959886769,0.0625,2.875,1.125
1480688959909326,-0.5625,2.625,1.125
1480688959924365,-1.8125,2.25,1
1480688959946423,-1.8125,1.9375,0.875
1480688959969485,-1.1875,1.625,0.5625
1480688959983522,-0.5,1.3125,0.3125
1480688960006584,-0.25,0.9375,0.3125
1480688960029143,-0.8125,0.125,0.6875
1480688960052205,-1.3125,-0.375,1.125
1480688960076770,-1.5625,-0.625,1.5
1480688960095319,-2.3125,-0.75,1.75
1480688960110360,-2.125,-0.75,1.625
1480688960126402,-1.0625,-0.4375,1.5625
1480688960148962,-0.375,-0.25,1.4375
1480688960170018,-0.3125,-0.125,1.4375
1480688960193079,-0.375,-0.1875,1.375
1480688960209122,-0.75,-0.0625,1.0625
1480688960230178,-1.125,-0.125,0.6875
1480688960246722,-1.25,0,0.75
1480688960283319,-0.8125,0.125,0.625
1480688960298358,-0.1875,0.3125,0.4375
1480688960306882,0.0625,0.5,0.25
1480688960329442,-0.3125,0.5,0.25
1480688960349996,-0.75,0.625,0.3125
1480688960367543,-1.0625,0.6875,0.375
1480688960389602,-0.8125,0.9375,0.375
1480688960411661,-0.4375,0.875,0.5
1480688960434221,-0.0625,0.75,0.5625
1480688960450263,0.5625,0.6875,0.5
1480688960471821,0.1875,0.5625,0.6875
1480688960486861,0.0625,0.5625,0.25
1480688960508920,0.1875,0.3125,0.125
1480688960529975,-0.3125,0,0
1480688960552536,-0.4375,-0.125,-0.0625
1480688960569079,0,-0.0625,-0.1875
1480688960592142,0.4375,0,-0.3125
1480688960614700,0.1875,0.0625,-0.375
1480688960629239,0.0625,0.0625,-0.25
1480688960657816,-0.625,-0.125,0.0625
1480688960667340,-1.4375,-0.25,0.5
1480688960702433,-1,-0.0625,0.625
1480688960719479,-0.625,0.0625,0.6875
1480688960726497,-0.5,0.125,0.5
1480688960749058,0.1875,0,0.3125
1480688960772622,0.5,-0.0625,0.3125
1480688960786156,0.375,-0.125,0.25
1480688960815233,0.25,-0.125,0.125
1480688960839299,0,-0.125,-0.125
1480688960854841,-0.375,0,-0.25
1480688960876898,-0.5,0.125,-0.3125
1480688960898958,-0.5,0.125,-0.125
1480688960906477,-0.375,0.3125,0
1480688960929036,-0.3125,0.375,0.0625
1480688960966636,-0.5,0.3125,0.0625
1480688960969143,-0.5625,0.1875,0.0625
1480688960989201,-0.125,0.0625,0
1480688961012258,0.0625,0.0625,0.0625
1480688961025794,0.1875,-0.125,0.125
1480688961086956,0.25,-0.1875,0.1875
1480688961090470,0.5625,-0.25,0.125
1480688961095479,0.4375,-0.1875,0.25
1480688961109015,0,0,0
1480688961139598,-0.1875,0,-0.0625
1480688961154136,-0.4375,0,0.3125
1480688961170179,-1.5,0.0625,0.625
1480688961192236,-1.625,0.3125,0.5625
1480688961215799,-1.125,0.3125,0.1875
1480688961236353,-0.6875,0.1875,0.0625
1480688961251895,-0.3125,-0.25,-0.25
1480688961279969,0.0625,-0.75,-0.4375
1480688961290000,0.1875,-1.0625,-0.4375
1480688961312557,0.5,-1,-0.3125
1480688961349655,0.8125,-0.9375,-0.1875
1480688961352162,0.5625,-0.75,0.125
1480688961373218,0.6875,-0.1875,0.1875
1480688961394775,0.5625,0.125,0.375
1480688961411319,-0.5,0.375,0.6875
1480688961439395,-1.5,0.875,0.625
1480688961459948,-2.125,0.9375,0.8125
1480688961492033,-1.9375,1,0.6875
1480688961495542,-1.3125,0.9375,0.5625
1480688961515095,-0.375,0.8125,0.5625
1480688961529133,0.3125,0.5,0.375
1480688961559212,0.25,-0.1875,0.375
1480688961574254,0.5,-0.5625,0.125
1480688961596812,-0.1875,-1.0625,0.1875
1480688961611855,-0.625,-1.375,0.1875
1480688961640428,0,-1.25,-0.1875
1480688961673516,0,-1.0625,-0.125
1480688961685047,0,-0.9375,-0.1875
1480688961695074,-0.1875,-0.875,-0.375
1480688961717132,0.6875,-0.5625,-0.6875
1480688961738189,0.5625,-0.4375,-0.5625
1480688961770273,0.3125,-0.3125,-0.5
1480688961782806,0.625,0.0625,-0.6875
1480688961791830,0.25,0.0625,-0.1875
1480688961829932,-0.8125,-0.0625,0.125
1480688961832438,-1.0625,-0.0625,0.1875
1480688961852993,-0.625,-0.0625,-0.125
1480688961874050,-0.25,-0.3125,-0.5625
1480688961888588,0.0625,-0.6875,-0.75
1480688961911649,0.4375,-1,-1
1480688961934209,0.4375,-1.5,-0.875
1480688961948247,0.75,-1.4375,-0.8125
1480688961971813,1,-1.375,-0.75
1480688962024449,0.625,-1.375,-0.75
1480688962026956,0.4375,-1.25,-0.625
1480688962048012,0.1875,-1,-0.5
1480688962063052,-0.1875,-0.75,-0.4375
1480688962075585,-0.125,-0.5625,-0.5625
1480688962091628,-0.375,-0.3125,-0.75
1480688962114188,-0.5625,-0.125,-0.75
1480688962135243,-0.375,0,-0.75
1480688962157804,-0.375,0,-0.625
1480688962174850,-0.375,-0.1875,-0.1875
1480688962194902,-0.75,-0.3125,0.125
1480688962227489,-0.5625,-0.4375,0.25
1480688962234007,-0.75,-0.5625,0.25
1480688962255567,-0.375,-0.5,0.125
1480688962273110,0.5625,-0.5625,-0.25
1480688962294667,1.25,-0.3125,-0.125
1480688962332769,1.0625,-0.125,-0.0625
1480688962337783,0.3125,-0.3125,0.125
1480688962361846,0,-0.375,0.3125
1480688962376386,0.1875,-0.1875,0.25
1480688962398945,-0.5,0.0625,0.5625
1480688962415489,-1.0625,0.375,0.6875
1480688962435041,-1.0625,0.5,0.875
1480688962459105,-1,0.5625,1.1875
1480688962474648,-1.375,0.4375,1.375
1480688962497707,-1.125,0.625,1.5625
1480688962511746,-0.5625,0.5625,1.75
1480688962547841,-0.375,0.4375,1.8125
1480688962557366,-0.5,0.1875,1.875
1480688962571926,-1.1875,-0.25,2.1875
1480688962599979,-1.1875,0.125,2.3125
1480688962617025,-0.875,0.4375,2.0625
1480688962631062,-1.125,0.375,2.3125
1480688962661644,-1.1875,0.4375,2.1875
1480688962676683,-1.125,0.6875,1.9375
1480688962691222,-0.875,0.75,1.875
1480688962722306,-0.75,0.625,1.9375
1480688962736343,-1,0.5625,1.8125
1480688962750881,-1.0625,0.5625,1.625
1480688962788984,-1.0625,0.5,1.5625
1480688962797004,-1.1875,0.4375,1.6875
1480688962811542,-0.875,0.4375,1.5
1480688962834101,-0.8125,0.1875,1.625
1480688962857164,-0.4375,0.1875,1.3125
1480688962872706,-0.3125,0.125,1.3125
1480688962894263,-0.625,-0.0625,1.3125
1480688962931361,-0.5625,-0.125,1.3125
1480688962933868,-0.5,0.0625,1.25
1480688962959936,-0.3125,-0.0625,1.1875
1480688962976481,-0.5,-0.0625,1.125
1480688962997536,-0.5,-0.125,1.25
1480688963014082,0.25,-0.1875,1.0625
1480688963036641,-0.0625,-0.25,1.1875
1480688963059202,-0.375,-0.1875,1
1480688963074241,-0.0625,-0.1875,0.875
1480688963104320,-0.125,-0.1875,0.875
1480688963125377,-0.4375,-0.1875,0.75
1480688963134400,-0.5,0,0.6875
1480688963156459,-0.25,-0.0625,0.6875
1480688963177516,-0.5,-0.125,0.8125
1480688963194059,-0.375,-0.0625,0.6875
1480688963216620,-0.625,-0.1875,0.625
1480688963237676,-0.6875,-0.3125,0.6875
1480688963254221,0,-0.1875,0.5
1480688963276780,0.4375,-1,0.9375
1480688963305359,0,-2.375,1.5
1480688963313878,0.125,-3.1875,0.8125
1480688963336940,1.0625,-4.4375,-0.75
1480688963358998,1.25,-8.5625,-1.0625
1480688963382059,-0.8125,-12.6875,-3.375
1480688963410636,0.3125,-15.0625,-7.8125
1480688963417654,2.375,-15.75,-10.25
1480688963440215,-1.125,-15.75,-12.9375
1480688963456758,-3.25,-16.75,-13.5
1480688963480321,-7.4375,-18.25,-12.375
1480688963493355,-11.0625,-19.5,-12.625
1480688963523937,-12.3125,-19.375,-12.9375
1480688963538980,-12,-18.3125,-11.25
1480688963553515,-12.5625,-17,-10.4375
1480688963578582,-13.0625,-15.6875,-9.875
1480688963619694,-12.5,-14.5,-8.4375
1480688963646262,-14.0625,-14.25,-6.1875
1480688963651275,-16.375,-14.9375,-4.3125
1480688963682860,-15.3125,-15.3125,-2.4375
1480688963687873,-13.4375,-15.3125,0.4375
1480688963696397,-10.6875,-14.8125,3.4375
1480688963720961,-8.5,-15,5.75
1480688963740012,-8.4375,-15.875,6.6875
1480688963757557,-9.4375,-16.6875,7.625
1480688963779115,-9.125,-17.0625,7.125
1480688963800170,-9.0625,-17.0625,7
1480688963824235,-12.3125,-17.3125,8.0625
1480688963840278,-16.875,-17.3125,8.875
1480688963867851,-16.25,-14.75,8.1875
1480688963882389,-18.8125,-11.75,7.375
1480688963919990,-26.5,-11.625,6.5
1480688963946060,-33.5,-12.875,5.9375
1480688963951573,-39.25,-13.125,5.9375
1480688963960598,-44.375,-10.875,4.3125
1480688963980149,-43.375,-8.625,1.875
1480688963997195,-40.875,-6.9375,-0.375
1480688964019254,-32.9375,-6.75,-2
1480688964041313,-23.375,-5.6875,-2.5625
1480688964056856,-10.625,-4.625,-3.75
1480688964078912,-3.375,-4.8125,-4.0625
1480688964099969,-0.9375,-6.4375,-4.75
1480688964124032,0.125,-8.6875,-5.8125
1480688964139074,1.9375,-9.0625,-5.875
1480688964160128,2.9375,-7.8125,-5.6875
1480688964208761,6.3125,-7.625,-4.6875
1480688964223798,6.6875,-5.375,-5.625
1480688964230315,1.5,-2.0625,-2.1875
1480688964238338,0.5,-4.625,-0.75
1480688964258891,2.0625,-9.25,-2.5625
1480688964280449,6,-8.8125,-2
1480688964295989,14.4375,-7.1875,-1.25
1480688964319050,22.125,-7.25,0.375
1480688964347627,25.5,-7.25,1.375
1480688964356150,23.5,-6.75,1.3125
1480688964379211,21.875,-6.25,2.0625
1480688964401770,18.1875,-6.4375,2.625
1480688964431349,14.125,-6.8125,2.4375
1480688964453909,15.1875,-7.25,1.75
1480688964499531,14.3125,-8.25,1.9375
1480688964503041,11.375,-8.875,1.5625
1480688964523093,8.125,-9,1.125
1480688964524598,4.125,-8.25,1.0625
1480688964536128,2.9375,-6.75,0.5625
1480688964559189,3.5625,-4.8125,0.5625
1480688964581749,3.5,-2.75,0.5625
1480688964602304,4.1875,-1.25,-0.125
1480688964618848,3.5,0.25,-0.625
1480688964641409,1.875,0.9375,-0.625
1480688964663970,0.1875,0.125,-0.4375
1480688964686530,-0.0625,-0.1875,-0.25
1480688964701569,-1.5,0,-0.5
1480688964730144,-0.25,0.9375,-0.75
1480688964740673,0.9375,2.1875,-1.0625
1480688964761728,0.9375,3.25,-1
1480688964790305,1.8125,3.625,-1.3125
1480688964799329,1,3.1875,-1.3125
1480688964821889,0.375,2.625,-0.9375
1480688964835925,-0.4375,1.8125,-0.625
1480688964858986,-1.3125,1.25,-0.75
1480688964881557,-0.8125,0.875,-0.625
1480688964902602,0.0625,0.625,-1.125
1480688964919147,0.1875,0.4375,-0.9375
1480688964941707,0,0.5625,-0.625
1480688964964267,-0.375,1.1875,-0.8125
1480688964980310,-0.3125,1.75,-1.1875
1480688965001866,-0.4375,0.875,-0.625
1480688965029941,-1.0625,-0.25,-0.625
1480688965040471,-0.1875,-0.5,-0.75
1480688965061525,1.625,0.25,-0.1875
1480688965082581,-0.875,0.125,0.25
1480688965099125,-5.6875,0.75,0.625
1480688965122189,-8.8125,1.4375,1.75
1480688965142742,-12,1.125,1.25
1480688965159285,-14.125,1.125,2.0625
1480688965190368,-7.25,2.625,1.375
1480688965220448,1.375,3.75,1.3125
1480688965241504,10.4375,3.5625,0.25
1480688965255541,12.375,3,-0.875
1480688965274601,5.875,1.8125,-1.25
1480688965295146,0.5,0.3125,-0.3125
1480688965310187,0.6875,0.25,0.3125
1480688965340267,2.875,-0.125,0
1480688965343776,2.0625,-0.0625,0.25
1480688965361322,1.4375,0.4375,0.375
1480688965383882,1.1875,0.75,0.125
1480688965398923,0.8125,0.875,0.5625
1480688965421487,0.4375,0.9375,0.5625
1480688965444042,-0.9375,0.5625,-0.125
1480688965467605,-1.5,0.0625,-0.4375
1480688965498188,-0.25,-0.25,-0.875
1480688965504205,0.4375,-0.5,-1.3125
1480688965526762,0.3125,-1,-1.375
1480688965565365,0.3125,-1.125,-1.25
1480688965570378,1.1875,-0.9375,-1.1875
1480688965587928,1.0625,-1.3125,-1.5
1480688965610485,-0.25,-1.5,-1.5
1480688965624022,-0.1875,-1,-1.375
1480688965646582,0.25,-0.5,-1
1480688965669141,-0.375,-0.625,-0.75
1480688965684181,-0.875,-0.5625,-0.375
1480688965698218,0.4375,-0.1875,-0.3125
1480688965728299,1.25,0.3125,-0.1875
1480688965744341,0.6875,0.5625,-0.625
1480688965773923,0.375,0.875,-0.875
1480688965794975,0.375,1.0625,-0.625
1480688965818538,-0.125,0.8125,-0.375
1480688965825055,-0.8125,0.1875,-0.4375
1480688965850624,-2.3125,-0.3125,0.0625
1480688965864160,-2.75,0.5,0.75
1480688965886720,-5.4375,0.8125,1
1480688965901760,-6.875,1.6875,0.9375
1480688965924320,-5.625,3.1875,3.6875
1480688965945376,5.4375,4.6875,0.875
1480688965961418,9.125,3.25,-1.3125
1480688965983979,6.375,1.375,-0.9375
1480688966005034,5.0625,1.125,-0.75
1480688966029099,2.375,0.1875,-0.9375
1480688966049653,2.125,-0.1875,0.4375
1480688966065696,-1,0.5,-0.6875
1480688966081738,-0.9375,0.5625,-0.4375
1480688966104300,0,0.3125,-0.75
1480688966124853,0.625,-0.1875,-0.8125
1480688966141397,1.1875,-0.0625,-0.8125
1480688966163957,0.9375,-0.4375,-1
1480688966185514,0.875,-0.5,-1.0625
1480688966201557,0.625,-0.5625,-1.0625
1480688966224117,-0.125,-1.125,-1.375
1480688966253194,-0.375,-1.625,-1.125
1480688966263221,-0.125,-1.8125,-1.375
1480688966284778,0.375,-1.1875,-1.0625
1480688966329898,0.625,-0.4375,-0.9375
1480688966332907,0.3125,-0.4375,-0.8125
1480688966344938,-1.25,-0.625,-0.1875
1480688966382036,1.5,-0.3125,-0.6875
1480688966384544,-0.9375,-0.1875,0.125
1480688966404096,-4.0625,-0.125,0.875
1480688966426655,-5.9375,1.5625,1.75
1480688966442198,-3.75,3.5625,1.75
1480688966464256,-0.875,2.375,1.5625
1480688966493833,2.3125,0.9375,0.5
1480688966500852,6.5625,-0.5,0.625
1480688966525919,8.9375,0.8125,1.5625
1480688966563018,5.375,3.3125,-0.25
1480688966576555,0.875,1.9375,-0.0625
1480688966585578,-4.4375,-1.25,0.375
1480688966606634,-4.25,-1.875,0.125
1480688966621177,-1,-0.5,-0.3125
1480688966644234,1,-0.9375,-0.5625
1480688966672810,2.1875,-0.625,-1.125
1480688966696373,1.125,-0.5,-1.0625
1480688966722444,-0.1875,-0.625,-0.0625
1480688966726453,-0.5,-0.8125,-0.125
1480688966740997,-0.9375,-0.6875,-0.625
1480688966764053,-0.75,-0.625,-0.875
1480688966787617,-0.3125,-0.8125,-1.1875
1480688966816693,-0.3125,-1.1875,-1.5625
1480688966824212,-1.125,-1.6875,-1.4375
1480688966862314,-1.3125,-1.5,-0.6875
1480688966868330,-0.125,-0.5625,-0.5
1480688966892393,0.3125,-0.0625,-0.5
1480688966906432,0.9375,-0.1875,-0.5
1480688966935007,1,-0.0625,-0.25
1480688966951551,-0.0625,0.0625,0.1875
1480688966968596,-0.3125,-0.125,0.0625
1480688967004695,-2.25,0.625,1.3125
1480688967007199,-3.5625,1.9375,1.375
1480688967026750,-5.1875,3.0625,1.25
1480688967047807,-6.375,3.75,1.625
1480688967064351,-4.5,2.9375,2.875
1480688967087418,-2.25,2.4375,0.875
1480688967117994,-1.9375,1.75,0.125
1480688967124010,0.0625,1.375,1.625
1480688967146570,1.875,0.4375,0.1875
1480688967167626,3.625,-0.25,-0.5
1480688967184170,4.875,-0.875,-1.3125
1480688967189685,4.25,-2.3125,-2.0625
1480688967211743,4.6875,-1.5625,-1
1480688967234303,1.125,-1.1875,-1.5
1480688967256864,-1.5625,-1.375,-0.6875
1480688967275914,-1.875,-0.8125,-0.9375
1480688967294463,0,-0.5625,-0.875
1480688967309504,0.5,-0.25,-0.8125
1480688967332063,0.8125,-0.5,-1
1480688967355127,0.3125,-0.9375,-0.6875
1480688967369664,0.75,-1.0625,-0.75
1480688967395232,0.875,-0.625,-0.5
1480688967417291,0.375,-0.5625,-0.625
1480688967467924,-0.25,-0.5,-0.75
1480688967477951,0.3125,-0.5,-0.5
1480688967493492,-0.625,0.0625,0.5625
1480688967498505,-2,0.8125,1.0625
1480688967516554,-3.875,1.5,0.8125
1480688967537613,-4.625,0.5,0.3125
1480688967557161,-1.3125,1,1.3125
1480688967579722,0.5625,1.625,0.1875
1480688967594262,3.125,0.9375,-0.25
1480688967612309,3.5,0.1875,-0.4375
1480688967631861,3,-0.125,-0.3125
1480688967654424,2.0625,-1,-0.75
1480688967676980,-1.125,-1.9375,-0.25
1480688967695028,0.8125,-1.875,-0.75
1480688967724106,2.125,-1.6875,-1.0625
1480688967732629,1.9375,-1.75,-1.1875
1480688967755690,0.9375,-1.375,-0.4375
1480688967782260,-0.0625,-1.0625,-0.5
1480688967798303,-1.5,-1.1875,-0.1875
1480688967811839,-0.9375,-0.375,-0.375
1480688967834399,0.3125,0.3125,-0.375
1480688967850943,0.5,0.6875,-0.4375
1480688967871999,-0.4375,0.875,-0.5
1480688967894559,-1.6875,0.5625,-0.25
1480688967911103,-1.1875,0.8125,-0.25
1480688967932159,0.125,0.9375,-0.5
1480688967955222,-0.0625,0.6875,-0.375
1480688967972266,0.3125,0.4375,-0.4375
1480688967994826,0.625,0.4375,0.0625
1480688968014379,0.75,0.1875,0
1480688968032425,0,0.0625,-0.125
1480688968052981,-0.5,0.125,-0.0625
1480688968082059,-0.125,0,-0.25
1480688968097097,-0.3125,0.1875,-0.25
1480688968121164,0,0.125,-0.5
1480688968134698,-0.0625,0.125,-0.4375
1480688968156756,0.375,0.125,-0.4375
1480688968171797,0.375,-0.0625,-0.5
1480688968201876,0.3125,0,-0.5
1480688968233962,-0.1875,-0.25,-0.4375
1480688968236469,-0.0625,-0.375,-0.6875
1480688968254517,0.25,-0.3125,-0.6875
1480688968277077,0.4375,-0.25,-0.5625
1480688968294623,0.1875,-0.375,-0.5
1480688968314676,0.375,-0.125,-0.4375
1480688968354785,0.4375,0.0625,-0.3125
1480688968357790,-0.125,0.25,-0.0625
1480688968383359,0.75,0.5625,-0.5625
1480688968399903,0.875,0.75,-0.4375
1480688968411934,0.125,0.875,-0.5
1480688968434495,-0.25,0.6875,-0.5625
1480688968458559,-0.0625,0.4375,-0.6875
1480688968479615,-0.125,0.1875,-0.8125
1480688968502175,0.0625,0.375,-0.6875
1480688968534761,0.75,0.3125,-0.75
1480688968537270,-0.0625,-0.1875,-0.5625
1480688968555818,0.5,0.375,-0.875
1480688968584895,1.625,0.5625,-1.1875
1480688968602441,1.25,1,-1
1480688968624500,0.8125,0.625,-0.4375
1480688968637034,0.75,0.375,0.125
1480688968659593,0.4375,0.25,-0.875
1480688968674633,0.625,-0.6875,-0.6875
1480688968696693,1.125,-0.5625,-0.5
1480688968711732,2.25,0.0625,-0.375
1480688968735796,1.625,-0.6875,-0.8125
1480688968759859,0.5,-0.8125,-1.125
1480688968779412,-0.1875,-0.8125,-0.4375
1480688968801973,0.25,-1,0.625
1480688968835561,0.875,-0.125,0.0625
1480688968850601,0.4375,0.4375,0.0625
1480688968854615,0.375,0.125,0.4375
1480688968877174,0.3125,-0.75,0.5
1480688968899732,1.375,-1.0625,0.0625
1480688968924799,0.125,-0.8125,-1
1480688968939839,-3.4375,-1.0625,0.4375
1480688968968416,-9.4375,-0.875,1.6875
1480688968981950,-7.4375,-0.1875,1.75
1480688969005013,1.5625,0.5625,1.0625
1480688969029075,7.3125,1,-0.5625
1480688969036095,7.0625,1.3125,-1.375
1480688969059657,4.125,0.25,-1.25
1480688969080713,-1.625,-0.875,-0.75
1480688969103274,-4.1875,-5.125,-0.1875
1480688969124329,-1.6875,-7.25,0.375
1480688969134858,0.6875,-6.8125,0.6875
1480688969161928,3.375,-5.625,-0.4375
1480688969194014,-3.1875,-7.125,1.0625
1480688969196521,-0.3125,-8.0625,3.5625
1480688969217577,10.0625,-9.375,2.5625
1480688969237131,10.4375,-5.6875,3.8125
1480688969254678,1.8125,-3.9375,5.625
1480688969274228,-2.375,-3.6875,6.9375
1480688969296787,0.8125,-6,10.3125
1480688969315838,4.75,-4.25,7.25
1480688969338398,-3.4375,-1.6875,2.875
1480688969359955,-8.375,0.875,2.25
1480688969383017,-4.0625,2.4375,5.4375
1480688969402070,-4.5,3.125,3.1875
1480688969417108,-7.8125,3.625,-3.3125
1480688969434654,-7.8125,3.6875,-4.5625
1480688969455710,4,3.8125,0
1480688969476766,11.5625,3.375,-2.3125
1480688969496819,4.4375,4.25,-7.875
1480688969514366,0.875,7,-8.8125
1480688969536927,-0.25,9.875,-7.875
1480688969554976,-3.6875,7.0625,-6.375
1480688969576532,-3.8125,1.875,-1
1480688969597086,0,-0.3125,-1.8125
1480688969616137,-1.5625,0.75,-3.3125
1480688969638697,0.5,1.75,-1.875
1480688969659753,2.4375,2.625,-1.5625
1480688969688329,2,3.25,-2.5
1480688969694344,2.0625,1.6875,-1.9375
1480688969716904,2.6875,1.625,-1.1875
1480688969747486,0.875,1.375,-1.25
1480688969756010,-1.4375,-0.375,-1.375
1480688969778569,-2.3125,-1.1875,-1.25
1480688969799626,-0.6875,-0.8125,-1.25
1480688969816168,1,-0.0625,-1.0625
1480688969837225,1.625,0.5625,-1.375
1480688969859283,1.25,1,-1.5
1480688969875828,0.9375,0.9375,-1.3125
1480688969913427,-0.375,0.4375,-0.8125
1480688969939998,-1.4375,0.1875,-0.625
1480688969959549,-1.1875,-0.375,-0.625
1480688969965064,0.125,-0.75,-0.6875
1480688969992638,1.0625,-0.0625,-0.9375
1480688970010686,1.9375,0.625,-0.75
1480688970033246,1.25,0.5,-1.1875
1480688970047283,0.375,0.125,-1.25
1480688970058313,-0.25,-0.1875,-0.9375
1480688970076865,-0.4375,-0.4375,-0.75
1480688970099923,0,-0.375,-0.75
1480688970124990,-0.1875,-0.4375,-0.5
1480688970169609,0.25,-0.0625,-0.5625
1480688970173118,1.25,-0.3125,-0.6875
1480688970177129,1.6875,-0.25,-0.5625
1480688970197182,2.3125,0.375,-0.9375
1480688970226760,2.125,1,-0.75
1480688970266867,0.75,1.0625,-0.3125
1480688970281406,-0.25,1.3125,-0.4375
1480688970283913,-0.75,1.6875,-0.3125
1480688970301961,-0.5,2,-0.25
1480688970317002,-0.75,2.1875,0.125
1480688970339561,-0.3125,2.125,0.125
1480688970357609,0.9375,1.875,-0.25
1480688970377160,1.75,2.0625,0.0625
1480688970399720,1.75,2.125,-0.0625
1480688970424787,1.1875,2.375,-0.4375
1480688970444340,0,2.0625,-0.1875
1480688970469908,-0.1875,2.0625,0.3125
1480688970492466,-0.3125,3.375,-0.25
1480688970496978,-0.4375,4.4375,0.25
1480688970519540,-0.375,3.4375,-0.0625
1480688970538089,1.5625,1.9375,-0.5
1480688970564659,2.9375,1.4375,0
1480688970582206,2.75,2.3125,-0.3125
1480688970605267,2.25,2.25,-0.3125
1480688970618303,1.625,0.9375,0.125
1480688970639358,1.625,0.75,-0.4375
1480688970665929,2.3125,1.8125,-0.6875
1480688970694003,1.875,2.3125,-0.125
1480688970699519,0.375,2.625,-0.125
1480688970730099,-0.75,3.1875,-0.3125
1480688970746141,-1.8125,3.6875,-0.25
1480688970769704,-0.9375,3.3125,-0.5
1480688970792765,0.1875,2.875,-0.8125
1480688970820843,1.25,2.625,-0.5625
1480688970835381,0.8125,2.5,-0.75
1480688970844904,-0.0625,2,-0.6875
1480688970858444,-0.8125,1.9375,-0.5
1480688970882504,-0.5,1.625,-0.0625
1480688970897545,0.0625,0.6875,-0.0625
1480688970933138,0.1875,0.375,0.125
1480688970939656,1.1875,0.375,-0.0625
1480688970957705,0.875,0.125,-0.1875
1480688970984275,-0.125,-0.4375,-0.4375
1480688971002824,0.6875,-1.25,-0.625
1480688971025384,-0.4375,-0.1875,-0.125
1480688971047444,-0.125,-1,-0.9375
1480688971066996,0.4375,-0.5625,-1.25
1480688971077523,-0.25,0.0625,-0.4375
1480688971104597,0.875,-0.5625,-0.5625
1480688971130163,1.25,0.4375,-0.6875
1480688971141694,0.125,2.25,-0.625
1480688971173781,0.375,1.875,-0.5
1480688971182302,1.125,-0.25,-0.875
1480688971201853,1.8125,0.125,-0.375
1480688971219902,0.9375,2.625,-0.75
1480688971239454,-1,2.25,-0.9375
1480688971262013,-1.25,-0.4375,-0.4375
1480688971280563,-0.375,-1.625,0.5
1480688971302622,1.3125,-0.875,-0.1875
1480688971323178,2.125,0.1875,-0.25
1480688971344232,1.3125,1.4375,0.375
1480688971359272,0,0.625,-0.3125
1480688971381833,-1.3125,-1,0.125
1480688971399880,1,0.625,1.1875
1480688971419432,1.375,1.9375,0.5625
1480688971442494,-1,0.9375,0.1875
1480688971460041,-4.75,1.625,0.5
1480688971487114,-7.25,2.5625,1.375
1480688971509672,-4.8125,2.3125,0.8125
1480688971520202,-2.3125,2.6875,0.125
1480688971539252,0.625,2.125,-0.4375
1480688971561810,3.375,1.3125,-0.25
1480688971580360,4.625,1.1875,-0.375
1480688971599410,4,0.3125,-0.5625
1480688971639517,2.6875,-0.1875,-0.625
1480688971642024,3.1875,0.3125,-0.8125
1480688971667093,3.125,-0.25,-0.9375
1480688971682130,2.125,-1.0625,-1.0625
1480688971699677,2,-1.3125,-1
1480688971728253,1.75,-1.625,-1.25
1480688971741790,2.1875,-2.0625,-1.5
1480688971764352,1.5625,-1.75,-1.1875
1480688971788413,0.3125,-1.1875,-0.625
1480688971809469,-0.125,-0.8125,-0.6875
1480688971820001,-0.5,-0.5625,-0.6875
1480688971841053,0.625,-0.5625,-0.5625
1480688971862110,1.5,-0.6875,-0.625
1480688971887178,1.3125,-0.25,-0.375
1480688971900712,0.6875,0.4375,-0.375
1480688971923272,-0.25,0.4375,-0.125
1480688971955357,-0.4375,0.375,-0.1875
1480688971960872,-0.125,0.25,-0.0625
1480688971990952,0.5,0.0625,-0.5
1480688972004488,0.875,0.0625,-0.375
1480688972022536,0.625,-0.0625,-0.4375
1480688972042088,0.5625,-0.1875,-0.4375
1480688972064649,0.75,-0.875,-0.625
1480688972090217,0.875,-0.875,-0.1875
1480688972101747,0.0625,1.125,0.5
1480688972127314,-0.9375,0.9375,-0.8125
1480688972142355,-1.25,-0.1875,0
1480688972162909,-0.8125,-1.0625,0.5625
1480688972185971,0.625,-1.1875,-0.5625
1480688972202515,0.6875,-1.0625,-0.5
1480688972222067,0.75,-0.25,-0.1875
1480688972240115,-0.125,0.0625,-0.1875
1480688972264679,-1,-0.25,-0.0625
1480688972289247,-0.5625,-0.25,-0.25
1480688972311805,0.375,-0.75,0
1480688972322333,1.3125,-1.6875,-0.4375
1480688972341886,1.4375,-0.9375,-0.9375
1480688972360434,0.3125,0.5625,-0.625
1480688972382994,-1.0625,0.1875,-0.75
1480688972409566,-0.9375,-0.3125,-0.75
1480688972420095,0,-0.5625,-0.75
1480688972455690,1.125,-1.1875,-1
1480688972462205,1.9375,-0.0625,-0.6875
1480688972479752,1.1875,0.25,-0.8125
1480688972508425,-0.875,-0.25,-0.625
1480688972521864,-0.5625,-0.1875,-0.625
1480688972539913,0.125,0.25,-0.6875
1480688972564980,0.9375,0.5,-0.75
1480688972593055,1,1.125,-1
1480688972607593,1.125,1.4375,-0.75
1480688972635667,0.8125,1.1875,-0.875
1480688972649202,0.125,0.625,-1.125
1480688972668253,0,0.5625,-1.1875
1480688972686805,0.625,0.8125,-1.125
1480688972709367,0.8125,0.5,-1.375
1480688972724402,0.4375,0.3125,-1.1875
1480688972744455,0.75,-0.1875,-1.3125
1480688972763506,1.375,-0.3125,-1.1875
1480688972787572,1.3125,0.5,-0.875
1480688972803613,0.5625,0.9375,-1.3125
1480688972824669,-0.375,0.1875,-1.125
1480688972844221,-0.125,0.1875,-0.6875
1480688972862269,0.6875,0.5625,-0.8125
1480688972891346,0.6875,0.375,-0.625
1480688972912404,0.25,0.3125,-0.375
1480688972929949,0.375,0.375,-0.25
1480688972944988,0.5625,0.4375,-0.375
1480688972966045,0.5,0.25,-0.1875
1480688972990110,0.5625,0.5,-0.3125
1480688973010664,0.5625,1.3125,-0.1875
1480688973024199,0.125,0.875,-0.5
1480688973042252,-0.25,0.375,-0.375
1480688973065810,0,0.3125,-0.25
1480688973101406,0.375,0.125,-0.6875
1480688973103914,1,0.1875,-0.5
1480688973124967,0.75,1.25,-0.375
1480688973152040,0,0.9375,-0.75
1480688973174600,-0.6875,0.0625,-0.625
1480688973200167,0,0.1875,-0.1875
1480688973205682,1.0625,0.375,-0.5625
1480688973222226,0.6875,0.625,0
1480688973244786,0.5625,0.8125,-0.1875
1480688973264338,0.1875,0.5,-0.125
1480688973294418,0.4375,0.625,0
1480688973310962,0.1875,1,-0.125
1480688973336028,0.375,0.9375,-0.3125
1480688973357085,0.4375,0.875,-0.375
1480688973364604,-0.1875,0.75,-0.3125
1480688973392177,-0.1875,0.5625,-0.375
1480688973408221,0.375,0.375,-0.3125
1480688973424765,0.4375,0.3125,-0.25
1480688973444318,0.6875,0.25,-0.375
1480688973462364,0.3125,0.375,-0.125
1480688973484926,-0.1875,0.4375,-0.125
1480688973504477,-0.625,0.125,-0.5
1480688973522525,-0.125,0.1875,-0.5
1480688973545085,0.3125,0.25,-0.375
1480688973573159,0.5,0.3125,-0.3125
1480688973582184,0.3125,0.0625,-0.0625
1480688973634322,0.5625,0.0625,-0.25
1480688973656380,0.625,-0.25,-0.25
1480688973658887,0.5625,0.0625,-0.1875
1480688973690471,0.8125,0.5625,-0.5
1480688973709020,0.6875,0.5625,-0.625
1480688973711527,0.0625,0.0625,-0.4375
1480688973725063,0.0625,-0.8125,-0.6875
1480688973746119,1,-0.5625,-0.625
1480688973762161,1.3125,0.0625,-0.5
1480688973792242,0.8125,0.5,-0.75
1480688973821320,0.25,0.75,-0.3125
1480688973828338,-0.3125,0.1875,-0.5625
1480688973849394,-0.1875,0.4375,-0.375
1480688973865938,0.875,1.25,-0.5
1480688973913063,0.3125,1.25,-0.4375
1480688973933617,-0.375,1.125,-0.4375
1480688973941640,-0.1875,1.1875,-0.25
1480688973944146,0.25,-0.0625,-0.1875
1480688973964700,1.1875,-0.625,0
1480688973991773,1.625,2.0625,-0.125
1480688974006813,-0.4375,2.3125,-0.625
1480688974024860,-1.875,-0.5625,-0.5
1480688974054941,-0.625,-0.125,-0.1875
1480688974066972,0.25,1.5,-0.75
1480688974085021,-0.0625,0.625,-0.125
1480688974106578,0.625,-0.0625,-0.1875
1480688974137159,0.25,0.125,-0.4375
1480688974145682,-0.6875,-0.25,-0.125
1480688974189803,-0.875,-0.4375,-0.0625
1480688974191804,-0.1875,-0.5625,0.0625
1480688974225895,0,-0.375,0.125
1480688974242439,0.0625,-0.375,0.25
1480688974247452,-0.125,-0.625,0.375
1480688974263996,0.1875,-0.5625,0.5
1480688974286557,0.1875,0.1875,0.5
1480688974307612,-0.1875,0.1875,0.6875
1480688974324156,-0.5625,-0.125,0.5625
1480688974346716,-0.75,-0.1875,0.3125
1480688974367772,-0.125,-0.25,0.3125
1480688974390332,-0.0625,-0.375,0.25
1480688974414396,-0.1875,-0.4375,0.3125
1480688974427430,-0.125,-0.5,0.1875
1480688974465532,-0.5625,-0.5625,0.125
1480688974474056,-0.25,-0.5,0.125
1480688974488594,-0.5,-0.25,0.125
1480688974504135,-0.5625,-0.1875,0.1875
1480688974528199,-0.6875,-0.125,0.25
1480688974547752,-0.625,0,0.125
1480688974564295,-0.1875,0,-0.0625
1480688974586857,-0.6875,0,0.0625
1480688974607410,-0.25,-0.0625,0.0625
1480688974623953,-0.0625,0.0625,0.125
1480688974646514,-0.0625,-0.1875,0.125
1480688974669074,-0.4375,-0.3125,-0.0625
1480688974684114,-0.4375,-0.5,0
1480688974744774,-0.3125,-0.4375,-0.0625
1480688974749287,-0.5625,-0.3125,-0.3125
1480688974768839,-0.625,-0.4375,-0.125
1480688974772348,-0.5,-0.4375,-0.1875
1480688974787890,-0.5,-0.875,-0.375
1480688974803932,-1.0625,-1.25,-0.1875
1480688974826491,-1.5625,-1.25,-0.375
1480688974849053,-2.1875,-0.8125,-0.3125
1480688974870110,-3.1875,-1.0625,-0.3125
1480688974886654,-3.375,-1.875,-0.4375
1480688974909212,-2.25,-2.125,-0.625
1480688974924753,-1.625,-1.75,-0.5625
1480688974946311,-1.8125,-1.375,-0.375
1480688974970379,-3.1875,-0.9375,-0.25
1480688975004971,-3.1875,-1,0
1480688975023020,-2.9375,-1.8125,0.25
1480688975042574,-1.8125,-2.125,0.125
1480688975053101,-0.25,-1.0625,0
1480688975067136,-0.125,-0.25,-0.125
1480688975096715,-2.125,-0.6875,-0.4375
1480688975104736,-4.375,-1.25,0.1875
1480688975126293,-5,-1.875,0
1480688975150859,-4.125,-1.125,-0.5
1480688975163392,-2.8125,-0.125,-0.5
1480688975186456,-1.6875,-0.0625,-0.75
1480688975209013,-2.25,-0.5,-0.5
1480688975231573,-2.3125,-0.875,-0.75
1480688975259649,-1.5625,-0.9375,-0.625
1480688975278198,-1,-0.0625,-0.625
1480688975297750,0.1875,0.5625,-0.8125
1480688975306774,1.5,0.3125,-0.6875
1480688975328832,1.875,0.625,-0.4375
1480688975349888,0.8125,-0.5,-0.0625
1480688975366433,1.25,-0.1875,-0.25
1480688975388993,0.625,1.25,-0.3125
1480688975410048,0.25,1.6875,-0.25
1480688975426592,-0.5625,2,-0.25
1480688975448651,0.25,1.4375,-0.4375
1480688975477728,-0.5625,1.8125,-1.375
1480688975501791,-1.4375,2.25,-1.1875
1480688975508811,-2.5625,2,0.0625
1480688975531370,-4.8125,1,-0.125
1480688975561451,-5.625,0.125,-0.375
1480688975583008,-2.9375,-0.375,0.25
1480688975597547,-0.625,-0.25,0.125
1480688975606572,-2.0625,-0.5625,-0.625
1480688975629130,-3.375,-0.9375,-0.1875
1480688975650186,-1.6875,-0.6875,0.4375
1480688975666730,-0.8125,-0.625,0.875
1480688975689290,0,0.1875,0.8125
1480688975710347,0.25,0.4375,1.625
1480688975733912,1.5,-0.625,0.9375
1480688975757973,1.8125,-0.625,0.8125
1480688975786549,2.25,-0.625,0.0625
1480688975794069,-0.8125,-0.5625,0.3125
1480688975809109,0.9375,0.8125,-0.0625
1480688975832171,1,1,-0.75
1480688975854231,1.5625,1.25,0.0625
1480688975883809,3,0.4375,0.5
1480688975891327,4.4375,-0.3125,0
1480688975905872,4.6875,0.8125,-0.3125
1480688975928928,-0.5625,2.875,0.375
1480688975951488,-3.3125,4.875,1.625
1480688975966026,-3.125,5.5625,0.0625
1480688975989088,-3.625,5.0625,-0.5
1480688976012149,-3.875,5.625,1.25
1480688976034209,-6.75,5.9375,1.5
1480688976049249,-8.4375,3.1875,1.25
1480688976071808,-10.75,-1.3125,0.6875
1480688976093866,-9.1875,-4.8125,-1.375
1480688976116426,-0.375,-3.1875,-1.375
1480688976138986,-4.5,0.125,0.9375
1480688976154026,-5.75,-1.875,0.625
1480688976169073,-1.4375,-0.4375,-0.1875
1480688976199648,1.6875,3.1875,0.3125
1480688976205664,0.5,3.1875,1
1480688976229226,-4.375,1.9375,0.75
1480688976251787,-3.25,1.8125,-0.0625
1480688976265824,0.25,1.75,0.1875
1480688976288885,2.875,3.5,-0.125
1480688976311445,5.9375,5.1875,-1.1875
1480688976335509,4.9375,4.75,-1.4375
1480688976350048,1,2.6875,-0.75
1480688976371605,-3.625,-0.9375,0.875
1480688976392661,-4.0625,-3.9375,1.6875
1480688976409706,-0.375,-4.9375,1.25
1480688976432266,1.8125,-3.75,0.5625
1480688976453824,0.25,-2.8125,0.75
1480688976469369,-1.5625,-6,1.125
1480688976491423,0.4375,-8.9375,2.0625
1480688976520001,3.75,-9,2.1875
1480688976531029,5.6875,-5.25,1.6875
1480688976551584,5.875,-1.5625,1
1480688976572639,0.0625,-0.4375,0.8125
1480688976588683,-4.875,1.3125,0.75
1480688976611745,1.625,4.5625,-0.5
1480688976632799,4.8125,7.3125,-0.75
1480688976650346,7.1875,8.8125,-2.5625
1480688976671403,2.8125,8.125,-3.625
1480688976692457,-2.1875,7.8125,-1.75
1480688976710006,-4,8.75,-0.625
1480688976731562,-2.75,9.875,-0.4375
1480688976754122,0.0625,11.0625,-2.125
1480688976769173,3.1875,12.0625,-1.75
1480688976799242,2.25,12.125,-0.8125
1480688976821301,-2.1875,9.3125,-0.5625
1480688976828820,-6.0625,5.625,-0.125
1480688976851381,-8.25,2.8125,0.625
1480688976874443,-5.625,0.625,0.625
1480688976888481,-0.875,-1.5625,0.125
1480688976926581,0.3125,-2.25,-1
1480688976934103,1.875,-1.25,-0.75
1480688976964181,3.875,0.125,-0.5625
1480688976972203,3.125,-0.125,-0.75
1480688976993761,1.4375,0.0625,-0.8125
1480688977009803,0.9375,0.875,-0.875
1480688977031360,0.125,1.125,-1.25
1480688977053920,-1.25,0.25,-0.625
1480688977076480,-0.75,-0.6875,-0.9375
1480688977106559,-0.125,-0.5625,-1.1875
1480688977122602,-0.25,-0.4375,-1.3125
1480688977128621,-0.4375,-0.875,-1.25
1480688977151680,-1.1875,-0.75,-0.875
1480688977173740,-2.5625,-0.9375,-0.375
1480688977188279,-4.3125,-3.3125,0.375
1480688977212341,-1.6875,-5.25,0.1875
1480688977241419,0.4375,-5.5625,-0.375
1480688977273003,0.125,-4.75,0
1480688977285034,0.1875,-3.4375,-0.3125
1480688977294058,0.375,-2.6875,-0.1875
1480688977322635,1.0625,-0.5,-0.125
1480688977331657,1,1.1875,-0.4375
1480688977361738,-0.625,1.375,-0.375
1480688977375275,-2.375,0.25,0.5625
1480688977399338,-1.75,-0.4375,1.125
1480688977423903,-1.9375,-0.75,0.25
1480688977436437,-2.75,-0.3125,0.75
1480688977465012,-2.125,0.9375,1
1480688977474040,-1.375,1.1875,0.3125
1480688977503617,0.375,1.125,0.25
1480688977521163,2.5625,1.125,-0.375
1480688977543722,2.5625,1,-0.3125
1480688977562772,0.8125,0,-0.1875
1480688977571297,-1,-0.25,-0.1875
1480688977594858,-1.75,-0.0625,-0.1875
1480688977614911,-0.25,0.375,0.0625
1480688977631956,0.75,0.9375,0.1875
1480688977654016,1.6875,1.25,-0.125
1480688977676576,2.1875,1.125,0.375
1480688977699135,0.6875,0.8125,0.375
1480688977714175,-0.375,1,0
1480688977760297,-0.4375,1.5,0.0625
1480688977765813,0.6875,1.6875,0.3125
1480688977775338,1.875,2.6875,-0.125
1480688977798399,1.4375,5,0
1480688977824970,1.6875,8.125,-0.4375
1480688977841514,-1.125,9.9375,-0.3125
1480688977864074,-4.9375,9.0625,1.125
1480688977877610,-6.5,5.625,1.6875
1480688977894153,-6.875,3.875,0.8125
1480688977922731,-3.4375,3.5625,0.625
1480688977930751,-0.75,2.6875,0.875
1480688977961332,-0.0625,1.25,0.3125
1480688977977876,-0.125,0.4375,0.25
1480688977990913,-1,0.5625,0.9375
1480688978021494,-0.8125,0.6875,0.4375
1480688978042549,0.1875,0.5625,0.3125
1480688978051072,0.6875,0.0625,0.0625
1480688978082153,0.1875,0.25,0.25
1480688978097193,-1.5625,1.0625,0.625
1480688978120255,-4.125,0.4375,0.3125
1480688978141311,-2.625,-0.75,0.5
1480688978163870,0.5,-0.6875,0.125
1480688978170891,1.6875,-0.125,-0.0625
1480688978194452,1.1875,-0.375,0.3125
1480688978217514,0.375,-0.4375,0.4375
1480688978237568,-1,-1.0625,0.25
1480688978254112,-0.5625,-1.25,0
1480688978276673,1.1875,-0.8125,-0.0625
1480688978297726,1.125,-1,-0.0625
1480688978345354,0.5,-0.8125,-0.25
1480688978352878,0.125,-0.625,0.0625
1480688978357385,-0.625,-0.625,-0.0625
1480688978374431,-0.3125,-0.5625,-0.1875
1480688978396990,0.4375,-0.25,-0.1875
1480688978419555,0.625,-0.125,-0.25
1480688978443116,1.1875,-0.125,-0.5
1480688978457150,1,-0.3125,-0.3125
1480688978494750,0.8125,0,-0.1875
1480688978497257,-1.0625,0.8125,-0.625
1480688978516308,-2.6875,0.625,-0.6875
1480688978537364,-3.5625,-1.3125,-0.9375
1480688978561427,-3.3125,-1.625,-1.1875
1480688978576970,-2.5,-1.25,-0.8125
1480688978597524,-3.125,-1.8125,0.125
1480688978613567,-3.5625,-2.75,0.4375
1480688978650165,-2.5,-1.625,-0.125
1480688978659188,-1.625,-0.9375,0.5
1480688978675732,-3.25,-2.5,0.75
1480688978696788,-4.0625,-3.3125,0.5
1480688978719348,-3.5625,-3.125,0.875
1480688978741407,-3.125,-3.125,1.1875
1480688978762463,-2.5625,-3.4375,1.1875
1480688978779006,-3,-3.75,2
1480688978795052,-3.25,-3.9375,1.5
1480688978816607,-4.3125,-4.25,1.8125
1480688978855209,-3.4375,-5.4375,2.0625
1480688978860222,-2.25,-6.0625,1.375
1480688978876775,-1.6875,-6.0625,1.1875
1480688978898826,-0.875,-5.3125,1.375
1480688978927903,-0.625,-5.25,1.1875
1480688978952468,0.25,-5.5,1.375
1480688978958985,1.4375,-4.9375,0.8125
1480688978974026,0.9375,-3.5625,0.625
1480688978996587,1.4375,-1.5,0.625
1480688979019646,1.375,0.6875,0.1875
1480688979033686,1.125,1.375,-0.25
1480688979056746,1.4375,0.75,0
1480688979078804,1.75,1,-0.3125
1480688979101366,1.8125,1.5625,-0.75
1480688979117406,1.0625,2.875,-1.125
1480688979138963,3.125,4.375,-1.25
1480688979160521,2.5625,5.0625,-2
1480688979176564,0.625,4.75,-2.25
1480688979199625,2.5625,5.375,-1.0625
1480688979227699,2.8125,5.8125,-0.5
1480688979237225,-2.6875,4.25,-0.625
1480688979258782,-5.5625,2.375,-0.5
1480688979279838,-3.75,1.6875,-0.5625
1480688979296382,-0.3125,1,-1
1480688979318947,2,-0.5625,-0.6875
1480688979339999,4.75,-2.1875,-0.625
1480688979356542,5.125,-1.75,-2.0625
1480688979386121,2.875,-0.625,-0.875
1480688979407678,0.0625,-1.5,-0.625
1480688979432244,-1.5,-1.8125,-0.9375
1480688979445278,0.125,-0.875,-1.125
1480688979461321,0.8125,-0.125,-0.75
1480688979482377,0.3125,0.3125,-0.9375
1480688979506442,0.4375,0.0625,-0.8125
1480688979528500,0.4375,-0.75,-0.75
1480688979536521,2.25,0.4375,-0.9375
1480688979559081,0.5625,2.3125,-1
1480688979580137,-1.5625,0.875,-2.5625
1480688979597684,-2.1875,-2.75,-1.5
1480688979626259,1.1875,-3,-1.875
1480688979641806,3,-2.375,-2.5
1480688979656848,2.6875,-1.8125,-1.875
1480688979686423,1.75,0.3125,-1.6875
1480688979708984,0.125,-0.4375,-1.9375
1480688979724024,-0.625,-1.25,-2.0625
1480688979739063,0.875,0.5,-1.125
1480688979761623,1.9375,0.75,-1.375
1480688979784185,1.9375,0.0625,-1.6875
1480688979798722,1.1875,-0.125,-0.9375
1480688979822286,1.3125,-0.25,-0.625
1480688979835824,0.5625,-0.8125,-0.8125
1480688979858882,-0.6875,-0.1875,-0.5
1480688979888962,-1.0625,0.875,0.9375
1480688979895980,-1.5,0.75,0.9375
1480688979919045,1.1875,0.5625,-0.0625
1480688979941602,2.1875,4.4375,0.8125
1480688979956141,1.125,6.375,0.125
1480688979979202,-1.5,5.75,-0.1875
1480688980002265,-1.5625,4.9375,-0.25
1480688980015799,-1,3.1875,-0.375
1480688980038861,0.125,1.625,-0.125
1480688980062423,0.8125,0.6875,-0.0625
1480688980082476,0.9375,0,-0.125
1480688980099021,-0.6875,-0.8125,-0.125
1480688980121582,-3.75,-1.3125,-0.5
1480688980142638,-3.6875,-1.75,-0.75
1480688980159180,-0.75,-2.375,-0.75
1480688980196279,0.75,-2.0625,-0.6875
1480688980209816,0.5625,-2,-0.75
1480688980227863,-2.6875,-2.25,0
1480688980241400,-4.1875,-0.875,0.75
1480688980262456,-2.5,0.8125,0.1875
1480688980303063,-0.1875,1.375,0.3125
1480688980308077,2.8125,3.0625,-0.5
1480688980322616,2.9375,5.1875,-1.125
1480688980339661,-1.625,6.5,-2.0625
1480688980375255,-7.375,5.9375,-0.875
1480688980383778,-9.875,6,-1.25
1480688980398819,-9.25,6.625,-1.625
1480688980421379,-9,6.5625,-0.9375
1480688980442434,-7,6.1875,-0.875
1480688980459981,-9.875,6.9375,-1.875
1480688980481537,-13,9.25,-0.1875
1480688980511117,-13.1875,12.125,0.1875
1480688980519643,-16.125,13,0.625
1480688980541698,-17.6875,10.75,0.875
1480688980563756,-10.5,8.75,1.25
1480688980578296,-1.5625,10.4375,-0.3125
1480688980601859,0.75,9.4375,-0.5625
1480688980623916,4.5,4.9375,-0.1875
1480688980638956,-4.5625,1.375,0.625
1480688980661517,-10.3125,-0.1875,-1.5
1480688980684578,3.875,-0.25,-2.3125
1480688980698113,4.625,0.6875,0.1875
1480688980721676,0.0625,1,-1.3125
1480688980744237,0.0625,0.1875,-1.6875
1480688980758274,1.25,0.625,-0.125
1480688980781335,-0.4375,1.4375,-1.125
1480688980809911,0,1.4375,-0.5625
1480688980818436,0.125,2,-0.4375
1480688980847511,0.8125,3,-1.3125
1480688980864055,0.5,4.625,-0.875
1480688980878594,-3.25,5.3125,-0.125
1480688980901155,-5.875,4.125,-0.4375
1480688980924215,-2.375,6.4375,-1.125
1480688980938252,-2.9375,10,0.25
1480688980961315,7.75,8.9375,-3
1480688980983878,-3.5,8.875,0.0625
1480688981004929,-5.3125,4.5625,-1.1875
1480688981021975,-0.5,0.0625,-5.4375
1480688981051556,-4.4375,-2.3125,1.6875
1480688981065089,-4.5,2.1875,-2.125
1480688981082135,0.375,2.5625,-2.1875
1480688981105196,2.6875,4.4375,-0.1875
1480688981125751,1.4375,6.1875,-2.0625
1480688981150316,-2.9375,7.4375,0.375
1480688981165858,8.75,5,-3.25
1480688981185411,-1.1875,-0.25,-1.625
1480688981208972,-4.9375,-2.3125,-0.0625
1480688981224014,-2.0625,1.0625,-2.75
1480688981245069,2.1875,1.9375,-0.875
1480688981261613,2.6875,3,-1.5625
1480688981284676,3.375,2.0625,-2.0625
1480688981305229,2.125,1.5625,-1.5
1480688981321271,-1.3125,1.375,-1.5
1480688981343831,-3.125,0.375,-2.25
1480688981364886,-2.75,-0.1875,-2
1480688981381431,-0.8125,1.0625,-1.625
1480688981403991,2.0625,2.75,-1.8125
1480688981425047,-0.9375,2.0625,-1.0625
1480688981442094,-2.9375,0.6875,-0.875
1480688981464652,-2.625,1.0625,-0.5
1480688981494230,-1.5625,1.6875,0.25
1480688981502256,0.75,6.5625,-0.25
1480688981532834,5.875,5.375,0.6875
1480688981546369,6.625,2.25,-2.6875
1480688981561409,-6.4375,-2.375,2
1480688981583969,-5.9375,-2.375,-0.1875
1480688981607032,-2.875,-1,0.625
1480688981621068,-0.8125,0.8125,1.125
1480688981651649,1.125,1.8125,0.75
1480688981674210,1.5625,1.5625,1
1480688981680728,-1.8125,1.625,1
1480688981703788,-2.9375,1.4375,0.75
1480688981726348,-1.5,0.875,1.0625
1480688981740887,-0.8125,0.6875,0.6875
1480688981771970,1.625,0.375,-0.1875
1480688981794530,1.5,-0.1875,0.3125
1480688981811074,0.3125,0,0.25
1480688981824108,0.4375,0.25,0.375
1480688981846668,-0.25,0.125,0.4375
1480688981860705,-1.3125,0,0.25
1480688981883767,-0.375,0.4375,0.4375
1480688981907831,0.8125,1,0.8125
1480688981921369,0.3125,0.8125,0.375
1480688981951449,-0.6875,0.875,0.5
1480688981966487,-1.0625,1.4375,0.8125
1480688981995062,-1.75,2.125,0.8125
1480688982004086,-2.125,2.8125,0.875
1480688982026647,-2.8125,2.125,0.4375
1480688982047703,-2.375,1.3125,0.5625
1480688982064748,-1.375,1.9375,0.3125
1480688982092823,-1.25,1.6875,0.3125
1480688982107362,-1,0.4375,0.125
1480688982123905,0.125,0.4375,-0.25
1480688982146466,0.1875,0.5625,0.125
1480688982167521,-0.0625,0.0625,0
1480688982184066,0.0625,-0.125,-0.1875
1480688982206626,1,-0.125,-0.0625
1480688982229686,1.125,-0.0625,-0.25
1480688982244225,1.0625,-0.0625,-0.25
1480688982272300,-0.375,-0.125,0
1480688982294859,-0.875,-0.25,0.0625
1480688982303884,-0.3125,0,0.1875
1480688982326444,-0.1875,0.25,0
1480688982348002,0.3125,0.3125,-0.125
1480688982364043,0.1875,0,-0.1875
1480688982386604,-0.0625,0.125,-0.125
1480688982407662,-0.0625,-0.125,0.3125
1480688982423702,0.3125,-0.5625,-0.1875
1480688982453782,0.5,-0.0625,0.0625
1480688982468822,0.9375,0,0.375
1480688982484364,-0.125,-0.4375,0.3125
1480688982506423,-0.6875,-0.5625,0.125
1480688982528982,0.4375,-0.375,0.1875
1480688982552545,1.5625,0.0625,0.375
1480688982574605,1.4375,0.5625,0.125
1480688982597164,0.25,0,0.0625
1480688982604685,-1,-0.3125,0.0625
1480688982626241,-0.75,0.0625,0.1875
1480688982648801,0.375,0.5625,-0.125
1480688982663340,0.9375,0.375,-0.125
1480688982686401,0.25,-0.0625,-0.4375
1480688982708962,-0.1875,-0.375,-0.1875
1480688982723500,0.4375,-0.375,-0.0625
1480688982755084,0.4375,-0.3125,-0.1875
1480688982769121,0.375,-0.375,-0.5
1480688982783159,0.625,-0.1875,0.0625
1480688982806722,0.875,-0.125,-0.5625
1480688982837303,0.6875,-0.1875,-0.25
1480688982849836,0.5,-0.125,-0.1875
1480688982866380,0.5,-0.25,-0.3125
1480688982888940,0.9375,-0.75,-0.4375
1480688982917516,1.6875,-0.75,-0.1875
1480688982927542,1.875,-0.4375,-0.0625
1480688982949103,0.9375,-0.5,-0.1875
1480688982970155,0.6875,-0.375,-0.5625
1480688982986700,0.1875,-0.375,-0.1875
1480688983009260,0.25,0.0625,-0.375
1480688983029814,0.1875,-0.1875,-0.375
1480688983061398,0.5625,-0.5,-0.6875
1480688983074935,1.6875,-0.25,-0.5625
1480688983089975,2,-0.6875,-0.5625
1480688983106519,1.8125,-1.125,-0.5625
1480688983130081,1.4375,-1.25,-0.4375
1480688983157653,1.375,-0.875,-0.625
1480688983166678,1.6875,-0.625,-0.25
1480688983195254,0.9375,-0.4375,-0.3125
1480688983209794,0.6875,-0.4375,-0.3125
1480688983226337,0.75,-0.25,-0.1875
1480688983248897,0.1875,-0.5,-0.3125
1480688983269953,1,-0.375,-0.375
1480688983286497,1.3125,-0.0625,-0.5
1480688983309057,0.6875,0.4375,-0.3125
1480688983338134,-0.0625,0.25,-0.4375
1480688983348161,-0.125,0.4375,-0.4375
1480688983369217,-0.25,0.5625,-0.4375
1480688983391275,0.25,0.375,-0.5625
1480688983413835,0.3125,0.4375,-0.1875
1480688983428875,0.1875,0.125,-0.5625
1480688983451438,0.4375,0,-0.4375
1480688983467984,0.1875,-0.125,-0.5
1480688983489035,-0.125,-0.375,-1
1480688983519118,0.5625,0.0625,-1
1480688983525633,-0.1875,1.625,-0.75
1480688983549196,-2.625,1,-0.8125
1480688983571254,-2,-0.625,-0.75
1480688983593814,-0.125,-1.3125,0.125
1480688983616374,0.9375,-0.875,-0.9375
1480688983631414,0.9375,0.5,-0.6875
1480688983646955,-0.5625,0.0625,0.5
1480688983675531,-3.125,-0.5625,-0.5
1480688983692074,-3.1875,-0.9375,-0.625
1480688983713633,-1.75,-1.5,-0.6875
1480688983729174,0.3125,-1.125,-0.8125
1480688983751736,0.3125,-1.1875,-0.8125
1480688983766273,-0.0625,-1.875,-0.75
1480688983789337,-0.4375,-1.75,-0.5625
1480688983811393,-1.6875,-1.375,-0.1875
1480688983827434,-0.8125,-0.375,-0.1875
1480688983848993,-0.3125,0.3125,0.3125
1480688983872555,-1,0.125,0.5
1480688983894112,-0.75,0,0.5625
1480688983915169,-0.9375,0.375,0.75
1480688983937227,-1.125,0.5625,1
1480688983963296,-0.1875,0.6875,1
1480688983971317,-0.25,1.375,0.8125
1480688983991371,-0.875,1.3125,0.75
1480688984012427,-0.9375,0.625,0.75
1480688984028975,-0.0625,0.5,0.4375
1480688984051533,0.125,0.875,0.3125
1480688984072588,0.25,1.1875,0.3125
1480688984089633,-0.0625,0.5625,0.5
1480688984118213,-0.1875,0,0.1875
1480688984132752,0.125,0.0625,0.0625
1480688984149793,1.0625,0.5,0.0625
1480688984171350,0.25,0.0625,0.25
1480688984192408,-0.4375,-0.5,0.125
1480688984209451,-0.0625,-0.3125,0.3125
1480688984239031,0.625,-0.1875,0.375
1480688984252568,0.875,0.1875,0.1875
1480688984269110,0,0.25,0.375
1480688984291669,-0.75,0.0625,0.25
1480688984312725,0.0625,-0.0625,0.4375
1480688984328768,0.625,0,0.125
1480688984351830,0.6875,-0.125,0.0625
1480688984373893,0.75,-0.125,0.125
1480688984404470,0.375,0.6875,-0.0625
1480688984411488,-0.5625,0.375,-0.125
1480688984440064,-0.375,0,-0.375
1480688984448086,0.6875,-0.25,-0.25
1480688984471147,0.875,-0.4375,-0.3125
1480688984500225,0.9375,-0.875,-0.1875
1480688984508246,0.375,-1.6875,-0.125
1480688984531307,0.75,-1.8125,0.0625
1480688984553868,0.6875,-3.0625,-0.0625
1480688984568405,0.875,-4.5,-0.375
1480688984591467,1.3125,-4.1875,-0.375
1480688984614027,0.9375,-1.6875,-0.75
1480688984628566,1.125,1.25,0.3125
1480688984659148,0.3125,1.1875,0.125
1480688984683211,0.5625,0.9375,-0.6875
1480688984702762,0.4375,1.5,-0.4375
1480688984711285,0.5,2,-0.0625
1480688984748886,0.375,1.625,-0.5
1480688984751393,0.1875,0.75,-0.75
1480688984771446,0.875,0.8125,-0.625
1480688984794006,2.25,0.8125,-0.75
1480688984809547,2.875,1.0625,-0.8125
1480688984832609,0.9375,1.1875,-0.4375
1480688984854169,-0.75,1,-0.375
1480688984875224,-1.375,1.375,-0.3125
1480688984891264,0.5625,2.4375,-0.1875
1480688984913825,0.3125,2.75,0.375
1480688984934880,-1.1875,1.375,0.3125
1480688984951426,0.25,1,-0.1875
1480688984973990,0.5,1.625,0.0625
1480688985002561,-0.3125,1.25,-0.25
1480688985012085,0.5625,0.5625,-0.1875
1480688985040161,0.1875,0.4375,-0.5
1480688985055200,-0.0625,0.0625,-0.5
1480688985071243,0.9375,-0.4375,-0.5625
1480688985094304,1.125,-1.125,-0.875
1480688985114858,1.375,-1.3125,-0.6875
1480688985144938,1.375,-1.75,-0.75
1480688985169504,0,-2.375,-0.1875
1480688985175019,0.4375,-4.1875,-0.125
1480688985193067,0.5,-5.6875,-0.75
1480688985214624,1.4375,-7.25,-0.6875
1480688985236687,5.3125,-9.5,-1.9375
1480688985259243,8,-7.3125,-1.4375
1480688985273784,6.9375,-0.875,-0.75
1480688985302362,0.4375,-1.25,-0.625
1480688985311381,-4.9375,-4.5625,0.0625
1480688985336449,-2,-5.25,0.125
1480688985357003,1.875,-4.0625,-0.6875
1480688985372043,4,-1.1875,-0.5625
1480688985394101,1.5,-0.9375,-0.5
1480688985416662,-0.875,-2.75,-0.4375
1480688985430699,0.75,-2.1875,-0.25
1480688985453761,2.1875,-1.1875,-0.75
1480688985476321,3.1875,-0.5,-0.75
1480688985504899,2.5,0.6875,-0.875
1480688985515427,0.375,0.25,-0.8125
1480688985537483,0,-0.375,-0.3125
1480688985559039,0.75,-0.0625,-0.75
1480688985575083,2.125,0.75,-0.5
1480688985603159,0.9375,1.3125,-0.375
1480688985612182,0.5,0.75,-0.625
1480688985634241,0.3125,0.125,-0.375
1480688985656300,-0.8125,-0.25,-0.75
1480688985672342,0.3125,0.0625,-0.75
1480688985693898,0.9375,0.375,-0.4375
1480688985717462,1.0625,1.1875,-0.5
1480688985730997,0.75,0.3125,-0.5
1480688985754060,0.5,-0.0625,-0.5
1480688985777622,0.625,0,-0.625
1480688985797173,-0.625,-0.1875,-0.75
1480688985814218,-0.6875,-0.625,-0.25
1480688985836278,0.875,-0.75,0.4375
1480688985857835,-1.25,-1.25,-0.0625
1480688985873877,-1.0625,-2.6875,1.875
1480688985896437,0.75,-4,1.375
1480688985917493,-1.6875,-5.125,0.1875
1480688985935043,-2.3125,-7.25,-0.375
1480688985957098,-0.0625,-8.875,-0.625
1480688985979157,0.9375,-9.25,-1.1875
1480688986001718,2.9375,-8.1875,-1.4375
1480688986023781,4.8125,-5.6875,-0.4375
1480688986046336,3.125,-2.125,-0.4375
1480688986053856,0.75,-1.4375,-0.75
1480688986091455,-0.125,-2.5625,-0.5625
1480688986099477,0.4375,-1.375,-0.75
1480688986121540,0.3125,-0.625,-1.0625
1480688986137079,1,-0.1875,-0.75
1480688986165654,1.625,-0.25,-0.875
1480688986174177,0.9375,-0.5,-0.5625
1480688986196234,0.625,-0.625,0.125
1480688986217792,1.8125,-1.0625,0.3125
1480688986233834,0.9375,-0.75,-0.125
1480688986256394,-0.75,-0.125,0.125
1480688986278954,-0.5625,0.25,0.125
1480688986301515,-0.3125,1,-0.0625
1480688986322571,0.0625,0.5,-0.1875
1480688986339116,1.5625,0.1875,-0.25
1480688986354156,1.0625,0.25,-0.6875
1480688986376213,0.125,0.25,-0.75
1480688986414314,0.1875,0.25,-0.5625
1480688986420331,0.1875,0.0625,-0.5625
1480688986443893,0.375,-0.375,-0.125
1480688986459936,1.5,-0.625,-0.4375
1480688986474475,0.1875,-0.3125,-0.4375
1480688986496532,-1.125,0.125,-0.5625
1480688986519095,-0.5625,0.375,-0.5
1480688986533632,0.625,0.0625,-0.5
1480688986556694,1.3125,-0.0625,-0.5
1480688986579755,2.4375,-0.125,-0.5
1480688986593290,0.75,-0.5625,-1.5
1480688986622368,-0.9375,-1.9375,-2.25
1480688986638912,-2.375,-4,-3.25
1480688986653450,3.25,-5.875,-2.625
1480688986676512,6.6875,-4.8125,-2
1480688986705087,8.25,-3.4375,-2.625
1480688986722133,10.5,1,-2.5
1480688986744191,9.375,3.3125,-0.0625
1480688986765247,7.375,2,0.3125
1480688986779787,0.625,3.9375,-1.125
1480688986796330,-5.375,6.125,2.4375
1480688986818890,-6.125,2.6875,0.9375
1480688986847466,-4.25,-0.1875,0.8125
1480688986856490,4.875,-0.375,0.0625
1480688986893087,6.375,-3.0625,0.5625
1480688986900107,8.75,-5.6875,1.25
1480688986923671,6.9375,-6.9375,1.8125
1480688986947732,3.5,-8.9375,2.9375
1480688986977813,6.875,-8.125,1.9375
1480688986999371,9,-5.25,0.875
1480688987002882,11.875,-1.25,-2.0625
1480688987019925,6.75,2.875,-0.625
1480688987044492,-8.4375,6.5625,2.5
1480688987066549,-15.625,4.1875,1.4375
1480688987087604,-20.4375,-0.125,-0.75
1480688987095626,-11.5625,-1.125,-0.8125
1480688987126709,-2.875,1.875,-1.625
1480688987140251,-4,2.0625,-1.5625
1480688987169823,-5.4375,2.625,0.5
1480688987178848,-8.375,3.9375,0.625
1480688987201908,-11.4375,4.625,-0.125
1480688987216447,-10.3125,4.375,-0.125
1480688987239008,-4.875,4.8125,0.5
1480688987261567,-2.5,5,-1
1480688987290143,-2.875,4,-2.25
1480688987299669,-0.25,2.75,-0.875
1480688987321727,-2,1.375,-0.625
1480688987335764,-2.6875,0.75,-0.875
1480688987360330,-1.75,1.0625,-1.4375
1480688987381386,0.9375,0.9375,-1.8125
1480688987395924,0.6875,0.1875,-0.5
1480688987418986,0.9375,-0.4375,-0.0625
1480688987456587,-1.75,-1.5625,-0.5625
1480688987458592,-3.1875,-1.0625,-0.5
1480688987479146,-1.5625,-0.625,-0.375
1480688987502207,-1.25,-1.1875,-0.1875
1480688987515743,-0.25,-1.875,-0.125
1480688987544820,0.375,-2.9375,-0.25
1480688987561364,1,-3.4375,-0.5625
1480688987586940,0.9375,-4.8125,-0.8125
1480688987599466,2.9375,-6.75,-0.75
1480688987621526,3.875,-9.5,-1.625
1480688987636063,7.8125,-9.6875,-1.3125
1480688987672660,7.6875,-7,-0.75
1480688987681685,2.6875,-4.0625,-0.5
1480688987702740,1.125,-4.25,-0.8125
1480688987726303,1.5,-5.5625,-0.625
1480688987742345,3.1875,-4.1875,-0.625
1480688987769919,1.9375,-2.875,-0.1875
1480688987779946,0.6875,-2.6875,-0.75
1480688987809023,1,-3.375,-0.625
1480688987830078,2.5625,-2.375,0.125
1480688987839103,2.375,-1.625,0.3125
1480688987861663,0.8125,-1.25,0.6875
1480688987882719,-0.5,-1.4375,0.0625
1480688987898763,-0.1875,-1.8125,-0.1875
1480688987928842,0.3125,-1.8125,0.0625
1480688987942378,0.0625,-1.125,0.125
1480688987982986,0.1875,-0.9375,0.25
1480688987987999,0.875,-1.25,-0.1875
1480688988003039,1.75,-1.375,0.375
1480688988018586,2.75,-0.9375,0
1480688988056181,2.25,-0.875,-0.0625
1480688988065205,1.4375,-1.5625,-0.5625
1480688988086260,0.75,-1.4375,-0.75
1480688988108821,1.1875,-1.4375,-0.75
1480688988130377,2.3125,-1.4375,-1.0625
1480688988140405,2.75,-1.125,-1.25
1480688988161961,2.0625,-1.25,-1.4375
1480688988184521,2.0625,-1.25,-1.125
1480688988200064,0.9375,-0.625,-1.0625
1480688988222122,0.4375,-0.3125,-1.25
1480688988244181,0.5,-0.25,-1.1875
1480688988259220,0.625,-0.4375,-0.6875
1480688988281279,1,-0.5625,-0.8125
1480688988304341,0.8125,-0.125,-0.875
1480688988324894,0,0.3125,-0.875
1480688988341440,-0.3125,-0.0625,-0.9375
1480688988365001,0.6875,-0.125,-0.875
1480688988386559,0.375,0.0625,-0.75
1480688988402100,0.0625,0.125,-0.75
1480688988430676,0.25,0.5625,-0.8125
1480688988438196,0.5,0.6875,-0.375
1480688988445717,0.5,0.5,-0.0625
1480688988466774,0.5625,0.75,-0.125
1480688988491337,0.9375,0.6875,0.125
1480688988505876,0.5625,0.375,0.3125
1480688988528436,-0.1875,0.3125,0
1480688988549492,0.0625,0.6875,0.0625
1480688988566036,0.1875,0.8125,0.125
1480688988589599,0.25,1.25,-0.0625
1480688988609151,0.3125,1.5625,0
1480688988647753,-0.1875,1.9375,-0.125
1480688988665302,-0.125,2.75,-0.0625
1480688988687860,0,2.25,0.3125
1480688988691871,0.9375,1.5625,0.375
1480688988710921,0.3125,1.3125,0.0625
1480688988730975,0.125,0.9375,-0.0625
1480688988747017,0.8125,0.625,0.1875
1480688988767071,0.5,0.375,0.4375
1480688988789130,1.6875,-0.125,0.5
1480688988813193,1.1875,0.1875,0.125
1480688988834249,0.75,0.6875,0.0625
1480688988856809,0.5625,0.8125,-0.1875
1480688988871849,-0.1875,0.9375,-0.1875
1480688988890399,0.9375,1.0625,-0.3125
1480688988917470,1,1.9375,-0.1875
1480688988943540,0.9375,2.6875,-0.125
1480688988948553,0.5,2.75,0.375
1480688988969108,1.4375,3.6875,-0.1875
1480688989002195,2.25,4.875,-1.0625
1480688989006708,2.4375,6.375,-1
1480688989029267,0.875,7.9375,-0.25
1480688989059849,0.8125,8.6875,1.125
1480688989070878,-2.5,7.3125,0.9375
1480688989096948,-5.6875,5.625,0.125
1480688989111988,-5.5,5.0625,-0.0625
1480688989127027,-2,4,0.75
1480688989167636,-0.5,2.4375,0.5
1480688989173150,1.1875,0.9375,-0.0625
1480688989186686,1.875,-0.625,-0.75
1480688989209304,2.3125,-0.25,-0.875
1480688989241834,1.0625,0.75,-0.3125
1480688989249353,-0.6875,1.0625,-0.125
1480688989269408,-2.0625,0.125,-0.1875
1480688989300489,-0.875,0.125,-0.0625
1480688989308513,0.875,0.375,0
1480688989329572,1.375,0.5625,0
1480688989355636,1.125,-0.1875,-0.3125
1480688989368169,0.8125,-0.3125,-0.375
1480688989396745,1.5625,0.375,-0.3125
1480688989411785,0.625,0.625,0.125
1480688989426824,-0.9375,0.6875,0.0625
1480688989449385,-1.8125,1.125,0.125
1480688989471946,-1,1.375,0.375
1480688989486986,-0.4375,1.6875,0.6875
1480688989511550,-0.3125,4,1.1875
1480688989540628,-0.3125,4.1875,0.9375
1480688989546644,-0.625,3.5625,1.375
1480688989569203,-0.5625,4.125,1.125
1480688989591764,-1.875,4.6875,1.1875
1480688989614323,-4.1875,4.5625,0.875
1480688989629364,-4.75,3.625,0.9375
1480688989654931,-3.0625,3.375,0.875
1480688989668468,-0.375,3.9375,0.5
1480688989692029,0.1875,3.1875,0.5
1480688989713087,-0.0625,1.8125,0
1480688989728127,0.6875,-0.5625,-0.4375
1480688989749685,1.9375,-1.0625,0
1480688989774752,2.8125,0.1875,-0.25
1480688989810847,2.8125,1.125,-0.5625
1480688989825885,0.5625,0.1875,-0.1875
1480688989831902,-1.5625,-0.625,0.125
1480688989849957,-2,0.1875,-0.5
1480688989869501,-1,0.8125,-0.0625
1480688989892062,-0.5,0.375,0.25
1480688989908607,0.75,0,-0.5
1480688989929161,0.3125,-0.375,-0.3125
1480688989951721,-0.0625,-0.25,-0.4375
1480688989975787,-0.375,-0.5625,-0.25
1480688989989323,-0.3125,-0.8125,-0.3125
1480688990019400,-0.625,-0.4375,-0.1875
1480688990029928,-0.625,-0.1875,-0.0625
1480688990060009,-0.875,0,0.125
1480688990072042,-1.25,0.0625,0
1480688990089588,-0.375,-0.5,-0.125
1480688990112148,0.5,-0.5625,0.0625
1480688990131700,0.25,0,0.0625
1480688990163283,-0.3125,-0.1875,0.3125
1480688990169301,-0.4375,-0.75,0.0625
1480688990191859,0.5,-0.6875,0.375
1480688990209908,0.25,-0.3125,0.1875
1480688990229459,0.5625,-0.125,-0.125
1480688990252019,-1.125,-0.625,0.25
1480688990274581,-2.125,-0.75,0.125
1480688990289622,-1.4375,-0.5625,0.125
1480688990313182,0.5,-0.875,-0.125
1480688990334238,0.6875,-1.25,-0.3125
1480688990358302,1.0625,-1.75,-0.4375
1480688990373342,1.125,-3.0625,-0.5625
1480688990394398,1,-4,-1.1875
1480688990409438,0.8125,-3.9375,-0.9375
1480688990431998,2.1875,-2,-0.1875
1480688990457065,-0.75,0.125,0.0625
1480688990470600,-4.25,-0.0625,-0.1875
1480688990499177,-2.0625,-0.875,0.5
1480688990514217,0.8125,-0.0625,0.5625
1480688990532265,0.8125,0,-0.0625
1480688990551817,0.25,-0.75,0.25
1480688990574377,0.125,0.125,0.0625
1480688990592425,-1.4375,1.375,-0.1875
1480688990611978,-2.75,0.375,-0.1875
1480688990634536,-0.1875,-1.125,-0.0625
1480688990654089,1.6875,-0.25,-0.25
1480688990673140,0.875,0.0625,-0.6875
1480688990694195,0.3125,-1.125,-0.375
1480688990710740,0.125,-1.375,-0.5
1480688990731796,-0.25,-1.5,-0.625
1480688990755860,0.0625,-1.25,-0.75
1480688990786942,0.625,-0.4375,-0.5625
1480688990792957,0.9375,0.0625,-0.25
1480688990816020,-0.375,0.125,-0.5
1480688990830557,-0.8125,-0.125,-0.125
1480688990859134,0.3125,0.1875,-0.125
1480688990885705,0.9375,0.4375,0.0625
1480688990890719,0.9375,0.75,0
1480688990928819,0.375,1,0.125
1480688990934333,-1,0.9375,0.1875
1480688990953385,-2,0.875,-0.0625
1480688990973438,-0.6875,1,-0.125
1480688991002014,0.5,1.3125,0.0625
1480688991012542,1.375,1.375,0.0625
1480688991039112,1.1875,0.75,0.0625
1480688991057160,1.25,0.5625,-0.25
1480688991101278,0,0.8125,-0.0625
1480688991103784,-0.1875,0.9375,-0.0625
1480688991121832,-0.1875,1,-0.1875
1480688991140382,-0.6875,0.6875,-0.0625
1480688991159432,0.0625,0.6875,-0.1875
1480688991192019,0.9375,1.3125,0.125
1480688991206558,1.125,1.875,-0.125
1480688991211572,-0.75,1.5625,0.25
1480688991234131,-2.3125,1.3125,0.125
1480688991253195,-2.1875,1.375,-0.1875
1480688991271731,-1.75,1.125,0
1480688991297299,-0.1875,0.5625,-0.1875
1480688991312841,1.4375,0.3125,-0.4375
1480688991331892,1.375,0.5,-0.375
1480688991355955,0.625,0.125,-0.3125
1480688991377010,0.25,-0.375,-0.4375
1480688991392050,1.4375,-0.3125,-0.5625
1480688991415614,1.125,0,-0.5625
1480688991492317,1.75,-0.875,-0.625
1480688991494322,1.875,-1.25,-0.75
1480688991511871,-0.125,-0.1875,-0.4375
1480688991551977,0.4375,0.125,-0.5
1480688991554483,0.875,0.6875,0.1875
1480688991572530,1,1.25,-0.4375
1480688991594589,-0.1875,1.375,-0.5625
1480688991612137,-0.8125,1.8125,-0.1875
1480688991640713,-2.375,1.875,-0.0625
1480688991654249,-3.9375,2.8125,0.25
1480688991672296,-5.8125,4.5625,0.5
1480688991693853,-5.8125,3.625,-0.5
1480688991717416,-1.6875,2.5625,-0.5
1480688991744989,1.5625,1.875,0.125
1480688991761031,2.0625,0.625,-0.5625
1480688991781588,2.375,-0.75,-0.25
1480688991792115,1.8125,-0.5,-0.75
1480688991814675,0.4375,-1.3125,-1
1480688991837235,1.875,-1.1875,-0.625
1480688991856786,3.125,-0.3125,-0.8125
1480688991873331,0.8125,-0.625,-0.6875
1480688991895890,-0.1875,-1.5625,-1
1480688991918451,1.3125,-2.375,-1.375
1480688991934994,3.1875,-2.625,-1.0625
1480688991954547,4.0625,-1.625,-0.75
1480688991978110,3.625,-0.125,-1
1480688991996659,0.375,-0.875,-0.6875
1480688992024233,-1.6875,-2,-0.4375
1480688992039774,-0.875,-1.75,-0.75
1480688992068349,0.625,-1.4375,-0.5
1480688992083390,1.5,-0.375,-0.375
1480688992096925,2.8125,0.9375,-0.375
1480688992114978,0.375,1,-0.1875
1480688992134525,-1.375,-0.0625,-0.375
1480688992164104,-0.5625,-0.875,0
1480688992174632,1.25,-0.9375,0.1875
1480688992194184,1.375,-1.5625,-0.25
1480688992216750,1.125,-2.125,-0.5
1480688992235795,1.3125,-1.4375,-0.0625
1480688992269885,0.75,0.125,-0.1875
1480688992279913,-0.5625,-0.125,-0.75
1480688992302472,0.125,-0.4375,-0.3125
1480688992317011,1.4375,0.0625,-0.4375
1480688992362631,0.8125,-0.0625,-0.4375
1480688992368148,0.5,-0.4375,-0.5
1480688992381682,0.3125,-1,-0.625
1480688992404242,0.0625,-1.5,0.1875
1480688992414771,2.0625,-2.625,0
1480688992434322,2.5,-3.625,-0.375
1480688992456882,0.5625,-4.25,-1
1480688992475433,0.75,-4.625,-0.75
1480688992494482,-0.75,-5.0625,-0.4375
1480688992517044,-2.5,-4.375,-0.625
1480688992549129,-0.3125,-3.1875,-0.125
1480688992557149,2.9375,-2.5625,0
1480688992593746,5.0625,-0.4375,-0.3125
1480688992596254,3.4375,0.0625,-0.5625
1480688992639368,0.1875,-1.4375,0.1875
1480688992641875,-0.4375,-2.6875,-0.4375
1480688992662429,0.0625,-2.9375,-0.75
1480688992675965,0.5625,-1.9375,-0.6875
1480688992697021,0.625,-0.4375,-0.875
1480688992719581,0.875,-0.8125,-0.5
1480688992735624,1.375,-1.875,-0.125
1480688992757181,1.25,-2.3125,-0.5625
1480688992774728,1.1875,-2.25,-0.625
1480688992801800,0.9375,-1.8125,-0.3125
1480688992824359,0.625,-1.875,-0.5625
1480688992834887,0.625,-0.875,-0.5625
1480688992855944,1.6875,-0.6875,-0.4375
1480688992877000,1.625,-1.25,-0.375
1480688992900562,1.5625,-1.5625,-0.5
1480688992923123,1.625,-2,-0.6875
1480688992944178,1,-1.625,-0.5625
1480688992955208,-0.125,-1.3125,-0.75
1480688992983283,0.1875,-0.9375,-0.75
1480688992998322,1.125,-1.25,-0.5
1480688993019378,0.9375,-1.875,-0.4375
1480688993041939,1.25,-2.25,-0.5
1480688993056978,0.875,-2,-0.4375
1480688993075027,0.125,-1.6875,-0.6875
1480688993105608,-0.125,-2.5625,-0.6875
1480688993124157,0.4375,-3.625,0.0625
1480688993156242,1.3125,-4.1875,-0.0625
1480688993158749,1.6875,-3.4375,-0.4375
1480688993176798,1.0625,-2.25,-0.4375
1480688993195848,1.5625,-1.25,-0.3125
1480688993217406,1.5625,-0.6875,-0.4375
1480688993236957,0.9375,-0.0625,0
1480688993255005,0.9375,0.6875,0.1875
1480688993282078,0.1875,0.9375,0
1480688993296615,-0.0625,0.8125,0
1480688993319175,-0.5,0.3125,-0.125
1480688993341736,0.6875,0.125,-0.3125
1480688993359783,0.9375,0.6875,-0.3125
1480688993382344,0.9375,1.125,-0.375
1480688993405405,0.375,0.6875,-0.75
1480688993424455,1.0625,0.1875,-0.5625
1480688993447015,1.375,0.4375,-0.25
1480688993458046,0.9375,0,-0.6875
1480688993477095,0.4375,-0.125,-0.875
1480688993499154,-0.0625,-0.125,-0.25
1480688993517204,0.5625,-0.125,-0.375
1480688993544278,0.8125,-0.125,-0.375
1480688993584380,0.9375,0.5625,-0.4375
1480688993589897,0.75,0.8125,-0.4375
1480688993605938,-0.6875,1.5,-0.25
1480688993620978,-0.375,2.25,-0.3125
1480688993637021,-0.625,2.6875,-0.1875
1480688993664093,-0.5625,3.6875,-0.625
1480688993691165,-0.75,4.125,-0.5625
1480688993704701,-1.3125,4.1875,-0.125
1480688993724253,-1.8125,5.875,-0.0625
1480688993746812,-2.9375,6.4375,0.4375
1480688993757841,-2.3125,6.125,0.5625
1480688993778397,-3.5625,5.6875,0.75
1480688993799453,-3.8125,6.5625,0.1875
1480688993817501,-3.9375,6.4375,0.5
1480688993839559,-4.125,4.1875,0.9375
1480688993862120,-3.6875,2.625,0.75
1480688993889191,-1.75,1.375,0
1480688993907240,0.9375,-0.125,-0.0625
1480688993936818,2.625,-0.3125,-0.0625
1480688993939327,2.1875,0.4375,-0.0625
1480688993959879,0.5625,0,-0.125
1480688993979431,-0.4375,-0.1875,0.0625
1480688993997481,-1,-0.1875,0.0625
1480688994019538,-0.5,-0.9375,-0.1875
1480688994039090,0.25,-1.8125,-0.0625
1480688994057138,2,-2.5,-0.4375
1480688994084210,2.5,-2.625,-0.5
1480688994099249,1.875,-1.9375,-0.25
1480688994117298,0.8125,-2.125,-0.8125
1480688994140360,2,-2.4375,-0.375
1480688994160913,3.0625,-1.5625,-0.1875
1480688994189491,2.25,-1.5625,-0.125
1480688994199516,-0.125,-1.6875,-0.5625
1480688994219068,-1.5,-1.5,-0.3125
1480688994246642,0.1875,-1.5625,-0.125
1480688994264188,2.1875,-2.125,0.25
1480688994280231,2.75,-2.8125,-0.4375
1480688994298279,2.4375,-3.25,-0.75
1480688994320338,1.125,-3.3125,-0.4375
1480688994339388,-0.5,-2.875,-0.1875
1480688994357436,-0.625,-1.8125,-0.25
1480688994379495,0,-0.8125,-0.375
1480688994399549,0.6875,-0.3125,-0.625
1480688994424615,1.5,0,-0.8125
1480688994439655,0.9375,0,-0.3125
1480688994465224,-1.0625,0.0625,0
1480688994498813,-1.3125,0,-0.375
1480688994501319,0,0.875,0
1480688994520871,0.375,0.875,0.125
1480688994537415,0.375,1,-0.25
1480688994560476,0.375,0.75,-0.125
1480688994580531,0.375,-0.0625,0.1875
1480688994597074,0.5,0.3125,0.0625
1480688994619634,-0.3125,0.875,0.0625
1480688994640690,-1.5625,0.25,-0.125
1480688994658236,-0.3125,-0.1875,0.25
1480688994679794,0.4375,-0.1875,0.0625
1480688994700849,0.1875,-0.375,-0.125
1480688994724914,0.25,0.125,0
1480688994740456,-1.1875,-0.1875,-0.25
1480688994768530,-0.375,-0.75,-0.1875
1480688994789086,1.0625,-0.375,-0.6875
1480688994799613,0.875,-0.1875,-0.875
1480688994822674,0.8125,-0.375,-0.8125
1480688994841727,1.125,-0.375,-0.8125
1480688994860274,1,-0.3125,-0.625
1480688994882834,0.9375,-0.25,-0.375
1480688994904893,0.5625,0.0625,-0.4375
1480688994927452,-0.125,-0.25,-0.4375
1480688994947004,0.25,0.125,-0.5
1480688994987131,1,0.5625,-0.8125
1480688994989617,0.875,0.375,-0.5625
1480688995006663,0.375,-0.0625,-0.625
1480688995023208,0.4375,0,-0.5
1480688995049277,-0.375,0.0625,-0.5
1480688995069831,-0.0625,0.3125,-0.625
1480688995081866,1.8125,0.75,-0.5
1480688995099911,2.0625,2.8125,-0.625
1480688995122972,-1.5625,4.4375,-0.875
1480688995142024,-4.5625,4.3125,-0.25
1480688995159571,-5,4.25,-0.875
1480688995182634,-3.625,3.0625,0.25
1480688995204689,-1.8125,1.5,-0.25
1480688995225746,0.3125,0.625,-0.625
1480688995248807,1.25,-0.5,-0.5625
1480688995266354,1.5,-0.75,-0.9375
1480688995284401,1.375,0,-0.5
1480688995301447,0.375,0.375,-0.375
1480688995322503,-1,0.25,-0.125
1480688995339047,-1.4375,0.25,-0.0625
1480688995361606,-0.25,0.375,-0.125
1480688995383164,0.1875,0.0625,-0.3125
1480688995398708,0.375,-0.1875,-0.125
1480688995421266,0.125,0.1875,-0.25
1480688995443825,-0.0625,-0.25,-0.1875
1480688995458865,0.3125,-0.4375,-0.5
1480688995481426,1.5625,-0.0625,-0.3125
1480688995502482,0.9375,-0.125,0.125
1480688995519026,0.125,-0.125,0.125
1480688995549108,-0.0625,0.125,0.125
1480688995562641,0.375,0.0625,-0.125
1480688995579686,0.625,-0.25,-0.0625
1480688995602748,0.75,0,0.0625
1480688995622299,0.9375,0.75,0.0625
1480688995639847,-0.0625,-0.125,-0.125
1480688995661403,-0.125,-0.875,0
1480688995689979,0.9375,-1.625,-0.1875
1480688995699005,1.8125,-2.375,-0.5
1480688995723068,2.0625,-2.25,-0.75
1480688995745128,0.9375,-1.5,0
1480688995759163,-0.5,-1.625,0.0625
1480688995781223,-0.3125,-1.25,0
1480688995804785,1.125,0.1875,-0.1875
1480688995818321,1.6875,0.8125,0.0625
1480688995841384,0.4375,0.375,0.0625
1480688995863943,0.375,0.125,0.0625
1480688995878481,0.625,0.375,-0.125
1480688995901542,-0.25,0.375,0
1480688995924102,0.4375,0.5625,-0.125
1480688995938140,0.625,0.625,-0.375
1480688995969223,0.6875,0.3125,-0.375
1480688995991281,1.3125,0.4375,-0.1875
1480688995998301,1.5,0.75,-0.1875
1480688996021361,0.125,0.5,-0.5
1480688996061468,-0.1875,0.625,-0.1875
1480688996065980,-0.1875,0.125,-0.4375
1480688996087537,0,0,-0.3125
1480688996110097,0.25,0.125,-0.625
1480688996119121,1.125,-0.125,-0.3125
1480688996143185,0.9375,-0.75,-0.5
1480688996163740,0.3125,-0.5,-0.5
1480688996178780,0.1875,0.0625,-0.3125
1480688996201841,0.8125,0.0625,-0.4375
1480688996223900,0.0625,-0.125,-0.5
1480688996246477,0.6875,0.5,-0.75
1480688996269019,1.3125,0.5625,-0.5625
1480688996307121,0.1875,0.125,-0.625
1480688996309628,0.5,0,-0.3125
1480688996327676,0.5,0,-0.0625
1480688996344220,-0.6875,-0.4375,-0.375
1480688996366278,-0.875,-0.25,-0.3125
1480688996382321,0.375,-0.125,-0.25
1480688996404381,0.75,-0.4375,-0.1875
1480688996424935,0.75,-0.3125,-0.375
1480688996441479,0.5625,0.125,-0.3125
1480688996464039,-0.3125,-0.25,0
1480688996485095,-0.5,-0.625,-0.1875
1480688996501638,0.75,-0.3125,-0.1875
1480688996524198,2.3125,0.1875,-0.1875
1480688996546259,1.1875,0.25,-0.6875
1480688996568817,1.125,-0.1875,-1.25
1480688996589872,1,0.375,-0.3125
1480688996606417,-0.0625,-0.3125,-1.0625
1480688996627473,-0.25,-1.0625,-1
1480688996644018,1.1875,-0.8125,-0.75
1480688996665074,0.0625,-0.8125,-0.875
1480688996682620,-0.9375,-0.5625,-0.625
1480688996703675,-0.8125,-0.5,-0.0625
1480688996726235,-0.4375,-1.125,-1.1875
1480688996741277,0.875,-1.25,-1.9375
1480688996763836,4.1875,-1.25,-1.5625
1480688996786395,8.8125,-1.5,-1.625
1480688996801436,12.1875,-2.625,-2
1480688996831515,13.375,-2.1875,-1.9375
1480688996846561,8.8125,-0.9375,-0.875
1480688996860594,1.125,-0.9375,-0.5
1480688996884156,-4.9375,-3.3125,-0.125
1480688996913734,-3.3125,-3.875,0.3125
1480688996920752,0.6875,0.375,0.3125
1480688996944315,-0.5,3.25,0.625
1480688996966875,-1.125,0.3125,0
1480688996987430,0.5,0.6875,-0.25
1480688997003473,-0.375,2.3125,-0.8125
1480688997028038,-1.625,1.125,-0.5
1480688997040573,0.5,0.5,-0.6875
1480688997065139,1.9375,-0.25,-1.125
1480688997087697,1.375,-0.4375,-0.75
1480688997100732,0.3125,-0.5,-0.9375
1480688997124294,0.25,-0.625,-0.9375
1480688997147356,0.1875,-0.3125,-0.75
1480688997168912,-0.5625,0.6875,-0.75
1480688997191473,-0.75,0.5625,-0.75
1480688997220550,-0.9375,0.8125,-0.625
1480688997244615,-0.0625,1,-0.4375
1480688997246620,-1.1875,0.625,-0.75
1480688997266673,-1.8125,0.625,-0.6875
1480688997289233,-2.375,1.375,-0.75
1480688997306278,-2.4375,2.3125,-0.5625
1480688997326833,-4.5625,2.125,-0.625
1480688997347388,-4.1875,1.9375,-0.75
1480688997363932,-2.8125,1.6875,-0.75
1480688997386492,-1.6875,1.6875,-1.125
1480688997407547,-1.4375,2.1875,-1
1480688997424092,-1.8125,1.5625,-0.9375
1480688997446652,-1.125,1.5625,-0.3125
1480688997467708,-3.6875,3.1875,0.1875
1480688997492272,-6.5625,4.9375,0.3125
1480688997506812,-6.9375,5.625,0.375
1480688997544411,-6.375,5.6875,-0.25
1480688997546918,-5.6875,5.25,-0.0625
1480688997567472,-4.3125,4.5625,-0.1875
1480688997587528,-2.6875,5.125,-1.25
1480688997604571,-1.6875,5.3125,-0.8125
1480688997632646,-1.5625,3.9375,-0.1875
1480688997655206,0.0625,2.375,0.0625
1480688997665233,0.125,2.1875,-0.4375
1480688997686289,-0.1875,2.375,-0.1875
1480688997708918,-0.5625,2.25,0.625
1480688997731910,-1.9375,1.5,0.75
1480688997747955,-1.5,2.0625,0.625
1480688997770513,-0.5625,3.1875,1.6875
1480688997783046,-0.8125,3.1875,1.0625
1480688997831175,-0.6875,2.625,1
1480688997844208,-0.5,1.75,0.8125
1480688997850226,0.125,1.375,0.6875
1480688997867270,0.125,2.1875,0.6875
1480688997890331,-0.75,2.125,0.375
1480688997903366,-1.375,1.8125,0.3125
1480688997927930,-0.6875,1.5,-0.0625
1480688997949992,0,0.8125,-0.0625
1480688997963528,1.1875,0.75,-0.1875
1480688998000123,1.6875,0.625,-0.375
1480688998015164,0.875,0.6875,-0.375
1480688998024688,0.125,1.0625,-0.3125
1480688998046246,-0.875,1,-0.375
1480688998070310,-0.9375,0.4375,-0.5
1480688998083846,0.875,0.625,-0.0625
1480688998107409,1.3125,0.75,-0.125
1480688998128966,-0.4375,0.875,-0.125
1480688998150022,-1.3125,0.1875,0
1480688998166566,-0.5625,-0.0625,0.3125
1480688998189126,0.5625,1,0.1875
1480688998210683,1.3125,0.875,-0.25
1480688998226227,0.3125,0,-0.25
1480688998256304,-0.4375,0.0625,-0.25
1480688998269840,-0.375,0.375,-0.375
1480688998301425,-0.375,-0.375,-0.4375
1480688998314963,-0.1875,-0.5,-0.625
1480688998330001,0.6875,-0.5625,-0.5625
1480688998346545,0.8125,-0.8125,-0.6875
1480688998390661,0.0625,-1.625,-0.8125
1480688998415228,1.625,-2.5625,-1.1875
1480688998422747,3.75,-3,-1.1875
1480688998428763,3.125,-0.8125,-0.75
1480688998449819,0.9375,1.75,-0.125
1480688998467367,-1.9375,1.625,0.5
1480688998488924,-4.0625,0.125,0.4375
1480688998509979,-1.75,0.5625,0.1875
1480688998548582,0.5,1.5625,0.4375
1480688998556603,0.0625,2.1875,0.625
1480688998578160,-2,1.75,0.3125
1480688998593701,-2.375,0.9375,0.5625
1480688998614758,-1.4375,1.0625,0.4375
1480688998631302,0.375,1.625,0.0625
1480688998652357,0.6875,1.6875,0.25
1480688998669403,-0.375,1.75,0.4375
1480688998691963,-2.0625,1.5,0.0625
1480688998712016,-2,1.625,0.25
1480688998735077,-1.75,2.3125,0.375
1480688998769168,-3.3125,2.25,0.6875
1480688998772677,-3.625,1.375,0.5625
1480688998788720,-1.75,1.0625,0.125
1480688998811781,0.375,0.6875,0.125
1480688998834342,1.125,1.125,0.3125
1480688998849382,0.75,2.3125,0.3125
1480688998871441,-0.625,1.4375,0.25
1480688998885978,-1.875,0.8125,0.5625
1480688998923077,-2,0.8125,-0.0625
1480688998933104,-1.0625,0,0.0625
1480688998946139,0.6875,0.1875,-0.25
1480688998969702,0.6875,0.625,-0.1875
1480688998991258,0.4375,0.3125,-0.3125
1480688999005797,1.25,0.3125,-0.375
1480688999029359,1,0.375,-0.25
1480688999051419,0.6875,0.4375,-0.25
1480688999065957,-0.25,0,-0.1875
1480688999089019,-1.125,-0.25,-0.4375
1480688999111578,-0.3125,-0.0625,-0.5
1480688999132635,1,0.4375,-0.375
1480688999158202,0.875,0.125,-0.5625
1480688999171243,0.4375,0.1875,-0.4375
1480688999199815,0.125,0.125,-0.4375
1480688999208839,0.125,0.1875,-0.375
1480688999231397,0.1875,0.375,-0.625
1480688999252956,0.25,0,-0.6875
1480688999269498,0.4375,0.125,-0.5625
1480688999299077,-0.375,0.25,-0.625
1480688999320132,-0.25,-0.25,-0.625
1480688999329157,0.6875,-0.0625,-0.625
1480688999357232,0.9375,-0.0625,-0.6875
1480688999372274,0.8125,0.125,-0.75
1480688999389317,0.125,0.125,-0.5625
1480688999411377,-0.6875,-0.1875,-0.5625
1480688999432431,0.125,0.0625,-0.375
1480688999448976,0.6875,0.25,-0.25
1480688999479558,0.4375,0.1875,-0.375
1480688999492592,-0.3125,0.1875,-0.375
1480688999509136,0.0625,0.5625,-0.1875
1480688999531698,0.5,0.4375,-0.3125
1480688999553754,0.3125,0.375,-0.375
1480688999574811,-0.375,0.1875,-0.375
1480688999591354,-0.4375,0.0625,-0.4375
1480688999613915,-0.125,0.5,-0.375
1480688999628954,0.125,0.5,-0.375
1480688999659034,0.125,-0.125,-0.625
1480688999690117,0.9375,0.1875,-0.25
1480688999695129,0.8125,0.4375,-0.1875
1480688999712176,0.0625,0.1875,-0.3125
1480688999748773,-0.4375,-0.125,-0.3125
1480688999753285,0.125,-0.125,-0.625
1480688999771333,0.875,-0.0625,-0.625
1480688999793893,0.6875,-0.125,-0.375
1480688999808434,0.3125,-0.375,-0.6875
1480688999831493,0.0625,-0.125,-0.5
1480688999854555,-0.3125,0.1875,-0.5
1480688999877115,-0.3125,0.25,-0.375
1480688999898671,-0.5625,0.3125,-0.375
1480688999913712,-0.6875,0.3125,-0.4375
1480688999942290,-0.75,-0.0625,-0.4375
1480688999951312,-0.4375,0.375,-0.25
1480688999988410,-0.1875,0.5625,-0.125
1480688999996432,-0.625,0.3125,0.1875
1480689000011471,-1,-0.0625,0.125
1480689000040048,0.3125,1.0625,0.1875
1480689000055589,-0.5,1.375,0.6875
1480689000095194,-0.8125,0.9375,0.625
1480689000100207,-1.3125,1.6875,1
1480689000114747,-1.375,1.375,0.6875
1480689000131291,-0.5625,0.8125,0.8125
1480689000153850,0.5,1.1875,0.875
1480689000174907,0.75,1,0.6875
1480689000198469,0,0.375,0.6875
1480689000214011,-1.125,0.0625,0.3125
1480689000236571,-1.5,0.25,0.3125
1480689000257626,-0.625,0.4375,0.5
1480689000273669,-0.4375,0.5,0.25
1480689000296229,-0.8125,0.5,0.375
1480689000312273,-1.1875,0.4375,0.5625
1480689000333829,-1.375,0.4375,0.75
1480689000354885,-1.25,0.5,0.5625
1480689000371930,-0.875,0.4375,0.625
1480689000393989,-0.375,0.5625,0.75
1480689000415048,-0.0625,0.3125,0.875
1480689000431589,0.1875,-0.0625,0.9375
1480689000454650,0.5625,0.125,0.75
1480689000475709,0.6875,0.5625,0.6875
1480689000491247,-0.375,1,0.6875
1480689000513808,-1.1875,0.25,0.375
1480689000536367,-0.625,0.3125,0.6875
1480689000551407,0.0625,1.3125,0.625
1480689000579984,-0.8125,0.75,0.4375
1480689000603546,-0.625,0.375,0.625
1480689000613573,0.4375,0.6875,0.3125
1480689000634629,0.1875,0.75,0.3125
1480689000656687,0.0625,0.375,0.3125
1480689000670725,-0.0625,0.25,-0.0625
1480689000693785,0.6875,0.5625,-0.125
1480689000717350,-0.125,0.4375,-0.125
1480689000730886,-1.0625,0.4375,-0.125
1480689000753946,-1.3125,0.625,0.0625
1480689000777007,-1.375,0.75,0
1480689000790544,0.8125,0.875,-0.3125
1480689000814107,1.75,0.875,0
1480689000836164,2.75,1.4375,-0.4375
1480689000850703,0.75,1.5,-0.3125
1480689000887801,-1.375,0.8125,-0.25
1480689000896325,-1.6875,0.8125,-0.5
1480689000910864,0.1875,1.0625,-0.6875
1480689000935429,0.8125,0.6875,-0.5
1480689000956484,1.125,0.5625,-0.6875
1480689000978042,0.875,1.125,-0.25
1480689000995087,-0.1875,1.1875,-0.5
1480689001023663,-1.5625,0.5625,-0.375
1480689001054245,-0.5,0.375,-0.5
1480689001056751,1.25,0.4375,-0.125
1480689001077306,1.8125,0.6875,-0.5
1480689001097360,0.6875,0.875,-0.5625
1480689001121925,-0.375,0,-0.625
1480689001136463,0.0625,0.125,-0.4375
1480689001160526,1,0.375,-0.9375
1480689001174565,1.3125,0.6875,-0.4375
1480689001196624,0.375,0.5,-0.6875
1480689001218684,-0.375,-0.125,-0.6875
1480689001239738,0.4375,-0.1875,-0.6875
1480689001256282,1.1875,0.1875,-0.6875
1480689001278843,1.125,-0.3125,-0.8125
1480689001293881,1.375,-0.375,-0.75
1480689001323962,1.0625,-0.75,-0.8125
1480689001339001,1,-1.125,-0.9375
1480689001354042,1.5,-0.9375,-0.9375
1480689001390640,0.9375,-0.4375,-0.375
1480689001398159,0.1875,-0.125,-0.6875
1480689001414203,-1.375,-0.125,-0.3125
1480689001436763,-0.625,-0.125,-0.4375
1480689001458821,0.8125,0.25,-0.3125
1480689001479876,0.9375,0.25,-0.0625
1480689001503940,0.5625,0.625,-0.3125
1480689001518980,-0.3125,0.125,-0.3125
1480689001540037,-0.5,-0.0625,-0.5625
1480689001556581,0,0,-0.5
1480689001602201,0.4375,-0.1875,-0.625
1480689001604207,0.5,-0.4375,-0.625
1480689001616238,-0.25,-0.5625,-0.625
1480689001646320,0.3125,-0.0625,-0.375
1480689001653337,-0.3125,0,-0.1875
1480689001676399,-0.4375,0.375,-0.125
1480689001700462,-0.5625,0.9375,0.125
1480689001712996,-1.6875,0.875,0.125
1480689001737563,-3.0625,0.5625,0.1875
1480689001759119,-1.875,0.625,0.5625
1480689001773156,-0.375,1.5,0.5625
1480689001797221,0,1.6875,0.125
1480689001818779,-1.75,0.8125,0.0625
1480689001841337,-2,0.5625,-0.1875
1480689001856880,-1.4375,0.5625,-0.4375
1480689001878937,-1.25,0,-0.375
1480689001899994,0.125,-0.5625,-0.4375
1480689001917039,0.375,0.125,-0.4375
1480689001939097,0.125,-0.0625,-0.6875
1480689001961156,1.125,-0.6875,-0.75
1480689001976196,2,0.25,-0.8125
1480689002006276,0.75,0.375,-0.75
1480689002019813,-0.6875,-0.3125,-0.75
1480689002036356,-0.5625,-0.4375,-0.8125
1480689002058917,0.3125,-0.125,-0.625
1480689002079973,1.0625,0,-0.75
1480689002097018,0.9375,-0.125,-0.875
1480689002119080,-0.125,-0.4375,-0.75
1480689002140133,0.5,-0.4375,-0.9375
1480689002162694,1.125,-0.375,-0.875
1480689002180239,1.4375,0.0625,-0.625
1480689002199790,0.1875,0.4375,-0.875
1480689002216335,-0.8125,-0.125,-0.875
1480689002246415,0.125,-0.5,-1.125
1480689002267471,0.5,0.0625,-1
1480689002276996,1.375,0.125,-0.75
1480689002299055,0.875,0,-0.875
1480689002320110,0.5625,-0.25,-0.4375
1480689002337157,0,0.4375,-0.1875
1480689002358713,-0.9375,0.3125,-0.375
1480689002379770,-0.1875,0.25,-0.25
1480689002396314,1,1,0
1480689002419375,0.9375,0.75,0.0625
1480689002441434,0.5625,0.375,0.125
1480689002456473,0.3125,0.3125,-0.0625
1480689002479034,0.1875,0.3125,-0.1875
1480689002501593,0.375,0.6875,-0.3125
1480689002539695,-0.4375,0.625,-0.5
1480689002542201,-0.8125,0.125,-0.4375
1480689002562756,0.875,0.25,-0.5
1480689002575791,2.375,0.75,-0.75
1480689002606373,2.375,0.6875,-0.5
1480689002627427,-0.875,-0.1875,-0.5
1480689002642469,-0.25,-0.0625,-0.75
1480689002660517,1.1875,0.0625,-0.1875
1480689002689594,1.5,-0.1875,-0.5
1480689002695609,1.6875,0.0625,-0.5
1480689002719172,1.5625,0.0625,-0.375
1480689002741733,0.625,0,-0.375
1480689002755770,0.4375,-0.0625,-0.5
1480689002779332,0.625,-0.0625,-0.625
1480689002807908,1.125,-0.0625,-0.625
1480689002815929,0,-0.4375,-0.3125
1480689002848014,-0.625,-1.125,-0.25
1480689002861550,-1.6875,-2.25,-0.9375
1480689002884612,-2.5625,-2.9375,-1.6875
1480689002907172,-1.6875,-2.6875,-1.5
1480689002922212,0.5,-0.875,-0.5
1480689002945775,1.1875,-0.1875,-0.5625
1480689002959310,1.75,0.625,-0.8125
1480689002987385,1.1875,0.1875,-0.3125
1480689003002425,-0.5,-0.875,0.125
1480689003019470,-0.6875,-0.75,0.0625
1480689003042030,0,-0.4375,0.1875
1480689003062585,1,-0.0625,-0.125
1480689003079129,0.375,-0.625,-0.3125
1480689003101188,0.4375,-1.25,-0.0625
1480689003122244,1.5625,-1.625,0.125
1480689003146309,1.5,-1.5,-0.25
1480689003161347,-0.375,-0.75,-0.375
1480689003182403,-1.875,-0.8125,-0.1875
1480689003204963,-0.3125,-1.75,-0.1875
1480689003221007,2.875,-3.125,0
1480689003244068,5.1875,-3.3125,-0.5
1480689003267129,2.4375,-2.1875,-0.6875
1480689003288686,0.25,-1.9375,-0.75
1480689003311247,-1.1875,-3.3125,-0.625
1480689003326287,0.1875,-3.875,-0.125
1480689003341327,1.0625,-1.875,0.125
1480689003371406,0.6875,-0.6875,-0.125
1480689003378927,1.1875,-0.5625,0.1875
1480689003408004,0.375,-0.5625,-0.25
1480689003431567,0.8125,-0.4375,-0.125
1480689003439086,1.25,-0.6875,0.125
1480689003461646,0.75,-0.4375,-0.25
1480689003483705,0.1875,-1,0.0625
1480689003498243,0.5625,-1.0625,0.5
1480689003522809,0,-1,0.1875
1480689003549881,-0.4375,-1.5,0
1480689003558403,1.3125,-1.5625,-0.125
1480689003581464,1.875,-0.875,-0.1875
1480689003604026,0.25,-0.5,0.0625
1480689003625080,-0.8125,-1.125,0.25
1480689003648643,-1.0625,-1.5625,0.8125
1480689003672206,0.6875,-1.375,0.6875
1480689003678237,0.4375,-0.0625,0.625
1480689003701785,0.1875,-0.8125,0.3125
1480689003729859,0.1875,-2.0625,0.8125
1480689003738382,1.125,-1.8125,0.4375
1480689003761443,-0.1875,-1.25,0.25
1480689003784004,-0.4375,-1.375,0.0625
1480689003805060,0.3125,-1.75,0.25
1480689003821603,1.9375,-1.625,0
1480689003851688,2.25,-1.625,-0.0625
1480689003872238,0.1875,-1.125,-0.1875
1480689003881264,-0.125,-1.625,-0.3125
1480689003903823,1,-2.25,-0.25
1480689003933906,1.8125,-1.375,0.0625
1480689003950953,0.4375,-1.75,-0.625
1480689003979523,0.375,-2.6875,-0.25
1480689003992558,0.8125,-2.6875,-0.0625
1480689004001584,0.6875,-2.5625,-0.25
1480689004024142,2,-3.25,0.0625
1480689004045198,0.75,-2.6875,-0.4375
1480689004061242,1.25,-2.0625,-0.3125
1480689004083801,2.3125,-2.5625,-0.1875
1480689004104863,2.5,-2.3125,-0.9375
1480689004128921,1.4375,-2,-0.375
1480689004151483,0.9375,-2.3125,-0.4375
1480689004173039,1.625,-2.3125,-0.6875
1480689004204622,1.9375,-2.4375,-0.25
1480689004206628,1.0625,-2.5,0
1480689004226179,1,-3.125,-0.625
1480689004254756,2.0625,-3,-0.6875
1480689004263780,2.875,-2,-0.25
1480689004292355,1.25,-2.5,-0.5
1480689004301381,1.6875,-2.875,-0.125
1480689004323444,1.3125,-2.3125,0.0625
1480689004347502,2.0625,-1.375,0.1875
1480689004361539,1.75,-1.25,0
1480689004384101,1.6875,-1.1875,-0.625
1480689004406660,0.75,-0.9375,-0.125
1480689004430222,1.1875,-0.875,-0.0625
1480689004459299,0.1875,-0.5625,-0.25
1480689004505423,0.6875,-0.1875,-0.75
1480689004510937,1.1875,0,-0.8125
1480689004527983,1.6875,2.75,-1.625
1480689004549039,0.1875,6.125,-2.5625
1480689004564078,-6.6875,9.3125,-2.875
1480689004594158,-11.375,11.5,0.75
1480689004600677,-13.1875,8.0625,0.4375
1480689004623737,-9.25,4.6875,-0.8125
1480689004646297,-1.75,3.9375,1.3125
1480689004660835,2.5625,3.375,0.125
1480689004685403,2.625,1.375,0.75
1480689004706456,0.0625,0.0625,0.875
1480689004731022,-1.875,-2,0.625
1480689004744056,-3.125,0.75,1
1480689004766617,-3,5.4375,-0.5625
1480689004787172,-5.5,4.75,-0.0625
1480689004803715,-6.875,1.4375,1.6875
1480689004826276,-3.875,-0.25,0.3125
1480689004848836,-1.6875,2.875,0
1480689004869892,-3.5,4,0.0625
1480689004886435,-0.75,2.25,-0.125
1480689004915012,2.6875,1.3125,-0.375
1480689004930054,4.4375,1.0625,-0.6875
1480689004960633,3.125,1.8125,-0.75
1480689004991715,0.4375,2.0625,-0.6875
1480689004997230,-1.6875,1.8125,-0.625
1480689005021795,-2.375,2,-0.6875
1480689005034829,-0.5,1.8125,-1.1875
1480689005044857,1.6875,1.375,-0.875
1480689005067920,2.75,1.0625,-1.0625
1480689005087469,1.625,0.875,-1.25
1480689005104516,1,0.1875,-0.75
1480689005149637,0.875,-0.5625,-1.3125
1480689005151642,1.5,-2.1875,-0.75
1480689005172195,2.125,-2.4375,-1.5
1480689005192248,1.9375,0.1875,-1.5
1480689005215812,0.25,1.25,-1.9375
1480689005223835,-0.75,-0.625,-0.375
1480689005247395,2.125,-3.6875,1.6875
1480689005268954,1.1875,-3.6875,-0.6875
1480689005299035,-2.25,-3.4375,-0.625
1480689005314072,-0.625,-1.1875,1.125
1480689005336131,1.125,0.875,-0.9375
1480689005343652,2.6875,0.1875,-0.75
1480689005366211,4.75,-1.25,0.4375
1480689005388771,7.625,-3.875,0.1875
1480689005403310,4.125,-4.9375,-1
1480689005426370,2,-5.25,-0.75
1480689005448932,2.3125,-6.625,-0.4375
1480689005469987,4.9375,-6.4375,-0.25
1480689005494051,5.75,-3.75,0.0625
1480689005516613,5,-1,-0.125
1480689005531652,3.5,-0.9375,0.625
1480689005553710,3,-3.3125,0.1875
1480689005569251,4.125,-5.125,-0.125
1480689005592312,4.875,-4.375,0.1875
1480689005621389,3.3125,-3.4375,0.375
1480689005628909,1.4375,-4,0.6875
1480689005643448,2.375,-3.875,0.75
1480689005667012,2.8125,-1.5625,-0.3125
1480689005690072,2,0.125,-0.75
1480689005703609,-0.0625,0.1875,-1.125
1480689005726167,-0.25,-0.25,-0.625
1480689005748729,0.375,-0.125,0.5625
1480689005769784,0.9375,0.9375,0.125
1480689005793847,0.875,2.3125,-0.0625
1480689005808888,-0.1875,3.875,-0.25
1480689005829943,-3.6875,5.3125,-0.9375
1480689005846488,-6.25,8.1875,-2.125
1480689005869550,-7.875,11.4375,-3.5
1480689005891107,-9.125,13.3125,-2.0625
1480689005912163,-7.0625,12.75,2
1480689005928707,-6.4375,10.5,1.625
1480689005949763,-12.1875,6.9375,-1.375
1480689005966306,-9.6875,4.125,-0.875
1480689005988867,-5.625,4,0.25
1480689006011928,-2.75,4.9375,-0.3125
1480689006026466,-2.25,1.9375,-1.0625
1480689006050036,-0.5,-1.375,-0.75
1480689006070583,1.875,-1.5625,-0.8125
1480689006094647,3.125,0.125,-0.25
1480689006108685,0.6875,1.0625,0.0625
1480689006129741,-2.4375,0.625,-0.5625
1480689006154809,-3.6875,-0.1875,0
1480689006176365,-2.3125,-0.6875,-0.6875
1480689006191405,1.5,-0.5625,-0.8125
1480689006213966,3.8125,-0.875,-0.6875
1480689006236526,2.875,-2,-1.0625
1480689006259085,2.0625,-2.4375,-0.5625
1480689006265603,1.4375,-3.9375,-0.8125
1480689006296184,2.875,-6.1875,-1.25
1480689006326268,6.6875,-8.6875,-1.0625
1480689006328773,7.25,-7.25,-0.3125
1480689006348826,2.1875,-5.5625,-0.5
1480689006385421,1.6875,-6.8125,-0.8125
1480689006399975,5.4375,-5.25,-0.25
1480689006432052,5.5625,-3.75,-0.75
1480689006434554,4.0625,-3.375,-1.125
1480689006445582,2.6875,-1.625,0.125
1480689006469645,-1.6875,-1.5,-1.4375
1480689006491202,0.1875,-1.125,-0.625
1480689006512259,1.3125,-0.0625,-0.875
1480689006536322,2.625,-0.1875,-1.4375
1480689006559884,1.5,-0.4375,-0.75
1480689006565901,1,-0.25,-0.625
1480689006588461,0.5625,0.5,-0.6875
1480689006618042,-0.5,1.4375,-0.375
1480689006625560,-0.625,2.1875,-0.125
1480689006655640,-0.6875,2.25,0
1480689006680204,-0.5625,1.5625,0.0625
1480689006693740,-0.5,0.9375,-0.6875
1480689006708782,-0.8125,-0.0625,-0.75
1480689006731341,0.1875,0.0625,-0.4375
1480689006752396,0.9375,0.9375,0.0625
1480689006768943,1.4375,0.8125,0
1480689006792002,0.6875,0.625,-0.25
1480689006812557,0.4375,0.75,-0.375
1480689006836622,0.625,1.0625,0.5
1480689006858679,-0.1875,1.0625,0.1875
1480689006873219,-0.875,0.875,0
1480689006888761,-0.625,1.125,0.1875
1480689006926861,-0.3125,1.375,0.1875
1480689006935383,0.5625,1.75,0.125
1480689006954936,1.125,2.0625,-0.0625
1480689006977495,0.5,1.625,-0.3125
1480689006992535,0.1875,2.1875,-0.0625
1480689007022616,-1.5625,4.1875,-0.125
1480689007031641,-3.6875,5.5,-0.5
1480689007053698,-4.5,5.6875,-1.25
1480689007069240,-2.875,5.125,-0.625
1480689007091799,0.125,5.8125,-0.375
1480689007112354,-1.1875,6.5625,-0.0625
1480689007130403,-3.0625,5.9375,0.4375
1480689007151458,-4.3125,4.25,-1
1480689007175522,-2.8125,3.4375,-0.5
1480689007189058,-0.1875,3.5625,0.25
1480689007217639,0.375,3.6875,-0.6875
1480689007233679,-1.75,3.0625,-0.375
1480689007254734,-2.625,2.6875,0.0625
1480689007277294,-1.875,2.3125,0.3125
1480689007293837,0.125,2,0
1480689007308376,-0.375,0.875,-0.8125
1480689007331938,0.6875,-0.25,-0.4375
1480689007355501,1,-0.75,-0.4375
1480689007368535,0.375,-0.25,-0.625
1480689007392098,-0.1875,0.6875,-0.1875
1480689007414660,0.5,0.125,-0.4375
1480689007434716,0.6875,0.375,-0.1875
1480689007452259,-0.75,0.625,-0.6875
1480689007479831,-0.3125,-1.125,-0.4375
1480689007488355,1.6875,-1.125,-0.125
1480689007524952,2.5625,0.5,-0.625
1480689007534477,0.1875,1.5,-0.4375
1480689007549016,-1.1875,1.375,-0.0625
1480689007571577,-1.5,0.4375,0.125
1480689007593633,-0.5625,0.3125,-0.4375
1480689007608173,-0.1875,0.5,-0.4375
1480689007631235,-0.8125,0.5625,-0.1875
1480689007653794,-1.125,0.4375,0
1480689007676355,-0.375,0.5625,0.4375
1480689007691393,-0.25,-0.0625,-0.0625
1480689007716964,-0.125,-0.9375,-0.1875
1480689007737016,0.8125,0.5,0.375
1480689007751055,0.375,0.1875,0
1480689007775121,0.25,-0.6875,-0.25
1480689007794670,0.5625,-0.4375,-0.0625
1480689007812215,1.5,-0.9375,0
1480689007833774,1.875,-0.9375,0.125
1480689007863352,1.3125,-0.4375,0
1480689007880396,0.9375,-0.4375,-0.125
1480689007899950,0.5625,-0.5,-0.125
1480689007914990,0.6875,-0.6875,-0.25
1480689007945069,1.875,0.3125,-0.4375
1480689007955598,0.8125,0.5,-0.125
1480689007982670,-1.5,-0.0625,-0.4375
1480689007991191,-1.125,-0.1875,-0.4375
1480689008014754,0,-0.4375,-0.625
1480689008042327,0.3125,-0.625,-0.625
1480689008066394,0.9375,-0.5625,-0.5625
1480689008081431,1.875,-0.6875,-0.8125
1480689008112013,1.375,-0.4375,-0.5
1480689008114519,0.8125,0,-0.5
1480689008134077,0.125,0.4375,-0.375
1480689008156631,-1.5625,0,-0.4375
1480689008172172,-0.875,0.25,-0.625
1480689008195234,1.0625,0.5625,0.125
1480689008216290,1.4375,0.3125,-0.25
1480689008230829,1.0625,0.375,-0.5625
1480689008261411,0.0625,0.625,-0.1875
1480689008276450,-0.6875,0.875,-0.375
1480689008290486,-0.5,0.3125,-0.75
1480689008314051,-0.0625,-0.125,-0.75
1480689008337613,0.4375,0.375,-0.9375
1480689008352151,0.1875,0,-0.875
1480689008373709,1.25,-1,-0.875
1480689008397772,1.25,-0.0625,-0.8125
1480689008410807,-0.375,0.125,-0.75
1480689008433868,0,-0.5,-0.75
1480689008456428,-0.3125,-0.625,-0.75
1480689008470967,0.25,-0.375,-0.75
1480689008495031,0.5625,-0.3125,-0.375
1480689008516589,1.75,-0.0625,-0.625
1480689008530626,1.25,0.125,-0.75
1480689008559702,0.25,0.1875,-0.25
1480689008591286,-0.375,0,-0.5625
1480689008600311,-0.3125,-0.25,-0.3125
1480689008613851,0.0625,0.1875,-0.5625
1480689008643927,0.3125,0.1875,-0.5
1480689008664983,1.125,0.1875,-0.75
1480689008674008,1.5625,0.25,-0.75
1480689008696568,0.25,0.25,-0.6875
1480689008717622,-0.5,-0.125,-0.5625
1480689008733665,-0.375,0.0625,-0.1875
1480689008756225,0,0.3125,-0.3125
1480689008777281,0.9375,0,-0.25
1480689008801847,0,0.0625,0
1480689008822401,0.5,-0.125,-0.375
1480689008837442,1.1875,0.25,-0.0625
1480689008854487,0.9375,0.375,0
1480689008882061,0.125,0.1875,-0.25
1480689008900108,0.25,-0.25,0.0625
1480689008927682,-0.9375,0.1875,-0.5
1480689008943725,-0.75,0.3125,-0.25
1480689008959766,0.5625,0.8125,-0.25
1480689008973805,-0.25,1.125,-0.0625
1480689009010402,-0.0625,0.5,-0.4375
1480689009017420,-0.3125,0.3125,-0.1875
1480689009033964,0.125,0.25,-0.6875
1480689009058028,0.375,0.125,-0.5
1480689009079084,1.4375,0,-0.625
1480689009093622,2,0.125,-0.375
1480689009116685,1.125,0.3125,-0.75
1480689009139244,0.0625,-0.25,-0.5625
1480689009154284,0.3125,-0.0625,-0.5
1480689009177346,1.375,0.5,-0.4375
1480689009199405,1.4375,1.1875,-0.5
1480689009221463,0.25,1.125,-0.5625
1480689009238007,0.3125,0.3125,-0.5
1480689009259565,0.75,1.0625,-0.1875
1480689009274106,0.4375,1,-0.5
1480689009296664,0.4375,0.0625,-0.5625
1480689009318721,0.5625,0.1875,-0.625
1480689009333260,0.25,0.375,-0.75
1480689009356321,0.125,0.25,-0.625
1480689009379388,0.125,-0.25,-0.4375
1480689009403447,0.25,-0.1875,-0.375
1480689009422497,1.125,0.0625,-0.5
1480689009440044,0.3125,0,-0.25
1480689009460097,0.1875,0,-0.375
1480689009477644,-0.125,0.125,0.125
1480689009498699,0.1875,0.375,0.0625
1480689009521260,0.4375,0.8125,0.0625
1480689009536300,0.125,0.375,-0.0625
1480689009558860,0.3125,0.125,-0.125
1480689009587435,0.25,0.0625,-0.3125
1480689009609996,-0.0625,0,-0.3125
1480689009619020,-0.1875,0.1875,-0.0625
1480689009641079,-0.375,0.0625,-0.25
1480689009656118,0.0625,0,-0.3125
1480689009709259,0.875,0.25,-0.125
1480689009710764,0.3125,0.4375,-0.1875
1480689009731319,-0.1875,0.5,-0.125
1480689009748364,-0.625,1,0
1480689009760897,-1.125,1.375,0.375
1480689009766913,-1.75,2.625,0.8125
1480689009783457,-1.8125,3.375,0.75
1480689009804012,-2.5625,3.375,0.875
1480689009826571,-3.3125,4.375,0.5625
1480689009842614,-3.625,2.25,0.1875
1480689009881218,0,1,0.1875
1480689009886732,1.375,0.75,-0.125
1480689009903277,1.75,0.875,-0.4375
1480689009924332,-0.25,1.8125,-0.0625
1480689009946895,-3.75,2.625,0.25
1480689009969452,-5.25,1.8125,-0.0625
1480689009984491,-2.4375,-0.75,-0.125
1480689010008055,1.875,0.1875,-0.0625
1480689010022593,0.1875,1.25,-0.625
1480689010044150,-0.8125,1.1875,0.25
1480689010076737,-1.8125,1.375,0.0625
1480689010083757,-2.0625,1.125,-0.375
1480689010104312,-0.625,1.0625,-0.125
1480689010126870,0.5,1.6875,-0.5
1480689010141912,0.3125,1.375,-0.5625
1480689010164470,-0.4375,0.1875,-0.6875
1480689010202070,-0.625,-0.1875,-0.5
1480689010212097,0.3125,0.9375,-0.375
1480689010224128,0.6875,1.375,-0.8125
1480689010256715,0.0625,1.25,-0.9375
1480689010261730,-0.625,0.125,-0.75
1480689010285793,0.375,-0.1875,-0.8125
1480689010306849,0.875,0.625,-0.75
1480689010329410,-0.5,0.375,-0.9375
1480689010351468,-0.75,0.3125,-0.5
1480689010376535,-0.3125,0.3125,-0.9375
1480689010383051,0.3125,0.3125,-1
1480689010404107,1,0.5,-1.125
1480689010426667,0.125,-0.0625,-1.1875
1480689010443211,0,-0.4375,-1.125
1480689010464267,-0.125,-0.6875,-0.375
1480689010486828,1.625,0.9375,-0.9375
1480689010533953,0.3125,0.25,-0.875
1480689010550999,-1.125,-0.375,-1
1480689010563531,0.3125,-0.4375,-1.25
1480689010578071,1.3125,-1.375,-1.1875
1480689010584091,2.25,-2.5625,-2.625
1480689010615170,5.875,-6.1875,-2.5625
1480689010624698,7.25,-7.6875,-2.4375
1480689010644247,3,-3.8125,-1.5
1480689010674828,-4.25,0.625,-0.75
1480689010690870,-10.8125,-1.4375,0
1480689010711927,-5.875,-4.375,-0.25
1480689010730476,3.5625,-5.3125,-0.5625
1480689010743009,8.1875,-4.6875,-0.9375
1480689010769579,7.1875,-2.1875,-0.75
1480689010794646,1.875,-0.125,0.0625
1480689010804673,-3.125,-0.3125,-0.5625
1480689010857813,-2,0,0
1480689010863830,2.6875,2.0625,0.875
1480689010866337,3.1875,3.75,0.25
1480689010885889,-1.9375,3.375,-0.75
1480689010906945,-4.875,1.375,-0.4375
1480689010929507,-4.25,-0.125,-0.4375
1480689010944046,-0.0625,-0.5,-0.125
1480689010977131,4.625,-0.8125,0
1480689010984651,6.125,-2,-0.4375
1480689011004203,3.5625,-3.5,-0.375
1480689011027767,0.5,-3.3125,-0.375
1480689011049324,-0.75,-1.5625,0.125
1480689011071883,-2.0625,-1.25,-0.125
1480689011119510,0.375,-0.3125,-0.6875
1480689011122016,3.125,0.75,0.0625
1480689011128032,3.6875,1.1875,-0.5625
1480689011149590,2.0625,0.375,-0.375
1480689011178166,1.25,0.375,-0.625
1480689011187691,0.375,0.25,-0.75
1480689011209751,0.5625,-0.1875,-0.4375
1480689011232309,-0.1875,-0.125,-0.6875
1480689011253366,0.9375,0.0625,-0.375
1480689011274422,1.75,-0.0625,-0.5625
1480689011299488,1.875,-0.5625,-0.4375
1480689011304503,0.875,-1,-0.5
1480689011326561,0.9375,-0.9375,-0.5
1480689011357643,-0.6875,-0.4375,-0.125
1480689011382209,0.5625,-1.1875,-0.1875
1480689011394242,1.625,-1.3125,0
1480689011417803,0.6875,-0.25,-0.75
1480689011424321,1,-0.0625,-0.1875
1480689011446883,1.0625,-1.4375,0.5625
1480689011469440,0.9375,-2.5,-0.4375
1480689011495008,0.3125,-5,-0.875
1480689011514059,-0.125,-7.375,-1
1480689011532107,0.6875,-9.125,-1.4375
1480689011557174,3.25,-9.25,-0.0625
1480689011574219,2.5,-6.1875,0.4375
1480689011589761,0.5,-3.875,-0.875
1480689011629369,1.625,-2.9375,0.25
1480689011651927,2.125,-1.125,0.4375
1480689011682006,0.375,1.5,0.0625
1480689011686518,-1.625,1.875,-0.0625
1480689011697046,-0.1875,1.875,0.4375
1480689011717600,1.125,1.1875,-0.1875
1480689011725622,1.25,1.9375,-0.3125
1480689011746680,-0.5,2.75,-0.0625
1480689011769237,-0.8125,3.0625,-0.1875
1480689011787285,0.5625,3.5625,0.0625
1480689011809846,1.1875,5,0.5
1480689011830901,0.1875,6.3125,-0.125
1480689011845945,-3.625,6.1875,-0.25
1480689011866496,-4.875,6.5,-0.0625
1480689011892063,-3.6875,6.5,1.125
1480689011908107,-1.875,5.25,1.875
1480689011929666,-3.25,3.9375,0.5
1480689011958240,-4.0625,3.375,-0.75
1480689011967264,-2.4375,2.0625,0.125
1480689011994337,-0.6875,0.625,-0.125
1480689012009376,1.375,-0.375,-0.4375
1480689012027424,3,-0.9375,-0.375
1480689012047480,2.4375,-0.75,-0.3125
1480689012069035,0.1875,0.125,-0.25
1480689012091595,-1.4375,-0.25,-0.25
1480689012106635,-1.4375,-0.9375,-0.0625
1480689012129198,0.6875,-1,-0.1875
1480689012147245,1.625,-0.9375,-0.5625
1480689012171306,1.4375,-0.875,-0.4375
1480689012208405,0.5,-1.5625,-0.75
1480689012214925,-0.5,-1.8125,-0.5
1480689012235980,0.8125,0,-0.3125
1480689012249013,1.3125,0.625,-0.4375
1480689012273078,0.4375,0.1875,-0.6875
1480689012295639,0.3125,0.0625,-0.75
1480689012316694,0.6875,0.0625,-0.5
1480689012327222,0.5625,0,-0.6875
1480689012346775,1.625,0.3125,-0.875
1480689012369336,2.125,1,-0.6875
1480689012386881,1,0.5,-0.8125
1480689012406934,0.5,-0.1875,-0.5
1480689012429494,0.75,-0.0625,-0.75
1480689012447040,0.9375,0.3125,-0.9375
1480689012466591,0.5625,0.5,-0.75
1480689012513717,0.8125,0.5625,-0.8125
1480689012517227,0.8125,0.25,-0.4375
1480689012529760,0.0625,0.1875,-0.8125
1480689012550816,-0.25,0.6875,-0.75
1480689012574881,0.25,1.125,-0.75
1480689012596939,0.375,1.0625,-0.875
1480689012616490,-0.3125,1.25,-0.75
1480689012666125,-1.3125,1.125,-0.3125
1480689012671137,-1.5625,0.4375,-0.5
1480689012673643,-1.375,0.5,-0.4375
1480689012699711,-0.8125,0.6875,-0.5625
1480689012708236,-0.6875,1.4375,0.125
1480689012736810,-0.125,1.0625,-0.4375
1480689012759872,0.875,0.3125,0.0625
1480689012768397,1.5,0.5625,0.0625
1480689012789453,0.375,0.9375,0.125
1480689012812015,-1.6875,0.75,0.1875
1480689012829557,-2.4375,0.4375,0.125
1480689012852118,-0.6875,0.4375,0
1480689012874678,1.4375,0.5,0.125
1480689012898240,2.0625,0.5,0.1875
1480689012909269,-0.1875,0.375,-0.125
1480689012931830,-1.5625,-0.125,-0.125
1480689012950379,-1.125,0.375,0.25
1480689012969429,0.0625,0.3125,-0.1875
1480689012994496,0.6875,-0.25,-0.1875
1480689013023072,0.8125,0.4375,-0.125
1480689013036608,0.625,0.1875,0
1480689013059167,-0.1875,-0.25,0.0625
1480689013069697,0.625,0.25,-0.125
1480689013089248,1.0625,0.75,0.0625
1480689013119327,0.75,0.6875,0.375
1480689013129856,0.1875,0.625,-0.125
1480689013151914,-0.375,0.4375,-0.0625
1480689013172971,-0.5,0.1875,-0.4375
1480689013190517,0.125,0.4375,-0.3125
1480689013218090,0.9375,0.6875,-0.1875
1480689013231626,0.3125,0.625,-0.6875
1480689013265717,0.75,0.0625,-0.625
1480689013270732,0.3125,0,-0.5
1480689013316352,0.25,0.625,-0.375
1480689013318859,0.9375,0.4375,-0.3125
1480689013339413,0.375,0.5,-0.625
1480689013351946,0.6875,0.0625,-0.625
1480689013374005,0.875,0.0625,-0.5625
1480689013389045,1.4375,-0.0625,-0.6875
1480689013419125,2.75,0.4375,-0.1875
1480689013429654,1,1.125,-0.9375
1480689013473770,0,0.5,-0.75
1480689013476277,-0.6875,-0.5625,0.0625
1480689013494325,0.5625,-0.0625,0.0625
1480689013525407,0.1875,0.9375,-0.5625
1480689013531927,0,0.75,-0.6875
1480689013556991,0.8125,-0.0625,0.3125
1480689013570528,1.125,0.375,-0.4375
1480689013594591,0.5625,0.875,-0.8125
1480689013632692,0.5,0.625,-0.625
1480689013636707,-0.0625,0.9375,-0.25
1480689013651743,-0.5,0.75,-0.8125
1480689013674304,-0.3125,-0.125,-0.1875
1480689013690858,0.875,0,-0.875
1480689013713407,1.375,0.0625,-0.4375
1480689013729951,0.8125,-0.4375,-0.6875
1480689013750506,-0.0625,-0.875,-1.1875
1480689013774572,-1.625,-1.5625,-0.9375
1480689013790112,-1.8125,-2.9375,-1.375
1480689013835733,-0.375,-3.1875,-1.4375
1480689013872330,1.125,-2.625,-0.75
1480689013894890,2.4375,-1.375,-0.5625
1480689013910432,1.4375,-0.125,-0.4375
1480689013930484,0.75,0.0625,-0.1875
1480689013946527,0.375,0.5,-0.1875
1480689013953045,0.9375,1.125,-0.0625
1480689013970090,0.6875,1.9375,-0.125
1480689013992149,0,1.4375,-0.375
1480689014011701,0.6875,1.0625,0.375
1480689014034261,0.8125,1.0625,0
1480689014052309,0.5625,1.125,-0.25
1480689014071861,0.6875,0.875,-0.0625
1480689014094421,-0.0625,0.9375,-0.0625
1480689014111969,-0.375,1,-0.125
1480689014132523,0.125,1.0625,-0.25
1480689014186665,-0.375,1,-0.0625
1480689014189172,-0.25,0.8125,0.75
1480689014194687,-0.5625,0.25,0.3125
1480689014216746,0,-0.1875,0.25
1480689014240309,-0.25,-0.625,0
1480689014253344,-0.1875,-0.4375,0.125
1480689014274400,0.8125,-0.5,-0.1875
1480689014299465,-0.0625,-0.8125,-0.125
1480689014312003,-0.1875,-0.75,0
1480689014334057,-1.3125,-0.4375,0.0625
1480689014354614,-1.3125,0,0.0625
1480689014372159,-1.125,0.75,0.4375
1480689014397226,-1.9375,1.1875,0.5625
1480689014428311,-1.75,1.5625,0.1875
1480689014434826,-1.3125,0.8125,1.3125
1480689014461899,-1.625,3.25,0.9375
1480689014471924,-4.5625,4.4375,1.375
1480689014495488,-6.875,3.9375,0.9375
1480689014514036,-4.4375,1.875,0.25
1480689014532085,-1.5,1.375,0.5625
1480689014559156,0.3125,1.4375,0.8125
1480689014575700,1,2.5625,0.8125
1480689014592245,-2.375,2.5625,0.375
1480689014613301,-4.6875,1.5625,0.4375
1480689014634356,-4.5,2.1875,0.1875
1480689014653908,-4.25,2.1875,0.0625
1480689014703541,-3.25,1.6875,0.1875
1480689014726100,-2.1875,1.75,0.4375
1480689014736127,-2.375,1.25,-0.125
1480689014742143,-1.375,-0.4375,-0.625
1480689014754175,0.4375,-1,-0.5625
1480689014772724,2.6875,-0.5,-1.25
1480689014794783,0.9375,-1.8125,-1.375
1480689014817344,0.0625,-4.5625,-2.625
1480689014840405,2.625,-6.75,-2.875
1480689014861966,4.5625,-6.4375,-1.9375
1480689014874495,3.1875,-3.875,-1.8125
1480689014892042,2,-2.25,-1.625
1480689014931145,-1.625,-1.3125,-0.75
1480689014935658,-3,-0.75,-0.3125
1480689014952704,-1.6875,0.5,0
1480689014980781,0.9375,1.5,0.4375
1480689015018878,2.8125,2,0
1480689015021393,1.5625,2.25,0.5
1480689015034420,-0.9375,2.0625,0.4375
1480689015061996,-2.875,1.4375,0.375
1480689015072020,-1.5625,1,0.25
1480689015094582,1.125,1.0625,-0.0625
1480689015114133,2.5625,1.625,-0.4375
1480689015140202,3.125,1.5,-0.375
1480689015154740,1.125,1.1875,0.3125
1480689015174293,-1.125,1.375,-0.5
1480689015213397,-2.9375,0.1875,0.6875
1480689015228939,-1.375,0.375,0
1480689015233952,1.9375,1.75,-0.0625
1480689015260523,2.3125,1.75,0.25
1480689015282078,0.9375,1.375,0.0625
1480689015298622,-0.5,0.875,0.3125
1480689015312663,-0.1875,0.75,0.5625
1480689015335220,-0.125,1.375,0.4375
1480689015355775,0.0625,1.5,0.4375
1480689015372319,-0.4375,0.875,0
1480689015394882,-0.375,1,0.125
1480689015415433,0.4375,1.6875,0.4375
1480689015438495,0.4375,1.6875,-0.1875
1480689015456544,-0.3125,1.5,-0.125
1480689015484116,-1,1.125,0.125
1480689015504170,-0.75,1,0.0625
1480689015536255,-0.0625,0.75,-0.125
1480689015538762,0.8125,0.8125,-0.25
1480689015559817,1,1.125,0
1480689015575360,-0.375,0.875,-0.0625
1480689015601428,-1.875,0.4375,-0.4375
1480689015620980,-0.8125,0.75,-0.1875
1480689015635519,-1,1,-0.125
1480689015655572,-0.875,0.4375,-0.375
1480689015676629,0.375,-0.125,-0.1875
1480689015695679,0.9375,-0.25,-0.25
1480689015717236,1,0.1875,-0.25
1480689015740299,0.4375,0.4375,-0.125
1480689015759348,0,0.1875,-0.375
1480689015798952,-0.875,0.3125,-0.375
1480689015821514,-0.5625,0.1875,-0.25
1480689015828032,-0.25,0.125,-0.3125
1480689015837055,0.3125,0.125,-0.1875
1480689015867135,0.875,0.3125,-0.1875
1480689015874655,0,-0.0625,0
1480689015901727,-0.25,0.5625,-0.125
1480689015933811,0,0.5625,-0.0625
1480689015936320,0.375,0.125,0.0625
1480689015963390,0.375,0.0625,0.0625
1480689015977929,0.5625,0.3125,-0.1875
1480689015994977,0.125,0.375,-0.0625
1480689016021548,-0.0625,0.1875,-0.0625
1480689016040597,-0.5,-0.125,-0.0625
1480689016083710,-0.1875,-0.0625,-0.125
1480689016091731,0.75,0.125,-0.25
1480689016128833,0.9375,0.1875,-0.125
1480689016131337,-0.1875,0,-0.1875
1480689016137352,-1.5625,-0.3125,0
1480689016156905,-0.75,-0.0625,-0.375
1480689016174453,1.0625,0.25,-0.1875
1480689016197513,1.4375,0.125,-0.25
1480689016216564,-0.0625,-0.3125,-0.375
1480689016236116,-0.6875,-0.375,0.3125
1480689016257174,0,0.0625,0.1875
1480689016276724,0.5,0.125,0.0625
1480689016294774,1.25,0.125,-0.5
1480689016317332,1.375,0.1875,-0.1875
1480689016344404,0.25,0.0625,-0.0625
1480689016361952,-1.0625,0.0625,0
1480689016376992,-0.4375,0.0625,-0.25
1480689016398046,0.0625,-0.0625,-0.375
1480689016417098,0.9375,0,-0.3125
1480689016437150,1,0.0625,-0.5625
1480689016458206,0.375,-0.125,-0.0625
1480689016474751,-1.0625,-0.0625,-0.0625
1480689016504831,-0.625,0.0625,-0.1875
1480689016525385,0.4375,-0.1875,-0.1875
1480689016534409,0.75,0.125,-0.3125
1480689016556970,-0.0625,0.25,-0.1875
1480689016584543,-0.8125,0,0.0625
1480689016599585,-0.6875,0.3125,0
1480689016616127,-0.625,0.1875,0.125
1480689016639690,-0.9375,-0.1875,-0.1875
1480689016659743,0.3125,0.125,-0.25
1480689016683806,1.0625,0.0625,-0.375
1480689016698847,0.1875,-0.0625,-0.3125
1480689016720404,-1.375,-0.4375,-0.5
1480689016736447,-1.375,-0.875,-0.3125
1480689016759005,0.375,-0.625,-0.375
1480689016781065,1.9375,-0.375,-0.4375
1480689016803625,0.9375,0,-0.5625
1480689016827188,-0.9375,-0.4375,-0.4375
1480689016841226,-2.4375,-0.6875,-0.0625
1480689016865289,-1.1875,-0.5625,-0.0625
1480689016878328,0.625,-0.4375,0.0625
1480689016899880,1.9375,-0.3125,-0.0625
1480689016922441,2.1875,-0.25,-0.25
1480689016947008,1,-0.0625,-0.0625
1480689016960042,-0.8125,-0.3125,-0.125
1480689016976083,-0.25,-0.5,0.1875
1480689017000649,0.125,-0.4375,0
1480689017019700,0.75,-0.9375,-0.4375
1480689017044265,2.125,-1.375,-0.3125
1480689017060308,3.1875,-1.8125,-0.25
1480689017079859,4.1875,-0.75,-0.625
1480689017104425,1.75,1.3125,0.25
1480689017126485,-3.8125,0.5625,0
1480689017140019,-3.5,-0.5,0.3125
1480689017156062,-0.875,0.1875,0.6875
1480689017187145,0.8125,0.5625,0.3125
1480689017202185,1.4375,0.6875,0.4375
1480689017223742,0.375,0.25,0.75
1480689017239285,-1.75,-0.75,0.8125
1480689017261344,-2.1875,-0.75,1.125
1480689017280895,-0.875,0.1875,0.6875
1480689017298942,-0.625,0.0625,1
1480689017319998,-0.125,-0.5625,0.625
1480689017337043,0.0625,-0.5625,0.875
1480689017358600,-0.625,-0.6875,0.9375
1480689017387678,-0.625,-1,1.0625
1480689017405726,0.0625,-1.0625,1.3125
1480689017424777,-0.125,-1.1875,1.3125
1480689017456862,-0.5625,-0.8125,1.25
1480689017462377,-0.75,-0.6875,1.0625
1480689017486942,-1.5,-0.8125,1.5625
1480689017504489,-1,-0.5625,1.25
1480689017516521,-0.375,-0.4375,1.3125
1480689017545100,-0.0625,-0.0625,0.9375
1480689017561641,0.0625,0.0625,0.8125
1480689017577182,-0.4375,0.25,1.3125
1480689017598739,-0.375,0.625,0.6875
1480689017623305,-0.9375,0.0625,0.875
1480689017636341,-0.9375,0.25,0.25
1480689017658399,0.3125,0.5,0.25
1480689017681961,0.125,0.25,0
1480689017703518,0.375,0.1875,-0.0625
1480689017718558,0.1875,0,-0.4375
1480689017757661,0.5625,0.0625,-0.25
1480689017762676,0.5,0.25,-0.25
1480689017778720,0.8125,0.5,-0.1875
1480689017801280,0.3125,0.25,-0.125
1480689017823837,-0.8125,0,-0.4375
1480689017839881,-0.125,0.5625,-0.5625
1480689017868957,0.6875,0.5625,-0.3125
1480689017890014,1.5,0.6875,-0.5625
1480689017899037,1,0.5625,-0.625
1480689017921096,0.3125,0.375,-0.625
1480689017935635,0.125,0.25,-0.625
1480689017966217,0.3125,0.25,-0.625
1480689017981260,0.4375,0.375,-0.75
1480689018002313,0.25,0.4375,-0.6875
1480689018019358,0.3125,0.5625,-0.6875
1480689018057459,0.3125,0.375,-0.8125
1480689018064979,0.5,0.3125,-0.875
1480689018079016,0.1875,0,-0.8125
1480689018101075,0.9375,-0.0625,-1.0625
1480689018123635,0.9375,-0.4375,-1
1480689018139678,0.875,-1.0625,-1.125
1480689018161738,0.625,-1.9375,-1.25
1480689018189811,1.8125,-2.5625,-1.5625
1480689018198835,3,-3.9375,-2
1480689018222397,2.3125,-5.0625,-1.9375
1480689018243455,2.375,-2.8125,-1.125
1480689018259497,-0.375,-1.4375,-0.875
1480689018281053,-0.3125,-0.8125,-1.5
1480689018303614,0.375,-0.0625,-0.5
1480689018319155,0.5625,-0.875,-0.75
1480689018341215,0.9375,-0.625,-1.3125
1480689018362269,1.4375,-0.3125,-0.6875
1480689018378816,0.625,-0.8125,-0.75
1480689018401373,-0.3125,-1.0625,-0.875
1480689018424435,0.375,-0.8125,-0.9375
1480689018444991,1.125,0.875,-0.5625
1480689018462536,0.3125,0.25,-0.5
1480689018482088,0.3125,-0.625,-0.75
1480689018499133,1.5,-0.25,-0.25
1480689018521192,0.875,0.125,-0.5
1480689018549769,-0.25,0.1875,-0.1875
1480689018559294,0.125,1.125,-0.3125
1480689018594892,-0.875,1.375,-0.25
1480689018603913,-0.25,0,-0.375
1480689018633992,1.3125,-0.3125,-0.75
1480689018641513,0.875,-0.875,-0.75
1480689018664072,1,-1.9375,-0.5
1480689018678109,1.0625,-2.375,-0.75
1480689018708190,1.3125,-3.375,-1.0625
1480689018723731,2.75,-5.4375,-1.5625
1480689018746291,3.5,-5.5625,-1.0625
1480689018766344,2.875,-1.25,-0.875
1480689018791411,0.5,1.625,-0.375
1480689018804947,-1.6875,0.9375,-0.625
1480689018821490,-0.5,-0.25,-0.625
1480689018849565,2.0625,1.25,-0.125
1480689018866611,1.9375,2.5625,0.1875
1480689018895688,-0.5625,3.8125,-0.3125
1480689018903710,-1.6875,4.0625,0.0625
1480689018926270,-2.375,3.8125,-0.25
1480689018941310,-2.5,3.125,-0.5625
1480689018964371,-3.875,2.625,-1.0625
1480689018979411,-3.9375,3.9375,-0.6875
1480689019001971,-5.125,3.375,-0.75
1480689019024029,-3.875,0.6875,-0.75
1480689019045090,-0.5,-0.875,-0.3125
1480689019067144,1.625,-1.0625,-1.3125
1480689019089704,2.8125,-1.9375,-0.875
