timestamp,x,y,z,w
1480698683815105,0.022522,-0.467834,0.871765,-0.143677
1480698683835660,0.022522,-0.467712,0.871887,-0.143555
1480698683859223,0.0223999,-0.467468,0.872009,-0.143433
1480698683875266,0.0222778,-0.467346,0.87207,-0.143372
1480698683902839,0.0220947,-0.467407,0.87207,-0.143311
1480698683911863,0.0219727,-0.467529,0.872009,-0.143127
1480698683934423,0.0217896,-0.467468,0.87207,-0.143066
1480698683955479,0.0216064,-0.467285,0.872131,-0.143127
1480698683974028,0.0214233,-0.467163,0.872253,-0.14325
1480698683994583,0.0211182,-0.46698,0.872253,-0.143555
1480698684016642,0.020752,-0.466736,0.872375,-0.14386
1480698684046727,0.0206909,-0.466492,0.872498,-0.143799
1480698684067778,0.0206909,-0.466187,0.872681,-0.143677
1480698684076802,0.0206909,-0.466187,0.872681,-0.143677
1480698684093849,0.020752,-0.465942,0.872803,-0.143799
1480698684114402,0.020752,-0.465637,0.872925,-0.143799
1480698684153004,0.020752,-0.465637,0.872925,-0.143799
1480698684158018,0.020752,-0.465637,0.872986,-0.143799
1480698684176567,0.020752,-0.465576,0.872986,-0.143799
1480698684197623,0.020752,-0.465576,0.872986,-0.143799
1480698684211159,0.020752,-0.465576,0.872986,-0.143799
1480698684234220,0.0206299,-0.46582,0.872864,-0.14386
1480698684259286,0.0205078,-0.466248,0.87262,-0.14386
1480698684271319,0.0205078,-0.466858,0.872314,-0.14386
1480698684294380,0.0205078,-0.466858,0.872314,-0.14386
1480698684322956,0.0203857,-0.46698,0.872192,-0.143982
1480698684330978,0.0204468,-0.467346,0.872009,-0.143982
1480698684354541,0.0205078,-0.46759,0.871887,-0.144043
1480698684377601,0.0204468,-0.46759,0.871887,-0.144043
1480698684392642,0.0204468,-0.46759,0.871887,-0.144043
1480698684416705,0.0204468,-0.467896,0.871704,-0.144104
1480698684437761,0.0205078,-0.468079,0.871582,-0.144165
1480698684451800,0.0205078,-0.468018,0.871643,-0.144165
1480698684474860,0.0205078,-0.468018,0.871643,-0.144165
1480698684496921,0.0203857,-0.468201,0.871521,-0.144226
1480698684510956,0.0203857,-0.468201,0.871521,-0.144226
1480698684534519,0.0203857,-0.468201,0.871521,-0.144226
1480698684557078,0.0203857,-0.468445,0.871399,-0.144287
1480698684578134,0.0203857,-0.468445,0.871399,-0.144287
1480698684594177,0.0203247,-0.468506,0.871338,-0.144287
1480698684624258,0.0203247,-0.468506,0.871338,-0.144287
1480698684637793,0.0203247,-0.468506,0.871338,-0.144287
1480698684654337,0.0203247,-0.468506,0.871338,-0.144287
1480698684684417,0.0203247,-0.468567,0.871338,-0.144287
1480698684705474,0.0203247,-0.468445,0.871399,-0.144287
1480698684714497,0.0202637,-0.468323,0.87146,-0.144287
1480698684737057,0.0202026,-0.468262,0.87146,-0.144287
1480698684759116,0.0202026,-0.468262,0.87146,-0.144287
1480698684774156,0.0202026,-0.468262,0.87146,-0.144287
1480698684796718,0.0202026,-0.468262,0.871521,-0.144287
1480698684825291,0.0202637,-0.468262,0.871521,-0.144287
1480698684834316,0.0202637,-0.467957,0.871643,-0.144287
1480698684856876,0.0202637,-0.467957,0.871643,-0.144287
1480698684879436,0.0202026,-0.467957,0.871643,-0.144287
1480698684894476,0.0203247,-0.468262,0.87146,-0.144287
1480698684917036,0.0203247,-0.468201,0.871521,-0.144165
1480698684939598,0.0202026,-0.467957,0.871704,-0.144165
1480698684956139,0.0201416,-0.467957,0.871704,-0.144165
1480698684976695,0.0201416,-0.467957,0.871704,-0.144165
1480698684999255,0.0201416,-0.467896,0.871704,-0.144165
1480698685013793,0.0201416,-0.467957,0.871704,-0.144165
1480698685036854,0.0201416,-0.467896,0.871704,-0.144165
1480698685059414,0.0201416,-0.467896,0.871704,-0.144165
1480698685074455,0.0201416,-0.467896,0.871704,-0.144165
1480698685097014,0.0201416,-0.467896,0.871704,-0.144165
1480698685119574,0.0201416,-0.467896,0.871704,-0.144165
1480698685157675,0.0202026,-0.468018,0.871643,-0.144165
1480698685159681,0.0202026,-0.468018,0.871643,-0.144165
1480698685180737,0.0201416,-0.468018,0.871643,-0.144165
1480698685193773,0.0202026,-0.468018,0.871643,-0.144165
1480698685216833,0.0201416,-0.468018,0.871643,-0.144165
1480698685239394,0.0201416,-0.468079,0.871582,-0.144165
1480698685254433,0.0201416,-0.468079,0.871582,-0.144165
1480698685277996,0.0200806,-0.468384,0.871399,-0.144226
1480698685305569,0.0200195,-0.468628,0.871338,-0.144226
1480698685313590,0.0200195,-0.468628,0.871338,-0.144226
1480698685336651,0.0200195,-0.468628,0.871338,-0.144226
1480698685359212,0.0200195,-0.468567,0.871338,-0.144226
1480698685373752,0.0199585,-0.468567,0.871338,-0.144226
1480698685404331,0.0199585,-0.468567,0.871338,-0.144226
1480698685419873,0.0199585,-0.468506,0.871338,-0.144226
1480698685435414,0.0200195,-0.468567,0.871338,-0.144226
1480698685456971,0.0200195,-0.468567,0.871338,-0.144226
1480698685479536,0.0200195,-0.468567,0.871338,-0.144226
1480698685500588,0.0199585,-0.468567,0.871338,-0.144226
1480698685516630,0.0199585,-0.468567,0.871338,-0.144226
1480698685539190,0.0199585,-0.468628,0.871338,-0.144226
1480698685560246,0.0199585,-0.468628,0.871277,-0.144226
1480698685576791,0.0199585,-0.468689,0.871277,-0.144226
1480698685600856,0.0198975,-0.468689,0.871277,-0.144226
1480698685620908,0.0198975,-0.468689,0.871277,-0.144226
1480698685636951,0.0198975,-0.468689,0.871277,-0.144287
1480698685667030,0.0198975,-0.468689,0.871277,-0.144287
1480698685682070,0.0198975,-0.468689,0.871277,-0.144287
1480698685696613,0.0198975,-0.468689,0.871277,-0.144287
1480698685719169,0.0198975,-0.468689,0.871277,-0.144287
1480698685740226,0.0198364,-0.468506,0.871399,-0.144226
1480698685756769,0.0197754,-0.468262,0.871521,-0.144287
1480698685780332,0.0197754,-0.468262,0.871521,-0.144287
1480698685804400,0.0197754,-0.468201,0.871521,-0.144287
1480698685817936,0.0197754,-0.468262,0.871521,-0.144287
1480698685848017,0.0197754,-0.468262,0.87146,-0.144287
1480698685860049,0.0197754,-0.468323,0.87146,-0.144287
1480698685878098,0.0197754,-0.468689,0.871277,-0.144348
1480698685899152,0.0197754,-0.468689,0.871216,-0.144348
1480698685927728,0.0197144,-0.46875,0.871216,-0.144348
1480698685937755,0.0197144,-0.46875,0.871216,-0.144348
1480698685959313,0.0197144,-0.468689,0.871216,-0.144348
1480698685982374,0.0197144,-0.468689,0.871277,-0.144348
1480698685996912,0.0197144,-0.468689,0.871277,-0.144348
1480698686019473,0.0197144,-0.468689,0.871277,-0.144348
1480698686042032,0.0197144,-0.468628,0.871277,-0.144348
1480698686057072,0.0197144,-0.468628,0.871277,-0.144348
1480698686079131,0.0197144,-0.468628,0.871277,-0.144348
1480698686101691,0.0197144,-0.468628,0.871277,-0.144348
1480698686124251,0.0197144,-0.468689,0.871277,-0.144348
1480698686139295,0.0197144,-0.468689,0.871277,-0.144348
1480698686169370,0.0197144,-0.468689,0.871216,-0.144348
1480698686176390,0.0198975,-0.468506,0.871338,-0.144287
1480698686199952,0.0200195,-0.468201,0.871521,-0.144226
1480698686223515,0.0201416,-0.467896,0.871704,-0.144165
1480698686243067,0.0201416,-0.467712,0.871765,-0.144165
1480698686265627,0.0201416,-0.467651,0.871826,-0.144104
1480698686282170,0.0200806,-0.467285,0.872009,-0.144043
1480698686296709,0.0200195,-0.467041,0.872192,-0.143982
1480698686319270,0.0200195,-0.467041,0.872192,-0.143982
1480698686341829,0.0200195,-0.467041,0.872192,-0.143982
1480698686356368,0.0200195,-0.46698,0.872253,-0.143982
1480698686381937,0.0200195,-0.466675,0.872375,-0.143982
1480698686401989,0.0200195,-0.466675,0.872375,-0.144043
1480698686424549,0.0200195,-0.466675,0.872375,-0.144043
1480698686439090,0.0200195,-0.466675,0.872375,-0.144043
1480698686469168,0.0200195,-0.466675,0.872375,-0.144043
1480698686484208,0.0202637,-0.466553,0.872437,-0.144043
1480698686500252,0.0202026,-0.466187,0.87262,-0.144165
1480698686521808,0.0202637,-0.466003,0.872681,-0.144348
1480698686542863,0.0204468,-0.46582,0.872742,-0.14447
1480698686559407,0.0206299,-0.465759,0.872742,-0.144653
1480698686589487,0.020813,-0.465576,0.872803,-0.144836
1480698686603024,0.0209351,-0.465332,0.872925,-0.14502
1480698686626586,0.020874,-0.465332,0.872925,-0.14502
1480698686641626,0.0209351,-0.465332,0.872925,-0.14502
1480698686662686,0.0209351,-0.465332,0.872925,-0.14502
1480698686679230,0.0209351,-0.465332,0.872925,-0.14502
1480698686701787,0.0210571,-0.465454,0.872864,-0.14502
1480698686730364,0.0210571,-0.465454,0.872864,-0.144958
1480698686739387,0.0210571,-0.465271,0.872925,-0.144958
1480698686769968,0.0210571,-0.465271,0.872925,-0.14502
1480698686783506,0.0210571,-0.465271,0.872925,-0.14502
1480698686799552,0.0210571,-0.465332,0.872925,-0.144958
1480698686821604,0.0210571,-0.465332,0.872925,-0.144958
1480698686843163,0.0210571,-0.46521,0.872986,-0.14502
1480698686859206,0.0209961,-0.46521,0.872986,-0.14502
1480698686881765,0.0209961,-0.46521,0.872986,-0.14502
1480698686904333,0.0209961,-0.46521,0.872986,-0.14502
1480698686934405,0.0210571,-0.465149,0.872986,-0.14502
1480698686941925,0.0210571,-0.465149,0.872986,-0.14502
1480698686964485,0.0210571,-0.465149,0.873047,-0.14502
1480698686980029,0.0211182,-0.464844,0.873169,-0.14502
1480698687002085,0.0211182,-0.464783,0.873169,-0.14502
1480698687024144,0.0211792,-0.464783,0.873169,-0.14502
1480698687041189,0.0211792,-0.464844,0.873169,-0.14502
1480698687061744,0.0211182,-0.464844,0.873169,-0.14502
1480698687084304,0.0211182,-0.464844,0.873169,-0.14502
1480698687105360,0.0211792,-0.464905,0.873169,-0.14502
1480698687122404,0.0211792,-0.464905,0.873169,-0.14502
1480698687144464,0.0211792,-0.464905,0.873108,-0.14502
1480698687167525,0.0211182,-0.464966,0.873108,-0.14502
1480698687190586,0.0211182,-0.46521,0.872986,-0.144958
1480698687204625,0.0210571,-0.465454,0.872864,-0.144836
1480698687219664,0.0211182,-0.465454,0.872925,-0.144836
1480698687242224,0.0209351,-0.465454,0.872864,-0.144897
1480698687264282,0.0209961,-0.465637,0.872803,-0.144836
1480698687278821,0.0209961,-0.465576,0.872803,-0.144836
1480698687302885,0.0210571,-0.465576,0.872803,-0.144836
1480698687325445,0.0210571,-0.465576,0.872803,-0.144836
1480698687348506,0.0210571,-0.46582,0.872681,-0.144836
1480698687362042,0.0211792,-0.466003,0.872559,-0.144836
1480698687398640,0.0211792,-0.466064,0.872559,-0.144836
1480698687405157,0.0211792,-0.466064,0.872559,-0.144836
1480698687421701,0.0211792,-0.466064,0.872559,-0.144836
1480698687445767,0.0211182,-0.466064,0.872559,-0.144836
1480698687467323,0.0211182,-0.466064,0.872559,-0.144836
1480698687484367,0.0211182,-0.466064,0.872559,-0.144836
1480698687506427,0.0211182,-0.466125,0.872559,-0.144836
1480698687524976,0.0209961,-0.465881,0.87262,-0.144897
1480698687542523,0.020813,-0.465759,0.872742,-0.144836
1480698687565084,0.020813,-0.465759,0.872742,-0.144836
1480698687592655,0.020813,-0.465698,0.872742,-0.144836
1480698687602682,0.020813,-0.465698,0.872742,-0.144836
1480698687624239,0.020813,-0.465698,0.872742,-0.144836
1480698687654821,0.020813,-0.465698,0.872742,-0.144836
1480698687675376,0.020813,-0.465698,0.872742,-0.144836
1480698687684901,0.0209351,-0.465881,0.87262,-0.144775
1480698687737542,0.0209351,-0.465881,0.87262,-0.144775
1480698687739547,0.0209351,-0.465942,0.87262,-0.144775
1480698687746067,0.0209351,-0.465942,0.87262,-0.144775
1480698687765616,0.0209351,-0.465942,0.87262,-0.144775
1480698687782661,0.0209351,-0.465942,0.87262,-0.144775
1480698687805221,0.020874,-0.465942,0.87262,-0.144836
1480698687827279,0.020874,-0.465942,0.87262,-0.144836
1480698687847835,0.020874,-0.465942,0.87262,-0.144836
1480698687864378,0.020874,-0.465942,0.87262,-0.144836
1480698687886938,0.020874,-0.465881,0.87262,-0.144836
1480698687901978,0.020874,-0.465881,0.872681,-0.144836
1480698687932559,0.020874,-0.465881,0.872681,-0.144836
1480698687953115,0.020874,-0.46582,0.872681,-0.144836
1480698687975674,0.020874,-0.46582,0.872681,-0.144836
1480698687984197,0.020874,-0.46582,0.872681,-0.144836
1480698688006758,0.020874,-0.465881,0.872681,-0.144836
1480698688044858,0.020874,-0.465881,0.872681,-0.144836
1480698688047365,0.020874,-0.465881,0.872681,-0.144836
1480698688067920,0.020874,-0.465881,0.872681,-0.144836
1480698688080954,0.020874,-0.465881,0.87262,-0.144836
1480698688112540,0.020874,-0.465881,0.87262,-0.144836
1480698688127077,0.020813,-0.465881,0.87262,-0.144836
1480698688141115,0.020813,-0.465881,0.87262,-0.144836
1480698688170191,0.020813,-0.465881,0.87262,-0.144836
1480698688186736,0.020813,-0.465881,0.87262,-0.144836
1480698688201274,0.020813,-0.465881,0.872681,-0.144836
1480698688224335,0.020813,-0.465881,0.872681,-0.144836
1480698688252912,0.020813,-0.465881,0.872681,-0.144836
1480698688260932,0.020874,-0.466125,0.872559,-0.144775
1480698688284997,0.0209351,-0.466431,0.872375,-0.144714
1480698688307055,0.0209351,-0.466736,0.872192,-0.144714
1480698688327611,0.0209351,-0.46698,0.87207,-0.144592
1480698688344154,0.0209351,-0.467041,0.87207,-0.144592
1480698688367215,0.0209351,-0.467041,0.87207,-0.144592
1480698688389274,0.0209351,-0.467041,0.87207,-0.144653
1480698688411834,0.020874,-0.467041,0.87207,-0.144653
1480698688427375,0.020874,-0.467041,0.87207,-0.144653
1480698688447930,0.020813,-0.467041,0.87207,-0.144653
1480698688464474,0.020813,-0.467041,0.87207,-0.144653
1480698688487034,0.020813,-0.467041,0.87207,-0.144653
1480698688508591,0.020874,-0.466919,0.872131,-0.144592
1480698688526138,0.020813,-0.466675,0.872314,-0.144531
1480698688546693,0.020813,-0.466614,0.872314,-0.144531
1480698688575268,0.020813,-0.466614,0.872314,-0.144531
1480698688590308,0.020813,-0.466614,0.872314,-0.144531
1480698688606853,0.020874,-0.466492,0.872375,-0.144531
1480698688635429,0.020874,-0.466553,0.872375,-0.144531
1480698688644954,0.020874,-0.466553,0.872314,-0.144592
1480698688667513,0.020874,-0.466614,0.872314,-0.144531
1480698688688068,0.020752,-0.466492,0.872375,-0.144653
1480698688705114,0.020752,-0.466492,0.872375,-0.144653
1480698688727674,0.0206909,-0.466553,0.872314,-0.144653
1480698688749733,0.020752,-0.466553,0.872314,-0.144653
1480698688764271,0.020752,-0.466553,0.872314,-0.144653
1480698688787834,0.020752,-0.466553,0.872314,-0.144653
1480698688811396,0.020752,-0.466553,0.872314,-0.144653
1480698688824432,0.020752,-0.466553,0.872314,-0.144653
1480698688855012,0.020752,-0.466614,0.872314,-0.144653
1480698688877573,0.020752,-0.466614,0.872314,-0.144653
1480698688899132,0.020752,-0.466614,0.872314,-0.144653
1480698688906650,0.020813,-0.466797,0.872192,-0.144531
1480698688929210,0.020813,-0.466797,0.872192,-0.144531
1480698688943749,0.020813,-0.466797,0.872192,-0.144531
1480698688966810,0.020874,-0.466614,0.872314,-0.144592
1480698688989871,0.020874,-0.466675,0.872314,-0.144592
1480698689003909,0.020813,-0.466675,0.872253,-0.144592
1480698689027972,0.020813,-0.466736,0.872253,-0.144592
1480698689057049,0.020874,-0.466736,0.872253,-0.144592
1480698689063567,0.020874,-0.466797,0.872192,-0.144592
1480698689087130,0.020874,-0.466797,0.872192,-0.144531
1480698689111194,0.020874,-0.466797,0.872192,-0.144531
1480698689124730,0.020874,-0.466797,0.872192,-0.144531
1480698689161327,0.020874,-0.466797,0.872192,-0.144592
1480698689169348,0.020874,-0.466736,0.872253,-0.144592
1480698689190404,0.020874,-0.466736,0.872253,-0.144531
1480698689206949,0.020874,-0.466553,0.872375,-0.144531
1480698689229511,0.020813,-0.466248,0.872498,-0.144592
1480698689250564,0.020752,-0.466248,0.872498,-0.144592
1480698689266607,0.020752,-0.466309,0.872498,-0.144592
1480698689290169,0.020752,-0.466309,0.872437,-0.144592
1480698689310223,0.0206909,-0.466309,0.872437,-0.144653
1480698689335290,0.0206909,-0.46637,0.872437,-0.144653
1480698689349328,0.0206909,-0.46637,0.872437,-0.144714
1480698689370884,0.0206909,-0.46637,0.872437,-0.144653
1480698689386927,0.0205688,-0.466125,0.872559,-0.144775
1480698689409487,0.0205688,-0.466064,0.872559,-0.144775
1480698689430543,0.0205688,-0.466431,0.872375,-0.144836
1480698689446588,0.0205688,-0.466431,0.872375,-0.144836
1480698689476665,0.0205078,-0.466248,0.872437,-0.144958
1480698689497812,0.0204468,-0.466248,0.872437,-0.145081
1480698689508841,0.0205078,-0.466614,0.872192,-0.145142
1480698689529899,0.0204468,-0.46698,0.872009,-0.145264
1480698689550451,0.0204468,-0.46698,0.872009,-0.145264
1480698689566995,0.0204468,-0.467041,0.871948,-0.145264
1480698689597076,0.0204468,-0.466858,0.87207,-0.145325
1480698689610110,0.0204468,-0.466919,0.872009,-0.145325
1480698689627658,0.0206299,-0.466736,0.872131,-0.145264
1480698689650217,0.0206299,-0.466309,0.872375,-0.145203
1480698689670270,0.0206909,-0.466003,0.872559,-0.145142
1480698689686814,0.020752,-0.46582,0.87262,-0.145081
1480698689709876,0.0206909,-0.465698,0.872742,-0.14502
1480698689732435,0.0206909,-0.465698,0.872742,-0.14502
1480698689754996,0.0206909,-0.465698,0.872742,-0.14502
1480698689777056,0.0205688,-0.465454,0.872864,-0.144958
1480698689794101,0.0205078,-0.465088,0.873108,-0.144897
1480698689813153,0.0205078,-0.4646,0.873352,-0.144836
1480698689829695,0.0205078,-0.46405,0.873596,-0.144836
1480698689852254,0.0205688,-0.463684,0.873779,-0.144897
1480698689882335,0.0206909,-0.46344,0.873962,-0.144897
1480698689895369,0.020874,-0.463196,0.874084,-0.144897
1480698689919432,0.0211182,-0.463074,0.874146,-0.144897
1480698689925950,0.0211792,-0.46283,0.874268,-0.144897
1480698689957033,0.0211792,-0.462769,0.874268,-0.145081
1480698689986611,0.0211792,-0.462769,0.874268,-0.145081
1480698689989119,0.0212402,-0.46283,0.874207,-0.14502
1480698690009171,0.0211792,-0.462891,0.874207,-0.14502
1480698690031731,0.0211792,-0.46283,0.874207,-0.14502
1480698690046273,0.0214233,-0.46283,0.874207,-0.145081
1480698690070836,0.0214233,-0.46283,0.874207,-0.145081
1480698690091891,0.0216064,-0.462708,0.874268,-0.145264
1480698690114953,0.0216064,-0.462708,0.874268,-0.145264
1480698690129992,0.0217285,-0.462891,0.874084,-0.145386
1480698690154056,0.0217285,-0.462952,0.874084,-0.145386
1480698690167091,0.0217896,-0.462891,0.874146,-0.145386
1480698690196670,0.0218506,-0.462952,0.874146,-0.145386
1480698690211711,0.0217896,-0.462952,0.874084,-0.145386
1480698690233267,0.0217896,-0.463013,0.874084,-0.145386
1480698690264350,0.0217896,-0.462952,0.874084,-0.145386
1480698690271871,0.0218506,-0.462769,0.874207,-0.145386
1480698690310473,0.0217896,-0.46283,0.874146,-0.145386
1480698690312980,0.0217896,-0.46283,0.874146,-0.145386
1480698690338046,0.0218506,-0.462769,0.874207,-0.145325
1480698690356595,0.0219727,-0.462585,0.874329,-0.145203
1480698690378153,0.0220947,-0.46228,0.874512,-0.145081
1480698690398707,0.0221558,-0.462036,0.874634,-0.145081
1480698690400211,0.0221558,-0.461792,0.874756,-0.145142
1480698690429790,0.0221558,-0.461548,0.874878,-0.145142
1480698690450846,0.0222168,-0.461426,0.874939,-0.145081
1480698690457363,0.0222168,-0.461426,0.874939,-0.145081
1480698690479924,0.0223389,-0.461304,0.875,-0.14502
1480698690495967,0.0223389,-0.461182,0.875061,-0.145081
1480698690520030,0.0222778,-0.461243,0.875061,-0.145081
1480698690543091,0.0222778,-0.461243,0.875,-0.145081
1480698690554621,0.0223389,-0.461182,0.875061,-0.145142
1480698690577181,0.0224609,-0.460999,0.875183,-0.145081
1480698690599742,0.022522,-0.460999,0.875183,-0.145081
1480698690616287,0.0224609,-0.460999,0.875183,-0.145142
1480698690637341,0.0224609,-0.460999,0.875183,-0.145142
1480698690659901,0.0224609,-0.460999,0.875183,-0.145142
1480698690674942,0.022522,-0.460999,0.875183,-0.145081
1480698690704520,0.022522,-0.460999,0.875122,-0.145081
1480698690728589,0.0224609,-0.460754,0.875305,-0.145081
1480698690734600,0.0223999,-0.460693,0.875305,-0.145081
1480698690757661,0.0223999,-0.460693,0.875305,-0.145081
1480698690779722,0.0224609,-0.460754,0.875305,-0.145081
1480698690794760,0.0224609,-0.460754,0.875305,-0.145081
1480698690817320,0.0223389,-0.460754,0.875305,-0.145081
1480698690841384,0.0223389,-0.460754,0.875305,-0.145081
1480698690862442,0.0222778,-0.460815,0.875244,-0.145081
1480698690876979,0.0221558,-0.460693,0.875366,-0.14502
1480698690900040,0.0220337,-0.46051,0.875427,-0.14502
1480698690914579,0.0220337,-0.46051,0.875427,-0.14502
1480698690939145,0.0220337,-0.46051,0.875427,-0.14502
1480698690959699,0.0219727,-0.460388,0.875488,-0.14502
1480698690976243,0.0219727,-0.460388,0.875488,-0.145081
1480698690997299,0.0219727,-0.460388,0.875488,-0.145081
1480698691019859,0.0219727,-0.460388,0.875488,-0.14502
1480698691042419,0.0219727,-0.460388,0.875488,-0.14502
1480698691057459,0.0219727,-0.460388,0.875488,-0.14502
1480698691079519,0.0219727,-0.460449,0.875488,-0.14502
1480698691097566,0.0219727,-0.460449,0.875488,-0.14502
1480698691118622,0.0219727,-0.46051,0.875427,-0.14502
1480698691139678,0.0219727,-0.46051,0.875427,-0.14502
1480698691156222,0.0219727,-0.460571,0.875427,-0.14502
1480698691177278,0.0219727,-0.460571,0.875366,-0.14502
1480698691199838,0.0219727,-0.460632,0.875366,-0.14502
1480698691217886,0.0219116,-0.460632,0.875366,-0.14502
1480698691236937,0.0219116,-0.460632,0.875366,-0.145081
1480698691262006,0.0219116,-0.460632,0.875366,-0.145081
1480698691283560,0.0219116,-0.460632,0.875366,-0.145081
1480698691307123,0.0219116,-0.460632,0.875366,-0.145081
1480698691327678,0.0219116,-0.460632,0.875366,-0.145081
1480698691336200,0.0219727,-0.460632,0.875366,-0.14502
1480698691357256,0.0219116,-0.460632,0.875366,-0.14502
1480698691387837,0.0219727,-0.460693,0.875366,-0.14502
1480698691396361,0.0219727,-0.460754,0.875305,-0.14502
1480698691417415,0.0219727,-0.460693,0.875366,-0.14502
1480698691442483,0.0219727,-0.460693,0.875366,-0.14502
1480698691465042,0.0219116,-0.460693,0.875366,-0.14502
1480698691478582,0.0219116,-0.460754,0.875305,-0.14502
1480698691500136,0.0219727,-0.460754,0.875305,-0.14502
1480698691516680,0.0219116,-0.460754,0.875305,-0.14502
1480698691537237,0.0219727,-0.460815,0.875305,-0.14502
1480698691567314,0.0219727,-0.460815,0.875305,-0.14502
1480698691577844,0.0219116,-0.460815,0.875305,-0.14502
1480698691597394,0.0219116,-0.460815,0.875305,-0.14502
1480698691619453,0.0219116,-0.460815,0.875305,-0.14502
1480698691654045,0.0219116,-0.460815,0.875305,-0.14502
1480698691659058,0.0219116,-0.460815,0.875305,-0.14502
1480698691679614,0.0219116,-0.460815,0.875305,-0.14502
1480698691698163,0.0219116,-0.460815,0.875305,-0.14502
1480698691720222,0.0219116,-0.460815,0.875244,-0.14502
1480698691739773,0.0219116,-0.460876,0.875244,-0.14502
1480698691762334,0.0219116,-0.460938,0.875244,-0.14502
1480698691784893,0.0219116,-0.460938,0.875183,-0.14502
1480698691814974,0.0219116,-0.460999,0.875183,-0.14502
1480698691835026,0.0219116,-0.460999,0.875183,-0.14502
1480698691838536,0.0218506,-0.460999,0.875183,-0.14502
1480698691859592,0.0218506,-0.460999,0.875183,-0.14502
1480698691882152,0.0219116,-0.461182,0.875061,-0.145081
1480698691897191,0.0219116,-0.461182,0.875061,-0.145081
1480698691919752,0.0219116,-0.461182,0.875061,-0.145081
1480698691950834,0.0219116,-0.461243,0.875061,-0.145081
1480698691974899,0.0219116,-0.461243,0.875061,-0.145081
1480698691979912,0.0219116,-0.461243,0.875061,-0.145081
1480698692001970,0.0219116,-0.461304,0.875061,-0.145081
1480698692017010,0.0219116,-0.461304,0.875,-0.145081
1480698692039571,0.0218506,-0.461304,0.875,-0.145081
1480698692062131,0.0218506,-0.461365,0.875,-0.145081
1480698692084690,0.0218506,-0.461426,0.874939,-0.145081
1480698692099731,0.0217896,-0.461365,0.875,-0.145081
1480698692122290,0.0217285,-0.461365,0.875,-0.145081
1480698692154376,0.0217285,-0.461365,0.875,-0.145081
1480698692160894,0.0217285,-0.461426,0.874939,-0.145081
1480698692237597,0.0217285,-0.461426,0.874939,-0.145081
1480698692239604,0.0216675,-0.461182,0.875061,-0.145142
1480698692251638,0.0217896,-0.461426,0.874939,-0.145081
1480698692258653,0.0217896,-0.461426,0.874939,-0.145081
1480698692283720,0.0217285,-0.461121,0.875122,-0.145142
1480698692303774,0.0216675,-0.461121,0.875122,-0.145142
1480698692318813,0.0216675,-0.461182,0.875061,-0.145142
1480698692345390,0.0216675,-0.461182,0.875061,-0.145142
1480698692361940,0.0216675,-0.461243,0.875061,-0.145142
1480698692378475,0.0216675,-0.461304,0.875,-0.145142
1480698692419081,0.0216675,-0.461304,0.875,-0.145142
1480698692423592,0.0216675,-0.461365,0.875,-0.145142
1480698692461696,0.0216675,-0.461365,0.875,-0.145142
1480698692464200,0.0216675,-0.461426,0.874939,-0.145142
1480698692485757,0.0216064,-0.461426,0.874939,-0.145142
1480698692506311,0.0216064,-0.461426,0.874939,-0.145142
1480698692527368,0.0216064,-0.461365,0.874939,-0.145142
1480698692541906,0.0216064,-0.461365,0.874939,-0.145142
1480698692564967,0.0216064,-0.461365,0.874939,-0.145142
1480698692582514,0.0216064,-0.461426,0.874939,-0.145142
1480698692609586,0.0216064,-0.461426,0.874939,-0.145142
1480698692620114,0.0216064,-0.461426,0.874939,-0.145142
1480698692642676,0.0216064,-0.461487,0.874939,-0.145142
1480698692663731,0.0216064,-0.461487,0.874878,-0.145142
1480698692680275,0.0216064,-0.461548,0.874878,-0.145142
1480698692699826,0.0215454,-0.461609,0.874878,-0.145142
1480698692729906,0.0215454,-0.461609,0.874878,-0.145142
1480698692747453,0.0215454,-0.461609,0.874817,-0.145203
1480698692762493,0.0215454,-0.46167,0.874817,-0.145203
1480698692786056,0.0214844,-0.46167,0.874817,-0.145203
1480698692800094,0.0214844,-0.46167,0.874817,-0.145203
1480698692819645,0.0214844,-0.46167,0.874817,-0.145203
1480698692843710,0.0214844,-0.46167,0.874817,-0.145203
1480698692861758,0.0214844,-0.461487,0.874878,-0.145203
1480698692879805,0.0214844,-0.461487,0.874878,-0.145203
1480698692902366,0.0214844,-0.461487,0.874878,-0.145203
1480698692933949,0.0214844,-0.461548,0.874878,-0.145203
1480698692940967,0.0214844,-0.461548,0.874878,-0.145203
1480698692962023,0.0214844,-0.461609,0.874878,-0.145203
1480698692980076,0.0214844,-0.461609,0.874817,-0.145203
1480698692999623,0.0214233,-0.461487,0.874939,-0.145203
1480698693022183,0.0213013,-0.461243,0.875061,-0.145264
1480698693040231,0.0213013,-0.461243,0.875,-0.145264
1480698693062792,0.0212402,-0.461304,0.875,-0.145264
1480698693083848,0.0211792,-0.461121,0.875061,-0.145386
1480698693104904,0.0211182,-0.460938,0.875183,-0.145386
1480698693119442,0.0211182,-0.460938,0.875183,-0.145447
1480698693142002,0.0211182,-0.460938,0.875183,-0.145386
1480698693160552,0.0211182,-0.460999,0.875183,-0.145386
1480698693181608,0.0212402,-0.460815,0.875244,-0.145386
1480698693202162,0.0212402,-0.460632,0.875305,-0.145447
1480698693224722,0.0212402,-0.460693,0.875305,-0.145447
1480698693247282,0.0212402,-0.460693,0.875305,-0.145447
1480698693262322,0.0213623,-0.460632,0.875366,-0.145386
1480698693284885,0.0213623,-0.460632,0.875305,-0.145386
1480698693308444,0.0213623,-0.460693,0.875305,-0.145386
1480698693338525,0.0213013,-0.460693,0.875305,-0.145447
1480698693345046,0.0213013,-0.460754,0.875244,-0.145447
1480698693364594,0.0213013,-0.460754,0.875244,-0.145447
1480698693382140,0.0213013,-0.460815,0.875244,-0.145447
1480698693406205,0.0213623,-0.460693,0.875305,-0.145447
1480698693422246,0.0214844,-0.460327,0.875488,-0.145508
1480698693449821,0.0216675,-0.459961,0.875671,-0.145508
1480698693464861,0.0217896,-0.459595,0.875793,-0.14563
1480698693480903,0.0220337,-0.45929,0.875977,-0.14563
1480698693502461,0.0221558,-0.459045,0.876099,-0.145691
1480698693524520,0.0224609,-0.458862,0.87616,-0.145691
1480698693544574,0.0227051,-0.458679,0.876282,-0.14563
1480698693569639,0.0228271,-0.458557,0.876343,-0.145752
1480698693585181,0.0227661,-0.458557,0.876343,-0.145752
1480698693610248,0.0227661,-0.458618,0.876282,-0.145752
1480698693622279,0.0228271,-0.458557,0.876282,-0.145813
1480698693652359,0.0228271,-0.458618,0.876282,-0.145813
1480698693662386,0.0228271,-0.458618,0.876282,-0.145813
1480698693690460,0.0228271,-0.458984,0.876099,-0.145813
1480698693707506,0.0228271,-0.459045,0.876038,-0.145813
1480698693722546,0.0228271,-0.459045,0.876038,-0.145813
1480698693742098,0.0228271,-0.459045,0.876099,-0.145813
1480698693764658,0.0228271,-0.458984,0.876099,-0.145813
1480698693782706,0.0228271,-0.458984,0.876099,-0.145813
1480698693805268,0.0228271,-0.458984,0.876099,-0.145813
1480698693849383,0.0228271,-0.458984,0.876099,-0.145813
1480698693851390,0.0228271,-0.458984,0.876099,-0.145813
1480698693870941,0.0228271,-0.459045,0.876099,-0.145813
1480698693884477,0.0228271,-0.459045,0.876038,-0.145813
1480698693903025,0.0228271,-0.459106,0.876038,-0.145813
1480698693922076,0.0228271,-0.459106,0.876038,-0.145813
1480698693945639,0.0228271,-0.459167,0.876038,-0.145813
1480698693967698,0.0228271,-0.459167,0.875977,-0.145813
1480698693982237,0.0228271,-0.459229,0.875977,-0.145813
1480698694022845,0.0228271,-0.459229,0.875977,-0.145813
1480698694025351,0.0228271,-0.459229,0.875977,-0.145813
1480698694042396,0.0228271,-0.459229,0.875977,-0.145813
1480698694064957,0.0228271,-0.45929,0.875977,-0.145813
1480698694083005,0.0227661,-0.45929,0.875916,-0.145813
1480698694103559,0.0227661,-0.459229,0.875977,-0.145813
1480698694126119,0.0228271,-0.459229,0.875977,-0.145813
1480698694147175,0.0228271,-0.45929,0.875916,-0.145813
1480698694173245,0.0228271,-0.45929,0.875916,-0.145813
1480698694184775,0.0228271,-0.45929,0.875916,-0.145813
1480698694203325,0.0228271,-0.459351,0.875916,-0.145752
1480698694229894,0.0228271,-0.459412,0.875854,-0.145752
1480698694244937,0.0227661,-0.459351,0.875854,-0.145813
1480698694262482,0.0227051,-0.459412,0.875854,-0.145813
1480698694283537,0.0227051,-0.459412,0.875854,-0.145813
1480698694304595,0.0227051,-0.459473,0.875854,-0.145813
1480698694338183,0.0227051,-0.459473,0.875854,-0.145813
1480698694343699,0.0227051,-0.459473,0.875793,-0.145813
1480698694372274,0.0227051,-0.459534,0.875793,-0.145813
1480698694384306,0.0227051,-0.459534,0.875793,-0.145813
1480698694403858,0.022583,-0.459229,0.875977,-0.145874
1480698694428428,0.022522,-0.459229,0.875977,-0.145874
1480698694449980,0.022583,-0.459229,0.875977,-0.145874
1480698694463516,0.022583,-0.459229,0.875977,-0.145874
1480698694488081,0.022583,-0.45929,0.875916,-0.145813
1480698694503121,0.022583,-0.45929,0.875916,-0.145813
1480698694525180,0.022583,-0.459351,0.875916,-0.145813
1480698694544739,0.022583,-0.459351,0.875916,-0.145813
1480698694564785,0.022522,-0.459412,0.875854,-0.145813
1480698694591858,0.022522,-0.459473,0.875854,-0.145813
1480698694613415,0.022522,-0.459473,0.875854,-0.145874
1480698694623442,0.022522,-0.459534,0.875793,-0.145874
1480698694645001,0.022522,-0.459534,0.875793,-0.145874
1480698694664550,0.022522,-0.459534,0.875793,-0.145874
1480698694695634,0.0224609,-0.459534,0.875793,-0.145874
1480698694705160,0.0224609,-0.459534,0.875793,-0.145874
1480698694724711,0.022522,-0.459534,0.875793,-0.145874
1480698694747270,0.022522,-0.459534,0.875793,-0.145874
1480698694765318,0.022522,-0.459534,0.875793,-0.145874
1480698694784870,0.022522,-0.459595,0.875793,-0.145874
1480698694814450,0.022522,-0.459595,0.875793,-0.145874
1480698694824977,0.022522,-0.459595,0.875732,-0.145874
1480698694844533,0.0224609,-0.459656,0.875732,-0.145874
1480698694873106,0.0224609,-0.459717,0.875732,-0.145874
1480698694885138,0.0224609,-0.459778,0.875671,-0.145874
1480698694907697,0.0224609,-0.459778,0.875671,-0.145874
1480698694938280,0.0224609,-0.459778,0.875671,-0.145874
1480698694952817,0.0224609,-0.459839,0.875671,-0.145874
1480698694964849,0.0224609,-0.459839,0.875671,-0.145874
1480698694987410,0.0224609,-0.459839,0.87561,-0.145874
1480698695004957,0.0224609,-0.459839,0.87561,-0.145874
1480698695026011,0.0224609,-0.459839,0.87561,-0.145874
1480698695047069,0.0224609,-0.459839,0.87561,-0.145874
1480698695067622,0.0224609,-0.459839,0.87561,-0.145874
1480698695092187,0.0224609,-0.4599,0.87561,-0.145874
1480698695114748,0.022583,-0.460144,0.875488,-0.145813
1480698695125276,0.022583,-0.460144,0.875488,-0.145813
1480698695154854,0.022583,-0.460205,0.875488,-0.145813
1480698695169895,0.022522,-0.460205,0.875427,-0.145813
1480698695190950,0.022522,-0.460266,0.875427,-0.145813
1480698695205992,0.022522,-0.460266,0.875427,-0.145813
1480698695234566,0.022522,-0.460327,0.875427,-0.145813
1480698695252614,0.0224609,-0.460327,0.875427,-0.145813
1480698695266151,0.0224609,-0.460327,0.875366,-0.145813
1480698695287206,0.0224609,-0.460327,0.875366,-0.145813
1480698695305255,0.0224609,-0.460327,0.875366,-0.145813
1480698695327815,0.0224609,-0.460327,0.875366,-0.145813
1480698695347367,0.0224609,-0.460388,0.875366,-0.145813
1480698695366918,0.0224609,-0.460388,0.875366,-0.145813
1480698695385969,0.0224609,-0.460388,0.875366,-0.145813
1480698695414550,0.0224609,-0.460388,0.875366,-0.145813
1480698695437106,0.0224609,-0.460449,0.875366,-0.145813
1480698695448134,0.0224609,-0.460449,0.875305,-0.145813
1480698695468188,0.0224609,-0.460449,0.875305,-0.145813
1480698695487739,0.0224609,-0.46051,0.875305,-0.145813
1480698695508796,0.0223999,-0.460571,0.875244,-0.145874
1480698695529852,0.0223999,-0.460571,0.875244,-0.145874
1480698695545895,0.0223999,-0.460632,0.875244,-0.145813
1480698695567452,0.0223389,-0.46051,0.875305,-0.145813
1480698695587003,0.0223389,-0.460449,0.875305,-0.145813
1480698695605053,0.0222778,-0.460449,0.875305,-0.145813
1480698695627614,0.0223389,-0.460449,0.875305,-0.145813
1480698695647164,0.0223389,-0.460449,0.875305,-0.145813
1480698695672231,0.0223389,-0.46051,0.875305,-0.145813
1480698695688272,0.0223389,-0.46051,0.875305,-0.145813
1480698695714843,0.0223389,-0.46051,0.875305,-0.145813
1480698695725873,0.0223389,-0.460571,0.875305,-0.145813
1480698695747932,0.0223389,-0.460571,0.875305,-0.145813
1480698695766982,0.0223389,-0.460571,0.875244,-0.145813
1480698695785030,0.0223389,-0.460632,0.875244,-0.145813
1480698695815110,0.0222778,-0.460693,0.875183,-0.145813
1480698695827142,0.0222778,-0.460754,0.875183,-0.145813
1480698695845192,0.0222778,-0.460754,0.875183,-0.145813
1480698695868253,0.0222778,-0.460754,0.875183,-0.145813
1480698695888305,0.0222168,-0.460815,0.875183,-0.145874
1480698695905350,0.0222168,-0.460815,0.875122,-0.145874
1480698695951474,0.0222168,-0.460815,0.875122,-0.145874
1480698695954481,0.0222168,-0.460815,0.875122,-0.145874
1480698695965009,0.0222168,-0.460815,0.875122,-0.145874
1480698695992080,0.0222168,-0.460815,0.875122,-0.145874
1480698696007121,0.0222168,-0.460815,0.875122,-0.145813
1480698696026173,0.0222168,-0.460876,0.875122,-0.145874
1480698696060769,0.0222168,-0.460876,0.875122,-0.145874
1480698696068785,0.0222168,-0.460938,0.875061,-0.145874
1480698696085329,0.0222168,-0.460999,0.875061,-0.145874
1480698696114908,0.0222168,-0.460999,0.875061,-0.145813
1480698696135963,0.0222168,-0.46106,0.875,-0.145874
1480698696157019,0.0221558,-0.46106,0.875,-0.145874
1480698696170054,0.0221558,-0.46106,0.875,-0.145874
1480698696188603,0.0221558,-0.46106,0.875,-0.145874
1480698696226706,0.0222168,-0.461121,0.875,-0.145874
1480698696229212,0.0221558,-0.460938,0.875061,-0.145752
1480698696248764,0.0221558,-0.460938,0.875061,-0.145813
1480698696277344,0.0221558,-0.460754,0.875183,-0.145752
1480698696287365,0.0221558,-0.460754,0.875183,-0.145752
1480698696316945,0.0221558,-0.460754,0.875183,-0.145752
1480698696329478,0.0222168,-0.460754,0.875183,-0.145752
1480698696347527,0.0221558,-0.460754,0.875183,-0.145752
1480698696369585,0.0221558,-0.460815,0.875122,-0.145752
1480698696389638,0.0221558,-0.460876,0.875122,-0.145752
1480698696415206,0.0221558,-0.460876,0.875122,-0.145752
1480698696430245,0.0221558,-0.460938,0.875122,-0.145752
1480698696449799,0.0221558,-0.460999,0.875061,-0.145752
1480698696474865,0.0221558,-0.460999,0.875061,-0.145752
1480698696490907,0.0221558,-0.46106,0.875,-0.145752
1480698696509457,0.0221558,-0.46106,0.875,-0.145752
1480698696535526,0.0220947,-0.461121,0.875,-0.145752
1480698696556581,0.0220947,-0.461121,0.875,-0.145752
1480698696569617,0.0220947,-0.461121,0.875,-0.145752
1480698696587664,0.0220337,-0.461365,0.874878,-0.145813
1480698696616241,0.0220337,-0.461365,0.874878,-0.145813
1480698696637797,0.0220337,-0.461365,0.874878,-0.145813
1480698696647825,0.0220947,-0.461365,0.874817,-0.145813
1480698696669883,0.0220337,-0.461426,0.874817,-0.145813
1480698696689435,0.0220337,-0.461487,0.874817,-0.145813
1480698696713499,0.0220337,-0.461548,0.874756,-0.145813
1480698696732049,0.0220337,-0.461609,0.874756,-0.145813
1480698696758118,0.0220337,-0.461609,0.874695,-0.145813
1480698696767645,0.0220337,-0.46167,0.874695,-0.145813
1480698696790203,0.0219727,-0.46167,0.874695,-0.145813
1480698696826802,0.0219727,-0.461731,0.874695,-0.145813
1480698696829307,0.0219727,-0.461731,0.874634,-0.145813
1480698696853371,0.0219727,-0.461731,0.874634,-0.145813
1480698696872423,0.0219116,-0.46167,0.874695,-0.145813
1480698696887462,0.0218506,-0.46167,0.874695,-0.145813
1480698696925062,0.0218506,-0.461609,0.874695,-0.145813
1480698696930576,0.0218506,-0.461609,0.874695,-0.145813
1480698696947622,0.0219116,-0.46167,0.874695,-0.145813
1480698696970684,0.0218506,-0.46167,0.874695,-0.145813
1480698697000770,0.0218506,-0.461731,0.874695,-0.145813
1480698697013798,0.0218506,-0.461792,0.874634,-0.145813
1480698697030844,0.0218506,-0.461792,0.874634,-0.145813
1480698697050897,0.0217285,-0.461853,0.874634,-0.145874
1480698697067441,0.0217285,-0.461853,0.874573,-0.145874
1480698697090502,0.0217285,-0.461914,0.874573,-0.145874
1480698697111558,0.0217285,-0.461975,0.874573,-0.145874
1480698697140636,0.0217285,-0.461975,0.874512,-0.145874
1480698697150160,0.0217285,-0.461975,0.874512,-0.145874
1480698697178736,0.0217285,-0.461975,0.874512,-0.145874
1480698697187761,0.0217285,-0.461975,0.874512,-0.145935
1480698697210321,0.0217285,-0.461975,0.874512,-0.145874
1480698697247920,0.0217285,-0.461975,0.874512,-0.145874
1480698697251930,0.0217285,-0.462036,0.874512,-0.145874
1480698697269979,0.0217285,-0.462036,0.874512,-0.145874
1480698697297050,0.0217285,-0.462036,0.874512,-0.145874
1480698697312091,0.0217285,-0.462097,0.874451,-0.145874
1480698697330139,0.0216675,-0.462158,0.874451,-0.145874
1480698697351697,0.0216675,-0.462219,0.87439,-0.145874
1480698697374257,0.0216675,-0.462219,0.87439,-0.145874
1480698697412357,0.0216675,-0.46228,0.87439,-0.145935
1480698697414865,0.0216064,-0.46228,0.874329,-0.145935
1480698697434918,0.0216064,-0.462341,0.874329,-0.145935
1480698697450960,0.0216675,-0.462341,0.874329,-0.145935
1480698697472016,0.0216064,-0.462158,0.87439,-0.145935
1480698697493574,0.0216675,-0.461975,0.874512,-0.145996
1480698697510118,0.0216675,-0.461975,0.874512,-0.145996
1480698697531675,0.0216675,-0.461975,0.874512,-0.145996
1480698697552730,0.0216675,-0.462036,0.874512,-0.145996
1480698697570277,0.0216675,-0.462036,0.874512,-0.145996
1480698697594843,0.0216675,-0.462036,0.874451,-0.145996
1480698697612891,0.0216675,-0.462097,0.874451,-0.145935
1480698697629936,0.0216675,-0.462158,0.874451,-0.145935
1480698697652498,0.0216675,-0.462219,0.87439,-0.145935
1480698697674555,0.0216675,-0.46228,0.87439,-0.145935
1480698697696614,0.0216675,-0.46228,0.87439,-0.145935
1480698697711653,0.0216675,-0.462341,0.874329,-0.145935
1480698697732709,0.0216675,-0.462341,0.874329,-0.145935
1480698697749755,0.0216064,-0.462341,0.874329,-0.145996
1480698697779835,0.0216064,-0.462341,0.874329,-0.145996
1480698697792870,0.0216064,-0.462341,0.874329,-0.145996
1480698697818939,0.0216064,-0.462341,0.874329,-0.145996
1480698697832477,0.0216064,-0.462341,0.874329,-0.145996
1480698697854032,0.0216064,-0.462341,0.874329,-0.145996
1480698697870576,0.0216064,-0.462402,0.874329,-0.145996
1480698697892635,0.0216064,-0.462402,0.874268,-0.145935
1480698697921712,0.0216064,-0.462402,0.874268,-0.145935
1480698697929233,0.0216675,-0.462463,0.874268,-0.145935
1480698697951792,0.0216675,-0.462524,0.874207,-0.145935
1480698697975355,0.0216064,-0.462585,0.874207,-0.145935
1480698697989392,0.0216064,-0.462585,0.874207,-0.145935
1480698698012956,0.0216064,-0.462646,0.874146,-0.145935
1480698698034512,0.0216064,-0.462646,0.874146,-0.145935
1480698698050055,0.0216064,-0.462708,0.874146,-0.145935
1480698698071611,0.0216064,-0.462708,0.874146,-0.145935
1480698698109712,0.0216064,-0.462585,0.874207,-0.145935
1480698698112219,0.0216064,-0.462402,0.874268,-0.145996
1480698698133776,0.0216064,-0.462402,0.874268,-0.145996
1480698698152827,0.0216064,-0.462402,0.874329,-0.145996
1480698698169873,0.0216675,-0.462402,0.874329,-0.145996
1480698698192933,0.0216675,-0.462402,0.874268,-0.145996
1480698698224016,0.0216064,-0.462402,0.874268,-0.145996
1480698698230033,0.0216064,-0.462463,0.874268,-0.145996
1480698698259111,0.0216064,-0.462463,0.874268,-0.145996
1480698698290693,0.0216064,-0.462524,0.874207,-0.145996
1480698698295205,0.0216064,-0.462524,0.874207,-0.145996
1480698698311749,0.0216064,-0.462585,0.874207,-0.145996
1480698698334309,0.0216064,-0.462585,0.874146,-0.145996
1480698698356869,0.0216064,-0.462646,0.874146,-0.145996
1480698698371911,0.0216064,-0.462646,0.874146,-0.145996
1480698698394469,0.0215454,-0.462646,0.874146,-0.146057
1480698698409509,0.0215454,-0.462646,0.874146,-0.146057
1480698698432570,0.0215454,-0.462646,0.874146,-0.146057
1480698698461649,0.0215454,-0.462646,0.874146,-0.146057
1480698698475685,0.0216064,-0.462646,0.874146,-0.146057
1480698698499249,0.0216064,-0.462646,0.874146,-0.145996
1480698698520805,0.0215454,-0.462646,0.874146,-0.146057
1480698698537851,0.0216064,-0.462646,0.874146,-0.145996
1480698698559408,0.0215454,-0.462708,0.874146,-0.145996
1480698698591493,0.0215454,-0.462708,0.874146,-0.145996
1480698698595504,0.0215454,-0.462769,0.874084,-0.146057
1480698698611546,0.0215454,-0.462769,0.874084,-0.146057
1480698698634106,0.0215454,-0.462769,0.874084,-0.146057
1480698698648646,0.0216064,-0.462585,0.874207,-0.146057
1480698698679226,0.0216064,-0.462585,0.874146,-0.146057
1480698698694768,0.0216064,-0.462585,0.874207,-0.146118
1480698698709307,0.0216064,-0.462585,0.874207,-0.146118
1480698698731868,0.0216064,-0.462524,0.874207,-0.146118
1480698698754427,0.0216064,-0.462524,0.874207,-0.146057
1480698698775984,0.0217285,-0.46228,0.874329,-0.145996
1480698698792026,0.0217285,-0.461975,0.874451,-0.146118
1480698698821104,0.0217285,-0.461975,0.874512,-0.146118
1480698698835643,0.0217896,-0.461975,0.874512,-0.146118
1480698698857701,0.0217896,-0.461853,0.874573,-0.146179
1480698698880262,0.0218506,-0.461731,0.874634,-0.14624
1480698698895301,0.0218506,-0.461731,0.874573,-0.14624
1480698698911845,0.0218506,-0.461792,0.874573,-0.14624
1480698698934906,0.0218506,-0.461853,0.874512,-0.14624
1480698698956964,0.0218506,-0.46167,0.874634,-0.146301
1480698698972507,0.0218506,-0.46167,0.874634,-0.146301
1480698698995573,0.0218506,-0.46167,0.874634,-0.146301
1480698699016623,0.0218506,-0.461426,0.874756,-0.146362
1480698699032667,0.0218506,-0.461182,0.874878,-0.146484
1480698699055228,0.0218506,-0.461121,0.874878,-0.146484
1480698699076785,0.0218506,-0.461121,0.874878,-0.146484
1480698699091823,0.0219116,-0.461121,0.874878,-0.146484
1480698699121903,0.0219116,-0.461121,0.874878,-0.146423
1480698699135439,0.0219116,-0.461182,0.874878,-0.146423
1480698699151984,0.0219116,-0.461182,0.874878,-0.146423
1480698699174042,0.0219116,-0.461182,0.874878,-0.146423
1480698699195098,0.0219116,-0.461182,0.874878,-0.146423
1480698699211642,0.0219116,-0.46106,0.874939,-0.146423
1480698699234202,0.0219116,-0.46106,0.874939,-0.146423
1480698699258266,0.0219116,-0.46106,0.874939,-0.146423
1480698699271809,0.0219116,-0.46106,0.874939,-0.146423
1480698699294362,0.0218506,-0.460876,0.875,-0.146423
1480698699316421,0.0219116,-0.460693,0.875122,-0.146423
1480698699331962,0.0219116,-0.460632,0.875122,-0.146423
1480698699354021,0.0219116,-0.460632,0.875122,-0.146423
1480698699377087,0.0219116,-0.460632,0.875122,-0.146423
1480698699399141,0.0219116,-0.460632,0.875183,-0.146423
1480698699421701,0.0217285,-0.460388,0.875244,-0.146545
1480698699444265,0.0217285,-0.460388,0.875244,-0.146545
1480698699451280,0.0217285,-0.460449,0.875244,-0.146484
1480698699474341,0.0217285,-0.460449,0.875244,-0.146484
1480698699504421,0.0217285,-0.460449,0.875244,-0.146484
1480698699517956,0.0217285,-0.460449,0.875244,-0.146484
1480698699534501,0.0217285,-0.46051,0.875183,-0.146484
1480698699556560,0.0217285,-0.46051,0.875183,-0.146484
1480698699572103,0.0216675,-0.460876,0.875,-0.146606
1480698699601679,0.0216064,-0.461243,0.874817,-0.146606
1480698699622735,0.0216675,-0.461243,0.874817,-0.146606
1480698699637778,0.0215454,-0.460938,0.874939,-0.146667
1480698699654320,0.0215454,-0.460938,0.874939,-0.146667
1480698699678885,0.0215454,-0.460938,0.874939,-0.146667
1480698699691418,0.0215454,-0.460938,0.874939,-0.146667
1480698699714480,0.0215454,-0.460938,0.874939,-0.146667
1480698699736538,0.0215454,-0.460938,0.874939,-0.146667
1480698699759098,0.0215454,-0.460938,0.874939,-0.146667
1480698699780157,0.0215454,-0.460938,0.874939,-0.146667
1480698699796698,0.0215454,-0.460999,0.874939,-0.146667
1480698699818256,0.0215454,-0.46106,0.874878,-0.146667
1480698699834299,0.0215454,-0.46106,0.874878,-0.146667
1480698699856858,0.0215454,-0.46106,0.874878,-0.146667
1480698699885434,0.0214844,-0.461121,0.874878,-0.146667
1480698699909498,0.0214844,-0.461121,0.874878,-0.146667
1480698699918020,0.0214233,-0.461365,0.874756,-0.146729
1480698699937573,0.0214233,-0.461365,0.874756,-0.146729
1480698699955120,0.0214233,-0.461365,0.874756,-0.146729
1480698699976679,0.0213013,-0.461487,0.874634,-0.14679
1480698699997732,0.0212402,-0.461487,0.874634,-0.14679
1480698700014276,0.0212402,-0.461487,0.874634,-0.14679
1480698700036836,0.0213013,-0.461487,0.874634,-0.14679
1480698700065414,0.0212402,-0.461487,0.874634,-0.14679
1480698700074938,0.0212402,-0.461487,0.874634,-0.14679
1480698700097999,0.0213013,-0.461548,0.874634,-0.14679
1480698700117551,0.0213013,-0.461548,0.874634,-0.14679
1480698700134597,0.0212402,-0.461548,0.874634,-0.14679
1480698700165681,0.0212402,-0.461548,0.874573,-0.14679
1480698700187237,0.0212402,-0.461609,0.874573,-0.14679
1480698700196261,0.0211792,-0.461548,0.874634,-0.14679
1480698700217316,0.0211182,-0.461243,0.874756,-0.146851
1480698700238874,0.0211182,-0.461243,0.874756,-0.146851
1480698700255418,0.0211182,-0.461243,0.874756,-0.146851
1480698700276978,0.0211182,-0.461243,0.874756,-0.146851
1480698700299034,0.0211182,-0.461243,0.874756,-0.146851
1480698700321594,0.0211182,-0.461243,0.874756,-0.146851
1480698700336634,0.0211182,-0.461243,0.874756,-0.146851
1480698700360196,0.0211182,-0.461243,0.874756,-0.146851
1480698700373732,0.0211182,-0.461243,0.874817,-0.14679
1480698700397295,0.0211182,-0.461243,0.874756,-0.14679
1480698700426873,0.0211182,-0.461243,0.874756,-0.14679
1480698700443420,0.0211182,-0.461304,0.874756,-0.14679
1480698700456954,0.0211182,-0.461304,0.874756,-0.14679
1480698700480015,0.0210571,-0.461243,0.874756,-0.14679
1480698700493552,0.0211182,-0.461243,0.874756,-0.14679
1480698700531652,0.0210571,-0.461304,0.874756,-0.14679
1480698700554213,0.0210571,-0.461304,0.874756,-0.14679
1480698700556718,0.0211792,-0.461548,0.874634,-0.146729
1480698700576775,0.0211792,-0.461548,0.874634,-0.146729
1480698700600335,0.0209961,-0.461182,0.874817,-0.14679
1480698700613370,0.0209961,-0.461182,0.874817,-0.14679
1480698700644454,0.0211182,-0.461304,0.874756,-0.14679
1480698700665508,0.0211182,-0.461304,0.874756,-0.14679
1480698700680549,0.0211182,-0.461304,0.874756,-0.14679
1480698700696591,0.0211182,-0.461304,0.874756,-0.14679
1480698700719152,0.0211182,-0.461365,0.874756,-0.14679
1480698700740207,0.0211792,-0.461243,0.874817,-0.146729
1480698700762768,0.0211792,-0.46106,0.874878,-0.146729
1480698700779814,0.0211182,-0.46106,0.874878,-0.146729
1480698700801871,0.0211182,-0.461121,0.874878,-0.146729
1480698700816410,0.0211182,-0.461121,0.874817,-0.146729
1480698700840477,0.0211182,-0.461182,0.874817,-0.146729
1480698700861028,0.0211182,-0.461182,0.874817,-0.146729
1480698700877074,0.0211182,-0.461182,0.874817,-0.146729
1480698700899131,0.0211182,-0.461121,0.874817,-0.146729
1480698700921188,0.0211182,-0.461121,0.874878,-0.146729
1480698700936731,0.0211182,-0.461121,0.874878,-0.146729
1480698700959289,0.0211182,-0.461121,0.874817,-0.146729
1480698700980345,0.0211182,-0.460999,0.874939,-0.146729
1480698700996889,0.0211182,-0.460999,0.874939,-0.146729
1480698701019450,0.0211182,-0.460999,0.874939,-0.146729
1480698701043516,0.0211792,-0.46106,0.874878,-0.146729
1480698701057050,0.0211792,-0.46106,0.874878,-0.146729
1480698701086630,0.0211182,-0.461121,0.874878,-0.146729
1480698701100164,0.0211182,-0.461121,0.874878,-0.146729
1480698701116708,0.0211182,-0.461182,0.874817,-0.146729
1480698701139771,0.0210571,-0.46106,0.874939,-0.146667
1480698701168345,0.0209961,-0.460876,0.875,-0.14679
1480698701178372,0.0209961,-0.460876,0.875,-0.14679
1480698701199428,0.0209961,-0.460876,0.875,-0.14679
1480698701221486,0.0209961,-0.460876,0.875,-0.14679
1480698701244548,0.0211792,-0.460999,0.874939,-0.146729
1480698701259087,0.0211792,-0.460999,0.874939,-0.146729
1480698701296687,0.0210571,-0.460754,0.875061,-0.14679
1480698701299193,0.0210571,-0.460693,0.875061,-0.14679
1480698701319748,0.0211792,-0.460938,0.874939,-0.14679
1480698701341807,0.0211792,-0.460999,0.874939,-0.14679
1480698701356346,0.0211792,-0.460999,0.874878,-0.14679
1480698701386927,0.0211182,-0.460754,0.875061,-0.14679
1480698701401967,0.0211182,-0.460754,0.875061,-0.14679
1480698701417007,0.0212402,-0.460999,0.874878,-0.14679
1480698701440570,0.0211792,-0.46106,0.874878,-0.14679
1480698701469146,0.0211792,-0.46106,0.874878,-0.14679
1480698701477170,0.0212402,-0.46106,0.874878,-0.14679
1480698701499726,0.0212402,-0.46106,0.874878,-0.14679
1480698701522788,0.0211792,-0.46106,0.874878,-0.14679
1480698701544346,0.0211792,-0.46106,0.874878,-0.14679
1480698701559890,0.0211792,-0.460999,0.874878,-0.14679
1480698701582447,0.0212402,-0.460999,0.874939,-0.14679
1480698701602500,0.0212402,-0.460999,0.874939,-0.14679
1480698701620549,0.0212402,-0.460999,0.874939,-0.14679
1480698701642106,0.0212402,-0.460999,0.874878,-0.14679
1480698701664165,0.0212402,-0.46106,0.874878,-0.14679
1480698701685220,0.0212402,-0.46106,0.874878,-0.14679
1480698701701764,0.0211792,-0.461121,0.874878,-0.14679
1480698701722819,0.0211792,-0.461304,0.874756,-0.146851
1480698701739365,0.0211792,-0.461365,0.874695,-0.146851
1480698701761924,0.0211792,-0.461365,0.874695,-0.14679
1480698701782981,0.0211182,-0.461121,0.874817,-0.146851
1480698701799023,0.0210571,-0.461121,0.874817,-0.146851
1480698701822585,0.0210571,-0.461121,0.874817,-0.146851
1480698701843650,0.0211182,-0.461182,0.874817,-0.146912
1480698701859183,0.0211792,-0.461182,0.874817,-0.146851
1480698701881743,0.0211792,-0.461182,0.874817,-0.146851
1480698701902799,0.0211792,-0.461243,0.874756,-0.146851
1480698701920846,0.0212402,-0.461426,0.874695,-0.146851
1480698701942907,0.0212402,-0.461426,0.874695,-0.146851
1480698701963460,0.0212402,-0.461426,0.874695,-0.146851
1480698701980004,0.0212402,-0.461487,0.874634,-0.146851
1480698702001561,0.0212402,-0.461487,0.874634,-0.146851
1480698702022617,0.0211792,-0.461548,0.874634,-0.146851
1480698702039664,0.0211792,-0.461548,0.874573,-0.146851
1480698702063226,0.0211792,-0.461609,0.874573,-0.146851
1480698702084281,0.0211182,-0.461487,0.874634,-0.146912
1480698702099822,0.0211182,-0.461487,0.874634,-0.146912
1480698702121881,0.0211182,-0.461487,0.874634,-0.146912
1480698702150458,0.0211182,-0.461548,0.874634,-0.146912
1480698702159482,0.0211182,-0.461487,0.874634,-0.146912
1480698702195076,0.0211792,-0.461365,0.874756,-0.14679
1480698702204602,0.0211792,-0.461304,0.874756,-0.14679
1480698702218639,0.0211792,-0.461304,0.874756,-0.14679
1480698702241700,0.0211792,-0.461304,0.874756,-0.14679
1480698702264761,0.0212402,-0.461365,0.874756,-0.14679
1480698702278799,0.0211792,-0.461243,0.874756,-0.14679
1480698702301860,0.0211792,-0.461304,0.874756,-0.14679
1480698702324420,0.0211792,-0.461304,0.874756,-0.14679
1480698702338959,0.0211792,-0.461365,0.874756,-0.14679
1480698702361519,0.0211792,-0.461365,0.874695,-0.14679
1480698702384079,0.0211792,-0.461121,0.874817,-0.146851
1480698702398617,0.0212402,-0.460938,0.874939,-0.146851
1480698702421679,0.0212402,-0.460938,0.874939,-0.146851
1480698702444239,0.0214233,-0.460876,0.874939,-0.146912
1480698702474319,0.0216064,-0.460632,0.875061,-0.146912
1480698702481838,0.0216064,-0.460327,0.875244,-0.147034
1480698702505402,0.0216675,-0.460144,0.875305,-0.147034
1480698702519940,0.0217896,-0.459839,0.875488,-0.146973
1480698702543506,0.0219727,-0.459595,0.87561,-0.146912
1480698702564057,0.0219727,-0.459595,0.87561,-0.146912
1480698702585112,0.0219727,-0.459595,0.87561,-0.146912
1480698702603161,0.0220947,-0.459473,0.875671,-0.146973
1480698702624217,0.0221558,-0.45929,0.875732,-0.147034
1480698702645273,0.0221558,-0.459351,0.875732,-0.147034
1480698702661817,0.0221558,-0.459351,0.875732,-0.147034
1480698702684377,0.0221558,-0.459351,0.875671,-0.147034
1480698702705937,0.0221558,-0.459045,0.875854,-0.147095
1480698702729497,0.0220947,-0.459045,0.875854,-0.147095
1480698702753561,0.0220947,-0.459045,0.875854,-0.147095
1480698702774116,0.0221558,-0.459045,0.875854,-0.147095
1480698702782137,0.0221558,-0.45874,0.876038,-0.147156
1480698702805199,0.0221558,-0.45874,0.876038,-0.147156
1480698702825251,0.0221558,-0.458679,0.876038,-0.147156
1480698702843301,0.0221558,-0.458679,0.876038,-0.147156
1480698702864355,0.0221558,-0.45874,0.876038,-0.147156
1480698702885411,0.0222168,-0.45874,0.876038,-0.147156
1480698702901956,0.0222168,-0.45874,0.875977,-0.147156
1480698702930532,0.0222168,-0.458801,0.875977,-0.147095
1480698702945069,0.0222168,-0.458801,0.875977,-0.147095
1480698702961614,0.0222168,-0.458801,0.875977,-0.147095
1480698702984174,0.0222168,-0.458801,0.875977,-0.147095
1480698703007737,0.0222168,-0.458862,0.875977,-0.147095
1480698703029796,0.0222168,-0.458862,0.875977,-0.147095
1480698703053361,0.0222168,-0.458862,0.875977,-0.147095
1480698703074415,0.0222168,-0.458862,0.875977,-0.147095
1480698703097476,0.0222168,-0.458801,0.875977,-0.147095
1480698703104495,0.0222168,-0.458801,0.875977,-0.147095
1480698703126556,0.0222168,-0.458801,0.875977,-0.147095
1480698703143099,0.0222778,-0.458801,0.875977,-0.147095
1480698703165156,0.0222778,-0.458801,0.875977,-0.147095
1480698703188220,0.0222778,-0.458801,0.875977,-0.147095
1480698703216793,0.0223999,-0.459045,0.875854,-0.147095
1480698703225315,0.0223999,-0.459045,0.875854,-0.147095
1480698703254393,0.0222778,-0.459045,0.875854,-0.147034
1480698703260910,0.0222778,-0.459045,0.875854,-0.147034
1480698703307534,0.0222168,-0.459412,0.875671,-0.146973
1480698703310042,0.0222168,-0.459656,0.875549,-0.146973
1480698703330093,0.0220337,-0.459534,0.87561,-0.146973
1480698703350147,0.0220337,-0.459534,0.87561,-0.146973
1480698703367192,0.0220337,-0.459534,0.87561,-0.146973
1480698703381230,0.0220947,-0.459717,0.875488,-0.146973
1480698703404292,0.0220947,-0.459717,0.875549,-0.146973
1480698703426852,0.0220947,-0.459717,0.875549,-0.146973
1480698703440889,0.0220947,-0.459717,0.875549,-0.146973
1480698703464452,0.0220947,-0.459717,0.875549,-0.146973
1480698703494030,0.0221558,-0.459717,0.875549,-0.146973
1480698703515086,0.0221558,-0.459717,0.875549,-0.146973
1480698703524110,0.0220947,-0.459717,0.875549,-0.146973
1480698703547674,0.0220947,-0.459717,0.875549,-0.146973
1480698703575246,0.0220947,-0.459717,0.875549,-0.146973
1480698703584270,0.0221558,-0.459778,0.875488,-0.146973
1480698703606831,0.0221558,-0.459778,0.875488,-0.146973
1480698703627886,0.0220337,-0.460022,0.875366,-0.146973
1480698703644430,0.0219116,-0.460449,0.875183,-0.146912
1480698703666489,0.0218506,-0.460632,0.875122,-0.14679
1480698703687544,0.0218506,-0.460571,0.875122,-0.14679
1480698703710105,0.0218506,-0.460571,0.875122,-0.14679
1480698703726649,0.0217896,-0.460693,0.875061,-0.146851
1480698703747704,0.0217896,-0.460876,0.874939,-0.14679
1480698703771769,0.0217896,-0.460876,0.874939,-0.14679
1480698703794328,0.0218506,-0.460938,0.874939,-0.14679
1480698703807864,0.0217896,-0.460938,0.874939,-0.14679
1480698703839952,0.0217896,-0.460938,0.874939,-0.14679
1480698703864014,0.0218506,-0.460938,0.874939,-0.14679
1480698703869528,0.0218506,-0.460999,0.874878,-0.14679
1480698703884067,0.0217285,-0.460938,0.874939,-0.14679
1480698703907129,0.0217285,-0.460938,0.874939,-0.14679
1480698703927683,0.0217285,-0.460938,0.874939,-0.14679
1480698703944729,0.0217285,-0.460999,0.874939,-0.14679
1480698703974312,0.0217285,-0.460876,0.874939,-0.146851
1480698703989347,0.0216675,-0.460693,0.875061,-0.146912
1480698704003886,0.0216675,-0.460693,0.875061,-0.146912
1480698704026947,0.0217896,-0.460938,0.874939,-0.146912
1480698704050008,0.0217896,-0.460938,0.874939,-0.146851
1480698704072067,0.0217285,-0.460693,0.875061,-0.146912
1480698704094126,0.0217285,-0.460632,0.875061,-0.146912
1480698704115181,0.0217285,-0.460693,0.875061,-0.146912
1480698704134232,0.0217285,-0.460693,0.875061,-0.146912
1480698704148770,0.0217285,-0.460693,0.875,-0.146912
1480698704171332,0.0217285,-0.460754,0.875,-0.146912
1480698704183864,0.0217285,-0.460754,0.875,-0.146912
1480698704207428,0.0217285,-0.460815,0.875,-0.146912
1480698704236504,0.0217285,-0.460815,0.874939,-0.146912
1480698704245027,0.0216675,-0.460876,0.874939,-0.146912
1480698704268088,0.0216675,-0.460876,0.874939,-0.146912
1480698704289645,0.0216675,-0.460876,0.874939,-0.146912
1480698704305188,0.0216675,-0.460876,0.874939,-0.146912
1480698704326744,0.0216675,-0.460876,0.874939,-0.146912
1480698704349304,0.0216675,-0.460876,0.874939,-0.146912
1480698704370862,0.0216675,-0.460876,0.874939,-0.146912
1480698704386905,0.0216675,-0.460876,0.874939,-0.146912
1480698704409468,0.0216675,-0.460876,0.874939,-0.146912
1480698704423502,0.0216675,-0.460876,0.874939,-0.146912
1480698704446565,0.0216675,-0.460876,0.874939,-0.146912
1480698704469123,0.0216675,-0.460938,0.874939,-0.146912
1480698704490178,0.0216675,-0.460938,0.874878,-0.146912
1480698704506723,0.0216675,-0.460999,0.874878,-0.146912
1480698704530286,0.0216064,-0.461304,0.874695,-0.146973
1480698704550339,0.0216064,-0.461365,0.874695,-0.146973
1480698704566883,0.0216064,-0.461365,0.874634,-0.146973
1480698704589443,0.0216064,-0.461243,0.874756,-0.146973
1480698704617517,0.0215454,-0.461243,0.874756,-0.146973
1480698704628045,0.0215454,-0.461243,0.874756,-0.146973
1480698704649101,0.0216675,-0.461365,0.874695,-0.146912
1480698704670157,0.0217285,-0.461426,0.874634,-0.146912
1480698704686702,0.0217285,-0.461426,0.874634,-0.146912
1480698704709264,0.0217285,-0.461426,0.874634,-0.146912
1480698704737839,0.0217285,-0.461426,0.874634,-0.146912
1480698704748867,0.0217285,-0.461426,0.874634,-0.146912
1480698704769422,0.0217285,-0.461426,0.874634,-0.146912
1480698704790478,0.0217285,-0.461487,0.874634,-0.146912
1480698704807022,0.0217285,-0.461487,0.874634,-0.146912
1480698704829080,0.0216675,-0.461548,0.874573,-0.146912
1480698704858659,0.0216675,-0.461609,0.874573,-0.146912
1480698704866680,0.0216675,-0.461609,0.874573,-0.146912
1480698704889240,0.0216675,-0.461609,0.874512,-0.146912
1480698704918317,0.0216675,-0.46167,0.874512,-0.146912
1480698704928344,0.0216675,-0.46167,0.874512,-0.146912
1480698704949400,0.0216675,-0.46167,0.874512,-0.146912
1480698704971961,0.0216675,-0.46167,0.874512,-0.146912
1480698704987000,0.0216675,-0.46167,0.874512,-0.146912
1480698705009564,0.0216675,-0.46167,0.874512,-0.146912
1480698705031619,0.0216675,-0.46167,0.874512,-0.146912
1480698705048665,0.0216675,-0.46167,0.874512,-0.146912
1480698705069219,0.0216675,-0.46167,0.874512,-0.146912
1480698705091779,0.0216675,-0.461731,0.874512,-0.146912
1480698705106320,0.0215454,-0.461609,0.874573,-0.147034
1480698705138403,0.0215454,-0.461609,0.874512,-0.147034
1480698705159459,0.0215454,-0.46167,0.874512,-0.147034
1480698705165976,0.0215454,-0.46167,0.874512,-0.147034
1480698705189037,0.0214844,-0.461731,0.874512,-0.147034
1480698705211597,0.0214844,-0.461731,0.874451,-0.147034
1480698705226136,0.0214844,-0.461731,0.874451,-0.147034
1480698705249197,0.0214233,-0.461426,0.874634,-0.147034
1480698705272268,0.0214844,-0.460938,0.874878,-0.147156
1480698705286296,0.0216064,-0.46051,0.875061,-0.147217
1480698705309363,0.0216675,-0.46051,0.875061,-0.147156
1480698705334424,0.0216675,-0.460571,0.875061,-0.147156
1480698705346957,0.0216064,-0.460449,0.875122,-0.147217
1480698705369021,0.0216064,-0.46051,0.875061,-0.147217
1480698705391576,0.0217285,-0.460754,0.874939,-0.147156
1480698705413133,0.0217285,-0.460754,0.874939,-0.147156
1480698705444717,0.0216675,-0.460815,0.874939,-0.147156
1480698705451736,0.0216675,-0.460815,0.874939,-0.147156
1480698705472793,0.0216675,-0.460876,0.874939,-0.147156
1480698705489336,0.0216675,-0.460876,0.874878,-0.147156
1480698705519416,0.0216675,-0.460876,0.874878,-0.147156
1480698705534456,0.0216675,-0.460876,0.874878,-0.147156
1480698705549495,0.0216675,-0.460938,0.874878,-0.147156
1480698705571555,0.0216675,-0.460938,0.874878,-0.147156
1480698705592614,0.0217285,-0.46106,0.874817,-0.147156
1480698705616675,0.0217285,-0.46106,0.874817,-0.147095
1480698705631715,0.0217896,-0.460999,0.874817,-0.147095
1480698705652770,0.0216675,-0.460754,0.874939,-0.147156
1480698705669315,0.0216675,-0.460754,0.874939,-0.147217
1480698705691874,0.0216675,-0.460815,0.874939,-0.147156
1480698705713432,0.0216675,-0.460815,0.874939,-0.147156
1480698705728972,0.0216675,-0.460815,0.874939,-0.147156
1480698705758551,0.0215454,-0.460815,0.874939,-0.147217
1480698705772592,0.0214844,-0.460754,0.874939,-0.147217
1480698705802669,0.0214844,-0.460754,0.874939,-0.147217
1480698705817709,0.0214844,-0.460815,0.874939,-0.147217
1480698705834754,0.0213623,-0.460571,0.875061,-0.147217
1480698705849293,0.0212402,-0.460388,0.875183,-0.147217
1480698705872355,0.0211182,-0.460083,0.875305,-0.147156
1480698705894413,0.0209961,-0.459717,0.875549,-0.147156
1480698705909455,0.0209961,-0.459656,0.875549,-0.147156
1480698705931511,0.0209961,-0.459717,0.875549,-0.147156
1480698705955575,0.0209961,-0.45929,0.875732,-0.147156
1480698705978135,0.0209351,-0.458923,0.875916,-0.147278
1480698705991675,0.0209351,-0.458923,0.875916,-0.147278
1480698706014232,0.0211792,-0.459229,0.875793,-0.147278
1480698706028770,0.0215454,-0.45929,0.875732,-0.147278
1480698706052835,0.0214844,-0.459106,0.875854,-0.147278
1480698706074392,0.0214844,-0.459412,0.875671,-0.147339
1480698706088429,0.0216675,-0.4599,0.875366,-0.147339
1480698706111991,0.0216675,-0.4599,0.875366,-0.147339
1480698706134050,0.0216064,-0.4599,0.875366,-0.147339
1480698706148589,0.0216064,-0.4599,0.875366,-0.147339
1480698706172654,0.0216064,-0.4599,0.875366,-0.147339
1480698706194712,0.0218506,-0.459961,0.875305,-0.1474
1480698706215266,0.0222168,-0.460022,0.875305,-0.1474
1480698706231810,0.0223999,-0.4599,0.875366,-0.147461
1480698706254370,0.022583,-0.459961,0.875305,-0.147522
1480698706270914,0.0227661,-0.460266,0.875122,-0.147583
1480698706291972,0.0227661,-0.460327,0.875122,-0.147583
1480698706314032,0.022522,-0.460144,0.875183,-0.147644
1480698706335085,0.022522,-0.460144,0.875183,-0.147644
1480698706352130,0.0223389,-0.460083,0.875244,-0.147583
1480698706374189,0.0220947,-0.460083,0.875244,-0.147522
1480698706402765,0.0217285,-0.4599,0.875366,-0.147583
1480698706411789,0.0214233,-0.459656,0.875488,-0.147522
1480698706441869,0.0211792,-0.459412,0.87561,-0.147461
1480698706455405,0.0209351,-0.45929,0.875732,-0.1474
1480698706471949,0.0209961,-0.45929,0.875732,-0.1474
1480698706494007,0.020874,-0.459473,0.875671,-0.147217
1480698706515064,0.020813,-0.459595,0.87561,-0.146973
1480698706531608,0.0205078,-0.459778,0.87561,-0.14679
1480698706556172,0.0202026,-0.4599,0.875549,-0.146484
1480698706575225,0.0198364,-0.4599,0.87561,-0.146362
1480698706592270,0.0193481,-0.459534,0.875793,-0.146179
1480698706614328,0.019104,-0.459534,0.875854,-0.146118
1480698706635383,0.0189209,-0.459839,0.875732,-0.145935
1480698706659448,0.0184937,-0.459717,0.875854,-0.145691
1480698706681506,0.0180054,-0.45929,0.876099,-0.145447
1480698706703064,0.0179443,-0.45929,0.876099,-0.145447
1480698706712087,0.0183105,-0.459534,0.875916,-0.145569
1480698706734146,0.0184937,-0.4599,0.875732,-0.145752
1480698706762721,0.0187378,-0.460266,0.875488,-0.145752
1480698706771746,0.0189819,-0.460144,0.87561,-0.145691
1480698706794306,0.0192261,-0.460144,0.875549,-0.145874
1480698706816866,0.0195923,-0.460144,0.875549,-0.145813
1480698706831906,0.0197754,-0.460266,0.875488,-0.145874
1480698706853965,0.0200195,-0.460388,0.875366,-0.145935
1480698706888055,0.0200195,-0.460388,0.875366,-0.145935
1480698706892068,0.0200195,-0.460388,0.875366,-0.145935
1480698706914628,0.0200195,-0.460388,0.875366,-0.145935
1480698706936685,0.0200195,-0.460388,0.875366,-0.145935
1480698706959247,0.0200806,-0.460449,0.875366,-0.145874
1480698706990327,0.0200806,-0.460449,0.875366,-0.145874
1480698706998850,0.0200195,-0.46051,0.875366,-0.145935
1480698707020408,0.0200195,-0.46051,0.875366,-0.145874
1480698707034444,0.0199585,-0.460938,0.875122,-0.145874
1480698707059014,0.0198975,-0.460938,0.875122,-0.145874
1480698707072546,0.0199585,-0.460938,0.875122,-0.145874
1480698707102626,0.0199585,-0.460999,0.875122,-0.145874
1480698707124685,0.0199585,-0.460999,0.875122,-0.145874
1480698707131203,0.0199585,-0.460999,0.875122,-0.145813
1480698707154263,0.0200195,-0.460999,0.875122,-0.145813
1480698707184343,0.0200195,-0.460938,0.875122,-0.145813
1480698707190861,0.0200195,-0.460938,0.875122,-0.145813
1480698707214423,0.0200195,-0.460938,0.875122,-0.145813
1480698707236983,0.0199585,-0.460938,0.875122,-0.145874
1480698707251522,0.0200195,-0.460938,0.875122,-0.145813
1480698707289121,0.0198364,-0.46051,0.875366,-0.145813
1480698707296641,0.0198364,-0.46051,0.875366,-0.145813
1480698707317698,0.0198364,-0.460571,0.875366,-0.145813
1480698707334242,0.0198364,-0.460571,0.875305,-0.145813
1480698707357303,0.0198364,-0.460632,0.875305,-0.145813
1480698707377858,0.0198364,-0.460632,0.875305,-0.145813
1480698707395405,0.0198364,-0.460693,0.875244,-0.145752
1480698707416962,0.0198364,-0.460693,0.875305,-0.145752
1480698707445037,0.0197754,-0.460693,0.875305,-0.145691
1480698707454061,0.0195313,-0.46106,0.875122,-0.145691
1480698707478625,0.0189819,-0.460815,0.875244,-0.145447
1480698707497677,0.0177612,-0.459961,0.875854,-0.144836
1480698707514221,0.0163574,-0.458679,0.876648,-0.144287
1480698707536780,0.0161743,-0.457764,0.877075,-0.14447
1480698707559340,0.0164795,-0.458069,0.876953,-0.144531
1480698707589421,0.0167236,-0.458313,0.87677,-0.144531
1480698707596940,0.0168457,-0.458801,0.876526,-0.144653
1480698707617996,0.0169067,-0.459167,0.876343,-0.144531
1480698707635042,0.0169678,-0.459167,0.876343,-0.144531
1480698707656599,0.0169678,-0.459229,0.876343,-0.144531
1480698707678156,0.0170898,-0.459473,0.87616,-0.144653
1480698707701719,0.0172729,-0.459656,0.876038,-0.144836
1480698707718263,0.0178223,-0.460022,0.875793,-0.145142
1480698707739319,0.0187988,-0.460327,0.875488,-0.145569
1480698707753858,0.0195313,-0.460693,0.875244,-0.146057
1480698707776918,0.0200195,-0.460754,0.875122,-0.146301
1480698707805496,0.0202026,-0.460754,0.875122,-0.14624
1480698707830060,0.0203247,-0.460754,0.875183,-0.146118
1480698707838082,0.0203247,-0.460754,0.875183,-0.146118
1480698707860641,0.0205078,-0.460815,0.875061,-0.146301
1480698707874178,0.0209351,-0.460999,0.875,-0.146362
1480698707896737,0.0209351,-0.460999,0.875,-0.146362
1480698707919799,0.0206299,-0.461182,0.874939,-0.146301
1480698707934338,0.0203247,-0.461304,0.874878,-0.14624
1480698707957399,0.0203247,-0.461365,0.874817,-0.14624
1480698707979458,0.0200195,-0.461304,0.874817,-0.146362
1480698707994999,0.0200195,-0.461365,0.874817,-0.146362
1480698708024077,0.0197754,-0.461426,0.874817,-0.146179
1480698708047639,0.0192261,-0.460999,0.875061,-0.146057
1480698708071202,0.0187988,-0.460083,0.875549,-0.145935
1480698708076716,0.0184937,-0.459412,0.875977,-0.145935
1480698708106796,0.0187378,-0.459106,0.876099,-0.145996
1480698708113815,0.019043,-0.45929,0.875977,-0.146118
1480698708136876,0.0188599,-0.459412,0.875916,-0.146057
1480698708159939,0.0189209,-0.459473,0.875916,-0.146057
1480698708173975,0.0192871,-0.459534,0.875854,-0.145813
1480698708196535,0.0195313,-0.459595,0.875854,-0.145935
1480698708233634,0.0197144,-0.459717,0.875793,-0.145996
1480698708240154,0.0198975,-0.460022,0.875549,-0.146118
1480698708256694,0.0202637,-0.460388,0.875366,-0.146118
1480698708279255,0.0202637,-0.460449,0.875305,-0.146118
1480698708299810,0.0203857,-0.460388,0.875366,-0.14624
1480698708324376,0.0203857,-0.460388,0.875366,-0.14624
1480698708345431,0.0203247,-0.460632,0.875244,-0.146057
1480698708361473,0.0203247,-0.460632,0.875244,-0.146057
1480698708376513,0.0203247,-0.460632,0.875244,-0.146057
1480698708400076,0.0203247,-0.460632,0.875244,-0.145996
1480698708421639,0.0201416,-0.460571,0.875305,-0.145935
1480698708436673,0.0197754,-0.460144,0.875488,-0.146057
1480698708467254,0.0197754,-0.460266,0.875488,-0.145996
1480698708484803,0.0196533,-0.460449,0.875366,-0.145935
1480698708498337,0.0192871,-0.459839,0.875732,-0.145813
1480698708521398,0.0189209,-0.459229,0.876038,-0.145813
1480698708540951,0.0189209,-0.458923,0.876221,-0.145874
1480698708557996,0.0189209,-0.458801,0.876282,-0.145813
1480698708579052,0.019043,-0.45874,0.876282,-0.145874
1480698708601612,0.0192871,-0.458801,0.876221,-0.145996
1480698708624673,0.0195313,-0.45874,0.876282,-0.145996
1480698708639213,0.0197144,-0.458679,0.876282,-0.146057
1480698708660769,0.0200806,-0.458984,0.876038,-0.146423
1480698708676811,0.0205078,-0.459412,0.875793,-0.146667
1480698708699873,0.0209351,-0.459778,0.875549,-0.14679
1480698708721431,0.0210571,-0.459473,0.875732,-0.146729
1480698708742989,0.0210571,-0.459229,0.875854,-0.146606
1480698708759030,0.0211182,-0.459229,0.875854,-0.146606
1480698708782593,0.0211182,-0.459167,0.875916,-0.146606
1480698708797132,0.0210571,-0.459412,0.875793,-0.146606
1480698708826711,0.020813,-0.459717,0.87561,-0.146606
1480698708849271,0.0205688,-0.459473,0.875732,-0.146545
1480698708856289,0.0201416,-0.459045,0.876038,-0.14624
1480698708880854,0.0197754,-0.458496,0.876343,-0.14624
1480698708901911,0.0195923,-0.458191,0.876465,-0.146362
1480698708915948,0.0197144,-0.45813,0.876465,-0.146545
1480698708954049,0.0200195,-0.457886,0.876587,-0.146667
1480698708962574,0.0200806,-0.457397,0.87677,-0.146851
1480698708985132,0.0202637,-0.457458,0.87677,-0.147034
1480698708999170,0.0205688,-0.457642,0.876648,-0.147095
1480698709022230,0.0209351,-0.457581,0.876648,-0.147095
1480698709036268,0.0211792,-0.45752,0.876648,-0.147339
1480698709059332,0.0215454,-0.457703,0.876526,-0.1474
1480698709081388,0.0218506,-0.457764,0.876465,-0.147583
1480698709111469,0.0218506,-0.457458,0.876648,-0.1474
1480698709133025,0.0218506,-0.457458,0.876648,-0.1474
1480698709141549,0.0219116,-0.457764,0.876465,-0.147583
1480698709156086,0.0221558,-0.458008,0.876282,-0.147644
1480698709180153,0.0221558,-0.458069,0.876282,-0.147644
1480698709202712,0.0221558,-0.458069,0.876282,-0.147644
1480698709222764,0.0221558,-0.458069,0.876282,-0.147583
1480698709240813,0.0221558,-0.45813,0.876282,-0.147583
1480698709262870,0.0221558,-0.45813,0.876282,-0.147583
1480698709282924,0.0221558,-0.45813,0.876282,-0.147583
1480698709298966,0.0221558,-0.45813,0.876282,-0.147583
1480698709321526,0.0221558,-0.45813,0.876282,-0.147583
1480698709343084,0.0221558,-0.458069,0.876282,-0.147583
1480698709363137,0.0221558,-0.458069,0.876282,-0.147583
1480698709389206,0.0221558,-0.458069,0.876282,-0.147583
1480698709411767,0.0222168,-0.458069,0.876282,-0.147583
1480698709432822,0.0222168,-0.45813,0.876282,-0.147583
1480698709442351,0.0221558,-0.457886,0.876343,-0.147583
1480698709463404,0.0221558,-0.457947,0.876343,-0.147583
1480698709479446,0.0221558,-0.457947,0.876343,-0.147583
1480698709502006,0.0221558,-0.458008,0.876343,-0.147583
1480698709530084,0.0221558,-0.458008,0.876343,-0.147583
1480698709545623,0.0221558,-0.458069,0.876282,-0.147583
1480698709562667,0.0220337,-0.458008,0.876343,-0.147583
1480698709583723,0.0218506,-0.457886,0.876404,-0.147705
1480698709622326,0.0217896,-0.457886,0.876404,-0.147705
1480698709624835,0.0218506,-0.457886,0.876404,-0.147644
1480698709645388,0.0218506,-0.457886,0.876404,-0.147644
1480698709658424,0.0217896,-0.457458,0.876587,-0.147766
1480698709689505,0.0216064,-0.457153,0.87677,-0.147644
1480698709712065,0.0213623,-0.457642,0.876526,-0.147644
1480698709720587,0.0213623,-0.457703,0.876465,-0.147644
1480698709742145,0.0214233,-0.457214,0.87677,-0.147522
1480698709771725,0.0213623,-0.45697,0.876892,-0.147522
1480698709779745,0.0213013,-0.45697,0.876892,-0.147522
1480698709802305,0.0214844,-0.457275,0.876709,-0.147583
1480698709824867,0.0216675,-0.457642,0.876526,-0.147522
1480698709859958,0.0216675,-0.457703,0.876526,-0.147461
1480698709878005,0.0216675,-0.457703,0.876526,-0.147461
1480698709884523,0.0216675,-0.457703,0.876526,-0.147522
1480698709899564,0.0216064,-0.457947,0.876404,-0.147522
1480698709922624,0.0216064,-0.457947,0.876404,-0.147522
1480698709944182,0.0214233,-0.457703,0.876526,-0.147583
1480698709959222,0.0215454,-0.457825,0.876465,-0.147522
1480698709987797,0.0216675,-0.45813,0.876282,-0.147461
1480698710010358,0.0217285,-0.45813,0.876282,-0.147461
1480698710018380,0.0216675,-0.457886,0.876404,-0.1474
1480698710042945,0.0216675,-0.457886,0.876404,-0.1474
1480698710065505,0.0216064,-0.45813,0.876282,-0.1474
1480698710085057,0.0215454,-0.458191,0.876282,-0.1474
1480698710109121,0.0216064,-0.458191,0.876282,-0.1474
1480698710124161,0.0216675,-0.458496,0.876099,-0.1474
1480698710145216,0.0216675,-0.458557,0.876099,-0.147339
1480698710175302,0.0216675,-0.458557,0.876099,-0.147339
1480698710185323,0.0216675,-0.458557,0.876099,-0.147339
1480698710212896,0.0216675,-0.458557,0.876099,-0.1474
1480698710221920,0.0216675,-0.458557,0.876099,-0.147339
1480698710244480,0.0216675,-0.458557,0.876099,-0.147339
1480698710267040,0.0216675,-0.458557,0.876099,-0.147339
1480698710282582,0.0216675,-0.458496,0.876099,-0.147339
1480698710310155,0.0217896,-0.458618,0.876038,-0.1474
1480698710325696,0.0219116,-0.458801,0.875916,-0.147461
1480698710343744,0.0219116,-0.458801,0.875916,-0.147461
1480698710365302,0.0219116,-0.458801,0.875916,-0.147461
1480698710385355,0.0219116,-0.458862,0.875916,-0.147461
1480698710402902,0.0219116,-0.458923,0.875916,-0.147461
1480698710433483,0.0219116,-0.458923,0.875854,-0.147461
1480698710463062,0.0219116,-0.458984,0.875854,-0.147461
1480698710467574,0.0219116,-0.458984,0.875854,-0.147461
1480698710490635,0.0219116,-0.459045,0.875793,-0.147461
1480698710512693,0.0219116,-0.459045,0.875793,-0.147461
1480698710521718,0.0219116,-0.459045,0.875793,-0.147461
1480698710546283,0.0219116,-0.459045,0.875793,-0.147461
1480698710566840,0.0218506,-0.459229,0.875671,-0.147461
1480698710581879,0.0218506,-0.459534,0.875549,-0.147461
1480698710611958,0.0219116,-0.459534,0.875549,-0.147461
1480698710626998,0.0217285,-0.45929,0.875671,-0.147522
1480698710644043,0.0217285,-0.45929,0.875671,-0.147522
1480698710665099,0.0217285,-0.45929,0.875671,-0.147522
1480698710687658,0.0217896,-0.459351,0.875671,-0.147522
1480698710709718,0.0217896,-0.459351,0.87561,-0.147522
1480698710724257,0.0217896,-0.459412,0.87561,-0.147522
1480698710752833,0.0217896,-0.459473,0.87561,-0.147522
1480698710775395,0.0217285,-0.459473,0.875549,-0.147522
1480698710791937,0.0217285,-0.459473,0.875549,-0.147522
1480698710807479,0.0217285,-0.459534,0.875549,-0.147522
1480698710821013,0.0217285,-0.459534,0.875549,-0.147522
1480698710845580,0.0217285,-0.459534,0.875549,-0.147522
1480698710874156,0.0217285,-0.459595,0.875549,-0.147522
1480698710895712,0.0217285,-0.459595,0.875549,-0.147522
1480698710907243,0.0217285,-0.459534,0.875549,-0.147522
1480698710926795,0.0217285,-0.459534,0.875549,-0.147522
1480698710948352,0.0217285,-0.459534,0.875549,-0.147522
1480698710964395,0.0217285,-0.459534,0.875549,-0.147522
1480698710987958,0.0217896,-0.459473,0.87561,-0.147461
1480698711000992,0.0217896,-0.459412,0.87561,-0.147583
1480698711031573,0.0217896,-0.459412,0.87561,-0.147583
1480698711054134,0.0217896,-0.459412,0.87561,-0.147583
1480698711076694,0.0217285,-0.459473,0.875549,-0.147583
1480698711097749,0.0217896,-0.459473,0.875549,-0.147583
1480698711106774,0.0217896,-0.459534,0.875549,-0.147583
1480698711127830,0.0217285,-0.459534,0.875549,-0.147583
1480698711144374,0.0217285,-0.459534,0.875549,-0.147583
1480698711166933,0.0217285,-0.459534,0.875549,-0.147583
1480698711188992,0.0217285,-0.459595,0.875488,-0.147583
1480698711204032,0.0217285,-0.459534,0.875549,-0.147583
1480698711226592,0.0217285,-0.459534,0.875549,-0.147583
1480698711247648,0.0217896,-0.459595,0.875488,-0.147583
1480698711264192,0.0217285,-0.459412,0.87561,-0.147461
1480698711287254,0.0217285,-0.459167,0.875793,-0.1474
1480698711307810,0.0217285,-0.459167,0.875793,-0.1474
1480698711324353,0.0216675,-0.45929,0.875671,-0.147461
1480698711352928,0.0219116,-0.459778,0.875427,-0.147461
1480698711370977,0.0219727,-0.459839,0.875366,-0.1474
1480698711390532,0.0217896,-0.459656,0.875488,-0.147461
1480698711407073,0.0217896,-0.459656,0.875488,-0.147461
1480698711427627,0.0217285,-0.459717,0.875488,-0.147461
1480698711444171,0.0217285,-0.459717,0.875427,-0.147461
1480698711467736,0.0217285,-0.459717,0.875427,-0.147461
1480698711487786,0.0217285,-0.459717,0.875427,-0.147461
1480698711505334,0.0216675,-0.459534,0.875549,-0.1474
1480698711526890,0.0216675,-0.459534,0.875549,-0.1474
1480698711547949,0.0218506,-0.459717,0.875488,-0.1474
1480698711571510,0.0218506,-0.459717,0.875427,-0.1474
1480698711586549,0.0218506,-0.459717,0.875427,-0.1474
1480698711609110,0.0218506,-0.459778,0.875427,-0.1474
1480698711624150,0.0218506,-0.460144,0.875244,-0.147461
1480698711654229,0.0218506,-0.460144,0.875244,-0.147461
1480698711676790,0.0218506,-0.460205,0.875183,-0.147461
1480698711684309,0.0217285,-0.460144,0.875244,-0.147461
1480698711706870,0.0217285,-0.460144,0.875244,-0.147461
1480698711729429,0.0217285,-0.460205,0.875183,-0.147461
1480698711743467,0.0217285,-0.460205,0.875183,-0.147461
1480698711766528,0.0217285,-0.460205,0.875183,-0.147461
1480698711797109,0.0217285,-0.460205,0.875183,-0.147461
1480698711805132,0.0217285,-0.460205,0.875183,-0.147461
1480698711826687,0.0217285,-0.460205,0.875183,-0.147461
1480698711850752,0.0217285,-0.459961,0.875305,-0.147461
1480698711864790,0.0217285,-0.459961,0.875366,-0.147461
1480698711871307,0.0217285,-0.459961,0.875366,-0.147461
1480698711911414,0.0217285,-0.459961,0.875305,-0.147461
1480698711915925,0.0216675,-0.459961,0.875305,-0.147583
1480698711932470,0.0214233,-0.459656,0.875427,-0.147827
1480698711955029,0.0213013,-0.4599,0.875244,-0.147949
1480698711982603,0.0213623,-0.460144,0.875122,-0.147949
1480698711991128,0.0213623,-0.460205,0.875122,-0.147949
1480698712012181,0.0210571,-0.460144,0.875183,-0.147888
1480698712034741,0.0203857,-0.460449,0.875,-0.147888
1480698712051285,0.0200195,-0.460693,0.874939,-0.147766
1480698712072342,0.0200195,-0.461243,0.874634,-0.147705
1480698712095904,0.0200195,-0.461243,0.874634,-0.147705
1480698712110944,0.0200195,-0.461243,0.874634,-0.147705
1480698712139523,0.0196533,-0.461243,0.874695,-0.147644
1480698712164586,0.0187378,-0.460693,0.875,-0.147583
1480698712185643,0.0176392,-0.459045,0.875916,-0.147278
1480698712192160,0.0167236,-0.457642,0.876648,-0.147278
1480698712214721,0.0165405,-0.456299,0.877258,-0.147827
1480698712233269,0.0168457,-0.455505,0.877625,-0.148254
1480698712259840,0.0169678,-0.455811,0.877441,-0.148376
1480698712274884,0.017395,-0.456543,0.877014,-0.148499
1480698712296938,0.0178223,-0.457153,0.876648,-0.148865
1480698712311979,0.0180664,-0.457275,0.876587,-0.148926
1480698712334538,0.0184326,-0.457642,0.876404,-0.148926
1480698712357099,0.0187378,-0.458069,0.876099,-0.148987
1480698712379659,0.0192261,-0.458374,0.875977,-0.148987
1480698712394699,0.0198364,-0.458557,0.875854,-0.149109
1480698712420266,0.0204468,-0.458984,0.87561,-0.14917
1480698712439818,0.0209961,-0.459351,0.875366,-0.149048
1480698712464885,0.0214844,-0.459656,0.875244,-0.148865
1480698712485940,0.0218506,-0.4599,0.875122,-0.148743
1480698712491956,0.0222168,-0.460205,0.875,-0.14856
1480698712523542,0.0223389,-0.460571,0.874817,-0.148499
1480698712537077,0.0222778,-0.460754,0.874695,-0.148499
1480698712552118,0.0222168,-0.460999,0.874573,-0.14856
1480698712574696,0.0223389,-0.461365,0.87439,-0.14856
1480698712597237,0.022522,-0.461609,0.874268,-0.148438
1480698712612278,0.022522,-0.461609,0.874268,-0.148376
1480698712634335,0.022522,-0.46167,0.874268,-0.148376
1480698712657399,0.022522,-0.46167,0.874268,-0.148438
1480698712671936,0.0224609,-0.46167,0.874268,-0.148438
1480698712696000,0.0224609,-0.461731,0.874207,-0.148438
1480698712720064,0.0223999,-0.461487,0.874329,-0.148499
1480698712741119,0.0223389,-0.461243,0.874451,-0.148621
1480698712762175,0.0224609,-0.461243,0.87439,-0.148743
1480698712777215,0.0224609,-0.461243,0.87439,-0.148743
1480698712792255,0.0223999,-0.461121,0.874451,-0.148804
1480698712814815,0.0223999,-0.461121,0.874451,-0.148804
1480698712836874,0.0223999,-0.461182,0.874451,-0.148804
1480698712852416,0.0223999,-0.461243,0.874451,-0.148804
1480698712874978,0.0223999,-0.461243,0.87439,-0.148804
1480698712897034,0.0223999,-0.461243,0.87439,-0.148804
1480698712912074,0.0223999,-0.461304,0.87439,-0.148804
1480698712934634,0.0222168,-0.461426,0.874329,-0.148682
1480698712957196,0.0222168,-0.461426,0.874329,-0.148682
1480698712975746,0.0222168,-0.461426,0.874329,-0.148682
1480698712997802,0.0222168,-0.461426,0.874329,-0.148743
1480698713022368,0.0222168,-0.461426,0.874329,-0.148743
1480698713041420,0.0222168,-0.461426,0.874329,-0.148743
1480698713061973,0.0222168,-0.461426,0.874329,-0.148743
1480698713094058,0.0222168,-0.461426,0.874329,-0.148743
1480698713096565,0.0222168,-0.461426,0.874329,-0.148682
1480698713122133,0.0222168,-0.461426,0.874329,-0.148682
1480698713137173,0.0222168,-0.461426,0.874329,-0.148682
1480698713153717,0.0220947,-0.461304,0.87439,-0.148804
1480698713174776,0.0220947,-0.461365,0.87439,-0.148804
1480698713197333,0.0220947,-0.461365,0.874329,-0.148804
1480698713213376,0.0220947,-0.461426,0.874329,-0.148804
1480698713234432,0.0219727,-0.461365,0.874329,-0.148926
1480698713256992,0.0219116,-0.461365,0.874329,-0.148926
1480698713275041,0.0219116,-0.461365,0.874329,-0.148926
1480698713297600,0.0218506,-0.461426,0.874329,-0.148926
1480698713317152,0.0219116,-0.461487,0.874268,-0.148926
1480698713335200,0.0218506,-0.461304,0.87439,-0.148926
1480698713354751,0.0217896,-0.461121,0.874451,-0.148987
1480698713385834,0.0217896,-0.46106,0.874512,-0.148987
1480698713393354,0.0217896,-0.46106,0.874512,-0.148987
1480698713414410,0.0217896,-0.46106,0.874512,-0.148987
1480698713444490,0.0217896,-0.46106,0.874512,-0.148987
1480698713455018,0.0217896,-0.46106,0.874512,-0.148987
1480698713482090,0.0217896,-0.46106,0.874451,-0.148987
1480698713504651,0.0216675,-0.460999,0.874512,-0.148987
1480698713529717,0.0216064,-0.460999,0.874512,-0.148987
1480698713534731,0.020813,-0.460999,0.874573,-0.148987
1480698713574339,0.0196533,-0.460632,0.874756,-0.148987
1480698713576340,0.0189819,-0.460693,0.874695,-0.149292
1480698713595893,0.0180664,-0.461243,0.874451,-0.149048
1480698713618454,0.0158081,-0.460876,0.874817,-0.148499
1480698713634996,0.0134888,-0.458984,0.875854,-0.148254
1480698713656054,0.0125122,-0.457336,0.876648,-0.148865
1480698713677108,0.0127563,-0.457458,0.876526,-0.149292
1480698713700671,0.0129395,-0.458557,0.875916,-0.149536
1480698713715210,0.0130005,-0.458862,0.875732,-0.149658
1480698713737277,0.0130005,-0.458801,0.875793,-0.149536
1480698713768351,0.0129395,-0.459045,0.875732,-0.14917
1480698713781887,0.0128174,-0.459656,0.875366,-0.149048
1480698713804447,0.0125732,-0.460205,0.875122,-0.148926
1480698713828512,0.012146,-0.46051,0.875,-0.148926
1480698713842049,0.012085,-0.46051,0.875,-0.148987
1480698713857088,0.0122681,-0.460205,0.875183,-0.148865
1480698713879648,0.0126953,-0.460205,0.875122,-0.148804
1480698713896191,0.0133057,-0.460632,0.874878,-0.148804
1480698713917248,0.013855,-0.461121,0.874634,-0.148926
1480698713939306,0.0145264,-0.461548,0.87439,-0.148926
1480698713954346,0.0150146,-0.461731,0.874268,-0.148987
1480698713976906,0.0154419,-0.461548,0.87439,-0.148926
1480698713999967,0.015625,-0.461304,0.874512,-0.148804
1480698714017514,0.015686,-0.461243,0.874573,-0.148926
1480698714038570,0.0157471,-0.461243,0.874573,-0.148804
1480698714059626,0.0158691,-0.461487,0.87439,-0.148804
1480698714083690,0.0158691,-0.461487,0.87439,-0.148743
1480698714100234,0.0158691,-0.461548,0.87439,-0.148743
1480698714122795,0.0161133,-0.461914,0.874207,-0.148743
1480698714135829,0.0161133,-0.461975,0.874207,-0.148743
1480698714156885,0.0161133,-0.461975,0.874146,-0.148743
1480698714180447,0.0162354,-0.461853,0.874207,-0.148743
1480698714195988,0.0164795,-0.462158,0.874023,-0.148926
1480698714217044,0.0169678,-0.462708,0.873779,-0.148743
1480698714239605,0.0171509,-0.463013,0.873657,-0.148621
1480698714256149,0.0171509,-0.46283,0.873657,-0.148804
1480698714293246,0.0172119,-0.46228,0.874023,-0.148621
1480698714299764,0.0172119,-0.462219,0.874023,-0.148621
1480698714315806,0.017395,-0.462524,0.873901,-0.14856
1480698714339872,0.0176392,-0.462769,0.873779,-0.14856
1480698714362932,0.0176392,-0.462952,0.873657,-0.148499
1480698714384991,0.0177612,-0.463196,0.873535,-0.148621
1480698714398528,0.0179443,-0.463379,0.873413,-0.148621
1480698714419583,0.0179443,-0.463379,0.873413,-0.14856
1480698714437632,0.0179443,-0.463379,0.873413,-0.14856
1480698714457184,0.0179443,-0.46344,0.873413,-0.14856
1480698714479743,0.0179443,-0.46344,0.873352,-0.14856
1480698714497293,0.0179443,-0.463501,0.873352,-0.14856
1480698714516841,0.0179443,-0.463501,0.873352,-0.14856
1480698714540908,0.0179443,-0.463562,0.873352,-0.14856
1480698714557451,0.0179443,-0.463562,0.873352,-0.14856
1480698714577002,0.0179443,-0.463562,0.873352,-0.14856
1480698714599562,0.0178833,-0.463318,0.873474,-0.14856
1480698714618111,0.0178833,-0.463318,0.873474,-0.14856
1480698714637162,0.0178833,-0.463318,0.873474,-0.14856
1480698714659721,0.0178833,-0.463318,0.873474,-0.14856
1480698714678279,0.0179443,-0.463379,0.873413,-0.14856
1480698714698324,0.0180054,-0.463379,0.873413,-0.148499
1480698714719380,0.0181274,-0.463196,0.873535,-0.14856
1480698714738431,0.0181274,-0.463196,0.873535,-0.14856
1480698714756980,0.0180664,-0.463013,0.873657,-0.148376
1480698714779541,0.0178833,-0.462891,0.873718,-0.148254
1480698714797588,0.0176392,-0.462585,0.873901,-0.148254
1480698714817144,0.0174561,-0.462219,0.874084,-0.148254
1480698714847220,0.0174561,-0.462219,0.874084,-0.148254
1480698714862260,0.0175171,-0.462524,0.873962,-0.148132
1480698714884820,0.0175781,-0.462524,0.873962,-0.148071
1480698714907384,0.017395,-0.462463,0.874023,-0.148193
1480698714917407,0.017395,-0.462402,0.874023,-0.148193
1480698714938463,0.0174561,-0.462402,0.874023,-0.148193
1480698714959519,0.0174561,-0.462402,0.874023,-0.148132
1480698714977567,0.0174561,-0.462036,0.874207,-0.148132
1480698715004640,0.0174561,-0.462036,0.874207,-0.148132
1480698715027198,0.0176392,-0.462341,0.874084,-0.14801
1480698715038731,0.0176392,-0.462341,0.874084,-0.14801
1480698715058783,0.0176392,-0.462341,0.874084,-0.147888
1480698715079838,0.0176392,-0.462402,0.874084,-0.147888
1480698715097385,0.0176392,-0.462402,0.874023,-0.147888
1480698715118441,0.0176392,-0.462463,0.874023,-0.147888
1480698715142506,0.0176392,-0.462463,0.874023,-0.147888
1480698715176094,0.0175781,-0.462524,0.874023,-0.147888
1480698715184618,0.0175781,-0.462463,0.874023,-0.147888
1480698715199658,0.0175781,-0.462463,0.874023,-0.147888
1480698715217705,0.0176392,-0.462463,0.874023,-0.147888
1480698715240772,0.017395,-0.46228,0.874084,-0.14801
1480698715259817,0.017334,-0.462036,0.874268,-0.147949
1480698715281876,0.017395,-0.461792,0.87439,-0.147888
1480698715298921,0.017395,-0.461609,0.874512,-0.147827
1480698715319476,0.0172119,-0.461487,0.874573,-0.147827
1480698715349559,0.0172119,-0.461548,0.874573,-0.147827
1480698715360585,0.0172119,-0.461609,0.874512,-0.147827
1480698715379636,0.0170898,-0.461731,0.87439,-0.148071
1480698715409716,0.0174561,-0.461792,0.874268,-0.148376
1480698715420244,0.0170898,-0.462341,0.874084,-0.147949
1480698715440297,0.0160522,-0.462463,0.874146,-0.147522
1480698715464863,0.0142822,-0.463013,0.873962,-0.147095
1480698715484414,0.0126953,-0.461182,0.874939,-0.147034
1480698715499956,0.0117798,-0.460388,0.875305,-0.147339
1480698715522014,0.0119629,-0.458496,0.876282,-0.147522
1480698715540063,0.0122681,-0.457336,0.876831,-0.147949
1480698715559615,0.0126343,-0.457031,0.876892,-0.148315
1480698715583177,0.0130005,-0.457275,0.87677,-0.148315
1480698715607746,0.0133057,-0.457886,0.876404,-0.148376
1480698715619774,0.013855,-0.458435,0.87616,-0.148376
1480698715642335,0.0143433,-0.45813,0.876282,-0.148376
1480698715659881,0.0147095,-0.45813,0.876282,-0.148438
1480698715684948,0.0151367,-0.458801,0.875854,-0.148621
1480698715703498,0.0157471,-0.459473,0.875488,-0.148682
1480698715720041,0.0163574,-0.459961,0.875244,-0.148743
1480698715747113,0.0169678,-0.460144,0.875122,-0.148804
1480698715762152,0.0174561,-0.460205,0.875061,-0.148926
1480698715794239,0.0178833,-0.460388,0.874939,-0.148926
1480698715799753,0.0182495,-0.460815,0.874695,-0.149048
1480698715821813,0.0182495,-0.460754,0.874695,-0.149048
1480698715839861,0.0182495,-0.460754,0.874695,-0.149048
1480698715860915,0.0182495,-0.460754,0.874756,-0.149048
1480698715881972,0.0183716,-0.46106,0.874573,-0.148987
1480698715900521,0.0183716,-0.46106,0.874573,-0.148987
1480698715921076,0.0184326,-0.460876,0.874695,-0.149048
1480698715961684,0.0184326,-0.460876,0.874695,-0.149048
1480698715972714,0.0184326,-0.461243,0.874512,-0.148926
1480698715987251,0.0184326,-0.461243,0.874512,-0.148926
1480698716002291,0.0184326,-0.461243,0.874512,-0.148926
1480698716025854,0.0182495,-0.461609,0.874268,-0.149109
1480698716048414,0.0183105,-0.461609,0.874268,-0.149109
1480698716064958,0.0182495,-0.46167,0.874207,-0.149109
1480698716079999,0.0183105,-0.46167,0.874207,-0.149109
1480698716101054,0.0183716,-0.461548,0.874329,-0.149109
1480698716122110,0.0183716,-0.461487,0.874329,-0.149109
1480698716140158,0.0183105,-0.461487,0.874329,-0.149109
1480698716162718,0.0184937,-0.461792,0.874146,-0.149109
1480698716182270,0.0184937,-0.461792,0.874146,-0.149109
1480698716208872,0.0184937,-0.461243,0.874451,-0.14917
1480698716237448,0.0184937,-0.460876,0.874634,-0.149231
1480698716242461,0.0188599,-0.461243,0.87439,-0.149475
1480698716260009,0.0193481,-0.461914,0.873962,-0.14978
1480698716281064,0.0198364,-0.462891,0.873474,-0.149475
1480698716305129,0.0199585,-0.462891,0.873474,-0.149414
1480698716326184,0.0194092,-0.462952,0.873474,-0.149353
1480698716342728,0.0194092,-0.463135,0.873413,-0.14917
1480698716362279,0.0194702,-0.463379,0.873291,-0.149109
1480698716388349,0.019165,-0.462952,0.873535,-0.148926
1480698716404393,0.0186157,-0.462646,0.873718,-0.148987
1480698716421939,0.0183105,-0.462097,0.873962,-0.149292
1480698716439987,0.0183716,-0.462097,0.873962,-0.149292
1480698716463047,0.0184937,-0.462585,0.873718,-0.14917
1480698716482099,0.0185547,-0.462646,0.873718,-0.149109
1480698716502653,0.0184937,-0.462463,0.873779,-0.149231
1480698716523712,0.0182495,-0.461914,0.874084,-0.14917
1480698716559304,0.0180054,-0.461792,0.874146,-0.149109
1480698716564818,0.0179443,-0.462341,0.873901,-0.148865
1480698716582365,0.0181274,-0.462891,0.873657,-0.148621
1480698716603421,0.0180054,-0.463013,0.873596,-0.148621
1480698716620466,0.0179443,-0.463013,0.873596,-0.148621
1480698716652551,0.0181274,-0.462524,0.873901,-0.148499
1480698716673608,0.0181274,-0.462524,0.873901,-0.148499
1480698716684637,0.0182495,-0.462219,0.874084,-0.148376
1480698716703186,0.0183105,-0.462219,0.874084,-0.148376
1480698716729757,0.0183105,-0.462219,0.874084,-0.148315
1480698716744797,0.0180664,-0.462097,0.874084,-0.148499
1480698716768360,0.0179443,-0.462097,0.874084,-0.14856
1480698716781896,0.0178833,-0.462097,0.874084,-0.14856
1480698716804456,0.0182495,-0.462158,0.874084,-0.14856
1480698716822503,0.0184937,-0.461914,0.874207,-0.148376
1480698716842056,0.0185547,-0.46167,0.874329,-0.148438
1480698716872136,0.0186157,-0.461365,0.874512,-0.148438
1480698716882664,0.0183105,-0.461182,0.874573,-0.148499
1480698716909736,0.0183105,-0.461182,0.874573,-0.148499
1480698716927282,0.0186157,-0.461731,0.874329,-0.148315
1480698716950845,0.0186157,-0.461792,0.874329,-0.148315
1480698716963378,0.0183105,-0.461304,0.874573,-0.148315
1480698716991954,0.0180054,-0.461182,0.874573,-0.148499
1480698717024043,0.0180054,-0.461609,0.87439,-0.148499
1480698717026546,0.0181885,-0.462158,0.874146,-0.148315
1480698717044594,0.0181885,-0.462158,0.874146,-0.148315
1480698717062642,0.0178833,-0.461914,0.874207,-0.148499
1480698717083698,0.0180664,-0.461426,0.874451,-0.148438
1480698717104755,0.0180054,-0.461182,0.874634,-0.148376
1480698717123310,0.0180664,-0.461121,0.874634,-0.148376
1480698717143357,0.0180054,-0.461121,0.874634,-0.148376
1480698717182962,0.0180054,-0.461121,0.874634,-0.148438
1480698717185469,0.0177002,-0.460876,0.874817,-0.148315
1480698717205021,0.017334,-0.460754,0.874817,-0.148499
1480698717227580,0.0170288,-0.460632,0.874878,-0.148621
1480698717258162,0.0170288,-0.460693,0.874878,-0.148621
1480698717273705,0.0172729,-0.460876,0.874756,-0.148682
1480698717284732,0.0172729,-0.460876,0.874756,-0.148682
1480698717302279,0.0170288,-0.461182,0.874573,-0.148865
1480698717324839,0.0165405,-0.461365,0.874451,-0.148926
1480698717344392,0.0163574,-0.46167,0.874268,-0.149048
1480698717362439,0.0161743,-0.462097,0.874023,-0.149048
1480698717385000,0.0161133,-0.463318,0.873413,-0.149231
1480698717427613,0.015686,-0.463257,0.873474,-0.148987
1480698717437640,0.0145874,-0.462585,0.873901,-0.14856
1480698717458193,0.0133057,-0.461304,0.874634,-0.148315
1480698717464712,0.0127563,-0.460144,0.875244,-0.148254
1480698717484263,0.0129395,-0.460632,0.874939,-0.148743
1480698717504818,0.0133667,-0.461548,0.874451,-0.148804
1480698717528380,0.0128784,-0.461121,0.874695,-0.148865
1480698717554450,0.0124512,-0.459045,0.875793,-0.148865
1480698717579015,0.0123901,-0.45752,0.876587,-0.148743
1480698717603080,0.0124512,-0.458801,0.875854,-0.149109
1480698717607593,0.0130005,-0.460571,0.874878,-0.149048
1480698717625639,0.0131836,-0.461243,0.874573,-0.148926
1480698717655218,0.0129395,-0.459961,0.875305,-0.148743
1480698717662737,0.0126343,-0.458984,0.875854,-0.14856
1480698717684797,0.0129395,-0.459167,0.875732,-0.148621
1480698717707357,0.0134888,-0.459961,0.875305,-0.148621
1480698717722397,0.0140991,-0.46051,0.875,-0.148499
1480698717749469,0.0144653,-0.460449,0.875061,-0.148621
1480698717764508,0.0150146,-0.460144,0.875183,-0.148621
1480698717783058,0.0152588,-0.460632,0.874939,-0.148621
1480698717809629,0.015686,-0.460754,0.874878,-0.148499
1480698717824669,0.0157471,-0.46051,0.875,-0.148315
1480698717842716,0.0157471,-0.460938,0.874756,-0.148438
1480698717870792,0.0161133,-0.461548,0.874451,-0.148499
1480698717885831,0.0164795,-0.462158,0.874084,-0.148499
1480698717902376,0.0167236,-0.462524,0.873962,-0.148438
1480698717924936,0.0168457,-0.462036,0.874207,-0.148376
1480698717946994,0.0167236,-0.46167,0.87439,-0.148499
1480698717974567,0.0167847,-0.46167,0.874329,-0.148621
1480698717992615,0.0170288,-0.462219,0.874023,-0.148743
1480698718006152,0.017395,-0.462524,0.87384,-0.148743
1480698718027207,0.0174561,-0.462463,0.873901,-0.148743
1480698718059292,0.0174561,-0.462463,0.873901,-0.148743
1480698718065810,0.0174561,-0.462463,0.873901,-0.148743
1480698718082355,0.0177002,-0.462524,0.87384,-0.148682
1480698718104915,0.0179443,-0.462524,0.87384,-0.148804
1480698718125970,0.0181885,-0.462402,0.873901,-0.148865
1480698718143015,0.0183716,-0.462463,0.87384,-0.148987
1480698718165575,0.0186157,-0.46283,0.873657,-0.148987
1480698718193650,0.0186157,-0.46283,0.873596,-0.148987
1480698718207689,0.0186157,-0.46283,0.873596,-0.148926
1480698718225233,0.0184937,-0.462646,0.873718,-0.148987
1480698718248295,0.0184326,-0.462524,0.873779,-0.14917
1480698718267346,0.0184326,-0.462524,0.873779,-0.14917
1480698718292412,0.0186157,-0.462708,0.873657,-0.14917
1480698718314972,0.0187378,-0.462524,0.873779,-0.149109
1480698718327004,0.0187988,-0.462219,0.873901,-0.149109
1480698718345054,0.0187988,-0.462219,0.873901,-0.149109
1480698718367612,0.0187988,-0.462219,0.873901,-0.149109
1480698718388669,0.0187988,-0.462219,0.873901,-0.149109
1480698718426769,0.0187988,-0.462219,0.873962,-0.149109
1480698718428775,0.0188599,-0.462219,0.873901,-0.149109
1480698718472393,0.0189819,-0.462036,0.874023,-0.148987
1480698718476902,0.0189209,-0.461609,0.874268,-0.149109
1480698718488935,0.019043,-0.461365,0.874329,-0.149231
1480698718506985,0.0192871,-0.461365,0.874329,-0.149231
1480698718525031,0.0195923,-0.461426,0.874268,-0.149292
1480698718547591,0.0197754,-0.46106,0.874512,-0.149353
1480698718570653,0.0197754,-0.460693,0.874634,-0.149475
1480698718592711,0.0199585,-0.460754,0.874573,-0.149536
1480698718607751,0.0202637,-0.460999,0.874451,-0.149597
1480698718626801,0.0203247,-0.460693,0.874573,-0.149719
1480698718649361,0.0203247,-0.460693,0.874634,-0.149719
1480698718667409,0.0203247,-0.460632,0.874634,-0.149719
1480698718687963,0.0203247,-0.460266,0.874817,-0.149719
1480698718706516,0.0203247,-0.460022,0.874939,-0.149841
1480698718728071,0.0201416,-0.460144,0.874878,-0.14978
1480698718754641,0.0198975,-0.460083,0.874939,-0.149719
1480698718765170,0.0196533,-0.460327,0.874756,-0.149902
1480698718787730,0.0192871,-0.460999,0.874451,-0.149902
1480698718809287,0.0192871,-0.461304,0.874329,-0.149536
1480698718824326,0.0192261,-0.461792,0.874023,-0.149719
1480698718846886,0.0189209,-0.462097,0.873901,-0.149658
1480698718867942,0.0189209,-0.462463,0.873718,-0.149536
1480698718884487,0.0188599,-0.46283,0.873535,-0.149475
1480698718907049,0.0189819,-0.462524,0.873718,-0.149414
1480698718927601,0.0187988,-0.462219,0.87384,-0.149414
1480698718945649,0.0187378,-0.462463,0.873718,-0.149536
1480698718967207,0.0188599,-0.46344,0.87323,-0.149414
1480698718987761,0.0183716,-0.464233,0.872864,-0.14917
1480698719004305,0.0178833,-0.465393,0.872314,-0.148926
1480698719026865,0.0177612,-0.466431,0.871765,-0.148865
1480698719057446,0.0175781,-0.465942,0.872009,-0.148926
1480698719064966,0.017334,-0.46521,0.872375,-0.148987
1480698719094044,0.0172729,-0.465454,0.872253,-0.148987
1480698719107580,0.017395,-0.46582,0.87207,-0.148804
1480698719130140,0.0169067,-0.465454,0.872314,-0.148743
1480698719146684,0.0165405,-0.464417,0.872864,-0.148865
1480698719169244,0.0165405,-0.463928,0.873108,-0.148865
1480698719185287,0.0159912,-0.464111,0.872986,-0.148926
1480698719207347,0.0152588,-0.463013,0.873596,-0.149048
1480698719231412,0.0150146,-0.462036,0.874084,-0.149048
1480698719243442,0.0150757,-0.462036,0.874146,-0.149048
1480698719267506,0.0154419,-0.462402,0.873901,-0.148987
1480698719289063,0.015686,-0.46283,0.873718,-0.148987
1480698719303604,0.0159302,-0.463379,0.873352,-0.149109
1480698719326663,0.0159302,-0.46344,0.873352,-0.149109
1480698719349222,0.0159912,-0.463196,0.873474,-0.149048
1480698719363260,0.0162354,-0.463196,0.873474,-0.149109
1480698719394343,0.0166626,-0.463684,0.873169,-0.149231
1480698719409888,0.0170898,-0.464294,0.872803,-0.149292
1480698719423422,0.0170898,-0.464294,0.872803,-0.149292
1480698719447985,0.0170288,-0.464172,0.872864,-0.149231
1480698719469543,0.0169067,-0.46405,0.872986,-0.149231
1480698719490099,0.0170288,-0.464478,0.872742,-0.149292
1480698719506641,0.0171509,-0.464722,0.87262,-0.149353
1480698719530205,0.0171509,-0.464722,0.87262,-0.149353
1480698719543740,0.0171509,-0.464722,0.87262,-0.149353
1480698719590363,0.0171509,-0.464661,0.87262,-0.149353
1480698719603901,0.0171509,-0.464661,0.87262,-0.149353
1480698719606410,0.0171509,-0.4646,0.872681,-0.149353
1480698719626459,0.0171509,-0.4646,0.872681,-0.149353
1480698719649019,0.0169678,-0.464539,0.872681,-0.149292
1480698719671580,0.0167236,-0.464233,0.872864,-0.149231
1480698719688123,0.0164795,-0.463928,0.873047,-0.14917
1480698719709681,0.0164795,-0.463928,0.873047,-0.14917
1480698719730737,0.0164795,-0.463928,0.873047,-0.14917
1480698719748786,0.0164185,-0.464355,0.872864,-0.149109
1480698719785382,0.0164185,-0.464478,0.872803,-0.149109
1480698719791900,0.0164795,-0.463989,0.873047,-0.149109
1480698719806941,0.0160522,-0.463257,0.873474,-0.149048
1480698719828998,0.0159912,-0.463196,0.873474,-0.149048
1480698719850555,0.0164185,-0.463623,0.87323,-0.149292
1480698719867601,0.0166626,-0.463867,0.873047,-0.149475
1480698719889158,0.0169067,-0.464294,0.872864,-0.149292
1480698719911719,0.0171509,-0.464294,0.872803,-0.149414
1480698719934279,0.0172729,-0.464417,0.872681,-0.14978
1480698719949819,0.0167236,-0.464783,0.872498,-0.149597
1480698719972881,0.0155029,-0.464844,0.872559,-0.149292
1480698719992433,0.0136719,-0.464417,0.872864,-0.149048
1480698720015494,0.012146,-0.462097,0.874207,-0.148682
1480698720030033,0.0117188,-0.460815,0.874878,-0.148804
1480698720047078,0.0115967,-0.460205,0.875183,-0.148804
1480698720069638,0.0119629,-0.46051,0.875,-0.148865
1480698720090193,0.0125732,-0.460632,0.874939,-0.148743
1480698720106738,0.0130615,-0.460815,0.874817,-0.148987
1480698720129798,0.0129395,-0.460999,0.874695,-0.148865
1480698720151857,0.0131226,-0.461975,0.874268,-0.148682
1480698720166897,0.0134888,-0.462463,0.873962,-0.14856
1480698720190460,0.0137939,-0.46283,0.873779,-0.148499
1480698720211520,0.0142212,-0.462646,0.873901,-0.14856
1480698720232576,0.0148926,-0.462463,0.873962,-0.148743
1480698720256640,0.015625,-0.462891,0.873657,-0.148926
1480698720271681,0.0165405,-0.463501,0.873291,-0.148987
1480698720300256,0.0172729,-0.463989,0.873047,-0.149048
1480698720309280,0.017334,-0.46405,0.872986,-0.149048
1480698720331840,0.017334,-0.46405,0.872986,-0.149048
1480698720360416,0.0172729,-0.46405,0.872986,-0.149048
1480698720368939,0.0172729,-0.46405,0.872986,-0.149048
1480698720392502,0.017395,-0.464233,0.872864,-0.149109
1480698720407041,0.0177612,-0.464661,0.87262,-0.14917
1480698720429098,0.0180054,-0.464844,0.872498,-0.149292
1480698720451659,0.0180054,-0.464539,0.872681,-0.149231
1480698720466198,0.0177002,-0.464355,0.872803,-0.149231
1480698720502795,0.0177002,-0.464355,0.872803,-0.149231
1480698720511819,0.0178223,-0.464661,0.87262,-0.149353
1480698720525856,0.0178833,-0.464661,0.87262,-0.149353
1480698720550422,0.0177612,-0.464172,0.872864,-0.14917
1480698720582007,0.0174561,-0.463745,0.873108,-0.14917
1480698720588523,0.0172729,-0.463318,0.873413,-0.149109
1480698720610581,0.0172119,-0.463501,0.873291,-0.14917
1480698720631637,0.0172119,-0.463501,0.873291,-0.14917
1480698720652694,0.0172119,-0.463562,0.87323,-0.14917
1480698720669738,0.0170898,-0.463257,0.873474,-0.148926
1480698720691797,0.0166626,-0.462952,0.873657,-0.148804
1480698720713856,0.0162964,-0.462646,0.873779,-0.148865
1480698720730400,0.0161743,-0.462463,0.873901,-0.148865
1480698720767499,0.0161133,-0.462463,0.873901,-0.148865
1480698720789558,0.0161133,-0.462341,0.873962,-0.148743
1480698720792064,0.0157471,-0.461853,0.874268,-0.148743
1480698720811615,0.0152588,-0.461487,0.87439,-0.148926
1480698720832671,0.0148315,-0.461426,0.87439,-0.149231
1480698720848714,0.0144043,-0.461426,0.87439,-0.149353
1480698720880298,0.0144653,-0.462097,0.874023,-0.149597
1480698720893333,0.0142822,-0.463074,0.873596,-0.149109
1480698720915893,0.0142212,-0.464966,0.872559,-0.148926
1480698720931434,0.0140991,-0.466248,0.871948,-0.148682
1480698720953995,0.0136108,-0.465759,0.872192,-0.148804
1480698720969035,0.0134277,-0.465271,0.872498,-0.148682
1480698720991594,0.013855,-0.465759,0.872192,-0.148804
1480698721021675,0.0143433,-0.466187,0.871948,-0.148743
1480698721043231,0.0146484,-0.466187,0.872009,-0.148499
1480698721060779,0.0148315,-0.465942,0.87207,-0.148621
1480698721074317,0.0149536,-0.466003,0.87207,-0.148804
1480698721089354,0.0151367,-0.466125,0.871948,-0.148865
1480698721111915,0.0150757,-0.466309,0.871887,-0.148682
1480698721133973,0.0142212,-0.466125,0.87207,-0.148499
1480698721149013,0.0134277,-0.464294,0.873047,-0.148621
1480698721173581,0.0126343,-0.462341,0.874023,-0.148621
1480698721200149,0.0123901,-0.460327,0.875122,-0.148682
1480698721216192,0.0126343,-0.459106,0.875732,-0.148621
1480698721234240,0.0133057,-0.458984,0.875793,-0.148682
1480698721254297,0.0140381,-0.460083,0.875183,-0.148987
1480698721268330,0.0142822,-0.46106,0.874634,-0.14917
1480698721299413,0.0144043,-0.461182,0.874573,-0.149048
1480698721320469,0.0144653,-0.460388,0.875061,-0.148743
1480698721328490,0.0146484,-0.460327,0.875061,-0.148621
1480698721351552,0.0149536,-0.460999,0.874695,-0.148743
1480698721374111,0.015564,-0.461487,0.874451,-0.148804
1480698721388650,0.0159302,-0.461548,0.87439,-0.148804
1480698721411711,0.0161743,-0.461121,0.874634,-0.148865
1480698721434271,0.0163574,-0.460938,0.874695,-0.148987
1480698721448309,0.0170898,-0.461182,0.874512,-0.14917
1480698721471872,0.0175171,-0.461609,0.874207,-0.149292
1480698721493930,0.0177612,-0.461365,0.87439,-0.149231
1480698721523009,0.0181274,-0.460938,0.874634,-0.148987
1480698721531531,0.0181885,-0.460693,0.874756,-0.148987
1480698721554089,0.0182495,-0.460632,0.874756,-0.149353
1480698721576651,0.0182495,-0.460693,0.874695,-0.149597
1480698721597706,0.0180054,-0.460815,0.874634,-0.149536
1480698721623275,0.0178833,-0.460571,0.874817,-0.149231
1480698721645834,0.0176392,-0.460083,0.875122,-0.148987
1480698721665386,0.0171509,-0.459656,0.875366,-0.148865
1480698721675413,0.0170898,-0.459656,0.875366,-0.148926
1480698721694964,0.0166016,-0.460449,0.874817,-0.149536
1480698721711508,0.0166626,-0.460449,0.874817,-0.149475
1480698721734069,0.0164795,-0.460205,0.875,-0.149292
1480698721755132,0.0164185,-0.459412,0.875427,-0.149292
1480698721772673,0.0163574,-0.459167,0.875549,-0.149353
1480698721801749,0.0167236,-0.459412,0.875427,-0.149353
1480698721822805,0.0169067,-0.459778,0.875244,-0.149292
1480698721831828,0.0167236,-0.459961,0.875183,-0.149109
1480698721854389,0.0166016,-0.460083,0.875122,-0.148926
1480698721875445,0.0163574,-0.459961,0.875183,-0.148926
1480698721905024,0.0161743,-0.459778,0.875305,-0.148987
1480698721914048,0.0160522,-0.459412,0.875488,-0.148987
1480698721943626,0.0160522,-0.459412,0.875488,-0.148987
1480698721951647,0.0160522,-0.459412,0.875488,-0.148987
1480698721976213,0.0162964,-0.459412,0.875488,-0.149048
1480698721996266,0.0164185,-0.459412,0.875427,-0.14917
1480698722011807,0.0163574,-0.459473,0.875427,-0.14917
1480698722034367,0.0163574,-0.459534,0.875366,-0.14917
1480698722058431,0.0163574,-0.459534,0.875366,-0.14917
1480698722071467,0.0162354,-0.459656,0.875366,-0.149048
1480698722094026,0.0162964,-0.459656,0.875366,-0.149048
1480698722116586,0.0162964,-0.459595,0.875366,-0.149048
1480698722131124,0.0162964,-0.459595,0.875366,-0.149048
1480698722154687,0.0162354,-0.4599,0.875183,-0.149231
1480698722177247,0.0162354,-0.459595,0.875366,-0.148987
1480698722198805,0.0159302,-0.459351,0.875549,-0.148926
1480698722214347,0.015686,-0.459717,0.875366,-0.148804
1480698722244427,0.0159302,-0.460144,0.875122,-0.148987
1480698722252447,0.0159302,-0.460144,0.875061,-0.149353
1480698722274006,0.0158081,-0.459839,0.875183,-0.149292
1480698722296565,0.0158081,-0.459839,0.875183,-0.149292
1480698722312106,0.0157471,-0.459839,0.875244,-0.149353
1480698722335167,0.0160522,-0.459961,0.875183,-0.149231
1480698722356724,0.0162964,-0.460266,0.874939,-0.149414
1480698722371264,0.0162964,-0.460266,0.874939,-0.149414
1480698722394325,0.0160522,-0.460022,0.875061,-0.149475
1480698722416884,0.015686,-0.459717,0.875244,-0.149536
1480698722430921,0.0155029,-0.459717,0.875244,-0.14978
1480698722454485,0.0155029,-0.459717,0.875183,-0.149719
1480698722476543,0.0153809,-0.459412,0.875366,-0.149658
1480698722497599,0.0151367,-0.459473,0.875305,-0.149902
1480698722522164,0.0146484,-0.459534,0.875244,-0.150208
1480698722536703,0.0143433,-0.460571,0.874512,-0.151184
1480698722557759,0.0142212,-0.46106,0.874268,-0.151184
1480698722576308,0.0137939,-0.46344,0.873108,-0.150696
1480698722597364,0.0130005,-0.466003,0.871826,-0.15033
1480698722617919,0.0113525,-0.464905,0.872498,-0.14978
1480698722633963,0.0090332,-0.461243,0.874695,-0.14856
1480698722656522,0.00817871,-0.459473,0.875793,-0.147644
1480698722677578,0.00897217,-0.460022,0.875488,-0.147705
1480698722700639,0.0103149,-0.461243,0.874695,-0.148254
1480698722724202,0.0111084,-0.462097,0.874146,-0.149109
1480698722737739,0.0118408,-0.460999,0.874695,-0.148987
1480698722754783,0.0143433,-0.459717,0.875244,-0.149475
1480698722776841,0.0175171,-0.459229,0.875366,-0.150208
1480698722797898,0.0201416,-0.460205,0.874756,-0.150391
1480698722813940,0.020752,-0.460083,0.874695,-0.151001
1480698722837001,0.0206299,-0.459961,0.874756,-0.151062
1480698722857556,0.0209351,-0.460938,0.874268,-0.150879
1480698722874101,0.0209961,-0.461609,0.873901,-0.150757
1480698722896659,0.0206299,-0.46106,0.874268,-0.150635
1480698722917716,0.0202637,-0.460938,0.874329,-0.150696
1480698722935263,0.0203247,-0.461182,0.874207,-0.150391
1480698722956820,0.0197754,-0.461487,0.874146,-0.149902
1480698722986901,0.0188599,-0.460876,0.874634,-0.149292
1480698723007957,0.0180664,-0.460754,0.874695,-0.149231
1480698723016479,0.0177002,-0.460571,0.874756,-0.149414
1480698723039039,0.0175781,-0.460327,0.874878,-0.149292
1480698723054079,0.0175781,-0.460632,0.874756,-0.149353
1480698723077141,0.0178833,-0.46106,0.874573,-0.149109
1480698723099199,0.0179443,-0.46106,0.874573,-0.149048
1480698723121761,0.0177612,-0.461243,0.874451,-0.14917
1480698723136799,0.0175781,-0.46106,0.874573,-0.149292
1480698723158857,0.0185547,-0.461548,0.874207,-0.149597
1480698723174399,0.0206299,-0.463074,0.873169,-0.150452
1480698723196457,0.0227661,-0.464966,0.872009,-0.151428
1480698723219017,0.0244751,-0.465698,0.87146,-0.151978
1480698723241577,0.0247192,-0.465881,0.871338,-0.151917
1480698723256618,0.0244141,-0.466797,0.870972,-0.151428
1480698723288201,0.0246582,-0.467529,0.870605,-0.151001
1480698723299733,0.0244751,-0.46759,0.870544,-0.151367
1480698723322794,0.0233765,-0.466187,0.871338,-0.151123
1480698723338838,0.0216675,-0.464722,0.872253,-0.150879
1480698723355381,0.0199585,-0.463257,0.873169,-0.150085
1480698723377440,0.0182495,-0.462524,0.873718,-0.149658
1480698723401001,0.0162354,-0.463013,0.873657,-0.14856
1480698723420052,0.0136108,-0.468323,0.87085,-0.14856
1480698723437097,0.0120239,-0.472473,0.868591,-0.148682
1480698723459156,0.012146,-0.476624,0.866211,-0.149475
1480698723480212,0.0125732,-0.477539,0.865845,-0.14856
1480698723496756,0.0118408,-0.47644,0.866699,-0.147034
1480698723519316,0.0109863,-0.473267,0.86853,-0.146545
1480698723542879,0.010498,-0.470886,0.869873,-0.146729
1480698723563934,0.00958252,-0.468933,0.87085,-0.147156
1480698723587500,0.00872803,-0.465759,0.872375,-0.148071
1480698723600032,0.00860596,-0.463867,0.873169,-0.149475
1480698723616574,0.00946045,-0.463684,0.872986,-0.150879
1480698723639137,0.0108643,-0.463745,0.872925,-0.151123
1480698723662196,0.0111084,-0.462646,0.873596,-0.150513
1480698723677236,0.0108032,-0.461853,0.874084,-0.150269
1480698723705313,0.0108032,-0.461182,0.874329,-0.150757
1480698723724362,0.0113525,-0.461975,0.87384,-0.151062
1480698723736897,0.012207,-0.463196,0.87323,-0.15094
1480698723758953,0.0129395,-0.462952,0.873413,-0.150635
1480698723780009,0.0133057,-0.46167,0.874146,-0.150146
1480698723796553,0.0137939,-0.461487,0.874329,-0.149719
1480698723821620,0.0148926,-0.462524,0.873779,-0.149597
1480698723842175,0.0163574,-0.463806,0.873047,-0.14978
1480698723864234,0.0174561,-0.464783,0.872498,-0.14978
1480698723885791,0.0180054,-0.465271,0.872253,-0.149414
1480698723900330,0.0181885,-0.465393,0.872253,-0.149231
1480698723916874,0.0181274,-0.465393,0.872192,-0.149292
1480698723938932,0.0179443,-0.465088,0.872375,-0.149231
1480698723962995,0.0177002,-0.465149,0.872375,-0.14917
1480698723976532,0.0177002,-0.465088,0.872375,-0.14917
1480698724007615,0.017395,-0.464172,0.872986,-0.148804
1480698724029172,0.0169067,-0.463257,0.873474,-0.148682
1480698724036691,0.0165405,-0.462646,0.873779,-0.148743
1480698724066771,0.0162354,-0.462891,0.873657,-0.148926
1480698724097854,0.0159912,-0.463257,0.873474,-0.148804
1480698724110388,0.0158081,-0.463013,0.873718,-0.148315
1480698724118910,0.0155029,-0.462036,0.874207,-0.148254
1480698724141471,0.0148315,-0.461487,0.874512,-0.148254
1480698724156009,0.0151978,-0.462158,0.874207,-0.148132
1480698724179070,0.015625,-0.462769,0.87384,-0.148315
1480698724201630,0.0154419,-0.462036,0.874207,-0.148438
1480698724217673,0.0152588,-0.461548,0.874573,-0.14801
1480698724239231,0.0154419,-0.462158,0.874207,-0.147949
1480698724261791,0.0154419,-0.462708,0.873901,-0.147888
1480698724276332,0.0149536,-0.462097,0.874329,-0.147339
1480698724298889,0.0141602,-0.461731,0.874634,-0.146851
1480698724330474,0.013855,-0.461975,0.874573,-0.146545
1480698724350025,0.0137329,-0.462158,0.874512,-0.14624
1480698724359049,0.0136719,-0.463013,0.874146,-0.146057
1480698724395646,0.0135498,-0.46405,0.873596,-0.145874
1480698724402665,0.0130615,-0.466492,0.872314,-0.145996
1480698724419209,0.0123901,-0.467224,0.871948,-0.145691
1480698724443776,0.0114136,-0.466492,0.872498,-0.144958
1480698724462825,0.0108032,-0.465027,0.873291,-0.144775
1480698724479871,0.0109253,-0.464355,0.873657,-0.144836
1480698724501428,0.0111084,-0.463989,0.87384,-0.144775
1480698724522485,0.0113525,-0.46405,0.87384,-0.144836
1480698724539532,0.0115967,-0.464294,0.873657,-0.145081
1480698724561588,0.0118408,-0.464294,0.873596,-0.145203
1480698724590165,0.0122681,-0.464417,0.873474,-0.145447
1480698724605205,0.0128174,-0.464417,0.873474,-0.145508
1480698724622249,0.0129395,-0.464722,0.873291,-0.14563
1480698724644307,0.0129395,-0.464722,0.873291,-0.14563
1480698724658847,0.0131836,-0.463989,0.873718,-0.145508
1480698724681908,0.0131836,-0.463989,0.873718,-0.145508
1480698724702462,0.0132446,-0.463745,0.873779,-0.14563
1480698724721513,0.0132446,-0.463745,0.873779,-0.145691
1480698724741567,0.0134277,-0.464233,0.873535,-0.145813
1480698724762621,0.0134888,-0.464233,0.873535,-0.145691
1480698724779166,0.0136719,-0.464111,0.873596,-0.14563
1480698724802228,0.0137939,-0.463318,0.874023,-0.145752
1480698724822782,0.0134277,-0.462219,0.874634,-0.145569
1480698724839327,0.0130615,-0.46228,0.874573,-0.145508
1480698724862387,0.0130615,-0.463013,0.874207,-0.145569
1480698724892472,0.0124512,-0.463501,0.873962,-0.145508
1480698724900488,0.0117188,-0.462769,0.874329,-0.145752
1480698724922046,0.0109863,-0.461853,0.874817,-0.145874
1480698724944607,0.0107422,-0.462341,0.874512,-0.146118
1480698724959145,0.0112915,-0.462769,0.874268,-0.146179
1480698724989224,0.0114136,-0.462036,0.874695,-0.146118
1480698725004266,0.0110474,-0.461914,0.874756,-0.145935
1480698725018302,0.0112915,-0.46283,0.874329,-0.145508
1480698725043372,0.0112915,-0.464539,0.873413,-0.145752
1480698725063923,0.0110474,-0.466675,0.872192,-0.145935
1480698725078462,0.0106812,-0.468872,0.871033,-0.145996
1480698725102526,0.00946045,-0.468872,0.871094,-0.145752
1480698725124085,0.00817871,-0.466858,0.872314,-0.145142
1480698725162184,0.00726318,-0.463928,0.87384,-0.145203
1480698725164691,0.00750732,-0.461914,0.874817,-0.145691
1480698725185747,0.00823975,-0.461548,0.874939,-0.14624
1480698725198281,0.00872803,-0.46228,0.874451,-0.146912
1480698725222345,0.00982666,-0.462524,0.874268,-0.146973
1480698725244404,0.00994873,-0.462158,0.874451,-0.147217
1480698725258442,0.0102539,-0.461792,0.874634,-0.147217
1480698725282003,0.0109253,-0.462097,0.87439,-0.147522
1480698725304062,0.0114136,-0.462708,0.873962,-0.147949
1480698725325119,0.0119019,-0.463257,0.873657,-0.148132
1480698725341665,0.0119019,-0.463196,0.873718,-0.148071
1480698725364222,0.012085,-0.462219,0.874207,-0.148071
1480698725385278,0.0124512,-0.462036,0.874329,-0.147949
1480698725415358,0.0129395,-0.462463,0.874084,-0.147888
1480698725423881,0.0132446,-0.463196,0.873718,-0.147827
1480698725445440,0.0133057,-0.463501,0.873535,-0.147888
1480698725461480,0.0133057,-0.463379,0.873596,-0.148132
1480698725484041,0.0136719,-0.463196,0.873657,-0.148315
1480698725505097,0.0140381,-0.463013,0.873718,-0.148315
1480698725521641,0.0140381,-0.462952,0.873779,-0.148315
1480698725550718,0.0141602,-0.463257,0.873596,-0.148376
1480698725565256,0.0141602,-0.463623,0.873413,-0.148376
1480698725582303,0.0142212,-0.463623,0.873413,-0.148376
1480698725604361,0.0142212,-0.463623,0.873413,-0.148376
1480698725625417,0.0144653,-0.463928,0.87323,-0.148315
1480698725641460,0.0144043,-0.464172,0.873108,-0.148376
1480698725685075,0.0144043,-0.464233,0.873108,-0.148376
1480698725695603,0.0140991,-0.463806,0.873291,-0.148315
1480698725701626,0.0136719,-0.463623,0.873413,-0.148376
1480698725724180,0.0137329,-0.463989,0.87323,-0.148376
1480698725745235,0.0142212,-0.464539,0.872925,-0.148438
1480698725762280,0.0145264,-0.464844,0.872681,-0.148621
1480698725786344,0.0145264,-0.464844,0.872681,-0.148621
1480698725806902,0.0142822,-0.464722,0.872803,-0.148438
1480698725820938,0.013916,-0.464478,0.872925,-0.148376
1480698725845000,0.013916,-0.464478,0.872925,-0.148376
1480698725866558,0.013916,-0.464478,0.872925,-0.148376
1480698725881597,0.0139771,-0.4646,0.872925,-0.148254
1480698725904158,0.0140991,-0.464905,0.872742,-0.148132
1480698725934238,0.0139771,-0.464661,0.872864,-0.148071
1480698725942760,0.0137939,-0.464233,0.873108,-0.148254
1480698725964317,0.0137939,-0.464233,0.873108,-0.148254
1480698725986879,0.0136108,-0.465027,0.87262,-0.148743
1480698726000915,0.0137939,-0.465454,0.872314,-0.148926
1480698726024980,0.0140991,-0.464783,0.872681,-0.148926
1480698726056563,0.0136719,-0.46405,0.873108,-0.148804
1480698726062579,0.0134888,-0.464294,0.872925,-0.148926
1480698726084137,0.013855,-0.464661,0.872742,-0.148987
1480698726106699,0.013855,-0.464661,0.872742,-0.148926
1480698726129257,0.0137939,-0.464417,0.872925,-0.148865
1480698726144296,0.0134888,-0.464355,0.872986,-0.148621
1480698726167858,0.0132446,-0.464417,0.872925,-0.148621
1480698726181896,0.0135498,-0.464478,0.872864,-0.148804
1480698726205461,0.013855,-0.464111,0.873047,-0.148804
1480698726226514,0.0140381,-0.463806,0.873291,-0.14856
1480698726241054,0.0140381,-0.463806,0.873291,-0.148499
1480698726265619,0.0140991,-0.464294,0.872986,-0.148621
1480698726286675,0.0140381,-0.464355,0.872986,-0.148682
1480698726309235,0.0140381,-0.464172,0.873047,-0.14856
1480698726331294,0.013855,-0.464233,0.873047,-0.148621
1480698726346835,0.0137329,-0.464233,0.873047,-0.14856
1480698726367891,0.0137329,-0.464233,0.873047,-0.14856
1480698726391453,0.0137939,-0.464539,0.872864,-0.148499
1480698726406995,0.0137939,-0.464539,0.872925,-0.148499
1480698726429054,0.0136719,-0.464172,0.873047,-0.14856
1480698726444094,0.0136719,-0.464172,0.873108,-0.14856
1480698726469662,0.0137329,-0.464172,0.873108,-0.14856
1480698726488715,0.0134888,-0.464478,0.872925,-0.148621
1480698726504255,0.0134888,-0.464417,0.872925,-0.148621
1480698726526814,0.0134888,-0.464417,0.872925,-0.148621
1480698726548372,0.0133057,-0.46405,0.873169,-0.14856
1480698726564413,0.0130005,-0.46405,0.873169,-0.14856
1480698726586472,0.0128174,-0.463989,0.873169,-0.14856
1480698726609033,0.0128784,-0.46405,0.873169,-0.14856
1480698726624072,0.0128174,-0.46405,0.873169,-0.14856
1480698726649139,0.0125732,-0.464111,0.873108,-0.148499
1480698726667688,0.012207,-0.463745,0.873352,-0.148315
1480698726684233,0.0117798,-0.463745,0.873352,-0.148499
1480698726706794,0.0112305,-0.463196,0.873657,-0.148438
1480698726729854,0.010437,-0.462524,0.874023,-0.148315
1480698726744391,0.0100098,-0.461975,0.874329,-0.148376
1480698726767453,0.00970459,-0.46167,0.874451,-0.148438
1480698726789015,0.00939941,-0.461548,0.874573,-0.148438
1480698726804050,0.00897217,-0.461304,0.874695,-0.148315
1480698726840149,0.00854492,-0.461121,0.874817,-0.148315
1480698726849171,0.00811768,-0.460815,0.874939,-0.148376
1480698726871731,0.00793457,-0.46051,0.875061,-0.148621
1480698726887773,0.00811768,-0.460144,0.875244,-0.148865
1480698726909331,0.00793457,-0.45929,0.875671,-0.148926
1480698726930387,0.00762939,-0.458557,0.876099,-0.148926
1480698726946429,0.00762939,-0.458923,0.875854,-0.148865
1480698726968990,0.00799561,-0.459534,0.875549,-0.148926
1480698726992552,0.00805664,-0.459534,0.875549,-0.148865
1480698727013608,0.00817871,-0.459717,0.875427,-0.149048
1480698727029149,0.00842285,-0.460083,0.875244,-0.149048
1480698727043688,0.00878906,-0.460266,0.875122,-0.148926
1480698727066750,0.00878906,-0.460266,0.875122,-0.148926
1480698727089309,0.00897217,-0.460083,0.875244,-0.148926
