timestamp,x,y,z
1480533657129056,-0.113281,-0.919434,0.411621
1480533657169163,-0.111328,-0.936523,0.41748
1480533657170167,-0.119141,-0.930664,0.411133
1480533657182198,-0.111328,-0.902832,0.414063
1480533657205259,-0.108887,-0.907227,0.411133
1480533657219296,-0.113281,-0.935547,0.415039
1480533657243363,-0.112793,-0.93457,0.412598
1480533657264416,-0.110352,-0.911133,0.410645
1480533657279456,-0.107422,-0.91748,0.408203
1480533657302016,-0.11084,-0.931152,0.422363
1480533657324582,-0.112793,-0.918457,0.412109
1480533657339618,-0.101563,-0.929199,0.415527
1480533657362179,-0.108398,-0.945801,0.420898
1480533657384736,-0.104492,-0.932617,0.411621
1480533657399274,-0.100586,-0.927734,0.420898
1480533657422338,-0.104492,-0.959473,0.432129
1480533657444396,-0.111816,-0.943359,0.425293
1480533657459435,-0.109375,-0.922852,0.427734
1480533657481995,-0.0947266,-0.943359,0.429688
1480533657504555,-0.100586,-0.954102,0.435547
1480533657527115,-0.105957,-0.933594,0.434082
1480533657565216,-0.107422,-0.922363,0.435059
1480533657566219,-0.103027,-0.942383,0.440918
1480533657589282,-0.109375,-0.951172,0.432129
1480533657605325,-0.0205078,-0.899902,0.462402
1480533657625877,-0.00537109,-1.00146,0.462891
1480533657655959,0.0454102,-0.963379,0.558105
1480533657663477,-0.282715,-0.813965,0.237305
1480533657686539,-0.146484,-0.927246,0.460449
1480533657709098,0.107422,-1.09131,0.729492
1480533657723640,0.12207,-1.05371,0.710449
1480533657746198,0.121582,-0.996094,0.693848
1480533657774774,0.148438,-1.02393,0.776855
1480533657783798,0.0649414,-1.12695,0.797852
1480533657806361,-0.290039,-1.00293,0.343262
1480533657828923,-0.266113,-0.712891,0.0961914
1480533657852480,0.150391,-0.985352,0.830078
1480533657866018,-0.42627,-0.920898,0.106445
1480533657888577,0.1875,-0.907715,0.786133
1480533657903115,-0.422363,-0.849121,0.027832
1480533657926177,0.0410156,-1.07568,0.799805
1480533657954251,0.0561523,-0.745605,0.513184
1480533657969792,-0.4375,-0.826172,-0.0078125
1480533657986838,-0.313477,-1.08252,0.316406
1480533658008396,0.0195313,-1.10791,0.750977
1480533658022938,0.187988,-0.981934,0.947754
1480533658055019,0.231934,-0.884766,0.980957
1480533658085099,0.22998,-0.880859,1.00195
1480533658097131,0.211914,-0.921387,1.04248
1480533658106157,0.133301,-1.00098,0.970215
1480533658129718,-0.0966797,-1.12109,0.583984
1480533658158796,-0.39502,-1.1084,-0.0288086
1480533658173839,-0.367676,-0.86377,-0.13916
1480533658188378,0.0913086,-0.69043,0.79834
1480533658210934,0.116211,-0.98291,1.06689
1480533658233995,-0.440918,-1.11182,-0.224609
1480533658248032,-0.00927734,-0.677246,0.586914
1480533658271094,-0.00634766,-1.02197,0.90332
1480533658293654,-0.328613,-0.910156,-0.279297
1480533658308694,0.15332,-0.844727,1.33496
1480533658331253,-0.400879,-0.96875,-0.443359
1480533658359830,0.122559,-0.847168,1.35938
1480533658374878,-0.267578,-0.853027,-0.181152
1480533658390916,-0.18457,-1.06787,0.609375
1480533658413472,0.111816,-0.663086,0.930176
1480533658428013,-0.44043,-1.13037,-0.425781
1480533658452075,0.18457,-0.788574,1.46094
1480533658474138,-0.252441,-0.875,-0.280762
1480533658487671,-0.14502,-1.07275,0.67334
1480533658518752,0.131348,-0.682129,0.893066
1480533658558859,-0.421387,-1.12256,-0.425293
1480533658571394,0.168945,-0.784668,1.47217
1480533658573902,-0.251465,-0.887695,-0.227539
1480533658585932,-0.155273,-0.790527,0.358887
1480533658606992,-0.0512695,-0.924805,0.467285
1480533658623032,-0.104004,-0.895508,0.478027
1480533658646092,-0.106445,-0.930664,0.476563
1480533658667147,-0.0976563,-0.915039,0.486816
1480533658691211,-0.108887,-0.90625,0.48584
1480533658712267,-0.046875,-0.930176,0.524902
1480533658734828,-0.0234375,-0.706055,0.368652
1480533658742856,0.135742,-0.677734,0.945313
1480533658765910,-0.373047,-1.15088,-0.0908203
1480533658786967,0.201172,-0.707031,1.43213
1480533658803009,-0.351074,-0.971191,-0.470215
1480533658826071,-0.065918,-0.98291,0.943848
1480533658847126,0.0844727,-0.675293,0.748047
1480533658863169,-0.418945,-1.13477,-0.379395
1480533658886732,0.154297,-0.778809,1.48096
1480533658914304,-0.364258,-0.848633,-0.145508
1480533658924331,-0.239258,-0.77002,0.397949
1480533658945888,-0.104004,-0.889648,0.459961
1480533658967446,-0.110352,-0.887695,0.474121
1480533658982988,-0.112305,-0.898438,0.48584
1480533659013569,-0.117188,-0.902832,0.487305
1480533659034634,-0.119141,-0.889648,0.479492
1480533659051670,-0.109863,-0.89502,0.481445
1480533659074233,-0.120117,-0.890625,0.481445
1480533659094786,-0.109375,-0.907227,0.487793
1480533659125871,-0.0981445,-0.896484,0.484375
1480533659133388,-0.11084,-0.901367,0.493164
1480533659154444,-0.110352,-0.900391,0.492676
1480533659170987,-0.108887,-0.890625,0.490723
1480533659194049,-0.103516,-0.895996,0.491699
1480533659215106,-0.0981445,-0.921875,0.496582
1480533659232150,-0.0961914,-0.90918,0.499023
1480533659253708,-0.0952148,-0.873535,0.496094
1480533659282283,-0.0927734,-0.88623,0.487793
1480533659291308,-0.102051,-0.904785,0.502441
1480533659313366,-0.0986328,-0.890625,0.5
1480533659334422,-0.0996094,-0.890137,0.490723
1480533659350969,-0.10791,-0.919922,0.507324
1480533659373531,-0.118164,-0.902344,0.503906
1480533659396087,-0.111328,-0.873047,0.505371
1480533659411126,-0.103027,-0.883301,0.50293
1480533659447222,-0.104492,-0.907715,0.503418
1480533659457250,-0.105957,-0.891602,0.503906
1480533659484321,-0.0957031,-0.876953,0.498535
1480533659493346,-0.0981445,-0.905762,0.502441
1480533659515905,-0.0996094,-0.895996,0.509766
1480533659531082,-0.097168,-0.876953,0.509277
1480533659553505,-0.114258,-0.88623,0.501465
1480533659576065,-0.126953,-0.911621,0.502441
1480533659592109,-0.115234,-0.90332,0.506348
1480533659614668,-0.103027,-0.878906,0.504883
1480533659636225,-0.101563,-0.888672,0.508301
1480533659650262,-0.105957,-0.896973,0.50293
1480533659673828,-0.102051,-0.873535,0.508789
1480533659696385,-0.0991211,-0.879395,0.500977
1480533659710423,-0.0991211,-0.899902,0.507324
1480533659733484,-0.10498,-0.893066,0.508301
1480533659756050,-0.103516,-0.872559,0.506836
1480533659770583,-0.114258,-0.884766,0.504883
1480533659793645,-0.114746,-0.909668,0.504395
1480533659816203,-0.118652,-0.879883,0.503418
1480533659830405,-0.110352,-0.870117,0.506836
1480533659853805,-0.109375,-0.894043,0.506836
1480533659875863,-0.107422,-0.88623,0.505371
1480533659898422,-0.109863,-0.868652,0.50293
1480533659913462,-0.107422,-0.881836,0.516113
1480533659936023,-0.119629,-0.90625,0.512695
1480533659957082,-0.111328,-0.88916,0.518066
1480533659974128,-0.106934,-0.88623,0.505371
1480533660002222,-0.105469,-0.910156,0.51123
1480533660024759,-0.100098,-0.901855,0.516602
1480533660033281,-0.110352,-0.865234,0.506836
1480533660055843,-0.10791,-0.899414,0.514648
1480533660076897,-0.113281,-0.903809,0.508301
1480533660100460,-0.115723,-0.869629,0.509277
1480533660116001,-0.11377,-0.866699,0.51123
1480533660138564,-0.127441,-0.872559,0.503906
1480533660153602,-0.12793,-0.888184,0.51709
1480533660175660,-0.11377,-0.856445,0.505371
1480533660197217,-0.103516,-0.841309,0.505371
1480533660213761,-0.107422,-0.900391,0.51709
1480533660235824,-0.121094,-0.873047,0.507324
1480533660257380,-0.122559,-0.861816,0.523438
1480533660273425,-0.128906,-0.871582,0.512695
1480533660296481,-0.12207,-0.880371,0.515137
1480533660318039,-0.105469,-0.877441,0.518555
1480533660334583,-0.101563,-0.861816,0.516113
1480533660356143,-0.100098,-0.888184,0.521484
1480533660378701,-0.102539,-0.871582,0.525391
1480533660393742,-0.0927734,-0.870605,0.529297
1480533660417303,-0.103516,-0.891113,0.525391
1480533660438360,-0.105957,-0.896973,0.536133
1480533660452899,-0.100098,-0.874512,0.53125
1480533660475959,-0.0957031,-0.883301,0.539063
1480533660498519,-0.104004,-0.889648,0.53418
1480533660523085,-0.10498,-0.884766,0.538574
1480533660536119,-0.0991211,-0.871582,0.54248
1480533660558681,-0.0981445,-0.87793,0.541504
1480533660573723,-0.109863,-0.893555,0.543457
1480533660596415,-0.108398,-0.868652,0.532715
1480533660618839,-0.104004,-0.864258,0.538086
1480533660633879,-0.109863,-0.889648,0.547363
1480533660655939,-0.111328,-0.865723,0.533203
1480533660678498,-0.100586,-0.871094,0.541016
1480533660693036,-0.106934,-0.870117,0.534668
1480533660717108,-0.122559,-0.868164,0.52832
1480533660738660,-0.113281,-0.866211,0.529785
1480533660752695,-0.105957,-0.863281,0.539551
1480533660776257,-0.120117,-0.871582,0.533203
1480533660798817,-0.119629,-0.875488,0.527832
1480533660819372,-0.110352,-0.860352,0.535645
1480533660835916,-0.105469,-0.866211,0.532715
1480533660864495,-0.121582,-0.882324,0.530273
1480533660879532,-0.120117,-0.868164,0.525879
1480533660896077,-0.11084,-0.852539,0.529785
1480533660918639,-0.108398,-0.873535,0.543457
1480533660939693,-0.116699,-0.878418,0.54834
1480533660956238,-0.116211,-0.85498,0.541992
1480533660978797,-0.118652,-0.862793,0.53125
1480533660999853,-0.111816,-0.888672,0.543945
1480533661023420,-0.111816,-0.873535,0.55127
1480533661038456,-0.10498,-0.852539,0.546387
1480533661059511,-0.108887,-0.872559,0.546875
1480533661076067,-0.115723,-0.876465,0.545898
1480533661098615,-0.116699,-0.856934,0.547363
1480533661119672,-0.105469,-0.858398,0.544922
1480533661136215,-0.110352,-0.874512,0.563965
1480533661158775,-0.11377,-0.839844,0.547852
1480533661179831,-0.104492,-0.84375,0.553711
1480533661195874,-0.103516,-0.871094,0.5625
1480533661224450,-0.119141,-0.85791,0.558594
1480533661239492,-0.111328,-0.839355,0.533203
1480533661257540,-0.104492,-0.82666,0.554199
1480533661278594,-0.114746,-0.885742,0.560547
1480533661302658,-0.125977,-0.85791,0.548828
1480533661315191,-0.140137,-0.843262,0.501953
1480533661346775,-0.132324,-0.853027,0.517578
1480533661360813,-0.122559,-0.898926,0.557129
1480533661383372,-0.11377,-0.882324,0.568848
1480533661398413,-0.125977,-0.837891,0.563477
1480533661420972,-0.133789,-0.836914,0.526855
1480533661435511,-0.131348,-0.848145,0.518555
1480533661458573,-0.104492,-0.871094,0.563965
1480533661481132,-0.114746,-0.899902,0.608398
1480533661495671,-0.140625,-0.863281,0.568848
1480533661518734,-0.121094,-0.796387,0.540527
1480533661541292,-0.107422,-0.818848,0.539063
1480533661555331,-0.105469,-0.864258,0.595215
1480533661578391,-0.128906,-0.912598,0.623047
1480533661600951,-0.127441,-0.838867,0.56543
1480533661615491,-0.135254,-0.724121,0.503906
1480533661638553,-0.12793,-0.837402,0.539551
1480533661661112,-0.110352,-0.878906,0.578613
1480533661689689,-0.11377,-0.812012,0.596191
1480533661704727,-0.122559,-0.796387,0.608887
1480533661721274,-0.134277,-0.807617,0.552734
1480533661742330,-0.119629,-0.782715,0.568359
1480533661758370,-0.0981445,-0.768555,0.592773
1480533661782935,-0.108887,-0.790039,0.611328
1480533661801986,-0.108887,-0.810547,0.62793
1480533661821040,-0.0859375,-0.775391,0.627441
1480533661848610,-0.102051,-0.801758,0.591797
1480533661862648,-0.0966797,-0.794434,0.588867
1480533661878795,-0.0800781,-0.790039,0.615723
1480533661900854,-0.0581055,-0.755859,0.63623
1480533661921910,-0.050293,-0.753906,0.633301
1480533661938454,-0.0424805,-0.715332,0.620117
1480533661968534,-0.034668,-0.722656,0.628906
1480533661982071,-0.0288086,-0.73877,0.658203
1480533661998614,-0.0302734,-0.777832,0.648926
1480533662021180,-0.00195313,-0.73291,0.666504
1480533662042230,0.0317383,-0.70459,0.677246
1480533662058774,0.0200195,-0.722656,0.688965
1480533662080833,0.0253906,-0.735352,0.693848
1480533662101889,0.0571289,-0.71875,0.709473
1480533662117932,0.0664063,-0.723145,0.723145
1480533662140995,0.0561523,-0.763672,0.726074
1480533662164054,0.0703125,-0.739258,0.726074
1480533662179094,0.105469,-0.734375,0.754395
1480533662201154,0.109375,-0.761719,0.749512
1480533662222208,0.108887,-0.753906,0.78418
1480533662252289,0.126465,-0.734375,0.774414
1480533662260813,0.131836,-0.718262,0.772949
1480533662283371,0.145996,-0.735352,0.762207
1480533662297910,0.15918,-0.742188,0.788574
1480533662326989,0.163086,-0.734375,0.793945
1480533662343532,0.154785,-0.724609,0.799316
1480533662358070,0.163086,-0.743164,0.813965
1480533662381132,0.164551,-0.71875,0.801758
1480533662404696,0.164063,-0.708008,0.797852
1480533662424747,0.175293,-0.726563,0.791992
1480533662441793,0.182129,-0.726074,0.812012
1480533662463350,0.187988,-0.688965,0.799316
1480533662493431,0.185547,-0.669922,0.803223
1480533662500950,0.17334,-0.710938,0.813477
1480533662523510,0.171387,-0.708008,0.801758
1480533662538049,0.172852,-0.674805,0.777344
1480533662569633,0.169434,-0.672363,0.777832
1480533662583676,0.173828,-0.702637,0.802734
1480533662597708,0.158203,-0.673828,0.788086
1480533662621772,0.162598,-0.65918,0.782715
1480533662643329,0.150391,-0.702148,0.810547
1480533662657868,0.131348,-0.698242,0.780273
1480533662682433,0.140625,-0.665039,0.758301
1480533662704000,0.144043,-0.691406,0.77002
1480533662724546,0.134766,-0.725586,0.776855
1480533662741089,0.134277,-0.679199,0.77832
1480533662771175,0.116211,-0.686523,0.746582
1480533662784705,0.0976563,-0.719727,0.762207
1480533662802252,0.081543,-0.740723,0.748535
1480533662823308,0.0864258,-0.707031,0.744141
1480533662844364,0.0717773,-0.699707,0.725586
1480533662860908,0.0576172,-0.717773,0.725098
1480533662883467,0.0517578,-0.706055,0.710449
1480533662904525,0.0517578,-0.703613,0.708008
1480533662921570,0.0449219,-0.710938,0.709473
1480533662943633,0.0317383,-0.708008,0.722656
1480533662966193,0.0292969,-0.689941,0.722656
1480533662981232,0.019043,-0.688965,0.714355
1480533663009808,0.0224609,-0.721191,0.71582
1480533663025351,0.0107422,-0.722168,0.722656
1480533663040892,0.0126953,-0.697754,0.72168
1480533663063452,0.00634766,-0.712891,0.721191
1480533663086012,-0.00439453,-0.709961,0.713867
1480533663102055,0.00439453,-0.699707,0.710449
1480533663131132,0.00732422,-0.709961,0.713867
1480533663144667,-0.000976563,-0.729004,0.728027
1480533663161214,-0.00976563,-0.69043,0.722656
1480533663183772,-0.0117188,-0.677734,0.727539
1480533663205831,-0.0180664,-0.69873,0.728516
1480533663220874,-0.0209961,-0.717773,0.73584
1480533663244433,-0.0146484,-0.685059,0.726074
1480533663265991,-0.0107422,-0.687988,0.731934
1480533663287049,-0.0273438,-0.723145,0.728027
1480533663303595,-0.0292969,-0.703125,0.72998
1480533663332323,-0.0214844,-0.698242,0.731934
1480533663340188,-0.0229492,-0.706543,0.73877
1480533663363751,-0.0297852,-0.723145,0.737793
1480533663386310,-0.0273438,-0.696289,0.73877
1480533663402353,-0.0175781,-0.688477,0.738281
1480533663423409,-0.0283203,-0.721191,0.741211
1480533663445969,-0.0322266,-0.71875,0.738281
1480533663460510,-0.0366211,-0.688965,0.730469
1480533663483569,-0.027832,-0.702637,0.738281
1480533663505629,-0.0263672,-0.717773,0.739746
1480533663536209,-0.0307617,-0.721191,0.753906
1480533663543729,-0.0356445,-0.692383,0.731445
1480533663566289,-0.0371094,-0.692383,0.72168
1480533663580326,-0.0332031,-0.722168,0.735352
1480533663603893,-0.0356445,-0.708496,0.745605
1480533663639985,-0.0488281,-0.73291,0.731934
1480533663648508,-0.050293,-0.692871,0.719238
1480533663665053,-0.0571289,-0.709473,0.702148
1480533663686112,-0.0288086,-0.750977,0.746582
1480533663714683,-0.0249023,-0.749512,0.762695
1480533663724209,-0.0400391,-0.717285,0.761719
1480533663746268,-0.0541992,-0.688965,0.735352
1480533663768828,-0.065918,-0.700195,0.708008
1480533663783367,-0.0698242,-0.749023,0.692383
1480533663811948,-0.0527344,-0.738281,0.696289
1480533663826983,-0.0400391,-0.723633,0.704102
1480533663843527,-0.0546875,-0.715332,0.712891
1480533663866588,-0.0732422,-0.707031,0.695313
1480533663887145,-0.0742188,-0.716797,0.6875
1480533663909703,-0.0610352,-0.722656,0.663574
1480533663926253,-0.059082,-0.756348,0.669922
1480533663947302,-0.043457,-0.746582,0.69043
1480533663963345,-0.0341797,-0.692871,0.702148
1480533663985906,-0.0605469,-0.688477,0.706055
1480533664007463,-0.0708008,-0.696289,0.675293
1480533664024007,-0.0581055,-0.707031,0.683105
1480533664046066,-0.0444336,-0.737793,0.725098
1480533664074641,-0.0454102,-0.745605,0.707031
1480533664083666,-0.0595703,-0.709473,0.679688
1480533664106226,-0.0454102,-0.72168,0.696289
1480533664129106,-0.0249023,-0.724609,0.711914
1480533664143324,-0.0126953,-0.771973,0.757324
1480533664165884,-0.0175781,-0.777832,0.727539
1480533664188945,-0.0166016,-0.697754,0.696777
1480533664195659,-0.0234375,-0.756348,0.698242
1480533664208999,-0.00439453,-0.806152,0.717773
1480533664231559,0.0170898,-0.79248,0.736816
1480533664254119,0.0302734,-0.749512,0.740234
1480533664270667,0.012207,-0.751465,0.732422
1480533664291719,0.0126953,-0.72998,0.729004
1480533664315281,0.0234375,-0.75293,0.74707
1480533664330322,0.0375977,-0.780273,0.745117
1480533664354386,0.0258789,-0.772461,0.747559
1480533664373937,0.0268555,-0.739746,0.742188
1480533664390485,0.0336914,-0.739258,0.737793
1480533664411538,0.000976563,-0.748535,0.738281
1480533664442119,-0.00683594,-0.746094,0.730957
1480533664450140,0.0229492,-0.739746,0.741211
1480533664474705,0.0253906,-0.736816,0.736328
1480533664502279,0.00976563,-0.741211,0.730957
1480533664510300,0.0136719,-0.714355,0.71875
1480533664531356,0.0185547,-0.720215,0.720215
1480533664553917,0.0166016,-0.745605,0.727539
1480533664570488,0.00585938,-0.742676,0.720215
1480533664593021,0,-0.712402,0.711426
1480533664614076,0.00292969,-0.731445,0.709473
1480533664631628,-0.00390625,-0.748535,0.710449
1480533664651175,0,-0.723145,0.72168
1480533664676744,0.00244141,-0.714355,0.716309
1480533664690279,-0.00927734,-0.73291,0.720215
1480533664714343,-0.0102539,-0.741211,0.725098
1480533664741921,-0.00732422,-0.711426,0.718262
1480533664750440,-0.00439453,-0.719238,0.714844
1480533664771496,-0.00634766,-0.749023,0.717285
1480533664794056,-0.00537109,-0.733398,0.721191
1480533664810599,0.000976563,-0.728516,0.722168
1480533664839178,0.000488281,-0.726074,0.712891
1480533664853717,0.00146484,-0.745605,0.720215
1480533664870262,-0.00195313,-0.71582,0.72998
1480533664891313,-0.00439453,-0.713379,0.721191
1480533664916882,-0.00537109,-0.737793,0.727051
1480533664936434,0.00146484,-0.722168,0.726563
1480533664958996,0.00195313,-0.710938,0.72998
1480533664974034,-0.00634766,-0.708008,0.740723
1480533664999100,-0.00878906,-0.722168,0.72998
1480533665011634,-0.00634766,-0.716309,0.738281
1480533665037206,0.00244141,-0.705078,0.739258
1480533665052744,-0.00732422,-0.719727,0.742188
1480533665071292,-0.00732422,-0.712402,0.740234
1480533665101374,-0.0078125,-0.699707,0.725586
1480533665116412,-0.00830078,-0.708008,0.730957
1480533665131454,-0.0141602,-0.73584,0.722656
1480533665154013,-0.0146484,-0.691406,0.734863
1480533665178077,-0.00634766,-0.697754,0.728027
1480533665191613,-0.00634766,-0.709473,0.71875
1480533665213671,-0.00830078,-0.71582,0.728516
1480533665231857,0.00146484,-0.70166,0.726563
1480533665258791,0.00537109,-0.706543,0.733887
1480533665281351,-0.00830078,-0.706055,0.734863
1480533665313437,-0.00488281,-0.70166,0.74707
1480533665315944,0.00292969,-0.694336,0.748535
1480533665333991,-0.00341797,-0.712891,0.750488
1480533665356552,0.0078125,-0.724121,0.75293
1480533665371591,0.0151367,-0.700195,0.751953
1480533665395213,0.0131836,-0.699219,0.749023
1480533665425735,0.00878906,-0.716797,0.757813
1480533665436776,0.0112305,-0.706543,0.757813
1480533665461332,0.0219727,-0.684082,0.757813
1480533665476370,0.0209961,-0.702148,0.757324
1480533665491410,0.0146484,-0.715332,0.755859
1480533665515474,0.0195313,-0.686523,0.749023
1480533665536532,0.019043,-0.678711,0.751953
1480533665551570,0.0161133,-0.708008,0.754395
1480533665581149,0.0107422,-0.693359,0.750488
1480533665596188,0.0234375,-0.676758,0.748535
1480533665611232,0.0102539,-0.677246,0.748535
1480533665636798,0.0131836,-0.683594,0.74707
1480533665659357,0.0180664,-0.680176,0.747559
1480533665671389,0.0209961,-0.658203,0.749023
1480533665693950,0.0161133,-0.695801,0.742676
1480533665716509,0.0239258,-0.685547,0.750488
1480533665740573,0.0263672,-0.680176,0.756836
1480533665754109,0.0244141,-0.681641,0.754883
1480533665776170,0.0234375,-0.698242,0.743164
1480533665792712,0.0322266,-0.686523,0.748047
1480533665813767,0.0400391,-0.686035,0.757813
1480533665836330,0.0317383,-0.694824,0.756348
1480533665854375,0.0322266,-0.703125,0.756348
1480533665873927,0.0463867,-0.678711,0.753418
1480533665897991,0.0473633,-0.689453,0.762695
1480533665913031,0.0400391,-0.699707,0.753418
1480533665937597,0.0410156,-0.690918,0.758789
1480533665956154,0.0566406,-0.680664,0.748047
1480533665981714,0.0512695,-0.693848,0.752441
1480533665993746,0.0454102,-0.69043,0.746094
1480533666024327,0.0556641,-0.682617,0.75
1480533666034354,0.0673828,-0.695313,0.753418
1480533666053907,0.0600586,-0.692383,0.745117
1480533666076467,0.0673828,-0.686035,0.750488
1480533666094516,0.0688477,-0.674316,0.746582
1480533666114066,0.0693359,-0.69873,0.737305
1480533666136630,0.0683594,-0.705078,0.740234
1480533666156179,0.0732422,-0.67334,0.738281
1480533666175230,0.090332,-0.680176,0.728516
1480533666197789,0.0917969,-0.695801,0.733887
1480533666220355,0.0874023,-0.691895,0.730469
1480533666233884,0.102539,-0.680664,0.722656
1480533666256446,0.090332,-0.681641,0.723145
1480533666274493,0.0952148,-0.69043,0.712402
1480533666294547,0.121582,-0.674805,0.708984
1480533666333149,0.134766,-0.694824,0.726074
1480533666335656,0.125977,-0.678223,0.720703
1480533666354204,0.135742,-0.666992,0.717285
1480533666376264,0.153809,-0.615234,0.713379
1480533666409352,0.15918,-0.658203,0.720215
1480533666413866,0.163574,-0.688477,0.751953
1480533666436424,0.180176,-0.644043,0.737793
1480533666454482,0.191406,-0.629395,0.725098
1480533666474024,0.202637,-0.65625,0.749512
1480533666496584,0.194824,-0.680176,0.756348
1480533666527666,0.193848,-0.657715,0.740234
1480533666542205,0.229004,-0.653809,0.731934
1480533666567272,0.231934,-0.71582,0.741211
1480533666578865,0.228027,-0.699219,0.743164
1480533666596851,0.257324,-0.659668,0.740723
1480533666623922,0.254395,-0.68457,0.749512
1480533666655009,0.251953,-0.702148,0.723145
1480533666663028,0.295898,-0.663574,0.70752
1480533666684082,0.311523,-0.687988,0.742188
1480533666699122,0.291992,-0.668945,0.703613
1480533666723688,0.317383,-0.64209,0.70459
1480533666736731,0.339844,-0.696289,0.715332
1480533666770314,0.314941,-0.705078,0.723633
1480533666775325,0.321289,-0.751953,0.709473
1480533666796526,0.327637,-0.688965,0.695313
1480533666821949,0.331543,-0.695313,0.695313
1480533666835486,0.342285,-0.735352,0.707031
1480533666856541,0.344727,-0.768066,0.703125
1480533666897196,0.306152,-0.729492,0.687012
1480533666901207,0.250488,-0.699219,0.649414
1480533666932791,0.302246,-0.765137,0.65918
1480533666938806,0.333008,-0.786621,0.655762
1480533666962870,0.321289,-0.73877,0.647461
1480533666976406,0.319336,-0.728516,0.646973
1480533667006486,0.310547,-0.723633,0.635742
1480533667017014,0.310547,-0.744629,0.637207
1480533667036569,0.34082,-0.743652,0.635254
1480533667059126,0.336914,-0.781738,0.674316
1480533667095326,0.324707,-0.795898,0.684082
1480533667099233,0.363281,-0.787109,0.682129
1480533667118786,0.361328,-0.718262,0.62793
1480533667138338,0.348633,-0.666992,0.593262
1480533667156385,0.346191,-0.645508,0.568848
1480533667178946,0.342285,-0.716797,0.591797
1480533667196993,0.334961,-0.79541,0.611816
1480533667219555,0.328125,-0.80127,0.636719
1480533667246626,0.342773,-0.763672,0.628906
1480533667257655,0.321777,-0.728027,0.630371
1480533667283724,0.295898,-0.741211,0.64209
1480533667298764,0.314453,-0.776855,0.679688
1480533667317313,0.32666,-0.811523,0.717773
1480533667336369,0.302246,-0.754395,0.736328
1480533667358924,0.289063,-0.651855,0.737305
1480533667376972,0.30127,-0.569336,0.743652
1480533667399532,0.294434,-0.598145,0.784668
1480533667419084,0.268555,-0.712402,0.848633
1480533667437634,0.284668,-0.648438,0.837891
1480533667463703,0.309082,-0.506836,0.825684
1480533667478743,0.29834,-0.432129,0.814453
1480533667496977,0.287598,-0.427734,0.833984
1480533667518850,0.306152,-0.399414,0.874512
1480533667538903,0.313965,-0.353516,0.88916
1480533667563468,0.305176,-0.354492,0.883301
1480533667578007,0.319824,-0.36084,0.885254
1480533667606583,0.336914,-0.319824,0.907715
1480533667616609,0.321777,-0.298828,0.935547
1480533667645185,0.295898,-0.22998,0.949707
1480533667658721,0.263672,-0.164551,0.957031
1480533667676769,0.260254,-0.127441,0.973145
1480533667697826,0.276367,-0.14502,0.988281
1480533667727907,0.282227,-0.109863,0.98291
1480533667736931,0.281738,-0.0610352,0.967285
1480533667764001,0.279297,-0.027832,0.953125
1480533667782551,0.275391,-0.00390625,0.94043
1480533667796588,0.285156,0.0180664,0.952637
1480533667817647,0.295898,0.0200195,0.960938
1480533667838700,0.289551,0.012207,0.958496
1480533667856748,0.286133,0.0332031,0.930664
1480533667885325,0.303711,0.0874023,0.966309
1480533667898860,0.306152,0.105469,0.947754
1480533667916908,0.28418,0.146973,0.956543
1480533667939471,0.265625,0.179688,0.95459
1480533667959521,0.266113,0.166992,0.962891
1480533667976568,0.271484,0.129883,0.973633
1480533668000130,0.265625,0.130859,0.97168
1480533668026198,0.269043,0.118652,0.972168
1480533668036727,0.268555,0.0839844,0.969727
1480533668059287,0.267578,0.0673828,0.970703
1480533668078840,0.273926,0.0688477,0.965332
1480533668097389,0.278809,0.121094,0.951172
1480533668126968,0.27832,0.124023,0.943848
1480533668139000,0.280273,0.0717773,0.946777
1480533668156546,0.29541,0.0820313,0.97168
1480533668179106,0.296387,0.0634766,0.977051
1480533668200162,0.285645,-0.00390625,0.985352
1480533668217709,0.279785,-0.00244141,0.985352
1480533668239266,0.274414,0.0151367,0.987305
1480533668258818,0.254883,0.0126953,0.972168
1480533668276866,0.241699,-0.00341797,0.967773
1480533668301431,0.251465,-0.0126953,0.974121
1480533668336025,0.269531,0.00244141,0.968262
1480533668338530,0.268066,0.00439453,0.958984
1480533668360089,0.269531,0.0258789,0.962891
1480533668381143,0.288574,0.0317383,0.964844
1480533668405209,0.293945,0.0195313,0.974121
1480533668421250,0.280762,0,0.975098
1480533668438797,0.275879,0.00683594,0.978516
1480533668456844,0.271973,0.00585938,0.98291
1480533668483916,0.255859,-0.0185547,0.987793
1480533668498956,0.250977,-0.0214844,0.986328
1480533668529537,0.256836,-0.00683594,0.97998
1480533668545580,0.258301,0.0107422,0.987793
1480533668563893,0.252441,0.00341797,0.987305
1480533668576663,0.252441,-0.000488281,0.98291
1480533668599224,0.260742,0.027832,0.984375
1480533668620279,0.259277,0.000488281,0.985352
1480533668637828,0.261719,-0.00830078,0.981934
1480533668659885,0.267578,0.0219727,0.978027
1480533668686458,0.274902,0.0214844,0.974609
1480533668705005,0.268555,0.015625,0.978027
1480533668720045,0.266602,0.0336914,0.973145
1480533668747116,0.271484,0.0317383,0.96582
1480533668770179,0.27002,0.0126953,0.972168
1480533668788226,0.260742,-0.00244141,0.969238
1480533668800759,0.26709,0.0175781,0.978516
1480533668838360,0.273926,0.0297852,0.973145
1480533668840866,0.269531,0.00195313,0.973145
1480533668860419,0.266602,-0.00146484,0.976074
1480533668888994,0.273438,0.0307617,0.974121
1480533668907543,0.27002,0.0307617,0.96582
1480533668929100,0.262695,0.00927734,0.977539
1480533668945143,0.265625,0.0239258,0.96582
1480533668959683,0.277832,0.0478516,0.970215
1480533668981741,0.274902,0.0185547,0.961914
1480533669002295,0.278809,0.0166016,0.967773
1480533669023853,0.276855,0.0351563,0.985352
1480533669050423,0.27002,0.0307617,0.972656
1480533669064461,0.259277,0.0239258,0.973633
1480533669082007,0.269043,0.0410156,0.969727
1480533669101560,0.277832,0.0463867,0.96875
1480533669128634,0.269531,0.0302734,0.975098
1480533669146178,0.266113,0.0244141,0.976074
1480533669170245,0.270996,0.0322266,0.976563
1480533669191298,0.271973,0.0419922,0.966797
1480533669199320,0.267578,0.0288086,0.97168
1480533669221880,0.264648,0.0385742,0.966309
1480533669241432,0.274414,0.0610352,0.971191
1480533669260984,0.275879,0.0449219,0.973145
1480533669282541,0.265625,0.0336914,0.968262
1480533669301592,0.270508,0.0478516,0.976563
1480533669326658,0.271484,0.0405273,0.96875
1480533669341698,0.266113,0.0205078,0.973633
1480533669361250,0.267578,0.027832,0.97168
1480533669379298,0.271973,0.0439453,0.976074
1480533669401858,0.270508,0.0336914,0.974121
1480533669421411,0.271484,0.0253906,0.975586
1480533669446978,0.270996,0.0268555,0.972656
1480533669462025,0.269531,0.0302734,0.969238
1480533669482071,0.272949,0.0166016,0.978516
1480533669499618,0.267578,0.0141602,0.972656
1480533669521677,0.270508,0.0385742,0.972656
1480533669541730,0.273438,0.0336914,0.975098
1480533669567298,0.267578,0.0117188,0.969238
1480533669580834,0.269043,0.0375977,0.962891
1480533669602392,0.274902,0.0288086,0.97168
1480533669625954,0.275879,0.0146484,0.980957
1480533669641495,0.260742,0.0141602,0.985352
1480533669662051,0.263672,0.0302734,0.978027
1480533669678595,0.268555,0.0351563,0.975586
1480533669701155,0.269531,0.0078125,0.97168
1480533669723212,0.270508,0.0195313,0.963867
1480533669738755,0.270996,0.0292969,0.973633
1480533669760817,0.27002,0.0229492,0.973633
1480533669781869,0.267578,0.0126953,0.976074
1480533669798914,0.266602,0.0205078,0.975098
1480533669820973,0.269043,0.0200195,0.975586
1480533669843533,0.267578,0.00488281,0.977539
1480533669858573,0.268555,0.00341797,0.969238
1480533669896172,0.270996,0.0219727,0.971191
1480533669903693,0.271973,0.0239258,0.978027
1480533669917730,0.267578,0.00537109,0.971191
1480533669940792,0.265137,0.0195313,0.971191
1480533669963352,0.266602,0.0200195,0.976563
1480533669977891,0.273926,0.00830078,0.976563
1480533670001453,0.26416,0.015625,0.976074
1480533670029529,0.265625,0.0366211,0.970215
1480533670038552,0.270996,0.0244141,0.973633
1480533670061112,0.263672,0.0117188,0.981934
1480533670084173,0.27002,0.0229492,0.974609
1480533670097709,0.270996,0.0209961,0.97168
1480533670121271,0.266602,0.0112305,0.979492
1480533670143832,0.262207,0.0180664,0.969727
1480533670157869,0.264648,0.0332031,0.964355
1480533670180931,0.273438,0.0292969,0.974609
1480533670211010,0.274414,0.0107422,0.977051
1480533670218029,0.263672,0.0107422,0.980469
1480533670241091,0.26123,0.034668,0.975098
1480533670263650,0.26416,0.0317383,0.975586
1480533670292226,0.265137,0.00341797,0.972168
1480533670301752,0.265625,0.0185547,0.976074
1480533670323309,0.27832,0.0341797,0.970703
1480533670344866,0.263184,0.0268555,0.969727
1480533670361913,0.263184,0.0234375,0.96875
1480533670383469,0.274902,0.0292969,0.976074
1480533670405026,0.273438,0.0224609,0.972656
1480533670421069,0.266113,-0.00683594,0.976074
1480533670451151,0.264648,0.0117188,0.972656
1480533670464685,0.272949,0.0361328,0.970215
1480533670481730,0.266602,0.0219727,0.971191
1480533670503789,0.268555,0.0117188,0.978516
1480533670524344,0.274902,0.0327148,0.981934
1480533670540888,0.270508,0.0214844,0.974121
1480533670563448,0.254395,-0.00585938,0.973145
1480533670585510,0.261719,0.00878906,0.975098
1480533670610573,0.274902,0.0327148,0.979004
1480533670624611,0.266113,0.0249023,0.972656
1480533670646167,0.256836,0.00537109,0.977051
1480533670661209,0.270508,0.0239258,0.972168
1480533670683266,0.27832,0.0292969,0.972656
1480533670712345,0.268555,0.00683594,0.971191
1480533670728387,0.26709,0.00585938,0.973145
1480533670743427,0.267578,0.0214844,0.972168
1480533670765987,0.258789,0.015625,0.976074
1480533670781027,0.261719,-0.00683594,0.972656
1480533670803587,0.264648,0.0209961,0.969238
1480533670833667,0.274902,0.0239258,0.972168
1480533670840685,0.271973,0.00585938,0.980469
1480533670865250,0.271973,0.00585938,0.986328
1480533670885806,0.266602,0.0253906,0.97998
1480533670901348,0.26123,0.0200195,0.98291
1480533670923405,0.258301,-0.012207,0.979004
1480533670953488,0.260254,0.00390625,0.974609
1480533670960504,0.27002,0.0229492,0.971191
1480533670983565,0.267578,0.0205078,0.970215
1480533671006126,0.265625,-0.00585938,0.979004
1480533671020664,0.27002,0.0136719,0.978027
1480533671043725,0.271484,0.0219727,0.971191
1480533671088845,0.263184,0.00439453,0.972656
1480533671091352,0.268555,0.00390625,0.976563
1480533671105891,0.277832,0.03125,0.970215
1480533671126446,0.269043,0.0175781,0.974609
1480533671140483,0.262207,-0.00292969,0.987305
1480533671165048,0.261719,0.00830078,0.977051
1480533671186106,0.26709,0.0126953,0.975586
1480533671207161,0.265625,0.000488281,0.975098
1480533671230723,0.260742,-0.00292969,0.978516
1480533671246267,0.26416,0.0205078,0.979004
1480533671266819,0.27002,0.00439453,0.971191
1480533671283363,0.271973,0.00830078,0.964355
1480533671306425,0.274902,0.0292969,0.963867
1480533671328484,0.276855,0.0361328,0.962891
1480533671343523,0.273926,0.0288086,0.957031
1480533671367587,0.274902,0.0366211,0.962891
1480533671388643,0.279297,0.0507813,0.97168
1480533671404185,0.283691,0.0449219,0.964844
1480533671425742,0.262207,0.0166016,0.974121
1480533671446797,0.241699,0.0131836,0.982422
1480533671463342,0.244141,0.0273438,0.991211
1480533671486905,0.26416,0.0151367,0.979492
1480533671506961,0.274414,0.00683594,0.977051
1480533671523502,0.278809,0.0244141,0.977051
1480533671546563,0.286621,0.0224609,0.971191
1480533671567118,0.274902,0.00976563,0.972656
1480533671583662,0.270996,0.0239258,0.963867
1480533671606723,0.280762,0.0424805,0.973145
1480533671627278,0.270508,0.0234375,0.967285
1480533671643320,0.272949,0.00488281,0.970215
1480533671667384,0.274414,0.0390625,0.960938
1480533671686936,0.268555,0.0634766,0.958984
1480533671703480,0.251465,0.0332031,0.968262
1480533671726041,0.25,0.012207,0.972168
1480533671748600,0.266602,0.0395508,0.978027
1480533671763645,0.276367,0.0166016,0.976563
1480533671786202,0.270996,-0.0166016,0.98291
1480533671809262,0.275391,0.00927734,0.985352
1480533671823299,0.280762,0.0214844,0.974609
1480533671845859,0.268555,0.00732422,0.974609
1480533671875939,0.258789,0.00488281,0.977539
1480533671882958,0.265137,0.03125,0.975098
1480533671906019,0.270996,0.0268555,0.971191
1480533671929582,0.271484,0.0117188,0.972168
1480533671950638,0.270508,0.0224609,0.970215
1480533671966180,0.270508,0.0200195,0.963867
1480533671995758,0.268066,0.00634766,0.973145
1480533672011299,0.265137,-0.00146484,0.972168
1480533672033358,0.270996,0.0136719,0.967285
1480533672048397,0.274902,0.0322266,0.979004
1480533672062936,0.270996,-0.00244141,0.969238
1480533672085999,0.266113,0.00390625,0.97998
1480533672122596,0.273926,0.03125,0.977051
1480533672137135,0.273926,0.0253906,0.974121
1480533672153678,0.266113,0.0151367,0.974609
1480533672168721,0.26709,0.0292969,0.974609
1480533672189863,0.271484,0.0336914,0.972656
1480533672207822,0.265625,0.0170898,0.974609
1480533672228377,0.26416,0.0141602,0.975586
1480533672249432,0.267578,0.0209961,0.972656
1480533672273498,0.271484,0.0288086,0.963379
1480533672288537,0.27002,0.0131836,0.970703
1480533672309592,0.269531,0.0205078,0.977051
1480533672326138,0.272949,0.034668,0.976563
1480533672349699,0.265137,0,0.981445
1480533672369252,0.262695,-0.0102539,0.972168
1480533672393316,0.270996,0.015625,0.972168
1480533672414372,0.270996,0.0107422,0.966797
1480533672430916,0.266602,0.0166016,0.966309
1480533672445957,0.271973,0.015625,0.977539
1480533672468520,0.270508,0.0244141,0.974121
1480533672489571,0.267578,0.00537109,0.979492
1480533672506115,0.26123,-0.0175781,0.974609
1480533672534692,0.265625,0.0146484,0.972656
1480533672549731,0.273438,0.0146484,0.979004
1480533672565774,0.268066,-0.00341797,0.980469
1480533672588835,0.262695,0.0170898,0.975586
1480533672609891,0.267578,0.0249023,0.974609
1480533672625934,0.265137,0.0107422,0.977539
1480533672648995,0.262207,-0.00683594,0.974609
1480533672669553,0.263672,0.00292969,0.977539
1480533672686094,0.269531,0.0205078,0.977539
1480533672709156,0.262207,0.00439453,0.977051
1480533672731214,0.262695,0.0078125,0.969238
1480533672746254,0.27002,0.0239258,0.973633
1480533672768317,0.268066,0.0102539,0.97998
1480533672796889,0.260254,-0.0126953,0.975098
1480533672813437,0.266602,-0.00732422,0.975586
1480533672828975,0.265137,0.0263672,0.976074
1480533672851034,0.266113,0.0078125,0.980957
1480533672865070,0.265625,0.00537109,0.977051
1480533672889635,0.265625,0.0302734,0.974609
1480533672911193,0.26709,0.0185547,0.974609
1480533672933251,0.262207,-0.00244141,0.976074
1480533672948793,0.265137,0.000976563,0.977051
1480533672970851,0.268066,0.0224609,0.974609
1480533672985394,0.261719,0.00830078,0.973633
1480533673009454,0.259277,-0.00537109,0.983398
1480533673031012,0.263672,0.0161133,0.972656
1480533673045550,0.273926,0.0288086,0.97168
1480533673068616,0.269531,-0.000488281,0.977539
1480533673091672,0.262695,0.0170898,0.983887
1480533673105710,0.26416,0.0317383,0.979004
1480533673129130,0.264648,0.015625,0.974609
1480533673156846,0.262695,-0.0175781,0.974121
1480533673171886,0.26416,0.000976563,0.971191
1480533673194447,0.269531,0.0229492,0.975586
1480533673212494,0.26416,0.012207,0.973145
1480533673232548,0.265137,0.0180664,0.972656
1480533673248591,0.268555,0.015625,0.977539
1480533673278670,0.266602,0.00439453,0.978516
1480533673293209,0.263672,0.000976563,0.976563
1480533673308250,0.270508,0.00439453,0.974609
1480533673330810,0.269531,0.0244141,0.977051
1480533673351866,0.265625,0.0161133,0.975586
1480533673368412,0.263184,0.0141602,0.974121
1480533673390969,0.26123,0.0214844,0.974609
1480533673412025,0.26709,0.0239258,0.974609
1480533673429126,0.270508,0.00390625,0.970215
1480533673451634,0.266113,0.00537109,0.980469
1480533673472185,0.273926,0.0292969,0.976563
1480533673489738,0.271484,0.0239258,0.971191
1480533673518310,0.26416,0.0107422,0.973145
1480533673531844,0.268555,0.0229492,0.967773
1480533673548388,0.271973,0.0307617,0.976563
1480533673570949,0.269043,0.019043,0.972656
1480533673592505,0.268555,0.0136719,0.969238
1480533673608548,0.274902,0.0400391,0.975586
1480533673631108,0.278809,0.0263672,0.972168
1480533673661188,0.268066,0.00585938,0.972656
1480533673668210,0.272949,0.0219727,0.974609
1480533673699289,0.275391,0.03125,0.973633
1480533673713327,0.269531,0.0146484,0.970215
1480533673727865,0.26416,0.0151367,0.976563
1480533673750927,0.27002,0.0410156,0.96875
1480533673781007,0.273926,0.0273438,0.970215
1480533673788025,0.268555,0.0151367,0.972168
1480533673811087,0.267578,0.0219727,0.966309
1480533673833647,0.276367,0.0336914,0.97168
1480533673847684,0.275391,0.019043,0.977051
1480533673870746,0.263184,0.0195313,0.967773
1480533673900826,0.270996,0.0229492,0.974121
1480533673907843,0.272949,0.0214844,0.97168
1480533673945945,0.268066,-0.00146484,0.968262
1480533673959482,0.268555,0.0102539,0.968262
1480533673968006,0.273926,0.0268555,0.96875
1480533673991567,0.273926,0.0239258,0.972656
1480533674028749,0.26709,0.0102539,0.974121
1480533674031674,0.264648,0.0102539,0.968262
1480533674058244,0.271973,0.0249023,0.964844
1480533674073786,0.272949,0.00976563,0.969727
1480533674088825,0.264648,0.012207,0.978516
1480533674110883,0.268555,0.0332031,0.976074
1480533674134447,0.270508,0.0302734,0.974121
1480533674155001,0.261719,0.0107422,0.97998
1480533674177060,0.263184,0.00292969,0.978027
1480533674194607,0.268555,0.0126953,0.972656
1480533674214660,0.265625,0.0141602,0.974121
1480533674231204,0.26123,0.00439453,0.972656
1480533674259781,0.268066,0.027832,0.977539
1480533674274318,0.268555,0.0249023,0.974609
1480533674291865,0.263184,0.000976563,0.975098
1480533674321945,0.259766,0.00292969,0.979004
1480533674335983,0.27002,0.0239258,0.973633
1480533674351039,0.262695,0.0107422,0.979004
1480533674374496,0.262207,-0.012207,0.986816
1480533674394639,0.267578,0.0117188,0.982422
1480533674411684,0.26709,0.0200195,0.975586
1480533674433743,0.260254,-0.00146484,0.972656
1480533674454297,0.261719,0.00927734,0.97998
1480533674471844,0.266602,0.0302734,0.974609
1480533674495407,0.265137,0.0258789,0.967285
1480533674514457,0.260254,-0.00537109,0.972168
1480533674531503,0.268066,0.00537109,0.978516
1480533674554063,0.263672,0.0170898,0.981445
1480533674576121,0.258789,0.00439453,0.982422
1480533674597177,0.262695,0.00830078,0.976074
1480533674613721,0.266602,0.0151367,0.973633
1480533674635780,0.268066,0.0136719,0.96875
1480533674650820,0.26416,-0.000976563,0.978027
1480533674674383,0.26416,0.015625,0.973145
1480533674695940,0.266602,0.0249023,0.972168
1480533674712484,0.26416,0.0195313,0.975098
1480533674733541,0.255371,0.00634766,0.973145
1480533674756100,0.263672,0.012207,0.974121
1480533674770137,0.276855,0.0209961,0.974609
1480533674794202,0.269043,-0.00585938,0.972168
1480533674815758,0.258789,0.00195313,0.973633
1480533674830520,0.268555,0.0307617,0.975098
1480533674860879,0.267578,0.0175781,0.970215
1480533674876420,0.261719,0.000488281,0.974121
1480533674890959,0.265625,0.0151367,0.973633
1480533674913520,0.266602,0.0141602,0.977051
1480533674936079,0.256836,0,0.98291
1480533674957637,0.260742,0.00390625,0.972656
1480533674973679,0.270508,0.0229492,0.973145
1480533674996240,0.269043,0.0180664,0.975586
1480533675010276,0.26123,-0.000976563,0.970215
1480533675033338,0.269531,0.0263672,0.978027
1480533675061913,0.27002,0.0288086,0.975098
1480533675077956,0.265137,0.00732422,0.978516
1480533675101521,0.262695,0.00585938,0.979004
1480533675116057,0.268555,0.0214844,0.973145
1480533675137113,0.271484,0.0234375,0.973145
1480533675153658,0.26123,0.00537109,0.975098
1480533675175716,0.260742,0.00585938,0.974121
1480533675196773,0.27002,0.0322266,0.976074
1480533675215322,0.26709,0.0161133,0.967773
1480533675235877,0.256348,-0.00146484,0.972168
1480533675259941,0.268066,0.0195313,0.974609
1480533675273476,0.271973,0.0185547,0.982422
1480533675296537,0.259766,0.00585938,0.978027
1480533675324613,0.257813,0.0209961,0.975586
1480533675333637,0.26709,0.0253906,0.971191
1480533675356196,0.266602,-0.00390625,0.976563
1480533675376751,0.265137,-0.00878906,0.972656
1480533675394298,0.26709,0.0166016,0.975586
1480533675415855,0.265625,0.0292969,0.969727
1480533675444431,0.262207,0.00976563,0.972656
1480533675460475,0.261719,0.0180664,0.978516
1480533675482031,0.266113,0.0224609,0.977051
1480533675497071,0.263672,0.00585938,0.975586
1480533675513615,0.264648,-0.00683594,0.978516
1480533675542191,0.266113,0.00146484,0.978027
1480533675565754,0.264648,0.0224609,0.979004
1480533675573274,0.262207,0.0219727,0.979004
1480533675603354,0.26123,0.00634766,0.972168
1480533675618394,0.26416,0.0244141,0.973145
1480533675633434,0.27002,0.0166016,0.976563
1480533675656496,0.260254,-0.00341797,0.977539
1480533675684571,0.265625,0.0146484,0.980957
1480533675708633,0.268066,0.0195313,0.979004
1480533675718159,0.265137,0.015625,0.970215
1480533675738213,0.263672,0.00341797,0.979004
1480533675760774,0.268066,0.0244141,0.974121
1480533675775812,0.268555,0.0332031,0.971191
1480533675805893,0.262207,0.00390625,0.978516
1480533675814416,0.263672,0.00390625,0.977051
1480533675841989,0.269531,0.0214844,0.981445
1480533675858533,0.266602,0.00683594,0.976563
1480533675872570,0.260254,0.00390625,0.979004
1480533675896634,0.266602,0.0249023,0.976563
1480533675918693,0.27002,0.0283203,0.973633
1480533675932730,0.262207,0.0205078,0.970703
1480533675957296,0.255371,0.015625,0.974121
1480533675985872,0.26709,0.0292969,0.976074
1480533676000914,0.26709,0.0136719,0.975098
1480533676015951,0.263672,0.00439453,0.972168
1480533676040016,0.265625,0.00244141,0.984375
1480533676059567,0.266113,0.0219727,0.982422
1480533676076625,0.262207,0.0244141,0.980469
1480533676099687,0.256348,0.0146484,0.969727
1480533676121244,0.269531,0.0234375,0.978516
1480533676143303,0.273926,0.0195313,0.964355
1480533676166364,0.26416,-0.00390625,0.96875
1480533676186919,0.260254,0.015625,0.975098
1480533676195943,0.266602,0.0332031,0.976563
1480533676218503,0.263184,0.0151367,0.975098
1480533676239558,0.258301,-0.00341797,0.978516
1480533676263622,0.26123,0.0224609,0.972656
1480533676279164,0.270508,0.0307617,0.96875
1480533676299719,0.26416,0.00878906,0.979004
1480533676316263,0.263672,0.00585938,0.979492
1480533676339324,0.269531,0.0229492,0.979492
1480533676368401,0.263672,0.0180664,0.968262
1480533676376422,0.258301,0.00488281,0.973145
1480533676404497,0.262695,0.00878906,0.977539
1480533676421042,0.268066,0.0292969,0.976563
1480533676436583,0.262207,0.0151367,0.975586
1480533676458641,0.259766,0.00390625,0.979004
1480533676488722,0.270508,0.0297852,0.976074
1480533676495740,0.270508,0.0253906,0.972168
1480533676525821,0.260742,0.00537109,0.972656
1480533676541361,0.262695,0.0244141,0.976563
1480533676555901,0.272461,0.0327148,0.966309
1480533676578460,0.263672,0.0175781,0.972168
1480533676601024,0.263184,0.00292969,0.973633
1480533676615058,0.271973,0.0224609,0.973633
1480533676644637,0.26709,0.0283203,0.97168
1480533676661181,0.262695,0.0146484,0.973145
1480533676675218,0.266113,0.0195313,0.969727
1480533676699282,0.271973,0.0380859,0.969727
1480533676720838,0.266602,0.0341797,0.970703
1480533676735378,0.257813,0.0141602,0.976074
1480533676771974,0.265625,0.0273438,0.978027
1480533676780999,0.269043,0.0322266,0.975098
1480533676795656,0.266602,0.00878906,0.976074
1480533676820103,0.270996,0.0102539,0.979004
1480533676841159,0.274902,0.0424805,0.971191
1480533676855196,0.263672,0.0356445,0.976074
1480533676879762,0.26123,0.0224609,0.973145
1480533676900820,0.268555,0.0219727,0.972168
1480533676915356,0.278809,0.0166016,0.963867
1480533676938919,0.270508,0.0117188,0.974609
1480533676960979,0.263184,0.0141602,0.976074
1480533676990055,0.266602,0.0395508,0.971191
1480533677000082,0.268555,0.0361328,0.980957
1480533677021138,0.264648,0.00585938,0.975098
1480533677042194,0.265137,0.0297852,0.972656
1480533677058737,0.276367,0.0292969,0.972656
1480533677081799,0.268555,0.0141602,0.975586
1480533677109874,0.266113,0.0185547,0.975098
1480533677127922,0.269531,0.0322266,0.972168
1480533677147473,0.272461,0.0249023,0.972656
1480533677165020,0.270508,0.012207,0.967773
1480533677178557,0.265137,0.0175781,0.976074
1480533677207132,0.272461,0.0341797,0.972168
1480533677222172,0.274414,0.0253906,0.967773
1480533677238719,0.270996,0.00927734,0.970703
1480533677268295,0.267578,0.0185547,0.969238
1480533677284338,0.270508,0.0200195,0.972656
1480533677298375,0.268066,0.0126953,0.971191
1480533677320935,0.260742,0.012207,0.979492
1480533677341991,0.268066,0.0302734,0.980957
1480533677372071,0.270996,0.0332031,0.975586
1480533677388616,0.262695,0.00976563,0.967285
1480533677401652,0.266113,0.0117188,0.977539
1480533677419202,0.271484,0.0273438,0.978516
1480533677440754,0.268555,0.00830078,0.974121
1480533677469330,0.263184,0.00830078,0.974609
1480533677479357,0.266113,0.0273438,0.978516
1480533677514449,0.269531,0.00927734,0.981445
1480533677530993,0.260742,-0.00390625,0.979492
1480533677546034,0.253906,0.0151367,0.976563
1480533677561575,0.265625,0.0307617,0.976074
1480533677583638,0.265137,0.00195313,0.971191
1480533677597672,0.261719,-0.00585938,0.972656
1480533677627250,0.26709,0.0151367,0.978516
1480533677650813,0.266602,0.0141602,0.980469
1480533677665853,0.26123,0.00195313,0.975098
1480533677681394,0.262207,0.0170898,0.979004
1480533677703954,0.263672,0.0229492,0.976074
1480533677718495,0.270508,0.00634766,0.974609
1480533677741052,0.265625,-0.000976563,0.974609
1480533677764114,0.263672,0.012207,0.976074
1480533677786173,0.269531,0.0214844,0.976563
1480533677808733,0.260742,0.0078125,0.968262
1480533677823773,0.258301,0.00439453,0.975098
1480533677838813,0.266602,0.0219727,0.977051
1480533677860872,0.269531,0.0161133,0.970703
1480533677883432,0.258301,0.000976563,0.974609
1480533677897970,0.262207,0.0117188,0.97998
1480533677928553,0.26709,0.0209961,0.980469
1480533677944594,0.264648,0.00439453,0.973145
1480533677964647,0.256836,-0.00537109,0.979492
1480533677981692,0.262695,0.0244141,0.979004
1480533678003250,0.265625,0.0136719,0.973145
1480533678025810,0.265137,-0.0112305,0.983398
1480533678041853,0.262207,0.0107422,0.977051
1480533678063410,0.26416,0.0253906,0.968262
1480533678085970,0.26123,0.00927734,0.975586
1480533678101511,0.258789,0.00244141,0.972168
1480533678123570,0.269531,0.0146484,0.973145
1480533678146130,0.270508,-0.000488281,0.974609
1480533678161170,0.265625,-0.00830078,0.98291
1480533678206290,0.261719,0.00292969,0.97998
1480533678208797,0.266602,0.0273438,0.975098
1480533678229852,0.263672,0.0234375,0.974609
1480533678243389,0.26416,-0.00537109,0.976074
1480533678271965,0.266113,0.000488281,0.973633
1480533678280989,0.271973,0.0214844,0.979004
1480533678311069,0.260254,-0.00146484,0.975098
1480533678324606,0.255859,-0.00292969,0.977539
1480533678341149,0.263672,0.0273438,0.986328
1480533678363708,0.265137,0.0170898,0.974609
1480533678386269,0.259766,-0.00439453,0.975586
1480533678401816,0.266113,0.0078125,0.977051
1480533678423368,0.269043,0.0205078,0.973145
1480533678445928,0.262695,0.00976563,0.974121
1480533678467487,0.261719,0.000976563,0.972656
1480533678485032,0.263184,0.0141602,0.978516
1480533678506088,0.263672,0.00830078,0.97998
1480533678520125,0.260742,0.000488281,0.974609
1480533678543688,0.258789,-0.00244141,0.980957
1480533678565746,0.270508,0.0175781,0.979004
1480533678580285,0.266602,0.015625,0.974121
1480533678603346,0.26123,0.00634766,0.973145
1480533678625906,0.266602,0.00341797,0.979004
1480533678641447,0.268066,0.0200195,0.972168
1480533678669522,0.26416,0.00976563,0.981445
1480533678686067,0.257813,-0.00439453,0.975098
1480533678707624,0.266602,0.0131836,0.974121
1480533678724167,0.26416,0.0141602,0.976563
1480533678760765,0.260254,0.00341797,0.970215
1480533678763568,0.262695,0.00976563,0.972168
1480533678783325,0.269043,0.0209961,0.975586
1480533678813405,0.263672,-0.000976563,0.976074
1480533678820424,0.251953,-0.00488281,0.983398
1480533678843485,0.262207,0.0214844,0.980957
1480533678866045,0.263672,0.0166016,0.969238
1480533678887602,0.26123,-0.00683594,0.965332
1480533678917183,0.26416,0.00537109,0.97168
1480533678934732,0.271484,0.0209961,0.973633
1480533678947261,0.265625,0.0219727,0.973633
1480533678963303,0.259277,-0.000488281,0.982422
1480533678986866,0.261719,0.0117188,0.976074
1480533679023966,0.26416,0.0253906,0.969727
1480533679037000,0.266113,-0.00292969,0.969727
1480533679052040,0.26709,0.00341797,0.978027
1480533679067083,0.265137,0.0170898,0.976563
1480533679083627,0.263672,0.00683594,0.973633
1480533679106184,0.26123,-0.00146484,0.967773
1480533679126738,0.260742,0.0229492,0.973633
1480533679143283,0.26709,0.0263672,0.974121
1480533679173363,0.263184,0.000976563,0.982422
1480533679194419,0.260254,-0.00634766,0.978516
1480533679210963,0.260742,0.0185547,0.977539
1480533679228009,0.263672,0.00830078,0.981934
1480533679247058,0.259766,-0.00830078,0.976563
1480533679264606,0.264648,0.015625,0.971191
1480533679286163,0.264648,0.03125,0.970215
1480533679314238,0.262695,0.00732422,0.977051
1480533679330781,0.26416,0,0.974609
1480533679345822,0.263672,0.0078125,0.978516
1480533679368382,0.266113,0.0126953,0.977051
1480533679383422,0.259766,-0.00244141,0.976074
1480533679405981,0.260254,0.0107422,0.97998
1480533679429044,0.265137,0.0307617,0.977539
1480533679458622,0.264648,0.0151367,0.969238
1480533679473661,0.265625,-0.0151367,0.975098
1480533679496222,0.26123,0.00439453,0.984375
1480533679502739,0.263184,0.0258789,0.977539
1480533679525800,0.255371,0.0136719,0.96875
1480533679548360,0.261719,0.000488281,0.971191
1480533679563445,0.27002,0.00976563,0.974609
1480533679594984,0.270508,0.0102539,0.977051
1480533679609021,0.258789,-0.00537109,0.975098
1480533679622557,0.258301,0.0146484,0.977539
1480533679646622,0.265137,0.0263672,0.980469
1480533679668680,0.262207,-0.00244141,0.97998
1480533679682717,0.257324,0.00683594,0.974121
1480533679705779,0.267578,0.0107422,0.968262
1480533679728339,0.274414,0.0136719,0.98584
1480533679742877,0.262695,-0.00341797,0.977539
1480533679766945,0.253906,0.0102539,0.973633
1480533679788500,0.263672,0.0263672,0.974121
1480533679803037,0.262207,-0.000976563,0.977539
1480533679826099,0.256348,-0.0078125,0.974121
1480533679848157,0.269043,0.0151367,0.976563
1480533679870721,0.27002,0.0268555,0.973145
1480533679886259,0.263672,0.00195313,0.968262
1480533679908317,0.256348,0.000488281,0.972656
1480533679929375,0.267578,0.0166016,0.983887
1480533679945917,0.263672,0.0126953,0.975586
1480533679968479,0.257324,-0.00585938,0.975098
1480533679992040,0.262695,0.0170898,0.977539
1480533680012596,0.267578,0.0283203,0.972168
1480533680028638,0.260742,0.00634766,0.967285
1480533680049694,0.257324,0.00634766,0.974121
1480533680066741,0.269043,0.00976563,0.978027
1480533680090301,0.268555,0.0146484,0.976074
1480533680109353,0.257324,0,0.975098
1480533680125896,0.258301,0.00634766,0.976074
1480533680148456,0.271484,0.0209961,0.978516
1480533680169513,0.265137,0.00732422,0.970703
1480533680186558,0.259277,0.00390625,0.978516
1480533680208616,0.264648,0.0107422,0.983887
1480533680230676,0.262207,0.0200195,0.974609
1480533680251732,0.261719,0.00488281,0.967285
1480533680268276,0.259277,0.00683594,0.973145
1480533680291336,0.271484,0.0161133,0.974121
1480533680306377,0.266113,0.0175781,0.978027
1480533680328437,0.260254,0.0107422,0.973145
1480533680352499,0.264648,0.0180664,0.980957
1480533680375059,0.27002,0.0229492,0.979004
1480533680388595,0.259277,0.00244141,0.969238
1480533680411656,0.262695,0.00683594,0.975098
1480533680425192,0.271973,0.0219727,0.981445
1480533680448254,0.269043,0.012207,0.974121
1480533680470813,0.259277,-0.00439453,0.980469
1480533680485352,0.260742,0.0161133,0.977539
1480533680508414,0.266113,0.0268555,0.969238
1480533680530974,0.260742,0.00585938,0.974609
1480533680545512,0.265137,-0.00292969,0.980469
1480533680574589,0.270508,0.0214844,0.97168
1480533680591133,0.26416,0.0268555,0.975098
1480533680612189,0.259766,0.00292969,0.977051
1480533680629044,0.265625,0.00537109,0.976074
1480533680650792,0.268066,0.0175781,0.977539
1480533680665334,0.263184,0.00634766,0.976563
1480533680688393,0.26416,-0.00195313,0.975098
1480533680716972,0.265137,0.0205078,0.978027
1480533680725491,0.268066,0.0200195,0.970703
1480533680748552,0.263184,0.00585938,0.974609
1480533680771613,0.26416,0.0166016,0.967285
1480533680792183,0.268555,0.0253906,0.964844
1480533680808225,0.266113,0.00732422,0.981445
1480533680838305,0.263184,0.00292969,0.977539
1480533680852844,0.264648,0.0175781,0.976074
1480533680868887,0.267578,0.0161133,0.974609
1480533680890945,0.272461,0.00537109,0.975586
1480533680912001,0.260742,0.0102539,0.980957
1480533680928552,0.263184,0.0258789,0.974609
1480533680951105,0.269531,0.0283203,0.966797
1480533680972161,0.266113,-0.00488281,0.969727
1480533680988705,0.258789,0.00292969,0.980469
1480533681010765,0.266113,0.0209961,0.976074
1480533681033327,0.26416,0.0195313,0.975098
1480533681049367,0.259277,0.00341797,0.972656
1480533681078444,0.258789,0.015625,0.98584
1480533681091982,0.265625,0.0229492,0.973145
1480533681117052,0.26416,-0.00146484,0.974609
1480533681138606,0.262207,-0.00439453,0.978516
1480533681153644,0.264648,0.0288086,0.985352
1480533681168684,0.268555,0.0200195,0.968262
1480533681191244,0.255371,0.00244141,0.972168
1480533681212300,0.263672,0.012207,0.975098
1480533681228344,0.272949,0.019043,0.979004
1480533681251405,0.263184,-0.00732422,0.975586
1480533681273965,0.257813,0.00830078,0.97998
1480533681289505,0.262695,0.0253906,0.979004
1480533681311063,0.265625,0.00292969,0.977539
1480533681333625,0.253418,-0.000488281,0.977539
1480533681348664,0.260742,0.00830078,0.972656
1480533681370722,0.269531,0.0268555,0.974121
1480533681400805,0.262695,0.0078125,0.976074
1480533681417346,0.258789,-0.00341797,0.977539
1480533681430882,0.265137,0.015625,0.979492
1480533681453442,0.268066,0.015625,0.977051
1480533681467980,0.262207,0.00146484,0.975098
1480533681491543,0.258789,0.0078125,0.978516
1480533681521122,0.266602,0.0175781,0.978027
1480533681536161,0.263672,0.0078125,0.976074
1480533681551202,0.257324,0.00292969,0.975098
1480533681573261,0.265625,0.0131836,0.979492
1480533681587799,0.272461,0.00390625,0.981445
1480533681610860,0.262207,0.000488281,0.982422
1480533681633423,0.256348,0.00292969,0.977051
1480533681647959,0.266602,0.0263672,0.979492
1480533681671021,0.263672,0.00732422,0.967285
1480533681693580,0.259766,-0.0107422,0.977051
1480533681707618,0.265137,0.0112305,0.977539
1480533681730679,0.26709,0.0175781,0.975098
1480533681753743,0.260254,0.00439453,0.978516
1480533681758754,0.257324,0.00976563,0.981934
1480533681777806,0.257813,0.0249023,0.979004
1480533681796355,0.26416,0.0141602,0.976563
1480533681826434,0.265137,-0.0180664,0.977051
1480533681844482,0.263672,0.00390625,0.983887
1480533681856514,0.260254,0.0234375,0.977539
1480533681878572,0.259766,0.00927734,0.972656
1480533681901132,0.257813,-0.000488281,0.978516
1480533681923692,0.263672,0.0180664,0.978516
1480533681938733,0.266602,0.0107422,0.978027
1480533681956780,0.26123,-0.0126953,0.975586
1480533681976333,0.265137,0.00488281,0.979004
1480533681998894,0.263184,0.0195313,0.978516
1480533682016946,0.263184,0.019043,0.979004
1480533682036493,0.264648,0,0.982422
1480533682059054,0.260742,0.00927734,0.979004
1480533682090135,0.268555,0.0141602,0.977539
1480533682103671,0.262695,-0.000488281,0.977539
1480533682121719,0.258301,0.000976563,0.974609
1480533682144280,0.26709,0.0209961,0.979004
1480533682156311,0.269043,0.0102539,0.974609
1480533682186893,0.258301,-0.00585938,0.970703
1480533682201432,0.257324,0.0131836,0.972656
1480533682216474,0.266602,0.0175781,0.980957
1480533682239031,0.262207,-0.00146484,0.976074
1480533682264098,0.257813,0.00146484,0.971191
1480533682285154,0.263184,0.019043,0.974121
1480533682298690,0.266602,0.0131836,0.978516
1480533682321250,0.261719,-0.00683594,0.975098
1480533682336291,0.254883,0.0107422,0.977539
1480533682358850,0.262207,0.0224609,0.975586
1480533682384421,0.263184,0.00585938,0.978516
1480533682396450,0.257324,-0.012207,0.969238
1480533682419010,0.263184,0.0146484,0.96875
1480533682441572,0.265137,0.0244141,0.97168
1480533682456109,0.255859,0.00634766,0.978516
1480533682478669,0.258301,0.00537109,0.977539
1480533682501229,0.270508,0.0214844,0.973145
1480533682523788,0.257813,0.00488281,0.974121
1480533682541838,0.259766,-0.00976563,0.977051
1480533682561391,0.267578,0.0117188,0.979004
1480533682576428,0.267578,0.0170898,0.975098
1480533682598989,0.253906,-0.000488281,0.976563
1480533682630071,0.258301,0.00244141,0.981934
1480533682636087,0.264648,0.0141602,0.982422
1480533682658647,0.263672,0.0107422,0.974609
1480533682681207,0.259277,-0.00439453,0.973145
1480533682697752,0.26416,0.0180664,0.975586
1480533682718807,0.263184,0.019043,0.980957
1480533682741367,0.259766,0.00634766,0.975098
1480533682757911,0.261719,0.000488281,0.97998
1480533682778967,0.260254,0.0146484,0.984375
1480533682801527,0.265625,0.0180664,0.975586
1480533682819578,0.262207,0.00146484,0.980957
1480533682838626,0.260742,0.0112305,0.973633
1480533682861186,0.265625,0.03125,0.972656
1480533682883749,0.26416,0.00439453,0.974609
1480533682898787,0.260254,-0.00292969,0.978516
1480533682924355,0.265137,0.00830078,0.977051
1480533682939395,0.265625,0.00634766,0.971191
1480533682958947,0.260742,-0.00341797,0.969238
1480533682981506,0.260254,0.00292969,0.978516
1480533682998050,0.265625,0.0244141,0.979004
1480533683018605,0.265625,0.0219727,0.974121
1480533683042670,0.255859,-0.00195313,0.970215
1480533683059213,0.262207,0.0136719,0.967773
1480533683078765,0.273926,0.0117188,0.978027
1480533683101832,0.262207,0.00878906,0.97998
1480533683119373,0.25,0.0078125,0.98584
1480533683138925,0.257324,0.0239258,0.973633
1480533683161485,0.270996,0.0102539,0.979492
1480533683179032,0.262695,-0.0102539,0.972168
1480533683199589,0.258789,-0.000976563,0.978516
1480533683221144,0.26416,0.0307617,0.97168
1480533683239192,0.26123,0.0200195,0.97168
1480533683258744,0.257324,0.00292969,0.979004
1480533683281303,0.264648,0.0263672,0.976074
1480533683306872,0.264648,0.0219727,0.967285
1480533683318904,0.265625,0.0224609,0.967773
1480533683348985,0.265625,0.0126953,0.975098
1480533683359524,0.265137,0.0185547,0.991699
1480533683378562,0.257324,-0.00195313,0.979004
1480533683402125,0.25293,-0.0249023,0.983887
1480533683419170,0.259766,-0.00585938,0.974609
1480533683438723,0.264648,0.0200195,0.975586
1480533683478328,0.262207,0.00683594,0.96875
1480533683480834,0.260254,0.00732422,0.977051
1480533683506403,0.269531,0.0297852,0.96875
1480533683521442,0.266602,0.00195313,0.972656
1480533683544002,0.255371,-0.00634766,0.97998
1480533683560548,0.262695,0.019043,0.973633
1480533683581101,0.270996,0.0356445,0.969727
1480533683599654,0.267578,0.0263672,0.974121
1480533683618701,0.261719,-0.00585938,0.978516
1480533683648781,0.26123,0.0078125,0.979492
1480533683660312,0.260254,0.00537109,0.980469
1480533683678861,0.254883,-0.0200195,0.98291
1480533683701421,0.259766,-0.000488281,0.98291
1480533683731500,0.26709,0.0336914,0.973145
1480533683741528,0.264648,0.0161133,0.970215
1480533683768599,0.257324,0.0141602,0.977051
1480533683785143,0.266113,0.00976563,0.970215
1480533683823746,0.269531,0.00830078,0.972656
1480533683826254,0.260254,-0.00634766,0.982422
1480533683843800,0.254883,-0.0112305,0.986328
1480533683861848,0.260254,0.0180664,0.98291
1480533683881400,0.266113,0.0253906,0.972168
1480533683903963,0.256348,0.00195313,0.966797
1480533683928026,0.259766,-0.00390625,0.974121
1480533683941560,0.27002,0.0200195,0.978027
1480533683963619,0.26123,0.00292969,0.970703
1480533683980163,0.254883,-0.00488281,0.976563
1480533684001219,0.260742,0.0185547,0.98291
1480533684023779,0.265137,0.0205078,0.976074
1480533684048344,0.254883,0.00244141,0.973633
1480533684065390,0.263672,0.00146484,0.98291
1480533684083939,0.264648,0.0209961,0.974609
1480533684101486,0.26416,0.00390625,0.967773
1480533684121538,0.254395,0.00634766,0.97998
1480533684145101,0.259277,0.0146484,0.978516
1480533684167662,0.262695,0.0078125,0.978516
1480533684181198,0.258789,-0.00830078,0.976563
1480533684203758,0.256836,-0.0117188,0.980469
1480533684222808,0.263184,0.015625,0.981934
1480533684241360,0.262207,0.00439453,0.975098
1480533684272942,0.249512,-0.0205078,0.989746
1480533684281464,0.262207,-0.0161133,0.980957
1480533684301518,0.269043,0.00830078,0.974121
1480533684326585,0.265137,0.0249023,0.964844
1480533684349147,0.256348,0.0273438,0.96875
1480533684361176,0.268066,0.0224609,0.977539
1480533684383737,0.270996,0.0297852,0.978027
1480533684401784,0.258789,-0.0126953,0.975586
1480533684421336,0.25293,-0.0112305,0.980469
1480533684443896,0.271484,0.0219727,0.976563
1480533684461944,0.259277,-0.00341797,0.975098
1480533684483004,0.254395,0,0.980957
1480533684504558,0.266113,0.00683594,0.974121
1480533684521603,0.264648,0.00585938,0.974121
1480533684541154,0.254395,-0.00927734,0.977051
1480533684563715,0.263184,-0.00488281,0.977051
1480533684581763,0.270996,-0.00634766,0.990234
1480533684602819,0.260742,0.00878906,0.980957
1480533684623876,0.256836,0.0288086,0.970215
1480533684641923,0.263672,0.0361328,0.968262
1480533684661475,0.266602,0.0292969,0.96875
1480533684683533,0.268066,0.0180664,0.972168
1480533684701582,0.261719,0.00878906,0.973633
1480533684724142,0.265625,0.000976563,0.981445
1480533684743693,0.26416,0.0078125,0.986816
1480533684761742,0.259277,-0.00195313,0.976563
1480533684782800,0.251465,0.00683594,0.977539
1480533684806862,0.267578,0.0209961,0.974121
1480533684821902,0.271484,0.00146484,0.974121
1480533684842957,0.26123,0.00195313,0.974609
1480533684864013,0.259766,0.027832,0.982422
1480533684881561,0.268555,0.027832,0.977539
1480533684902616,0.255371,-0.00537109,0.974609
1480533684923673,0.255859,0.0112305,0.971191
1480533684941720,0.272461,0.027832,0.967773
1480533684962776,0.264648,0.00683594,0.973633
1480533684983832,0.259766,0.0078125,0.977051
1480533685007896,0.26416,0.00927734,0.975098
1480533685024942,0.264648,0.0200195,0.974121
1480533685051514,0.259766,0.00244141,0.972168
1480533685061540,0.260742,-0.00244141,0.966309
1480533685088611,0.262207,0.0195313,0.979004
1480533685103651,0.265137,0.0273438,0.978027
1480533685137742,0.263672,0.00732422,0.972168
1480533685144259,0.263672,0.00292969,0.975098
1480533685163812,0.267578,0.0249023,0.973145
1480533685181860,0.257813,0.00683594,0.973145
1480533685208931,0.251953,-0.00585938,0.979004
1480533685223971,0.263184,0.0258789,0.977539
1480533685241518,0.266602,0.0117188,0.968262
1480533685264079,0.259766,-0.0126953,0.982422
1480533685283630,0.26416,-0.000488281,0.982422
1480533685313709,0.268555,0.0292969,0.975586
1480533685339779,0.258301,0.00585938,0.978027
1480533685343789,0.256348,-0.00927734,0.972168
1480533685366357,0.267578,0.000488281,0.97168
1480533685384397,0.273438,0.0102539,0.966797
1480533685403949,0.260254,-0.000488281,0.977051
1480533685426511,0.258789,0.00878906,0.975586
1480533685459098,0.266113,0.0209961,0.974121
1480533685463609,0.262695,0.000488281,0.979492
1480533685486169,0.254395,-0.00244141,0.981445
1480533685511736,0.260742,0.0102539,0.970703
1480533685526777,0.270996,0.0117188,0.978516
1480533685553849,0.267578,-0.00195313,0.980469
1480533685580419,0.260742,-0.00634766,0.97998
1480533685593454,0.260742,0.0229492,0.978027
1480533685606489,0.262695,0.0205078,0.977539
1480533685624035,0.261719,0.00244141,0.979492
1480533685645091,0.264648,0.00878906,0.977051
1480533685666151,0.26416,0.0297852,0.98291
1480533685686201,0.265625,0.0170898,0.981934
1480533685705753,0.262207,0.00585938,0.979492
1480533685726309,0.264648,0.00244141,0.970703
1480533685744355,0.272949,-0.00341797,0.977051
1480533685765412,0.266113,-0.0229492,0.970215
1480533685786468,0.266113,-0.0102539,0.975586
1480533685811535,0.272949,0.0131836,0.96582
1480533685825070,0.270996,0.00683594,0.97168
1480533685853646,0.265137,-0.00927734,0.972656
1480533685879214,0.268555,0.0112305,0.971191
1480533685885230,0.271484,0.00292969,0.978027
1480533685906286,0.271973,-0.00683594,0.975586
1480533685924835,0.267578,0.00195313,0.970215
1480533685945390,0.270996,0.0214844,0.971191
1480533685990009,0.272949,0.0175781,0.981934
1480533685998032,0.269043,-0.0102539,0.983887
1480533686008057,0.263672,0.0166016,0.978027
1480533686027609,0.262695,0.0249023,0.994141
1480533686049169,0.268555,0.0263672,0.977539
1480533686066717,0.271484,0.00341797,0.975098
1480533686086265,0.272949,0.000488281,0.97168
1480533686104313,0.273438,-0.0166016,0.964844
1480533686134394,0.263672,-0.034668,0.976074
1480533686147929,0.267578,-0.0136719,0.976563
1480533686168985,0.272949,0.0107422,0.96875
1480533686186532,0.26709,-0.00488281,0.972168
1480533686206585,0.273438,-0.0239258,0.976563
1480533686224132,0.274414,-0.00244141,0.974121
1480533686253711,0.270508,0.00585938,0.97168
1480533686267748,0.263184,-0.00830078,0.971191
1480533686284793,0.26709,-0.00439453,0.976074
1480533686308857,0.270996,0.0112305,0.970703
1480533686328911,0.272949,-0.00292969,0.976563
1480533686343950,0.267578,-0.0136719,0.97998
1480533686366513,0.269043,0.000976563,0.974121
1480533686389070,0.268555,0.0141602,0.971191
1480533686411630,0.261719,-0.00732422,0.978027
1480533686434692,0.262695,0,0.980957
1480533686446222,0.269043,0.0205078,0.967285
1480533686485829,0.267578,0.0141602,0.973633
1480533686488335,0.265625,-0.00244141,0.97168
1480533686509390,0.264648,0.00390625,0.975586
1480533686529446,0.262695,0.0107422,0.976074
1480533686551502,0.269043,0.00634766,0.979004
1480533686567044,0.260254,-0.00390625,0.974609
1480533686584089,0.268555,0.0151367,0.970703
1480533686611161,0.269043,0.00830078,0.980469
1480533686627706,0.263184,-0.00195313,0.976563
1480533686644249,0.254883,-0.00292969,0.983887
1480533686666809,0.258301,0.0249023,0.981934
1480533686689369,0.265137,0.00341797,0.973633
1480533686710425,0.265625,-0.0283203,0.980957
1480533686726969,0.266113,-0.00488281,0.978027
1480533686748025,0.266602,0.0146484,0.975098
1480533686765070,0.26123,0.0146484,0.973145
1480533686786628,0.255859,-0.00585938,0.98584
1480533686809188,0.260742,0.00683594,0.981445
1480533686832251,0.261719,0.00976563,0.97168
1480533686847289,0.259766,-0.0195313,0.970703
1480533686875364,0.262695,-0.000976563,0.985352
1480533686884388,0.26709,0.0224609,0.979492
1480533686906446,0.264648,0.00732422,0.970703
1480533686930010,0.255859,-0.00488281,0.97168
1480533686944050,0.258301,0.00244141,0.975586
1480533686967108,0.267578,0.0107422,0.973633
1480533686989166,0.261719,-0.0102539,0.979492
1480533687016243,0.256836,-0.00390625,0.984375
1480533687039300,0.264648,0.015625,0.975586
1480533687049330,0.265625,0.0161133,0.978027
1480533687068879,0.255859,-0.00195313,0.970215
1480533687086425,0.263672,0.00341797,0.975586
1480533687117508,0.266602,0.0131836,0.977051
1480533687136559,0.26416,-0.00292969,0.977051
1480533687146585,0.258789,0.00146484,0.973633
1480533687169146,0.257813,0.0175781,0.976563
1480533687190201,0.262695,0.00683594,0.968262
1480533687206745,0.260254,-0.0161133,0.97998
1480533687229306,0.259766,-0.00537109,0.976563
1480533687256378,0.262207,0.00976563,0.977539
1480533687266407,0.26123,-0.00195313,0.98291
1480533687288964,0.257324,-0.00537109,0.980957
1480533687309518,0.260742,0.0214844,0.97998
1480533687326064,0.265137,0.0078125,0.977539
1480533687348122,0.265137,-0.0161133,0.970703
1480533687376697,0.262207,-0.00878906,0.977539
1480533687385722,0.265625,0.0161133,0.976563
1480533687408282,0.262207,0.000976563,0.972656
1480533687430841,0.260254,-0.000488281,0.977539
1480533687445883,0.26123,0.00976563,0.974609
1480533687468441,0.260254,0.0112305,0.976074
1480533687489998,0.261719,-0.0112305,0.977051
1480533687508047,0.265625,-0.00537109,0.977539
1480533687550661,0.263672,0.00927734,0.979492
1480533687559684,0.261719,0.0126953,0.980957
1480533687573220,0.257813,-0.000976563,0.975586
1480533687594277,0.259766,0.00244141,0.972656
1480533687609818,0.26416,0.0131836,0.975098
1480533687625860,0.262695,-0.0136719,0.977051
1480533687647920,0.256836,-0.00830078,0.981934
1480533687669476,0.263184,0.0141602,0.984375
1480533687687023,0.265137,0.0117188,0.969727
1480533687708580,0.256836,-0.012207,0.977051
1480533687737156,0.263184,-0.00341797,0.969727
1480533687746180,0.260742,0.0107422,0.981934
1480533687769242,0.265137,-0.0078125,0.975098
1480533687796815,0.256836,-0.012207,0.975098
1480533687813359,0.261719,0.00732422,0.974121
1480533687828399,0.26123,0.0195313,0.973633
1480533687866500,0.258789,-0.00878906,0.978516
1480533687869007,0.26123,-0.00439453,0.976563
1480533687888558,0.263672,0.0151367,0.972656
1480533687918138,0.265137,0.00195313,0.985352
1480533687932177,0.26416,-0.0112305,0.984863
1480533687948219,0.256348,0,0.984863
1480533687970778,0.259277,0.0126953,0.976563
1480533687986319,0.255371,-0.00634766,0.972656
1480533688015900,0.256348,-0.015625,0.975098
1480533688030939,0.263184,0.0107422,0.974121
1480533688061519,0.266113,0.00976563,0.976563
1480533688077562,0.255371,0.00537109,0.974609
1480533688091599,0.258301,0.00488281,0.974609
1480533688111651,0.265137,0.00244141,0.977051
1480533688128698,0.260254,-0.00927734,0.974609
1480533688158276,0.258789,-0.00488281,0.976563
1480533688165296,0.266113,0.0117188,0.97168
1480533688188356,0.265625,0.0146484,0.976563
1480533688210916,0.263184,0.00878906,0.976074
1480533688231975,0.256348,0.000976563,0.975586
1480533688263557,0.258789,0.00292969,0.979004
1480533688271076,0.26123,-0.0180664,0.975586
1480533688285113,0.262695,-0.0102539,0.974609
1480533688308175,0.262695,0.00927734,0.976563
1480533688330735,0.270996,0.0239258,0.972656
1480533688353295,0.263184,-0.00146484,0.975586
1480533688369338,0.258301,-0.00292969,0.977051
1480533688391397,0.263672,0.0117188,0.981934
1480533688413455,0.262695,-0.0102539,0.980957
1480533688428496,0.263184,-0.0141602,0.973145
1480533688451056,0.260742,0.00390625,0.980469
1480533688472111,0.264648,0.0195313,0.975098
1480533688489659,0.26123,0.00292969,0.977051
1480533688510714,0.260254,-0.0102539,0.978027
1480533688531770,0.271484,0.00634766,0.972656
1480533688548316,0.270996,0.015625,0.973633
1480533688570873,0.263184,0.00976563,0.967773
1480533688592431,0.26416,0.0126953,0.968262
1480533688609478,0.270996,0.0380859,0.969727
1480533688631536,0.266113,0.0224609,0.961914
1480533688652089,0.260254,-0.0180664,0.986816
1480533688668634,0.257813,-0.0112305,0.98877
1480533688690693,0.251465,-0.00244141,0.982422
1480533688711748,0.253418,-0.0488281,0.985352
1480533688728294,0.258789,-0.0292969,0.977051
1480533688750853,0.273438,0.0117188,0.967773
1480533688781434,0.270508,-0.0117188,0.970703
1480533688788453,0.263672,-0.00292969,0.979004
1480533688811013,0.268066,0.00976563,0.973633
1480533688833574,0.265137,0.00585938,0.979492
1480533688849129,0.259277,-0.0244141,0.980469
1480533688870672,0.263184,-0.0200195,0.972168
1480533688909275,0.272949,0.0161133,0.963379
1480533688912282,0.269043,0.0239258,0.975586
1480533688938352,0.260742,-0.00585938,0.970215
1480533688953391,0.265625,-0.0112305,0.973145
1480533688968936,0.265625,-0.0131836,0.98291
1480533688990991,0.256836,-0.0336914,0.978027
1480533689013551,0.251953,-0.0385742,0.975098
1480533689028092,0.265625,-0.00878906,0.976074
1480533689051151,0.27002,0.0126953,0.982422
1480533689081232,0.260742,0.00292969,0.970703
1480533689087749,0.259277,-0.00634766,0.972656
1480533689110810,0.264648,0.00195313,0.973145
1480533689133373,0.265625,-0.0131836,0.981445
1480533689147909,0.257813,-0.03125,0.977051
1480533689170970,0.260742,-0.00878906,0.980957
1480533689201050,0.268066,0.0146484,0.976563
1480533689216090,0.264648,-0.00878906,0.975098
1480533689231130,0.258789,-0.0263672,0.976074
1480533689254191,0.263184,0.00634766,0.972168
1480533689267727,0.265137,0.0141602,0.96582
1480533689291792,0.252441,-0.0444336,0.984863
1480533689320869,0.260254,-0.0385742,0.983398
1480533689334405,0.268555,-0.00146484,0.973633
1480533689350948,0.26123,-0.0244141,0.975098
1480533689381030,0.249512,-0.0234375,0.990234
1480533689396069,0.259766,0.00439453,0.974609
1480533689410607,0.265625,0.0146484,0.976074
1480533689447706,0.258301,-0.0175781,0.968262
1480533689461744,0.257813,-0.0424805,0.983887
1480533689476784,0.27002,-0.0107422,0.982422
1480533689493329,0.26709,-0.00683594,0.974609
1480533689514384,0.251953,-0.0112305,0.979492
1480533689536943,0.257813,-0.00439453,0.983398
1480533689553488,0.262207,0.00683594,0.970215
1480533689575045,0.258789,-0.0112305,0.974609
1480533689598611,0.256836,-0.0263672,0.970215
1480533689613648,0.265137,-0.0141602,0.978516
1480533689634202,0.266113,-0.0170898,0.979492
1480533689650746,0.257813,-0.0166016,0.977051
1480533689673306,0.253418,-0.00976563,0.982422
1480533689694864,0.26709,-0.00292969,0.975098
1480533689710906,0.26709,-0.0107422,0.973145
1480533689740986,0.260254,-0.0136719,0.979004
1480533689754522,0.261719,-0.0102539,0.978516
1480533689771066,0.26709,0.00732422,0.969727
1480533689801146,0.255859,-0.0195313,0.975098
1480533689815686,0.25293,-0.0195313,0.978027
1480533689830725,0.265625,0.00537109,0.976074
1480533689860305,0.262695,-0.0078125,0.976074
1480533689875845,0.256348,-0.0205078,0.980957
1480533689890885,0.261719,-0.00244141,0.977539
1480533689913445,0.262207,-0.00878906,0.982422
1480533689943525,0.258789,-0.0239258,0.978516
1480533689950043,0.259277,-0.0161133,0.974121
1480533689973605,0.266113,0.00585938,0.973145
1480533690020229,0.26416,0.00488281,0.975586
1480533690024240,0.259766,-0.0205078,0.975586
1480533690040785,0.256836,-0.00146484,0.973145
1480533690055824,0.266602,0.00292969,0.973633
1480533690070364,0.262695,-0.00634766,0.977539
1480533690093426,0.256836,-0.00195313,0.97168
1480533690115984,0.263184,0.015625,0.968262
1480533690138543,0.26709,-0.0126953,0.979004
1480533690161104,0.253418,-0.0698242,1.00146
1480533690176645,0.254883,-0.0332031,0.975098
1480533690191185,0.265625,-0.00683594,0.974121
1480533690214246,0.256348,-0.0078125,0.97168
1480533690235803,0.258789,-0.0361328,0.979492
1480533690250343,0.269043,-0.00878906,0.975586
1480533690297467,0.264648,0.00146484,0.969727
1480533690301978,0.251465,-0.0380859,0.980957
1480533690317520,0.26123,-0.015625,0.977051
1480533690333562,0.264648,0.00390625,0.966797
1480533690356122,0.256836,-0.0141602,0.974609
1480533690377178,0.253906,-0.0229492,0.975586
1480533690393222,0.26709,-0.0170898,0.976074
1480533690416282,0.262695,-0.0136719,0.975098
1480533690436837,0.253906,-0.0405273,0.990723
1480533690453391,0.256836,-0.0332031,0.985352
1480533690475950,0.264648,-0.00878906,0.974121
1480533690497007,0.252441,-0.0200195,0.978516
1480533690513550,0.258789,-0.0292969,0.979492
1480533690536111,0.263672,-0.00439453,0.976074
1480533690556665,0.262695,0.00927734,0.964844
1480533690573209,0.258301,-0.0317383,0.984375
1480533690602286,0.26123,-0.0302734,0.977051
1480533690616825,0.260254,-0.00927734,0.970215
1480533690633369,0.257813,-0.0112305,0.97998
1480533690655929,0.254883,-0.0317383,0.983398
1480533690676985,0.262695,-0.019043,0.972656
1480533690694032,0.262207,0.00830078,0.966797
1480533690716089,0.260742,0.000488281,0.978516
1480533690738148,0.259277,-0.0327148,0.978027
1480533690753188,0.263672,-0.0180664,0.980957
1480533690775748,0.26416,-0.0107422,0.978516
1480533690806329,0.259277,-0.0263672,0.979004
1480533690813347,0.250977,-0.0341797,0.979492
1480533690841924,0.263184,-0.00683594,0.97998
1480533690858969,0.263672,-0.0234375,0.986816
1480533690881029,0.255859,-0.0673828,0.984863
1480533690896070,0.259766,-0.0263672,0.982422
1480533690918628,0.269043,-0.00683594,0.972168
1480533690932665,0.262695,-0.0263672,0.974121
1480533690956733,0.259277,-0.012207,0.96582
1480533690985807,0.268555,0.0317383,0.963867
1480533690992826,0.273438,0.0263672,0.962891
1480533691023407,0.264648,-0.0200195,0.975586
1480533691038454,0.270996,-0.0107422,0.981934
1480533691052484,0.270996,-0.00634766,0.973633
1480533691076048,0.259766,-0.0258789,0.971191
1480533691104622,0.255371,-0.0229492,0.983398
1480533691112644,0.260254,-0.0283203,0.975098
1480533691135705,0.268555,0.00292969,0.973145
1480533691158265,0.268555,-0.0263672,0.972168
1480533691172804,0.265137,-0.0195313,0.975098
1480533691196017,0.266602,0.0136719,0.974121
1480533691218425,0.261719,0.00195313,0.974121
1480533691239983,0.26123,-0.0273438,0.978516
1480533691263545,0.266113,-0.0136719,0.980469
1480533691279087,0.265625,-0.00585938,0.969727
1480533691299643,0.266113,-0.0195313,0.975098
1480533691315686,0.263184,-0.0141602,0.97998
1480533691339749,0.271973,-0.00341797,0.971191
1480533691359300,0.27002,-0.00634766,0.974121
1480533691375844,0.260254,-0.019043,0.97168
1480533691406425,0.262695,-0.0166016,0.974609
1480533691420964,0.271973,-0.00439453,0.977051
1480533691437508,0.269531,-0.00439453,0.979004
1480533691458565,0.261719,-0.0117188,0.969238
1480533691479620,0.266113,0.00634766,0.970703
1480533691496164,0.269531,0.00390625,0.976563
1480533691519225,0.266602,-0.0371094,0.976563
1480533691540783,0.262695,-0.0307617,0.974609
1480533691555823,0.262207,-0.00830078,0.979492
1480533691578383,0.266113,-0.0107422,0.968262
1480533691599440,0.266113,-0.012207,0.972168
1480533691615984,0.269531,-0.00488281,0.973145
1480533691638544,0.277832,0.00292969,0.984375
1480533691659600,0.264648,-0.0214844,0.974121
1480533691683161,0.254883,-0.0107422,0.974609
1480533691698708,0.268555,0.00244141,0.974121
1480533691721764,0.271484,-0.0175781,0.974121
1480533691735804,0.262207,-0.0200195,0.977539
1480533691758864,0.261719,-0.00488281,0.976563
1480533691780923,0.266113,0.00537109,0.977051
1480533691803481,0.264648,-0.00292969,0.973145
1480533691818522,0.260742,-0.0263672,0.981934
1480533691841081,0.265625,-0.00244141,0.979004
1480533691855119,0.272461,-0.00146484,0.970215
1480533691878180,0.261719,-0.0258789,0.975098
1480533691900741,0.26416,-0.0195313,0.980469
1480533691916282,0.269531,0.00292969,0.976563
1480533691938341,0.262695,-0.00537109,0.978516
1480533691961405,0.254395,-0.0263672,0.970703
1480533691975439,0.262695,-0.00683594,0.967285
1480533691999006,0.272949,0.00195313,0.973145
1480533692021562,0.262695,-0.0229492,0.981445
1480533692035599,0.259766,-0.0175781,0.977539
1480533692058159,0.268066,-0.00537109,0.973145
1480533692080720,0.259766,-0.0078125,0.973145
1480533692095759,0.26123,-0.0209961,0.974609
1480533692118320,0.26416,-0.0180664,0.974121
1480533692140879,0.268066,0.00830078,0.97998
1480533692161936,0.262695,-0.0126953,0.978027
1480533692179482,0.259277,-0.0180664,0.977051
1480533692202544,0.26709,-0.00878906,0.975586
1480533692221594,0.273438,0.00390625,0.973633
1480533692239140,0.255859,-0.0244141,0.979492
1480533692260699,0.258789,-0.00976563,0.975586
1480533692283257,0.266113,-0.00390625,0.978027
1480533692298300,0.26709,-0.00683594,0.977539
1480533692320858,0.261719,-0.0317383,0.976074
1480533692341914,0.257813,-0.00585938,0.981934
1480533692358959,0.266113,0.00439453,0.981445
1480533692381018,0.258789,-0.0195313,0.977051
1480533692402576,0.259766,-0.0151367,0.972656
1480533692418116,0.270996,-0.00488281,0.978516
1480533692440676,0.265625,0.00195313,0.973633
1480533692461733,0.262207,-0.0078125,0.977539
1480533692478778,0.262207,-0.00537109,0.98291
1480533692500837,0.266602,-0.00341797,0.983887
1480533692529914,0.260254,-0.019043,0.975586
1480533692544452,0.255859,-0.0253906,0.974609
1480533692562000,0.265137,-0.00634766,0.979492
1480533692582054,0.269531,0.000976563,0.973145
1480533692598598,0.258789,-0.012207,0.975586
1480533692620671,0.259766,-0.00292969,0.980469
1480533692650735,0.270508,0.00878906,0.973145
1480533692673295,0.262207,-0.012207,0.978027
1480533692680816,0.257813,-0.0361328,0.977539
1480533692703375,0.257813,-0.00439453,0.980957
1480533692724432,0.27002,0.00585938,0.978027
1480533692747493,0.259766,-0.0170898,0.976563
1480533692763536,0.256836,-0.015625,0.986816
1480533692777573,0.265137,0.00292969,0.972168
1480533692808155,0.262695,0.00390625,0.974609
1480533692823194,0.257813,-0.0131836,0.970703
1480533692837733,0.259277,-0.00244141,0.975586
1480533692862459,0.268555,0.00537109,0.979492
1480533692883354,0.258301,-0.0107422,0.978027
1480533692897898,0.251953,-0.0195313,0.972168
1480533692944015,0.26416,0.0117188,0.977051
1480533692946523,0.266113,0.0131836,0.969238
1480533692973093,0.260254,-0.015625,0.974609
1480533692981615,0.259277,-0.0112305,0.977539
1480533693003173,0.268555,-0.0107422,0.982422
1480533693017711,0.259277,-0.0112305,0.980957
1480533693040773,0.251953,-0.0170898,0.984863
1480533693070853,0.263672,0.00585938,0.980957
1480533693085893,0.265625,0.00390625,0.972656
1480533693101936,0.259277,-0.0126953,0.971191
1480533693123493,0.256348,-0.0141602,0.983887
1480533693144548,0.27002,0,0.977051
1480533693160592,0.262695,0.00244141,0.981445
1480533693191172,0.251953,-0.0229492,0.976563
1480533693206213,0.260742,-0.00683594,0.976563
1480533693220752,0.268066,0.0180664,0.978027
1480533693243311,0.262695,-0.00488281,0.975586
1480533693265874,0.26123,-0.00976563,0.975098
1480533693280913,0.262695,-0.000488281,0.986328
1480533693303471,0.263672,0.00341797,0.976074
1480533693324528,0.259766,-0.0175781,0.970703
1480533693349594,0.256836,-0.0112305,0.977539
1480533693364135,0.272461,0.00390625,0.975586
1480533693384186,0.26416,-0.0117188,0.977051
1480533693400731,0.260254,-0.0166016,0.976563
1480533693423290,0.266113,0.0175781,0.971191
1480533693445851,0.266602,-0.000976563,0.97168
1480533693469414,0.258789,-0.0283203,0.981445
1480533693489467,0.259277,-0.0180664,0.979004
1480533693504506,0.265625,-0.000976563,0.971191
1480533693521051,0.265625,-0.00683594,0.977051
1480533693543108,0.265137,0.00390625,0.966797
1480533693564165,0.257324,0.0180664,0.972168
1480533693580710,0.265625,0.0141602,0.980957
1480533693603270,0.261719,-0.0078125,0.97998
1480533693626832,0.252441,-0.0126953,0.97998
1480533693642373,0.26709,-0.00537109,0.983398
1480533693664940,0.26416,-0.00488281,0.970215
1480533693687493,0.258789,-0.00976563,0.977051
1480533693701030,0.265625,-0.00195313,0.974121
1480533693731114,0.26123,0.00390625,0.979492
1480533693746650,0.259766,0.0161133,0.973145
1480533693760689,0.263184,-0.0107422,0.958984
1480533693783247,0.268066,0.00146484,0.976563
1480533693805808,0.274414,0.00244141,0.975098
1480533693820346,0.266602,-0.00195313,0.972168
1480533693843408,0.259766,-0.00244141,0.978516
1480533693865968,0.26416,0.00732422,0.978027
1480533693880005,0.269043,-0.012207,0.978516
1480533693903568,0.257813,-0.0224609,0.97168
1480533693925626,0.268555,0.00976563,0.976563
1480533693940165,0.276855,0.0102539,0.972168
1480533693963729,0.262695,-0.0107422,0.979004
1480533693986790,0.253418,-0.00878906,0.975586
1480533694000327,0.265137,0.0131836,0.972656
1480533694024389,0.27002,-0.00195313,0.973145
1480533694045445,0.256836,-0.027832,0.97998
1480533694067504,0.26416,-0.00439453,0.979492
1480533694083546,0.271973,0.0117188,0.976074
1480533694105605,0.268066,-0.000488281,0.972656
1480533694127665,0.262207,-0.00439453,0.981934
1480533694143205,0.262207,-0.00292969,0.978516
1480533694165767,0.266602,-0.00244141,0.975098
1480533694194341,0.260742,-0.0161133,0.975586
1480533694203365,0.262207,-0.0161133,0.983398
1480533694226428,0.270508,-0.000976563,0.980469
1480533694246982,0.266602,-0.000976563,0.969238
1480533694263525,0.255859,0.00878906,0.972168
1480533694285585,0.262207,0.0146484,0.973145
1480533694306640,0.26123,0.0185547,0.97168
1480533694323184,0.260254,-0.0175781,0.967285
1480533694345743,0.26416,-0.0175781,0.979004
1480533694366800,0.26416,-0.00146484,0.98584
1480533694383344,0.258301,-0.00634766,0.983887
1480533694405905,0.255859,0.000976563,0.977539
1480533694434480,0.263672,0.0117188,0.97168
1480533694443504,0.270996,0.0102539,0.97168
1480533694473584,0.265625,-0.012207,0.973145
1480533694487120,0.260742,-0.00390625,0.97168
1480533694503163,0.261719,0.00292969,0.976563
1480533694531743,0.265625,0.0131836,0.981445
1480533694554299,0.258301,-0.0136719,0.973633
1480533694563824,0.256836,-0.00488281,0.970215
1480533694585883,0.268555,0.00732422,0.978516
1480533694608945,0.271484,0.000488281,0.983887
1480533694629498,0.257324,-0.00244141,0.972168
1480533694646043,0.256348,0.0112305,0.975586
1480533694669105,0.264648,0.0107422,0.971191
1480533694682641,0.258301,-0.012207,0.977539
1480533694711717,0.258789,-0.0175781,0.980957
1480533694735781,0.270996,0.00683594,0.98584
1480533694750821,0.265625,0.000488281,0.973145
1480533694765862,0.255859,-0.00927734,0.970215
1480533694804464,0.260742,0.00732422,0.97998
1480533694809979,0.26416,0.0117188,0.976074
1480533694826524,0.259277,-0.00732422,0.977051
1480533694855600,0.261719,-0.00634766,0.973633
1480533694870640,0.262695,0.0136719,0.974609
1480533694885680,0.26709,0.00732422,0.976074
1480533694908745,0.260254,-0.00878906,0.972656
1480533694922779,0.260254,0.00341797,0.976074
1480533694946844,0.26416,0.0136719,0.979492
1480533694974417,0.258789,-0.000488281,0.978027
1480533695014525,0.254883,-0.0078125,0.973145
1480533695016528,0.260742,-0.00878906,0.983887
1480533695030065,0.263672,0.0141602,0.972656
1480533695049616,0.259766,-0.00585938,0.973633
1480533695066662,0.259277,-0.000488281,0.979492
1480533695088219,0.267578,0.0273438,0.97998
1480533695109275,0.260254,0.0180664,0.973145
1480533695133339,0.257813,0.00537109,0.981934
1480533695148880,0.26416,0.00537109,0.96875
1480533695169434,0.271973,0.00732422,0.972656
1480533695185979,0.259766,-0.00341797,0.970703
1480533695208539,0.253906,0.00244141,0.984863
1480533695229596,0.262695,0.0327148,0.973633
1480533695245638,0.267578,0.0205078,0.973633
1480533695268198,0.257813,-0.00927734,0.967285
1480533695290758,0.263184,0,0.981445
1480533695311813,0.27002,0.012207,0.977051
1480533695328859,0.258301,0.00439453,0.972168
1480533695349414,0.245605,0.00976563,0.974121
1480533695366459,0.262695,0.0224609,0.980469
1480533695388518,0.26416,0.0131836,0.969238
1480533695410576,0.255371,-0.015625,0.983398
1480533695448678,0.257324,-0.00244141,0.976563
1480533695451185,0.269531,0.0180664,0.975098
1480533695471238,0.26416,0.00439453,0.979492
1480533695486278,0.255371,0.00146484,0.97168
1480533695515856,0.261719,0.0102539,0.979004
1480533695530898,0.261719,0.0107422,0.977051
1480533695551952,0.257813,-0.00732422,0.973145
1480533695569499,0.254395,-0.000488281,0.982422
1480533695591057,0.26416,0.0288086,0.970703
1480533695606598,0.266602,0.0253906,0.977539
1480533695643696,0.257813,0.00683594,0.96875
1480533695652219,0.258301,0.00830078,0.978027
1480533695665258,0.260254,-0.000976563,0.984375
1480533695688817,0.26123,-0.0107422,0.983398
1480533695710875,0.257324,-0.0151367,0.97168
1480533695725414,0.261719,0.0146484,0.972656
1480533695755995,0.269043,0.0288086,0.973633
1480533695771035,0.262207,-0.000976563,0.975586
1480533695792091,0.256348,0.0078125,0.980469
1480533695808135,0.262695,0.0273438,0.978027
1480533695830694,0.259766,-0.00195313,0.973145
1480533695845233,0.26123,-0.0117188,0.978516
1480533695868294,0.266602,0.0131836,0.970703
1480533695890854,0.265137,0.0302734,0.975586
1480533695911909,0.259277,0.00439453,0.980957
1480533695928454,0.26416,-0.00146484,0.977539
1480533695950512,0.263672,0.0170898,0.979004
1480533695979590,0.259277,0.0078125,0.977051
1480533695988112,0.260742,-0.00537109,0.970215
1480533696010672,0.268555,0.012207,0.978027
1480533696031730,0.269531,0.0224609,0.975098
1480533696048273,0.26123,0.00683594,0.975098
1480533696070833,0.255371,0.00830078,0.976563
1480533696099409,0.259277,0.00878906,0.982422
1480533696108434,0.266113,0.00634766,0.980469
1480533696138011,0.261719,-0.00683594,0.97168
1480533696159569,0.259766,0.0117188,0.976074
1480533696168092,0.269531,0.0263672,0.974121
1480533696196668,0.266602,0.00488281,0.97998
1480533696212209,0.261719,0.00439453,0.975098
1480533696228252,0.259277,0.00488281,0.977539
1480533696274876,0.266602,0.00244141,0.981445
1480533696279389,0.260254,0.000976563,0.974609
1480533696288411,0.26416,0.00830078,0.975098
1480533696310972,0.268066,0.0297852,0.969727
1480533696332027,0.261719,0.015625,0.979492
1480533696355089,0.257813,-0.0117188,0.979492
1480533696386673,0.263184,0.015625,0.970703
1480533696392689,0.268555,0.0107422,0.97168
1480533696414249,0.266113,-0.000488281,0.970215
1480533696431295,0.26123,-0.00244141,0.977539
1480533696453350,0.263672,0.0112305,0.986328
1480533696467889,0.257324,0.0102539,0.97998
1480533696496966,0.255859,-0.00195313,0.975098
1480533696513513,0.26123,0.00244141,0.979492
1480533696536070,0.26709,0.0258789,0.973145
1480533696557126,0.258789,0.012207,0.970703
1480533696573672,0.256836,0.00195313,0.972656
1480533696587708,0.261719,0.0117188,0.97998
1480533696616784,0.262695,0.00927734,0.979004
1480533696633329,0.250977,-0.0102539,0.979004
1480533696661905,0.259766,-0.0102539,0.979492
1480533696678450,0.270508,0.0117188,0.977051
1480533696693992,0.262695,0.00830078,0.97998
1480533696723569,0.252441,-0.000976563,0.968262
1480533696732594,0.26123,0.0126953,0.979492
1480533696753147,0.268555,0.0151367,0.972656
1480533696768689,0.262207,-0.00244141,0.975586
1480533696790748,0.248535,-0.00195313,0.975098
1480533696813810,0.26123,0.0166016,0.980957
1480533696827847,0.265625,0.00537109,0.983398
1480533696850908,0.258789,-0.0107422,0.979004
1480533696873468,0.259766,0.0117188,0.972168
1480533696887505,0.264648,0.0214844,0.966309
1480533696919592,0.258301,0.00146484,0.973145
1480533696933126,0.254883,-0.0102539,0.973633
1480533696954182,0.262695,0.0102539,0.975098
1480533696971228,0.266113,0.00878906,0.980957
1480533696994290,0.258301,-0.0200195,0.973633
1480533697014342,0.26123,-0.00585938,0.982422
1480533697038407,0.265625,0.0170898,0.978027
1480533697053446,0.26123,0.00585938,0.973145
1480533697074503,0.25293,-0.0107422,0.975586
1480533697091548,0.260254,0.00976563,0.972656
1480533697127645,0.267578,0.00634766,0.981445
1480533697134663,0.256836,-0.0117188,0.97998
1480533697150705,0.254883,0,0.977539
1480533697173265,0.259766,0.0249023,0.971191
1480533697194322,0.266113,0.0107422,0.974121
1480533697211868,0.26123,-0.012207,0.976074
1480533697233425,0.259277,0,0.974609
1480533697254481,0.258789,0.0175781,0.979492
1480533697271025,0.251465,-0.000488281,0.977539
1480533697293085,0.250488,-0.00292969,0.987793
1480533697314144,0.257324,0.0136719,0.977051
1480533697336700,0.254395,0.00830078,0.969238
1480533697353244,0.255859,-0.00390625,0.978516
1480533697383826,0.268555,-0.00488281,0.977539
1480533697390843,0.268066,0.012207,0.97998
1480533697412902,0.259277,0.00976563,0.969238
1480533697435462,0.259277,0.000976563,0.975586
1480533697451004,0.256348,0.0180664,0.981445
1480533697474067,0.259766,0.00732422,0.975586
1480533697495622,0.262207,-0.0141602,0.977051
1480533697524198,0.257324,-0.0126953,0.974121
1480533697533223,0.260742,0.0224609,0.97168
1480533697555782,0.259277,0.0102539,0.974609
1480533697570322,0.258301,-0.000488281,0.974609
1480533697593382,0.258789,0.012207,0.975098
1480533697615441,0.265137,0.00537109,0.976074
1480533697631488,0.260254,-0.00244141,0.975586
1480533697661565,0.248535,0.00195313,0.98584
1480533697683121,0.259277,0.00976563,0.981934
1480533697692146,0.264648,0.0126953,0.979492
1480533697721725,0.254395,-0.00244141,0.974609
1480533697735762,0.256836,0.00341797,0.975586
1480533697750802,0.264648,0.0273438,0.98291
1480533697774365,0.260742,-0.0131836,0.980957
1480533697803441,0.261719,-0.0166016,0.980469
1480533697818481,0.259766,0.0102539,0.978027
1480533697834023,0.258301,0.00830078,0.978516
1480533697855580,0.255371,-0.000488281,0.980469
1480533697894183,0.256836,0.00683594,0.970215
1480533697896690,0.263672,0.0102539,0.97168
1480533697923260,0.26123,-0.000976563,0.978516
1480533697938305,0.254395,-0.00341797,0.976074
1480533697954343,0.261719,0.019043,0.968262
1480533697975900,0.263184,0.0253906,0.979004
1480533697996957,0.255859,-0.00341797,0.983398
1480533698014004,0.248535,-0.00390625,0.981934
1480533698036060,0.26416,0.0112305,0.974121
1480533698056615,0.26709,0.00976563,0.972168
1480533698088199,0.256348,-0.00585938,0.980957
1480533698102236,0.255859,0.0175781,0.984863
1480533698120284,0.265137,0.0263672,0.981445
1480533698140839,0.260742,-0.00439453,0.97998
1480533698161896,0.258789,-0.0126953,0.975586
1480533698178439,0.262695,0.0170898,0.970703
1480533698200999,0.269531,0.0209961,0.971191
1480533698216038,0.258301,-0.00146484,0.977051
1480533698238098,0.258789,0.0102539,0.975586
1480533698259154,0.265137,0.0219727,0.975586
1480533698276199,0.262207,0.00878906,0.979492
1480533698297260,0.256348,-0.00683594,0.976563
1480533698319316,0.265625,0.0136719,0.975098
1480533698335859,0.267578,0.0161133,0.974609
1480533698365436,0.261719,-0.000488281,0.97168
1480533698374979,0.257813,0.00830078,0.974121
1480533698403037,0.26416,0.0249023,0.977539
1480533698418577,0.260742,0.0185547,0.981934
1480533698433117,0.259277,0.00341797,0.974609
1480533698455676,0.264648,0.0146484,0.976074
1480533698485756,0.27002,0.0175781,0.971191
1480533698494281,0.270508,0.00585938,0.978027
1480533698530878,0.259766,-0.00585938,0.989258
1480533698538897,0.254395,0.0249023,0.977539
1480533698552434,0.262207,0.0209961,0.969238
1480533698585021,0.260742,-0.00976563,0.974121
1480533698613096,0.267578,0.00146484,0.973633
1480533698615601,0.269043,0.0219727,0.971191
1480533698636658,0.262207,0.0239258,0.968262
1480533698658216,0.255371,0.00683594,0.981934
1480533698674258,0.266602,0.0146484,0.976563
1480533698697319,0.26416,0.0112305,0.980957
1480533698723890,0.255859,-0.000976563,0.975098
1480533698734919,0.263184,0.0126953,0.979004
1480533698770514,0.27002,0.0332031,0.976563
1480533698780547,0.269043,0.0249023,0.974121
1480533698793575,0.259766,0.0234375,0.968262
1480533698815634,0.266602,0.034668,0.963379
1480533698839200,0.27002,0.015625,0.981934
1480533698859250,0.26709,-0.00439453,0.982422
1480533698876296,0.263184,-0.00537109,0.978516
1480533698898355,0.265625,0.0205078,0.976563
1480533698919409,0.266113,0.0288086,0.977539
1480533698935954,0.264648,0.0117188,0.977539
1480533698974055,0.259766,0.0180664,0.975586
1480533698979069,0.26709,0.0322266,0.984375
1480533698995612,0.270996,0.0117188,0.972656
1480533699018674,0.266113,0,0.969727
1480533699039229,0.269043,0.0371094,0.970215
1480533699056274,0.268555,0.0302734,0.964355
1480533699079336,0.270996,0.0151367,0.96875
1480533699099389,0.268555,0.0209961,0.972168
1480533699138995,0.274414,0.0288086,0.971191
1480533699143505,0.276367,0.0249023,0.973633
1480533699167068,0.263184,0.0141602,0.978516
1480533699175591,0.262695,0.0219727,0.977539
1480533699205672,0.27002,0.0292969,0.976563
1480533699219207,0.271484,0.0239258,0.963379
1480533699236252,0.270996,0.0214844,0.964355
1480533699259315,0.27002,0.0366211,0.968262
1480533699280871,0.271973,0.0327148,0.972656
1480533699295911,0.262695,0.0126953,0.972168
1480533699318472,0.266602,0.0229492,0.971191
1480533699341534,0.264648,0.0385742,0.969238
1480533699355570,0.270996,0.0136719,0.975586
1480533699378131,0.270996,0.00683594,0.976074
1480533699400690,0.266113,0.0297852,0.96875
1480533699415729,0.268555,0.0322266,0.966797
1480533699444306,0.268555,0.0234375,0.975098
1480533699466869,0.268066,0.0214844,0.974609
1480533699483410,0.271484,0.0253906,0.977051
1480533699498453,0.274902,0.0268555,0.97168
1480533699520509,0.268066,0.0205078,0.966797
1480533699536050,0.27002,0.0351563,0.963379
1480533699558110,0.275391,0.0336914,0.973145
1480533699589191,0.271973,0.0117188,0.970215
1480533699595208,0.26416,0.0136719,0.977051
1480533699625790,0.265625,0.0336914,0.970703
1480533699640829,0.272949,0.0395508,0.970703
1480533699655869,0.267578,0.0107422,0.970703
1480533699679431,0.263184,0.0244141,0.977051
1480533699700989,0.274414,0.0375977,0.975098
1480533699715026,0.272461,0.0273438,0.968262
1480533699741096,0.26416,0.0175781,0.968262
1480533699761654,0.273926,0.027832,0.978516
1480533699781703,0.270996,0.0234375,0.988281
1480533699798247,0.268555,0.0131836,0.974609
1480533699835347,0.261719,0.0166016,0.962402
1480533699836850,0.272461,0.0283203,0.967773
1480533699844370,0.275391,0.0170898,0.96875
1480533699867431,0.26709,0.0131836,0.964844
1480533699885982,0.266602,0.0244141,0.972656
1480533699905031,0.273926,0.027832,0.97998
1480533699923581,0.27002,0.0170898,0.973145
1480533699946142,0.263672,0.0107422,0.975586
1480533699971709,0.269043,0.0375977,0.974609
1480533699985245,0.270996,0.03125,0.96875
1480533700006301,0.265625,0.00878906,0.967285
1480533700025853,0.262207,0.000488281,0.974609
1480533700043901,0.283691,-0.0161133,0.98877
1480533700065961,0.284668,-0.034668,0.994141
1480533700088520,0.236816,-0.00488281,0.99707
1480533700103560,0.231934,0.0419922,0.976563
1480533700129825,0.271484,0.0322266,0.969727
1480533700148679,0.276367,0.0200195,0.965332
1480533700164223,0.271484,0.0395508,0.95166
1480533700186279,0.279297,0.0317383,0.976563
1480533700208840,0.278809,-0.000488281,0.986328
1480533700223880,0.26416,-0.00488281,0.972168
1480533700247442,0.254883,0.0126953,0.966797
1480533700268499,0.263672,0.00537109,0.976563
1480533700283539,0.263672,0.00390625,0.97168
1480533700309107,0.264648,0.0131836,0.970215
1480533700329194,0.26709,0.0263672,0.974121
1480533700343698,0.269531,0.0170898,0.975098
1480533700366259,0.261719,-0.015625,0.978027
1480533700388818,0.265137,0.00390625,0.983887
1480533700403858,0.264648,0.015625,0.980469
1480533700426419,0.257324,0.0117188,0.977539
1480533700450983,0.259277,-0.00488281,0.97168
1480533700464021,0.261719,0.00878906,0.981934
1480533700486077,0.268066,0.0170898,0.96875
1480533700508637,0.261719,0.00146484,0.969238
1480533700523677,0.262207,0.00634766,0.971191
1480533700546239,0.267578,0.0131836,0.970703
1480533700577821,0.266602,0.00878906,0.973633
1480533700583837,0.256348,0.00146484,0.981934
1480533700608402,0.260742,0.0209961,0.978027
1480533700628957,0.268066,0.0307617,0.967285
1480533700643496,0.263184,0.00341797,0.974609
1480533700666117,0.258789,-0.00585938,0.976074
1480533700697142,0.273926,0.0166016,0.979004
1480533700711176,0.266113,0.0263672,0.975098
1480533700726215,0.255859,0.00878906,0.96875
1480533700748775,0.257813,0.00390625,0.97998
1480533700765321,0.270996,0.0141602,0.976563
1480533700786376,0.266113,0.00439453,0.970215
1480533700811443,0.255371,0.00732422,0.972656
1480533700824979,0.267578,0.0253906,0.976563
1480533700855058,0.26709,0.0175781,0.978027
1480533700870101,0.26123,0.000976563,0.975098
1480533700886643,0.258789,0.0112305,0.97168
1480533700906696,0.26709,0.0341797,0.975586
1480533700928820,0.269531,0.00976563,0.978516
1480533700945298,0.262207,-0.00927734,0.981934
1480533700966354,0.260254,0.0141602,0.978027
1480533700988914,0.262207,0.0175781,0.973633
1480533701005966,0.259277,0.00488281,0.975098
1480533701027519,0.262207,0.00976563,0.977539
1480533701056594,0.268555,0.0229492,0.978027
1480533701072637,0.268555,0.00244141,0.984375
1480533701086173,0.259277,0,0.983398
1480533701108733,0.255371,0.0283203,0.972168
1480533701125278,0.266113,0.0288086,0.975586
1480533701146333,0.268066,-0.00195313,0.974121
1480533701168894,0.260254,-0.00195313,0.976563
1480533701186440,0.265625,0.0268555,0.976563
1480533701205992,0.263672,0.0283203,0.974609
1480533701236071,0.259766,0.000976563,0.977539
1480533701254120,0.257813,0.00878906,0.987305
1480533701269160,0.264648,0.0141602,0.980957
1480533701288712,0.262207,0.00683594,0.970703
1480533701306760,0.261719,0.00732422,0.975098
1480533701333832,0.26709,0.0214844,0.974609
1480533701357395,0.26709,0.0268555,0.975586
1480533701371432,0.257324,-0.00292969,0.97998
1480533701385971,0.256836,-0.00732422,0.978516
1480533701408531,0.261719,0.019043,0.979004
1480533701426579,0.26416,0.019043,0.974609
1480533701446133,0.260254,0.00390625,0.972656
1480533701468691,0.266602,0.0263672,0.981445
1480533701486739,0.27002,0.0327148,0.976563
1480533701506292,0.262207,0.00537109,0.975586
1480533701531859,0.26123,-0.00585938,0.976563
1480533701546899,0.26123,0.0224609,0.978516
1480533701566451,0.266113,0.0214844,0.975098
1480533701588509,0.258301,0.0136719,0.975586
1480533701606559,0.260254,0.0107422,0.978516
1480533701633630,0.26709,0.019043,0.977051
1480533701648670,0.263672,0.00341797,0.977051
1480533701688776,0.258301,0.00146484,0.974121
1480533701694794,0.26416,0.0200195,0.979004
1480533701716356,0.271973,0.0366211,0.977051
1480533701731389,0.259277,0.0141602,0.975586
1480533701746429,0.258789,0.00732422,0.980957
1480533701776008,0.266602,0.0219727,0.980469
1480533701791051,0.266113,0.0219727,0.961914
1480533701809096,0.26416,0.0078125,0.96875
1480533701836168,0.270508,0.0219727,0.984863
1480533701851208,0.264648,0.0180664,0.98584
1480533701869257,0.256836,0.0146484,0.977051
1480533701888808,0.256836,0.00390625,0.973145
1480533701929178,0.268066,0.0205078,0.976074
1480533701933929,0.271973,0.0117188,0.975586
1480533701948466,0.264648,0.00585938,0.977051
1480533701971027,0.262207,0.0273438,0.970703
1480533701988073,0.26709,0.0405273,0.975586
1480533702008628,0.262207,0.00488281,0.972168
1480533702032711,0.260254,0.00585938,0.973633
1480533702049235,0.263184,0.0263672,0.964844
1480533702071794,0.270996,0.0297852,0.97168
1480533702091347,0.265137,-0.00195313,0.980957
1480533702108894,0.260254,0.019043,0.975098
1480533702135966,0.262207,0.0444336,0.965332
1480533702152509,0.26709,0.0380859,0.970215
1480533702175070,0.260742,-0.00341797,0.975586
1480533702191614,0.266602,0.0390625,0.977051
1480533702211167,0.268066,0.0478516,0.971191
1480533702229715,0.267578,0.0214844,0.983398
1480533702248766,0.258789,-0.0117188,0.991211
1480533702271326,0.255859,-0.0195313,0.984863
1480533702288873,0.266113,-0.0146484,0.981445
1480533702309928,0.256836,-0.00878906,0.977539
1480533702348531,0.259766,0.0356445,0.978516
1480533702351539,0.272461,0.059082,0.969727
1480533702368585,0.264648,0.046875,0.962891
1480533702398664,0.266113,0.0244141,0.965332
1480533702423733,0.270508,0.0170898,0.977051
1480533702430249,0.26709,0.012207,0.979492
1480533702451308,0.256836,-0.000976563,0.978516
1480533702470856,0.259277,0.0205078,0.972168
1480533702488904,0.264648,0.0527344,0.966309
1480533702518483,0.266113,0.03125,0.975098
1480533702529513,0.263184,0.000976563,0.981934
1480533702550067,0.265137,0.0131836,0.986816
1480533702571123,0.260742,0.0200195,0.973145
1480533702589171,0.254883,0.0146484,0.979492
1480533702608725,0.256348,0.0112305,0.975586
1480533702638804,0.261719,0.043457,0.976563
1480533702649833,0.260742,0.0424805,0.974609
1480533702677907,0.251465,0.00683594,0.978516
1480533702690942,0.262695,0.0361328,0.976074
1480533702713503,0.260742,0.0571289,0.97168
1480533702731551,0.257324,0.0439453,0.966309
1480533702751102,0.258789,0.0356445,0.969727
1480533702769150,0.265137,0.0419922,0.973633
1480533702797726,0.26709,0.0253906,0.98877
1480533702814269,0.254395,0.0224609,0.972656
1480533702829310,0.250488,0.0341797,0.977539
1480533702850365,0.261719,0.0351563,0.975098
1480533702870921,0.262207,0.0263672,0.977051
1480533702888969,0.253906,0.0205078,0.977539
1480533702910025,0.256348,0.0371094,0.976563
1480533702938604,0.26416,0.0493164,0.97168
1480533702956649,0.257813,0.0288086,0.972168
1480533702977705,0.25293,0.0200195,0.979492
1480533702992244,0.260742,0.034668,0.981445
1480533703013801,0.26123,0.043457,0.972168
1480533703036361,0.255859,0.0249023,0.969727
1480533703051401,0.253418,0.0351563,0.98291
1480533703078473,0.262695,0.0463867,0.97998
1480533703091509,0.262695,0.0351563,0.971191
1480533703111059,0.255371,0.0317383,0.975586
1480533703129609,0.259766,0.0424805,0.981934
1480533703159689,0.261719,0.0351563,0.980469
1480533703178740,0.255371,0.0219727,0.977539
1480533703196792,0.259766,0.0317383,0.969238
1480533703211829,0.268066,0.046875,0.973145
1480533703234889,0.260742,0.0395508,0.97998
1480533703260963,0.251465,0.0273438,0.979004
1480533703271486,0.254395,0.0351563,0.978516
1480533703298559,0.262695,0.0390625,0.974609
1480533703315102,0.256348,0.0131836,0.974121
1480533703331646,0.253418,0.0224609,0.97998
1480533703351198,0.263184,0.0498047,0.978516
1480533703373759,0.260254,0.0478516,0.971191
1480533703391806,0.258301,0.0307617,0.973633
1480533703411358,0.259277,0.0336914,0.975098
1480533703433416,0.259277,0.0361328,0.972656
1480533703474025,0.256348,0.0180664,0.976563
1480533703476531,0.258301,0.0161133,0.979004
1480533703493580,0.268066,0.0439453,0.974609
1480533703511625,0.262695,0.0546875,0.96875
1480533703547721,0.256348,0.0253906,0.97168
1480533703553737,0.258301,0.0249023,0.979004
1480533703579309,0.266602,0.0415039,0.973633
1480533703591338,0.257813,0.0302734,0.97168
1480533703613395,0.260742,0.0205078,0.974609
1480533703631443,0.260254,0.0405273,0.974121
1480533703650996,0.262207,0.0444336,0.975586
1480533703673557,0.255859,0.0273438,0.972656
1480533703691604,0.256348,0.0297852,0.976074
1480533703735722,0.261719,0.0410156,0.980469
1480533703738228,0.26123,0.0366211,0.977051
1480533703759786,0.254395,0.0253906,0.976074
1480533703772820,0.257324,0.0380859,0.972168
1480533703793877,0.266602,0.0390625,0.977051
1480533703818942,0.259277,0.0253906,0.981445
1480533703832478,0.252441,0.0302734,0.97168
1480533703879104,0.251465,0.0410156,0.974121
1480533703882612,0.26416,0.0351563,0.978027
1480533703892639,0.254883,0.015625,0.973633
1480533703913695,0.253906,0.0283203,0.974609
1480533703940265,0.26709,0.043457,0.977539
1480533703958815,0.260254,0.0341797,0.981934
1480533703973855,0.255371,0.0205078,0.977051
1480533703998921,0.258789,0.0419922,0.977539
1480533704013961,0.262695,0.0405273,0.97168
1480533704036521,0.261719,0.0200195,0.967285
1480533704051561,0.253418,0.0234375,0.981445
1480533704074121,0.262207,0.0454102,0.98291
1480533704096684,0.263672,0.027832,0.977539
1480533704111721,0.255859,0.0175781,0.970215
1480533704134281,0.258789,0.0327148,0.972168
1480533704153833,0.258301,0.0493164,0.969727
1480533704183913,0.26123,0.0297852,0.973145
1480533704193940,0.254883,0.0283203,0.976563
1480533704216501,0.261719,0.0424805,0.972656
1480533704239059,0.259277,0.0219727,0.980957
1480533704255102,0.253418,0.0209961,0.973633
1480533704273652,0.254883,0.0283203,0.979004
1480533704293706,0.265137,0.0454102,0.972168
1480533704314260,0.262695,0.0332031,0.977539
1480533704341332,0.257813,0.0283203,0.980957
1480533704358377,0.260742,0.0385742,0.973633
1480533704374420,0.263184,0.0380859,0.980469
1480533704393472,0.257813,0.015625,0.982422
1480533704412020,0.262207,0.0209961,0.979004
1480533704434079,0.268066,0.0458984,0.975098
1480533704461151,0.258789,0.0390625,0.977539
1480533704471678,0.259277,0.0317383,0.979004
1480533704496245,0.262207,0.0493164,0.975098
1480533704513790,0.261719,0.0512695,0.969238
1480533704531839,0.255859,0.0302734,0.973633
1480533704567433,0.258301,0.00878906,0.984863
1480533704573450,0.26416,0.034668,0.976074
1480533704591498,0.26416,0.0439453,0.96875
1480533704621577,0.260742,0.019043,0.973145
1480533704636618,0.270508,0.027832,0.98291
1480533704653663,0.268066,0.0405273,0.978516
1480533704674217,0.260742,0.0410156,0.966797
1480533704695274,0.256348,0.0336914,0.969727
1480533704711818,0.263672,0.0356445,0.969727
1480533704743401,0.273438,0.0371094,0.981445
1480533704755434,0.266602,0.027832,0.973145
1480533704775988,0.256836,0.0424805,0.96875
1480533704809076,0.26709,0.0576172,0.968262
1480533704815092,0.269043,0.0341797,0.980957
1480533704843668,0.260742,0.0078125,0.98291
1480533704862218,0.267578,0.0195313,0.996094
1480533704876255,0.272949,0.0375977,0.97168
1480533704899316,0.259277,0.0454102,0.974121
1480533704913855,0.255859,0.0605469,0.952148
1480533704935916,0.266113,0.0546875,0.975586
1480533704963488,0.26709,0.0556641,0.976074
1480533705003092,0.244629,0.0522461,0.989258
1480533705005599,0.257813,0.090332,0.971191
1480533705019135,0.271973,0.0805664,0.964844
1480533705034174,0.264648,0.065918,0.95752
1480533705056735,0.263672,0.0483398,0.963379
1480533705083806,0.268555,0.0556641,0.976563
1480533705098847,0.271973,0.0717773,0.972656
1480533705123913,0.26123,0.0678711,0.971191
1480533705138452,0.259277,0.0629883,0.975098
1480533705155498,0.267578,0.0786133,0.975586
1480533705193100,0.26709,0.0810547,0.968262
1480533705203625,0.255859,0.0585938,0.967773
1480533705214153,0.256836,0.0615234,0.975098
1480533705244234,0.267578,0.0668945,0.974609
1480533705257769,0.262207,0.065918,0.966797
1480533705278826,0.254395,0.0742188,0.971191
1480533705301386,0.266113,0.0693359,0.982422
1480533705315925,0.266602,0.0644531,0.975098
1480533705333973,0.253906,0.0727539,0.967773
1480533705363049,0.255371,0.0922852,0.967773
1480533705401151,0.264648,0.105957,0.953613
1480533705416191,0.259766,0.0693359,0.965332
1480533705421204,0.252441,0.0117188,0.988281
1480533705436746,0.270508,0.0117188,0.996582
1480533705454293,0.265137,0.03125,0.979492
1480533705483370,0.253906,0.050293,0.970703
1480533705496906,0.25293,0.0698242,0.97168
1480533705520970,0.259766,0.0795898,0.973145
1480533705537013,0.26123,0.0493164,0.970215
1480533705557567,0.255859,0.0380859,0.978027
1480533705573108,0.266113,0.0454102,0.974121
1480533705598176,0.267578,0.0541992,0.971191
1480533705616724,0.256836,0.0361328,0.980469
1480533705641290,0.257324,0.0458984,0.97998
1480533705655829,0.265137,0.0673828,0.979004
1480533705676884,0.258789,0.0649414,0.97998
1480533705696440,0.254883,0.0493164,0.976074
1480533705715988,0.259277,0.0566406,0.975586
1480533705736543,0.265137,0.0678711,0.975586
1480533705761109,0.265137,0.0463867,0.968262
1480533705784671,0.253906,0.0322266,0.976563
1480533705798207,0.265137,0.0478516,0.977051
1480533705813748,0.26416,0.0751953,0.96582
1480533705835807,0.256836,0.059082,0.970703
1480533705856362,0.257813,0.0551758,0.974121
1480533705873909,0.262695,0.0541992,0.980469
1480533705895971,0.265625,0.0419922,0.973145
1480533705918527,0.25293,0.0419922,0.975586
1480533705956128,0.260254,0.0742188,0.969238
1480533705958633,0.265137,0.0634766,0.974121
1480533705984201,0.255859,0.0449219,0.987305
1480533705994731,0.257813,0.046875,0.974609
1480533706015786,0.26416,0.074707,0.970703
1480533706038346,0.262695,0.0629883,0.965332
1480533706059402,0.260254,0.0327148,0.978516
1480533706076448,0.258301,0.0498047,0.972168
1480533706098507,0.26123,0.0649414,0.97998
1480533706112545,0.259766,0.0551758,0.973145
1480533706136106,0.255371,0.043457,0.97168
1480533706158164,0.259766,0.0605469,0.973145
1480533706179220,0.26709,0.0566406,0.974609
1480533706196267,0.266602,0.0327148,0.971191
1480533706234367,0.260742,0.0498047,0.975098
1480533706247402,0.264648,0.0703125,0.976563
1480533706261943,0.263184,0.0566406,0.976563
1480533706286004,0.255859,0.034668,0.972168
1480533706292523,0.256348,0.0493164,0.973145
1480533706321599,0.263184,0.0546875,0.977051
1480533706353183,0.260742,0.0415039,0.974609
1480533706355690,0.258789,0.0454102,0.978027
1480533706375744,0.262695,0.0639648,0.972168
1480533706405322,0.260254,0.0532227,0.972656
1480533706419360,0.258789,0.0332031,0.977539
1480533706443423,0.259277,0.0478516,0.976074
1480533706458966,0.262695,0.0649414,0.970703
1480533706480021,0.263672,0.0595703,0.964355
1480533706496066,0.255859,0.0444336,0.970215
1480533706525642,0.260254,0.0532227,0.976074
1480533706539679,0.257813,0.0463867,0.972168
1480533706564746,0.259766,0.0205078,0.971191
1480533706578283,0.258301,0.0322266,0.98584
1480533706599348,0.26709,0.0644531,0.977051
1480533706630922,0.263672,0.0585938,0.97168
1480533706638442,0.259766,0.0424805,0.969238
1480533706659499,0.262207,0.0585938,0.981445
1480533706721162,0.266602,0.065918,0.973145
1480533706723669,0.258301,0.0463867,0.974121
1480533706729186,0.258789,0.034668,0.979492
1480533706735701,0.266113,0.0610352,0.975098
1480533706758261,0.260742,0.059082,0.974609
1480533706788341,0.254883,0.0458984,0.972656
1480533706803381,0.253418,0.0444336,0.974121
1480533706818421,0.266602,0.0610352,0.976074
1480533706839978,0.259277,0.0458984,0.973145
1480533706856021,0.25,0.0439453,0.969727
1480533706879084,0.262695,0.0566406,0.97168
1480533706909164,0.265137,0.0537109,0.970703
1480533706921697,0.261719,0.0463867,0.972168
1480533706938239,0.261719,0.0576172,0.976074
1480533706962309,0.264648,0.065918,0.974609
1480533707006421,0.263184,0.0424805,0.977539
1480533707008927,0.262207,0.0351563,0.969238
1480533707028480,0.265137,0.0625,0.975586
1480533707034997,0.266113,0.0566406,0.974121
1480533707065578,0.263184,0.0439453,0.979004
1480533707097164,0.259766,0.0439453,0.969238
1480533707101674,0.26416,0.0610352,0.978027
1480533707118720,0.26416,0.0512695,0.975586
1480533707148298,0.260742,0.0341797,0.980469
1480533707169354,0.260254,0.0507813,0.964355
1480533707185899,0.265625,0.0571289,0.970215
1480533707215477,0.263672,0.0498047,0.972656
1480533707217983,0.257324,0.046875,0.972656
1480533707239541,0.265137,0.0625,0.973145
1480533707267616,0.266113,0.0537109,0.973633
1480533707281653,0.260742,0.0327148,0.973633
1480533707305717,0.263184,0.0366211,0.978516
1480533707320757,0.268066,0.0595703,0.981445
1480533707359360,0.259766,0.0595703,0.970703
1480533707364373,0.254883,0.059082,0.972168
1480533707380917,0.26123,0.0605469,0.969238
1480533707434058,0.264648,0.0507813,0.974609
1480533707436566,0.257324,0.0390625,0.96875
1480533707442081,0.257324,0.0473633,0.972168
1480533707463137,0.257813,0.0537109,0.975586
1480533707478679,0.258789,0.0439453,0.98291
1480533707501738,0.251953,0.0180664,0.977539
1480533707521791,0.256836,0.0288086,0.972168
1480533707538337,0.259277,0.0546875,0.973145
1480533707568416,0.261719,0.046875,0.976074
1480533707581952,0.254395,0.0458984,0.977051
1480533707604511,0.260254,0.0625,0.978027
1480533707653142,0.262207,0.0522461,0.967773
1480533707666177,0.254883,0.0258789,0.976563
1480533707672192,0.253906,0.0307617,0.981445
1480533707687232,0.265137,0.0512695,0.980957
1480533707702273,0.258301,0.0498047,0.971191
1480533707719317,0.250977,0.0371094,0.976563
1480533707740876,0.259766,0.0410156,0.972656
1480533707769952,0.259766,0.0473633,0.981445
1480533707779477,0.256348,0.034668,0.978516
1480533707800533,0.258301,0.0375977,0.980957
1480533707822090,0.262207,0.0664063,0.96875
1480533707839137,0.265137,0.0463867,0.969238
1480533707860694,0.257813,0.0209961,0.984375
1480533707883253,0.256348,0.0371094,0.981445
1480533707898794,0.258789,0.0556641,0.972656
1480533707920853,0.260254,0.0512695,0.970215
1480533707957952,0.255371,0.0361328,0.96875
1480533707967479,0.265137,0.0551758,0.973633
1480533707980513,0.26123,0.0415039,0.979004
1480533708003072,0.256348,0.0283203,0.98584
1480533708017611,0.253906,0.0410156,0.980957
1480533708040671,0.263672,0.0600586,0.972168
1480533708063234,0.257324,0.0449219,0.97168
1480533708077772,0.259766,0.0283203,0.974609
1480533708100832,0.259277,0.0556641,0.966797
1480533708123392,0.262695,0.0722656,0.972656
1480533708137429,0.254395,0.0297852,0.986328
1480533708160993,0.256836,0.0263672,0.987305
1480533708207115,0.258789,0.0488281,0.974609
1480533708211632,0.256348,0.046875,0.973145
1480533708229675,0.258301,0.0307617,0.973633
1480533708243211,0.257324,0.0410156,0.982422
1480533708257750,0.26123,0.0566406,0.976074
1480533708281312,0.257813,0.0429688,0.978516
1480533708304374,0.253906,0.0405273,0.975586
1480533708331947,0.257813,0.0556641,0.977539
1480533708340470,0.262207,0.0429688,0.973145
1480533708364032,0.256836,0.0234375,0.98291
1480533708384085,0.256836,0.0400391,0.979492
1480533708406645,0.260254,0.0683594,0.967773
1480533708429708,0.259766,0.050293,0.976563
1480533708444749,0.255371,0.034668,0.975098
1480533708468330,0.256836,0.0493164,0.973633
1480533708485374,0.260254,0.0556641,0.974121
1480533708504425,0.256836,0.0297852,0.977539
1480533708520969,0.257813,0.0307617,0.975098
1480533708543529,0.256348,0.0556641,0.97168
1480533708564586,0.259277,0.050293,0.982422
1480533708588148,0.253906,0.027832,0.972656
1480533708610709,0.253418,0.0488281,0.977051
1480533708624244,0.260742,0.065918,0.972168
1480533708647306,0.257813,0.0415039,0.973145
1480533708669364,0.255859,0.0366211,0.974121
1480533708684404,0.265137,0.0444336,0.984863
1480533708700948,0.26416,0.0473633,0.981934
1480533708729564,0.253418,0.0361328,0.980469
1480533708746569,0.249512,0.0517578,0.96875
1480533708760607,0.265625,0.0634766,0.981934
1480533708790687,0.262695,0.043457,0.97998
1480533708806229,0.257813,0.0219727,0.976563
1480533708821769,0.259766,0.0517578,0.976074
1480533708844331,0.262207,0.0664063,0.975098
1480533708873407,0.260254,0.0405273,0.979492
1480533708888447,0.255371,0.0385742,0.981934
1480533708909503,0.255371,0.0556641,0.974121
1480533708925546,0.263672,0.0424805,0.976074
1480533708940085,0.26123,0.0258789,0.974121
1480533708963145,0.255859,0.0473633,0.98291
1480533708985705,0.260742,0.0678711,0.967285
1480533709000245,0.263672,0.0454102,0.972168
1480533709023806,0.25293,0.0380859,0.97998
1480533709046868,0.260742,0.0527344,0.97998
1480533709060405,0.262695,0.0473633,0.975586
1480533709083465,0.260742,0.0263672,0.975586
1480533709106031,0.26123,0.0454102,0.973145
1480533709120062,0.258301,0.0668945,0.978027
1480533709149140,0.26123,0.0424805,0.976563
1480533709166690,0.253906,0.0307617,0.974121
1480533709181727,0.262695,0.0541992,0.966309
1480533709203285,0.266602,0.0678711,0.964355
1480533709225844,0.258789,0.0405273,0.981934
1480533709241386,0.254883,0.0351563,0.984375
1480533709263446,0.266602,0.0566406,0.977539
1480533709286505,0.259766,0.050293,0.971191
1480533709314079,0.254883,0.0380859,0.973145
1480533709323103,0.257324,0.0463867,0.977051
1480533709345663,0.26416,0.059082,0.975586
1480533709366720,0.261719,0.0454102,0.969727
1480533709392789,0.257324,0.0449219,0.96582
1480533709405829,0.268555,0.0556641,0.972168
1480533709426881,0.262695,0.046875,0.989746
1480533709443925,0.253906,0.0371094,0.974121
1480533709472002,0.25293,0.0527344,0.973633
1480533709486538,0.259766,0.0688477,0.973145
1480533709503086,0.268555,0.0410156,0.969727
1480533709525642,0.26123,0.0317383,0.974609
1480533709554719,0.261719,0.0620117,0.973633
1480533709563243,0.26416,0.0664063,0.978516
1480533709595329,0.259766,0.0405273,0.981934
1480533709606858,0.252441,0.043457,0.976074
1480533709623402,0.265625,0.0649414,0.964844
1480533709645962,0.26709,0.0458984,0.97998
1480533709667018,0.258789,0.0327148,0.97168
1480533709683060,0.258301,0.0595703,0.977051
1480533709705620,0.260742,0.0737305,0.973145
1480533709745228,0.257324,0.050293,0.973145
1480533709749236,0.251953,0.0366211,0.970703
1480533709765780,0.258789,0.0541992,0.978516
1480533709788340,0.26416,0.0512695,0.980469
1480533709803882,0.260742,0.0288086,0.976074
1480533709825439,0.255859,0.0390625,0.978027
1480533709855519,0.263672,0.0532227,0.976563
1480533709870559,0.258301,0.0473633,0.980957
1480533709885599,0.254883,0.0424805,0.96875
1480533709908660,0.253418,0.0556641,0.97998
1480533709929220,0.263672,0.0527344,0.978516
1480533709945759,0.263184,0.034668,0.973145
1480533709975840,0.258301,0.0395508,0.975586
1480533709982356,0.260742,0.0556641,0.973633
1480533710020960,0.259766,0.0537109,0.975098
1480533710028481,0.254395,0.0390625,0.975586
1480533710042520,0.255859,0.046875,0.970703
1480533710065578,0.26123,0.0410156,0.978516
1480533710088138,0.260742,0.0351563,0.980957
1480533710102677,0.251465,0.0341797,0.978516
