timestamp,x,y,z,w
1480533657129056,-0.540344,0.0666504,0.000671387,0.838806
1480533657169163,-0.539673,0.0665283,0.00134277,0.839233
1480533657170167,-0.539368,0.0664673,0.00195313,0.839417
1480533657182198,-0.539368,0.0662842,0.00250244,0.839478
1480533657205259,-0.539978,0.06604,0.00311279,0.83905
1480533657219296,-0.540894,0.0658569,0.00366211,0.838501
1480533657243363,-0.54126,0.0656738,0.00402832,0.838257
1480533657264416,-0.540955,0.0654907,0.00439453,0.83844
1480533657279456,-0.540405,0.0651245,0.00457764,0.838867
1480533657302016,-0.540039,0.0648193,0.00482178,0.839111
1480533657324582,-0.539734,0.0644531,0.00512695,0.839355
1480533657339618,-0.539368,0.0637817,0.00524902,0.839661
1480533657362179,-0.538696,0.0632935,0.00537109,0.840088
1480533657384736,-0.538147,0.0629272,0.00549316,0.840454
1480533657399274,-0.537903,0.0626221,0.0055542,0.840637
1480533657422338,-0.536926,0.0622559,0.00543213,0.841309
1480533657444396,-0.5354,0.0619507,0.00537109,0.842285
1480533657459435,-0.534302,0.0615845,0.00537109,0.843018
1480533657481995,-0.533386,0.0612183,0.00531006,0.843628
1480533657504555,-0.532349,0.0610352,0.00543213,0.844299
1480533657527115,-0.531616,0.0609741,0.0055542,0.844727
1480533657565216,-0.53125,0.0609741,0.00585938,0.844971
1480533657566219,-0.530762,0.0609741,0.00610352,0.845276
1480533657589282,-0.530212,0.0611572,0.00640869,0.845642
1480533657605325,-0.529358,0.0606079,0.00616455,0.846191
1480533657625877,-0.528809,0.0595703,0.00616455,0.846619
1480533657655959,-0.527588,0.0587769,0.0057373,0.847412
1480533657663477,-0.527771,0.0604248,0.00714111,0.847168
1480533657686539,-0.526978,0.0617065,0.0078125,0.847595
1480533657709098,-0.525513,0.0598755,0.00671387,0.848633
1480533657723640,-0.523743,0.0571899,0.0055542,0.849915
1480533657746198,-0.521484,0.0541992,0.00445557,0.851501
1480533657774774,-0.519165,0.0511475,0.00317383,0.853088
1480533657783798,-0.5177,0.0494995,0.00250244,0.854126
1480533657806361,-0.519348,0.0524292,0.00396729,0.852905
1480533657828923,-0.521179,0.0546265,0.00537109,0.851685
1480533657852480,-0.518311,0.0512695,0.00390625,0.853638
1480533657866018,-0.520874,0.055481,0.00616455,0.851807
1480533657888577,-0.5177,0.0516968,0.00445557,0.854004
1480533657903115,-0.520447,0.0554199,0.0065918,0.852051
1480533657926177,-0.517578,0.0531616,0.00543213,0.853943
1480533657954251,-0.515503,0.0512695,0.00463867,0.855347
1480533657969792,-0.518677,0.0550537,0.00683594,0.853149
1480533657986838,-0.520752,0.0568237,0.00787354,0.851746
1480533658008396,-0.518982,0.0546265,0.00689697,0.852966
1480533658022938,-0.514526,0.0507202,0.00506592,0.855957
1480533658055019,-0.509338,0.0465698,0.0032959,0.859253
1480533658085099,-0.504089,0.0426636,0.00152588,0.86261
1480533658097131,-0.498474,0.0390625,-0.00012207,0.865967
1480533658106157,-0.494019,0.0363159,-0.00140381,0.868652
1480533658129718,-0.493652,0.036438,-0.00109863,0.868896
1480533658158796,-0.498779,0.0400391,0.0010376,0.865784
1480533658173839,-0.504456,0.0435181,0.00323486,0.862305
1480533658188378,-0.501221,0.0415649,0.00262451,0.864319
1480533658210934,-0.496216,0.0391846,0.00170898,0.86731
1480533658233995,-0.503052,0.043457,0.00421143,0.863098
1480533658248032,-0.501221,0.0427246,0.00415039,0.864258
1480533658271094,-0.497498,0.041748,0.00390625,0.866394
1480533658293654,-0.503967,0.0447388,0.0057373,0.862549
1480533658308694,-0.49585,0.041748,0.00439453,0.867371
1480533658331253,-0.503357,0.0454102,0.00646973,0.862854
1480533658359830,-0.494995,0.0425415,0.00531006,0.867859
1480533658374878,-0.501099,0.0446777,0.0065918,0.864197
1480533658390916,-0.500793,0.0454102,0.00708008,0.864319
1480533658413472,-0.496399,0.0429688,0.00604248,0.867004
1480533658428013,-0.504578,0.046875,0.00787354,0.862061
1480533658452075,-0.495728,0.0429688,0.00579834,0.867371
1480533658474138,-0.502502,0.0447388,0.00683594,0.863403
1480533658487671,-0.501282,0.0447388,0.00701904,0.864075
1480533658518752,-0.497681,0.0418091,0.00579834,0.866272
1480533658558859,-0.50647,0.0453491,0.0078125,0.861023
1480533658571394,-0.497986,0.0419922,0.00671387,0.86615
1480533658573902,-0.504761,0.0437622,0.00799561,0.862122
1480533658585932,-0.504272,0.0440674,0.00866699,0.862366
1480533658606992,-0.503601,0.0435791,0.00897217,0.862793
1480533658623032,-0.503357,0.043396,0.00927734,0.862915
1480533658646092,-0.503357,0.0431519,0.00946045,0.862915
1480533658667147,-0.503479,0.0428467,0.00964355,0.862854
1480533658691211,-0.503967,0.0427856,0.0100098,0.86261
1480533658712267,-0.504272,0.0422974,0.00994873,0.862427
1480533658734828,-0.503784,0.0413818,0.0098877,0.862793
1480533658742856,-0.498596,0.0389404,0.00891113,0.865906
1480533658765910,-0.503784,0.0423584,0.0107422,0.862732
1480533658786967,-0.494385,0.0392456,0.00939941,0.868286
1480533658803009,-0.502258,0.0427246,0.0109863,0.863586
1480533658826071,-0.49762,0.0424194,0.0106812,0.866272
1480533658847126,-0.494507,0.0408325,0.00982666,0.868164
1480533658863169,-0.502319,0.045105,0.0117188,0.863403
1480533658886732,-0.492798,0.0424805,0.010437,0.869019
1480533658914304,-0.498108,0.0458374,0.0120239,0.865784
1480533658924331,-0.497864,0.0473022,0.0125732,0.865845
1480533658945888,-0.497986,0.0474854,0.0125122,0.865784
1480533658967446,-0.497742,0.0476074,0.0123291,0.865906
1480533658982988,-0.497375,0.0477905,0.0122681,0.86615
1480533659013569,-0.497192,0.0479126,0.012146,0.866211
1480533659034634,-0.497131,0.0480347,0.0119019,0.866272
1480533659051670,-0.496643,0.0480347,0.0117188,0.866516
1480533659074233,-0.496338,0.0480957,0.0116577,0.866699
1480533659094786,-0.49646,0.0480957,0.0115967,0.866638
1480533659125871,-0.496155,0.0477905,0.0114136,0.866821
1480533659133388,-0.4953,0.0474854,0.0112915,0.86731
1480533659154444,-0.495117,0.0473022,0.0112915,0.867432
1480533659170987,-0.495544,0.0471191,0.0114746,0.867249
1480533659194049,-0.496094,0.0470581,0.0116577,0.866882
1480533659215106,-0.496399,0.0469971,0.0119629,0.866699
1480533659232150,-0.496094,0.046875,0.012207,0.866882
1480533659253708,-0.495667,0.0466919,0.0124512,0.867126
1480533659282283,-0.495728,0.0463867,0.0126343,0.867126
1480533659291308,-0.495789,0.0461426,0.0129395,0.867065
1480533659313366,-0.495789,0.0458984,0.0131836,0.867126
1480533659334422,-0.495972,0.0458984,0.0134888,0.867004
1480533659350969,-0.495728,0.0460205,0.0137329,0.867126
1480533659373531,-0.495117,0.0462646,0.0140381,0.867493
1480533659396087,-0.494507,0.0465698,0.0142822,0.867798
1480533659411126,-0.494507,0.0466919,0.0144653,0.867798
1480533659447222,-0.494629,0.046875,0.0146484,0.867676
1480533659457250,-0.494507,0.0469971,0.0147095,0.867737
1480533659484321,-0.494141,0.046936,0.0146484,0.867981
1480533659493346,-0.493652,0.046936,0.0146484,0.868225
1480533659515905,-0.493164,0.046875,0.0146484,0.86853
1480533659531082,-0.493042,0.046875,0.0147095,0.868591
1480533659553505,-0.493103,0.046936,0.0147095,0.868591
1480533659576065,-0.493347,0.0473633,0.0149536,0.868408
1480533659592109,-0.492981,0.0477295,0.0150146,0.868591
1480533659614668,-0.492065,0.0480347,0.0150146,0.86908
1480533659636225,-0.491272,0.0481567,0.0149536,0.869507
1480533659650262,-0.490784,0.0482788,0.0150146,0.869812
1480533659673828,-0.490356,0.0483398,0.0151367,0.870056
1480533659696385,-0.490417,0.0483398,0.0151367,0.869995
1480533659710423,-0.490845,0.0482178,0.0153198,0.869751
1480533659733484,-0.490906,0.0482178,0.0153198,0.869751
1480533659756050,-0.49115,0.0482178,0.015564,0.869568
1480533659770583,-0.491211,0.0484009,0.0159912,0.869568
1480533659793645,-0.491333,0.0485229,0.0162964,0.869446
1480533659816203,-0.491089,0.0487061,0.0166626,0.869568
1480533659830405,-0.490662,0.0487671,0.0168457,0.869812
1480533659853805,-0.490417,0.0487671,0.0170898,0.869934
1480533659875863,-0.490356,0.0487671,0.0172729,0.869934
1480533659898422,-0.490356,0.048584,0.0175171,0.869995
1480533659913462,-0.490356,0.0482178,0.0175781,0.869995
1480533659936023,-0.490906,0.0480347,0.0177612,0.86969
1480533659957082,-0.491394,0.0477295,0.0177612,0.869446
1480533659974128,-0.491882,0.0477295,0.0178223,0.869141
1480533660002222,-0.492004,0.0477295,0.0178223,0.86908
1480533660024759,-0.491577,0.0478516,0.0179443,0.869324
1480533660033281,-0.491577,0.0482788,0.0181274,0.869324
1480533660055843,-0.49176,0.048584,0.0181885,0.869141
1480533660076897,-0.491577,0.0490112,0.0183105,0.869263
1480533660100460,-0.490723,0.0495605,0.0183716,0.86969
1480533660116001,-0.48999,0.0501709,0.0186157,0.870056
1480533660138564,-0.489624,0.0509033,0.0189819,0.870239
1480533660153602,-0.489014,0.0512695,0.019165,0.870544
1480533660175660,-0.48822,0.0513306,0.0192871,0.870972
1480533660197217,-0.487976,0.0510864,0.0192871,0.871155
1480533660213761,-0.488281,0.0508423,0.0194092,0.870972
1480533660235824,-0.488281,0.0507202,0.0196533,0.870972
1480533660257380,-0.487732,0.0505981,0.0197754,0.871277
1480533660273425,-0.487366,0.0505371,0.0199585,0.871521
1480533660296481,-0.487122,0.050354,0.0200195,0.871643
1480533660318039,-0.486633,0.0498657,0.0199585,0.871948
1480533660334583,-0.485779,0.0493164,0.0197754,0.872437
1480533660356143,-0.485168,0.0487671,0.0196533,0.872803
1480533660378701,-0.484802,0.0482788,0.0195923,0.873047
1480533660393742,-0.48468,0.0476074,0.0196533,0.873169
1480533660417303,-0.484741,0.0471191,0.0197144,0.873169
1480533660438360,-0.484436,0.0466919,0.0198364,0.873352
1480533660452899,-0.483948,0.0463257,0.0200195,0.873596
1480533660475959,-0.483582,0.0459595,0.0201416,0.87384
1480533660498519,-0.483032,0.0457153,0.0203247,0.874146
1480533660523085,-0.482483,0.0455322,0.0205688,0.874451
1480533660536119,-0.482056,0.0454102,0.020813,0.874695
1480533660558681,-0.481812,0.0452271,0.0209961,0.874817
1480533660573723,-0.481689,0.0452881,0.0213013,0.874878
1480533660596415,-0.481506,0.0454102,0.0216064,0.875
1480533660618839,-0.481079,0.0454712,0.0217896,0.875183
1480533660633879,-0.480469,0.0455933,0.0220947,0.875549
1480533660655939,-0.47998,0.0458984,0.0223999,0.875793
1480533660678498,-0.479675,0.0459595,0.022583,0.875916
1480533660693036,-0.479309,0.0461426,0.0228882,0.876099
1480533660717108,-0.479248,0.0464478,0.0233765,0.876099
1480533660738660,-0.479309,0.0465088,0.0237427,0.876099
1480533660752695,-0.479248,0.0465698,0.0241089,0.876099
1480533660776257,-0.479004,0.0466919,0.0245361,0.876221
1480533660798817,-0.479065,0.0466919,0.0249634,0.87616
1480533660819372,-0.478943,0.0466309,0.0253296,0.876221
1480533660835916,-0.47876,0.0465698,0.0256348,0.876343
1480533660864495,-0.478577,0.0465698,0.026123,0.876404
1480533660879532,-0.47821,0.0464478,0.0266724,0.876587
1480533660896077,-0.477905,0.0461426,0.0271606,0.87677
1480533660918639,-0.477539,0.0457764,0.0275269,0.876953
1480533660939693,-0.47699,0.0456543,0.0278931,0.877258
1480533660956238,-0.476807,0.0454712,0.0285034,0.87738
1480533660978797,-0.477051,0.0452881,0.0291138,0.877197
1480533660999853,-0.476929,0.0449829,0.0296021,0.877258
1480533661023420,-0.476257,0.0448608,0.0302124,0.877625
1480533661038456,-0.475586,0.0446777,0.0307617,0.877991
1480533661059511,-0.475159,0.0443726,0.031311,0.878235
1480533661076067,-0.47467,0.0441895,0.0319824,0.878418
1480533661098615,-0.473999,0.0440063,0.0326538,0.878845
1480533661119672,-0.473145,0.0437012,0.0331421,0.879272
1480533661136215,-0.471741,0.043457,0.0336914,0.880005
1480533661158775,-0.470947,0.043335,0.0344238,0.880432
1480533661179831,-0.47113,0.0430298,0.0350952,0.88031
1480533661195874,-0.47113,0.0428467,0.0357056,0.88031
1480533661224450,-0.470642,0.0428467,0.0365601,0.880493
1480533661239492,-0.470642,0.0429077,0.0371704,0.880493
1480533661257540,-0.470398,0.0429688,0.0377197,0.880615
1480533661278594,-0.471252,0.0431519,0.038269,0.880127
1480533661302658,-0.471924,0.0435181,0.0394897,0.8797
1480533661315191,-0.473328,0.0435181,0.0408325,0.878845
1480533661346775,-0.47467,0.0430298,0.0422363,0.878052
1480533661360813,-0.475098,0.0424805,0.0432739,0.877869
1480533661383372,-0.47406,0.0422363,0.0440674,0.878357
1480533661398413,-0.473083,0.0423584,0.045105,0.878845
1480533661420972,-0.473328,0.0421753,0.0466919,0.878601
1480533661435511,-0.474487,0.0413818,0.0482178,0.87793
1480533661458573,-0.474182,0.0403442,0.0490723,0.878113
1480533661481132,-0.471558,0.039978,0.0494995,0.879517
1480533661495671,-0.469727,0.0400391,0.0505371,0.880432
1480533661518734,-0.468262,0.0395508,0.0515747,0.881165
1480533661541292,-0.467773,0.0387573,0.0522461,0.88147
1480533661555331,-0.466553,0.0380249,0.0527344,0.88208
1480533661578391,-0.465637,0.0379639,0.0532837,0.882568
1480533661600951,-0.464539,0.0380859,0.0541382,0.883057
1480533661615491,-0.463013,0.0377808,0.0547485,0.88385
1480533661638553,-0.461853,0.036377,0.0549927,0.88446
1480533661661112,-0.460449,0.0349121,0.0556641,0.885254
1480533661689689,-0.455933,0.0340576,0.0560303,0.887573
1480533661704727,-0.452515,0.0336304,0.0567627,0.889282
1480533661721274,-0.450623,0.0323486,0.057251,0.890259
1480533661742330,-0.447998,0.0300903,0.057251,0.891663
1480533661758370,-0.444824,0.0275879,0.0569458,0.893372
1480533661782935,-0.441162,0.0250854,0.0565186,0.895264
1480533661801986,-0.438416,0.0228271,0.0564575,0.896667
1480533661821040,-0.435791,0.0202637,0.0560913,0.898071
1480533661848610,-0.433228,0.017334,0.055603,0.899414
1480533661862648,-0.429382,0.0137939,0.0551758,0.901306
1480533661878795,-0.424316,0.00958252,0.0543213,0.903809
1480533661900854,-0.417908,0.0055542,0.0532227,0.906921
1480533661921910,-0.411438,0.00164795,0.0523071,0.909912
1480533661938454,-0.406189,-0.00231934,0.0515137,0.912354
1480533661968534,-0.402527,-0.00689697,0.0507813,0.91394
1480533661982071,-0.399353,-0.0117798,0.0500488,0.915344
1480533661998614,-0.396362,-0.0166626,0.0491333,0.916626
1480533662021180,-0.392395,-0.0219727,0.0482178,0.918274
1480533662042230,-0.388367,-0.0278931,0.0473633,0.919861
1480533662058774,-0.38501,-0.0335083,0.0466309,0.921143
1480533662080833,-0.382507,-0.0390625,0.0458984,0.921997
1480533662101889,-0.379883,-0.0447998,0.0453491,0.922791
1480533662117932,-0.377136,-0.0505371,0.0449829,0.923706
1480533662140995,-0.375427,-0.0559082,0.0445557,0.924072
1480533662164054,-0.373901,-0.0611572,0.0440674,0.924377
1480533662179094,-0.371399,-0.0667114,0.0437622,0.925049
1480533662201154,-0.368591,-0.0719604,0.0436401,0.925781
1480533662222208,-0.365479,-0.0767212,0.0437622,0.926575
1480533662252289,-0.363342,-0.0814209,0.0436401,0.927063
1480533662260813,-0.361938,-0.0855713,0.043457,0.927246
1480533662283371,-0.360901,-0.0894775,0.0435791,0.927246
1480533662297910,-0.359009,-0.0931396,0.0442505,0.927612
1480533662326989,-0.356995,-0.0963135,0.0447998,0.92804
1480533662343532,-0.355591,-0.0987549,0.0452881,0.928284
1480533662358070,-0.354492,-0.10083,0.0457153,0.928467
1480533662381132,-0.353271,-0.102478,0.0461426,0.928711
1480533662404696,-0.352051,-0.103943,0.0464478,0.929016
1480533662424747,-0.35083,-0.105042,0.046814,0.929321
1480533662441793,-0.34845,-0.105835,0.0472412,0.930115
1480533662463350,-0.346497,-0.106079,0.0477295,0.930786
1480533662493431,-0.345032,-0.105896,0.0480957,0.931335
1480533662500950,-0.344849,-0.105225,0.0484009,0.931458
1480533662523510,-0.344727,-0.104126,0.0488892,0.931641
1480533662538049,-0.343994,-0.102905,0.0491333,0.932007
1480533662569633,-0.343506,-0.101685,0.0492554,0.932312
1480533662583676,-0.343323,-0.100342,0.0491943,0.932556
1480533662597708,-0.343201,-0.0983887,0.0491943,0.9328
1480533662621772,-0.342773,-0.0967407,0.0490112,0.933105
1480533662643329,-0.343323,-0.0946655,0.0490723,0.933105
1480533662657868,-0.344482,-0.0919189,0.0494385,0.932983
1480533662682433,-0.346069,-0.0895386,0.0498047,0.932556
1480533662704000,-0.347839,-0.0872192,0.0497437,0.932129
1480533662724546,-0.350647,-0.0841675,0.0498657,0.931396
1480533662741089,-0.352844,-0.0808716,0.0501099,0.930847
1480533662771175,-0.356384,-0.0772705,0.0504761,0.929749
1480533662784705,-0.35907,-0.0739136,0.0506592,0.928955
1480533662802252,-0.361084,-0.0703735,0.0509033,0.928467
1480533662823308,-0.361389,-0.0669556,0.0510254,0.928589
1480533662844364,-0.361023,-0.0634766,0.0510864,0.928955
1480533662860908,-0.361023,-0.0600586,0.0512085,0.929199
1480533662883467,-0.361267,-0.0565796,0.0514526,0.929321
1480533662904525,-0.361084,-0.0535278,0.0517578,0.929504
1480533662921570,-0.36145,-0.0504761,0.0522461,0.929504
1480533662943633,-0.361633,-0.0473633,0.0526733,0.929626
1480533662966193,-0.362244,-0.0443726,0.0531616,0.929504
1480533662981232,-0.363464,-0.0414429,0.0535889,0.929138
1480533663009808,-0.36499,-0.0387573,0.0540161,0.928589
1480533663025351,-0.365723,-0.0361938,0.0544434,0.928406
1480533663040892,-0.366089,-0.0337524,0.0549316,0.928345
1480533663063452,-0.366638,-0.0314331,0.0552368,0.928162
1480533663086012,-0.367188,-0.0294189,0.0556641,0.927979
1480533663102055,-0.367371,-0.02771,0.0559692,0.927979
1480533663131132,-0.367249,-0.026123,0.0564575,0.92804
1480533663144667,-0.366821,-0.0245361,0.0569458,0.928223
1480533663161214,-0.366028,-0.0227661,0.0574341,0.928528
1480533663183772,-0.365906,-0.0213013,0.0579834,0.928589
1480533663205831,-0.366455,-0.0200195,0.0584717,0.928345
1480533663220874,-0.366821,-0.0188599,0.0588379,0.928223
1480533663244433,-0.366821,-0.0179443,0.0591431,0.928223
1480533663265991,-0.366577,-0.0170898,0.0593262,0.928345
1480533663287049,-0.36676,-0.0162354,0.0596313,0.928223
1480533663303595,-0.366272,-0.015564,0.0599365,0.928406
1480533663332323,-0.365845,-0.0150757,0.0601807,0.928589
1480533663340188,-0.365295,-0.0146484,0.0604248,0.928772
1480533663363751,-0.365112,-0.0140991,0.06073,0.928833
1480533663386310,-0.364563,-0.0136719,0.0612183,0.929016
1480533663402353,-0.364502,-0.0134277,0.0618286,0.929016
1480533663423409,-0.365051,-0.0131226,0.062439,0.928772
1480533663445969,-0.36554,-0.0126953,0.0631104,0.928528
1480533663460510,-0.365662,-0.0123901,0.0635986,0.928467
1480533663483569,-0.365479,-0.012207,0.0641479,0.928528
1480533663505629,-0.365295,-0.0119629,0.0648193,0.928528
1480533663536209,-0.36499,-0.0115356,0.0656738,0.928589
1480533663543729,-0.36554,-0.0108643,0.0664673,0.928345
1480533663566289,-0.366638,-0.010376,0.0670776,0.927856
1480533663580326,-0.368286,-0.0098877,0.0678101,0.927185
1480533663603893,-0.369873,-0.00921631,0.0689697,0.926453
1480533663639985,-0.371948,-0.00860596,0.0701904,0.925537
1480533663648508,-0.374878,-0.00823975,0.0717773,0.924255
1480533663665053,-0.376892,-0.00823975,0.0727539,0.92334
1480533663686112,-0.379211,-0.00823975,0.0740967,0.922241
1480533663714683,-0.380249,-0.00762939,0.0752563,0.921753
1480533663724209,-0.381714,-0.0065918,0.0762329,0.921082
1480533663746268,-0.384155,-0.00567627,0.0767822,0.920044
1480533663768828,-0.387695,-0.00524902,0.0774536,0.918518
1480533663783367,-0.390381,-0.00518799,0.0777588,0.917358
1480533663811948,-0.391052,-0.00524902,0.0778198,0.917053
1480533663826983,-0.389526,-0.00518799,0.0778809,0.917664
1480533663843527,-0.387146,-0.00488281,0.0778809,0.918701
1480533663866588,-0.386353,-0.00457764,0.0775757,0.919067
1480533663887145,-0.386963,-0.00482178,0.0772705,0.918823
1480533663909703,-0.387939,-0.00549316,0.0771484,0.918396
1480533663926253,-0.388306,-0.00640869,0.0768433,0.918274
1480533663947302,-0.38739,-0.00726318,0.0765991,0.91864
1480533663963345,-0.38562,-0.00787354,0.0762939,0.919434
1480533663985906,-0.385132,-0.00823975,0.0759888,0.919678
1480533664007463,-0.386597,-0.00915527,0.0753784,0.919128
1480533664024007,-0.387695,-0.0106201,0.0742798,0.918701
1480533664046066,-0.387085,-0.0119629,0.0726929,0.919067
1480533664074641,-0.387207,-0.0130005,0.0715332,0.919128
1480533664083666,-0.386292,-0.0142212,0.0701904,0.919556
1480533664106226,-0.386108,-0.0161743,0.0687866,0.919739
1480533664129106,-0.385193,-0.0184326,0.0671997,0.920166
1480533664143324,-0.384094,-0.0202637,0.0654297,0.920715
1480533664165884,-0.385254,-0.0214844,0.064209,0.920288
1480533664188945,-0.384399,-0.0233154,0.0633545,0.920715
1480533664195659,-0.384827,-0.0256348,0.062561,0.920471
1480533664208999,-0.384827,-0.0279541,0.0619507,0.920471
1480533664231559,-0.383484,-0.0297241,0.0616455,0.921021
1480533664254119,-0.381409,-0.0310669,0.0615845,0.921814
1480533664270667,-0.380798,-0.0318604,0.0615845,0.922058
1480533664291719,-0.381714,-0.0328369,0.0618286,0.921631
1480533664315281,-0.382996,-0.0338135,0.0620728,0.921021
1480533664330322,-0.383789,-0.034668,0.0623779,0.920654
1480533664354386,-0.383728,-0.0350952,0.0627441,0.920654
1480533664373937,-0.383118,-0.0353394,0.0631714,0.920837
1480533664390485,-0.382568,-0.0356445,0.0634766,0.921021
1480533664411538,-0.382202,-0.0352173,0.0639648,0.921204
1480533664442119,-0.381897,-0.034668,0.0645142,0.921265
1480533664450140,-0.381165,-0.0344238,0.0649414,0.92157
1480533664474705,-0.380188,-0.0340576,0.0651855,0.921997
1480533664502279,-0.379456,-0.0335693,0.0653687,0.922241
1480533664510300,-0.37915,-0.0331421,0.0654907,0.922363
1480533664531356,-0.379028,-0.0328979,0.0654907,0.922485
1480533664553917,-0.378784,-0.0325317,0.0654907,0.922546
1480533664570488,-0.378479,-0.0321045,0.0654297,0.922729
1480533664593021,-0.378357,-0.0315552,0.0654907,0.922791
1480533664614076,-0.378479,-0.0311279,0.0654907,0.922729
1480533664631628,-0.378113,-0.0307617,0.0653687,0.922913
1480533664651175,-0.377136,-0.0303955,0.0653687,0.92334
1480533664676744,-0.376282,-0.0302734,0.0651855,0.923706
1480533664690279,-0.375977,-0.0299683,0.0651245,0.923828
1480533664714343,-0.375671,-0.0297241,0.0650635,0.92395
1480533664741921,-0.375061,-0.0294189,0.0650024,0.924194
1480533664750440,-0.375061,-0.0292358,0.0650024,0.924255
1480533664771496,-0.375183,-0.0291138,0.0650024,0.924194
1480533664794056,-0.374878,-0.0289307,0.0651245,0.924316
1480533664810599,-0.374634,-0.0288696,0.0654297,0.924377
1480533664839178,-0.37439,-0.0288696,0.0658569,0.924438
1480533664853717,-0.374329,-0.0288696,0.0662842,0.924438
1480533664870262,-0.373901,-0.0288086,0.0668335,0.924622
1480533664891313,-0.37384,-0.0288086,0.0674438,0.924561
1480533664916882,-0.373901,-0.0288696,0.0680542,0.9245
1480533664936434,-0.373657,-0.0290527,0.0686646,0.924561
1480533664958996,-0.373108,-0.0291748,0.0692749,0.924744
1480533664974034,-0.372314,-0.0291748,0.0698242,0.924988
1480533664999100,-0.372192,-0.0292358,0.0703735,0.924988
1480533665011634,-0.371887,-0.0292969,0.0708618,0.92511
1480533665037206,-0.371338,-0.02948,0.071228,0.925293
1480533665052744,-0.370667,-0.029541,0.0717163,0.925476
1480533665071292,-0.370178,-0.0296021,0.0721436,0.925659
1480533665101374,-0.369934,-0.0297241,0.0724487,0.92572
1480533665116412,-0.369568,-0.0298462,0.0727539,0.925842
1480533665131454,-0.369263,-0.0299683,0.0731812,0.925964
1480533665154013,-0.368164,-0.0300903,0.0735474,0.926331
1480533665178077,-0.367371,-0.0303955,0.0738525,0.926636
1480533665191613,-0.366821,-0.0308228,0.0742188,0.926758
1480533665213671,-0.366455,-0.031311,0.074646,0.92688
1480533665231857,-0.365967,-0.0321045,0.0750122,0.927002
1480533665258791,-0.365295,-0.032959,0.0754395,0.927185
1480533665281351,-0.364685,-0.0335693,0.0759888,0.927429
1480533665313437,-0.364136,-0.0343628,0.0765991,0.927551
1480533665315944,-0.36377,-0.0351563,0.0772095,0.927612
1480533665333991,-0.363525,-0.0358887,0.0778198,0.927612
1480533665356552,-0.363464,-0.0366821,0.0784302,0.927551
1480533665371591,-0.363098,-0.0374756,0.0788574,0.927673
1480533665395213,-0.362549,-0.038208,0.0794067,0.927734
1480533665425735,-0.361938,-0.0388794,0.079895,0.927917
1480533665436776,-0.361389,-0.0394897,0.0803223,0.928101
1480533665461332,-0.360718,-0.0401001,0.0806885,0.928284
1480533665476370,-0.360229,-0.0407104,0.0811157,0.928406
1480533665491410,-0.359924,-0.0411377,0.081604,0.928467
1480533665515474,-0.359253,-0.041626,0.0820923,0.92865
1480533665536532,-0.358582,-0.0420532,0.0825806,0.928833
1480533665551570,-0.358276,-0.0425415,0.0831299,0.928894
1480533665581149,-0.357544,-0.0429688,0.0836182,0.929138
1480533665596188,-0.356873,-0.0435791,0.0841064,0.929321
1480533665611232,-0.356201,-0.0440674,0.0845947,0.929504
1480533665636798,-0.35553,-0.0446777,0.0849609,0.929688
1480533665659357,-0.35498,-0.0454102,0.0852661,0.929871
1480533665671389,-0.354431,-0.0462646,0.0855103,0.929993
1480533665693950,-0.354431,-0.0471802,0.0855713,0.929932
1480533665716509,-0.354004,-0.0481567,0.0856323,0.930054
1480533665740573,-0.353577,-0.0493164,0.0856323,0.930176
1480533665754109,-0.353271,-0.050354,0.0856323,0.930237
1480533665776170,-0.353394,-0.0515137,0.0856323,0.930115
1480533665792712,-0.353455,-0.0527954,0.0856323,0.929993
1480533665813767,-0.35321,-0.0541992,0.0856323,0.930054
1480533665836330,-0.352966,-0.0552979,0.0856323,0.930054
1480533665854375,-0.352905,-0.0564575,0.0856934,0.929993
1480533665873927,-0.352417,-0.0577393,0.0856323,0.930115
1480533665897991,-0.351929,-0.059021,0.0857544,0.930176
1480533665913031,-0.351746,-0.0601196,0.0859375,0.930176
1480533665937597,-0.351563,-0.0612793,0.0861816,0.930115
1480533665956154,-0.35144,-0.0626221,0.0863037,0.930115
1480533665981714,-0.351318,-0.0640259,0.0864258,0.930054
1480533665993746,-0.351318,-0.0652466,0.0865479,0.929932
1480533666024327,-0.351013,-0.0666504,0.0866699,0.929932
1480533666034354,-0.350586,-0.0682983,0.086792,0.929993
1480533666053907,-0.350098,-0.0697021,0.0869751,0.930054
1480533666076467,-0.349609,-0.0712891,0.0872192,0.930115
1480533666094516,-0.349365,-0.0730591,0.0875854,0.929993
1480533666114066,-0.349609,-0.0748291,0.0878906,0.929749
1480533666136630,-0.349609,-0.0766602,0.0882568,0.929565
1480533666156179,-0.349365,-0.0785522,0.0886841,0.929443
1480533666175230,-0.349426,-0.0808105,0.0892334,0.929199
1480533666197789,-0.349548,-0.0831299,0.0897827,0.928894
1480533666220355,-0.349182,-0.0855713,0.0904541,0.928711
1480533666233884,-0.348572,-0.0884399,0.0913086,0.928589
1480533666256446,-0.348145,-0.0911865,0.0921021,0.928406
1480533666274493,-0.3479,-0.0941772,0.0930176,0.928101
1480533666294547,-0.347412,-0.0977173,0.0939941,0.927856
1480533666333149,-0.346985,-0.101685,0.0950317,0.92749
1480533666335656,-0.345825,-0.105347,0.0962524,0.927368
1480533666354204,-0.344421,-0.109375,0.0976563,0.927307
1480533666376264,-0.343567,-0.114075,0.098877,0.92688
1480533666409352,-0.344055,-0.11908,0.0999756,0.925964
1480533666413866,-0.343811,-0.123962,0.101257,0.925293
1480533666436424,-0.343018,-0.128967,0.102356,0.924805
1480533666454482,-0.34259,-0.134155,0.103271,0.924072
1480533666474024,-0.34259,-0.139709,0.10437,0.923157
1480533666496584,-0.342651,-0.145325,0.105408,0.922119
1480533666527666,-0.342285,-0.150757,0.106079,0.921326
1480533666542205,-0.341736,-0.156738,0.106323,0.920532
1480533666567272,-0.34137,-0.162659,0.106628,0.919556
1480533666578865,-0.340332,-0.167969,0.107117,0.918945
1480533666596851,-0.338745,-0.173218,0.107422,0.918518
1480533666623922,-0.337585,-0.178101,0.107666,0.917969
1480533666655009,-0.337219,-0.182922,0.107727,0.917175
1480533666663028,-0.336548,-0.187927,0.107666,0.916382
1480533666684082,-0.335571,-0.192993,0.108154,0.915649
1480533666699122,-0.335632,-0.197571,0.108337,0.914612
1480533666723688,-0.336548,-0.202332,0.108276,0.913269
1480533666736731,-0.339172,-0.207703,0.108154,0.911072
1480533666770314,-0.341919,-0.212097,0.108215,0.909058
1480533666775325,-0.345093,-0.216064,0.108459,0.906921
1480533666796526,-0.347107,-0.21991,0.108521,0.905151
1480533666821949,-0.349976,-0.223816,0.108765,0.903076
1480533666835486,-0.353516,-0.227234,0.109314,0.900757
1480533666856541,-0.35675,-0.229919,0.110657,0.898682
1480533666897196,-0.359619,-0.231506,0.111694,0.896973
1480533666901207,-0.362793,-0.232849,0.112427,0.895264
1480533666932791,-0.365784,-0.234863,0.113098,0.893433
1480533666938806,-0.367554,-0.236877,0.114136,0.892029
1480533666962870,-0.367798,-0.238159,0.115601,0.891418
1480533666976406,-0.368958,-0.239441,0.116699,0.890442
1480533667006486,-0.371399,-0.240845,0.117615,0.888977
1480533667017014,-0.374084,-0.242126,0.118652,0.887329
1480533667036569,-0.376099,-0.243713,0.119812,0.885864
1480533667059126,-0.377258,-0.244568,0.12085,0.88501
1480533667095326,-0.377319,-0.244629,0.122437,0.884766
1480533667099233,-0.375732,-0.244507,0.124512,0.885132
1480533667118786,-0.373474,-0.24408,0.126831,0.885925
1480533667138338,-0.372803,-0.243713,0.128906,0.885986
1480533667156385,-0.373352,-0.243713,0.130432,0.885559
1480533667178946,-0.373169,-0.243896,0.132324,0.885254
1480533667196993,-0.370667,-0.24353,0.13501,0.886047
1480533667219555,-0.364868,-0.241638,0.139038,0.888306
1480533667246626,-0.357117,-0.23938,0.143982,0.891296
1480533667257655,-0.349487,-0.236877,0.148743,0.894226
1480533667283724,-0.342529,-0.234192,0.153076,0.896851
1480533667298764,-0.333191,-0.231201,0.157837,0.90033
1480533667317313,-0.31958,-0.227661,0.163696,0.90509
1480533667336369,-0.300842,-0.223389,0.170044,0.911377
1480533667358924,-0.283386,-0.21936,0.175537,0.916931
1480533667376972,-0.269592,-0.216248,0.180054,0.920898
1480533667399532,-0.258057,-0.21344,0.184265,0.924011
1480533667419084,-0.246338,-0.21051,0.188782,0.927002
1480533667437634,-0.229431,-0.207458,0.193054,0.931152
1480533667463703,-0.210388,-0.204163,0.197571,0.935425
1480533667478743,-0.193604,-0.201294,0.201294,0.938843
1480533667496977,-0.180481,-0.199036,0.204468,0.941284
1480533667518850,-0.167603,-0.196899,0.207214,0.943481
1480533667538903,-0.153564,-0.194092,0.210144,0.945801
1480533667563468,-0.139954,-0.190796,0.213135,0.947937
1480533667578007,-0.125183,-0.187134,0.216492,0.949951
1480533667606583,-0.106506,-0.182312,0.220581,0.952209
1480533667616609,-0.0856934,-0.176758,0.224915,0.954346
1480533667645185,-0.06427,-0.170837,0.229187,0.956116
1480533667658721,-0.0444336,-0.1651,0.233032,0.957275
1480533667676769,-0.027771,-0.1604,0.236145,0.957947
1480533667697826,-0.0142212,-0.156372,0.238403,0.958374
1480533667727907,-0.0020752,-0.15271,0.240051,0.958618
1480533667736931,0.00970459,-0.14917,0.241577,0.95874
1480533667764001,0.020752,-0.145935,0.242859,0.95874
1480533667782551,0.0302124,-0.14325,0.243774,0.958679
1480533667796588,0.0384521,-0.140808,0.244202,0.958618
1480533667817647,0.0463867,-0.138367,0.244751,0.958496
1480533667838700,0.0550537,-0.135681,0.245728,0.958191
1480533667856748,0.0645142,-0.132996,0.246948,0.957642
1480533667885325,0.074646,-0.13031,0.24823,0.95697
1480533667898860,0.0836792,-0.127808,0.249329,0.956238
1480533667916908,0.0909424,-0.125244,0.250244,0.955688
1480533667939471,0.0959473,-0.12323,0.251221,0.9552
1480533667959521,0.0981445,-0.122192,0.251892,0.954956
1480533667976568,0.0977173,-0.122131,0.251953,0.954956
1480533668000130,0.0958252,-0.122375,0.251831,0.9552
1480533668026198,0.0925903,-0.123108,0.251709,0.955444
1480533668036727,0.0886841,-0.124268,0.251587,0.955688
1480533668059287,0.0848999,-0.125366,0.251404,0.955933
1480533668078840,0.0819092,-0.126282,0.251404,0.956055
1480533668097389,0.0802612,-0.126953,0.251648,0.956055
1480533668126968,0.0779419,-0.127869,0.252075,0.955994
1480533668139000,0.0733643,-0.129211,0.252502,0.956116
1480533668156546,0.0689697,-0.130432,0.253418,0.955994
1480533668179106,0.0661621,-0.131104,0.254883,0.95575
1480533668200162,0.0647583,-0.131531,0.256714,0.955261
1480533668217709,0.0645752,-0.131592,0.258118,0.954895
1480533668239266,0.0646973,-0.131409,0.259094,0.954651
1480533668258818,0.0639038,-0.131348,0.259644,0.954529
1480533668276866,0.0610962,-0.131775,0.259949,0.95459
1480533668301431,0.057373,-0.132568,0.259888,0.954712
1480533668336025,0.0549316,-0.133179,0.259888,0.954773
1480533668338530,0.0533447,-0.133484,0.259888,0.954834
1480533668360089,0.0523071,-0.133545,0.259827,0.954895
1480533668381143,0.0510254,-0.133789,0.259583,0.955017
1480533668405209,0.0493774,-0.134033,0.259399,0.955139
1480533668421250,0.0474854,-0.134155,0.259338,0.9552
1480533668438797,0.0461426,-0.134033,0.259338,0.955322
1480533668456844,0.045105,-0.133911,0.259338,0.955383
1480533668483916,0.0443115,-0.133545,0.259277,0.955444
1480533668498956,0.0441895,-0.132996,0.259277,0.955566
1480533668529537,0.0445557,-0.132568,0.259277,0.955566
1480533668545580,0.0453491,-0.132141,0.259216,0.955627
1480533668563893,0.0456543,-0.131775,0.259216,0.955627
1480533668576663,0.0457764,-0.131592,0.259155,0.955688
1480533668599224,0.0463257,-0.131409,0.259094,0.955688
1480533668620279,0.0467529,-0.131348,0.259033,0.955688
1480533668637828,0.0472412,-0.131348,0.258911,0.95575
1480533668659885,0.0481567,-0.131287,0.258911,0.955688
1480533668686458,0.0490112,-0.131409,0.25885,0.955627
1480533668705005,0.0496216,-0.13147,0.25885,0.955627
1480533668720045,0.0501099,-0.131592,0.25885,0.955566
1480533668747116,0.0500488,-0.131897,0.258606,0.955566
1480533668770179,0.0495605,-0.132263,0.258423,0.955627
1480533668788226,0.0491333,-0.132568,0.25824,0.955627
1480533668800759,0.0493164,-0.13269,0.258118,0.955627
1480533668838360,0.0498657,-0.132751,0.257996,0.955627
1480533668840866,0.050293,-0.132874,0.257813,0.955627
1480533668860419,0.0508423,-0.132874,0.25769,0.955627
1480533668888994,0.0518799,-0.132813,0.257507,0.955688
1480533668907543,0.0526733,-0.132751,0.257385,0.955688
1480533668929100,0.0529785,-0.132751,0.257202,0.955688
1480533668945143,0.0534058,-0.132751,0.256958,0.95575
1480533668959683,0.0541382,-0.132813,0.256714,0.95575
1480533668981741,0.0543823,-0.132935,0.256592,0.95575
1480533669002295,0.0543823,-0.133179,0.256287,0.955811
1480533669023853,0.0545654,-0.13324,0.255981,0.955872
1480533669050423,0.0549927,-0.133179,0.255798,0.955872
1480533669064461,0.055481,-0.132996,0.255676,0.955933
1480533669082007,0.0560303,-0.132874,0.255432,0.955994
1480533669101560,0.0564575,-0.132996,0.255188,0.955994
1480533669128634,0.0565796,-0.132996,0.255005,0.956055
1480533669146178,0.0567627,-0.132935,0.254944,0.956055
1480533669170245,0.0571289,-0.132935,0.254944,0.956055
1480533669191298,0.0575562,-0.132935,0.254761,0.956055
1480533669199320,0.0579224,-0.132813,0.254822,0.956055
1480533669221880,0.0582886,-0.13269,0.254883,0.955994
1480533669241432,0.0586548,-0.132629,0.254883,0.955994
1480533669260984,0.0586548,-0.13269,0.254944,0.955994
1480533669282541,0.0585938,-0.132629,0.254944,0.955994
1480533669301592,0.0582886,-0.132629,0.255066,0.955994
1480533669326658,0.0579224,-0.132751,0.255249,0.955933
1480533669341698,0.057251,-0.132813,0.25531,0.955933
1480533669361250,0.0570068,-0.132813,0.255554,0.955872
1480533669379298,0.0571289,-0.132751,0.255859,0.955811
1480533669401858,0.0570068,-0.132751,0.256104,0.95575
1480533669421411,0.0565186,-0.132874,0.256287,0.95575
1480533669446978,0.0557251,-0.132996,0.25647,0.955688
1480533669462025,0.0551758,-0.133118,0.256714,0.955627
1480533669482071,0.0546875,-0.133179,0.256958,0.955627
1480533669499618,0.0544434,-0.133179,0.257202,0.955566
1480533669521677,0.0544434,-0.133057,0.257385,0.955505
1480533669541730,0.0543213,-0.133118,0.257629,0.955444
1480533669567298,0.053833,-0.133057,0.257813,0.955444
1480533669580834,0.0536499,-0.132935,0.258057,0.955383
1480533669602392,0.0534668,-0.132935,0.258301,0.955322
1480533669625954,0.0534058,-0.132935,0.258301,0.955322
1480533669641495,0.0531616,-0.132751,0.258606,0.955322
1480533669662051,0.0530396,-0.132629,0.258789,0.955261
1480533669678595,0.0528564,-0.13269,0.258972,0.9552
1480533669701155,0.0523682,-0.132813,0.259094,0.9552
1480533669723212,0.052124,-0.132874,0.259338,0.955139
1480533669738755,0.052063,-0.132874,0.259583,0.955078
1480533669760817,0.0517578,-0.132935,0.259766,0.955017
1480533669781869,0.0512695,-0.132996,0.259949,0.955017
1480533669798914,0.0508423,-0.133057,0.260132,0.954956
1480533669820973,0.050415,-0.133118,0.260315,0.954956
1480533669843533,0.0501099,-0.13324,0.260437,0.954895
1480533669858573,0.0501099,-0.13324,0.26062,0.954834
1480533669896172,0.0504761,-0.133179,0.260864,0.954773
1480533669903693,0.0508423,-0.133118,0.260986,0.954712
1480533669917730,0.0507202,-0.133118,0.261108,0.954712
1480533669940792,0.0505981,-0.133118,0.261169,0.954712
1480533669963352,0.0505371,-0.133118,0.26123,0.954712
1480533669977891,0.0506592,-0.133179,0.261353,0.954651
1480533670001453,0.0509644,-0.133057,0.261414,0.95459
1480533670029529,0.0512695,-0.132935,0.261475,0.95459
1480533670038552,0.0511475,-0.133057,0.261475,0.95459
1480533670061112,0.0508423,-0.133057,0.261475,0.95459
1480533670084173,0.0507813,-0.133118,0.261536,0.95459
1480533670097709,0.0507813,-0.133179,0.261597,0.954529
1480533670121271,0.0509644,-0.133118,0.261658,0.954529
1480533670143832,0.0513916,-0.132935,0.261841,0.954468
1480533670157869,0.0517578,-0.132874,0.262024,0.954407
1480533670180931,0.0516968,-0.132935,0.262024,0.954407
1480533670211010,0.0513916,-0.133057,0.262024,0.954407
1480533670218029,0.0511475,-0.133057,0.262146,0.954407
1480533670241091,0.0512085,-0.132996,0.262268,0.954407
1480533670263650,0.0513306,-0.132935,0.26239,0.954346
1480533670292226,0.0510864,-0.132996,0.262512,0.954346
1480533670301752,0.0512085,-0.132935,0.262573,0.954285
1480533670323309,0.0516357,-0.132935,0.262756,0.954224
1480533670344866,0.0518188,-0.132751,0.262939,0.954163
1480533670361913,0.0516968,-0.13269,0.263184,0.954163
1480533670383469,0.0514526,-0.132813,0.263306,0.954102
1480533670405026,0.0509644,-0.132874,0.263428,0.954102
1480533670421069,0.050293,-0.133057,0.263611,0.954041
1480533670451151,0.0500488,-0.132996,0.263794,0.954041
1480533670464685,0.0504761,-0.132874,0.264038,0.953918
1480533670481730,0.0507202,-0.132874,0.264343,0.953857
1480533670503789,0.0505371,-0.132874,0.264526,0.953796
1480533670524344,0.0505371,-0.132874,0.264526,0.953796
1480533670540888,0.0502319,-0.132935,0.264709,0.953796
1480533670563448,0.0496216,-0.132874,0.264893,0.953735
1480533670585510,0.0494995,-0.132813,0.265015,0.953735
1480533670610573,0.0498047,-0.132813,0.265137,0.953674
1480533670624611,0.0498047,-0.132813,0.265137,0.953674
1480533670646167,0.0495605,-0.13269,0.265381,0.953613
1480533670661209,0.0495605,-0.132751,0.265564,0.953552
1480533670683266,0.0496216,-0.132874,0.265808,0.953491
1480533670712345,0.0494995,-0.132874,0.266113,0.95343
1480533670728387,0.0493774,-0.132874,0.266418,0.953369
1480533670743427,0.0493774,-0.132874,0.266663,0.953247
1480533670765987,0.0491943,-0.132751,0.266907,0.953247
1480533670781027,0.0487671,-0.132813,0.26709,0.953186
1480533670803587,0.0487061,-0.13269,0.267395,0.953125
1480533670833667,0.0487061,-0.13269,0.267395,0.953125
1480533670840685,0.048645,-0.132751,0.267639,0.953064
1480533670865250,0.048584,-0.132751,0.267883,0.953003
1480533670885806,0.048584,-0.132751,0.268188,0.952942
1480533670901348,0.0482788,-0.132813,0.268372,0.952881
1480533670923405,0.0476685,-0.132996,0.268494,0.95282
1480533670953488,0.0476685,-0.133057,0.268738,0.952759
1480533670960504,0.0482788,-0.133057,0.268982,0.952637
1480533670983565,0.0488281,-0.132996,0.269287,0.952576
1480533671006126,0.0487671,-0.133118,0.269409,0.952515
1480533671020664,0.0487061,-0.13324,0.269409,0.952515
1480533671043725,0.048584,-0.133362,0.269531,0.952454
1480533671088845,0.0484009,-0.133423,0.269653,0.952393
1480533671091352,0.0484009,-0.133545,0.269714,0.952393
1480533671105891,0.0490112,-0.133545,0.269836,0.952332
1480533671126446,0.0493774,-0.133484,0.27002,0.952209
1480533671140483,0.0493164,-0.133484,0.270203,0.952209
1480533671165048,0.0494385,-0.133423,0.270264,0.952209
1480533671186106,0.0498657,-0.133423,0.270264,0.952148
1480533671207161,0.0501709,-0.133423,0.270325,0.952148
1480533671230723,0.0505981,-0.133362,0.270264,0.952148
1480533671246267,0.0514526,-0.13324,0.270142,0.952148
1480533671266819,0.0521851,-0.133362,0.269897,0.952148
1480533671283363,0.0526733,-0.133484,0.269531,0.952209
1480533671306425,0.0529175,-0.133667,0.269165,0.952271
1480533671328484,0.0530396,-0.13385,0.26886,0.952332
1480533671343523,0.0529785,-0.133911,0.268555,0.952393
1480533671367587,0.0528564,-0.133972,0.26825,0.952454
1480533671388643,0.0526733,-0.134094,0.268066,0.952515
1480533671404185,0.052124,-0.134277,0.267944,0.952576
1480533671425742,0.0513306,-0.134216,0.268066,0.952576
1480533671446797,0.0510864,-0.133728,0.26825,0.952637
1480533671463342,0.0517578,-0.133057,0.268616,0.952576
1480533671486905,0.0527344,-0.13269,0.268921,0.952515
1480533671506961,0.0534058,-0.13269,0.269104,0.952393
1480533671523502,0.0540161,-0.13269,0.269165,0.952332
1480533671546563,0.0543823,-0.132996,0.269226,0.952271
1480533671567118,0.0543823,-0.133179,0.269409,0.952209
1480533671583662,0.0543213,-0.133362,0.26947,0.952148
1480533671606723,0.0543213,-0.133545,0.269531,0.952087
1480533671627278,0.0541992,-0.133667,0.269653,0.952087
1480533671643320,0.0540771,-0.13385,0.269775,0.952026
1480533671667384,0.0543823,-0.13385,0.269897,0.951965
1480533671686936,0.0546265,-0.133667,0.270203,0.951904
1480533671703480,0.0540771,-0.133362,0.27063,0.951843
1480533671726041,0.0532837,-0.133118,0.270874,0.951843
1480533671748600,0.0531006,-0.132813,0.271179,0.951843
1480533671763645,0.0529785,-0.132629,0.271545,0.951721
1480533671786202,0.0524902,-0.132629,0.271912,0.95166
1480533671809262,0.0524292,-0.132568,0.272095,0.951599
1480533671823299,0.0523071,-0.132751,0.272339,0.951538
1480533671845859,0.0517578,-0.132935,0.272583,0.951477
1480533671875939,0.0512085,-0.133057,0.272644,0.951477
1480533671882958,0.0513306,-0.133118,0.272766,0.951416
1480533671906019,0.0516357,-0.133179,0.272949,0.951294
1480533671929582,0.0517578,-0.133362,0.273132,0.951233
1480533671950638,0.0516968,-0.133484,0.273254,0.951172
1480533671966180,0.0513916,-0.133667,0.273438,0.951111
1480533671995758,0.0510254,-0.133728,0.27356,0.951111
1480533672011299,0.0509033,-0.133728,0.273682,0.95105
1480533672033358,0.0510254,-0.133667,0.273804,0.95105
1480533672048397,0.0514526,-0.133484,0.273865,0.95105
1480533672062936,0.0513306,-0.133545,0.273926,0.950989
1480533672085999,0.0512085,-0.133484,0.273926,0.95105
1480533672122596,0.0512695,-0.133423,0.273926,0.95105
1480533672137135,0.0515137,-0.133423,0.274048,0.950989
1480533672153678,0.0516357,-0.133301,0.27417,0.950928
1480533672168721,0.0518799,-0.133179,0.274231,0.950928
1480533672189863,0.052124,-0.133179,0.274414,0.950867
1480533672207822,0.052063,-0.133118,0.274414,0.950867
1480533672228377,0.0517578,-0.133118,0.274597,0.950867
1480533672249432,0.0517578,-0.133057,0.274597,0.950867
1480533672273498,0.0517578,-0.133057,0.274597,0.950867
1480533672288537,0.0516357,-0.132996,0.27478,0.950806
1480533672309592,0.0513916,-0.132996,0.275024,0.950745
1480533672326138,0.0510864,-0.132996,0.275208,0.950745
1480533672349699,0.0502319,-0.133118,0.27533,0.950745
1480533672369252,0.0494995,-0.13324,0.275513,0.950684
1480533672393316,0.0494995,-0.13324,0.275513,0.950684
1480533672414372,0.0496216,-0.133179,0.275696,0.950623
1480533672430916,0.0499878,-0.133057,0.27594,0.950562
1480533672445957,0.0499268,-0.132996,0.276123,0.9505
1480533672468520,0.0495605,-0.132996,0.276245,0.9505
1480533672489571,0.0490112,-0.133057,0.276367,0.9505
1480533672506115,0.0483398,-0.133118,0.27655,0.9505
1480533672534692,0.0482788,-0.133057,0.27655,0.9505
1480533672549731,0.0482788,-0.133057,0.27655,0.9505
1480533672565774,0.0481567,-0.132996,0.276733,0.950439
1480533672588835,0.0481567,-0.132935,0.276733,0.950439
1480533672609891,0.0481567,-0.132874,0.276733,0.950439
1480533672625934,0.0479736,-0.132874,0.276917,0.950439
1480533672648995,0.0479126,-0.132813,0.276917,0.950439
1480533672669553,0.0479126,-0.132751,0.277161,0.950378
1480533672686094,0.0481567,-0.132751,0.277283,0.950317
1480533672709156,0.0481567,-0.132629,0.277527,0.950256
1480533672731214,0.0483398,-0.132507,0.277771,0.950195
1480533672746254,0.0483398,-0.132507,0.277771,0.950195
1480533672768317,0.0482788,-0.132446,0.277771,0.950195
1480533672796889,0.0477295,-0.132507,0.277893,0.950195
1480533672813437,0.0474243,-0.132629,0.277954,0.950195
1480533672828975,0.0478516,-0.132446,0.278137,0.950134
1480533672851034,0.0481567,-0.132385,0.278381,0.950073
1480533672865070,0.0483398,-0.132324,0.278442,0.950012
1480533672889635,0.0487061,-0.132202,0.278564,0.950012
1480533672911193,0.048645,-0.132202,0.278748,0.949951
1480533672933251,0.0484619,-0.132202,0.278992,0.94989
1480533672948793,0.048645,-0.132141,0.279114,0.949829
1480533672970851,0.0489502,-0.13208,0.279236,0.949768
1480533672985394,0.0489502,-0.132019,0.279419,0.949768
1480533673009454,0.048584,-0.13208,0.279541,0.949707
1480533673031012,0.048584,-0.132019,0.279541,0.949768
1480533673045550,0.048584,-0.131958,0.279541,0.949768
1480533673068616,0.0485229,-0.13208,0.279663,0.949707
1480533673091672,0.0487671,-0.131897,0.279907,0.949646
1480533673105710,0.0490112,-0.131836,0.28009,0.949585
1480533673129130,0.0489502,-0.131958,0.280273,0.949524
1480533673156846,0.0484009,-0.132202,0.280334,0.949524
1480533673171886,0.0483398,-0.132263,0.280518,0.949402
1480533673194447,0.0489502,-0.132202,0.280762,0.949341
1480533673212494,0.0493774,-0.132141,0.280945,0.94928
1480533673232548,0.0496216,-0.13208,0.281128,0.949219
1480533673248591,0.0495605,-0.132202,0.28125,0.949158
1480533673278670,0.0494995,-0.132324,0.281433,0.949097
1480533673293209,0.0497437,-0.132263,0.281555,0.949036
1480533673308250,0.0500488,-0.132324,0.281738,0.948975
1480533673330810,0.0507202,-0.132263,0.28186,0.948914
1480533673351866,0.0512085,-0.132202,0.281982,0.948853
1480533673368412,0.0515137,-0.132141,0.282166,0.948792
1480533673390969,0.0518188,-0.13208,0.282288,0.94873
1480533673412025,0.052124,-0.132141,0.282349,0.948669
1480533673429126,0.0522461,-0.132324,0.282471,0.948608
1480533673451634,0.0524902,-0.132324,0.282593,0.948608
1480533673472185,0.0531006,-0.132385,0.282715,0.948486
1480533673489738,0.0534668,-0.132507,0.282715,0.948486
1480533673518310,0.0535889,-0.132568,0.282837,0.948425
1480533673531844,0.053894,-0.132629,0.28302,0.948364
1480533673548388,0.0544434,-0.13269,0.283142,0.948242
1480533673570949,0.0548096,-0.13269,0.283325,0.948181
1480533673592505,0.0550537,-0.13269,0.283447,0.94812
1480533673608548,0.0554199,-0.132751,0.283569,0.948059
1480533673631108,0.055481,-0.132874,0.283752,0.947998
1480533673661188,0.0552979,-0.132935,0.283997,0.947937
1480533673668210,0.055481,-0.132935,0.28418,0.947876
1480533673699289,0.0557861,-0.132874,0.284363,0.947754
1480533673713327,0.0558472,-0.132935,0.284607,0.947693
1480533673727865,0.0557861,-0.132874,0.28479,0.947632
1480533673750927,0.0561523,-0.132813,0.285034,0.947571
1480533673781007,0.0562134,-0.132874,0.285278,0.94751
1480533673788025,0.0560303,-0.132935,0.285461,0.947449
1480533673811087,0.0559082,-0.132935,0.285645,0.947388
1480533673833647,0.0559692,-0.132935,0.285828,0.947327
1480533673847684,0.0559692,-0.132935,0.286072,0.947266
1480533673870746,0.0557861,-0.132813,0.286316,0.947205
1480533673900826,0.055481,-0.132874,0.286499,0.947144
1480533673907843,0.0551147,-0.132935,0.286621,0.947144
1480533673945945,0.0550537,-0.132874,0.286621,0.947144
1480533673959482,0.0549316,-0.132813,0.286865,0.947083
1480533673968006,0.0548706,-0.132813,0.286865,0.947083
1480533673991567,0.0548706,-0.132751,0.286865,0.947083
1480533674028749,0.0541992,-0.132751,0.286926,0.947144
1480533674031674,0.0535889,-0.132751,0.286987,0.947144
1480533674058244,0.0533447,-0.13269,0.287048,0.947144
1480533674073786,0.0532837,-0.13269,0.287048,0.947144
1480533674088825,0.0532227,-0.132629,0.287048,0.947144
1480533674110883,0.0532837,-0.132568,0.287048,0.947144
1480533674134447,0.0529785,-0.132507,0.287048,0.947205
1480533674155001,0.0523682,-0.132385,0.28717,0.947205
1480533674177060,0.0518188,-0.132324,0.287354,0.947205
1480533674194607,0.0517578,-0.132324,0.287354,0.947205
1480533674214660,0.0516968,-0.132263,0.287354,0.947205
1480533674231204,0.0516357,-0.132202,0.287354,0.947205
1480533674259781,0.0513306,-0.132202,0.287415,0.947205
1480533674274318,0.0509033,-0.132263,0.287415,0.947205
1480533674291865,0.050415,-0.132263,0.287659,0.947205
1480533674321945,0.0501709,-0.132202,0.287842,0.947144
1480533674335983,0.0501709,-0.132202,0.287842,0.947144
1480533674351039,0.0501099,-0.132141,0.287842,0.947144
1480533674374496,0.0498047,-0.132141,0.288025,0.947144
1480533674394639,0.0498657,-0.13208,0.288147,0.947083
1480533674411684,0.0498657,-0.132141,0.288147,0.947083
1480533674433743,0.0496216,-0.132141,0.288269,0.947083
1480533674454297,0.0496216,-0.132141,0.288391,0.947021
1480533674471844,0.0500488,-0.131958,0.288513,0.94696
1480533674495407,0.050354,-0.131836,0.288757,0.946899
1480533674514457,0.050293,-0.131775,0.288757,0.946899
1480533674531503,0.0502319,-0.131775,0.288757,0.946899
1480533674554063,0.050415,-0.131653,0.28894,0.946899
1480533674576121,0.0505371,-0.131531,0.289124,0.946838
1480533674597177,0.0505981,-0.13147,0.289185,0.946777
1480533674613721,0.0506592,-0.131531,0.289307,0.946777
1480533674635780,0.0508423,-0.131592,0.289368,0.946716
1480533674650820,0.0508423,-0.131592,0.289551,0.946655
1480533674674383,0.0510864,-0.131531,0.289734,0.946594
1480533674695940,0.0512695,-0.131531,0.289795,0.946594
1480533674712484,0.0513306,-0.13147,0.289917,0.946533
1480533674733541,0.0512085,-0.131348,0.290161,0.946533
1480533674756100,0.0512085,-0.131348,0.290283,0.946472
1480533674770137,0.0513306,-0.13147,0.290283,0.946411
1480533674794202,0.0511475,-0.131531,0.290466,0.946411
1480533674815758,0.0512085,-0.13147,0.290649,0.94635
1480533674830520,0.0515747,-0.131409,0.29071,0.946289
1480533674860879,0.0516968,-0.131409,0.290833,0.946289
1480533674876420,0.0515137,-0.131409,0.291016,0.946228
1480533674890959,0.0515137,-0.131409,0.291077,0.946167
1480533674913520,0.0515137,-0.131409,0.29126,0.946167
1480533674936079,0.0514526,-0.131287,0.291443,0.946106
1480533674957637,0.0514526,-0.131287,0.291565,0.946045
1480533674973679,0.0515747,-0.131287,0.291626,0.946045
1480533674996240,0.0517578,-0.131287,0.291748,0.945984
1480533675010276,0.0517578,-0.131287,0.29187,0.945984
1480533675033338,0.052002,-0.131226,0.291992,0.945923
1480533675061913,0.0521851,-0.131226,0.292053,0.945862
1480533675077956,0.052124,-0.131226,0.292236,0.945862
1480533675101521,0.052002,-0.131226,0.292358,0.945801
1480533675116057,0.052063,-0.131226,0.29248,0.94574
1480533675137113,0.0522461,-0.131226,0.292542,0.94574
1480533675153658,0.052124,-0.131226,0.292725,0.945679
1480533675175716,0.052063,-0.131165,0.292847,0.945618
1480533675196773,0.0524292,-0.131165,0.292969,0.945618
1480533675215322,0.0524292,-0.131104,0.292969,0.945618
1480533675235877,0.0523071,-0.131042,0.292969,0.945618
1480533675259941,0.0523071,-0.131042,0.292969,0.945618
1480533675273476,0.0524292,-0.130981,0.293152,0.945557
1480533675296537,0.0524902,-0.130859,0.293396,0.945496
1480533675324613,0.0524292,-0.130798,0.293396,0.945496
1480533675333637,0.0524292,-0.130859,0.293518,0.945435
1480533675356196,0.052124,-0.130981,0.293762,0.945374
1480533675376751,0.0519409,-0.131042,0.293823,0.945374
1480533675394298,0.0521851,-0.130981,0.294006,0.945313
1480533675415855,0.0526733,-0.130798,0.29425,0.945251
1480533675444431,0.0526123,-0.130737,0.294373,0.94519
1480533675460475,0.0526123,-0.130737,0.294373,0.94519
1480533675482031,0.0524292,-0.130737,0.294556,0.945129
1480533675497071,0.0522461,-0.130737,0.2948,0.945068
1480533675513615,0.052124,-0.130798,0.294922,0.945068
1480533675542191,0.0522461,-0.130676,0.295105,0.945007
1480533675565754,0.0527344,-0.130554,0.295288,0.944946
1480533675573274,0.0529175,-0.130432,0.29541,0.944885
1480533675603354,0.0526733,-0.130493,0.295532,0.944885
1480533675618394,0.0526733,-0.130493,0.295593,0.944824
1480533675633434,0.0526123,-0.130554,0.295654,0.944824
1480533675656496,0.0523682,-0.130554,0.295776,0.944824
1480533675684571,0.0526123,-0.130493,0.295898,0.944763
1480533675708633,0.0528564,-0.130493,0.295959,0.944702
1480533675718159,0.0529785,-0.130493,0.296082,0.944702
1480533675738213,0.0529785,-0.130493,0.296204,0.944641
1480533675760774,0.0532227,-0.130493,0.296326,0.94458
1480533675775812,0.0534668,-0.130371,0.296448,0.94458
1480533675805893,0.0533447,-0.130371,0.296631,0.944519
1480533675814416,0.0532837,-0.130371,0.296753,0.944458
1480533675841989,0.0533447,-0.130371,0.296875,0.944458
1480533675858533,0.0532837,-0.130432,0.296936,0.944397
1480533675872570,0.0532227,-0.130371,0.297119,0.944336
1480533675896634,0.0534668,-0.13031,0.297241,0.944336
1480533675918693,0.0537109,-0.13031,0.297302,0.944275
1480533675932730,0.053833,-0.130249,0.297485,0.944214
1480533675957296,0.0537109,-0.130127,0.297668,0.944214
1480533675985872,0.0537109,-0.130066,0.297668,0.944214
1480533676000914,0.0536499,-0.130005,0.297668,0.944214
1480533676015951,0.0535889,-0.130005,0.297729,0.944214
1480533676040016,0.0535889,-0.130005,0.297852,0.944153
1480533676059567,0.053833,-0.129883,0.297974,0.944153
1480533676076625,0.0540771,-0.129761,0.298157,0.944092
1480533676099687,0.053894,-0.129761,0.298279,0.944031
1480533676121244,0.053833,-0.129883,0.29834,0.944031
1480533676143303,0.053833,-0.130005,0.298462,0.94397
1480533676166364,0.053772,-0.130066,0.298706,0.943848
1480533676186919,0.0539551,-0.129944,0.29895,0.943787
1480533676195943,0.0541992,-0.129883,0.299011,0.943787
1480533676218503,0.053894,-0.129944,0.299133,0.943726
1480533676239558,0.0534058,-0.130005,0.299194,0.943726
1480533676263622,0.0536499,-0.129944,0.299377,0.943665
1480533676279164,0.0539551,-0.129944,0.2995,0.943604
1480533676299719,0.0539551,-0.129883,0.299683,0.943604
1480533676316263,0.053894,-0.129883,0.299866,0.943542
1480533676339324,0.0539551,-0.129944,0.299988,0.943481
1480533676368401,0.053894,-0.130005,0.30011,0.94342
1480533676376422,0.053894,-0.129944,0.300354,0.943359
1480533676404497,0.0539551,-0.129944,0.300476,0.943298
1480533676421042,0.0543213,-0.129883,0.300537,0.943298
1480533676436583,0.0545044,-0.129883,0.30072,0.943237
1480533676458641,0.0543823,-0.129944,0.300842,0.943176
1480533676488722,0.0546875,-0.130005,0.300903,0.943115
1480533676495740,0.0551147,-0.130066,0.301025,0.943054
1480533676525821,0.055481,-0.130005,0.301331,0.942932
1480533676541361,0.0560303,-0.129883,0.301453,0.942871
1480533676555901,0.0565186,-0.129944,0.301636,0.94281
1480533676578460,0.0567017,-0.129944,0.301819,0.942749
1480533676601024,0.0566406,-0.130005,0.302002,0.942627
1480533676615058,0.0569458,-0.130127,0.302124,0.942566
1480533676644637,0.0574341,-0.130066,0.302246,0.942505
1480533676661181,0.0575562,-0.130066,0.302368,0.942505
1480533676675218,0.0576172,-0.130127,0.302429,0.942444
1480533676699282,0.0579834,-0.130127,0.302612,0.942383
1480533676720838,0.0583496,-0.130127,0.302795,0.942322
1480533676735378,0.0582886,-0.130066,0.302979,0.942261
1480533676771974,0.0583496,-0.130066,0.303101,0.9422
1480533676780999,0.0584106,-0.130066,0.303223,0.942139
1480533676795656,0.0581665,-0.130188,0.303345,0.942139
1480533676820103,0.0581055,-0.130249,0.303467,0.942078
1480533676841159,0.0585327,-0.130188,0.303711,0.941956
1480533676855196,0.0587158,-0.130127,0.303894,0.941895
1480533676879762,0.0584717,-0.130188,0.304016,0.941895
1480533676900820,0.0581665,-0.13031,0.304199,0.941833
1480533676915356,0.0580444,-0.130554,0.304382,0.941772
1480533676938919,0.0581055,-0.130554,0.304565,0.94165
1480533676960979,0.0581055,-0.130554,0.30481,0.941589
1480533676990055,0.0583496,-0.130493,0.304932,0.941528
1480533677000082,0.0583496,-0.130493,0.305054,0.941528
1480533677021138,0.0581055,-0.130554,0.305237,0.941467
1480533677042194,0.0582275,-0.130432,0.30542,0.941406
1480533677058737,0.0583496,-0.130554,0.305542,0.941345
1480533677081799,0.0582886,-0.130554,0.305725,0.941284
1480533677109874,0.0582275,-0.130554,0.305908,0.941223
1480533677127922,0.0581665,-0.130554,0.305969,0.941223
1480533677147473,0.0580444,-0.130676,0.30603,0.941162
1480533677165020,0.0579834,-0.130615,0.30603,0.941162
1480533677178557,0.0579224,-0.130615,0.30603,0.941223
1480533677207132,0.0579224,-0.130554,0.30603,0.941223
1480533677222172,0.0579224,-0.130554,0.30603,0.941223
1480533677238719,0.0578613,-0.130493,0.30603,0.941223
1480533677268295,0.0574951,-0.130554,0.306152,0.941223
1480533677284338,0.0571289,-0.130615,0.306152,0.941223
1480533677298375,0.0571289,-0.130554,0.306152,0.941223
1480533677320935,0.0570068,-0.130493,0.306152,0.941223
1480533677341991,0.0568237,-0.130432,0.306152,0.941223
1480533677372071,0.0566406,-0.130371,0.306213,0.941223
1480533677388616,0.0560303,-0.130371,0.306396,0.941223
1480533677401652,0.0554199,-0.130432,0.306458,0.941223
1480533677419202,0.0554199,-0.130371,0.306458,0.941223
1480533677440754,0.0552368,-0.130371,0.306702,0.941162
1480533677469330,0.0551758,-0.13031,0.306702,0.941223
1480533677479357,0.0551758,-0.130249,0.306702,0.941223
1480533677514449,0.0546875,-0.13031,0.306763,0.941223
1480533677530993,0.0546265,-0.13031,0.306763,0.941223
1480533677546034,0.0545044,-0.130127,0.306946,0.941162
1480533677561575,0.0546265,-0.130066,0.307129,0.941101
1480533677583638,0.0543823,-0.130127,0.307312,0.94104
1480533677597672,0.0539551,-0.130249,0.307312,0.94104
1480533677627250,0.053833,-0.13031,0.307495,0.940979
1480533677650813,0.053894,-0.13031,0.307678,0.940918
1480533677665853,0.053833,-0.130249,0.3078,0.940918
1480533677681394,0.053772,-0.130249,0.3078,0.940918
1480533677703954,0.0536499,-0.130249,0.307983,0.940857
1480533677718495,0.0534058,-0.130371,0.308044,0.940857
1480533677741052,0.0533447,-0.130371,0.308044,0.940857
1480533677764114,0.0532837,-0.13031,0.308044,0.940857
1480533677786173,0.0533447,-0.13031,0.308167,0.940796
1480533677808733,0.0533447,-0.13031,0.308167,0.940796
1480533677823773,0.0532837,-0.130249,0.308167,0.940857
1480533677838813,0.0532227,-0.130188,0.308167,0.940857
1480533677860872,0.0532227,-0.130188,0.308167,0.940857
1480533677883432,0.0531616,-0.130127,0.308167,0.940857
1480533677897970,0.0530396,-0.130066,0.30835,0.940796
1480533677928553,0.0529785,-0.130066,0.30835,0.940796
1480533677944594,0.0529785,-0.130005,0.30835,0.940796
1480533677964647,0.0527954,-0.129944,0.308533,0.940796
1480533677981692,0.0527954,-0.129883,0.308533,0.940796
1480533678003250,0.0527344,-0.129944,0.308655,0.940735
1480533678025810,0.0524902,-0.130005,0.308838,0.940674
1480533678041853,0.0524902,-0.129944,0.30896,0.940674
1480533678063410,0.0526733,-0.129883,0.309143,0.940613
1480533678085970,0.0526733,-0.129883,0.309265,0.940552
1480533678101511,0.0526123,-0.129822,0.309326,0.940552
1480533678123570,0.0525513,-0.129883,0.309509,0.940491
1480533678146130,0.0524902,-0.129883,0.309509,0.940491
1480533678161170,0.0524292,-0.129822,0.309509,0.940491
1480533678206290,0.0525513,-0.1297,0.309753,0.94043
1480533678208797,0.0528564,-0.129639,0.309814,0.940369
1480533678229852,0.0529175,-0.129639,0.309937,0.940369
1480533678243389,0.0525513,-0.129822,0.310059,0.940308
1480533678271965,0.0523682,-0.129944,0.310181,0.940247
1480533678280989,0.0527344,-0.129883,0.310303,0.940186
1480533678311069,0.0527344,-0.129822,0.310547,0.940125
1480533678324606,0.0526123,-0.1297,0.31073,0.940125
1480533678341149,0.0527344,-0.129639,0.310791,0.940063
1480533678363708,0.0526733,-0.129639,0.310913,0.940063
1480533678386269,0.0524292,-0.1297,0.311096,0.940002
1480533678401816,0.0524902,-0.1297,0.311157,0.939941
1480533678423368,0.0527954,-0.129639,0.31134,0.93988
1480533678445928,0.0529785,-0.129578,0.311584,0.939819
1480533678467487,0.0529175,-0.129578,0.311768,0.939758
1480533678485032,0.0527954,-0.129578,0.311829,0.939758
1480533678506088,0.0526733,-0.129639,0.311951,0.939697
1480533678520125,0.0526733,-0.129639,0.312073,0.939636
1480533678543688,0.0526123,-0.129578,0.312256,0.939636
1480533678565746,0.0527954,-0.129578,0.312317,0.939575
1480533678580285,0.0529175,-0.129639,0.312378,0.939575
1480533678603346,0.0527344,-0.129639,0.3125,0.939514
1480533678625906,0.0526733,-0.129761,0.312622,0.939453
1480533678641447,0.0530396,-0.1297,0.312744,0.939392
1480533678669522,0.0532227,-0.129639,0.312927,0.939331
1480533678686067,0.0529785,-0.129639,0.313049,0.939331
1480533678707624,0.0529175,-0.129761,0.31311,0.93927
1480533678724167,0.0530396,-0.1297,0.313171,0.93927
1480533678760765,0.0531616,-0.129639,0.313416,0.939209
1480533678763568,0.0531006,-0.129578,0.313416,0.939209
1480533678783325,0.0531616,-0.129578,0.313477,0.939148
1480533678813405,0.0531006,-0.129639,0.31366,0.939087
1480533678820424,0.0529785,-0.129517,0.313904,0.939026
1480533678843485,0.0531616,-0.129456,0.313965,0.939026
1480533678866045,0.0532837,-0.129456,0.314087,0.938965
1480533678887602,0.0530396,-0.129578,0.314209,0.938965
1480533678917183,0.0531006,-0.129578,0.314331,0.938904
1480533678934732,0.0534668,-0.129578,0.314514,0.938843
1480533678947261,0.0537109,-0.129517,0.314636,0.938782
1480533678963303,0.0534058,-0.129517,0.314819,0.938721
1480533678986866,0.0533447,-0.129456,0.314819,0.938721
1480533679023966,0.0535278,-0.129333,0.315002,0.93866
1480533679037000,0.0534058,-0.129456,0.315125,0.938599
1480533679052040,0.0534058,-0.129456,0.315308,0.938538
1480533679067083,0.0533447,-0.129395,0.315308,0.938538
1480533679083627,0.0534058,-0.129395,0.315491,0.938538
1480533679106184,0.0532227,-0.129456,0.315552,0.938477
1480533679126738,0.0533447,-0.129333,0.315796,0.938416
1480533679143283,0.0535278,-0.129333,0.315918,0.938354
1480533679173363,0.0534668,-0.129272,0.315918,0.938354
1480533679194419,0.0531616,-0.129333,0.316101,0.938354
1480533679210963,0.0532227,-0.129272,0.316284,0.938293
1480533679228009,0.0531006,-0.129272,0.316345,0.938232
1480533679247058,0.0528564,-0.129333,0.316467,0.938232
1480533679264606,0.0531006,-0.129272,0.316589,0.938171
1480533679286163,0.0534058,-0.12915,0.316772,0.93811
1480533679314238,0.0532837,-0.129211,0.316895,0.938049
1480533679330781,0.0531006,-0.129272,0.317017,0.938049
1480533679345822,0.0529175,-0.129333,0.317139,0.937988
1480533679368382,0.0529785,-0.129333,0.317261,0.937927
1480533679383422,0.0529175,-0.129272,0.317444,0.937866
1480533679405981,0.0531006,-0.12915,0.317627,0.937866
1480533679429044,0.0534668,-0.129028,0.317749,0.937805
1480533679458622,0.0534058,-0.128967,0.317749,0.937805
1480533679473661,0.0532837,-0.128967,0.317749,0.937805
1480533679496222,0.0532227,-0.128967,0.317871,0.937805
1480533679502739,0.0536499,-0.128784,0.318054,0.937683
1480533679525800,0.053833,-0.128723,0.318237,0.937683
1480533679548360,0.0535889,-0.128784,0.31842,0.937622
1480533679563445,0.0534668,-0.128967,0.31842,0.937561
1480533679594984,0.0536499,-0.128967,0.318604,0.9375
1480533679609021,0.0535889,-0.128906,0.318848,0.937439
1480533679622557,0.0537109,-0.128784,0.319031,0.937378
1480533679646622,0.053833,-0.128723,0.319092,0.937378
1480533679668680,0.0535889,-0.128784,0.319214,0.937317
1480533679682717,0.0534668,-0.128723,0.319458,0.937256
1480533679705779,0.0533447,-0.128906,0.319519,0.937195
1480533679728339,0.0535278,-0.128906,0.319702,0.937134
1480533679742877,0.0535278,-0.128906,0.319885,0.937073
1480533679766945,0.0536499,-0.128723,0.320129,0.937012
1480533679788500,0.0537109,-0.128723,0.320251,0.936951
1480533679803037,0.0534058,-0.128845,0.320313,0.936951
1480533679826099,0.0531616,-0.128845,0.320557,0.93689
1480533679848157,0.0532837,-0.128906,0.320679,0.936829
1480533679870721,0.0535889,-0.128845,0.320801,0.936768
1480533679886259,0.0535889,-0.128906,0.321045,0.936707
1480533679908317,0.0534668,-0.128845,0.321167,0.936646
1480533679929375,0.0535889,-0.128845,0.321289,0.936584
1480533679945917,0.0537109,-0.128784,0.321472,0.936523
1480533679968479,0.0536499,-0.128784,0.321594,0.936523
1480533679992040,0.053833,-0.128723,0.321716,0.936462
1480533680012596,0.0540771,-0.128723,0.321838,0.936401
1480533680028638,0.0540771,-0.128784,0.322021,0.93634
1480533680049694,0.0540161,-0.128723,0.322266,0.936279
1480533680066741,0.0540161,-0.128784,0.322449,0.936218
1480533680090301,0.0541992,-0.128784,0.322632,0.936096
1480533680109353,0.0542603,-0.128723,0.322876,0.936035
1480533680125896,0.0542603,-0.128662,0.323059,0.935974
1480533680148456,0.0545044,-0.128662,0.323181,0.935913
1480533680169513,0.0545044,-0.128723,0.323303,0.935852
1480533680186558,0.0543823,-0.128723,0.323486,0.935852
1480533680208616,0.0543823,-0.128723,0.323608,0.935791
1480533680230676,0.0546265,-0.128723,0.32373,0.93573
1480533680251732,0.0545654,-0.128784,0.323853,0.935669
1480533680268276,0.0545044,-0.128845,0.323975,0.935608
1480533680291336,0.0546875,-0.128967,0.324036,0.935547
1480533680306377,0.0551758,-0.128845,0.32428,0.935486
1480533680328437,0.0553589,-0.128784,0.324463,0.935425
1480533680352499,0.0553589,-0.128784,0.324585,0.935364
1480533680375059,0.0554199,-0.128784,0.324707,0.935303
1480533680388595,0.0553589,-0.128784,0.324951,0.935242
1480533680411656,0.0552979,-0.128845,0.325073,0.935181
1480533680425192,0.0554199,-0.128906,0.325195,0.93512
1480533680448254,0.055603,-0.128906,0.325378,0.935059
1480533680470813,0.055603,-0.128845,0.325623,0.934998
1480533680485352,0.0556641,-0.128845,0.325745,0.934937
1480533680508414,0.0558472,-0.128784,0.325867,0.934875
1480533680530974,0.0557861,-0.128784,0.32605,0.934814
1480533680545512,0.0557251,-0.128784,0.326294,0.934753
1480533680574589,0.0560303,-0.128784,0.326416,0.934692
1480533680591133,0.0561523,-0.128723,0.326599,0.934631
1480533680612189,0.0559692,-0.128723,0.326843,0.93457
1480533680629044,0.0558472,-0.128784,0.327026,0.934509
1480533680650792,0.0560303,-0.128723,0.327209,0.934448
1480533680665334,0.0560913,-0.128723,0.327332,0.934387
1480533680688393,0.0559692,-0.128845,0.327454,0.934326
1480533680716972,0.0560913,-0.128845,0.327637,0.934265
1480533680725491,0.0562134,-0.128906,0.327698,0.934204
1480533680748552,0.0560913,-0.128967,0.327759,0.934204
1480533680771613,0.0562134,-0.128967,0.327942,0.934143
1480533680792183,0.0563354,-0.129028,0.328125,0.934082
1480533680808225,0.0562134,-0.129028,0.328247,0.934021
1480533680838305,0.0560913,-0.129089,0.328308,0.93396
1480533680852844,0.0560303,-0.129028,0.328308,0.93396
1480533680868887,0.0560303,-0.129028,0.328369,0.934021
1480533680890945,0.0559692,-0.128967,0.328369,0.934021
1480533680912001,0.0559082,-0.128967,0.328369,0.934021
1480533680928552,0.0559082,-0.128906,0.328369,0.934021
1480533680951105,0.0557861,-0.128784,0.328247,0.934082
1480533680972161,0.0552368,-0.128723,0.328186,0.934143
1480533680988705,0.0551147,-0.128723,0.328186,0.934143
1480533681010765,0.0551147,-0.128662,0.328186,0.934143
1480533681033327,0.0551147,-0.128601,0.328186,0.934143
1480533681049367,0.0546265,-0.128418,0.328186,0.934204
1480533681078444,0.0542603,-0.128174,0.328186,0.934265
1480533681091982,0.0539551,-0.128052,0.328125,0.934326
1480533681117052,0.0534058,-0.127991,0.328064,0.934387
1480533681138606,0.0533447,-0.127991,0.328064,0.934387
1480533681153644,0.0533447,-0.12793,0.328064,0.934387
1480533681168684,0.0533447,-0.127869,0.328064,0.934387
1480533681191244,0.0528564,-0.127747,0.328125,0.934448
1480533681212300,0.0524292,-0.127625,0.328003,0.934509
1480533681228344,0.0524902,-0.127625,0.328003,0.934509
1480533681251405,0.0523682,-0.127625,0.328003,0.934509
1480533681273965,0.0523682,-0.127563,0.328064,0.934509
1480533681289505,0.0522461,-0.12738,0.327942,0.93457
1480533681311063,0.0518188,-0.127319,0.327881,0.934631
1480533681333625,0.0517578,-0.127258,0.327881,0.934631
1480533681348664,0.0517578,-0.127258,0.327881,0.934631
1480533681370722,0.0517578,-0.127197,0.327881,0.934631
1480533681400805,0.0517578,-0.127197,0.327881,0.934631
1480533681417346,0.0516968,-0.127136,0.327881,0.934631
1480533681430882,0.0516968,-0.127136,0.327881,0.934631
1480533681453442,0.0516968,-0.127136,0.327881,0.934631
1480533681467980,0.0516357,-0.127075,0.327942,0.934631
1480533681491543,0.0515747,-0.127014,0.327942,0.934692
1480533681521122,0.0515747,-0.127014,0.327942,0.934692
1480533681536161,0.0515747,-0.127014,0.327942,0.934692
1480533681551202,0.0515137,-0.126953,0.327942,0.934692
1480533681573261,0.0515137,-0.126953,0.327942,0.934692
1480533681587799,0.0515137,-0.126892,0.327942,0.934692
1480533681610860,0.0514526,-0.126892,0.327942,0.934692
1480533681633423,0.0513916,-0.126831,0.327942,0.934692
1480533681647959,0.0513916,-0.126831,0.327942,0.934692
1480533681671021,0.0513916,-0.126831,0.327942,0.934692
1480533681693580,0.0513306,-0.12677,0.327942,0.934692
1480533681707618,0.0513306,-0.12677,0.327942,0.934692
1480533681730679,0.0513306,-0.126709,0.327942,0.934692
1480533681753743,0.0512695,-0.126709,0.327942,0.934692
1480533681758754,0.0512695,-0.126648,0.327942,0.934692
1480533681777806,0.0512695,-0.126587,0.327942,0.934753
1480533681796355,0.0512695,-0.126587,0.327942,0.934753
1480533681826434,0.0511475,-0.126587,0.328003,0.934753
1480533681844482,0.0511475,-0.126526,0.328003,0.934753
1480533681856514,0.0511475,-0.126526,0.328003,0.934753
1480533681878572,0.0510864,-0.126465,0.328003,0.934753
1480533681901132,0.0510864,-0.126465,0.328003,0.934753
1480533681923692,0.0510864,-0.126404,0.328003,0.934753
1480533681938733,0.0510254,-0.126404,0.328003,0.934753
1480533681956780,0.0505371,-0.126404,0.327881,0.934814
1480533681976333,0.0505371,-0.126404,0.327881,0.934814
1480533681998894,0.0505371,-0.126343,0.327881,0.934814
1480533682016946,0.0505371,-0.126343,0.327881,0.934814
1480533682036493,0.0504761,-0.126343,0.327881,0.934814
1480533682059054,0.0504761,-0.126282,0.327881,0.934814
1480533682090135,0.0504761,-0.126282,0.327881,0.934814
1480533682103671,0.050415,-0.126282,0.327881,0.934814
1480533682121719,0.050415,-0.126221,0.327881,0.934875
1480533682144280,0.050415,-0.126221,0.327881,0.934875
1480533682156311,0.050415,-0.126221,0.327881,0.934875
1480533682186893,0.050354,-0.12616,0.327881,0.934875
1480533682201432,0.050354,-0.12616,0.327881,0.934875
1480533682216474,0.050354,-0.126099,0.327881,0.934875
1480533682239031,0.050293,-0.126099,0.327881,0.934875
1480533682264098,0.0502319,-0.126099,0.327881,0.934875
1480533682285154,0.050293,-0.126038,0.327881,0.934875
1480533682298690,0.0502319,-0.126038,0.327881,0.934875
1480533682321250,0.0501709,-0.126038,0.327942,0.934875
1480533682336291,0.0501709,-0.125977,0.327942,0.934875
1480533682358850,0.0502319,-0.125916,0.327942,0.934875
1480533682384421,0.0498047,-0.125977,0.32782,0.934937
1480533682396450,0.0492554,-0.125977,0.327759,0.934998
1480533682419010,0.0493164,-0.125977,0.327759,0.934998
1480533682441572,0.0496826,-0.125671,0.32782,0.934998
1480533682456109,0.0496826,-0.125671,0.32782,0.934998
1480533682478669,0.0493774,-0.125549,0.327759,0.935059
1480533682501229,0.0494385,-0.125549,0.327759,0.935059
1480533682523788,0.0493774,-0.125488,0.327759,0.935059
1480533682541838,0.0493164,-0.125488,0.327759,0.935059
1480533682561391,0.0493164,-0.125488,0.327759,0.935059
1480533682576428,0.0493164,-0.125488,0.327759,0.935059
1480533682598989,0.0493164,-0.125427,0.327759,0.935059
1480533682630071,0.0492554,-0.125427,0.327759,0.935059
1480533682636087,0.0492554,-0.125366,0.327759,0.935059
1480533682658647,0.0492554,-0.125366,0.327759,0.935059
1480533682681207,0.0491943,-0.125366,0.327759,0.935059
1480533682697752,0.0492554,-0.125305,0.327759,0.935059
1480533682718807,0.0492554,-0.125305,0.327759,0.935059
1480533682741367,0.0492554,-0.125305,0.327759,0.935059
1480533682757911,0.0491943,-0.125244,0.327759,0.935059
1480533682778967,0.0491943,-0.125244,0.327759,0.93512
1480533682801527,0.0491943,-0.125183,0.327759,0.93512
1480533682819578,0.0491943,-0.125183,0.327759,0.93512
1480533682838626,0.0491943,-0.125183,0.327759,0.93512
1480533682861186,0.0492554,-0.125122,0.327759,0.93512
1480533682883749,0.0491943,-0.125122,0.327759,0.93512
1480533682898787,0.0491333,-0.125122,0.327759,0.93512
1480533682924355,0.0491333,-0.125122,0.327759,0.93512
1480533682939395,0.0491333,-0.125122,0.327759,0.93512
1480533682958947,0.0490723,-0.125122,0.327759,0.93512
1480533682981506,0.0490723,-0.125061,0.327759,0.93512
1480533682998050,0.0490723,-0.125061,0.327759,0.93512
1480533683018605,0.0491333,-0.125,0.327759,0.93512
1480533683042670,0.0490723,-0.125,0.327759,0.93512
1480533683059213,0.0490723,-0.125,0.327759,0.93512
1480533683078765,0.0490723,-0.125,0.327759,0.93512
1480533683101832,0.0493164,-0.124817,0.327881,0.93512
1480533683119373,0.0494385,-0.124512,0.328064,0.935059
1480533683138925,0.0494385,-0.124451,0.328064,0.935059
1480533683161485,0.0491943,-0.124634,0.327942,0.93512
1480533683179032,0.0491333,-0.124634,0.327942,0.93512
1480533683199589,0.0491333,-0.124573,0.327942,0.93512
1480533683221144,0.0495605,-0.12439,0.327942,0.93512
1480533683239192,0.0496216,-0.12439,0.327942,0.93512
1480533683258744,0.0495605,-0.12439,0.327942,0.93512
1480533683281303,0.0496216,-0.124329,0.327942,0.93512
1480533683306872,0.0496216,-0.124329,0.327942,0.93512
1480533683318904,0.0499268,-0.124084,0.328186,0.935059
1480533683348985,0.0500488,-0.123901,0.328491,0.934937
1480533683359524,0.0501099,-0.123657,0.328674,0.934937
1480533683378562,0.0501099,-0.123657,0.328674,0.934937
1480533683402125,0.0491943,-0.123779,0.328796,0.934937
1480533683419170,0.0485229,-0.123901,0.328674,0.934998
1480533683438723,0.048584,-0.123901,0.328674,0.934998
1480533683478328,0.048584,-0.123901,0.328674,0.934998
1480533683480834,0.0484009,-0.123901,0.328491,0.935059
1480533683506403,0.0482178,-0.123962,0.328308,0.93512
1480533683521442,0.0477295,-0.124146,0.328186,0.935181
1480533683544002,0.0476685,-0.124146,0.328186,0.935181
1480533683560548,0.0476685,-0.124146,0.328186,0.935181
1480533683581101,0.0482788,-0.12384,0.328247,0.93512
1480533683599654,0.048584,-0.123596,0.328369,0.93512
1480533683618701,0.0480347,-0.123596,0.328369,0.935181
1480533683648781,0.0475464,-0.123474,0.32843,0.935181
1480533683660312,0.0471802,-0.123352,0.328491,0.935181
1480533683678861,0.0471191,-0.123352,0.328491,0.935181
1480533683701421,0.046936,-0.123291,0.328308,0.935303
1480533683731500,0.0470581,-0.12323,0.328308,0.935303
1480533683741528,0.0470581,-0.12323,0.328308,0.935303
1480533683768599,0.0470581,-0.12323,0.328308,0.935303
1480533683785143,0.046814,-0.123291,0.328247,0.935303
1480533683823746,0.0466309,-0.123352,0.328186,0.935303
1480533683826254,0.0465698,-0.123352,0.328186,0.935303
1480533683843800,0.0465088,-0.123352,0.328186,0.935303
1480533683861848,0.046814,-0.123169,0.328064,0.935364
1480533683881400,0.046875,-0.123169,0.328064,0.935364
1480533683903963,0.046875,-0.123108,0.328064,0.935364
1480533683928026,0.0464478,-0.12323,0.327942,0.935425
1480533683941560,0.0465088,-0.123291,0.327942,0.935425
1480533683963619,0.0464478,-0.12323,0.327942,0.935425
1480533683980163,0.0464478,-0.12323,0.327942,0.935425
1480533684001219,0.0463867,-0.123169,0.327698,0.935547
1480533684023779,0.0464478,-0.123108,0.327698,0.935547
1480533684048344,0.0464478,-0.123108,0.327698,0.935547
1480533684065390,0.0461426,-0.123169,0.327637,0.935547
1480533684083939,0.0462036,-0.123169,0.327637,0.935547
1480533684101486,0.0462036,-0.123169,0.327637,0.935547
1480533684121538,0.0462036,-0.123169,0.327637,0.935547
1480533684145101,0.0461426,-0.123108,0.327515,0.935608
1480533684167662,0.0458984,-0.123169,0.327454,0.935669
1480533684181198,0.0458374,-0.123169,0.327454,0.935669
1480533684203758,0.0458374,-0.123169,0.327454,0.935669
1480533684222808,0.0458374,-0.123169,0.327454,0.935669
1480533684241360,0.0458374,-0.123169,0.327454,0.935669
1480533684272942,0.0454712,-0.122864,0.327454,0.93573
1480533684281464,0.0449829,-0.122803,0.327576,0.935669
1480533684301518,0.0454712,-0.122742,0.327393,0.93573
1480533684326585,0.0459595,-0.122681,0.327332,0.93573
1480533684349147,0.0460205,-0.12262,0.327332,0.93573
1480533684361176,0.0458374,-0.122986,0.326904,0.935852
1480533684383737,0.0458374,-0.123169,0.326599,0.935974
1480533684401784,0.0452271,-0.123352,0.326477,0.935974
1480533684421336,0.045166,-0.123352,0.326538,0.935974
1480533684443896,0.0457764,-0.12323,0.326477,0.935974
1480533684461944,0.0460815,-0.123047,0.326538,0.935974
1480533684483004,0.0462646,-0.122864,0.326599,0.935974
1480533684504558,0.0462646,-0.122864,0.326599,0.935974
1480533684521603,0.0464478,-0.122864,0.326599,0.935974
1480533684541154,0.0462036,-0.122864,0.326477,0.936035
1480533684563715,0.0460205,-0.122986,0.326294,0.936096
1480533684581763,0.0461426,-0.123169,0.325989,0.936157
1480533684602819,0.0465698,-0.123108,0.325623,0.936218
1480533684623876,0.046875,-0.123047,0.325378,0.93634
1480533684641923,0.0470581,-0.123047,0.325195,0.936401
1480533684661475,0.0469971,-0.123169,0.325012,0.936462
1480533684683533,0.0470581,-0.123169,0.325012,0.936462
1480533684701582,0.0470581,-0.123169,0.325012,0.936462
1480533684724142,0.0469971,-0.123169,0.325012,0.936462
1480533684743693,0.0469971,-0.123169,0.325012,0.936462
1480533684761742,0.0469971,-0.123169,0.325012,0.936462
1480533684782800,0.0471191,-0.122925,0.325134,0.936401
1480533684806862,0.0471191,-0.122925,0.325134,0.936401
1480533684821902,0.0471191,-0.122986,0.325134,0.936401
1480533684842957,0.0471191,-0.122986,0.325134,0.936401
1480533684864013,0.0471802,-0.122925,0.325134,0.936401
1480533684881561,0.0472412,-0.122925,0.325134,0.936401
1480533684902616,0.0471802,-0.122925,0.325134,0.936401
1480533684923673,0.0471802,-0.122925,0.325134,0.936401
1480533684941720,0.0472412,-0.122925,0.325134,0.936401
1480533684962776,0.0472412,-0.122925,0.325134,0.936401
1480533684983832,0.0472412,-0.122925,0.325134,0.936401
1480533685007896,0.0469971,-0.122925,0.325073,0.936462
1480533685024942,0.046875,-0.122986,0.325073,0.936462
1480533685051514,0.046875,-0.122986,0.325073,0.936462
1480533685061540,0.046875,-0.122925,0.325195,0.936401
1480533685088611,0.0471802,-0.122742,0.325195,0.936401
1480533685103651,0.0475464,-0.122559,0.325256,0.936401
1480533685137742,0.0475464,-0.122559,0.325256,0.936401
1480533685144259,0.0471802,-0.122681,0.325195,0.936401
1480533685163812,0.0471191,-0.122742,0.325134,0.936462
1480533685181860,0.0467529,-0.122742,0.325134,0.936462
1480533685208931,0.0462036,-0.122803,0.325134,0.936462
1480533685223971,0.0460815,-0.122803,0.325012,0.936523
1480533685241518,0.0457764,-0.122925,0.32489,0.936584
1480533685264079,0.0452271,-0.123047,0.324951,0.936584
1480533685283630,0.0449829,-0.123291,0.324768,0.936584
1480533685313709,0.0449829,-0.123352,0.324707,0.936584
1480533685339779,0.0446167,-0.123535,0.324707,0.936646
1480533685343789,0.0442505,-0.123657,0.324646,0.936646
1480533685366357,0.0442505,-0.123657,0.324646,0.936646
1480533685384397,0.0446167,-0.123718,0.324707,0.936584
1480533685403949,0.0448608,-0.123535,0.324768,0.936584
1480533685426511,0.045105,-0.123413,0.324829,0.936584
1480533685459098,0.045166,-0.123413,0.324829,0.936584
1480533685463609,0.0449219,-0.123413,0.324768,0.936584
1480533685486169,0.0448608,-0.123352,0.324768,0.936584
1480533685511736,0.0448608,-0.123352,0.324768,0.936584
1480533685526777,0.0449219,-0.123352,0.324768,0.936584
1480533685553849,0.0449219,-0.123413,0.324768,0.936584
1480533685580419,0.0449219,-0.123291,0.324829,0.936584
1480533685593454,0.0449829,-0.123291,0.324829,0.936584
1480533685606489,0.0450439,-0.123291,0.324829,0.936584
1480533685624035,0.0450439,-0.12323,0.324829,0.936584
1480533685645091,0.0450439,-0.12323,0.324829,0.936584
1480533685666151,0.045105,-0.123474,0.324829,0.936523
1480533685686201,0.0446777,-0.124023,0.324707,0.936523
1480533685705753,0.0437012,-0.124634,0.324646,0.936523
1480533685726309,0.0427856,-0.125305,0.324646,0.936462
1480533685744355,0.0421143,-0.125916,0.324524,0.936462
1480533685765412,0.041687,-0.126282,0.324463,0.936462
1480533685786468,0.0419312,-0.126343,0.324524,0.936401
1480533685811535,0.0426025,-0.126282,0.324646,0.93634
1480533685825070,0.0430298,-0.126221,0.324646,0.93634
1480533685853646,0.0430298,-0.126221,0.324646,0.93634
1480533685879214,0.0430298,-0.126221,0.324646,0.93634
1480533685885230,0.0430908,-0.126221,0.324646,0.93634
1480533685906286,0.043335,-0.12616,0.324585,0.936401
1480533685924835,0.0438843,-0.125854,0.324646,0.93634
1480533685945390,0.0444946,-0.125488,0.324646,0.936401
1480533685990009,0.0447998,-0.125305,0.324585,0.936401
1480533685998032,0.0447998,-0.125305,0.324585,0.936401
1480533686008057,0.045105,-0.125061,0.324646,0.936401
1480533686027609,0.045105,-0.125244,0.324646,0.936401
1480533686049169,0.0441284,-0.12616,0.324524,0.93634
1480533686066717,0.0421143,-0.12738,0.324158,0.936401
1480533686086265,0.0402222,-0.128418,0.324097,0.936401
1480533686104313,0.0390625,-0.129089,0.324097,0.93634
1480533686134394,0.0385742,-0.129211,0.324219,0.936279
1480533686147929,0.0389404,-0.129028,0.32428,0.936279
1480533686168985,0.0396729,-0.128662,0.324402,0.936279
1480533686186532,0.039978,-0.128418,0.324463,0.936218
1480533686206585,0.039917,-0.128357,0.324341,0.936279
1480533686224132,0.0402222,-0.128113,0.324402,0.936279
1480533686253711,0.0407715,-0.127747,0.324463,0.936279
1480533686267748,0.0410156,-0.127441,0.324463,0.93634
1480533686284793,0.0411987,-0.127075,0.324463,0.936401
1480533686308857,0.041626,-0.126709,0.324463,0.936401
1480533686328911,0.0419312,-0.126404,0.324524,0.936401
1480533686343950,0.0421143,-0.12616,0.324524,0.936462
1480533686366513,0.0424805,-0.125793,0.324524,0.936462
1480533686389070,0.0428467,-0.125549,0.324524,0.936523
1480533686411630,0.0429077,-0.125305,0.324463,0.936523
1480533686434692,0.0430908,-0.125,0.324402,0.936584
1480533686446222,0.0435791,-0.124756,0.324402,0.936584
1480533686485829,0.0436401,-0.124756,0.324402,0.936584
1480533686488335,0.0436401,-0.124756,0.324402,0.936584
1480533686509390,0.0436401,-0.124756,0.324402,0.936584
1480533686529446,0.0435181,-0.124573,0.324402,0.936646
1480533686551502,0.0435791,-0.124573,0.324402,0.936646
1480533686567044,0.0435181,-0.124573,0.324402,0.936646
1480533686584089,0.0435181,-0.124451,0.324341,0.936646
1480533686611161,0.043335,-0.12439,0.324341,0.936707
1480533686627706,0.0430908,-0.124207,0.324341,0.936707
1480533686644249,0.0430298,-0.124207,0.324341,0.936707
1480533686666809,0.0430298,-0.123962,0.324341,0.936768
1480533686689369,0.0426636,-0.124023,0.324341,0.936768
1480533686710425,0.0420532,-0.124146,0.324219,0.936829
1480533686726969,0.0422363,-0.124084,0.32428,0.936829
1480533686748025,0.0427856,-0.123901,0.32428,0.936768
1480533686765070,0.0430908,-0.123657,0.324341,0.936768
1480533686786628,0.0430908,-0.123657,0.324341,0.936768
1480533686809188,0.0428467,-0.123657,0.324219,0.936829
1480533686832251,0.0427246,-0.123657,0.324158,0.93689
1480533686847289,0.0426636,-0.123657,0.324158,0.93689
1480533686875364,0.0427856,-0.123535,0.324097,0.93689
1480533686884388,0.0432739,-0.123352,0.323975,0.936951
1480533686906446,0.0432739,-0.123352,0.323975,0.936951
1480533686930010,0.0429688,-0.123352,0.323914,0.936951
1480533686944050,0.0426636,-0.123352,0.323853,0.937012
1480533686967108,0.0427246,-0.123352,0.323853,0.937012
1480533686989166,0.0426636,-0.123413,0.323853,0.937012
1480533687016243,0.0426636,-0.123352,0.323853,0.937012
1480533687039300,0.0427246,-0.123352,0.323853,0.937012
1480533687049330,0.0427856,-0.123352,0.323853,0.937012
1480533687068879,0.0427246,-0.123352,0.323853,0.937012
1480533687086425,0.0427856,-0.123352,0.323853,0.937012
1480533687117508,0.0427856,-0.123352,0.323853,0.937012
1480533687136559,0.0427856,-0.123352,0.323853,0.937012
1480533687146585,0.0427856,-0.123352,0.323853,0.937012
1480533687169146,0.0428467,-0.123352,0.323853,0.937012
1480533687190201,0.0428467,-0.123352,0.323853,0.937012
1480533687206745,0.0427856,-0.123352,0.323853,0.937012
1480533687229306,0.0427856,-0.123352,0.323853,0.937012
1480533687256378,0.0428467,-0.123352,0.323853,0.937012
1480533687266407,0.0427856,-0.123352,0.323853,0.937012
1480533687288964,0.0427856,-0.123291,0.323853,0.937012
1480533687309518,0.0428467,-0.123291,0.323853,0.937012
1480533687326064,0.0426636,-0.123413,0.32373,0.937073
1480533687348122,0.0421753,-0.123596,0.323669,0.937073
1480533687376697,0.0421753,-0.123657,0.323669,0.937073
1480533687385722,0.0425415,-0.123474,0.32373,0.937073
1480533687408282,0.0425415,-0.123474,0.32373,0.937073
1480533687430841,0.0425415,-0.123474,0.32373,0.937073
1480533687445883,0.0424805,-0.123474,0.323669,0.937073
1480533687468441,0.0424805,-0.123474,0.323669,0.937073
1480533687489998,0.0424805,-0.123474,0.323669,0.937073
1480533687508047,0.0424805,-0.123474,0.323669,0.937073
1480533687550661,0.0424805,-0.123474,0.323669,0.937073
1480533687559684,0.0425415,-0.123474,0.323669,0.937073
1480533687573220,0.0425415,-0.123413,0.323669,0.937073
1480533687594277,0.0422974,-0.123413,0.323669,0.937073
1480533687609818,0.0422974,-0.123413,0.323669,0.937073
1480533687625860,0.0422974,-0.123474,0.323669,0.937073
1480533687647920,0.0422363,-0.123413,0.323669,0.937073
1480533687669476,0.0422974,-0.123413,0.323669,0.937073
1480533687687023,0.0422974,-0.123413,0.323669,0.937073
1480533687708580,0.0422974,-0.123413,0.323669,0.937073
1480533687737156,0.0422974,-0.123413,0.323669,0.937073
1480533687746180,0.0422974,-0.123413,0.323669,0.937073
1480533687769242,0.0422974,-0.123413,0.323669,0.937073
1480533687796815,0.0422363,-0.123413,0.323669,0.937073
1480533687813359,0.0422974,-0.123413,0.323669,0.937073
1480533687828399,0.0423584,-0.123413,0.323669,0.937073
1480533687866500,0.0422974,-0.123413,0.323669,0.937073
1480533687869007,0.0422974,-0.123413,0.323669,0.937073
1480533687888558,0.0423584,-0.123413,0.323669,0.937073
1480533687918138,0.0423584,-0.123413,0.323608,0.937073
1480533687932177,0.0424194,-0.123352,0.323792,0.937073
1480533687948219,0.0423584,-0.123291,0.323792,0.937073
1480533687970778,0.0424194,-0.123291,0.323792,0.937073
1480533687986319,0.0421143,-0.123352,0.323792,0.937073
1480533688015900,0.0421143,-0.123352,0.323792,0.937073
1480533688030939,0.0421143,-0.123352,0.323792,0.937073
1480533688061519,0.0421753,-0.123352,0.323792,0.937073
1480533688077562,0.0421753,-0.123352,0.323792,0.937073
1480533688091599,0.0421753,-0.123352,0.323792,0.937073
1480533688111651,0.0420532,-0.123474,0.323608,0.937134
1480533688128698,0.0420532,-0.123474,0.323608,0.937134
1480533688158276,0.0419922,-0.123474,0.323669,0.937134
1480533688165296,0.0420532,-0.123474,0.323608,0.937134
1480533688188356,0.0424805,-0.123352,0.323608,0.937134
1480533688210916,0.0427246,-0.12323,0.323669,0.937073
1480533688231975,0.0424194,-0.123291,0.323669,0.937073
1480533688263557,0.0421143,-0.123352,0.323669,0.937134
1480533688271076,0.0420532,-0.123352,0.32373,0.937134
1480533688285113,0.0422974,-0.12323,0.323792,0.937073
1480533688308175,0.0426636,-0.123169,0.323792,0.937073
1480533688330735,0.0427246,-0.123169,0.323792,0.937073
1480533688353295,0.0427246,-0.123169,0.323792,0.937073
1480533688369338,0.0427246,-0.123169,0.323792,0.937073
1480533688391397,0.0427246,-0.123169,0.323792,0.937073
1480533688413455,0.0427246,-0.123169,0.323792,0.937073
1480533688428496,0.0426636,-0.123169,0.323792,0.937073
1480533688451056,0.0426636,-0.123169,0.323792,0.937073
1480533688472111,0.0427246,-0.123291,0.323608,0.937134
1480533688489659,0.0426025,-0.123474,0.323547,0.937134
1480533688510714,0.0423584,-0.123657,0.323425,0.937134
1480533688531770,0.0423584,-0.123901,0.323303,0.937134
1480533688548316,0.0423584,-0.124084,0.323242,0.937134
1480533688570873,0.0422974,-0.124146,0.323242,0.937134
1480533688592431,0.0421143,-0.124268,0.323181,0.937134
1480533688609478,0.0422363,-0.124146,0.323181,0.937195
1480533688631536,0.0421143,-0.124084,0.323486,0.937073
1480533688652089,0.0415039,-0.124146,0.323975,0.936951
1480533688668634,0.0408936,-0.124146,0.324097,0.93689
1480533688690693,0.0405884,-0.124207,0.324219,0.93689
1480533688711748,0.0393677,-0.124634,0.324158,0.93689
1480533688728294,0.0387573,-0.124878,0.324097,0.93689
1480533688750853,0.0390015,-0.125,0.323914,0.936951
1480533688781434,0.0390015,-0.125061,0.323914,0.936951
1480533688788453,0.0390015,-0.125061,0.323914,0.936951
1480533688811013,0.0387573,-0.125183,0.32373,0.937012
1480533688833574,0.0383911,-0.125305,0.323669,0.937012
1480533688849129,0.0379028,-0.125488,0.323608,0.937012
1480533688870672,0.0378418,-0.125488,0.323608,0.937012
1480533688909275,0.0385742,-0.125366,0.323608,0.937012
1480533688912282,0.0391235,-0.125061,0.323853,0.936951
1480533688938352,0.0391235,-0.124939,0.324036,0.93689
1480533688953391,0.0385742,-0.125,0.324036,0.936951
1480533688968936,0.0377197,-0.125183,0.323975,0.936951
1480533688990991,0.0368042,-0.125244,0.323914,0.937012
1480533689013551,0.0362549,-0.125244,0.323853,0.937012
1480533689028092,0.036438,-0.125183,0.323669,0.937134
1480533689051151,0.0369873,-0.125,0.323547,0.937134
1480533689081232,0.0370483,-0.125,0.323547,0.937134
1480533689087749,0.0365601,-0.125122,0.323425,0.937195
1480533689110810,0.0361938,-0.125183,0.323303,0.937256
1480533689133373,0.0360107,-0.125183,0.323303,0.937256
1480533689147909,0.0359497,-0.125183,0.323303,0.937256
1480533689170970,0.0359497,-0.125183,0.323303,0.937256
1480533689201050,0.0360107,-0.125183,0.323303,0.937256
1480533689216090,0.0360718,-0.125183,0.323303,0.937256
1480533689231130,0.0357056,-0.125183,0.323303,0.937256
1480533689254191,0.0357666,-0.125183,0.323242,0.937256
1480533689267727,0.0361938,-0.124878,0.323486,0.937195
1480533689291792,0.0360718,-0.124878,0.323547,0.937195
1480533689320869,0.0360107,-0.124878,0.323547,0.937195
1480533689334405,0.0360718,-0.124939,0.323547,0.937195
1480533689350948,0.0360107,-0.124939,0.323547,0.937195
1480533689381030,0.0360107,-0.124878,0.323547,0.937195
1480533689396069,0.0363159,-0.124756,0.323364,0.937256
1480533689410607,0.036377,-0.124756,0.323364,0.937256
1480533689447706,0.0358887,-0.124878,0.323364,0.937256
1480533689461744,0.0350952,-0.125122,0.323303,0.937317
1480533689476784,0.0351563,-0.125122,0.323303,0.937317
1480533689493329,0.0354614,-0.125,0.323364,0.937256
1480533689514384,0.0356445,-0.124756,0.323486,0.937256
1480533689536943,0.0356445,-0.124756,0.323486,0.937256
1480533689553488,0.0357666,-0.124756,0.323486,0.937256
1480533689575045,0.0355835,-0.124695,0.323486,0.937256
1480533689598611,0.0350952,-0.124817,0.323547,0.937256
1480533689613648,0.0350952,-0.124817,0.323547,0.937256
1480533689634202,0.0353394,-0.124756,0.323425,0.937256
1480533689650746,0.0355225,-0.124634,0.323425,0.937317
1480533689673306,0.0355225,-0.124634,0.323425,0.937317
1480533689694864,0.0353394,-0.124817,0.322937,0.937439
1480533689710906,0.0351563,-0.125,0.322693,0.9375
1480533689740986,0.0351563,-0.125,0.322693,0.9375
1480533689754522,0.0351563,-0.125,0.322693,0.9375
1480533689771066,0.0353394,-0.125061,0.322449,0.937561
1480533689801146,0.0352783,-0.125061,0.322449,0.937561
1480533689815686,0.0352783,-0.125,0.322449,0.937561
1480533689830725,0.0357666,-0.124878,0.322388,0.937622
1480533689860305,0.0361938,-0.124756,0.322449,0.937622
1480533689875845,0.036377,-0.124573,0.322571,0.937561
1480533689890885,0.036377,-0.124573,0.322571,0.937561
1480533689913445,0.0361328,-0.124634,0.322449,0.937622
1480533689943525,0.0357666,-0.124695,0.322388,0.937622
1480533689950043,0.0357666,-0.124695,0.322388,0.937622
1480533689973605,0.0358276,-0.124695,0.322388,0.937622
1480533690020229,0.0358887,-0.124695,0.322388,0.937622
1480533690024240,0.0358276,-0.124695,0.322388,0.937622
1480533690040785,0.0358887,-0.124695,0.322388,0.937622
1480533690055824,0.0358887,-0.124756,0.322327,0.937683
1480533690070364,0.0357056,-0.124756,0.322205,0.937683
1480533690093426,0.0352783,-0.124817,0.322205,0.937683
1480533690115984,0.034729,-0.124939,0.322205,0.937683
1480533690138543,0.0335083,-0.125305,0.322083,0.937744
1480533690161104,0.0320435,-0.12561,0.32196,0.937805
1480533690176645,0.0320435,-0.12561,0.322021,0.937805
1480533690191185,0.0325928,-0.125488,0.322083,0.937744
1480533690214246,0.0328979,-0.125305,0.322083,0.937744
1480533690235803,0.0321655,-0.12561,0.321777,0.937866
1480533690250343,0.0321655,-0.12561,0.321777,0.937866
1480533690297467,0.0326538,-0.125549,0.321899,0.937805
1480533690301978,0.0322266,-0.12561,0.321716,0.937866
1480533690317520,0.0321045,-0.12561,0.321533,0.937927
1480533690333562,0.0321655,-0.12561,0.321533,0.937927
1480533690356122,0.0321655,-0.12561,0.321472,0.937927
1480533690377178,0.0319214,-0.125549,0.32135,0.937988
1480533690393222,0.0319824,-0.12561,0.32135,0.937988
1480533690416282,0.0322266,-0.125488,0.321594,0.937927
1480533690436837,0.0321655,-0.125488,0.321594,0.937927
1480533690453391,0.0318604,-0.125488,0.321411,0.937988
1480533690475950,0.0318604,-0.125488,0.321411,0.937988
1480533690497007,0.0318604,-0.125488,0.321411,0.937988
1480533690513550,0.0317993,-0.125549,0.321228,0.938049
1480533690536111,0.0321655,-0.125427,0.321167,0.93811
1480533690556665,0.0322876,-0.125427,0.321167,0.93811
1480533690573209,0.0319214,-0.125549,0.321045,0.93811
1480533690602286,0.0319214,-0.125549,0.321045,0.93811
1480533690616825,0.0322876,-0.125366,0.321106,0.93811
1480533690633369,0.0327148,-0.125183,0.321289,0.938049
1480533690655929,0.0327148,-0.125122,0.321106,0.93811
1480533690676985,0.0327148,-0.125122,0.321106,0.93811
1480533690694032,0.0328369,-0.125122,0.321106,0.93811
1480533690716089,0.0328979,-0.125122,0.321106,0.93811
1480533690738148,0.0328369,-0.125122,0.321106,0.93811
1480533690753188,0.0328369,-0.125122,0.321106,0.93811
1480533690775748,0.0328979,-0.125183,0.321106,0.93811
1480533690806329,0.0328369,-0.125183,0.321106,0.93811
1480533690813347,0.0327759,-0.125122,0.321106,0.93811
1480533690841924,0.03302,-0.125183,0.320862,0.938171
1480533690858969,0.0327759,-0.125427,0.320557,0.938293
1480533690881029,0.0318604,-0.125977,0.320068,0.938416
1480533690896070,0.0313721,-0.126404,0.319275,0.938599
1480533690918628,0.0310669,-0.127075,0.318542,0.938782
1480533690932665,0.0306396,-0.127625,0.317993,0.938904
1480533690956733,0.0306396,-0.127991,0.317444,0.939087
1480533690985807,0.0314331,-0.127991,0.316956,0.939209
1480533690992826,0.0316162,-0.127991,0.316895,0.939209
1480533691023407,0.0316162,-0.127991,0.316895,0.939209
1480533691038454,0.0321655,-0.127808,0.316956,0.939209
1480533691052484,0.032959,-0.127625,0.317078,0.939148
1480533691076048,0.0333252,-0.12738,0.3172,0.939148
1480533691104622,0.0335693,-0.127136,0.317322,0.939087
1480533691112644,0.0335083,-0.127136,0.317322,0.939087
1480533691135705,0.0336304,-0.127197,0.3172,0.939148
1480533691158265,0.0333252,-0.127441,0.317139,0.939148
1480533691172804,0.0333252,-0.127441,0.317139,0.939148
1480533691196017,0.0340576,-0.127258,0.317139,0.939148
1480533691218425,0.0341187,-0.127197,0.317139,0.939148
1480533691239983,0.0340576,-0.127197,0.317139,0.939148
1480533691263545,0.0340576,-0.127197,0.317139,0.939148
1480533691279087,0.0344849,-0.127136,0.3172,0.939148
1480533691299643,0.034729,-0.127075,0.317261,0.939087
1480533691315686,0.034729,-0.127075,0.317261,0.939087
1480533691339749,0.03479,-0.127075,0.317261,0.939087
1480533691359300,0.03479,-0.127075,0.317261,0.939087
1480533691375844,0.03479,-0.127075,0.317261,0.939087
1480533691406425,0.03479,-0.127075,0.317261,0.939087
1480533691420964,0.0350952,-0.127014,0.3172,0.939087
1480533691437508,0.0351563,-0.127075,0.3172,0.939087
1480533691458565,0.0351563,-0.127014,0.3172,0.939087
1480533691479620,0.0352173,-0.127014,0.3172,0.939087
1480533691496164,0.0352783,-0.127014,0.3172,0.939087
1480533691519225,0.0352173,-0.127075,0.3172,0.939087
1480533691540783,0.0351563,-0.127075,0.3172,0.939087
1480533691555823,0.0351563,-0.127075,0.3172,0.939087
1480533691578383,0.0354004,-0.127014,0.3172,0.939087
1480533691599440,0.0356445,-0.126892,0.317261,0.939087
1480533691615984,0.0357056,-0.126953,0.317261,0.939087
1480533691638544,0.0357666,-0.126953,0.317261,0.939087
1480533691659600,0.0354004,-0.127014,0.3172,0.939087
1480533691683161,0.0352173,-0.126892,0.3172,0.939148
1480533691698708,0.0352783,-0.126831,0.317078,0.939148
1480533691721764,0.0352783,-0.126892,0.317078,0.939148
1480533691735804,0.0352173,-0.126892,0.317078,0.939148
1480533691758864,0.0352783,-0.126831,0.317078,0.939148
1480533691780923,0.0352173,-0.12677,0.317017,0.939209
1480533691803481,0.0352783,-0.12677,0.316956,0.939209
1480533691818522,0.0349121,-0.12677,0.316895,0.93927
1480533691841081,0.0349121,-0.12677,0.316895,0.93927
1480533691855119,0.0349731,-0.12677,0.316895,0.93927
1480533691878180,0.0349121,-0.126831,0.316895,0.93927
1480533691900741,0.0349121,-0.126831,0.316895,0.93927
1480533691916282,0.0349731,-0.126831,0.316895,0.93927
1480533691938341,0.0349731,-0.12677,0.316895,0.93927
1480533691961405,0.0345459,-0.126831,0.316833,0.93927
1480533691975439,0.0345459,-0.126831,0.316833,0.93927
1480533691999006,0.0346069,-0.126831,0.316833,0.93927
1480533692021562,0.0346069,-0.126831,0.316833,0.93927
1480533692035599,0.0345459,-0.126831,0.316833,0.93927
1480533692058159,0.0344849,-0.126892,0.316772,0.939331
1480533692080720,0.0344849,-0.126892,0.316772,0.939331
1480533692095759,0.0344849,-0.126892,0.316772,0.939331
1480533692118320,0.0344849,-0.126892,0.316772,0.939331
1480533692140879,0.0345459,-0.126831,0.316772,0.939331
1480533692161936,0.0345459,-0.126831,0.316772,0.939331
1480533692179482,0.0345459,-0.126831,0.316772,0.939331
1480533692202544,0.0346069,-0.126831,0.316772,0.939331
1480533692221594,0.034668,-0.126892,0.316711,0.939331
1480533692239140,0.0346069,-0.126831,0.316711,0.939331
1480533692260699,0.0346069,-0.126831,0.316711,0.939331
1480533692283257,0.034668,-0.126831,0.316711,0.939331
1480533692298300,0.034668,-0.126831,0.316711,0.939331
1480533692320858,0.0346069,-0.126831,0.316711,0.939331
1480533692341914,0.034668,-0.126831,0.316711,0.939331
1480533692358959,0.034729,-0.126831,0.316711,0.939331
1480533692381018,0.034729,-0.12677,0.316711,0.939331
1480533692402576,0.034668,-0.12677,0.316711,0.939331
1480533692418116,0.0351563,-0.126709,0.316772,0.939331
1480533692440676,0.0357666,-0.126404,0.316833,0.93927
1480533692461733,0.0360718,-0.126221,0.316956,0.93927
1480533692478778,0.0360718,-0.126221,0.316956,0.93927
1480533692500837,0.0359497,-0.126221,0.316833,0.939331
1480533692529914,0.0356445,-0.126221,0.316833,0.939331
1480533692544452,0.0355835,-0.126221,0.316833,0.939331
1480533692562000,0.0356445,-0.126221,0.316833,0.939331
1480533692582054,0.0356445,-0.126221,0.316833,0.939331
1480533692598598,0.0356445,-0.126221,0.316833,0.939331
1480533692620671,0.0357056,-0.12616,0.316833,0.939331
1480533692650735,0.0357666,-0.126221,0.316711,0.939331
1480533692673295,0.0355225,-0.126221,0.316711,0.939392
1480533692680816,0.0354614,-0.126282,0.316711,0.939392
1480533692703375,0.0357666,-0.126038,0.31665,0.939392
1480533692724432,0.0358276,-0.126038,0.31665,0.939392
1480533692747493,0.0358276,-0.126038,0.31665,0.939392
1480533692763536,0.0358276,-0.126038,0.31665,0.939392
1480533692777573,0.0358887,-0.126038,0.31665,0.939392
1480533692808155,0.036377,-0.125854,0.31665,0.939392
1480533692823194,0.0366211,-0.125732,0.31665,0.939453
1480533692837733,0.0369263,-0.125549,0.31665,0.939453
1480533692862459,0.0369873,-0.125549,0.31665,0.939453
1480533692883354,0.0369873,-0.125488,0.31665,0.939453
1480533692897898,0.0369263,-0.125488,0.31665,0.939453
1480533692944015,0.0369873,-0.125488,0.31665,0.939453
1480533692946523,0.0371094,-0.125488,0.31665,0.939453
1480533692973093,0.0370483,-0.125488,0.31665,0.939453
1480533692981615,0.0366211,-0.125549,0.316528,0.939514
1480533693003173,0.0362549,-0.12561,0.316467,0.939514
1480533693017711,0.0362549,-0.12561,0.316467,0.939514
1480533693040773,0.0361938,-0.12561,0.316467,0.939514
1480533693070853,0.0362549,-0.12561,0.316467,0.939514
1480533693085893,0.0363159,-0.12561,0.316406,0.939514
1480533693101936,0.0363159,-0.12561,0.316406,0.939514
1480533693123493,0.0362549,-0.125549,0.316467,0.939514
1480533693144548,0.0363159,-0.125549,0.316406,0.939514
1480533693160592,0.036377,-0.125549,0.316406,0.939514
1480533693191172,0.0360107,-0.125549,0.316467,0.939514
1480533693206213,0.0360107,-0.125549,0.316467,0.939514
1480533693220752,0.0361328,-0.125549,0.316406,0.939514
1480533693243311,0.0361328,-0.125549,0.316406,0.939514
1480533693265874,0.0361328,-0.125549,0.316406,0.939514
1480533693280913,0.0361938,-0.125488,0.316406,0.939575
1480533693303471,0.0361938,-0.125488,0.316406,0.939575
1480533693324528,0.0361938,-0.125488,0.316406,0.939575
1480533693349594,0.0361938,-0.125488,0.316406,0.939575
1480533693364135,0.0362549,-0.125488,0.316406,0.939575
1480533693384186,0.0362549,-0.125488,0.316406,0.939575
1480533693400731,0.0362549,-0.125488,0.316406,0.939514
1480533693423290,0.0363159,-0.125488,0.316406,0.939575
1480533693445851,0.0363159,-0.12561,0.316345,0.939575
1480533693469414,0.0362549,-0.12561,0.316345,0.939575
1480533693489467,0.0361938,-0.12561,0.316345,0.939575
1480533693504506,0.0362549,-0.12561,0.316345,0.939575
1480533693521051,0.0362549,-0.12561,0.316345,0.939514
1480533693543108,0.0366821,-0.12561,0.316284,0.939575
1480533693564165,0.0367432,-0.125549,0.316284,0.939575
1480533693580710,0.0368042,-0.125549,0.316223,0.939575
1480533693603270,0.0368042,-0.125549,0.316223,0.939575
1480533693626832,0.0369873,-0.125305,0.316406,0.939514
1480533693642373,0.0373535,-0.125244,0.316528,0.939514
1480533693664940,0.0373535,-0.125305,0.316528,0.939514
1480533693687493,0.0373535,-0.125244,0.316528,0.939514
1480533693701030,0.0373535,-0.125305,0.316528,0.939514
1480533693731114,0.0374146,-0.125244,0.316528,0.939514
1480533693746650,0.0374756,-0.125244,0.316284,0.939575
1480533693760689,0.0369873,-0.125549,0.316223,0.939575
1480533693783247,0.0369263,-0.12561,0.316223,0.939575
1480533693805808,0.0369873,-0.125671,0.316223,0.939575
1480533693820346,0.0372925,-0.125549,0.316345,0.939514
1480533693843408,0.0372925,-0.125549,0.316345,0.939514
1480533693865968,0.0371704,-0.125549,0.316223,0.939575
1480533693880005,0.0371704,-0.12561,0.316223,0.939575
1480533693903568,0.0371094,-0.12561,0.316223,0.939575
1480533693925626,0.0371704,-0.12561,0.316223,0.939575
1480533693940165,0.0372925,-0.12561,0.316162,0.939575
1480533693963729,0.0372925,-0.12561,0.316162,0.939575
1480533693986790,0.0372314,-0.12561,0.316162,0.939575
1480533694000327,0.0372925,-0.125549,0.316101,0.939636
1480533694024389,0.0372314,-0.125549,0.316101,0.939636
1480533694045445,0.0371704,-0.125549,0.316101,0.939636
1480533694067504,0.0371704,-0.125549,0.316101,0.939636
1480533694083546,0.0372314,-0.125549,0.316101,0.939636
1480533694105605,0.0372925,-0.125549,0.316101,0.939636
1480533694127665,0.0369873,-0.125488,0.31604,0.939636
1480533694143205,0.0367432,-0.125549,0.315857,0.939697
1480533694165767,0.0368042,-0.125549,0.315857,0.939697
1480533694194341,0.0367432,-0.125549,0.315857,0.939697
1480533694203365,0.0367432,-0.125549,0.315857,0.939697
1480533694226428,0.0373535,-0.125366,0.315857,0.939697
1480533694246982,0.038147,-0.125122,0.315857,0.939697
1480533694263525,0.0389404,-0.124756,0.31604,0.939636
1480533694285585,0.0394287,-0.124512,0.316162,0.939636
1480533694306640,0.0394897,-0.124512,0.316162,0.939636
1480533694323184,0.0388794,-0.124634,0.31604,0.939697
1480533694345743,0.0383911,-0.124756,0.315979,0.939697
1480533694366800,0.038208,-0.124695,0.315979,0.939697
1480533694383344,0.038208,-0.124695,0.315979,0.939697
1480533694405905,0.0385132,-0.124512,0.315979,0.939758
1480533694434480,0.0385742,-0.124512,0.315979,0.939758
1480533694443504,0.0386353,-0.124573,0.315918,0.939758
1480533694473584,0.0383911,-0.124634,0.315796,0.939758
1480533694487120,0.0383911,-0.124634,0.315796,0.939758
1480533694503163,0.0384521,-0.124634,0.315796,0.939758
1480533694531743,0.0385132,-0.124634,0.315796,0.939758
1480533694554299,0.0380859,-0.124695,0.315735,0.939819
1480533694563824,0.0378418,-0.124634,0.315735,0.939819
1480533694585883,0.0378418,-0.124634,0.315613,0.93988
1480533694608945,0.0379028,-0.124695,0.315613,0.93988
1480533694629498,0.0380859,-0.124512,0.315735,0.939819
1480533694646043,0.038147,-0.124451,0.315674,0.939819
1480533694669105,0.038208,-0.124451,0.315674,0.93988
1480533694682641,0.038147,-0.124451,0.315674,0.93988
1480533694711717,0.038208,-0.12439,0.315796,0.939819
1480533694735781,0.0386963,-0.124329,0.315796,0.939819
1480533694750821,0.0390625,-0.124268,0.315796,0.939819
1480533694765862,0.0390625,-0.124268,0.315796,0.939819
1480533694804464,0.0390015,-0.124268,0.315735,0.939819
1480533694809979,0.0390625,-0.124268,0.315674,0.939819
1480533694826524,0.0390015,-0.124268,0.315674,0.939819
1480533694855600,0.0390015,-0.124268,0.315674,0.939819
1480533694870640,0.0390625,-0.124268,0.315674,0.939819
1480533694885680,0.0391235,-0.124268,0.315674,0.939819
1480533694908745,0.0391235,-0.124268,0.315674,0.939819
1480533694922779,0.0391235,-0.124268,0.315674,0.939819
1480533694946844,0.0391846,-0.124268,0.315674,0.939819
1480533694974417,0.0393677,-0.124146,0.315735,0.939819
1480533695014525,0.0394897,-0.124023,0.315796,0.939819
1480533695016528,0.0396729,-0.123901,0.315796,0.939819
1480533695030065,0.0405273,-0.123596,0.315857,0.939819
1480533695049616,0.0409546,-0.123352,0.315918,0.939819
1480533695066662,0.0412598,-0.12323,0.315918,0.939819
1480533695088219,0.0418091,-0.123108,0.315857,0.939819
1480533695109275,0.0418091,-0.123047,0.315857,0.939819
1480533695133339,0.0418091,-0.123047,0.315857,0.939819
1480533695148880,0.0418701,-0.123047,0.315857,0.939819
1480533695169434,0.0418701,-0.123108,0.315857,0.939819
1480533695185979,0.0418701,-0.123108,0.315857,0.939819
1480533695208539,0.0418701,-0.123047,0.315857,0.939819
1480533695229596,0.0419312,-0.123047,0.315857,0.939819
1480533695245638,0.0419922,-0.123047,0.315796,0.939819
1480533695268198,0.041626,-0.123108,0.315857,0.939819
1480533695290758,0.0413208,-0.12323,0.315735,0.93988
1480533695311813,0.0413208,-0.123352,0.315674,0.93988
1480533695328859,0.0415039,-0.12323,0.315796,0.939819
1480533695349414,0.0415039,-0.123169,0.315796,0.939819
1480533695366459,0.0415649,-0.123169,0.315796,0.939819
1480533695388518,0.0414429,-0.12323,0.315735,0.93988
1480533695410576,0.0410156,-0.12323,0.315857,0.939819
1480533695448678,0.0410156,-0.12323,0.315857,0.939819
1480533695451185,0.0410767,-0.12323,0.315857,0.939819
1480533695471238,0.0410767,-0.12323,0.315796,0.939819
1480533695486278,0.0410767,-0.12323,0.315796,0.939819
1480533695515856,0.0411377,-0.12323,0.315796,0.939819
1480533695530898,0.0411377,-0.12323,0.315796,0.939819
1480533695551952,0.0411377,-0.12323,0.315796,0.939819
1480533695569499,0.0411377,-0.123169,0.315796,0.939819
1480533695591057,0.041687,-0.123047,0.315857,0.939819
1480533695606598,0.0422363,-0.122925,0.315979,0.939758
1480533695643696,0.0422363,-0.122925,0.315979,0.939758
1480533695652219,0.0422974,-0.122803,0.316162,0.939758
1480533695665258,0.0422974,-0.122803,0.316162,0.939758
1480533695688817,0.0422363,-0.122803,0.316162,0.939758
1480533695710875,0.0421753,-0.122803,0.316162,0.939697
1480533695725414,0.0422363,-0.122803,0.316162,0.939758
1480533695755995,0.0422974,-0.122803,0.316162,0.939758
1480533695771035,0.0421143,-0.122925,0.316162,0.939697
1480533695792091,0.0421143,-0.122925,0.316162,0.939697
1480533695808135,0.0422363,-0.122864,0.316162,0.939758
1480533695830694,0.0419312,-0.122986,0.316101,0.939758
1480533695845233,0.0419312,-0.122986,0.316101,0.939758
1480533695868294,0.0424194,-0.122925,0.31604,0.939758
1480533695890854,0.0430298,-0.122742,0.316101,0.939697
1480533695911909,0.0430298,-0.122742,0.316101,0.939758
1480533695928454,0.0426636,-0.122925,0.315979,0.939758
1480533695950512,0.0425415,-0.122986,0.315918,0.939758
1480533695979590,0.0425415,-0.122986,0.315918,0.939758
1480533695988112,0.0427246,-0.122986,0.315918,0.939758
1480533696010672,0.0427246,-0.122986,0.315918,0.939758
1480533696031730,0.0427856,-0.122986,0.315918,0.939758
1480533696048273,0.0427856,-0.122986,0.315918,0.939758
1480533696070833,0.0427856,-0.122986,0.315918,0.939758
1480533696099409,0.0428467,-0.122925,0.315918,0.939758
1480533696108434,0.0428467,-0.122986,0.315918,0.939758
1480533696138011,0.0428467,-0.122986,0.315918,0.939758
1480533696159569,0.0428467,-0.122986,0.315918,0.939758
1480533696168092,0.0429077,-0.122986,0.315918,0.939758
1480533696196668,0.0429077,-0.122986,0.315918,0.939758
1480533696212209,0.0429077,-0.122986,0.315918,0.939758
1480533696228252,0.0426025,-0.122986,0.315857,0.939819
1480533696274876,0.0424194,-0.123108,0.315735,0.939819
1480533696279389,0.0424194,-0.123108,0.315735,0.939819
1480533696288411,0.0424805,-0.123108,0.315735,0.939819
1480533696310972,0.0425415,-0.123108,0.315735,0.939819
1480533696332027,0.0426025,-0.123108,0.315735,0.939819
1480533696355089,0.0422363,-0.123108,0.315735,0.939819
1480533696386673,0.0422363,-0.123108,0.315735,0.939819
1480533696392689,0.0422974,-0.123108,0.315735,0.939819
1480533696414249,0.0422974,-0.123108,0.315735,0.939819
1480533696431295,0.0422974,-0.123108,0.315735,0.939819
1480533696453350,0.0422974,-0.123108,0.315735,0.939819
1480533696467889,0.0421753,-0.123047,0.315613,0.93988
1480533696496966,0.0418701,-0.123047,0.315552,0.939941
1480533696513513,0.041687,-0.123047,0.315369,0.940002
1480533696536070,0.041748,-0.123047,0.315369,0.940002
1480533696557126,0.041748,-0.123047,0.315369,0.940002
1480533696573672,0.041748,-0.123047,0.315369,0.940002
1480533696587708,0.0415649,-0.122986,0.315247,0.940063
1480533696616784,0.0413818,-0.122986,0.315186,0.940063
1480533696633329,0.0413818,-0.122986,0.315186,0.940063
1480533696661905,0.0410767,-0.123047,0.315063,0.940125
1480533696678450,0.0410767,-0.123108,0.314758,0.940186
1480533696693992,0.0410767,-0.123108,0.314758,0.940186
1480533696723569,0.0408325,-0.123108,0.314697,0.940247
1480533696732594,0.0406494,-0.123108,0.314514,0.940308
1480533696753147,0.0407104,-0.123169,0.314392,0.940369
1480533696768689,0.0407104,-0.12323,0.314392,0.940369
1480533696790748,0.0407104,-0.123169,0.314392,0.940369
1480533696813810,0.0407715,-0.123169,0.314331,0.940369
1480533696827847,0.0407715,-0.123169,0.314331,0.940369
1480533696850908,0.0407104,-0.123169,0.314392,0.940369
1480533696873468,0.0407715,-0.123169,0.314331,0.940369
1480533696887505,0.0408325,-0.123169,0.314331,0.940369
1480533696919592,0.0408325,-0.123169,0.314331,0.940369
1480533696933126,0.0408325,-0.123169,0.314331,0.940369
1480533696954182,0.0407104,-0.123108,0.31427,0.94043
1480533696971228,0.0405273,-0.123108,0.31427,0.94043
1480533696994290,0.0404663,-0.123108,0.31427,0.94043
1480533697014342,0.0404663,-0.123169,0.31427,0.94043
1480533697038407,0.0405273,-0.123169,0.31427,0.94043
1480533697053446,0.0405273,-0.123169,0.31427,0.94043
1480533697074503,0.0405273,-0.123108,0.31427,0.94043
1480533697091548,0.0404053,-0.123108,0.314087,0.940491
1480533697127645,0.0404053,-0.123108,0.314087,0.940491
1480533697134663,0.0404053,-0.123108,0.314087,0.940491
1480533697150705,0.0405273,-0.122925,0.314209,0.940491
1480533697173265,0.0406494,-0.122864,0.314148,0.940491
1480533697194322,0.0406494,-0.122925,0.314148,0.940491
1480533697211868,0.0402222,-0.123047,0.314026,0.940491
1480533697233425,0.0402222,-0.123047,0.314026,0.940491
1480533697254481,0.0402832,-0.123047,0.314026,0.940491
1480533697271025,0.0402222,-0.122986,0.314026,0.940491
1480533697293085,0.0402222,-0.122986,0.314026,0.940491
1480533697314144,0.0402832,-0.122925,0.314026,0.940491
1480533697336700,0.0402832,-0.122925,0.314026,0.940491
1480533697353244,0.0402832,-0.122925,0.314026,0.940491
1480533697383826,0.0402832,-0.122925,0.314026,0.940491
1480533697390843,0.0406494,-0.122864,0.314087,0.940491
1480533697412902,0.0406494,-0.122864,0.314087,0.940491
1480533697435462,0.0406494,-0.122864,0.314087,0.940491
1480533697451004,0.0407104,-0.122864,0.314087,0.940491
1480533697474067,0.0405273,-0.122864,0.314026,0.940491
1480533697495622,0.0401611,-0.122986,0.313965,0.940552
1480533697524198,0.0401001,-0.122986,0.313965,0.940552
1480533697533223,0.0405884,-0.122803,0.313904,0.940552
1480533697555782,0.0405884,-0.122803,0.313904,0.940552
1480533697570322,0.0405884,-0.122803,0.313904,0.940552
1480533697593382,0.0406494,-0.122803,0.313904,0.940552
1480533697615441,0.0406494,-0.122803,0.313904,0.940552
1480533697631488,0.0406494,-0.122803,0.313904,0.940552
1480533697661565,0.0406494,-0.122803,0.313904,0.940552
1480533697683121,0.0406494,-0.122742,0.313904,0.940552
1480533697692146,0.0407104,-0.122742,0.313904,0.940552
1480533697721725,0.0407104,-0.122742,0.313904,0.940552
1480533697735762,0.0407104,-0.122742,0.313904,0.940552
1480533697750802,0.0407715,-0.122742,0.313904,0.940552
1480533697774365,0.0407715,-0.122742,0.313904,0.940552
1480533697803441,0.0407104,-0.122742,0.313904,0.940552
1480533697818481,0.0407715,-0.122742,0.313904,0.940552
1480533697834023,0.0410156,-0.122681,0.313965,0.940552
1480533697855580,0.0410156,-0.122681,0.313965,0.940552
1480533697894183,0.0410156,-0.122681,0.313965,0.940552
1480533697896690,0.0410767,-0.122681,0.313965,0.940552
1480533697923260,0.0410767,-0.122681,0.313965,0.940552
1480533697938305,0.0411987,-0.122559,0.314026,0.940552
1480533697954343,0.041626,-0.122437,0.314026,0.940491
1480533697975900,0.041687,-0.122437,0.314026,0.940491
1480533697996957,0.0413818,-0.122498,0.314026,0.940552
1480533698014004,0.0413818,-0.122437,0.314026,0.940552
1480533698036060,0.0414429,-0.122437,0.314026,0.940552
1480533698056615,0.0414429,-0.122437,0.313965,0.940552
1480533698088199,0.041626,-0.122375,0.314026,0.940552
1480533698102236,0.0420532,-0.122192,0.314087,0.940552
1480533698120284,0.0421143,-0.122192,0.314026,0.940552
1480533698140839,0.0421143,-0.122192,0.314087,0.940552
1480533698161896,0.0420532,-0.122192,0.314087,0.940552
1480533698178439,0.0424805,-0.122192,0.313965,0.940552
1480533698200999,0.0425415,-0.122192,0.313965,0.940552
1480533698216038,0.0425415,-0.122192,0.313965,0.940552
1480533698238098,0.0425415,-0.122192,0.313965,0.940552
1480533698259154,0.0426025,-0.122192,0.313965,0.940552
1480533698276199,0.0426025,-0.122192,0.313965,0.940552
1480533698297260,0.0426025,-0.122192,0.313965,0.940552
1480533698319316,0.0426025,-0.122192,0.313965,0.940552
1480533698335859,0.0426636,-0.122253,0.313965,0.940552
1480533698365436,0.0426636,-0.122253,0.313965,0.940552
1480533698374979,0.0426636,-0.122253,0.313965,0.940552
1480533698403037,0.0427246,-0.122253,0.313965,0.940552
1480533698418577,0.0432129,-0.122131,0.314087,0.940491
1480533698433117,0.0432129,-0.122131,0.314087,0.940491
1480533698455676,0.0432129,-0.122131,0.314087,0.940491
1480533698485756,0.0432739,-0.122131,0.314087,0.940491
1480533698494281,0.0435181,-0.122192,0.314209,0.94043
1480533698530878,0.043457,-0.122192,0.314209,0.94043
1480533698538897,0.0435181,-0.122131,0.314209,0.94043
1480533698552434,0.0435791,-0.122131,0.314209,0.94043
1480533698585021,0.0435181,-0.122131,0.314209,0.94043
1480533698613096,0.0435181,-0.122192,0.314209,0.94043
1480533698615601,0.0441895,-0.122131,0.31427,0.940369
1480533698636658,0.0447388,-0.12207,0.314331,0.940308
1480533698658216,0.0447388,-0.12207,0.314331,0.940308
1480533698674258,0.0447388,-0.12207,0.314331,0.940308
1480533698697319,0.0447388,-0.12207,0.314331,0.940308
1480533698723890,0.0449829,-0.122009,0.31427,0.940369
1480533698734919,0.0454102,-0.121948,0.314148,0.940369
1480533698770514,0.0461426,-0.121887,0.314087,0.940369
1480533698780547,0.0467529,-0.121887,0.314087,0.940369
1480533698793575,0.046814,-0.121887,0.314087,0.940369
1480533698815634,0.046875,-0.121887,0.314087,0.940369
1480533698839200,0.0466309,-0.122131,0.314026,0.940308
1480533698859250,0.0462036,-0.122437,0.313843,0.940369
1480533698876296,0.0461426,-0.122437,0.313843,0.940369
1480533698898355,0.046875,-0.122375,0.313904,0.940308
1480533698919409,0.0476074,-0.122314,0.313843,0.940308
1480533698935954,0.0479126,-0.122375,0.313721,0.940308
1480533698974055,0.0479126,-0.122375,0.313721,0.940308
1480533698979069,0.0483398,-0.122437,0.31366,0.940308
1480533698995612,0.0483398,-0.122437,0.31366,0.940308
1480533699018674,0.0484619,-0.12262,0.313599,0.940308
1480533699039229,0.0491943,-0.122559,0.313477,0.940308
1480533699056274,0.0496826,-0.122559,0.313416,0.940308
1480533699079336,0.0499268,-0.122681,0.313416,0.940308
1480533699099389,0.0499268,-0.122681,0.313354,0.940308
1480533699138995,0.0499878,-0.122681,0.313354,0.940308
1480533699143505,0.0499878,-0.122742,0.313354,0.940308
1480533699167068,0.0499878,-0.122681,0.313354,0.940308
1480533699175591,0.0499878,-0.122681,0.313354,0.940308
1480533699205672,0.050415,-0.122681,0.313232,0.940369
1480533699219207,0.0507202,-0.122681,0.31311,0.940369
1480533699236252,0.0507202,-0.122742,0.31311,0.940369
1480533699259315,0.0507813,-0.122742,0.31311,0.940369
1480533699280871,0.0508423,-0.122742,0.31311,0.940369
1480533699295911,0.0507813,-0.122742,0.31311,0.940369
1480533699318472,0.0508423,-0.122742,0.31311,0.940369
1480533699341534,0.0509033,-0.122742,0.31311,0.940369
1480533699355570,0.0508423,-0.122742,0.31311,0.940308
1480533699378131,0.0508423,-0.122742,0.31311,0.940308
1480533699400690,0.0508423,-0.122742,0.31311,0.940308
1480533699415729,0.0509033,-0.122742,0.31311,0.940308
1480533699444306,0.0509033,-0.122742,0.31311,0.940308
1480533699466869,0.0509644,-0.122803,0.31311,0.940308
1480533699483410,0.0509644,-0.122803,0.31311,0.940308
1480533699498453,0.0509644,-0.122803,0.31311,0.940308
1480533699520509,0.0510254,-0.122803,0.31311,0.940308
1480533699536050,0.0510254,-0.122803,0.31311,0.940308
1480533699558110,0.0510864,-0.122925,0.312988,0.940369
1480533699589191,0.0510254,-0.122986,0.312988,0.940369
1480533699595208,0.0510254,-0.122986,0.312988,0.940369
1480533699625790,0.0510864,-0.122925,0.312988,0.940369
1480533699640829,0.0511475,-0.122986,0.312988,0.940369
1480533699655869,0.0508423,-0.122986,0.312927,0.940369
1480533699679431,0.0508423,-0.122986,0.312927,0.940369
1480533699700989,0.0509033,-0.122986,0.312927,0.940369
1480533699715026,0.0509033,-0.122986,0.312927,0.940369
1480533699741096,0.0509033,-0.122986,0.312927,0.940369
1480533699761654,0.0508423,-0.123047,0.312866,0.940369
1480533699781703,0.0509033,-0.123047,0.312866,0.940369
1480533699798247,0.0507202,-0.123108,0.313049,0.940308
1480533699835347,0.050415,-0.12323,0.312988,0.940308
1480533699836850,0.0501709,-0.123352,0.312805,0.940369
1480533699844370,0.0499268,-0.123535,0.312683,0.94043
1480533699867431,0.0498657,-0.123535,0.312683,0.94043
1480533699885982,0.0494995,-0.123535,0.3125,0.940491
1480533699905031,0.0488281,-0.123718,0.312195,0.940613
1480533699923581,0.0480957,-0.123779,0.312012,0.940735
1480533699946142,0.0475464,-0.123718,0.312012,0.940735
1480533699971709,0.0474854,-0.123535,0.31189,0.940796
1480533699985245,0.0474243,-0.123352,0.311829,0.940857
1480533700006301,0.0469971,-0.123169,0.311951,0.940857
1480533700025853,0.0462646,-0.123047,0.312012,0.940918
1480533700043901,0.045166,-0.123535,0.311523,0.94104
1480533700065961,0.0440063,-0.124146,0.31073,0.941284
1480533700088520,0.043396,-0.123962,0.310608,0.941406
1480533700103560,0.043335,-0.123779,0.310303,0.941528
1480533700129825,0.043335,-0.124146,0.309692,0.94165
1480533700148679,0.043457,-0.124268,0.309204,0.941772
1480533700164223,0.0441284,-0.124023,0.309326,0.941772
1480533700186279,0.0441895,-0.124023,0.309265,0.941772
1480533700208840,0.0440063,-0.124084,0.309265,0.941772
1480533700223880,0.0437012,-0.123962,0.309265,0.941833
1480533700247442,0.0435181,-0.123779,0.309387,0.941772
1480533700268499,0.0432129,-0.123779,0.309387,0.941833
1480533700283539,0.0432129,-0.123779,0.309387,0.941833
1480533700309107,0.0430908,-0.123718,0.309387,0.941833
1480533700329194,0.0429077,-0.123657,0.309387,0.941833
1480533700343698,0.0426025,-0.123596,0.309387,0.941895
1480533700366259,0.0420532,-0.123596,0.309387,0.941895
1480533700388818,0.0421753,-0.123474,0.309387,0.941895
1480533700403858,0.0425415,-0.123291,0.309387,0.941895
1480533700426419,0.0425415,-0.123291,0.309387,0.941895
1480533700450983,0.0422363,-0.123352,0.309326,0.941956
1480533700464021,0.0422363,-0.123352,0.309326,0.941956
1480533700486077,0.0427856,-0.123291,0.309326,0.941895
1480533700508637,0.0429688,-0.12323,0.309448,0.941895
1480533700523677,0.0429688,-0.12323,0.309448,0.941895
1480533700546239,0.0432739,-0.123108,0.309448,0.941895
1480533700577821,0.0437012,-0.122925,0.309448,0.941895
1480533700583837,0.0438843,-0.122742,0.309448,0.941895
1480533700608402,0.0439453,-0.122742,0.309448,0.941895
1480533700628957,0.0439453,-0.122803,0.309326,0.941956
1480533700643496,0.0435791,-0.122925,0.309265,0.941956
1480533700666117,0.0435791,-0.122925,0.309265,0.941956
1480533700697142,0.0435791,-0.122925,0.309265,0.941956
1480533700711176,0.0440674,-0.122803,0.309326,0.941956
1480533700726215,0.0440674,-0.122803,0.309326,0.941956
1480533700748775,0.0437622,-0.122864,0.309265,0.941956
1480533700765321,0.0437622,-0.122864,0.309204,0.941956
1480533700786376,0.0437622,-0.122864,0.309204,0.941956
1480533700811443,0.0437622,-0.122864,0.309265,0.941956
1480533700824979,0.0438232,-0.122864,0.309204,0.941956
