timestamp,emg1,emg2,emg3,emg4,emg5,emg6,emg7,emg8
1480611265920219,-4,0,-1,-3,-1,-1,-1,1
1480611265920219,-3,-1,-1,-1,-1,-1,-2,-1
1480611265921723,0,-1,0,0,1,-1,0,-1
1480611265921723,2,0,0,-2,-2,0,0,-1
1480611265922725,3,-1,-1,1,-2,0,-2,-1
1480611265922725,-2,-2,-1,-1,0,-1,-1,-1
1480611265960325,-4,0,-1,-1,0,-1,0,0
1480611265960325,2,-3,-3,1,0,0,-1,1
1480611265960827,0,0,1,-1,0,0,-1,1
1480611265960827,-2,-2,-1,-1,-2,0,2,0
1480611265980380,1,-1,-2,0,-3,-3,0,-1
1480611265980380,0,0,1,-2,0,-1,-1,-1
1480611265981384,0,1,0,-1,0,-3,0,0
1480611265981384,0,1,1,-1,0,-1,-2,-1
1480611265982885,0,-2,-2,1,-2,0,1,1
1480611265982885,0,-3,0,-1,0,-1,-2,-1
1480611266003439,1,-2,-3,-1,0,1,-1,0
1480611266003439,-2,2,-2,-1,0,0,0,-3
1480611266004442,-1,2,-1,-1,-3,0,0,-1
1480611266004442,1,1,-1,-2,-2,-1,0,-2
1480611266024495,-1,0,-3,0,0,-2,-2,0
1480611266024495,0,-1,2,0,1,-2,-1,-2
1480611266024997,-2,-3,1,1,-1,0,0,-1
1480611266024997,1,-2,-1,-1,0,-2,-1,-2
1480611266030012,1,1,0,-2,-1,0,-1,-1
1480611266030012,0,2,-2,-1,-2,-1,-1,0
1480611266039038,3,0,0,1,0,-1,-2,-1
1480611266039038,0,0,-1,1,0,0,-1,-2
1480611266040538,0,-1,0,-1,1,-2,1,0
1480611266040538,-1,0,2,3,-1,-1,1,0
1480611266053071,-3,0,-1,-1,1,1,-1,1
1480611266053071,0,1,-2,-1,0,-1,0,0
1480611266067680,-2,-1,0,-1,-1,0,1,0
1480611266067680,0,0,-1,-1,0,0,1,0
1480611266076635,1,-2,0,-2,0,-2,0,0
1480611266076635,-1,0,2,-2,0,-1,-1,0
1480611266078139,-1,-2,0,0,0,-1,1,1
1480611266078139,-1,0,0,-1,-2,-1,0,-1
1480611266099197,-1,0,-1,0,-1,2,0,-1
1480611266099197,0,1,0,-3,-1,0,1,0
1480611266100700,0,1,1,-1,1,0,-1,0
1480611266100700,-3,-2,-2,-1,-1,-1,-2,-1
1480611266113234,-1,1,-2,-2,-1,0,-2,-1
1480611266113234,-1,-1,0,1,-1,0,-2,1
1480611266120251,-2,-2,-2,0,-2,-1,1,-2
1480611266120251,-3,-1,0,-2,0,-1,2,-2
1480611266136294,-1,-2,-3,-1,0,-1,-1,-2
1480611266136294,0,0,-1,-2,0,0,0,-1
1480611266138298,2,-1,-2,-2,0,0,-2,0
1480611266138298,-1,1,1,1,0,1,-1,0
1480611266165872,0,-2,-1,-1,-1,-2,0,-1
1480611266165872,2,0,-2,0,-1,2,0,0
1480611266183419,0,-1,-1,0,-1,0,-3,-1
1480611266183419,2,-2,-3,-2,-1,-2,1,-1
1480611266184421,-2,1,0,-1,-1,-2,1,1
1480611266184421,-2,-1,-2,-1,-3,0,-1,-1
1480611266196955,-1,0,0,-1,-1,-2,-1,0
1480611266196955,-1,1,1,-1,1,1,-1,-1
1480611266197960,-1,0,-2,-2,1,-3,0,0
1480611266197960,0,-1,-1,-1,0,-2,1,-1
1480611266199462,1,0,1,1,-1,0,1,-1
1480611266199462,-2,-3,0,0,1,-1,-3,-2
1480611266225530,0,-1,-1,-1,-1,-1,0,0
1480611266225530,2,-1,1,-1,-1,-1,-1,1
1480611266242576,-3,1,0,0,-1,1,-1,-1
1480611266242576,-1,-1,-1,-3,1,0,0,1
1480611266243077,-1,-1,-2,-1,-1,1,2,0
1480611266243077,-4,0,-1,2,-1,-4,0,0
1480611266245082,-1,-1,-2,0,0,0,-1,0
1480611266245082,0,-1,-2,-2,-2,0,0,0
1480611266256112,1,-1,1,0,1,-1,-1,-1
1480611266256112,0,-1,-1,-1,-1,1,-2,-1
1480611266265637,-1,0,-2,0,0,-1,-1,-1
1480611266265637,-3,2,0,0,0,1,-2,-1
1480611266279674,-1,-2,1,-2,-1,0,-1,-1
1480611266279674,-2,-1,1,-1,-1,1,-3,-2
1480611266281178,0,0,-1,-1,-3,1,0,-1
1480611266281178,0,-1,-3,-1,-2,-2,0,0
1480611266292709,0,-1,-1,1,1,0,1,-2
1480611266292709,-2,-1,0,1,0,-3,2,0
1480611266317274,-1,0,0,0,-2,-1,0,-1
1480611266317274,-2,0,0,3,0,-4,-1,0
1480611266317776,1,1,-1,-2,0,-1,-1,-2
1480611266317776,-1,1,1,1,0,2,1,-1
1480611266319781,-1,-3,0,-2,-1,-1,2,-1
1480611266319781,2,-1,-1,0,-3,-2,1,1
1480611266338832,-1,-1,0,0,-2,-1,-1,1
1480611266338832,-1,-3,0,-1,1,-2,1,-1
1480611266340837,-1,1,-2,0,-1,-1,-1,0
1480611266340837,0,-2,-1,-2,1,2,-1,0
1480611266352869,0,-1,0,0,-2,1,-1,2
1480611266352869,0,0,-2,-2,-1,1,-2,-1
1480611266361893,-3,-1,-1,-1,1,0,-2,-2
1480611266361893,-1,1,-1,-1,0,0,1,0
1480611266376432,-1,-2,-2,0,-1,-1,-2,0
1480611266376432,1,0,-1,1,0,1,1,0
1480611266377937,3,0,-1,-2,1,-2,0,1
1480611266377937,-1,0,1,2,0,0,0,0
1480611266399493,0,0,0,0,-2,0,-3,1
1480611266399493,-2,-1,0,1,-1,-1,-2,0
1480611266400998,-1,-1,-1,0,0,-2,0,-2
1480611266400998,1,-1,-3,-3,1,-1,-1,-3
1480611266421552,-3,0,0,-2,-2,-1,1,-2
1480611266421552,1,1,-2,0,0,-1,-1,0
1480611266423056,-1,-1,-1,0,-1,0,1,0
1480611266423056,-3,-3,-2,0,-2,-1,1,0
1480611266435589,0,-1,0,0,-1,-1,1,-1
1480611266435589,-2,1,-1,1,0,2,0,0
1480611266459653,1,0,0,0,-2,1,-1,1
1480611266459653,0,-1,-1,-1,-3,0,-1,-1
1480611266460155,0,-1,-1,0,1,0,1,-1
1480611266460155,0,-2,-1,-2,0,-1,0,1
1480611266462161,-1,-1,-3,-2,1,0,0,1
1480611266462161,0,-1,-1,1,1,-1,-3,-2
1480611266472689,-1,0,-1,-2,0,-1,-1,-1
1480611266472689,-2,0,0,-1,-1,-3,-2,-1
1480611266512795,0,-3,-1,-1,-2,-1,-1,1
1480611266512795,-2,0,0,-2,-1,-1,-1,0
1480611266513800,4,-1,-3,0,-1,0,-1,0
1480611266513800,1,-1,0,0,-1,-1,-2,-1
1480611266515302,-1,1,-1,-1,0,-1,-1,-2
1480611266515302,0,0,1,-1,-2,1,-1,-1
1480611266519313,-2,1,-2,0,0,0,3,-1
1480611266519313,-1,-2,-1,-1,0,0,0,0
1480611266525328,-4,-1,-2,0,0,1,1,-2
1480611266525328,2,0,-1,-3,0,-3,0,-2
1480611266532848,0,1,0,1,-1,0,-1,-1
1480611266532848,1,0,-1,0,-1,-2,0,0
1480611266547387,0,0,0,1,0,-1,0,0
1480611266547387,1,-1,1,1,1,1,0,1
1480611266556912,0,-1,-2,-1,-1,1,0,0
1480611266556912,-1,0,-1,-1,-2,-1,0,-1
1480611266562427,-1,1,-2,0,0,-1,-1,0
1480611266562427,-1,0,0,-1,-3,-1,-3,1
1480611266578971,-1,-2,-1,-1,-1,-3,0,0
1480611266578971,-3,0,-1,1,1,-1,-1,-2
1480611266580475,3,-1,1,1,-1,1,-1,-2
1480611266580475,-3,0,-1,0,-1,0,0,-1
1480611266592507,-2,1,0,0,1,-2,0,-1
1480611266592507,-1,-1,-1,-3,0,1,2,-2
1480611266601531,-1,0,1,0,1,0,-2,0
1480611266601531,0,-1,-1,0,0,0,1,0
1480611266617072,-1,-1,-1,-1,-1,-2,-2,0
1480611266617072,1,-1,-1,-1,-1,-1,1,-1
1480611266618577,1,1,0,-2,-1,-3,1,-1
1480611266618577,0,-1,-1,0,-1,-2,1,-1
1480611266640134,-2,-1,1,0,-2,-1,-1,0
1480611266640134,2,-1,0,0,-2,0,-1,1
1480611266645147,1,-2,-2,-3,-1,1,-1,0
1480611266645147,0,-1,-2,1,-1,0,-1,-1
1480611266652667,0,0,0,-2,-2,0,-1,-2
1480611266652667,-1,-1,-1,0,-1,-1,-2,0
1480611266667707,-1,0,2,0,2,-4,-2,-1
1480611266667707,-2,-2,1,0,0,1,-1,-1
1480611266683248,0,0,-1,0,1,-1,-2,-1
1480611266683248,-2,-1,0,-1,0,0,1,0
1480611266701297,1,-1,-1,0,-3,0,0,-1
1480611266701297,0,-1,-4,-3,-1,0,0,-1
1480611266701798,-1,0,-1,-2,-1,0,0,1
1480611266701798,-1,-1,0,-1,-2,-2,-3,0
1480611266705307,-2,-1,0,-1,0,-1,0,1
1480611266705307,2,-1,1,-1,-2,0,-1,0
1480611266736891,-1,-1,1,0,0,0,-1,1
1480611266736891,1,0,-1,-1,0,0,-1,-1
1480611266746418,0,-1,-1,1,-2,0,-1,-1
1480611266746418,-3,-1,2,0,0,-1,-1,0
1480611266746918,-1,-2,-2,0,-2,-1,0,0
1480611266746918,1,-2,1,2,1,-2,-1,-1
1480611266749926,-2,-1,-2,-1,-2,-1,0,-1
1480611266749926,-1,0,-2,0,0,-3,2,-1
1480611266766470,1,-2,-2,-1,-1,0,-1,-1
1480611266766470,-1,1,-2,0,-1,0,0,0
1480611266767974,2,0,0,1,-2,0,-2,0
1480611266767974,4,0,-1,-2,0,-1,-2,-1
1480611266782012,-1,1,-1,-1,1,-1,-2,0
1480611266782012,1,-2,-3,-2,-2,-3,1,0
1480611266783515,-2,-1,-2,0,1,-2,-1,-1
1480611266783515,-2,1,1,0,-1,-1,-1,-1
1480611266796550,-1,-1,1,2,-1,-1,-1,0
1480611266796550,0,-1,-2,-1,-2,-1,-1,0
1480611266798055,0,-2,-1,-2,-1,0,-1,-1
1480611266798055,-2,-1,0,0,-1,0,-1,-1
1480611266819109,-1,-3,-2,-2,-1,-1,0,-3
1480611266819109,-2,-3,0,1,2,-1,0,-1
1480611266820613,-1,0,1,0,0,0,0,0
1480611266820613,0,1,1,1,0,1,-2,0
1480611266841670,0,1,0,0,0,0,0,0
1480611266841670,-1,1,-1,0,0,1,0,0
1480611266843174,-2,-1,0,-1,0,-2,-1,-1
1480611266843174,-1,0,-4,-1,0,0,0,-1
1480611266856710,1,1,-2,0,-3,-2,1,0
1480611266856710,1,-2,-2,-2,-2,1,-2,-1
1480611266862726,0,-1,-1,-2,0,0,-1,-2
1480611266862726,-3,-1,0,1,-3,-2,1,-1
1480611266879271,0,-2,-1,-1,-1,1,0,-1
1480611266879271,-2,0,1,-1,-2,-1,-1,-1
1480611266880776,-1,-3,0,0,-1,1,0,1
1480611266880776,-1,-1,1,-3,0,-1,1,-2
1480611266900828,-1,-2,-1,2,2,0,-2,1
1480611266900828,0,0,2,-3,-1,-2,0,-1
1480611266909349,0,1,-1,-2,-1,-1,0,0
1480611266909349,0,-1,-2,2,0,-1,0,-1
1480611266915867,-2,1,-1,0,-3,1,-1,-1
1480611266915867,-1,-3,-2,1,-1,0,-1,0
1480611266922384,0,0,-1,-1,2,-2,-1,-1
1480611266922384,2,0,-2,-1,-1,-1,-2,0
1480611266938929,-1,-1,-2,-1,-1,-2,-1,-3
1480611266938929,-2,-1,0,1,0,-2,1,0
1480611266940433,-1,1,0,0,0,1,0,-3
1480611266940433,0,-1,0,1,1,3,0,0
1480611266961490,-1,-2,0,0,-2,-1,-1,1
1480611266961490,-2,0,-1,1,1,0,1,1
1480611266962995,3,0,-1,-2,-1,0,-2,0
1480611266962995,-1,-3,-1,-1,-1,-1,-2,0
1480611266976028,0,-1,1,0,-1,2,-1,-1
1480611266976028,0,-2,-1,-2,1,0,-1,-1
1480611266983046,-1,1,-2,1,-2,-2,0,0
1480611266983046,-1,0,-2,-2,-2,-2,-1,-1
1480611267014134,0,1,0,-1,2,0,0,0
1480611267014134,1,0,-3,-1,0,0,0,-2
1480611267015633,0,-2,-1,-1,-1,0,-1,0
1480611267015633,-1,0,0,0,1,1,-1,0
1480611267029169,2,0,2,0,1,-1,-1,-1
1480611267029169,2,0,1,0,1,-1,-1,-1
1480611267030673,-1,-2,-1,0,1,0,2,-1
1480611267030673,-2,2,0,-1,-1,0,-1,-1
1480611267035686,-2,-1,-2,0,-1,-1,1,0
1480611267035686,-1,0,1,0,0,-1,-1,0
1480611267042705,-4,-1,-1,-2,-2,-2,-2,-1
1480611267042705,-1,-1,0,1,0,1,0,0
1480611267058747,-1,0,-1,0,-2,0,1,-2
1480611267058747,1,-2,-1,-2,-1,-1,-1,0
1480611267060753,-2,-1,-2,0,0,-1,0,1
1480611267060753,0,-4,-3,0,0,-2,0,-2
1480611267081809,-1,-2,0,-2,1,0,-1,0
1480611267081809,-1,0,-3,-1,-1,-2,-1,1
1480611267096348,0,-1,0,-1,-1,-4,-2,-2
1480611267096348,1,1,-2,-2,-1,-2,0,1
1480611267103868,-1,-1,0,-2,-2,-1,0,0
1480611267103868,-1,0,-1,-1,-3,0,0,-1
1480611267105371,0,0,1,0,0,2,1,0
1480611267105371,-1,-1,-1,0,0,-1,-1,-1
1480611267126427,-3,0,-1,0,-1,0,1,-1
1480611267126427,0,0,1,1,0,0,-2,-1
1480611267127931,0,-1,-1,-1,-2,0,-1,0
1480611267127931,2,-1,0,0,-1,-1,-2,1
1480611267141467,0,0,-2,-1,0,-2,-1,-1
1480611267141467,-1,-3,-2,0,-1,-1,0,1
1480611267142972,3,1,-2,-2,-3,-2,0,-1
1480611267142972,-2,0,-1,-2,-3,-2,1,-2
1480611267156006,1,-2,0,-2,0,0,-1,-2
1480611267156006,-1,2,-1,1,0,-1,-2,-2
1480611267162523,-1,-2,0,3,1,-2,-1,-2
1480611267162523,-2,0,-2,-2,-1,-1,0,-1
1480611267178064,0,0,-1,-2,-1,0,-3,0
1480611267178064,1,-2,-1,1,-2,0,0,-2
1480611267186589,0,-1,-1,0,0,0,0,2
1480611267186589,0,-2,-1,-2,0,-1,-1,-1
1480611267209648,-1,0,-2,-1,0,-1,-1,-3
1480611267209648,1,1,0,-1,-3,-1,0,1
1480611267211153,0,-1,-1,-2,0,-1,1,1
1480611267211153,0,-1,0,1,-1,1,1,-1
1480611267215163,-1,-1,-1,0,-2,0,-1,0
1480611267215163,-3,0,-2,1,0,-2,0,1
1480611267231707,-2,0,-2,1,1,0,0,-2
1480611267231707,0,1,1,1,0,0,-1,1
1480611267238224,0,-1,0,-2,-2,0,1,-1
1480611267238224,1,-1,0,0,0,1,-1,0
1480611267254267,-2,-1,-3,-1,-1,0,0,0
1480611267254267,-3,-1,-1,-1,-1,1,-4,0
1480611267260784,-3,0,-1,0,-1,-2,1,1
1480611267260784,-1,0,-2,-1,-1,-2,0,-1
1480611267285851,-1,2,0,-2,-1,0,-1,-1
1480611267285851,0,-1,-2,0,-1,-3,1,-1
1480611267285851,3,0,-2,0,1,1,-1,-2
1480611267285851,-2,-1,0,-2,1,1,0,-2
1480611267299388,0,-1,1,1,-1,-1,-2,0
1480611267299388,-1,1,0,1,-1,0,0,0
1480611267300393,0,1,0,0,-2,0,-2,0
1480611267300393,3,-3,0,-2,0,0,1,0
1480611267301895,0,1,-1,-1,-1,-1,-1,-2
1480611267301895,-1,-3,0,-2,-1,0,-1,-1
1480611267321947,1,-1,-2,-1,-1,1,-1,-1
1480611267321947,-2,0,2,-1,-1,-1,-1,-1
1480611267324454,0,-1,-1,-1,0,1,-1,1
1480611267324454,0,0,1,1,0,1,0,1
1480611267335483,1,-1,2,1,-1,-1,0,1
1480611267335483,-1,0,-1,1,-1,-2,0,-1
1480611267344006,-1,-1,0,-2,0,0,-1,-2
1480611267344006,0,0,1,-1,-1,0,0,-1
1480611267366567,-1,0,-1,-2,-1,0,0,-2
1480611267366567,-2,-1,-1,0,-1,-1,-1,-1
1480611267368070,1,0,0,-1,0,0,-1,0
1480611267368070,-2,0,0,-2,0,1,0,-2
1480611267381607,-1,0,-1,0,-1,-3,-1,1
1480611267381607,1,-1,-2,1,0,-2,1,1
1480611267383110,0,0,-2,-2,0,-2,-1,-1
1480611267383110,2,2,-3,1,-1,0,-1,-1
1480611267395144,-1,0,0,1,0,0,1,-1
1480611267395144,-1,1,0,-1,-1,-1,0,-1
1480611267410182,-1,-2,0,0,-2,-3,-1,0
1480611267410182,-2,0,0,1,-1,-2,0,0
1480611267418204,-4,-1,-2,-2,0,0,1,-1
1480611267418204,1,-1,-2,-1,0,4,-1,-1
1480611267434246,0,0,-1,0,-2,1,1,0
1480611267434246,-2,-2,-1,-2,0,0,-1,-1
1480611267441265,-1,-1,-3,-1,1,-3,0,1
1480611267441265,0,-1,0,-2,0,-3,-2,-1
1480611267443271,1,-1,0,-2,1,-2,-1,0
1480611267443271,1,-3,-1,-1,0,-2,-1,-1
1480611267455302,-1,0,0,-2,-1,0,-1,-1
1480611267455302,0,0,0,1,0,-1,-1,0
1480611267464828,-3,1,-2,1,-1,0,-1,-1
1480611267464828,1,0,-1,-1,0,0,-1,-1
1480611267478865,-1,-2,0,-1,-1,-1,-1,-3
1480611267478865,-2,-1,-2,0,-2,3,0,0
1480611267480873,-1,-1,-1,1,1,0,1,-1
1480611267480873,1,0,1,0,-1,1,-1,1
1480611267500422,2,0,1,0,2,1,-1,1
1480611267500422,-2,-2,-2,-2,-1,-3,0,-1
1480611267510449,0,-3,-2,-2,0,-1,-3,-1
1480611267510449,-1,1,0,0,1,-1,0,-1
1480611267514962,0,0,-2,-1,-1,-1,-1,-1
1480611267514962,1,0,0,-2,-2,-2,-1,1
1480611267539527,-1,-1,0,-1,1,0,1,-2
1480611267539527,0,-1,-1,0,-1,-1,-1,-2
1480611267554065,2,-2,-1,1,-2,0,-2,0
1480611267554065,-2,-1,0,-2,-1,0,-1,-2
1480611267555569,-2,-2,0,2,-1,1,0,1
1480611267555569,-2,-1,-1,-1,0,-1,0,2
1480611267561083,-3,-3,0,-1,0,0,1,-1
1480611267561083,0,0,-1,-1,-2,2,0,0
1480611267567601,1,1,1,0,-1,-1,0,-2
1480611267567601,1,-2,-2,-2,0,-1,-1,-2
1480611267575121,1,-2,-3,0,-1,-2,0,0
1480611267575121,-2,0,1,0,0,-2,1,-1
1480611267584146,-2,0,1,1,-1,0,-1,1
1480611267584146,0,0,1,1,-1,-1,0,-1
1480611267600188,-1,-1,0,0,-2,1,-1,-1
1480611267600188,0,-1,-2,-2,-1,0,-2,-1
1480611267612720,0,0,0,-1,-1,1,-1,1
1480611267612720,-3,0,0,-4,-1,-1,-1,1
1480611267621243,3,-3,-2,-3,0,1,1,0
1480611267621243,-1,-3,0,-1,0,0,0,0
1480611267623251,-2,0,0,1,0,-1,-2,-1
1480611267623251,-1,-1,-2,-1,-1,0,-1,0
1480611267643805,-3,-1,2,1,0,-1,-1,-2
1480611267643805,-1,-1,0,2,0,-2,-1,0
1480611267645813,1,-2,-2,1,-1,-4,1,0
1480611267645813,0,0,1,0,0,0,0,-1
1480611267657842,0,0,-1,0,0,-1,0,-1
1480611267657842,-1,0,0,0,0,1,-1,1
1480611267667366,-1,-1,-2,-3,0,0,1,-2
1480611267667366,-1,1,-1,0,-2,1,0,1
1480611267682407,-4,-1,0,-4,-2,-3,-2,0
1480611267682407,4,0,1,-1,-1,0,-1,-2
1480611267687420,0,0,0,1,-1,-2,-1,0
1480611267687420,0,-3,-1,-2,-1,1,-1,-1
1480611267704464,-1,0,-2,2,1,2,0,0
1480611267704464,-1,-2,-1,1,-1,0,0,-2
1480611267705969,-1,-1,-2,-2,-2,1,1,0
1480611267705969,2,-1,0,-1,-1,-3,-1,0
1480611267719003,-2,0,1,0,0,0,0,-1
1480611267719003,-2,0,0,-1,-1,0,0,-1
1480611267720507,-3,0,-1,0,-3,2,-2,-1
1480611267720507,-2,-3,-2,-2,-2,0,-1,0
1480611267765128,0,-1,0,0,0,0,-2,2
1480611267765128,0,0,-1,-3,0,0,0,0
1480611267767132,0,1,-2,-2,-1,-1,2,-3
1480611267767132,-2,1,-3,-2,0,0,0,-1
1480611267767634,0,-1,1,0,1,0,-1,-2
1480611267767634,4,0,1,1,-1,1,-1,0
1480611267778663,-2,-1,-2,0,0,1,-1,0
1480611267778663,0,1,1,-1,-1,0,-2,-1
1480611267779665,1,-1,-2,-3,-4,0,1,1
1480611267779665,0,-1,-2,1,-1,-1,0,-1
1480611267786683,1,-1,-1,0,-1,-1,-2,1
1480611267786683,0,0,-3,-1,1,1,-1,-1
1480611267802225,-1,1,-1,-2,0,-1,-1,0
1480611267802225,-2,1,1,-2,-2,0,-1,-2
1480611267803729,-1,0,-3,-2,0,-1,1,1
1480611267803729,0,0,1,1,1,1,1,0
1480611267832807,-2,-1,-1,0,-1,-2,-1,-2
1480611267832807,-1,-1,-1,0,1,-2,0,0
1480611267834310,-1,-1,1,1,-1,0,0,0
1480611267834310,-1,-2,0,-1,-2,-2,1,0
1480611267846345,1,0,2,-1,-4,-1,-2,0
1480611267846345,-3,-1,0,0,-1,0,0,-1
1480611267848849,-2,0,-1,-1,1,0,0,-1
1480611267848849,-1,-2,1,0,2,1,-1,-1
1480611267861383,1,-1,-3,-3,-1,-1,-1,1
1480611267861383,-3,0,0,0,0,-1,1,0
1480611267862887,-1,-1,-1,-2,-1,-2,0,1
1480611267862887,-2,-1,0,0,-1,-1,-3,-1
1480611267891463,1,-1,-1,1,-1,-1,-1,-1
1480611267891463,2,-1,0,-1,0,0,-1,0
1480611267892968,-1,-3,-2,-3,-2,-2,-1,-2
1480611267892968,0,-1,-1,-1,-1,1,1,0
1480611267898483,0,-1,0,2,0,-1,0,-1
1480611267898483,-1,0,-2,-2,-1,-2,-2,-1
1480611267904999,0,0,0,1,1,0,-1,-1
1480611267904999,1,-1,-2,0,0,-4,-1,0
1480611267921042,-4,0,-1,0,2,-1,-1,-1
1480611267921042,-2,-1,-1,-2,1,0,0,0
1480611267935078,1,-1,-2,0,-1,0,0,-1
1480611267935078,-2,1,1,-1,-1,1,1,-2
1480611267944605,0,0,-1,-1,-2,-1,1,-2
1480611267944605,-1,0,-2,2,0,-1,0,1
1480611267960647,-2,-1,0,-1,1,0,-2,1
1480611267960647,1,-1,0,1,-1,-3,-2,0
1480611267961149,-1,0,1,-1,1,-1,-1,-1
1480611267961149,1,0,0,-3,-1,1,0,-1
1480611267965159,2,1,-1,-2,0,1,0,-1
1480611267965159,0,2,-1,0,-1,0,-1,1
1480611267981706,1,-1,-1,-2,0,0,-1,0
1480611267981706,2,-1,-1,-1,-2,-1,-1,-1
1480611267983207,-1,-1,0,-2,-1,-1,-1,0
1480611267983207,0,0,-1,0,-1,-1,0,0
1480611268025319,2,-1,-2,0,0,-2,0,-1
1480611268025319,-2,-1,0,0,0,-1,0,0
1480611268035847,-2,-2,-2,1,-2,0,2,1
1480611268035847,-1,-1,-1,-1,-1,0,0,-2
1480611268036849,-2,-1,-1,1,-2,2,-1,1
1480611268036849,0,-1,-2,0,-1,0,0,-1
1480611268041864,0,-1,-1,1,1,0,-4,-1
1480611268041864,-2,-1,-3,-1,0,-3,1,-1
1480611268042866,-3,-3,-1,-1,1,1,0,0
1480611268042866,-1,0,-1,0,-1,-2,-2,-1
1480611268046376,0,0,-2,-2,0,-1,1,-2
1480611268046376,1,-1,-1,0,-1,1,-1,-1
1480611268062920,1,2,-1,-1,0,-1,-1,0
1480611268062920,0,0,0,1,0,0,-1,0
1480611268078961,1,-2,-1,-1,-1,0,-1,-2
1480611268078961,-2,0,-2,1,-1,-2,1,0
1480611268080967,-1,1,-1,0,-1,-3,0,0
1480611268080967,-1,0,-1,0,0,-2,1,1
1480611268084977,-1,0,0,0,-1,-2,-2,0
1480611268084977,1,-2,0,-1,1,0,-1,-2
1480611268109041,1,-3,-2,-1,-1,0,0,-1
1480611268109041,0,-2,-1,-2,1,0,-1,0
1480611268110546,1,-2,-1,-1,1,0,0,-1
1480611268110546,-1,1,0,-1,-1,-3,-1,0
1480611268124583,-1,1,0,-1,-2,1,0,0
1480611268124583,0,2,-3,1,-1,-1,0,-1
1480611268126588,1,0,0,1,-3,-2,-1,0
1480611268126588,-1,0,-1,0,-1,0,-1,0
1480611268137617,1,-1,-1,0,-2,-1,0,0
1480611268137617,-1,0,0,-1,-2,2,0,-1
1480611268154161,-1,0,0,0,0,1,-1,-1
1480611268154161,0,-1,1,0,-2,-1,0,-1
1480611268176220,-2,0,0,0,-1,0,-1,0
1480611268176220,1,-3,-3,-1,-1,-1,0,0
1480611268179228,-1,1,0,-1,0,-1,2,-1
1480611268179228,1,-1,-1,-2,-3,0,1,0
1480611268183741,2,1,0,0,0,0,0,-1
1480611268183741,-2,1,1,0,0,-1,-2,0
1480611268185747,-1,-1,-1,0,0,0,0,-2
1480611268185747,-1,-2,0,-1,-1,-3,-2,-2
1480611268206802,-1,-1,-3,-1,1,0,-2,-1
1480611268206802,-1,0,-3,1,0,-3,-1,-1
1480611268212818,1,0,0,0,-1,-1,-1,0
1480611268212818,-2,1,1,-1,-1,-1,-1,0
1480611268221340,3,-2,0,0,0,-1,-3,-2
1480611268221340,1,-2,0,-1,-3,1,-1,-1
1480611268223345,2,-1,-3,-2,-1,0,0,1
1480611268223345,2,-1,-1,1,0,-1,2,1
1480611268244402,-1,-1,0,-1,-1,0,0,1
1480611268244402,-2,-1,-3,-1,-2,-2,0,0
1480611268247911,-1,-2,0,0,-1,-1,0,0
1480611268247911,-2,-1,0,-1,0,0,-2,-1
1480611268265458,2,0,0,1,1,-1,1,0
1480611268265458,0,-1,0,-1,0,0,0,-1
1480611268282503,0,-1,-1,0,-1,0,1,-1
1480611268282503,-1,-1,-1,-2,1,-1,-1,-1
1480611268283505,-3,0,0,2,-3,0,0,0
1480611268283505,0,-1,1,1,0,-2,0,0
1480611268310578,-1,1,0,1,-1,0,0,-1
1480611268310578,1,-1,1,1,0,2,-1,0
1480611268327122,0,0,-2,0,0,0,-1,-1
1480611268327122,-1,0,0,1,-1,0,-1,-1
1480611268333139,-1,-1,-1,-3,0,-2,0,1
1480611268333139,0,0,-3,-2,-2,-2,0,0
1480611268348177,-3,0,-2,0,-1,-2,1,0
1480611268348177,2,0,0,1,0,-1,-1,0
1480611268358208,1,1,0,0,0,0,-1,-1
1480611268358208,0,-2,0,-1,0,1,-1,-2
1480611268365228,-1,-3,2,-1,0,0,-1,-1
1480611268365228,0,-1,-1,-3,0,0,-2,1
1480611268367730,-1,-1,-1,1,-2,-1,-1,-1
1480611268367730,-1,0,-1,0,-1,-2,0,-1
1480611268368732,0,-1,1,-1,-1,-1,-2,-3
1480611268368732,0,-2,1,-2,0,-2,0,0
1480611268371740,-2,-2,-1,-1,-1,-2,-2,-1
1480611268371740,-1,0,-1,1,1,0,1,0
1480611268387282,-2,-1,-2,0,0,0,0,-1
1480611268387282,-1,-1,-3,-1,-1,-1,0,0
1480611268394300,3,0,-1,-1,-1,0,-1,2
1480611268394300,-2,0,1,0,1,1,-2,-2
1480611268401319,0,2,0,-2,-1,1,0,0
1480611268401319,-1,0,1,-1,-1,1,-1,-1
1480611268403324,-3,-1,1,2,2,-1,0,0
1480611268403324,1,-2,-2,-1,0,-1,1,1
1480611268431399,0,-1,-2,-2,0,-1,0,0
1480611268431399,-2,0,-1,1,1,-1,2,-1
1480611268447442,-1,-2,0,1,-2,-2,-2,0
1480611268447442,0,-1,1,-2,-1,1,-4,-1
1480611268447943,0,-1,-3,-1,-2,0,-1,0
1480611268447943,0,-2,-2,-1,-1,-3,-3,-2
1480611268449447,1,1,-2,1,0,0,0,-1
1480611268449447,0,0,1,0,-1,-1,-1,0
1480611268461981,-2,-2,0,0,1,-1,0,-2
1480611268461981,0,2,0,-1,-2,-1,0,0
1480611268463990,-2,-1,0,0,1,1,1,-1
1480611268463990,-1,-2,-2,-1,-2,0,-1,0
1480611268491559,1,-1,0,-1,0,-2,-1,0
1480611268491559,1,0,0,0,0,1,0,0
1480611268493063,0,-2,0,1,-1,0,-1,0
1480611268493063,-1,0,-1,-1,0,-1,2,1
1480611268497581,-2,1,1,0,1,-2,-1,-1
1480611268497581,0,-2,0,-2,0,-2,-1,0
1480611268506599,0,-1,-1,-3,-1,1,-1,-1
1480611268506599,0,1,0,-2,-2,-1,-2,0
1480611268535676,1,-1,0,-2,-1,1,1,1
1480611268535676,-2,-1,1,0,-2,0,2,0
1480611268552721,0,1,0,-1,1,-1,-2,0
1480611268552721,-3,-1,0,0,0,0,0,-1
1480611268553724,1,-1,0,-1,0,0,-1,0
1480611268553724,0,-1,0,0,-1,2,1,-2
1480611268598845,-2,0,-3,0,-2,-2,0,-2
1480611268598845,-1,0,-1,-1,-2,0,0,-1
1480611268599345,-2,-1,0,2,-1,-2,-1,-1
1480611268599345,0,-1,1,-2,-1,-1,-1,-2
1480611268604359,0,-1,-1,-2,0,-1,0,0
1480611268604359,1,0,-1,-2,1,-3,1,0
1480611268604860,-1,-1,-1,-1,0,1,0,-1
1480611268604860,-1,0,0,1,1,-2,-1,0
1480611268611378,0,-1,-2,-2,-1,-1,2,0
1480611268611378,0,0,0,1,1,0,-3,-1
1480611268613384,-2,-1,0,-3,-2,0,-1,-1
1480611268613384,-3,0,1,-1,-2,1,-1,-2
1480611268625415,-1,0,0,-2,-1,-2,0,-2
1480611268625415,-2,0,-2,-1,1,0,1,0
1480611268633938,2,0,-2,-1,0,-1,-2,0
1480611268633938,3,0,-1,-1,0,-1,0,-2
1480611268641458,-1,0,0,-2,-2,1,-1,0
1480611268641458,-2,-1,0,-2,-1,1,1,-1
1480611268643965,-1,-3,0,1,0,-1,-2,-2
1480611268643965,-1,1,0,2,1,1,-1,-1
1480611268664018,-1,0,-1,0,0,-3,0,0
1480611268664018,0,-1,-1,-3,0,0,0,1
1480611268665522,0,0,0,-1,0,-1,0,1
1480611268665522,0,-2,0,0,-1,-3,-3,1
1480611268717661,-2,-1,-1,0,0,0,-1,1
1480611268717661,-2,-3,0,1,-1,0,-3,0
1480611268770301,-1,0,-1,0,-2,1,0,-2
1480611268770301,-1,-3,-2,-1,0,-2,-1,0
1480611268770802,3,-1,1,0,0,-3,0,0
1480611268770802,-1,1,0,1,-1,-4,-1,0
1480611268772808,-1,0,0,-2,-2,0,1,-1
1480611268772808,-3,-1,-2,1,0,0,-1,-2
1480611268875079,-3,-1,1,-2,0,0,0,1
1480611268875079,0,-2,0,-1,-1,0,-1,-1
1480611268882599,-1,-1,0,-2,-1,-1,0,0
1480611268882599,1,-1,-3,-2,0,1,-3,-1
1480611268883602,0,0,0,-1,-1,0,-2,0
1480611268883602,0,-2,-2,-2,0,0,-1,-1
1480611268905162,-2,-2,-1,-1,0,0,-1,-1
1480611268905162,0,-1,-4,-1,-1,-3,1,-3
1480611268906162,0,0,-1,0,0,0,-2,0
1480611268906162,-1,1,-2,-1,-3,-2,-1,0
1480611268906664,0,-2,-2,1,0,0,-2,-1
1480611268906664,0,0,-1,-2,0,-1,-2,-1
1480611268911676,-4,-2,-1,-2,-2,-1,-1,1
1480611268911676,-2,0,-2,1,0,-1,0,-1
1480611268912178,-4,0,-1,-1,1,-2,0,0
1480611268912178,-1,0,1,-2,-1,-2,0,-3
1480611268926717,0,1,-3,-1,-2,0,1,1
1480611268926717,-5,-4,-4,-1,-1,0,-1,0
1480611268941757,-2,2,2,-1,-1,0,-1,1
1480611268941757,0,0,1,-1,1,-1,0,-1
1480611268942759,-2,-1,-1,0,0,1,-1,-1
1480611268942759,0,-2,1,1,0,-1,-2,1
1480611268949381,5,10,7,2,0,-1,0,1
1480611268949381,1,2,-6,-3,-3,0,-1,0
1480611268964318,-2,-3,-1,0,-1,0,-1,-2
1480611268964318,0,3,-1,-1,-2,1,0,-1
1480611268965821,0,-7,-2,-1,-1,1,0,-1
1480611268965821,-2,0,0,-2,0,2,-1,1
1480611268986375,-1,3,1,-1,0,-1,-1,-2
1480611268986375,1,-2,-2,0,1,1,-1,-1
1480611268987879,-2,-3,-6,0,-1,-1,-1,-1
1480611268987879,-2,2,2,0,0,0,-1,-1
1480611269000914,-1,-2,-3,-1,-1,0,-2,1
1480611269000914,1,1,2,0,-2,-2,-1,2
1480611269007431,-1,-2,-5,-2,0,-1,0,-1
1480611269007431,-2,-1,1,-1,-2,-2,-2,-2
1480611269023975,-1,-1,1,-1,1,0,1,-2
1480611269023975,-2,2,0,-2,-2,0,0,1
1480611269037512,2,-1,-1,0,0,0,1,-1
1480611269037512,-1,-2,-1,0,0,0,0,0
1480611269045533,-1,-1,1,0,-2,0,2,0
1480611269045533,-1,-2,-2,1,0,1,-1,0
1480611269054056,-1,-2,-3,0,1,-1,-1,0
1480611269054056,-1,-1,0,2,-1,0,0,-1
1480611269060574,-2,-2,0,1,-1,-2,0,-2
1480611269060574,1,5,4,1,0,0,2,-1
1480611269069097,-1,-1,-2,-1,-2,-2,2,0
1480611269069097,0,-2,-1,-1,-1,-1,-3,0
1480611269098677,0,0,-1,-2,-1,1,0,-2
1480611269098677,-1,-3,-3,0,-2,1,0,0
1480611269108701,-1,0,-2,1,-1,-1,0,0
1480611269108701,0,1,0,-3,0,0,1,0
1480611269114216,5,-1,-2,-2,-2,-2,0,-2
1480611269114216,-2,1,-1,-3,0,0,-1,-3
1480611269115720,-1,-3,0,-1,0,-2,-2,1
1480611269115720,-2,-3,0,0,0,-2,-2,-2
1480611269136274,-1,1,0,0,0,0,-2,0
1480611269136274,2,-1,-2,2,-1,-1,-2,0
1480611269138280,-1,1,3,-3,-1,0,-2,-1
1480611269138280,-1,-1,-1,0,1,0,1,-1
1480611269143794,-2,-1,0,1,0,-1,0,1
1480611269143794,-1,-1,-2,-1,-1,-2,-1,-1
1480611269145800,-3,1,-1,2,-1,-1,1,0
1480611269145800,-2,-1,0,-1,-1,-2,1,0
1480611269166355,1,-2,-1,0,-1,-1,1,0
1480611269166355,-2,-1,-1,0,1,0,-1,-2
1480611269167858,0,-2,0,0,-1,-1,-2,-1
1480611269167858,0,0,-2,0,-1,2,-2,-1
1480611269179893,-2,-2,0,0,-2,0,0,-2
1480611269179893,-1,-3,-1,-1,0,-1,1,0
1480611269189416,0,0,-1,0,0,1,-1,-1
1480611269189416,-1,0,-1,0,-1,-1,-1,0
1480611269203954,1,0,-2,0,0,0,-2,0
1480611269203954,-3,-1,-1,1,1,0,-1,-3
1480611269206461,0,1,-1,-2,-1,-1,-1,1
1480611269206461,-4,-4,-4,-2,-2,-1,-1,0
1480611269226514,-3,2,1,0,-1,-1,1,0
1480611269226514,0,0,0,-2,-2,-2,-1,-1
1480611269228019,5,-8,-5,-3,1,-1,1,-1
1480611269228019,0,1,-2,-2,-2,-2,0,0
1480611269240051,-1,-1,0,0,0,-2,-1,-1
1480611269240051,-1,0,0,-3,-1,0,-1,0
1480611269249075,-1,2,0,1,-2,-1,0,0
1480611269249075,2,-1,-1,-1,1,-1,-1,-2
1480611269264119,0,0,-2,0,1,0,0,0
1480611269264119,0,-1,-1,-1,-2,-1,-1,-1
1480611269265619,0,-1,0,0,0,0,-2,-1
1480611269265619,1,0,1,2,-1,-2,0,-1
1480611269286674,-3,0,-2,-1,0,0,-3,-2
1480611269286674,3,-2,1,0,-1,0,0,0
1480611269288178,-3,2,1,-1,-1,-1,-1,0
1480611269288178,-1,0,-2,-2,0,0,0,-1
1480611269309234,1,-1,-1,-2,0,-2,0,-3
1480611269309234,-1,1,0,0,-2,-2,0,-1
1480611269310740,-1,2,0,1,0,0,-1,0
1480611269310740,0,0,-2,1,0,1,-1,0
1480611269331295,0,-1,0,0,-2,-1,0,1
1480611269331295,-2,-2,-2,2,1,-1,-1,-1
1480611269333298,0,-1,0,1,-1,-1,1,-1
1480611269333298,-1,0,1,-2,-1,-1,1,0
1480611269353854,0,-1,-1,-1,0,2,-1,-2
1480611269353854,-3,-1,-3,-2,0,-1,-1,-1
1480611269355357,-1,-1,-1,-2,-1,0,0,-1
1480611269355357,1,0,1,0,1,0,-1,0
1480611269368892,0,0,2,-2,-3,0,-1,1
1480611269368892,0,2,0,0,1,-1,-2,0
1480611269370397,-2,-4,-3,-2,-2,-1,-2,-2
1480611269370397,-3,-3,2,0,0,0,0,-1
1480611269383934,0,-4,0,-3,0,-1,0,1
1480611269383934,0,0,0,1,-1,0,-1,-1
1480611269397474,-1,0,0,-1,0,-2,-1,-1
1480611269397474,0,0,0,0,-1,-3,0,1
1480611269406494,-1,-2,0,0,0,-1,0,1
1480611269406494,-2,-2,-1,0,0,0,1,-1
1480611269407997,0,-1,-3,-2,-1,1,1,0
1480611269407997,0,-1,-4,-1,-1,1,-3,-1
1480611269435570,0,1,0,0,1,-1,-3,0
1480611269435570,-1,-1,-2,-2,-3,-2,0,0
1480611269446099,0,-1,-1,-1,0,-2,1,-1
1480611269446099,1,0,2,-1,1,-3,-2,-1
1480611269447105,0,0,-4,-1,-2,0,0,-1
1480611269447105,1,-1,1,-1,0,-1,-1,2
1480611269450109,-2,0,0,0,-2,0,0,-1
1480611269450109,1,1,-1,-1,0,0,-1,-1
1480611269467656,2,1,1,-1,0,1,1,-1
1480611269467656,-3,-3,-1,0,1,3,0,-1
1480611269469159,0,1,-1,0,0,-2,-1,0
1480611269469159,-1,0,2,-1,0,0,-2,1
1480611269489717,-1,-1,-3,1,0,-1,1,0
1480611269489717,0,0,-1,-1,0,-3,-1,-2
1480611269491219,0,1,1,0,0,-2,0,0
1480611269491219,-2,-2,-3,-3,-3,-1,1,-1
1480611269503751,-2,-3,-1,0,-1,-1,-1,0
1480611269503751,1,-1,0,0,-1,0,1,1
1480611269505757,-1,-1,0,0,0,0,-2,-1
1480611269505757,1,0,0,-1,-1,0,0,-1
1480611269533832,-2,0,1,-1,0,0,-2,0
1480611269533832,0,0,-2,1,1,1,-1,2
1480611269535336,-2,0,0,0,0,0,-1,1
1480611269535336,-3,0,-1,0,0,-1,1,-1
1480611269555389,-1,0,-1,-1,0,-1,-2,0
1480611269555389,-1,0,-1,-3,-1,-2,-1,0
1480611269565920,-2,0,0,-2,-1,-2,-1,0
1480611269565920,2,0,1,0,-1,0,-1,0
1480611269567923,1,0,1,0,-2,-1,-1,-1
1480611269567923,2,0,1,0,-2,-2,-2,0
1480611269577448,-2,-1,-1,0,1,-1,0,-1
1480611269577448,1,-1,1,1,1,0,-1,1
1480611269600509,1,-2,-1,-1,0,0,0,-3
1480611269600509,1,0,1,0,-2,0,-1,1
1480611269611037,2,0,0,-1,-1,2,1,0
1480611269611037,0,-2,0,0,-1,-2,-1,0
1480611269612040,-3,0,0,-1,0,-2,1,-1
1480611269612040,-2,1,-2,0,0,0,0,-3
1480611269624073,1,0,-1,-1,-1,-2,-3,0
1480611269624073,-1,1,-3,-1,0,0,-2,0
1480611269624573,-2,-3,0,1,-1,-1,-2,0
1480611269624573,-1,-1,0,-1,-1,0,-1,0
1480611269654653,1,0,1,-1,-3,-1,-1,-2
1480611269654653,-2,0,-1,-1,-1,0,0,-2
1480611269655155,3,0,-2,0,2,0,0,0
1480611269655155,-1,-1,-1,0,-1,-1,0,1
1480611269657160,-3,-2,-2,-1,0,1,1,1
1480611269657160,-3,-1,-1,0,0,1,0,-2
1480611269683731,0,0,-1,-1,-1,-2,0,0
1480611269683731,-1,0,-2,-2,-1,-2,-2,0
1480611269699773,0,-1,-3,0,1,-2,1,0
1480611269699773,-1,-2,1,-1,0,-1,1,0
1480611269700275,-2,0,-1,-3,-2,-1,2,-2
1480611269700275,-1,-4,-1,-2,0,0,1,-2
1480611269702781,0,-2,0,1,0,1,-2,0
1480611269702781,0,0,1,2,-2,-2,-1,1
1480611269706291,0,2,2,1,-1,-2,-1,-1
1480611269706291,-1,0,0,0,0,0,-1,2
1480611269708296,-1,0,0,0,-1,-1,-2,-3
1480611269708296,1,-1,0,-1,1,0,-1,-1
1480611269745394,-2,0,-1,-3,-1,1,1,0
1480611269745394,2,-1,1,-2,-4,-3,-1,0
1480611269747400,0,-1,-1,0,-2,0,-1,0
1480611269747400,-2,-2,-3,-1,-1,-1,0,-2
1480611269747902,-2,1,0,1,0,-1,0,-2
1480611269747902,-2,0,0,0,0,-1,0,-1
1480611269751411,-1,1,0,0,0,-1,-1,-1
1480611269751411,1,-1,-3,0,0,-1,-1,-1
1480611269781491,-2,-1,-2,-1,-1,0,-1,-1
1480611269781491,-1,-1,-1,-2,1,0,-1,-2
1480611269790013,-1,-1,1,-1,0,-2,1,-1
1480611269790013,0,1,-1,-1,-1,0,0,1
1480611269790514,-1,-1,0,1,0,0,0,1
1480611269790514,0,-1,-1,0,1,1,-2,-1
1480611269792520,0,-2,-2,-2,-1,-1,-1,-1
1480611269792520,-1,-1,-1,-1,0,-1,0,-1
1480611269803549,-1,-2,-2,1,-2,-2,-1,1
1480611269803549,0,-1,-1,2,0,-1,-1,-1
1480611269827613,-5,0,-2,2,0,1,1,0
1480611269827613,3,0,-3,-1,-1,-2,1,-1
1480611269828616,1,-1,-1,-1,-1,-2,-4,-1
1480611269828616,-2,0,-1,-1,-3,-1,-1,-1
1480611269834131,1,-1,3,0,0,-1,-3,0
1480611269834131,-3,0,0,0,-1,0,0,1
1480611269848669,-2,-1,0,0,2,-1,0,1
1480611269848669,-3,-2,-2,-2,1,0,-1,0
1480611269879752,-3,-1,0,-1,-1,-1,0,-3
1480611269879752,-1,2,2,0,-2,0,0,-1
1480611269887773,1,-1,-2,-1,0,0,-1,-1
1480611269887773,0,-1,-1,0,-1,-2,-1,-1
1480611269889278,0,-1,-2,-1,-1,-2,-2,1
1480611269889278,-2,1,-1,-1,1,-2,-1,1
1480611269890281,-2,-1,-2,-1,-1,-2,1,-2
1480611269890281,0,1,-2,-1,-3,-2,1,0
1480611269894291,1,0,0,-1,0,-1,-1,0
1480611269894291,0,-1,0,1,-1,-1,-2,-2
1480611269924370,-2,1,0,-1,-1,0,0,-1
1480611269924370,-3,0,-1,1,0,0,-1,-1
1480611269933897,-1,0,-1,0,0,1,0,0
1480611269933897,1,-2,0,0,-1,-2,0,1
1480611269934397,1,0,0,1,0,0,1,0
1480611269934397,-1,-2,-2,0,-1,2,1,-1
1480611269937406,-2,0,-1,-1,-1,-1,-1,-1
1480611269937406,-1,0,0,0,0,0,-2,-1
1480611269946430,0,-1,-1,-2,0,-3,-3,1
1480611269946430,0,-1,-1,-1,-2,0,-1,-1
1480611269947933,1,-1,-1,0,0,0,0,0
1480611269947933,0,0,-1,0,-3,0,0,1
1480611269968989,1,0,-2,-1,0,1,-1,0
1480611269968989,0,-3,0,-2,0,1,0,0
1480611269970500,0,-1,-1,-2,-1,0,0,-3
1480611269970500,-3,-2,-1,-1,0,1,-1,-1
1480611269983528,-4,-1,2,0,-1,0,0,0
1480611269983528,1,3,1,-1,0,-1,0,0
1480611269990046,-1,-2,0,0,-1,-3,0,0
1480611269990046,0,1,-1,-1,0,-1,0,-1
1480611270021630,0,-2,-1,-2,-2,2,0,-2
1480611270021630,1,0,1,-1,0,0,-3,0
1480611270023134,-2,0,0,-1,2,0,1,0
1480611270023134,0,-1,0,-1,-1,-1,-1,-1
1480611270029150,-1,-2,0,-3,0,-1,-2,1
1480611270029150,-1,0,1,0,-2,-2,0,-1
1480611270030655,0,-1,-2,0,-2,2,-1,-1
1480611270030655,-1,1,-2,0,0,1,1,-1
1480611270058729,1,-1,-3,0,-1,0,0,-1
1480611270058729,0,-2,-1,-3,-1,-2,0,1
1480611270060733,-1,0,1,0,-2,-2,0,1
1480611270060733,-1,-2,0,-2,1,1,-1,-1
1480611270066750,-2,0,1,0,-1,1,0,-1
1480611270066750,-1,0,-2,0,0,1,-1,2
1480611270068254,1,-1,0,1,-1,-1,0,0
1480611270068254,-2,-4,-2,-2,0,-1,-2,0
1480611270088808,0,-1,0,1,0,0,0,0
1480611270088808,0,1,0,-2,0,0,-1,0
1480611270103347,-1,2,0,0,0,-1,1,0
1480611270103347,0,1,-2,-3,-3,-2,0,-1
1480611270103848,-2,0,2,0,-2,0,-2,0
1480611270103848,0,1,0,-1,0,-2,2,-1
1480611270117384,1,0,0,-1,-1,1,-3,0
1480611270117384,-1,-1,0,0,-1,0,0,0
1480611270126408,0,1,0,-3,-1,-1,-1,0
1480611270126408,-2,0,-1,0,0,1,-1,-2
1480611270127913,4,-2,-2,0,-3,0,-2,-1
1480611270127913,0,-3,-1,3,0,-4,1,-1
1480611270156488,0,0,0,-1,-3,-1,2,-1
1480611270156488,-2,-2,0,0,1,0,0,0
1480611270157992,0,0,-2,-2,1,-1,0,-1
1480611270157992,0,-1,1,1,0,1,-1,0
1480611270162506,1,-2,-2,0,-1,0,-1,-2
1480611270162506,0,-2,0,0,-2,1,-2,-1
1480611270172532,-3,0,0,-2,-4,2,-1,-1
1480611270172532,-1,1,0,-1,-1,0,-1,1
1480611270210633,0,1,0,-1,2,1,1,-1
1480611270210633,-2,-1,-1,-1,1,-1,1,-1
1480611270212136,1,0,1,-1,2,-2,-1,-2
1480611270212136,1,0,-1,-2,0,0,-4,0
1480611270213140,1,-1,-1,1,-1,-3,-3,-3
1480611270213140,1,-2,1,1,-2,-1,1,0
1480611270216648,0,-2,-4,-2,0,0,-1,-1
1480611270216648,-1,1,0,1,1,-3,0,1
1480611270222664,-1,0,-1,-2,0,-2,-1,0
1480611270222664,1,1,-1,0,-1,-1,0,-1
1480611270257259,-3,-1,0,1,-1,1,0,-1
1480611270257259,-1,-4,-1,-3,-1,0,-1,0
1480611270257758,0,-1,-1,-1,-1,0,0,-1
1480611270257758,-1,-2,-1,1,-1,0,-2,-1
1480611270260265,-2,-1,-1,0,-2,-1,-1,1
1480611270260265,-2,0,0,-2,-1,0,-1,-3
1480611270268787,1,1,-1,1,-1,-1,1,0
1480611270268787,-1,0,-1,-2,0,-1,0,-1
1480611270270792,-1,-1,-1,-2,-1,-2,0,0
1480611270270792,-3,0,0,2,0,-1,-1,0
1480611270298868,-3,-1,-1,-2,0,0,-1,-1
1480611270298868,0,1,-1,-1,-1,-1,-1,0
1480611270300371,-1,-2,-2,-2,-1,-1,-1,0
1480611270300371,0,-2,-1,1,0,0,2,0
1480611270306387,-1,-1,-1,-1,-1,-1,0,1
1480611270306387,-1,1,-4,1,1,-1,1,0
1480611270307891,-3,0,0,-2,1,1,-1,0
1480611270307891,1,0,0,0,-2,0,0,-3
1480611270344488,0,-3,-1,-1,0,-1,-1,-1
1480611270344488,-2,-2,0,-1,-1,-1,1,0
1480611270346497,0,0,1,0,-1,-1,0,0
1480611270346497,0,-1,0,-1,-1,0,-1,1
1480611270346996,0,0,-1,0,-1,-1,-1,-1
1480611270346996,-2,0,-2,-2,-3,-1,-1,0
1480611270351507,0,1,0,-1,0,2,-1,0
1480611270351507,0,-2,-1,-1,-2,1,-1,-1
1480611270366547,-1,-1,-2,0,-1,-1,0,-1
1480611270366547,0,-2,-1,-1,0,0,0,2
1480611270368051,-1,-1,-1,2,-1,1,-1,-1
1480611270368051,0,-1,0,-3,-2,-2,-1,0
1480611270389608,0,0,-2,-3,-3,0,-2,0
1480611270389608,0,1,-1,0,1,1,-1,0
1480611270391113,0,-1,0,0,-1,-3,-2,1
1480611270391113,-2,1,-1,-1,1,0,-1,-1
1480611270402644,-2,-1,3,2,1,1,0,0
1480611270402644,1,-2,0,-2,-1,-2,0,-1
1480611270427209,0,-1,0,0,-2,-1,0,-1
1480611270427209,1,-3,-3,0,0,0,-1,1
1480611270427710,-1,0,-1,-1,0,2,1,-1
1480611270427710,-1,0,1,2,0,1,-2,-1
1480611270429716,0,1,0,0,0,-1,-1,-1
1480611270429716,-3,1,0,-1,-1,-2,-2,0
1480611270449269,1,-2,1,-1,1,-1,-1,0
1480611270449269,-1,-2,-1,0,-1,-1,-1,-1
1480611270451274,0,-2,-2,0,1,1,0,-1
1480611270451274,0,0,0,-1,0,1,0,0
1480611270471827,1,-3,-2,-1,-1,-2,-1,2
1480611270471827,-1,0,0,-2,-1,1,-1,-2
1480611270474835,1,-3,-2,-1,-2,-1,0,2
1480611270474835,-2,0,0,-2,-1,0,1,-1
1480611270486366,0,1,-1,0,-1,-1,-2,-3
1480611270486366,0,0,0,1,-1,-2,1,1
1480611270488873,-2,0,1,-2,-1,-2,1,-1
1480611270488873,0,0,0,0,1,0,0,0
1480611270508926,0,0,0,0,0,-3,0,-1
1480611270508926,1,0,-1,-2,-1,-2,-1,0
1480611270515445,-1,-2,-2,-2,0,0,0,-1
1480611270515445,0,0,-1,-1,0,-2,1,0
1480611270531497,-1,2,0,0,0,-1,0,0
1480611270531497,-2,-1,0,-2,-1,2,-2,-1
1480611270532990,0,-1,-3,0,-1,0,-4,-1
1480611270532990,-3,-1,-1,1,1,1,-1,-1
1480611270546528,-2,-3,-2,1,1,0,-1,0
1480611270546528,-1,-1,-3,-2,0,-1,-1,0
1480611270548030,1,0,-1,0,0,-1,1,2
1480611270548030,2,0,-2,-2,0,-2,0,-2
1480611270568083,1,0,-1,-1,-1,1,0,1
1480611270568083,-2,-3,1,-1,-1,-2,-1,-1
1480611270584126,-1,1,0,-1,-1,0,0,0
1480611270584126,-1,-1,1,0,0,0,-1,1
1480611270591647,-2,0,-1,-2,-1,-1,0,0
1480611270591647,-1,-2,-1,0,1,0,0,-1
1480611270593151,2,-1,0,1,-1,-2,0,-3
1480611270593151,0,0,0,0,-3,0,-1,1
1480611270607187,-1,-2,-1,-2,-1,0,-1,-1
1480611270607187,0,0,-1,1,0,2,-1,-1
1480611270608691,-1,-1,0,-1,0,0,-2,0
1480611270608691,2,-1,-2,-2,-2,-1,-1,-1
1480611270628746,-2,0,-2,-1,-1,0,-2,-2
1480611270628746,2,1,0,1,-3,-1,-1,1
1480611270630751,0,0,0,-2,-1,-1,0,0
1480611270630751,1,-1,-1,0,-1,-1,0,-1
1480611270651304,0,0,0,0,-1,1,2,-1
1480611270651304,0,-1,-3,1,1,1,0,-2
1480611270659326,-1,0,0,-1,0,1,0,-1
1480611270659326,-3,-1,-2,0,-1,-2,0,-1
1480611270665843,0,-1,2,0,-1,-3,-3,-2
1480611270665843,-2,0,1,-1,1,-1,-2,-1
1480611270672360,-1,0,1,-1,0,-2,-2,0
1480611270672360,-1,0,1,0,-1,-2,1,1
1480611270711966,-1,-1,-2,0,-2,-1,1,0
1480611270711966,-1,-1,-1,-1,-1,0,1,0
1480611270713471,-2,1,-1,0,1,0,-1,0
1480611270713471,0,-1,-1,0,0,0,-3,-2
1480611270718985,-3,1,-1,0,0,1,-1,-2
1480611270718985,4,1,0,-2,-1,-1,-1,0
1480611270720489,-1,-2,-2,0,0,0,0,-1
1480611270720489,1,0,-1,1,-1,-1,1,-2
1480611270726004,1,0,1,2,2,1,-2,-1
1480611270726004,1,0,-4,-2,-1,0,0,1
1480611270732609,1,0,0,0,-2,-1,2,-1
1480611270732609,1,0,0,-2,0,-1,-2,1
1480611270749565,0,-2,-2,0,-1,-2,-1,-1
1480611270749565,-1,0,-2,0,-1,-1,-1,-1
1480611270751069,1,-2,-3,0,-1,-2,-2,1
1480611270751069,-2,0,0,1,-3,0,-1,0
1480611270771625,0,-3,1,0,-3,-1,1,1
1480611270771625,-2,0,1,0,-2,-1,1,1
1480611270773129,-1,0,-1,-1,0,2,-1,0
1480611270773129,-3,0,-1,0,2,3,1,-1
1480611270794185,1,-1,2,-2,-1,0,-1,1
1480611270794185,-4,-1,-1,-1,-1,-1,2,-1
1480611270809726,-2,-2,1,1,-3,-3,1,-2
1480611270809726,-1,0,-1,0,0,-1,-1,0
1480611270810227,-1,-1,1,-1,0,0,-1,-1
1480611270810227,-1,-2,1,0,0,0,1,-1
1480611270812233,2,-1,-2,0,0,-2,-2,2
1480611270812233,-1,-2,-3,0,1,0,0,0
1480611270840308,-1,0,-1,-1,-2,1,1,-1
1480611270840308,0,-1,-1,0,-1,0,-1,0
1480611270843817,-1,0,0,0,-2,0,-1,-1
1480611270843817,1,-3,0,-1,-2,0,0,0
1480611270846827,0,1,-2,-1,-1,-3,-1,0
1480611270846827,-1,-1,0,0,0,0,0,-1
1480611270852344,0,-2,0,-2,-1,-1,-1,-1
1480611270852344,0,-1,1,1,-1,-1,-1,-2
1480611270868884,-1,-3,-3,-2,0,-1,0,0
1480611270868884,0,1,-2,1,0,1,-4,-2
1480611270870388,-2,0,0,1,1,0,-1,0
1480611270870388,1,1,-3,0,-2,0,0,-2
1480611270890441,0,1,-3,-1,1,-2,-1,0
1480611270890441,0,-1,1,-2,-1,-1,-1,1
1480611270906483,1,-3,-2,0,-1,-1,1,-2
1480611270906483,0,-1,1,-1,0,0,-2,-1
1480611270907486,-4,-1,0,1,-1,-1,0,-1
1480611270907486,-1,-2,-1,-3,-2,-1,0,-1
1480611270912500,0,1,-1,-1,0,0,2,-1
1480611270912500,-1,0,-1,-2,-1,-2,-2,0
1480611270935561,-1,0,-1,-2,0,1,0,0
1480611270935561,-2,0,0,-2,-1,-1,0,-1
1480611270944084,0,-1,-1,0,1,1,-1,0
1480611270944084,1,1,-1,-1,-1,-1,1,0
1480611270951603,-1,-2,-1,-1,1,1,0,-1
1480611270951603,1,-1,-1,1,0,-3,0,-1
1480611270954110,-2,-2,-2,-2,-2,-1,-2,-2
1480611270954110,-1,0,-1,0,-1,0,-1,-2
1480611270965641,1,-1,2,1,-2,0,-2,1
1480611270965641,-2,-1,-1,0,-1,0,0,0
1480611270981684,0,-1,-1,-1,-1,-1,-1,1
1480611270981684,-2,-1,-1,-1,-1,2,1,2
1480611270988703,0,1,-2,0,-2,0,0,-1
1480611270988703,2,-1,1,0,1,-1,1,-2
1480611270995221,1,0,1,0,-2,1,-1,-1
1480611270995221,-2,-2,0,-2,1,0,-2,0
1480611271025299,-1,1,0,0,-2,1,0,1
1480611271025299,-2,-1,-1,1,-1,-2,2,0
1480611271035327,-4,0,-1,0,-1,0,0,0
1480611271035327,3,1,2,-2,-2,-3,1,0
1480611271035828,0,-1,-1,1,-1,-2,-1,-1
1480611271035828,-2,1,-2,-2,-1,-2,-1,0
1480611271041843,-2,1,-2,-1,2,-1,-1,-1
1480611271041843,0,-3,-2,1,0,0,-1,-2
1480611271048864,0,-1,-1,0,1,1,-2,-2
1480611271048864,0,-1,0,0,-2,0,-4,1
1480611271054878,0,-1,-1,1,0,0,2,-2
1480611271054878,-2,2,1,1,1,-1,-2,-1
1480611271070921,0,0,-1,-3,0,-1,0,-2
1480611271070921,2,-1,-2,-1,0,0,-2,-2
1480611271078943,-1,-2,-1,-3,-1,0,0,0
1480611271078943,-1,-1,-2,0,-2,-1,0,1
1480611271084958,-3,0,-1,1,-1,0,-1,-1
1480611271084958,-1,0,-1,-3,-1,-3,-1,2
1480611271093984,-3,-1,0,0,-1,-2,-1,-3
1480611271093984,-1,-1,1,-1,0,0,2,-2
1480611271109523,1,-1,0,-1,1,-1,0,1
1480611271109523,-3,-3,1,2,0,-1,0,-2
1480611271111028,1,-1,0,-2,-2,-2,-1,-1
1480611271111028,-1,-2,-1,0,0,0,-1,-1
1480611271131582,-2,-2,-1,0,0,-2,1,0
1480611271131582,0,-1,-2,0,1,0,1,-1
1480611271133087,-2,0,0,-2,-1,0,-1,0
1480611271133087,-1,-1,-1,-1,2,0,-1,-1
1480611271145620,0,-1,0,-1,-1,1,-2,0
1480611271145620,1,0,-1,1,0,-1,-1,-1
1480611271160158,0,0,0,-1,0,-2,0,0
1480611271160158,-2,-1,1,0,-1,-2,-1,-1
1480611271169182,1,-1,-2,1,-1,1,0,-1
1480611271169182,0,0,-1,0,-1,-1,1,-1
1480611271170687,-1,-1,0,-1,2,1,-3,-1
1480611271170687,-1,0,-2,0,0,-1,1,0
1480611271191240,-2,1,0,-1,-1,-2,-2,0
1480611271191240,-2,0,-2,0,1,3,1,0
1480611271193748,-1,-2,0,2,1,1,1,0
1480611271193748,1,-1,-1,0,-1,2,0,-1
1480611271221321,1,-1,0,0,-2,-4,0,-2
1480611271221321,-2,-2,-1,-1,-1,-1,0,2
1480611271223327,0,-1,-1,-2,-1,-1,-1,0
1480611271223327,0,1,0,1,1,-1,-2,-1
1480611271228842,-2,-1,-1,0,-2,-1,-1,0
1480611271228842,1,-1,-1,0,-2,1,-1,-2
1480611271230346,-1,-1,-2,0,-1,0,0,-1
1480611271230346,-3,-1,-1,-1,-1,0,0,0
1480611271258921,-3,0,-1,-2,0,-1,1,-2
1480611271258921,1,0,2,0,-1,-2,0,0
1480611271260427,-1,0,-1,-2,-2,0,0,-1
1480611271260427,2,-1,0,1,0,0,0,0
1480611271265007,1,-3,0,-1,0,-1,0,-2
1480611271265007,-1,0,0,0,0,-1,0,-1
1480611271273962,-1,1,-1,-1,0,0,0,-1
1480611271273962,-1,-3,-1,-1,-2,-2,-1,-2
1480611271289001,0,-2,1,0,1,1,0,-2
1480611271289001,-1,-3,1,-1,0,-1,-2,-1
1480611271290505,0,0,0,-1,0,-2,-2,0
1480611271290505,-1,0,0,-1,-1,-1,-3,-1
1480611271311561,-1,0,0,-2,-3,1,1,0
1480611271311561,1,0,0,0,-1,0,0,1
1480611271314068,-1,1,1,-1,0,-1,1,1
1480611271314068,1,0,-2,-2,-1,-2,-1,-1
1480611271325097,-1,0,-1,-1,1,-1,-1,0
1480611271325097,-1,1,1,-1,-1,-1,0,0
1480611271334121,-3,-1,-1,0,0,-1,1,0
1480611271334121,-2,1,-1,0,0,-1,2,0
1480611271349161,-1,-1,-2,1,-2,-1,-1,-2
1480611271349161,0,-2,-1,-1,-1,-1,-2,0
1480611271350666,-1,-2,2,0,1,0,-1,-1
1480611271350666,0,0,1,-1,1,0,-2,0
1480611271371220,1,-1,0,0,1,1,-1,0
1480611271371220,-2,0,1,0,-2,0,1,0
1480611271373225,-1,-1,0,-1,-1,-1,-1,-3
1480611271373225,0,0,1,0,-3,-1,-2,0
1480611271393780,-1,1,-2,0,0,-1,-1,1
1480611271393780,-1,-1,-2,1,1,0,1,-2
1480611271401802,1,-2,-1,1,-2,2,1,-2
1480611271401802,0,1,0,-2,-1,-2,1,-2
1480611271409321,1,-2,-1,0,2,0,-1,-1
1480611271409321,-2,-1,-1,-1,-2,0,-3,0
1480611271414836,0,-1,-1,-1,-2,-1,0,-1
1480611271414836,-3,-1,-1,-1,0,1,0,1
1480611271438900,-2,-2,-2,-2,-2,1,0,-1
1480611271438900,-2,-1,-1,-1,0,1,0,-1
1480611271440905,-1,1,-1,2,0,-1,2,-1
1480611271440905,-1,-1,-1,0,-2,-1,0,0
1480611271453940,-2,1,1,-2,1,-3,-1,-1
1480611271453940,-2,-1,-1,-3,-2,-1,-2,0
1480611271459957,1,-2,0,-1,-2,-2,-2,1
1480611271459957,1,0,0,1,0,-1,1,-1
1480611271468981,-1,2,0,0,-1,-1,0,0
1480611271468981,0,1,-1,0,0,0,-1,-1
1480611271470484,1,-1,-1,0,0,0,-4,0
1480611271470484,0,-2,-3,1,-1,-2,-1,-1
1480611271491540,0,-3,-1,-3,0,-2,0,-1
1480611271491540,-1,-1,-1,-1,0,-2,-1,1
1480611271493044,1,0,1,0,-3,0,0,1
1480611271493044,0,-2,-3,-1,-1,0,1,0
1480611271514101,0,-2,0,1,-1,0,-1,0
1480611271514101,1,-2,-1,-1,-1,-2,-1,-1
1480611271515604,-1,-1,0,1,-2,-1,2,0
1480611271515604,-4,-1,1,0,-1,-1,-1,-2
1480611271529141,2,0,-2,0,-2,0,-2,-1
1480611271529141,-1,0,-2,-2,1,-1,-1,-2
1480611271535156,0,-1,0,0,2,1,-1,-1
1480611271535156,0,1,-1,-1,0,2,0,-1
1480611271551700,0,2,-1,-1,0,-1,-1,1
1480611271551700,0,-1,0,-1,-1,-1,-2,0
1480611271553203,-1,-1,-1,-1,-1,0,-1,0
1480611271553203,-1,-1,1,-2,-2,-3,-1,1
1480611271587796,-2,-2,0,0,0,1,0,0
1480611271587796,2,0,0,2,-2,-1,0,-2
1480611271598325,0,-1,-2,0,1,-3,0,-1
1480611271598325,1,-3,-1,-1,1,1,-2,0
1480611271599327,0,0,1,2,-1,-1,0,-1
1480611271599327,-2,-1,-2,-1,-1,0,0,0
1480611271602836,-2,0,0,-1,0,-1,0,0
1480611271602836,-1,1,-1,-2,-3,-1,-1,-2
1480611271618878,-3,-1,0,1,1,1,-1,-1
1480611271618878,1,-1,0,-1,0,0,-2,0
1480611271620383,-2,0,-2,-2,0,-1,-2,1
1480611271620383,0,0,-2,-2,0,0,0,0
1480611271633919,3,1,-3,-3,-2,-1,0,-1
1480611271633919,1,-2,0,2,0,0,1,-2
1480611271639935,-1,-1,0,-1,-1,0,-2,-1
1480611271639935,-2,1,1,0,0,0,0,-2
1480611271648458,-2,-1,-1,1,-1,1,-1,-1
1480611271648458,-2,0,-1,1,0,0,0,-1
1480611271654974,0,0,0,0,0,0,0,-1
1480611271654974,-2,-3,-2,-1,-1,-1,0,0
1480611271673023,0,0,-1,-1,-1,-1,-1,0
1480611271673023,1,-1,-2,-3,-1,-2,-2,-2
1480611271674527,-1,0,-1,-1,1,0,-3,-1
1480611271674527,0,-2,-2,1,0,-1,-1,1
1480611271694079,0,-1,-1,2,1,-2,2,0
1480611271694079,-4,0,-1,0,-1,2,2,1
1480611271695584,0,-2,1,-1,-2,0,1,-1
1480611271695584,2,1,0,-2,0,-2,0,-1
1480611271732681,1,-1,0,0,-2,-2,-2,-1
1480611271732681,0,0,2,0,-2,-1,-1,-1
1480611271734185,1,-1,-2,-1,0,-1,0,-1
1480611271734185,0,0,0,1,-1,1,-1,-1
1480611271735188,0,0,-2,-1,0,-2,0,-1
1480611271735188,-2,-1,-2,-1,-1,-2,-2,0
1480611271739199,-2,-1,0,-1,-1,-1,-1,-1
1480611271739199,-2,-3,-2,0,0,-1,-3,-2
1480611271755241,-1,0,-1,0,-2,1,-2,-1
1480611271755241,1,-2,-1,1,1,0,0,0
1480611271756746,0,2,1,-2,-1,-3,0,-1
1480611271756746,-3,-3,-1,-1,0,-1,0,-1
1480611271768279,-1,-2,0,0,0,0,-1,0
1480611271768279,1,-1,-2,-2,2,-1,1,2
1480611271774793,4,0,0,-1,-2,0,0,7
1480611271774793,-10,0,1,1,0,-2,-1,-7
1480611271798857,0,0,1,-1,0,-2,0,-1
1480611271798857,0,-2,0,0,1,-2,-3,0
1480611271800361,0,-2,-2,-2,-3,0,1,1
1480611271800361,1,1,-1,0,-2,0,-1,2
1480611271821417,-4,1,0,1,-2,-1,0,-2
1480611271821417,-1,0,1,1,0,-1,-1,-1
1480611271822922,-1,-2,-1,-1,-2,0,-2,-3
1480611271822922,3,-3,-2,0,-2,0,0,1
1480611271828436,0,-1,1,-2,-1,0,0,0
1480611271828436,-1,1,-1,0,-1,0,0,0
1480611271834954,-3,1,0,1,-1,2,-1,-2
1480611271834954,-1,2,0,0,1,-1,1,1
1480611271852501,1,-2,-2,-6,-1,-2,-1,3
1480611271852501,1,-2,0,-1,0,-2,-1,-2
1480611271857515,-1,-2,-2,-1,-1,-1,-2,-4
1480611271857515,2,0,1,0,0,1,-2,1
1480611271874058,-1,0,3,-1,0,2,1,-1
1480611271874058,3,-2,-3,-2,-2,1,0,0
1480611271877567,-3,0,0,2,0,-1,0,-1
1480611271877567,1,1,-1,-1,0,-3,-1,1
1480611271887593,0,0,-3,-1,-2,-3,-2,-1
1480611271887593,-2,-1,0,-1,-2,0,0,0
1480611271904138,-1,-1,-2,1,0,0,-1,-2
1480611271904138,0,-2,-1,0,-1,0,1,1
1480611271911156,0,-1,1,0,1,0,0,-6
1480611271911156,0,0,-1,0,1,0,0,0
1480611271917674,2,1,-1,-1,0,-2,-4,-10
1480611271917674,-2,-1,-1,0,0,1,0,-2
1480611271933716,0,0,-1,-3,-1,1,-3,-2
1480611271933716,1,0,1,0,0,1,1,-7
1480611271935721,-1,-1,0,0,1,-1,2,10
1480611271935721,-1,1,-1,-2,-1,-2,0,-2
1480611271948254,-4,-1,-2,1,-1,0,-1,-2
1480611271948254,-4,-3,-2,-1,-2,1,0,-6
1480611271956777,0,-5,-3,-1,-1,-2,0,0
1480611271956777,0,0,0,1,2,-1,-1,1
1480611271971317,-2,-1,-1,0,-1,0,0,3
1480611271971317,3,1,0,-1,-1,-1,-1,4
1480611271972821,-3,0,0,-2,0,-1,1,-1
1480611271972821,0,0,0,0,0,1,0,-1
1480611271994377,-2,-4,-2,-2,-2,-2,-1,0
1480611271994377,-2,-1,-2,-1,0,0,-1,1
1480611271995883,1,1,0,-1,-2,-1,0,-1
1480611271995883,0,-3,-2,-2,-1,-2,0,0
1480611272016938,-2,0,1,0,1,-2,-1,2
1480611272016938,0,0,-2,-1,-2,0,-1,0
1480611272019444,0,-2,-1,-1,0,1,-2,1
1480611272019444,0,1,0,-3,-4,0,-2,-1
1480611272038996,2,2,0,3,0,0,0,-1
1480611272038996,0,0,0,-1,0,-1,-1,0
1480611272045013,0,0,-1,1,-1,1,-1,0
1480611272045013,1,-1,-2,-3,-1,-1,0,-1
1480611272061557,-1,0,-1,0,0,2,0,1
1480611272061557,-1,0,2,0,-1,-2,0,0
1480611272063063,0,0,0,-1,1,-1,0,-3
1480611272063063,2,-4,-1,1,0,0,-1,-1
1480611272067573,-3,1,-1,0,0,0,1,0
1480611272067573,-1,0,-1,-2,-1,-2,-1,1
1480611272077600,1,0,-1,2,2,0,0,-1
1480611272077600,-3,-5,-4,0,-2,-3,0,1
1480611272091136,-2,-6,-2,0,2,0,0,-1
1480611272091136,1,0,-1,-3,-2,-1,0,0
1480611272105173,5,0,0,-4,-1,0,0,0
1480611272105173,-10,-1,0,-1,0,-1,1,-3
1480611272114196,0,-3,-1,0,-3,-1,-4,0
1480611272114196,-3,0,-2,0,1,0,0,1
1480611272115700,-2,0,-1,-1,-2,-1,-1,-1
1480611272115700,3,1,0,3,0,1,0,-2
1480611272136255,2,0,1,-3,-2,-1,-1,1
1480611272136255,-2,-2,0,-2,-1,1,-2,-1
1480611272138262,0,0,1,1,0,-1,-2,0
1480611272138262,0,0,1,1,-1,1,0,1
1480611272151296,0,-2,0,0,0,1,-1,0
1480611272151296,2,0,2,1,0,1,-1,0
1480611272153301,-5,-2,-1,-1,0,1,1,-1
1480611272153301,0,0,-3,-3,-2,-2,-2,0
1480611272173855,0,0,0,0,1,-2,-3,-2
1480611272173855,-2,-2,0,-1,0,-1,0,-1
1480611272181375,-3,-3,-2,0,-1,-1,1,0
1480611272181375,2,-1,1,0,0,0,-1,-2
1480611272187892,1,2,0,-2,-3,-2,0,2
1480611272187892,-2,-1,0,1,1,0,0,1
1480611272197418,0,2,-1,0,0,-1,0,0
1480611272197418,1,0,0,0,-1,-2,-1,1
1480611272211455,0,-1,-1,0,-1,-2,0,-1
1480611272211455,-2,-1,-2,1,0,0,-1,0
1480611272212964,-1,-1,1,-2,0,0,-4,-1
1480611272212964,0,-3,0,0,-1,0,1,0
1480611272242538,-2,-1,0,-2,0,1,-1,-1
1480611272242538,0,-1,-1,-1,-1,1,-1,0
1480611272248053,-4,-1,-2,0,-1,1,1,0
1480611272248053,-2,-1,-4,-2,0,0,0,0
1480611272249055,-1,3,-1,0,-1,-1,0,-2
1480611272249055,-2,-1,0,-1,0,-1,0,-2
1480611272256576,1,-1,0,-1,0,-1,-2,0
1480611272256576,2,1,0,-2,-3,-1,0,-2
1480611272271615,0,-1,-1,-1,-2,-1,0,1
1480611272271615,-1,0,-3,1,-1,-1,-2,-1
1480611272273126,1,-1,-3,0,-2,-2,-1,-1
1480611272273126,-2,-2,2,1,2,0,-1,0
1480611272294175,-2,-1,0,1,0,-1,-1,-2
1480611272294175,-2,-1,0,-1,-2,-2,0,0
1480611272295680,-2,-1,0,-2,1,-3,1,-1
1480611272295680,1,0,0,0,0,1,1,0
1480611272316234,-3,-1,-1,-1,0,-2,-1,-1
1480611272316234,-1,-1,0,1,-1,-1,-1,-2
1480611272318239,-1,-1,1,0,-1,0,-1,-1
1480611272318239,1,-1,0,-2,0,0,1,0
1480611272331275,3,0,-2,0,-3,-1,-1,1
1480611272331275,-2,0,-1,-1,0,-1,-2,0
1480611272337791,-1,0,-1,-1,0,-1,-1,-2
1480611272337791,-1,1,-1,-1,1,0,-3,-1
1480611272353833,-2,-1,1,0,0,1,-1,2
1480611272353833,0,-1,-1,0,0,-2,-1,-1
1480611272376895,-1,0,0,1,0,1,0,0
1480611272376895,-2,-1,-1,0,0,-2,-2,-3
1480611272377899,-1,-1,1,0,0,0,3,0
1480611272377899,0,0,-2,-1,0,0,-1,1
1480611272379402,2,-1,-2,-4,-2,-4,-1,1
1480611272379402,-2,1,0,-1,0,-2,-1,-2
1480611272391434,0,0,0,1,-2,-2,-2,0
1480611272391434,1,0,-2,1,-1,0,3,0
1480611272394944,0,-1,-1,0,-3,-2,-1,-2
1480611272394944,0,-1,-1,-1,-2,0,0,-2
1480611272414496,0,0,-1,1,0,-1,-1,-1
1480611272414496,-3,1,-1,-2,-2,0,-1,-1
1480611272417002,0,0,-1,0,-2,0,-1,2
1480611272417002,-1,-3,-3,-1,0,0,1,0
1480611272436554,0,-3,0,-1,0,1,0,-1
1480611272436554,1,0,1,-2,-1,-2,-1,0
1480611272438058,-1,-2,1,0,1,0,1,-1
1480611272438058,1,0,0,1,-1,-1,-1,0
1480611272451595,-2,-1,-2,0,-2,1,1,-2
1480611272451595,-2,-2,-3,0,0,0,0,-1
1480611272476160,-1,0,1,1,-1,0,-1,-2
1480611272476160,-2,0,0,-2,-1,0,-1,1
1480611272478165,-1,-1,-2,-2,0,-1,0,-1
1480611272478165,2,0,-2,-1,-1,-3,-4,1
1480611272481173,-1,-1,-1,-3,-1,-1,0,-1
1480611272481173,0,1,-2,0,1,-2,-1,0
1480611272497717,1,1,0,0,2,0,0,-1
1480611272497717,-2,-1,-2,-3,-1,0,0,-1
1480611272512760,-1,-1,-2,0,0,-2,-2,0
1480611272512760,-2,-1,1,0,-2,0,-1,0
1480611272513261,0,-1,1,-1,-2,0,-1,0
1480611272513261,-1,-2,-1,2,0,0,-2,-2
1480611272517770,-1,-1,-1,1,-1,-1,0,1
1480611272517770,-3,-1,-2,0,-1,2,0,-1
1480611272533813,0,-2,-2,-1,0,-2,0,-1
1480611272533813,-2,0,3,1,-1,0,0,-1
1480611272535317,-1,2,-3,-2,1,-1,-2,2
1480611272535317,0,-1,1,0,1,-2,0,-2
1480611272564396,2,-3,-2,-1,0,0,-1,0
1480611272564396,2,3,0,-3,0,-1,0,0
1480611272571413,-1,-1,0,-1,2,0,-1,0
1480611272571413,1,0,0,1,0,-1,0,0
1480611272572415,-1,2,1,-2,0,1,-1,-2
1480611272572415,0,-3,0,-2,-1,-1,0,-2
1480611272577430,0,0,-3,-2,-1,0,0,-2
1480611272577430,0,-1,1,-1,0,-2,-1,0
1480611272594474,0,-1,-2,0,-1,0,0,-3
1480611272594474,-1,0,-1,-1,-2,0,6,0
1480611272595979,-1,1,2,1,-3,0,-4,-4
1480611272595979,-3,-3,-3,-3,-2,1,0,0
1480611272616533,0,0,1,0,-2,-1,0,1
1480611272616533,0,-1,-3,-2,-1,-1,0,-2
1480611272618037,0,0,0,-1,0,-1,1,0
1480611272618037,2,2,-1,-1,0,0,0,0
1480611272630570,-2,-1,-1,0,1,0,-1,0
1480611272630570,-1,-2,-2,-2,1,-2,-3,-1
1480611272637589,0,-3,-1,-1,0,-1,2,-1
1480611272637589,-1,0,-3,-1,-1,0,-1,-1
1480611272654133,-1,-4,-1,0,-2,1,0,-1
1480611272654133,1,-1,1,0,0,0,-3,1
1480611272655637,0,1,0,0,0,-2,-1,0
1480611272655637,1,0,0,-1,-1,-3,0,-2
1480611272676191,-1,0,-1,-2,0,-3,0,0
1480611272676191,-1,1,-1,2,1,0,-2,0
1480611272678197,-3,0,0,1,0,0,-2,-1
1480611272678197,3,-1,0,-1,-1,0,0,0
1480611272691232,0,0,-1,1,0,-1,-2,-1
1480611272691232,0,-2,1,0,-1,-1,-1,0
1480611272697749,0,1,0,-1,-1,0,2,0
1480611272697749,-4,-3,-3,-2,-1,-1,-2,-2
1480611272713791,-3,0,0,-2,-1,0,-2,0
1480611272713791,-2,-1,-3,2,0,-1,-2,-2
1480611272715296,-2,-1,-1,0,-1,-1,-1,1
1480611272715296,-1,1,-2,0,1,0,-1,0
1480611272736352,0,-2,-1,1,-1,1,0,0
1480611272736352,0,-2,0,0,-1,0,0,1
1480611272737857,-1,-4,-1,-1,0,0,1,-1
1480611272737857,-1,0,0,1,-2,-1,-1,1
1480611272751391,-4,0,-2,-2,-1,-2,-1,0
1480611272751391,5,1,-1,-1,1,0,0,1
1480611272775455,0,-2,-1,-3,-2,0,1,-1
1480611272775455,-1,-2,-1,-1,2,-1,0,-1
1480611272776458,-1,-1,1,0,0,-1,2,0
1480611272776458,-1,0,0,-2,-1,1,-2,-1
1480611272777962,0,0,-2,-2,0,-1,-1,-1
1480611272777962,0,0,1,-1,0,0,-1,-1
1480611272795510,-1,2,-1,-1,0,0,-1,-1
1480611272795510,-1,-2,-2,0,0,-1,-2,-1
1480611272829603,0,0,-1,1,-2,-1,1,1
1480611272829603,-1,0,1,1,-2,0,0,0
1480611272830603,1,-1,0,0,0,-1,0,0
1480611272830603,-2,0,2,-2,1,0,1,-1
1480611272842133,0,-1,-1,0,-1,-1,0,-1
1480611272842133,-3,-1,-2,-2,-1,-1,-2,-2
1480611272842635,3,-2,-1,0,-2,1,-1,0
1480611272842635,-3,-1,-2,0,-3,-2,0,-2
1480611272844640,0,-2,-2,-1,0,-2,-2,-1
1480611272844640,0,0,0,-1,-1,1,-1,0
1480611272864191,1,0,-3,-2,0,-2,-2,1
1480611272864191,-1,0,-3,-1,-1,-1,1,2
1480611272865696,0,-1,1,-3,1,1,1,-1
1480611272865696,1,-1,1,-2,2,-1,0,-1
1480611272870208,-2,0,0,0,-1,-1,-2,-1
1480611272870208,1,-1,-1,0,-2,-1,0,1
1480611272879232,2,1,0,1,-3,-1,-1,1
1480611272879232,-2,-1,0,-2,1,-2,-1,-2
1480611272893771,-3,-2,-1,-2,0,-2,-1,-1
1480611272893771,-1,0,-2,-4,1,-3,-1,-1
1480611272895776,-1,-1,-1,0,-1,-1,-2,-1
1480611272895776,-2,0,-2,-1,0,2,0,-1
1480611272924853,-2,0,-2,-1,-1,-1,0,-1
1480611272924853,3,1,1,2,-1,0,-1,-1
1480611272930870,-1,-1,-3,1,2,0,-1,0
1480611272930870,1,-2,0,-2,-3,-2,0,0
1480611272931371,1,-1,0,-2,-1,-2,-1,-2
1480611272931371,-2,-2,0,-2,0,0,-1,0
1480611272939392,-1,-1,-2,1,1,0,0,0
1480611272939392,-2,-2,0,0,0,0,-1,0
1480611272968970,-2,-1,1,1,-1,0,0,1
1480611272968970,-2,0,0,-2,0,-1,-1,0
1480611272970474,-1,0,1,0,0,-2,-2,0
1480611272970474,-1,-3,-2,0,-2,1,-2,0
1480611272976490,0,-1,-1,-1,-1,1,-1,-1
1480611272976490,-1,-2,-1,1,-1,0,-2,-1
1480611272977995,-2,0,0,0,-1,1,-1,0
1480611272977995,0,-1,1,0,-1,-1,1,-1
1480611272990027,0,2,1,1,0,-2,1,-1
1480611272990027,-1,1,0,-1,-1,-1,1,-1
1480611273021109,-2,-1,0,-2,1,-1,-1,-1
1480611273021109,1,-1,-2,1,-1,-2,-1,0
1480611273022112,1,-1,0,1,-1,-2,-2,1
1480611273022112,-3,-2,0,-1,1,-3,0,-1
1480611273029132,-2,1,1,-2,0,1,-1,0
1480611273029132,-1,1,0,-2,-2,-2,0,-1
1480611273043669,-1,-1,-1,0,2,-1,0,-1
1480611273043669,1,-1,0,-2,-3,0,-2,1
1480611273045676,1,-1,-1,-1,-2,-2,1,-2
1480611273045676,-2,0,-1,1,1,1,0,0
1480611273050688,-3,0,3,-2,0,0,2,1
1480611273050688,0,0,-3,-2,-3,0,-2,1
1480611273059211,-2,-2,-2,0,1,1,-1,0
1480611273059211,4,0,-1,1,-1,-1,0,-1
1480611273088789,0,0,1,2,0,0,-1,-2
1480611273088789,-1,0,0,0,1,1,0,0
1480611273090294,1,0,0,-2,-3,-2,0,1
1480611273090294,-2,0,-1,-1,0,-2,0,-1
1480611273103829,1,-2,1,-2,-1,0,0,-1
1480611273103829,-2,0,1,0,0,0,0,0
1480611273112353,-1,0,0,0,1,0,0,-1
1480611273112353,-2,2,1,-1,0,0,-1,0
1480611273113358,-1,1,-2,-1,-1,-1,-1,-1
1480611273113358,1,-1,1,1,0,0,0,-1
1480611273119371,1,-2,2,-1,0,-1,0,-3
1480611273119371,-2,0,-1,-3,-1,-2,-2,1
1480611273133909,0,-1,-1,0,1,0,0,-1
1480611273133909,0,-1,-1,0,-1,0,-1,-1
1480611273135413,1,-1,1,-1,0,0,-1,-4
1480611273135413,-2,-1,-1,-1,1,0,-1,-1
1480611273172512,1,-2,-2,-1,-1,0,-1,0
1480611273172512,0,0,0,-2,-1,-1,0,0
1480611273174016,-1,-2,-4,-1,-1,-2,1,0
1480611273174016,1,0,0,-2,1,1,-2,-1
1480611273175019,0,-1,-2,0,-2,0,-3,0
1480611273175019,-2,-2,-1,0,-1,0,-1,-1
1480611273179534,0,2,1,1,-2,1,-1,-1
1480611273179534,0,0,-2,1,-2,0,0,-1
1480611273201089,0,-2,0,-1,-1,-1,0,0
1480611273201089,0,-2,-1,0,0,0,-1,0
1480611273207605,-2,2,1,0,0,-1,-1,2
1480611273207605,-1,1,-1,-2,1,-2,1,0
1480611273215627,-2,2,0,-1,1,-1,1,-2
1480611273215627,-1,0,0,0,2,0,-1,-2
1480611273224149,-1,-3,-2,-1,-1,-1,-1,0
1480611273224149,4,-3,0,1,-1,-1,-1,1
1480611273230166,-3,-1,-2,-3,-2,-1,-2,-1
1480611273230166,-1,0,0,1,-1,0,0,-2
1480611273257238,-2,0,-1,-2,0,0,-1,0
1480611273257238,-1,0,-1,0,0,1,1,-1
1480611273258742,-1,0,-2,0,-1,-1,-1,-2
1480611273258742,1,-2,1,1,1,-1,-1,0
1480611273263755,0,-1,0,0,-2,0,-1,-1
1480611273263755,0,-2,-1,-1,-1,0,0,-2
1480611273276288,-2,-1,-2,-1,0,0,0,0
1480611273276288,-3,0,0,-1,-2,-1,-1,1
1480611273278294,-2,-2,-1,0,1,-3,-1,-2
1480611273278294,1,1,1,-2,1,0,0,2
1480611273298915,-1,-1,-1,-1,0,0,-1,-2
1480611273298915,-2,1,-2,-1,0,-3,0,0
1480611273300352,1,1,-1,0,-1,-1,0,-1
1480611273300352,0,-1,-2,-1,0,-1,-1,-1
1480611273313889,1,0,1,2,0,-2,0,0
1480611273313889,1,-1,-1,0,1,-3,0,-2
1480611273315392,-2,0,0,0,0,0,0,-1
1480611273315392,-2,-2,-1,0,0,0,-1,-2
1480611273343968,-1,-1,0,-3,-1,0,0,1
1480611273343968,-1,-1,-1,-3,0,1,1,-1
1480611273345473,1,0,-1,0,0,2,1,-1
1480611273345473,-1,-1,2,0,-1,0,0,0
1480611273359009,2,-1,-1,-2,-3,-3,-1,-1
1480611273359009,1,0,-1,1,-2,0,0,1
1480611273360513,1,0,-2,-2,0,1,-1,0
1480611273360513,-2,0,0,-1,-1,-1,-2,-2
1480611273374048,-2,-1,-2,-1,1,-1,1,0
1480611273374048,-1,1,-1,0,-3,-1,0,-2
1480611273387584,0,-1,-1,-1,0,-1,0,1
1480611273387584,-1,0,-1,-3,-3,-2,-2,0
1480611273396609,1,0,2,-1,-1,-1,-2,-1
1480611273396609,-2,-1,0,0,2,0,-1,1
1480611273398116,0,2,3,0,1,0,1,0
1480611273398116,0,-1,-2,-1,-2,-1,0,1
1480611273418165,-1,1,0,1,-1,1,0,-1
1480611273418165,-2,-1,-1,0,0,0,-1,-1
1480611273426689,-1,0,-3,-1,-2,-3,0,0
1480611273426689,-1,2,-1,0,1,0,-1,-1
1480611273434208,-2,-2,-1,1,-3,-2,-1,0
1480611273434208,0,-1,2,3,0,-2,-1,0
1480611273435712,1,-2,-1,-4,-2,0,0,-2
1480611273435712,0,-1,-2,-1,-1,-3,0,-1
1480611273456267,-1,0,-1,0,2,0,0,-1
1480611273456267,1,0,-1,-2,-2,-1,0,0
1480611273459275,0,-2,2,0,-1,1,-1,0
1480611273459275,0,-2,1,2,-2,2,-1,-1
1480611273495372,1,1,0,2,-1,0,-3,-1
1480611273495372,-1,-1,1,0,2,0,-1,-1
1480611273496875,-1,-2,-2,-2,0,-2,-1,-1
1480611273496875,-1,-1,-1,0,0,-1,0,-2
1480611273497878,0,1,-3,-1,-2,0,-1,-1
1480611273497878,1,0,-3,-2,-2,0,2,-1
1480611273501387,0,-1,-1,0,-2,-1,1,1
1480611273501387,0,1,-1,1,2,1,0,1
1480611273531468,1,-1,1,1,0,1,0,-1
1480611273531468,0,1,0,-2,-1,1,-1,-1
1480611273532971,-2,-3,0,2,0,-2,-2,-1
1480611273532971,-3,-2,-2,1,0,-1,-1,0
1480611273547008,0,-2,0,-2,0,-1,-1,-1
1480611273547008,0,-2,-1,-1,-3,-1,-1,-1
1480611273554528,-2,-1,1,1,-1,3,-1,-1
1480611273554528,0,-1,1,0,-2,0,-1,0
1480611273555531,-2,0,-2,-2,-1,-1,0,2
1480611273555531,0,0,-1,-1,-1,0,1,-1
1480611273560043,1,1,-3,1,1,-2,-1,-1
1480611273560043,-2,0,-1,0,1,-3,0,1
1480611273576085,-1,-1,-2,0,0,0,0,1
1480611273576085,0,-2,-1,0,-1,0,-1,0
1480611273584107,0,0,0,-4,-1,0,-2,1
1480611273584107,1,-1,1,0,-2,1,0,0
1480611273599150,-1,-3,-2,0,-1,1,-1,-2
1480611273599150,0,2,-1,0,-1,-1,-2,-1
1480611273600651,0,1,-3,-1,-1,-1,-1,-1
1480611273600651,-1,-1,0,0,-1,-1,-1,-1
1480611273621206,-2,-1,1,-1,-1,-1,0,1
1480611273621206,-1,-2,-4,-2,-2,-1,0,-1
1480611273623212,0,-3,-1,1,0,0,1,-1
1480611273623212,-1,-1,-2,-1,-2,-2,0,0
1480611273636245,0,1,-1,1,0,-1,1,-1
1480611273636245,-1,-2,-1,1,-3,-1,0,0
1480611273642763,0,1,0,1,1,1,-3,1
1480611273642763,-1,-1,0,-1,-1,-1,-2,-1
1480611273658806,0,-2,2,1,-1,0,0,0
1480611273658806,1,-2,0,-2,-1,-1,0,1
1480611273660309,0,0,0,-1,-2,-2,0,1
1480611273660309,0,0,-1,-1,0,2,-1,-3
1480611273673345,-1,0,-1,-2,1,0,-1,0
1480611273673345,-2,2,-1,0,-2,0,0,0
1480611273680363,-2,0,-4,0,0,-1,0,0
1480611273680363,0,-1,-3,0,0,-2,0,1
1480611273696406,0,-2,0,-2,-1,-3,-1,-2
1480611273696406,-3,-1,0,1,1,2,0,-1
1480611273697910,1,-1,1,-1,-1,0,-2,0
1480611273697910,-2,1,1,0,-2,-2,-1,-1
1480611273718966,0,0,-1,-2,-2,-2,0,-1
1480611273718966,0,0,1,-1,-1,-2,-1,-1
1480611273720469,-2,-3,1,0,-1,-1,-1,-2
1480611273720469,0,-1,0,-2,0,1,-2,0
1480611273734005,2,-1,-1,-2,2,-1,-1,-1
1480611273734005,-1,1,-2,-1,1,-1,-1,1
1480611273763084,0,0,0,0,0,-2,0,-1
1480611273763084,-3,-2,0,0,1,1,1,-1
1480611273771606,-3,-1,-1,0,0,-1,1,0
1480611273771606,1,-2,0,0,1,-1,-1,-2
1480611273773112,-1,-1,-3,-2,-3,-2,-3,-1
1480611273773112,-1,0,0,-1,-3,-2,-1,-2
1480611273779126,3,0,-2,0,-1,-1,-1,0
1480611273779126,1,0,0,0,1,-1,-1,1
1480611273780630,-2,0,-1,1,-1,0,-1,1
1480611273780630,0,0,-1,1,-1,-2,1,-1
1480611273816224,-2,0,0,-1,-2,0,-1,0
1480611273816224,0,0,-2,-2,-1,0,1,-1
1480611273826252,1,0,-2,-1,0,0,1,0
1480611273826252,0,-2,-1,0,1,0,1,0
1480611273826753,-2,1,0,2,-1,-1,-1,-2
1480611273826753,-1,2,-1,-1,0,0,-3,0
1480611273845302,-2,-2,1,0,1,2,0,-1
1480611273845302,-1,0,0,0,1,-1,0,-1
1480611273852822,-2,-1,-3,0,-1,-1,1,0
1480611273852822,-1,-1,-2,-2,0,-2,-1,-2
1480611273865858,-3,-1,-1,0,-1,0,2,0
1480611273865858,4,-1,0,0,-2,0,-2,2
1480611273867864,-2,-2,0,-1,-1,1,0,0
1480611273867864,-3,-4,0,-1,1,-1,1,-3
1480611273870369,1,1,0,-3,-1,1,-1,-1
1480611273870369,-1,-1,0,-2,0,-1,1,-1
1480611273876384,1,0,0,-2,1,1,-1,2
1480611273876384,0,-1,-2,1,0,-1,-2,0
1480611273877889,1,0,1,0,1,-1,1,-1
1480611273877889,-1,0,0,-1,-3,0,-1,-1
1480611273898946,1,1,-2,-1,-2,0,0,0
1480611273898946,-1,0,1,1,-1,1,1,0
1480611273900448,2,0,-2,-1,-1,-3,-2,-1
1480611273900448,-2,0,1,-1,0,1,-1,0
1480611273912481,-1,-1,-3,-2,-1,-3,-1,-2
1480611273912481,0,-1,1,0,0,-1,-1,0
1480611273921504,-1,-2,2,0,-2,0,-1,0
1480611273921504,-1,-1,-2,0,-2,-1,-2,0
1480611273937045,-3,-1,-1,1,0,3,0,0
1480611273937045,1,0,-2,-2,-1,1,1,-2
1480611273938550,1,1,-2,0,1,-2,-1,-2
1480611273938550,1,1,-1,-2,0,-1,1,-1
1480611273960107,-2,-3,1,0,1,-3,0,-2
1480611273960107,-1,-1,-3,0,-2,0,0,0
1480611273962614,-3,-2,1,-1,-1,-3,-1,0
1480611273962614,-4,0,0,-1,0,-1,-1,-1
1480611273981665,-1,-1,0,0,1,0,-3,-2
1480611273981665,0,-1,-2,-3,-1,-2,0,0
1480611273983170,-1,1,-1,-1,-2,0,0,0
1480611273983170,1,-2,-2,0,-1,-1,0,-2
1480611273996203,0,0,-1,-2,-2,1,0,-1
1480611273996203,-2,-2,0,1,1,0,-1,-2
1480611273998209,2,0,0,0,-2,-2,-1,-1
1480611273998209,-2,-3,-3,-3,-1,-1,-1,1
1480611274041323,-2,-1,-1,1,0,-2,0,-1
1480611274041323,-2,-1,0,0,-1,1,-2,1
1480611274049846,1,-4,0,-1,1,0,2,-1
1480611274049846,2,1,1,-1,-1,-2,0,-1
1480611274050347,2,0,-1,-3,0,-2,0,2
1480611274050347,-2,0,-2,1,-2,-1,0,1
1480611274051851,-2,-1,-2,-2,-1,0,-2,0
1480611274051851,1,2,-2,0,0,0,-2,-1
1480611274056363,0,-1,-2,0,-1,1,-1,-1
1480611274056363,-1,0,2,-1,1,-1,-1,0
1480611274057867,0,-1,-1,-2,-2,1,1,0
1480611274057867,-1,-2,0,-2,-1,-3,0,-2
1480611274077922,-1,1,0,1,-2,-3,-1,0
1480611274077922,2,-2,0,0,-1,2,0,2
1480611274103990,-1,-1,-1,-2,1,-1,-2,2
1480611274103990,-1,-1,1,-1,0,0,0,0
1480611274104492,0,-1,3,0,1,-1,1,0
1480611274104492,0,-1,-1,-1,-2,1,-1,-3
1480611274129558,-1,1,0,1,0,1,-2,-2
1480611274129558,-2,0,-1,-1,0,0,-1,0
1480611274129558,-3,-1,0,1,-1,0,-4,-2
1480611274129558,-1,-1,-2,-1,0,-2,-1,-2
1480611274129558,-1,-1,0,1,1,1,-1,0
1480611274129558,-1,-4,-3,3,0,0,0,-2
1480611274139083,2,1,-1,-2,-1,0,2,0
1480611274139083,-1,-2,-2,1,1,-1,0,-1
1480611274140587,-3,0,-1,-2,-2,-2,-1,-1
1480611274140587,0,0,-1,-2,0,1,-1,0
1480611274169163,-2,-1,-2,-2,0,0,0,1
1480611274169163,4,1,1,-3,-1,0,-1,-1
1480611274176182,-1,-1,-1,0,0,0,0,0
1480611274176182,-1,-1,1,1,0,0,-1,0
1480611274177185,0,-3,-1,0,-2,-2,0,0
1480611274177185,1,0,0,2,0,-2,0,1
1480611274184204,0,-1,-3,-1,2,0,-1,-2
1480611274184204,-2,2,0,-1,-1,0,1,0
1480611274199247,-1,-1,-1,1,1,2,0,-1
1480611274199247,-1,-1,1,-1,-1,0,-1,0
1480611274200748,-1,-1,1,-2,-2,0,0,1
1480611274200748,-1,-1,-1,0,0,0,-2,0
1480611274212780,-1,1,0,-2,-1,-3,1,-2
1480611274212780,0,0,0,0,-1,-1,-1,-1
1480611274221804,-1,-2,-2,-1,0,-2,0,0
1480611274221804,1,-1,-2,-1,0,0,-1,0
1480611274236344,0,-1,1,0,-1,1,-1,0
1480611274236344,-2,0,0,-2,0,0,-3,-3
1480611274239852,2,1,0,0,-1,3,-2,0
1480611274239852,-2,-1,0,1,-2,0,0,0
1480611274258902,-1,-1,-1,-1,0,-1,-1,1
1480611274258902,-3,-3,-1,-1,0,-3,1,0
1480611274260406,0,-2,0,0,-1,0,1,-2
1480611274260406,2,1,1,0,0,0,0,0
1480611274280462,1,0,-3,-1,0,-1,-2,-1
1480611274280462,-2,-1,-1,-1,-2,-1,0,0
1480611274312044,-1,-3,-1,0,-4,-2,0,-2
1480611274312044,-1,-2,0,-2,0,1,1,-1
1480611274325579,-2,0,-1,-1,-1,1,1,0
1480611274325579,-2,0,-2,-2,0,1,2,0
1480611274336108,0,-1,-2,1,-1,-1,-3,-2
1480611274336108,-1,-1,-2,-1,1,-1,-3,-2
1480611274337110,-1,1,0,2,1,-1,-1,-2
1480611274337110,-2,1,0,-1,0,2,-1,-2
1480611274340619,0,-1,-1,0,-2,-1,2,0
1480611274340619,-1,0,0,-1,-2,0,-1,-2
1480611274356162,0,-1,-1,-2,0,-1,-2,0
1480611274356162,1,-2,0,-1,-1,0,-3,-1
1480611274371201,-2,0,0,0,0,1,-1,-1
1480611274371201,0,0,-2,-1,-1,-2,-2,1
1480611274372205,-1,-2,0,0,3,-1,2,-1
1480611274372205,-2,1,-2,0,0,-1,1,-1
1480611274382236,-2,0,-1,-2,-1,-2,0,0
1480611274382236,-1,-1,1,-1,0,-1,1,0
1480611274383735,-1,-2,0,-2,-1,-1,-1,-1
1480611274383735,1,0,-1,0,-2,0,-1,1
1480611274385740,-1,2,1,1,0,0,0,0
1480611274385740,-2,-2,0,-1,-1,0,0,-1
1480611274401281,-3,-2,-1,-2,1,1,0,-1
1480611274401281,4,-1,-1,1,-1,-1,0,-2
1480611274402785,-1,-3,-3,1,-1,-1,0,0
1480611274402785,1,-2,0,0,-1,-1,-1,-1
1480611274417323,0,0,0,-2,0,-1,-2,-1
1480611274417323,-2,-1,-1,-2,0,-2,-1,-1
1480611274418828,0,1,1,0,0,0,-1,-3
1480611274418828,-2,-1,0,0,-1,-1,0,-1
1480611274447906,-1,0,0,1,-3,0,1,1
1480611274447906,-2,1,1,0,0,-1,0,2
1480611274449411,0,-1,-2,0,-2,-1,1,-1
1480611274449411,-2,-1,-3,-1,-1,0,-1,-1
1480611274461943,1,-1,-1,0,0,1,-1,-1
1480611274461943,0,-2,0,-2,-1,-1,-1,2
1480611274463949,0,0,1,-2,2,0,-3,-1
1480611274463949,1,2,-1,1,0,-1,-2,-1
1480611274476982,0,0,-2,0,-1,0,0,1
1480611274476982,-3,0,-1,2,0,-1,0,-2
1480611274490018,1,-2,-1,-2,0,-1,-2,0
1480611274490018,-1,1,1,1,0,-1,-2,-2
1480611274499044,-1,-4,-3,-2,-1,-2,-2,-1
1480611274499044,1,-2,0,-1,1,0,-1,-1
1480611274500546,-2,-1,0,-2,0,0,1,0
1480611274500546,-2,-1,-2,1,-1,1,1,-1
1480611274521601,1,0,0,-2,1,-3,-1,-1
1480611274521601,-1,-1,0,1,0,1,-1,-3
1480611274523106,0,-2,-1,-2,-1,0,-2,-1
1480611274523106,2,0,1,-3,0,-3,-1,-1
1480611274535641,0,1,3,1,0,2,0,-1
1480611274535641,2,-2,-2,-2,-2,0,1,0
1480611274542657,2,0,1,2,0,2,1,-1
1480611274542657,0,1,0,0,-1,0,0,1
1480611274559201,0,0,-2,1,0,1,-1,-1
1480611274559201,0,1,-1,-1,-1,-1,-3,0
1480611274560705,-2,0,-1,1,-1,-1,-3,-4
1480611274560705,-1,0,0,-2,-1,-3,-1,-1
1480611274596300,-1,-2,-2,0,0,-2,1,-1
1480611274596300,-2,1,0,-1,-1,-1,-1,-1
1480611274604321,-1,1,-1,-2,-1,-1,-1,1
1480611274604321,0,-2,-2,-2,0,0,0,-1
1480611274605324,-3,0,0,-2,0,0,0,-2
1480611274605324,0,-2,0,-1,0,2,2,-2
1480611274606828,0,-2,0,1,-2,2,-1,1
1480611274606828,1,-2,0,1,-1,0,-1,2
1480611274618860,0,-1,-2,-4,-2,0,0,3
1480611274618860,-1,-1,-1,-2,-3,-3,0,1
1480611274632899,-2,2,-2,-1,0,-2,0,0
1480611274632899,0,-1,-1,-4,-2,-1,-1,0
1480611274641424,0,-1,2,2,-1,-1,-3,-1
1480611274641424,-3,-1,0,0,-1,-1,-1,0
1480611274642924,-2,-2,-1,-3,-1,-1,1,-1
1480611274642924,-2,-2,1,2,1,1,0,-3
1480611274656460,-2,-1,-1,1,1,1,0,-3
1480611274656460,-1,-1,-1,-1,-2,2,1,0
1480611274662476,-1,-1,-1,0,-2,0,-1,0
1480611274662476,1,1,-1,-2,-2,-1,0,-1
1480611274678519,1,0,1,-1,-2,-2,-2,0
1480611274678519,-2,0,0,1,1,-1,-2,-1
1480611274686540,-1,-1,-2,-1,-1,-1,0,0
1480611274686540,0,0,-2,0,-2,1,0,2
1480611274701580,0,-2,-2,-1,-2,1,0,0
1480611274701580,-2,-1,0,-1,1,-1,0,-1
1480611274703084,1,-1,2,-1,-1,-1,-1,0
1480611274703084,0,-1,-1,0,1,-2,-1,-2
1480611274724140,0,0,1,2,0,0,1,0
1480611274724140,2,1,-2,0,-1,-1,-1,-2
1480611274725644,-2,-3,0,0,0,0,-2,0
1480611274725644,-2,0,0,-2,-1,-1,-1,-1
1480611274739180,2,0,-2,-2,-2,0,0,-2
1480611274739180,1,-2,0,0,0,1,0,-1
1480611274741687,2,0,-2,0,2,-1,1,-2
1480611274741687,-1,0,0,-2,-1,-1,-2,-2
1480611274770263,0,-2,-1,-1,-2,-3,-1,0
1480611274770263,-1,0,-2,-2,-2,-1,0,0
1480611274773772,-4,0,-1,-1,0,0,0,-1
1480611274773772,-1,-1,-2,1,0,1,0,1
1480611274783800,-1,1,0,1,0,-2,0,0
1480611274783800,1,1,-2,-1,-3,-1,-1,0
1480611274785303,-2,-1,-3,0,-1,2,0,0
1480611274785303,0,2,-1,0,0,1,-1,0
1480611274798842,-3,0,0,-1,1,-1,-2,0
1480611274798842,-2,-2,-2,3,0,1,-1,0
1480611274800344,1,2,0,-1,-1,-1,-1,0
1480611274800344,1,-1,-2,-1,-2,1,-2,0
1480611274821900,-1,0,0,-3,-2,0,1,-1
1480611274821900,2,-2,2,-3,1,-1,1,-1
1480611274823404,1,1,0,0,1,-3,-1,0
1480611274823404,0,-1,0,3,-1,-2,2,0
1480611274834935,0,-1,-1,1,-3,-1,1,0
1480611274834935,-1,-1,0,-1,0,-2,-1,-1
1480611274843958,1,-1,-1,1,0,0,-1,1
1480611274843958,-3,-2,-2,-3,-1,-1,-1,-1
1480611274890081,0,1,-1,1,-1,0,-1,-1
1480611274890081,-1,0,0,0,-1,-2,0,0
1480611274893591,-1,-3,1,1,-1,0,2,0
1480611274893591,-1,1,0,0,0,-2,0,-2
1480611274894593,0,-1,-2,2,0,0,1,1
1480611274894593,0,1,0,1,0,0,-1,0
1480611274897102,0,2,2,0,1,-2,0,-1
1480611274897102,-1,-1,0,-2,1,1,-1,-1
1480611274918156,4,-1,-1,-4,-1,-2,-2,-1
1480611274918156,-1,1,2,-1,-1,-1,-1,-1
1480611274934701,0,-1,-3,-1,-1,0,0,0
1480611274934701,-1,-1,0,0,0,0,-1,0
1480611274935202,-3,1,-2,0,0,1,-2,-3
1480611274935202,-1,-1,-1,0,-1,-1,0,0
1480611274937208,-1,-1,-1,-1,-1,0,-1,-1
1480611274937208,-1,0,1,3,0,0,2,0
1480611274957260,-3,-2,-4,-1,0,-2,-2,-1
1480611274957260,0,2,0,-1,-1,0,0,0
1480611274958764,-2,-1,-2,-2,-2,0,-1,-1
1480611274958764,2,-2,-2,-1,-2,-1,-2,0
1480611274959767,0,1,0,2,2,2,-2,1
1480611274959767,0,1,0,-1,0,1,1,-2
1480611274969793,1,-2,-1,-1,-1,-1,1,1
1480611274969793,-2,-2,1,0,1,0,0,-1
1480611274978818,5,0,0,-3,-2,-1,0,-1
1480611274978818,-1,-1,-4,-2,-2,-2,-1,0
1480611274980825,1,1,0,-1,0,-1,1,0
1480611274980825,-2,0,-1,-1,1,-1,2,1
1480611275001378,-2,-2,1,-1,-1,1,-2,-1
1480611275001378,0,-3,0,-1,1,-1,-1,2
1480611275002882,0,-1,1,-2,1,0,-2,0
1480611275002882,1,-2,-2,-1,-2,-2,-1,0
1480611275014915,-3,1,1,2,1,1,2,0
1480611275014915,-2,0,-2,-1,0,-3,-3,-1
1480611275023938,-4,-1,-1,0,0,-2,-1,-1
1480611275023938,0,1,0,-1,-3,-1,-2,-1
1480611275038978,-3,-2,-1,-1,0,-1,-1,0
1480611275038978,-2,-2,0,0,0,-1,1,-2
1480611275044994,-1,0,0,0,-2,-2,0,0
1480611275044994,1,-2,-1,-1,-1,0,-2,0
1480611275061540,0,1,-1,-3,-1,0,0,0
1480611275061540,3,-2,-1,1,1,1,-1,1
1480611275063042,-1,-2,-2,-1,-2,0,-2,-1
1480611275063042,1,-1,-2,-2,-1,1,0,0
1480611275076076,-1,0,1,-1,-2,-4,0,-1
1480611275076076,-2,-2,-2,1,-2,-2,1,0
1480611275084098,-1,0,0,1,0,0,-3,0
1480611275084098,1,0,0,-2,0,1,0,-1
1480611275099142,-1,-2,0,-1,2,-1,-1,-1
1480611275099142,1,0,-1,0,-1,2,-2,-2
1480611275100642,0,0,-3,-1,-2,0,1,-1
1480611275100642,-1,0,-3,-2,-1,-2,-1,-1
1480611275128216,1,-1,0,1,-2,-3,0,-2
1480611275128216,0,1,-2,-3,0,-1,-1,-2
1480611275144760,1,-3,1,2,1,0,-1,-3
1480611275144760,-1,-2,1,1,1,-2,-2,1
1480611275161303,-1,-1,-3,-4,-1,0,-1,2
1480611275161303,-3,-1,-1,-2,-1,0,0,2
1480611275162809,-2,2,0,-1,-1,-1,-1,-2
1480611275162809,3,-1,-2,0,0,-1,1,-1
1480611275167319,-1,-1,1,2,0,-1,-1,0
1480611275167319,-1,0,-1,1,-1,2,0,1
1480611275168823,-4,-3,-1,-2,-1,-1,-1,0
1480611275168823,-2,-1,2,1,-2,-2,0,-2
1480611275197663,0,0,-1,-3,-1,1,0,-1
1480611275197663,1,2,1,1,1,-1,0,-1
1480611275199167,-1,0,-2,-1,-1,-2,0,1
1480611275199167,-1,-1,1,-2,0,0,-1,0
1480611275200169,-1,0,-3,-1,-2,0,1,-1
1480611275200169,-1,-3,-2,2,0,0,0,-1
1480611275204180,2,-1,-1,-2,-1,0,1,0
1480611275204180,-1,0,0,-1,-2,-2,1,-2
1480611275219220,-1,-2,-1,2,-1,1,-3,0
1480611275219220,1,0,1,-1,-1,-2,-1,0
1480611275221225,-2,0,-1,1,-1,-2,0,-1
1480611275221225,5,-1,-3,-5,-3,1,-1,0
1480611275242283,-1,0,0,0,0,0,0,-2
1480611275242283,0,0,-1,0,0,1,-2,-1
1480611275243786,-1,0,-1,-1,-1,-1,-1,0
1480611275243786,-3,0,-1,-1,-2,1,-1,-3
1480611275264340,-2,-1,-3,-1,-1,1,-1,1
1480611275264340,1,-1,1,-1,-2,-2,0,-2
1480611275265844,0,-3,1,-1,0,-1,2,1
1480611275265844,-1,-1,0,1,2,-1,0,-1
1480611275277876,0,0,-1,-1,-1,-2,0,2
1480611275277876,-1,-1,0,1,0,-1,-1,0
1480611275286399,0,0,1,-1,0,-1,-2,0
1480611275286399,-1,0,0,2,0,-3,-3,1
1480611275301438,0,-2,0,-2,0,0,-1,0
1480611275301438,-2,0,0,-1,-1,0,-2,0
1480611275302943,2,0,0,0,-2,0,-1,1
1480611275302943,-2,-1,-1,-1,-1,1,0,0
1480611275331519,-1,0,0,0,-2,0,0,-3
1480611275331519,-1,0,-1,-1,1,1,2,-1
1480611275333023,0,-1,-1,-1,0,0,-3,-1
1480611275333023,-4,-1,-1,0,1,-1,0,0
1480611275339038,-1,0,1,0,-1,0,-2,1
1480611275339038,-1,1,0,-1,-1,1,1,-1
1480611275340544,-2,-1,-1,-1,0,2,0,1
1480611275340544,0,1,2,1,0,0,0,1
1480611275369118,-3,-1,-2,-1,1,-3,0,-2
1480611275369118,-2,-1,-2,-1,-1,-1,-1,0
1480611275370622,2,0,-1,-1,0,-2,-2,-1
1480611275370622,1,0,0,-1,-1,1,0,0
1480611275383657,2,-1,-1,-2,0,0,0,-1
1480611275383657,-1,-2,-2,-1,-2,-2,-1,0
1480611275390175,-1,0,0,-2,0,-1,-1,-1
1480611275390175,-1,-2,-3,0,-2,-1,0,-1
1480611275398196,2,1,1,0,-1,-1,1,-1
1480611275398196,0,-1,-1,-2,0,-1,0,0
1480611275437300,-1,1,2,0,1,1,0,1
1480611275437300,-4,-2,-1,-2,1,-2,-2,1
1480611275437802,2,-3,-1,-1,0,0,-1,0
1480611275437802,-1,0,-1,0,-1,0,-1,0
1480611275440309,1,-2,-2,0,-3,-2,-2,-1
1480611275440309,-2,2,-1,-2,-2,2,-2,-2
1480611275482922,-1,2,-1,1,1,0,-1,1
1480611275482922,-2,-2,2,1,-1,0,-1,-1
1480611275484425,-1,0,-1,-1,0,0,2,-2
1480611275484425,-1,1,-2,0,0,-2,1,-2
1480611275485428,0,-2,0,0,-1,-2,0,-2
1480611275485428,1,-2,0,-2,-2,0,0,-1
1480611275489940,0,-1,-1,-2,-1,0,-1,0
1480611275489940,-2,-2,0,-1,-1,-1,1,-1
1480611275491445,0,-1,0,0,-2,-2,1,-2
1480611275491445,0,-2,-1,1,0,0,-2,-1
1480611275503977,-2,1,1,1,0,1,0,0
1480611275503977,1,1,-3,-1,-1,-1,-1,1
1480611275505481,1,2,-1,0,-1,-1,-2,0
1480611275505481,-1,-1,1,0,-1,1,1,1
1480611275518015,-1,-3,-1,0,-2,-2,-1,-1
1480611275518015,-1,-1,0,0,-1,-3,2,1
1480611275525033,-1,-1,-2,1,0,-1,1,0
1480611275525033,1,-1,-1,2,1,-1,-2,-1
1480611275541577,0,1,-2,-2,1,0,-1,-1
1480611275541577,-1,-1,1,-1,-1,0,-2,-2
1480611275543082,-1,-1,-1,0,-1,-3,-3,-1
1480611275543082,-1,-1,-1,-2,-1,1,0,-1
1480611275571658,-2,0,-2,-3,-2,0,-1,2
1480611275571658,-1,1,-1,-2,2,0,-1,0
1480611275573163,-3,0,-1,0,0,0,2,0
1480611275573163,0,0,0,0,-1,0,0,0
1480611275586196,3,0,-1,-2,0,1,-1,-2
1480611275586196,0,-3,-1,2,-1,0,-1,-1
1480611275588202,1,-1,-1,-3,-1,-3,-1,-2
1480611275588202,-2,-2,-2,0,0,0,-1,1
1480611275609258,-4,-1,1,-1,0,-3,-2,0
1480611275609258,-1,0,-1,-1,-2,-2,0,0
1480611275611765,-2,-2,-1,1,-2,0,-1,-1
1480611275611765,1,-1,-1,-1,-1,-2,-1,-2
1480611275631316,-1,0,0,-2,0,-1,1,-3
1480611275631316,0,0,2,0,0,3,-1,1
1480611275632820,-1,-2,-2,0,-1,1,-2,-2
1480611275632820,1,-1,-1,0,0,-2,0,-2
1480611275677941,1,-1,-1,1,-1,1,0,0
1480611275677941,0,-3,-2,-1,-1,-1,-1,0
1480611275679445,0,0,0,1,-1,1,2,1
1480611275679445,2,-1,1,-2,0,0,-1,0
1480611275679949,-2,-3,-2,0,-1,-2,-1,-1
1480611275679949,-1,1,-1,-2,0,-2,-1,0
1480611275692481,-2,0,2,-1,0,0,-1,0
1480611275692481,-3,-2,-3,-2,-3,0,-3,-1
1480611275714538,-1,-1,0,2,1,1,0,0
1480611275714538,2,-1,-1,-1,-1,-2,-2,-2
1480611275722559,1,0,-1,0,1,-3,0,-1
1480611275722559,1,1,-2,1,-1,1,-1,0
1480611275723562,-1,-1,-1,0,0,-1,-1,-1
1480611275723562,-1,-3,-1,-1,0,0,0,-1
1480611275725066,-1,-3,0,-1,0,-1,-1,0
1480611275725066,-1,-2,0,0,0,-2,-1,0
1480611275745119,0,0,-1,0,-2,-1,0,2
1480611275745119,1,-2,0,-1,-1,1,1,0
1480611275746623,0,0,-1,-1,-2,0,0,0
1480611275746623,-1,0,1,-3,-2,-1,0,-1
1480611275747626,-1,2,0,-1,-1,0,-1,-1
1480611275747626,-1,0,-1,0,0,-1,0,1
1480611275751636,-1,-2,-2,-2,-3,2,-1,1
1480611275751636,0,0,2,1,-2,0,0,-1
1480611275757652,0,-1,-3,-4,-2,2,-2,-2
1480611275757652,0,0,0,0,0,-1,-1,-3
1480611275766677,0,-1,-1,0,0,-3,0,0
1480611275766677,0,0,-1,1,0,0,-1,-1
1480611275788735,-2,-1,-1,-1,-1,-2,0,-2
1480611275788735,1,0,-2,-4,-2,-1,-2,0
1480611275804777,-1,-1,0,-1,-2,-1,0,-1
1480611275804777,1,-2,-1,0,-1,0,-1,-2
1480611275805279,1,-2,1,3,0,1,0,0
1480611275805279,-1,-1,0,1,-1,1,-1,-1
1480611275806783,-2,-1,0,-1,1,-1,1,2
1480611275806783,0,1,-2,-2,1,0,-1,1
1480611275826335,-2,-1,-2,-1,1,-3,0,2
1480611275826335,-2,0,1,2,0,0,3,-3
1480611275827839,0,0,0,1,0,-1,-1,-1
1480611275827839,-1,-1,1,-1,-1,-3,1,-1
1480611275841375,1,-2,0,-2,-1,1,-1,-1
1480611275841375,-1,0,0,0,0,0,-1,0
1480611275842879,-2,-1,-1,-1,-2,0,-1,-3
1480611275842879,-3,-1,-1,-2,-1,-2,-1,-2
1480611275863935,0,1,0,-1,-2,-2,-1,-2
1480611275863935,-2,-1,0,-2,0,-1,-1,0
1480611275865439,6,0,1,1,-1,-1,-3,-1
1480611275865439,1,0,0,0,0,1,0,0
1480611275886494,1,-1,1,0,-2,0,-1,-1
1480611275886494,-1,-1,-2,0,-3,0,-1,-1
1480611275887999,-3,-1,-1,-1,0,-1,-1,0
1480611275887999,-2,-3,1,-2,1,-2,1,1
1480611275902036,0,1,-1,0,1,-3,-2,1
1480611275902036,-1,1,-3,2,0,0,0,0
1480611275907551,-3,-1,-1,1,-1,1,-2,-2
1480611275907551,0,0,0,0,-1,0,0,0
1480611275924095,-2,-3,-2,0,1,-1,0,-2
1480611275924095,0,-1,0,0,0,-1,0,0
1480611275948660,-1,0,0,-1,0,-2,0,-1
1480611275948660,0,1,0,1,0,-1,0,0
1480611275949664,-1,-2,-1,-1,-2,2,1,0
1480611275949664,0,0,0,0,0,0,0,1
1480611275962198,0,-1,0,0,1,0,0,-2
1480611275962198,-1,1,0,-2,0,0,1,-2
1480611275985258,1,-2,-2,0,0,-1,0,0
1480611275985258,-3,-2,1,-2,-1,-1,-1,-1
1480611275986762,-1,-1,0,0,0,0,-1,1
1480611275986762,-2,0,-3,2,-3,0,-3,1
1480611275987765,-2,-1,-1,0,1,-1,1,-2
1480611275987765,0,0,0,-1,-3,0,-1,-3
1480611275992277,-2,-1,-2,0,0,-1,-1,-1
1480611275992277,2,1,-1,1,0,-1,0,-1
1480611275997791,1,1,-2,-1,0,0,0,-1
1480611275997791,0,-1,2,0,1,-1,-2,-1
1480611276006314,0,-1,0,-1,-1,1,0,1
1480611276006314,-2,0,-2,0,-2,-1,-1,-2
1480611276036394,-2,0,-1,0,-3,-2,-1,0
1480611276036394,0,0,-1,-1,0,-1,-1,-1
1480611276038901,-2,0,-1,-4,-2,1,0,-2
1480611276038901,0,-2,0,-1,0,0,-1,-1
1480611276043915,-2,-1,0,0,0,1,-2,0
1480611276043915,2,0,-2,-1,-1,-1,0,-1
1480611276046421,0,0,0,1,0,2,1,1
1480611276046421,0,-2,-1,-1,0,0,-1,-1
1480611276066474,-2,-1,0,0,1,-1,-2,-1
1480611276066474,0,0,-2,0,-1,-1,1,0
1480611276067978,0,2,-2,-2,0,-3,-1,0
1480611276067978,1,-1,-1,0,1,-1,0,0
1480611276082015,2,-1,-2,0,-1,0,1,1
1480611276082015,-1,-1,-1,0,-2,-1,-1,-1
1480611276083518,0,-2,-1,0,1,0,0,-2
1480611276083518,-1,1,1,-2,-2,-2,0,-1
1480611276113099,-1,-1,0,-2,1,-3,0,0
1480611276113099,-2,-1,1,-1,-1,2,0,-1
1480611276114602,0,0,-1,-1,0,-3,-1,-2
1480611276114602,1,-2,0,-2,0,1,0,-1
1480611276117610,0,-1,-1,0,-2,1,1,0
1480611276117610,-1,-1,-1,0,0,-1,-2,0
1480611276126634,0,1,-1,-1,-2,-2,0,0
1480611276126634,-2,0,-1,-1,1,0,-2,-2
1480611276141674,0,1,0,-1,-1,-1,0,0
1480611276141674,2,-1,-1,-1,0,0,-2,0
1480611276155211,2,-2,-1,-1,-2,0,0,-1
1480611276155211,0,-1,-2,-1,-2,0,0,-1
1480611276163733,-2,1,-1,-1,0,2,-2,0
1480611276163733,-1,1,-1,1,0,0,0,0
1480611276165739,0,0,1,-1,2,1,1,2
1480611276165739,0,-2,-1,-4,-4,-2,0,-1
1480611276186293,1,-1,0,-1,0,-3,1,-1
1480611276186293,-2,0,1,-1,0,-1,-1,0
1480611276187797,-1,-1,-1,1,0,1,-1,-1
1480611276187797,-2,0,0,-1,0,-1,0,0
1480611276225399,-2,-1,0,-2,0,-1,0,-2
1480611276225399,1,-1,0,-2,1,0,0,-1
1480611276226901,2,0,-1,-1,-2,0,1,0
1480611276226901,1,-1,-2,-1,-1,-2,-1,-1
1480611276227905,-1,1,-2,0,-1,0,-2,-1
1480611276227905,-1,0,-1,1,-1,2,1,2
1480611276231413,-2,-1,0,1,-2,-1,-1,0
1480611276231413,-2,0,0,0,-1,1,-1,0
1480611276260490,-1,-1,0,1,-1,-2,0,-2
1480611276260490,-1,-2,-2,-1,-1,-2,2,-2
1480611276271018,-1,-1,-1,0,0,-1,-1,-1
1480611276271018,0,-1,-1,-2,0,-1,0,0
1480611276272021,-1,0,0,-2,-1,0,-1,0
1480611276272021,-2,0,-1,0,-1,-2,-1,-1
1480611276284554,-1,-2,-1,0,-2,-2,0,-2
1480611276284554,-1,0,-1,3,1,-2,-1,1
1480611276285556,1,-1,0,8,0,0,-1,-1
1480611276285556,0,-2,1,-9,-1,-1,-1,-1
1480611276287062,-2,-2,-3,4,1,0,1,-1
1480611276287062,-1,-2,4,-6,-2,0,-1,-1
1480611276306612,0,-2,-1,0,0,-1,-1,-1
1480611276306612,-1,-1,-3,3,1,-1,-1,-1
1480611276308117,-1,2,0,-3,-2,-1,-2,-2
1480611276308117,-1,1,0,1,0,0,0,-2
1480611276320650,1,0,1,0,-1,-3,0,1
1480611276320650,1,0,0,0,-1,0,-3,-1
1480611276327668,-3,-2,1,-1,0,1,0,-1
1480611276327668,-1,1,-4,0,1,0,-2,0
1480611276344212,-1,1,-1,-4,-1,0,0,0
1480611276344212,1,1,-1,-1,-1,-3,-1,1
1480611276345718,-1,-3,-2,-2,-1,-1,-2,0
1480611276345718,-3,-3,0,0,-2,-2,-1,0
1480611276366271,0,-2,-2,-2,-1,2,0,-1
1480611276366271,0,0,-1,-1,-1,-1,1,-2
1480611276368277,0,0,1,-3,0,-1,-2,0
1480611276368277,2,-2,-2,-2,1,0,-2,0
1480611276380811,0,0,2,-1,-2,-1,-2,-1
1480611276380811,-1,-2,0,2,0,-1,0,-3
1480611276387829,0,0,-2,-1,0,1,0,0
1480611276387829,-1,1,-3,0,-2,-2,0,-2
1480611276403873,-3,-1,-1,-3,0,1,-1,0
1480611276403873,-3,0,-1,0,0,-1,-2,0
1480611276405376,-2,1,0,0,0,0,-1,1
1480611276405376,1,0,1,0,0,-1,-1,-1
1480611276457514,-1,-1,-1,0,-1,0,3,0
1480611276457514,2,-1,2,0,0,0,1,0
1480611276459519,-1,-1,-2,-2,-2,-1,0,1
1480611276459519,0,0,-1,0,0,1,-3,-1
1480611276460021,1,-2,-1,-1,-1,-2,-2,0
1480611276460021,-2,-1,0,0,-1,-1,-2,0
1480611276466040,-1,-2,0,-2,-2,-1,0,-3
1480611276466040,-1,-2,0,-1,0,-1,0,0
1480611276467040,-2,-2,-1,-3,0,-1,-1,-1
1480611276467040,-1,1,-2,1,-1,0,-2,-2
1480611276486591,-1,-1,1,-2,0,-2,-1,0
1480611276486591,1,0,0,-1,0,-2,0,-3
1480611276487594,2,0,-1,1,0,-1,0,0
1480611276487594,0,-1,-1,-2,-1,1,2,0
1480611276501632,2,3,0,0,-1,-2,0,-1
1480611276501632,-1,-2,-3,1,2,3,0,0
1480611276502133,-2,-1,1,-1,1,-1,0,-1
1480611276502133,-2,-1,-1,-1,-1,0,0,-2
1480611276507648,-2,-2,0,-1,0,-1,-1,-1
1480611276507648,0,0,3,3,-1,-2,0,1
1480611276531712,2,0,-1,-1,0,0,-2,-1
1480611276531712,-2,1,3,0,1,-1,-1,0
1480611276539231,2,-2,1,15,2,0,0,-1
1480611276539231,-2,-2,-8,-23,-4,-3,1,-2
1480611276546251,2,0,1,2,-3,-1,0,0
1480611276546251,-2,-2,-2,-4,-1,-1,-2,-1
1480611276547760,-1,-1,-3,-1,0,0,-1,-1
1480611276547760,1,-1,-1,2,-1,1,-2,-2
1480611276576331,0,1,1,0,-1,0,2,0
1480611276576331,0,-1,-3,-4,0,-1,0,-1
1480611276585856,-1,-2,-1,-2,0,0,1,0
1480611276585856,-2,2,-1,4,0,-1,-1,1
1480611276586858,-2,-1,-1,-6,-3,-3,-2,0
1480611276586858,0,-1,0,1,-2,-3,0,0
1480611276589866,0,1,0,-2,-1,-1,0,0
1480611276589866,1,-2,0,2,-2,0,0,1
1480611276628972,-1,-1,-2,-2,0,2,-1,-1
1480611276628972,-2,1,-1,1,-1,-1,0,-1
1480611276637493,-2,0,-1,-2,-1,0,0,-2
1480611276637493,-2,0,2,2,0,-1,1,1
1480611276638496,0,-2,-2,-2,1,-1,0,0
1480611276638496,0,-2,0,-1,-1,1,-1,0
1480611276652032,3,-3,1,-3,-1,-2,-1,1
1480611276652032,-1,0,1,2,-1,-1,0,-1
1480611276653034,-3,-2,0,2,1,-1,-1,-2
1480611276653034,0,0,-2,-1,-2,0,0,-1
1480611276654538,-2,1,-1,-1,-1,-1,-2,-1
1480611276654538,-1,0,4,2,0,1,0,0
1480611276666570,0,-2,-2,-2,-2,-2,1,-2
1480611276666570,-1,0,-1,0,-2,0,1,-1
1480611276668077,-4,2,0,-1,0,1,0,-2
1480611276668077,-2,0,-2,-2,0,-2,-1,-2
1480611276689130,0,0,-2,-1,0,-1,-1,-1
1480611276689130,1,-2,0,1,-1,2,0,1
1480611276696651,0,-2,1,-1,-1,0,-1,2
1480611276696651,-2,-1,1,0,-2,-1,-3,-1
1480611276703168,-3,0,-1,1,1,-1,0,0
1480611276703168,2,1,1,-1,1,-2,0,0
1480611276726229,1,-3,-1,-2,-3,1,1,0
1480611276726229,-1,-1,-1,-1,-1,2,0,0
1480611276727231,-1,-1,-1,0,-1,1,0,0
1480611276727231,-1,-1,0,1,-1,-1,-1,-1
1480611276740768,1,-1,0,-1,0,-2,-2,-1
1480611276740768,0,0,0,-1,0,-2,0,0
1480611276741269,-1,-1,-1,-1,-3,-2,-1,0
1480611276741269,-1,-2,-2,-2,-2,0,1,1
1480611276771349,0,0,-2,-1,1,0,-2,-1
1480611276771349,2,-1,-1,2,1,0,0,0
1480611276778872,-3,-1,-1,-2,-1,1,-1,0
1480611276778872,-1,-2,1,-1,2,1,-2,-2
1480611276780373,-1,0,0,-2,-1,-2,-3,-2
1480611276780373,-1,0,-1,1,1,-1,0,-1
1480611276786389,1,3,1,1,-1,-2,1,1
1480611276786389,0,-1,1,-1,-2,-2,0,-1
1480611276787894,-2,0,-1,0,1,-1,1,-1
1480611276787894,-2,0,1,-1,1,0,0,-1
1480611276808448,1,-1,-1,-3,-2,-2,-1,0
1480611276808448,-2,-1,1,-1,1,-1,-1,0
1480611276816469,0,-1,-1,-1,-2,-1,0,-1
1480611276816469,0,-2,-1,-1,-2,0,-2,0
1480611276823989,0,0,0,0,0,0,-2,-1
1480611276823989,-2,1,-1,-1,1,0,-2,0
1480611276826496,1,-1,-3,1,-1,0,-1,0
1480611276826496,-2,0,-1,2,-1,-1,-1,0
1480611276853568,1,-1,-2,1,0,1,0,-1
1480611276853568,0,0,-2,-1,-2,1,-3,-2
1480611276862092,-2,-1,0,-1,1,0,0,0
1480611276862092,1,-1,-3,0,-1,-1,1,0
1480611276863095,1,0,1,1,-1,-1,-1,0
1480611276863095,0,0,-2,-1,-2,-1,0,2
1480611276876629,-3,-1,-1,-1,-1,-1,-1,-1
1480611276876629,-2,0,-1,-2,1,0,-1,-2
1480611276883647,-2,-2,1,-1,1,1,-1,-1
1480611276883647,1,0,-2,-3,0,0,0,-1
1480611276914731,1,-1,0,0,-1,1,-2,0
1480611276914731,1,-1,-1,-2,0,1,0,0
1480611276915233,-1,-1,-1,-1,-2,-1,1,-1
1480611276915233,-3,0,-1,1,-1,-1,-2,-1
1480611276916736,-2,2,-1,-2,-1,1,1,0
1480611276916736,1,1,0,1,-1,-2,-2,1
1480611276920246,0,0,-3,0,-2,-1,-1,-1
1480611276920246,1,-1,1,2,0,-2,0,0
1480611276959349,-1,-2,-3,-2,-1,-1,0,0
1480611276959349,-1,-1,0,0,0,-2,0,-1
1480611276966368,-1,0,2,-1,0,0,0,-2
1480611276966368,1,2,-4,-3,0,-1,0,-2
1480611276988427,0,0,-1,1,-1,0,-1,0
1480611276988427,-2,-1,0,0,0,0,-1,-2
1480611276989429,-2,-1,-2,-2,-1,-3,-1,-1
1480611276989429,0,-2,0,1,0,-3,1,-1
1480611277012992,1,-1,1,0,1,-1,0,0
1480611277012992,-1,-1,0,-2,-1,0,-2,0
1480611277013493,2,0,-1,0,0,1,-2,1
1480611277013493,2,-2,0,1,0,0,-3,-1
1480611277014998,1,-2,-2,0,-2,0,-2,-1
1480611277014998,2,-2,0,0,-1,-1,3,-1
1480611277027030,-1,-1,2,-1,0,-1,0,-1
1480611277027030,-1,-1,-2,-3,1,0,0,-1
1480611277028533,0,-2,-2,0,1,-1,0,0
1480611277028533,0,-2,1,0,0,-3,-2,1
1480611277041068,1,-1,1,0,-2,0,-1,-2
1480611277041068,-2,0,-2,-1,-1,1,1,0
1480611277048085,-2,-2,-1,0,-1,0,-2,0
1480611277048085,0,1,0,-1,0,0,2,-1
1480611277056608,-4,-2,-2,1,1,0,-1,-1
1480611277056608,1,-1,3,-4,-1,-1,-2,-2
1480611277064129,-1,0,0,0,-2,1,-1,0
1480611277064129,0,0,-1,-1,-1,2,1,0
1480611277067136,0,0,-1,-2,0,1,0,0
1480611277067136,0,-2,-3,0,0,0,-1,-3
1480611277086688,2,0,0,0,0,-1,1,-1
1480611277086688,-2,0,-1,1,-2,-1,0,-1
1480611277088693,-1,-1,0,1,1,-1,2,1
1480611277088693,1,-2,-1,-1,-2,-1,-2,1
1480611277100224,-3,-1,0,-2,0,-1,0,0
1480611277100224,1,-1,-1,-1,-1,1,1,0
1480611277116768,1,2,0,0,-2,-1,-1,-1
1480611277116768,0,1,-2,1,1,0,-1,0
1480611277131307,0,-2,-1,0,-2,0,-2,-2
1480611277131307,-2,-3,-1,0,-1,-3,-2,-1
1480611277138827,-3,-1,1,-3,-1,-4,0,0
1480611277138827,-3,1,0,1,1,0,-1,-1
1480611277146349,1,0,-2,1,-2,1,0,0
1480611277146349,-3,-2,-2,-2,1,-2,2,0
1480611277147850,0,-1,0,1,1,-1,-2,1
1480611277147850,-2,0,0,-1,-2,-3,1,-1
1480611277176427,-1,1,-3,-1,1,-3,-1,1
1480611277176427,-1,-1,0,1,-1,1,-1,-1
1480611277177932,1,-1,0,0,-2,-1,0,0
1480611277177932,-2,-2,0,-1,0,0,-1,-1
1480611277183946,1,1,-1,-1,-2,-1,-1,-2
1480611277183946,-1,2,-1,-2,0,1,0,0
1480611277185450,5,1,-1,-1,2,0,0,0
1480611277185450,0,0,-2,0,-1,2,0,-1
1480611277206507,0,0,0,0,0,-2,0,0
1480611277206507,1,1,1,-1,-1,-1,-2,1
1480611277208011,-2,-1,2,-1,0,0,-1,-1
1480611277208011,0,-1,0,0,0,-1,-1,-1
1480611277228566,1,-1,0,-1,1,-1,-1,0
1480611277228566,-3,-1,1,0,-2,-2,-2,0
1480611277235083,0,0,-1,-3,0,0,0,0
1480611277235083,1,1,-1,-1,-2,-2,0,0
1480611277245110,-2,0,0,0,-1,1,-1,-2
1480611277245110,1,-2,-1,0,-1,-1,-1,1
1480611277248620,-2,0,-1,-1,0,0,0,0
1480611277248620,-2,-2,-2,0,-1,-1,-1,-1
1480611277273686,1,1,-2,-1,-1,-1,0,0
1480611277273686,0,-1,-2,-2,2,1,-2,-3
1480611277281706,0,1,-1,-1,1,-2,-1,-2
1480611277281706,-1,-2,1,-1,0,1,-1,0
1480611277288725,1,-1,0,-4,-2,0,-1,-2
1480611277288725,0,-1,-2,1,-2,0,-1,-1
1480611277290731,-2,-1,-1,1,-3,-2,-1,0
1480611277290731,0,0,1,0,1,-2,-1,0
1480611277312289,-3,-1,0,0,0,-2,-1,-2
1480611277312289,-1,2,-1,-2,0,-2,2,0
1480611277313792,1,-1,0,2,1,1,0,-1
1480611277313792,0,-1,-3,-2,-4,1,0,0
1480611277325824,0,-3,-2,-3,0,0,-1,2
1480611277325824,-1,1,-1,0,1,-1,0,-1
1480611277333846,-1,-2,-2,0,1,-3,-1,-2
1480611277333846,-1,0,0,-1,0,1,-1,1
1480611277348885,-2,0,-1,0,0,0,0,1
1480611277348885,-2,0,1,-1,-1,0,1,-2
1480611277364428,-1,-2,-1,-1,-2,0,0,-1
1480611277364428,2,0,-1,0,-2,-2,-2,-1
1480611277364428,2,-1,1,1,0,1,-1,-1
1480611277364428,1,-2,-1,-1,-1,0,0,-1
1480611277369941,0,1,2,-2,-1,0,-1,-1
1480611277369941,-1,1,1,-1,-1,-3,0,0
1480611277387488,-2,0,-2,0,-1,-2,-1,0
1480611277387488,1,1,-3,-1,-2,-1,-2,0
1480611277388992,-1,2,-2,0,-1,-1,-1,-1
1480611277388992,-1,-3,-1,0,0,1,2,-1
1480611277417067,-1,0,2,-2,0,0,1,0
1480611277417067,1,-2,-1,-2,-1,-1,-1,0
1480611277418571,-2,-1,-1,0,0,-1,1,-2
1480611277418571,-1,-2,-1,0,0,-1,0,0
1480611277423083,-3,0,2,0,0,0,-1,-1
1480611277423083,-2,-2,0,0,-2,-1,-1,0
1480611277437622,0,0,0,-1,0,0,-1,0
1480611277437622,1,-1,0,0,0,-3,-2,-3
1480611277454166,-1,0,-3,1,0,0,-1,1
1480611277454166,-2,1,0,0,1,0,0,0
1480611277457676,1,-1,0,-1,-1,0,0,2
1480611277457676,0,-1,-1,-1,0,0,-1,0
1480611277469206,-1,-1,-1,-1,-2,-2,-1,0
1480611277469206,1,1,0,0,-1,-2,-2,0
1480611277472715,1,0,-2,0,-2,-1,2,0
1480611277472715,-2,-1,1,-1,-1,-1,1,0
1480611277506806,0,-1,0,-1,-2,-1,-3,-1
1480611277506806,-2,-2,2,-1,0,0,0,-2
1480611277508310,-1,-2,1,1,-1,1,0,-1
1480611277508310,-1,-1,-2,0,-1,1,0,-1
1480611277521845,-2,-1,-1,0,-2,1,0,2
1480611277521845,0,0,0,0,1,0,0,0
1480611277523856,0,0,-1,-2,-1,-2,-2,0
1480611277523856,0,-1,-3,0,-1,-2,-2,1
1480611277559951,-2,-2,-1,0,0,0,2,0
1480611277559951,1,-2,0,0,0,0,-1,-1
1480611277562456,-2,-1,0,-1,1,-1,0,0
1480611277562456,-2,0,1,-2,-2,-1,0,1
1480611277563457,1,0,-1,-2,0,-2,-1,-1
1480611277563457,-1,0,-3,0,-2,1,0,1
1480611277575990,3,-1,-1,-1,-1,0,0,0
1480611277575990,-1,-2,-2,-1,-1,0,-1,0
1480611277577494,-2,-2,-1,-2,1,2,1,0
1480611277577494,2,-1,0,1,0,0,0,-1
1480611277580000,-1,-3,-2,0,-1,-2,0,-1
1480611277580000,-1,1,0,1,0,0,-1,-1
1480611277589024,3,-2,-1,0,-1,-1,1,0
1480611277589024,0,1,2,-2,-3,-1,1,-1
1480611277592534,-2,-1,0,1,-1,1,-1,1
1480611277592534,1,-1,0,-1,0,-3,2,2
1480611277603061,-3,-2,-1,0,-2,-3,0,-1
1480611277603061,0,-3,-2,-1,-1,-2,1,0
1480611277610080,1,1,0,2,0,1,-2,0
1480611277610080,1,-1,0,-1,0,1,-2,-1
1480611277626624,1,0,-2,2,0,0,-1,-1
1480611277626624,-1,-1,-1,0,0,-1,1,1
1480611277649686,-2,0,-2,-1,0,0,-1,-1
1480611277649686,-1,1,0,-1,-2,1,-2,0
1480611277650188,0,-2,0,-2,-2,1,0,-1
1480611277650188,-1,-1,0,0,-1,1,-1,-1
1480611277652693,-4,-3,-1,-1,0,0,2,-2
1480611277652693,3,-2,1,0,-1,-2,-1,-2
1480611277670241,1,2,0,-2,-3,-1,-2,-1
1480611277670241,1,0,-1,0,-1,-2,-1,-1
1480611277703328,-1,1,0,-1,1,-2,0,-1
1480611277703328,-1,0,-2,-1,1,0,0,-1
1480611277704331,-1,0,-2,1,0,0,0,0
1480611277704331,1,-3,-1,-2,0,0,-2,0
1480611277709345,1,-1,-2,-2,-1,0,0,0
1480611277709345,-2,-1,0,0,-2,0,-2,-1
1480611277710348,-2,1,1,2,1,-2,-1,-1
1480611277710348,-1,2,-2,0,0,1,0,-1
1480611277712355,-2,0,0,-3,-1,0,2,-1
1480611277712355,-1,-1,-3,-3,-1,0,-1,-1
1480611277737921,-1,-1,0,-1,1,-1,0,-1
1480611277737921,-3,-1,-2,-1,-1,-2,-1,-1
1480611277755969,0,-2,0,0,1,-1,-1,-2
1480611277755969,0,-1,0,-1,-1,-1,0,-1
1480611277756971,1,-1,-1,-2,0,-1,0,0
1480611277756971,0,-1,-2,0,-1,-2,-1,-2
1480611277760481,3,-1,1,0,-1,1,-3,-2
1480611277760481,-2,1,2,0,0,-1,-2,1
1480611277776523,0,-2,-2,-1,0,-1,-1,-1
1480611277776523,-2,-1,0,-1,-1,1,2,-1
1480611277778029,-3,-2,-1,-1,-1,-3,-2,-1
1480611277778029,-2,0,-2,-2,-2,-1,-1,-3
1480611277791062,-1,2,0,-2,0,-1,-1,0
1480611277791062,-1,-1,0,0,1,0,-1,0
1480611277797580,-2,0,-2,0,-2,1,-1,-1
1480611277797580,0,-1,2,1,1,0,0,0
1480611277806102,0,-1,0,-1,-1,1,0,-1
1480611277806102,-1,-2,-2,0,0,0,0,-3
1480611277828663,1,-1,-1,-1,-2,-1,-2,2
1480611277828663,1,-1,-1,0,0,-3,3,-1
1480611277836183,0,-1,0,0,-2,1,-2,-1
1480611277836183,0,-1,0,-1,2,0,-1,0
1480611277838187,-2,1,1,1,-2,-2,-1,0
1480611277838187,-1,-1,-1,0,-1,-2,-2,0
1480611277842699,-2,-1,-1,-1,-1,-2,0,-1
1480611277842699,1,-1,0,-2,-1,-1,-2,2
1480611277851725,-1,0,0,-2,0,-2,1,1
1480611277851725,0,-3,0,0,0,1,0,1
1480611277881302,-1,-2,0,-2,1,0,0,2
1480611277881302,-1,0,0,0,-3,-1,-4,-1
1480611277883808,0,-1,-2,0,0,0,-1,-3
1480611277883808,-1,-1,1,0,-1,-1,-1,-2
1480611277888822,1,-3,-1,0,1,0,0,0
1480611277888822,-1,-1,1,-2,0,1,1,0
1480611277890326,0,-1,-1,-1,-2,-1,-1,1
1480611277890326,1,-1,-1,-1,-2,-2,-2,-1
1480611277902358,-1,-1,-1,-1,-2,-1,0,0
1480611277902358,0,-1,0,-1,0,0,1,-1
1480611277918902,0,-2,-2,1,-2,1,-1,-1
1480611277918902,0,-1,-1,-1,-1,1,-1,3
1480611277926421,0,-1,-1,0,-2,-2,-1,0
1480611277926421,-1,-1,0,2,0,-1,1,0
1480611277927926,3,1,-1,0,2,0,-2,1
1480611277927926,0,-2,-2,-1,1,1,-2,1
1480611277948987,0,0,-2,1,-1,-1,-2,0
1480611277948987,-1,0,0,0,-3,-1,1,-2
1480611277950486,-2,2,-3,-2,-1,-1,1,-2
1480611277950486,-1,0,0,-1,1,-2,0,0
1480611277963020,0,1,-1,1,2,0,-2,1
1480611277963020,-1,-1,-2,-1,-1,0,-1,2
1480611277971542,-2,1,1,0,0,-1,0,-1
1480611277971542,0,1,1,0,-1,0,-1,-1
1480611277986582,-1,0,-2,-1,0,0,0,-1
1480611277986582,0,0,-2,0,2,-1,-1,0
1480611277988086,0,-2,-1,0,-1,1,0,-1
1480611277988086,0,1,0,0,1,1,2,0
1480611278008641,0,1,3,1,0,1,0,-2
1480611278008641,-1,1,1,1,-1,-1,-1,0
1480611278032203,-1,-1,-2,-1,0,-3,-2,1
1480611278032203,-2,-4,-3,0,-1,0,0,-3
1480611278032704,0,0,3,-2,0,-1,0,-3
1480611278032704,0,-3,-1,-2,-1,1,-2,0
1480611278034710,-1,-3,-1,1,0,-1,-1,0
1480611278034710,-1,-1,-2,-1,-1,-1,-2,0
1480611278070306,-2,-2,1,0,-1,-1,-1,0
1480611278070306,-2,-1,0,-1,-1,-1,-2,0
1480611278071813,-2,-2,-1,1,-1,0,2,0
1480611278071813,-2,-1,0,1,-1,0,2,0
1480611278072811,-1,-2,-2,-2,0,0,0,-1
1480611278072811,1,-3,0,-1,1,-1,-1,-1
1480611278076823,2,-1,-1,-1,0,0,1,0
1480611278076823,-1,1,-1,0,-1,-2,-1,0
1480611278090860,0,1,-2,0,-1,-2,0,1
1480611278090860,0,2,1,-1,-1,-2,0,1
1480611278098882,0,0,1,-1,-1,0,0,0
1480611278098882,-2,-3,0,-1,-1,0,-1,-4
1480611278105900,-1,-1,0,1,-1,-2,-2,0
1480611278105900,-3,-2,-1,0,-2,-3,1,-1
1480611278112419,0,0,0,-1,0,0,0,-1
1480611278112419,3,0,-2,-3,0,1,-1,0
1480611278129464,1,0,0,-1,-1,0,0,-2
1480611278129464,-2,0,0,-2,-1,0,-1,0
1480611278134976,-1,-2,0,-2,0,-1,-2,-1
1480611278134976,-3,-1,0,1,-2,-3,0,1
1480611278151520,-1,-1,-1,-3,-2,0,1,0
1480611278151520,0,-1,-2,-1,-1,-1,0,-1
1480611278153024,-1,1,-1,-3,0,-1,-1,-1
1480611278153024,-2,0,0,-1,0,0,-2,-1
1480611278166561,2,-1,-1,1,-2,-1,0,0
1480611278166561,0,-3,1,1,0,2,-1,-1
1480611278168065,-1,-1,0,0,-2,-1,-3,-2
1480611278168065,1,0,-2,-1,0,-1,-3,-2
1480611278189121,-1,-1,-2,-2,1,0,-1,-2
1480611278189121,-1,-1,-1,0,-2,-1,0,-1
1480611278190625,-2,-1,-1,1,-2,0,-2,2
1480611278190625,-1,-2,-1,-1,-2,-1,1,1
1480611278211181,-2,1,-4,0,1,0,0,-1
1480611278211181,1,-1,-1,-2,0,0,-2,-2
1480611278213186,-1,0,-2,-1,-1,0,0,-3
1480611278213186,-1,1,-1,-1,0,0,0,0
1480611278225718,0,-2,-1,-2,-3,-3,-2,1
1480611278225718,0,2,0,-1,-1,-1,0,0
1480611278240257,1,0,1,-2,-1,-2,1,-1
1480611278240257,-2,-1,0,-3,-2,-1,0,0
1480611278248780,-4,-4,-1,0,-1,0,-2,1
1480611278248780,-3,-1,0,0,1,-3,-2,0
1480611278250284,0,-2,-2,2,0,-2,-3,1
1480611278250284,0,1,0,0,-1,-1,0,-1
1480611278271841,0,0,-1,0,1,2,0,0
1480611278271841,0,-1,-2,-1,0,0,0,-3
1480611278301921,1,-1,0,1,-1,1,1,-2
1480611278301921,1,-2,-2,1,1,-1,-1,-1
1480611278303926,1,0,1,1,-2,-2,0,-2
1480611278303926,2,0,-2,0,0,-1,1,2
1480611278306433,-1,0,0,-2,0,-1,0,1
1480611278306433,-1,0,1,0,0,0,-2,0
1480611278308940,-1,1,2,1,0,-1,-1,0
1480611278308940,-2,-1,0,0,-2,0,0,-2
1480611278310444,1,2,-1,0,-2,0,-1,0
1480611278310444,-1,0,-3,-1,-2,0,-2,1
1480611278331500,4,0,-1,-3,-2,0,-1,0
1480611278331500,-1,-1,0,-2,-1,-2,0,-3
1480611278337516,0,-1,1,-1,2,1,0,0
1480611278337516,-2,0,-2,0,0,-1,0,-1
1480611278354059,-2,-2,2,-1,0,-1,1,-2
1480611278354059,0,-1,1,0,-1,1,0,0
1480611278355563,1,-1,0,-2,-3,-2,-1,-1
1480611278355563,-1,-1,-2,0,1,-1,0,-1
1480611278392662,0,-1,0,0,1,1,1,-1
1480611278392662,-1,-1,0,-1,1,-2,-1,2
1480611278394167,-2,-2,-2,-1,0,2,1,1
1480611278394167,-1,-1,-2,-1,-1,0,0,-1
1480611278395169,-2,0,-2,-1,-3,0,-1,-1
1480611278395169,0,-2,1,0,0,0,-1,-2
1480611278399182,-1,0,-1,1,0,1,0,-1
1480611278399182,0,0,0,-1,0,-2,-1,-4
1480611278405697,-2,-1,-1,1,1,-2,-1,-1
1480611278405697,0,1,-1,1,-1,-1,0,1
1480611278420235,-1,-1,-1,0,-2,-2,0,0
1480611278420235,2,-2,-1,-1,0,1,-2,-1
1480611278428758,-1,-2,-1,0,0,1,-1,-1
1480611278428758,1,0,0,1,1,-2,-1,1
1480611278430765,-1,-1,-3,-3,0,0,-1,0
1480611278430765,-1,3,0,0,-3,0,1,0
1480611278451820,-1,-2,-2,-1,0,1,0,0
1480611278451820,-2,-1,-1,-2,-1,3,0,-2
1480611278453825,-1,-2,0,0,-1,-1,-1,-1
1480611278453825,-3,-1,2,-1,0,1,-1,0
1480611278465856,1,1,1,0,-1,-3,1,1
1480611278465856,0,-1,-3,0,0,-1,1,0
1480611278489419,0,-2,0,1,0,-1,1,0
1480611278489419,-3,-2,-1,0,-2,-1,-2,-1
1480611278490422,-2,0,0,-1,0,1,-1,-1
1480611278490422,0,0,-3,-1,-1,-1,-3,0
1480611278496438,0,1,0,0,1,0,-1,-1
1480611278496438,1,-1,-1,-1,-1,-1,-1,1
1480611278534543,0,0,0,-1,-1,-1,1,-1
1480611278534543,2,-1,-2,0,-1,2,-1,-1
1480611278541559,-3,0,0,-1,-2,2,-1,-1
1480611278541559,1,-2,-1,-2,0,-1,0,0
1480611278555595,-1,-1,-1,-1,0,0,0,-1
1480611278555595,1,0,-1,-3,-1,-2,1,0
1480611278587681,-3,-1,1,2,1,-1,-1,0
1480611278587681,-1,-2,-2,0,0,0,2,-1
1480611278589186,0,-2,-1,-3,0,-1,-1,-1
1480611278589186,0,-1,0,-1,0,-2,0,1
1480611278602720,2,2,0,0,-1,-1,-1,-1
1480611278602720,1,0,2,0,0,-1,-1,-1
1480611278605228,-1,1,-1,0,1,0,-2,-1
1480611278605228,-1,0,-2,2,-2,-1,0,-1
1480611278617260,1,-3,0,-3,0,-1,0,-1
1480611278617260,0,-1,-1,1,-3,-1,0,-1
1480611278618263,1,-1,-2,-3,-1,0,1,-1
1480611278618263,-2,-2,-1,-2,-1,-2,-1,0
1480611278630796,4,0,1,-1,0,1,-2,0
1480611278630796,0,0,1,0,0,-1,-2,-1
1480611278631297,1,-1,-2,-2,-2,-3,-1,1
1480611278631297,-2,-1,0,0,0,-1,0,0
1480611278653857,-1,-2,-2,0,-1,-2,0,-1
1480611278653857,-2,-1,-1,-1,0,1,1,0
1480611278654860,0,1,-1,0,-1,-1,-1,0
1480611278654860,-2,-2,0,0,-1,-2,0,-1
1480611278668396,-1,-1,1,0,1,0,0,-1
1480611278668396,1,-2,0,0,-1,-1,-2,0
1480611278668897,-1,1,-1,0,0,1,1,0
1480611278668897,0,0,-1,-1,-2,1,1,2
1480611278698981,0,-1,-1,1,-2,-1,-2,0
1480611278698981,-1,0,-3,0,0,-2,0,-1
1480611278700481,1,-2,-1,-2,-1,0,-2,-2
1480611278700481,-2,-2,1,-1,0,-1,-3,-1
1480611278713015,-1,0,0,0,1,-1,-1,0
1480611278713015,-2,-1,1,-1,-1,0,0,-1
1480611278714018,2,-3,-2,-2,-1,-1,0,0
1480611278714018,2,0,-3,-1,-1,-1,0,-3
1480611278728058,-1,1,-3,-3,-1,-1,0,-1
1480611278728058,-2,-1,0,1,0,0,-2,-2
1480611278729060,-2,0,2,-2,2,0,0,-1
1480611278729060,-1,-2,-2,-1,0,1,-1,0
1480611278759137,1,0,1,-1,-3,-2,-1,0
1480611278759137,0,-2,0,0,-2,-3,-1,0
1480611278760641,1,1,0,0,0,0,-1,-1
1480611278760641,0,0,0,0,-1,1,0,1
1480611278773174,-1,-1,-1,-1,-1,-2,0,-2
1480611278773174,1,-1,-3,-3,1,0,1,1
1480611278774178,0,-1,0,1,-1,0,-1,-1
1480611278774178,2,-1,-4,-2,-1,0,-2,0
1480611278810273,-1,1,-1,1,2,2,1,-1
1480611278810273,-2,-1,2,2,-3,1,-2,0
1480611278820300,0,-1,0,0,-1,-2,-1,-1
1480611278820300,-2,-1,2,0,-1,0,-2,-3
1480611278821804,-3,0,0,-1,0,0,0,-1
1480611278821804,5,1,1,-1,-1,0,0,-2
1480611278822806,-2,2,-4,-1,-2,-1,-1,0
1480611278822806,1,0,-1,-2,-1,-1,-1,0
1480611278866423,-1,0,-1,0,-1,-1,-1,-1
1480611278866423,-1,1,-1,-1,0,-1,1,-3
1480611278867425,2,-3,0,0,0,0,0,-1
1480611278867425,0,-1,0,2,1,0,2,-1
1480611278873441,-1,-3,0,1,-1,0,0,0
1480611278873441,-1,-1,-1,-1,0,2,-1,2
1480611278874445,-2,-1,1,-1,-2,0,-1,-1
1480611278874445,-1,0,1,-2,-1,-3,-1,-2
1480611278875948,0,-1,0,-1,-1,-1,-1,0
1480611278875948,-3,1,-3,-1,0,-1,-1,-1
1480611278885473,-1,-1,-1,2,1,-1,-1,1
1480611278885473,2,0,1,0,-1,-2,-1,1
1480611278892993,2,2,1,-1,-2,-3,-2,0
1480611278892993,2,-1,-1,-2,-2,-2,-1,-2
1480611278900515,-2,-2,-1,-2,0,-1,-1,1
1480611278900515,-3,2,-1,2,-1,0,-1,-2
1480611278908033,-1,-1,-1,2,-1,2,-2,-1
1480611278908033,-3,1,-1,-2,-1,0,0,1
1480611278909037,-2,-1,-2,-1,-2,-1,0,-1
1480611278909037,0,-1,0,-1,0,0,2,1
1480611278930593,2,1,1,-2,-1,-1,0,0
1480611278930593,-1,-2,1,1,0,1,-2,0
1480611278931596,0,0,0,1,-3,0,-2,-2
1480611278931596,0,1,-3,-2,-2,-2,-3,0
1480611278953156,-2,-1,0,2,-1,0,-2,-2
1480611278953156,-1,0,1,1,0,0,1,1
1480611278954157,-1,-1,1,-2,1,1,1,-1
1480611278954157,-2,0,0,0,0,-1,-1,0
1480611278968694,-1,-2,0,-2,-2,-1,-2,-2
1480611278968694,0,2,0,0,-2,-3,-1,-1
1480611278969698,-2,1,-2,-1,0,-2,0,0
1480611278969698,0,-2,0,-1,-2,-1,-1,-3
1480611278991254,-1,-1,-1,0,1,-1,0,-1
1480611278991254,-1,-2,-1,0,-1,1,2,-1
1480611278991756,-1,-2,-1,-3,-1,-2,-2,0
1480611278991756,-1,-1,0,-3,0,0,0,0
1480611279021335,0,0,-2,1,1,0,0,1
1480611279021335,0,0,0,1,0,0,1,-1
1480611279022337,0,1,0,2,0,-1,0,-1
1480611279022337,3,-3,-1,0,1,0,0,-1
1480611279028358,2,-1,-1,-1,-1,1,-1,0
1480611279028358,-1,0,-2,-3,0,-1,1,2
1480611279028855,-3,-2,1,1,1,-1,1,0
1480611279028855,-3,1,0,-1,1,1,-2,-2
1480611279050914,1,0,-1,-1,0,-3,-1,-1
1480611279050914,0,-2,0,0,0,-1,-3,-2
1480611279051415,2,-2,0,0,-3,0,0,-1
1480611279051415,-2,0,-2,0,-1,-1,1,0
1480611279089516,1,-1,-3,1,-3,-1,0,0
1480611279089516,1,-2,-2,-2,-1,-2,0,-1
1480611279097540,0,-1,0,0,0,-2,0,0
1480611279097540,-3,-1,-1,-1,0,-1,0,0
1480611279099544,-1,-1,1,-3,-1,1,1,0
1480611279099544,-1,1,0,-2,1,0,0,0
1480611279100044,-1,1,-1,-1,0,1,0,-1
1480611279100044,1,0,-2,-1,0,0,0,-1
1480611279128120,-2,-2,-3,0,1,0,0,-1
1480611279128120,-2,0,0,0,-1,0,-2,0
1480611279128622,-1,0,-1,0,-1,0,-2,-1
1480611279128622,-3,1,-1,1,1,2,0,-1
1480611279133633,4,-3,-1,-3,0,0,-1,0
1480611279133633,-2,-2,1,3,0,0,0,0
1480611279140652,1,-2,0,-2,-1,0,-1,-1
1480611279140652,0,-1,0,-2,-1,-2,0,-1
1480611279148172,-3,-1,-2,-1,0,-1,-1,-1
1480611279148172,0,-1,-3,-3,-2,0,0,-2
1480611279149175,-2,0,0,-1,0,-2,-2,-2
1480611279149175,0,-1,-1,-1,0,-1,0,1
1480611279170732,-1,0,-1,0,0,-3,-1,-1
1480611279170732,1,2,0,0,-1,0,1,-1
1480611279171234,1,-1,-3,0,-1,0,0,0
1480611279171234,1,0,-1,0,-3,-2,0,0
1480611279209836,-1,2,1,0,-1,-2,0,0
1480611279209836,-1,-2,0,0,1,1,-3,-1
1480611279210839,0,0,1,-1,1,0,-1,0
1480611279210839,0,0,0,0,-2,-1,0,0
1480611279217859,1,0,-3,-3,1,0,-1,0
1480611279217859,-1,0,-1,-1,-1,-4,0,-2
1480611279218863,1,-1,-1,-2,-2,1,0,0
1480611279218863,-2,-4,-1,1,0,0,-2,0
1480611279230892,-1,0,1,2,0,1,-2,0
1480611279230892,-3,0,-3,-1,-3,-2,-3,-2
1480611279231394,3,0,-1,0,0,-1,0,-2
1480611279231394,0,-1,-1,-1,0,1,0,-1
1480611279253455,0,1,0,0,0,-1,-1,0
1480611279253455,1,0,2,-1,0,-1,0,0
1480611279260471,0,-1,0,-1,0,-3,1,0
1480611279260471,0,-1,1,0,0,0,0,-3
1480611279269495,-2,-1,-1,0,-1,1,1,-2
1480611279269495,1,-1,0,-1,0,2,0,-1
1480611279270498,-2,1,1,0,0,1,-1,0
1480611279270498,1,-1,1,0,0,-1,-2,-1
1480611279290551,-1,-2,0,-1,-2,-1,0,-1
1480611279290551,0,-1,-1,-2,0,-1,-2,0
1480611279314615,-2,0,-2,1,0,2,1,0
1480611279314615,-1,1,0,0,0,2,0,0
1480611279316120,0,0,0,-2,0,-1,1,-1
1480611279316120,0,-1,-1,2,0,0,-1,-1
1480611279317121,0,-1,1,0,-3,-2,-1,-1
1480611279317121,-2,-1,-3,-5,-1,-1,-1,-2
1480611279328656,1,0,-2,0,-1,-1,-2,2
1480611279328656,0,-1,0,-1,0,-1,2,0
1480611279329154,1,-1,0,0,-2,-1,-1,0
1480611279329154,1,0,-1,2,-1,-1,1,-2
1480611279351213,1,0,1,-2,-1,0,-1,0
1480611279351213,-1,0,-2,0,-2,0,-1,-1
1480611279351714,-3,0,-1,1,-1,0,-1,-1
1480611279351714,-2,0,-1,0,-1,1,-2,1
1480611279381293,-1,0,-2,2,1,-2,-1,-1
1480611279381293,1,-1,0,0,0,-1,0,0
1480611279383298,0,0,-2,-2,1,-2,0,1
1480611279383298,2,0,-1,-2,1,0,-1,0
1480611279396833,2,-1,0,0,-2,0,-1,1
1480611279396833,0,1,2,0,1,-1,1,0
1480611279397837,0,-2,-1,-1,-2,1,0,-1
1480611279397837,0,-2,-2,-1,-1,-2,0,-1
1480611279410870,-2,-1,0,-1,-1,1,0,0
1480611279410870,-3,-2,0,-1,0,1,-2,0
1480611279411375,-2,0,2,1,2,-1,-1,-2
1480611279411375,0,1,1,-1,-1,-1,-1,-1
1480611279433932,-2,0,-2,-1,-1,-1,-1,-2
1480611279433932,1,0,-1,-1,-1,0,-2,0
1480611279434434,-2,0,-3,-1,0,-2,-1,0
1480611279434434,-1,-2,-2,-1,1,-1,0,-2
1480611279450476,-1,0,0,-2,-1,1,1,0
1480611279450476,0,0,-1,-1,0,1,0,0
1480611279451479,0,-2,1,-1,0,1,-1,0
1480611279451479,0,-1,1,0,0,-1,1,-1
1480611279471532,-1,-3,1,-2,-1,-3,0,-2
1480611279471532,-1,0,-1,0,0,-1,-1,1
1480611279472034,0,0,0,-1,-1,-1,0,1
1480611279472034,-2,-2,-2,-2,-1,-1,-2,0
1480611279495098,-2,0,1,1,0,0,1,-1
1480611279495098,2,0,0,-3,-2,-1,0,-1
1480611279495597,-1,0,0,0,0,0,-2,0
1480611279495597,1,2,0,0,1,0,-1,1
1480611279507629,0,1,-1,2,1,0,-1,1
1480611279507629,-2,-1,-2,-2,-1,-3,1,-2
1480611279515650,0,2,0,2,0,0,-1,1
1480611279515650,-2,-2,-3,0,-1,0,0,0
1480611279531191,2,-2,1,1,0,-1,-2,-1
1480611279531191,-2,1,1,-3,0,0,-1,0
1480611279532194,0,-2,-2,-2,-1,-1,-1,-3
1480611279532194,0,0,1,0,-1,-2,1,-2
1480611279553250,0,0,-1,0,-1,1,-1,-1
1480611279553250,0,-2,-1,-1,-1,0,-1,0
1480611279554255,-3,-1,-1,-3,-2,-2,0,0
1480611279554255,-3,1,0,-1,0,-1,1,0
1480611279590850,-2,-2,0,-3,-2,-2,-1,0
1480611279590850,-1,-2,0,-1,-1,0,-2,0
1480611279600378,0,1,0,0,-1,-4,0,-1
1480611279600378,2,0,1,-1,-1,-1,-2,-1
1480611279601880,-1,0,0,-2,0,1,-1,1
1480611279601880,-2,0,-1,0,-2,0,-1,-1
1480611279602882,-2,-1,0,-1,2,2,-1,0
1480611279602882,0,-2,0,0,-1,2,-1,-1
1480611279613410,-2,-1,1,1,0,-3,1,0
1480611279613410,-2,-1,0,2,0,-2,0,0
1480611279628953,3,-1,-3,-1,0,-1,-1,0
1480611279628953,-1,0,-2,0,0,-2,1,1
1480611279630456,0,-1,0,0,-1,0,-1,-1
1480611279630456,0,-2,-3,-2,-1,0,-1,-2
1480611279635469,0,0,0,-1,-1,-1,0,-2
1480611279635469,-1,-1,1,-2,-1,0,-1,-1
1480611279650508,0,-3,-4,-1,-2,-1,-1,-2
1480611279650508,1,-2,1,-1,-2,-2,-2,-1
1480611279651511,1,-1,0,-1,-1,-2,-1,0
1480611279651511,-1,0,-1,0,1,-2,-2,1
1480611279674572,-2,0,0,-2,0,-1,1,0
1480611279674572,-1,0,1,-1,-1,-1,0,0
1480611279675575,-3,-1,-2,-3,1,1,0,-1
1480611279675575,1,0,-1,0,-1,-1,2,0
1480611279691117,0,-1,-2,0,-1,1,-1,-2
1480611279691117,0,-1,0,-1,-3,0,-1,2
1480611279695630,1,0,0,2,-1,-1,0,0
1480611279695630,-1,-2,-1,-1,-2,-1,-1,-1
1480611279726210,-1,2,-1,-1,-1,-1,-1,0
1480611279726210,-1,-1,-1,0,-2,-2,0,-1
1480611279733730,-1,-2,1,-2,0,0,1,0
1480611279733730,-1,-2,-1,-1,0,0,2,0
1480611279741251,-3,-2,-2,0,-2,0,-1,-1
1480611279741251,-3,0,-1,0,2,1,0,-1
1480611279741752,-1,0,0,-1,-2,0,1,-1
1480611279741752,1,0,-1,0,1,0,-1,1
1480611279749271,2,-1,1,-1,-2,0,-1,0
1480611279749271,1,-2,0,0,-2,1,-1,0
1480611279770327,-4,-2,-1,3,2,2,-1,-1
1480611279770327,0,-1,-1,-1,-2,0,0,-2
1480611279781357,1,1,0,-2,0,-1,0,-2
1480611279781357,0,-1,0,1,0,-2,0,1
1480611279782360,1,0,0,-2,-2,-3,-1,-1
1480611279782360,-4,-2,0,-1,-2,2,-1,-1
1480611279793388,-2,0,0,0,-1,0,-2,-1
1480611279793388,-1,-3,-1,0,-1,0,-1,-2
1480611279793892,1,-1,0,0,-1,-1,-2,0
1480611279793892,-2,-1,-1,-1,-1,-2,-1,-1
1480611279807427,1,1,0,-3,0,-1,0,-1
1480611279807427,-1,0,1,-2,-1,0,0,-3
1480611279815948,0,0,0,0,2,1,-1,0
1480611279815948,-1,1,1,-1,-1,0,0,0
1480611279831490,-1,0,-2,1,1,0,0,-1
1480611279831490,0,0,-2,0,1,0,0,-1
1480611279831992,0,-2,-3,-1,-1,0,-1,-2
1480611279831992,-1,-2,-1,1,0,1,-1,-1
1480611279854049,0,1,0,-1,1,-1,-1,0
1480611279854049,0,-1,0,-3,2,-1,-1,1
1480611279854551,-2,0,-1,-2,-2,0,-3,-1
1480611279854551,1,-1,0,-2,-1,-3,-2,-2
1480611279869090,-1,-1,-1,0,-2,-3,0,-1
1480611279869090,0,1,0,-1,-2,1,-2,0
1480611279875607,1,2,2,-1,-2,1,1,-1
1480611279875607,1,1,1,-1,1,2,-2,0
1480611279913709,0,-3,2,1,1,2,-1,-1
1480611279913709,-1,-2,0,3,-1,-3,-1,0
1480611279914210,1,0,-2,-2,-2,-1,1,-2
1480611279914210,-1,-1,-2,1,0,-3,0,-2
1480611279922733,-2,-1,-1,1,1,1,-1,0
1480611279922733,-1,1,0,-1,1,0,1,-1
1480611279923736,-2,-3,0,-2,-2,0,-1,-2
1480611279923736,1,-1,-1,-2,-3,-2,0,-1
1480611279927747,0,0,-3,-1,-1,-1,-1,2
1480611279927747,-1,0,0,0,0,0,1,0
1480611279935768,-1,-1,-1,-3,0,-1,0,-2
1480611279935768,2,-2,-1,-1,-2,0,-1,-1
1480611279951309,-1,-1,2,-1,-1,-1,-2,-1
1480611279951309,0,2,0,-1,0,0,-1,0
1480611279951811,0,1,0,1,-2,0,2,2
1480611279951811,-1,-1,-1,2,0,-1,1,-1
1480611279973368,2,0,0,-2,-1,-2,-2,0
1480611279973368,-1,1,-1,-1,1,-1,-1,-1
1480611279973870,-1,-1,-1,0,0,0,-2,2
1480611279973870,2,0,2,-2,1,0,-1,1
1480611279996930,1,0,-1,-2,-3,-1,-1,-1
1480611279996930,-3,-2,-3,-1,-1,-2,-1,-3
1480611279997432,-3,-1,-1,0,-1,-1,-2,-1
1480611279997432,-1,0,-1,-1,-2,0,1,-2
1480611280010468,2,-1,-1,0,1,-1,1,-1
1480611280010468,3,-1,0,1,-1,0,-1,-1
1480611280011971,-2,0,2,1,-1,-1,-1,-1
1480611280011971,-1,1,-2,0,-1,-1,-1,0
1480611280050072,-1,-1,-2,0,0,1,0,-1
1480611280050072,-1,-1,-1,-1,0,-1,1,0
1480611280051576,0,1,-1,0,0,0,0,2
1480611280051576,-2,-2,-1,-1,-2,1,-1,1
1480611280056088,-4,1,0,1,0,-2,0,0
1480611280056088,1,0,-1,0,0,1,0,-1
1480611280057091,-1,0,0,0,0,0,0,-1
1480611280057091,0,-1,-2,-2,-1,-1,-2,-2
1480611280070627,-1,0,-1,-3,-1,-1,0,-1
1480611280070627,-1,0,0,-2,-1,-1,-1,-1
1480611280071629,0,-2,1,-2,-1,-1,1,-2
1480611280071629,2,0,1,-1,0,-3,-1,-1
1480611280093186,1,-2,1,1,1,1,0,-1
1480611280093186,1,3,-1,-1,0,-1,-1,0
1480611280094189,1,-1,0,2,-1,0,0,0
1480611280094189,-1,-2,-1,-1,0,-1,0,0
1480611280115245,0,-3,0,-1,-1,-1,1,1
1480611280115245,-2,-1,2,-1,-1,0,0,0
1480611280123267,-2,1,0,-1,-1,-3,-2,0
1480611280123267,-1,2,-2,-1,0,1,1,-1
1480611280146328,-2,-1,-3,1,-1,1,-2,-1
1480611280146328,1,-3,-1,0,-1,2,1,0
1480611280147334,0,-2,1,-1,-1,0,2,-1
1480611280147334,-1,-2,1,-1,-1,-2,-1,1
1480611280153848,-1,-1,1,0,0,1,0,-1
1480611280153848,1,0,0,-2,-2,-3,-1,-3
1480611280154850,1,0,-1,-1,-1,0,0,-1
1480611280154850,-3,-1,0,-1,2,0,-2,-3
1480611280183427,0,1,-1,0,0,-1,0,1
1480611280183427,-1,-1,-1,-1,-1,0,-1,0
1480611280190445,-1,0,-1,1,0,-1,-1,0
1480611280190445,-1,0,-3,-2,-2,0,-1,0
1480611280200472,0,-1,-1,-1,-2,0,-3,-2
1480611280200472,-1,0,-2,-1,0,1,0,0
1480611280200973,1,1,2,-1,-1,-1,-2,0
1480611280200973,-2,0,0,1,-1,1,1,-1
1480611280213005,-1,0,1,1,1,-2,-1,0
1480611280213005,-1,-1,1,0,0,-1,-1,-1
1480611280214007,-1,-2,-4,-1,-1,-2,-1,-1
1480611280214007,0,-2,0,1,-2,0,0,0
1480611280245591,-2,-1,-1,-1,-2,-1,0,0
1480611280245591,1,0,-1,-2,-2,-2,-2,-1
1480611280246093,-2,-1,-1,-1,0,-1,-1,-1
1480611280246093,-1,-1,-2,-2,1,-1,2,0
1480611280251107,-2,-1,-2,-1,1,0,1,-1
1480611280251107,-1,-1,-1,0,1,1,0,-1
1480611280258125,-1,0,-1,-1,-1,-1,-1,-2
1480611280258125,-2,2,0,2,0,1,-2,0
1480611280273666,-1,-1,0,-1,0,1,-1,0
1480611280273666,0,0,0,-1,0,-1,-3,0
1480611280274669,0,-1,-1,0,0,-2,-1,0
1480611280274669,0,0,2,1,1,0,-1,-2
1480611280295725,-1,0,0,0,1,-1,0,-1
1480611280295725,0,0,1,1,0,-1,0,0
1480611280296728,1,0,-1,-1,1,3,2,0
1480611280296728,-1,1,0,-2,0,0,-3,-1
1480611280318786,0,2,-1,-2,-1,-3,-2,-2
1480611280318786,-1,-1,-3,0,-4,0,0,-2
1480611280319789,1,-2,-2,-1,-2,0,-2,0
1480611280319789,0,-1,-2,-1,1,-1,0,2
1480611280333325,-2,0,-1,-2,-2,-1,-1,0
1480611280333325,1,-1,-2,0,-1,0,0,1
1480611280333827,-1,0,1,-1,0,-2,-2,-3
1480611280333827,-1,-1,1,1,-1,0,0,-1
1480611280363907,1,0,0,-1,-1,0,0,0
1480611280363907,-1,-1,-1,2,1,1,0,-2
1480611280364909,0,-1,-1,-2,0,0,0,-1
1480611280364909,2,-2,-2,-2,-1,-1,-2,0
1480611280370928,-2,-1,1,-1,-2,-1,0,0
1480611280370928,-2,-2,-1,-1,-1,-1,0,0
1480611280371427,-1,-1,-1,1,-1,-1,1,-1
1480611280371427,1,2,0,-1,-1,-2,0,-1
1480611280394989,-1,-2,-1,-1,-1,0,-2,0
1480611280394989,0,1,-3,-1,-1,0,0,-1
1480611280396493,-1,0,-2,-1,1,0,-2,0
1480611280396493,1,0,-1,0,-2,0,1,-1
1480611280415544,0,2,1,1,1,1,0,-1
1480611280415544,1,-2,-2,-3,1,-1,1,-2
1480611280416546,-1,1,0,0,0,2,0,0
1480611280416546,-2,0,0,-1,-2,-3,-1,-2
1480611280432088,2,0,-1,0,-3,-1,0,-1
1480611280432088,-2,-1,-1,1,-1,-1,-1,0
1480611280433091,1,-2,-1,0,-2,-1,0,1
1480611280433091,0,-1,1,0,0,-2,-1,-1
1480611280461668,2,1,-2,-2,1,0,0,0
1480611280461668,-1,-1,0,0,1,1,-1,0
1480611280462669,-2,-3,-1,-1,1,0,0,-2
1480611280462669,-2,-2,-1,-2,1,1,-1,0
1480611280475704,0,-1,-1,1,1,-1,0,-1
1480611280475704,-2,-1,0,0,-2,-2,0,0
1480611280476706,-2,1,-1,-1,-2,-1,-1,2
1480611280476706,-1,-3,-1,2,-2,1,1,-1
1480611280490744,-1,0,3,-2,-3,-1,-1,1
1480611280490744,1,1,0,3,0,1,-2,0
1480611280491245,-1,-1,-1,-2,-2,-1,0,-1
1480611280491245,-1,0,0,1,0,-1,-1,1
1480611280513304,-1,-1,-2,-2,1,-1,0,0
1480611280513304,-3,0,0,-2,0,0,0,-1
1480611280513805,2,1,0,0,-1,1,-1,-2
1480611280513805,2,-1,-2,-1,0,-1,-1,-2
1480611280535864,1,-4,0,0,0,0,1,0
1480611280535864,-2,0,0,0,-1,-1,-1,1
1480611280536365,1,-2,-1,1,1,-2,-2,1
1480611280536365,0,-1,1,0,0,-1,-1,0
1480611280567949,-1,-1,0,1,-1,-2,0,0
1480611280567949,-1,0,1,-2,-2,-1,-1,-2
1480611280568953,-1,-1,0,-1,-2,-1,0,0
1480611280568953,0,-1,-1,-2,-2,-2,-2,-1
1480611280573965,0,-3,-2,-1,-1,-1,0,-1
1480611280573965,0,-1,-1,0,-1,-2,0,-2
1480611280574969,-1,0,1,1,-1,-2,0,-1
1480611280574969,1,-2,1,0,-1,1,1,0
1480611280597027,-2,-1,-1,0,1,1,-1,1
1480611280597027,0,-2,-2,-1,1,-1,-2,0
1480611280597528,0,-1,-1,0,0,-2,-2,1
1480611280597528,0,0,-2,1,0,-1,0,0
1480611280610061,-1,0,0,1,-2,-3,0,-1
1480611280610061,0,-1,-2,-1,-1,-1,2,0
1480611280618082,-1,0,0,-2,0,-2,0,0
1480611280618082,-1,1,-2,1,1,1,-1,0
1480611280633123,0,0,-2,0,-3,-1,-3,1
1480611280633123,-3,-1,0,-1,0,-2,-3,-2
1480611280634126,2,0,0,1,-2,-1,0,0
1480611280634126,0,-1,-3,-1,-1,-2,0,-2
1480611280672227,-1,0,0,1,1,1,2,-2
1480611280672227,1,1,-1,-1,-1,1,0,0
1480611280672728,-2,-1,-3,-1,-2,0,0,0
1480611280672728,0,2,-2,-2,0,-1,0,0
1480611280674233,-3,-2,-1,-2,-1,0,0,-1
1480611280674233,0,1,0,-1,-1,-2,-2,1
1480611280678246,1,-1,1,0,0,-1,-3,-1
1480611280678246,0,-2,2,1,-1,-1,-1,0
1480611280694287,0,-1,0,-1,-1,1,0,0
1480611280694287,-2,-3,0,0,0,-1,0,0
1480611280694787,-1,-2,1,0,0,-1,-1,-1
1480611280694787,1,0,-2,-1,-2,-1,-1,-1
1480611280715843,2,-2,-1,0,0,-2,0,0
1480611280715843,2,-1,0,0,0,-1,-2,-2
1480611280716344,-3,0,-1,-3,0,-1,0,-1
1480611280716344,-2,-3,0,-2,0,-2,-1,1
1480611280738905,-2,1,1,-2,1,0,-1,-1
1480611280738905,0,1,-1,0,-1,0,2,-1
1480611280739910,-2,-1,1,2,2,-1,2,-2
1480611280739910,1,0,1,1,-2,0,-2,-2
1480611280752942,-1,2,0,1,-1,0,-2,0
1480611280752942,2,-2,2,-1,-1,-2,0,-2
1480611280753944,0,-1,-2,-3,-1,-1,0,-2
1480611280753944,1,0,-1,-1,0,-4,-1,-1
1480611280784024,-3,0,-2,1,-1,-2,1,-2
1480611280784024,-3,-2,-2,0,2,0,-1,1
1480611280784526,-1,-1,-1,-1,-3,0,-1,-1
1480611280784526,0,1,-3,-2,0,0,-1,2
1480611280799064,-1,1,-2,-2,-2,-2,-2,1
1480611280799064,-1,-1,-2,0,-2,0,-1,-1
1480611280799566,1,-1,-2,-1,1,1,0,-1
1480611280799566,-2,0,1,-1,-2,1,0,-2
1480611280814104,0,0,-1,-1,0,-2,-2,-1
1480611280814104,-2,1,-2,0,-1,-1,1,0
1480611280820621,0,0,0,-2,-1,-2,-1,0
1480611280820621,-2,-3,-2,0,0,-1,1,-1
1480611280843683,0,-1,1,0,2,-1,1,0
1480611280843683,-3,-2,-2,0,-1,-2,-2,0
1480611280845187,0,-1,-1,0,-2,-1,-2,0
1480611280845187,0,0,-2,0,0,1,-1,0
1480611280850702,2,0,0,1,1,0,2,-1
1480611280850702,-1,0,0,0,1,2,-1,-1
1480611280858221,-4,1,1,1,-3,-1,0,-1
1480611280858221,-1,-2,1,-1,-1,-2,0,-1
1480611280873261,0,-1,-1,-1,-2,-1,-2,0
1480611280873261,0,-1,-2,0,-1,0,1,-1
1480611280873763,1,-1,-2,0,1,0,0,0
1480611280873763,-1,-1,1,-1,1,1,2,-1
1480611280895822,0,-2,-1,-2,-1,-1,-2,0
1480611280895822,0,-2,0,0,-1,-2,0,1
1480611280897326,-2,-1,0,2,-1,-1,0,-1
1480611280897326,-1,1,-1,0,0,2,-2,-1
1480611280919384,1,0,1,-2,2,0,-1,0
1480611280919384,1,0,-1,-1,-3,0,-1,0
1480611280919886,-2,0,0,-1,-2,-1,1,1
1480611280919886,0,0,3,1,0,-1,0,-1
1480611280942947,0,-1,-1,0,0,0,-1,-1
1480611280942947,1,-1,-2,-1,0,0,-2,0
1480611280943448,2,-2,-2,-1,1,-3,-2,-1
1480611280943448,-2,-1,-2,0,-2,0,0,-1
1480611280955481,-2,0,1,-2,-1,0,-2,-2
1480611280955481,-2,-1,0,-1,0,-2,-2,0
1480611280956483,-2,-1,0,-1,0,-1,-1,0
1480611280956483,1,-1,0,-1,0,1,-1,0
1480611280979043,0,-3,-4,-1,0,1,0,1
1480611280979043,1,-1,0,-2,0,0,2,-1
1480611280979544,1,1,0,0,1,0,-3,-1
1480611280979544,0,-1,-2,-1,0,-3,-1,-1
1480611281002105,0,0,1,1,1,-1,0,-1
1480611281002105,1,1,-2,-1,-2,-2,-1,1
1480611281003107,-3,-1,-2,-1,0,-2,-1,-1
1480611281003107,0,-2,-1,2,1,-1,0,0
1480611281015640,-1,-1,0,0,-3,-2,1,-1
1480611281015640,0,-1,0,-1,-1,-1,-1,-1
1480611281016643,1,-2,-1,-1,0,1,-1,-1
1480611281016643,-1,0,-2,-1,0,-1,-3,0
1480611281038702,0,0,-1,-2,-2,-3,1,1
1480611281038702,0,0,-2,0,-1,1,0,-1
1480611281039203,0,0,1,1,-1,-2,0,1
1480611281039203,-2,1,1,-3,-1,0,1,0
1480611281076803,-2,-2,-1,-1,0,-1,-2,-1
1480611281076803,-2,0,0,1,0,0,-2,0
1480611281085325,0,-2,0,0,-1,-1,-2,0
1480611281085325,-1,-1,0,-1,0,-1,-1,-2
1480611281086829,1,-1,0,0,0,-1,-1,1
1480611281086829,-2,0,0,-1,0,-1,0,-3
1480611281087833,1,1,-3,-2,-1,1,0,3
1480611281087833,0,-2,-2,-2,-1,-3,1,1
1480611281106382,0,-1,-1,1,-1,1,-1,-1
1480611281106382,0,-2,0,0,0,0,-1,-1
1480611281107385,0,0,1,0,1,0,0,-1
1480611281107385,1,0,1,-2,0,1,1,1
1480611281113401,-2,-1,-1,-3,-2,1,-1,-2
1480611281113401,-1,0,-1,1,-1,-2,0,0
1480611281114905,-4,0,-4,-1,-1,0,-1,-3
1480611281114905,-1,-3,-1,0,-1,-2,-2,-2
1480611281135961,-1,0,0,-3,0,-1,-1,0
1480611281135961,-1,1,1,-2,1,0,0,-2
1480611281136462,1,-2,-2,-1,-1,0,1,0
1480611281136462,-1,-2,0,1,-1,-1,0,-2
1480611281159022,0,-2,0,2,-1,-1,-2,-2
1480611281159022,-1,0,0,-2,-1,-1,-1,-2
1480611281159524,1,1,0,0,0,-1,1,-1
1480611281159524,0,1,-2,-1,-1,0,0,1
1480611281174563,-2,0,1,0,0,0,1,0
1480611281174563,2,-1,0,-1,0,0,-1,0
1480611281175566,-3,-2,-1,1,-1,1,-1,-1
1480611281175566,0,-2,0,-1,-2,2,-2,0
1480611281195619,-1,1,-1,0,-1,0,0,-1
1480611281195619,-2,-2,-2,0,0,0,-1,2
1480611281196622,-1,1,0,1,-1,-1,-2,0
1480611281196622,-2,1,0,-1,-1,-2,0,1
1480611281218681,-1,-2,-1,-1,-2,1,1,0
1480611281218681,2,-1,-1,-1,-1,-1,0,0
1480611281219683,0,0,1,-1,-1,-1,-1,0
1480611281219683,2,-1,-3,2,0,-1,-2,-2
1480611281233219,-1,-2,-2,-2,0,-1,-1,-1
1480611281233219,-2,0,-2,1,-1,0,0,0
1480611281233720,-1,1,0,-1,-1,0,2,1
1480611281233720,-1,0,-2,-3,-2,-1,-2,1
1480611281257283,1,0,-1,0,2,-1,-1,1
1480611281257283,1,-2,0,1,0,1,-2,1
1480611281263301,1,0,0,-1,2,0,-1,-2
1480611281263301,-2,-1,-1,1,1,1,-1,-1
1480611281278841,-1,2,-1,0,1,-1,0,-1
1480611281278841,-1,1,1,-1,1,-1,1,0
1480611281279844,1,-1,-1,0,-3,-1,-2,-1
1480611281279844,0,0,0,-2,1,-1,0,-1
1480611281293881,-1,-1,-2,-3,-1,1,-2,-1
1480611281293881,-1,0,0,2,-1,-1,-2,-3
1480611281294382,-1,-4,0,-2,-2,1,0,-2
1480611281294382,0,-2,-1,0,-3,0,0,-1
1480611281323960,0,1,0,-2,-1,-1,0,1
1480611281323960,-1,0,-2,-1,-1,0,0,-1
1480611281324462,-2,0,-1,-1,-1,-2,2,-1
1480611281324462,0,0,0,-2,0,-1,0,0
1480611281340505,0,0,1,1,0,-1,2,-1
1480611281340505,-1,-1,-1,0,-1,0,0,0
1480611281341006,-2,0,0,-2,0,0,0,-1
1480611281341006,0,-2,-1,1,0,1,-1,0
1480611281353038,-1,-2,-2,0,-2,-1,-1,-1
1480611281353038,-1,0,2,-3,-1,-1,0,0
1480611281354041,0,-2,-1,0,2,0,-2,-1
1480611281354041,-1,-1,-3,0,-3,-1,1,-3
1480611281384622,0,0,-2,0,-1,0,-1,0
1480611281384622,-2,0,-1,-1,-2,-2,-1,2
1480611281385123,-1,-2,-2,1,0,-2,-2,-1
1480611281385123,-1,-3,0,-1,0,0,0,-2
1480611281415203,0,-1,-2,1,1,0,-2,-1
1480611281415203,-1,1,-1,-1,0,1,0,0
1480611281416206,0,0,-1,-3,1,0,0,-1
1480611281416206,1,1,2,-1,0,-1,0,0
1480611281417711,-2,0,1,0,-1,-1,2,-2
1480611281417711,3,-4,-1,0,0,0,-1,1
1480611281428238,-1,-3,-1,1,0,1,0,-1
1480611281428238,0,-2,1,-1,0,-1,0,0
1480611281435257,-2,-1,2,0,-1,-2,0,-1
1480611281435257,-1,0,0,1,-1,-1,0,-3
1480611281443279,-1,-2,-1,-1,-1,0,0,-1
1480611281443279,0,0,0,-1,0,-1,1,0
1480611281458820,-1,-1,-1,-1,-2,-1,-1,-2
1480611281458820,0,0,2,0,0,0,-1,-2
1480611281459827,0,1,2,1,0,0,1,1
1480611281459827,-1,0,-2,2,-1,-1,1,-1
1480611281474862,-1,-2,0,0,1,0,-1,1
1480611281474862,1,-3,-3,-3,0,-1,0,0
1480611281476868,-1,1,-1,-2,-1,0,-1,0
1480611281476868,1,1,-1,-2,-2,0,-2,-1
1480611281495920,2,1,0,-1,-1,1,-2,-1
1480611281495920,1,1,-3,-2,-1,-2,0,-1
1480611281496420,-1,0,-1,-1,0,-1,-2,1
1480611281496420,-2,-1,1,-2,1,1,-2,-1
1480611281518979,-1,1,-1,0,-1,-2,0,0
1480611281518979,0,0,-1,-1,-1,-2,-1,0
1480611281519480,0,0,-1,-1,-3,1,2,1
1480611281519480,-1,1,-1,0,0,0,1,0
1480611281532516,-3,-2,-1,0,-1,-1,0,-2
1480611281532516,-7,-2,-2,-2,-1,0,-1,-2
1480611281540537,0,0,0,-1,-2,-2,-1,-2
1480611281540537,0,1,-1,0,-1,1,-1,-1
1480611281571117,0,-1,-3,-1,1,2,0,-1
1480611281571117,-1,-1,-1,2,1,1,0,-1
1480611281572121,1,0,-1,2,0,-1,-1,-1
1480611281572121,1,0,-2,-1,-2,-1,1,0
1480611281586159,-1,-3,1,0,-1,0,-1,-1
1480611281586159,1,0,2,0,0,2,0,1
1480611281587161,0,1,0,-1,0,-2,0,1
1480611281587161,-2,-2,0,1,0,0,-1,1
1480611281592676,1,-1,-1,0,2,-1,-2,-1
1480611281592676,-1,-2,-3,0,0,-3,-1,-1
1480611281601198,-2,-2,0,0,0,0,1,0
1480611281601198,1,-1,-2,0,-1,0,0,-1
1480611281617241,0,0,0,-1,-2,0,1,1
1480611281617241,-2,0,-1,-2,1,-1,0,-2
1480611281618252,-1,1,-3,-1,1,-2,-1,-1
1480611281618252,1,0,-1,1,-1,0,1,-1
1480611281638799,-2,0,1,0,-3,-1,2,-1
1480611281638799,2,1,2,1,-1,0,1,-1
1480611281639801,0,-1,1,0,-2,1,2,0
1480611281639801,0,0,0,0,1,0,1,0
1480611281661364,-1,-1,-2,-1,-1,-1,-2,-2
1480611281661364,0,0,-1,-1,-1,1,0,0
1480611281662361,0,-1,0,-2,-1,-2,-1,-1
1480611281662361,-3,-1,1,-1,1,1,0,1
1480611281676899,1,-1,-1,0,0,-2,-1,0
1480611281676899,-2,-2,-2,-1,-2,-3,-1,0
1480611281678905,1,-1,-1,3,-2,0,-1,1
1480611281678905,-2,1,0,-1,0,-1,0,-1
1480611281706478,-2,2,-1,-1,0,2,-2,-1
1480611281706478,0,0,2,0,0,1,-1,2
1480611281713497,-2,-2,0,-1,-1,1,-1,-3
1480611281713497,0,0,-2,-2,0,-3,-3,-3
1480611281723022,-1,-2,-2,-1,-1,-1,0,-2
1480611281723022,-1,-1,-3,-1,-1,0,1,1
1480611281723524,1,-1,0,0,-2,1,1,1
1480611281723524,1,0,-1,0,0,0,-1,0
1480611281735555,1,-1,-2,-1,0,1,0,0
1480611281735555,-4,1,0,-2,-2,-1,-1,0
1480611281736558,-1,0,-1,-1,0,0,1,2
1480611281736558,-1,-3,0,0,-1,0,0,1
1480611281766137,2,0,0,-2,1,-2,-2,0
1480611281766137,0,0,-1,-1,-2,0,-1,-2
1480611281767140,2,1,0,-2,-1,1,-1,-1
1480611281767140,0,-1,-2,-2,-2,0,-1,0
1480611281772654,-2,0,-2,-3,-1,2,0,1
1480611281772654,-2,-1,-1,-1,-1,2,-1,0
1480611281780675,0,0,-3,0,-1,-1,-2,-2
1480611281780675,1,-1,1,-1,-1,-1,-2,0
1480611281803736,0,2,0,0,-1,-1,0,0
1480611281803736,-1,-2,-1,-1,1,-2,-1,1
1480611281804739,-3,-1,-1,-2,-1,-2,-1,0
1480611281804739,0,0,0,1,-2,-1,-2,-1
1480611281818276,1,-3,-2,0,-2,-2,1,0
1480611281818276,-2,0,0,0,2,2,-2,-2
1480611281818777,0,0,1,-2,-2,1,-1,-1
1480611281818777,0,-3,-1,-1,0,0,-1,0
1480611281832314,-2,0,1,0,-1,0,0,0
1480611281832314,2,1,0,0,0,-1,0,-1
1480611281848356,-1,-3,0,1,2,-1,0,-2
1480611281848356,-1,1,0,1,-1,0,0,-1
1480611281855876,1,-1,-1,-3,0,0,-2,-1
1480611281855876,1,-2,0,0,0,-2,-1,0
1480611281856377,-1,2,-1,-1,0,-1,0,0
1480611281856377,0,-1,-2,0,-1,-1,-2,-1
1480611281879438,-2,-1,0,0,0,-1,1,-1
1480611281879438,2,0,-1,-2,-2,-2,1,0
1480611281892975,-2,-2,-4,-1,-2,-1,-1,-1
1480611281892975,-2,-1,-1,0,-2,1,1,0
1480611281900494,-3,-1,0,-1,-2,-1,-2,2
1480611281900494,-1,-2,0,0,-1,1,2,1
1480611281917039,2,-3,0,0,0,0,0,0
1480611281917039,-2,-2,-2,-1,-1,-2,1,-2
1480611281918542,0,1,-2,0,-2,-2,-1,-1
1480611281918542,1,1,0,2,0,1,-2,0
1480611281919545,-3,-2,-2,0,-1,0,-2,0
1480611281919545,-3,0,1,0,1,0,-1,2
1480611281939599,-1,0,0,-1,1,-1,0,-1
1480611281939599,0,2,0,-1,0,-1,0,-1
1480611281940601,1,-1,-1,-2,-2,0,-1,-1
1480611281940601,0,-1,-1,1,2,0,-1,-2
1480611281961662,0,-1,1,0,-2,0,0,3
1480611281961662,-1,-1,-1,-1,-2,-2,0,-1
1480611281962159,-3,0,1,1,0,-2,1,-2
1480611281962159,-1,0,-2,-3,-2,0,0,-3
1480611281975193,0,-3,-2,-1,1,1,0,-2
1480611281975193,-2,-2,0,-2,0,2,-1,-2
1480611281983214,1,0,-1,-2,0,0,-1,-1
1480611281983214,0,-1,-1,-3,-1,-2,2,2
1480611282007279,0,-2,0,1,1,0,0,-2
1480611282007279,0,-1,-1,-1,0,0,-2,-1
1480611282008782,-1,-1,2,2,-1,0,0,0
1480611282008782,-2,-3,-2,-1,-1,1,-4,-2
1480611282021316,-1,-2,1,1,-2,-1,-1,-2
1480611282021316,-1,-1,-1,-1,-1,-2,-1,0
1480611282022319,-2,-1,1,1,-1,-2,1,1
1480611282022319,0,0,-1,-1,0,0,2,1
1480611282035855,-1,-1,0,0,-1,-1,0,0
1480611282035855,-1,-1,0,0,-1,-1,1,-2
1480611282036356,-3,0,-2,-1,-1,-1,0,0
1480611282036356,2,0,-1,-1,-1,-1,-2,-2
1480611282058415,1,1,2,2,2,2,-1,-1
1480611282058415,-1,-1,-1,1,-1,-1,2,-1
1480611282065935,0,0,-1,-1,-1,0,0,0
1480611282065935,0,0,-1,-2,-1,-1,1,-1
1480611282087994,0,-1,-1,-2,-1,0,-1,0
1480611282087994,3,-2,-3,0,1,0,-1,-2
1480611282096019,-2,-3,-1,0,-1,-1,-1,0
1480611282096019,-2,-1,0,0,1,-2,-1,0
1480611282104036,-2,-1,-1,-1,-1,-1,-1,1
1480611282104036,1,2,0,-1,-1,-2,1,0
1480611282105039,1,-1,-3,-2,-1,0,-1,0
1480611282105039,0,0,2,0,-1,0,0,1
1480611282126596,-2,0,-2,2,-3,-1,1,0
1480611282126596,-2,-4,1,3,1,-1,0,-2
1480611282127098,1,1,1,0,0,-2,-2,-2
1480611282127098,0,-1,2,1,0,-1,-2,-2
1480611282141135,0,0,0,-3,-1,-1,0,1
1480611282141135,-1,-2,-1,0,0,2,0,2
1480611282142138,-1,0,-1,-2,1,-1,-1,0
1480611282142138,1,0,-2,1,-2,0,2,-1
1480611282155673,0,-1,-2,-1,0,0,0,-2
1480611282155673,-1,0,-1,-1,-1,1,-1,0
1480611282157678,-1,-1,0,-2,-1,0,0,0
1480611282157678,0,-3,0,-3,-3,-2,-1,0
1480611282179738,-2,0,0,-1,0,-2,-2,-2
1480611282179738,0,1,-3,-1,-4,-1,0,-1
1480611282180740,0,1,-1,2,-2,0,0,0
1480611282180740,-3,0,-1,0,-1,0,0,-1
1480611282225359,1,-1,-1,0,1,0,-2,1
1480611282225359,2,0,0,-1,1,-1,0,0
1480611282225860,1,-3,0,-1,1,-2,0,-1
1480611282225860,-1,-2,0,-1,-1,-1,1,1
1480611282227869,0,0,0,0,-4,-1,1,0
1480611282227869,-2,2,0,0,0,0,-2,-1
1480611282230873,-1,-1,0,-3,-1,-1,-1,-2
1480611282230873,0,0,-2,0,1,-1,0,0
1480611282238393,2,1,1,-2,-1,-2,1,-1
1480611282238393,0,-2,-2,-1,-2,-1,0,-1
1480611282238896,-1,0,-3,0,-1,0,-1,0
1480611282238896,0,0,-2,-3,-1,0,-1,-1
1480611282278500,-2,0,-1,1,2,-2,-2,-2
