timestamp,roll,pitch,yaw
1480611265921221,-1.10336,-0.523109,0.358456
1480611265958319,-1.10336,-0.523109,0.358456
1480611265962330,-1.10333,-0.523066,0.358454
1480611265981889,-1.10333,-0.523066,0.358454
1480611266002938,-1.10418,-0.52298,0.358854
1480611266005445,-1.10437,-0.522913,0.359006
1480611266026000,-1.10362,-0.523052,0.358808
1480611266039537,-1.10362,-0.523052,0.358808
1480611266054075,-1.10353,-0.523172,0.358859
1480611266077136,-1.10405,-0.523197,0.359068
1480611266099701,-1.10422,-0.523195,0.359108
1480611266114237,-1.10411,-0.523034,0.359016
1480611266137296,-1.10419,-0.523152,0.359107
1480611266182917,-1.10419,-0.523152,0.359107
1480611266185424,-1.10427,-0.523269,0.359198
1480611266198960,-1.10427,-0.523269,0.359198
1480611266233552,-1.10427,-0.523269,0.359198
1480611266244080,-1.10436,-0.52315,0.359147
1480611266264635,-1.10419,-0.523152,0.359107
1480611266280679,-1.10419,-0.523152,0.359107
1480611266301234,-1.10427,-0.523269,0.359198
1480611266318779,-1.10436,-0.52315,0.359147
1480611266339835,-1.10436,-0.52315,0.359147
1480611266360890,-1.10436,-0.52315,0.359147
1480611266377435,-1.10436,-0.52315,0.359147
1480611266399996,-1.10436,-0.52315,0.359147
1480611266422053,-1.10436,-0.52315,0.359147
1480611266443109,-1.10436,-0.52315,0.359147
1480611266461157,-1.10438,-0.523085,0.359258
1480611266488230,-1.10436,-0.52315,0.359147
1480611266514299,-1.10419,-0.523152,0.359107
1480611266521318,-1.10436,-0.52315,0.359147
1480611266541873,-1.10436,-0.52315,0.359147
1480611266557414,-1.10438,-0.523085,0.359258
1480611266579974,-1.1043,-0.522968,0.359167
1480611266601029,-1.10438,-0.523085,0.359258
1480611266618076,-1.10436,-0.52315,0.359147
1480611266641137,-1.10484,-0.522756,0.359235
1480611266662192,-1.10486,-0.522691,0.359346
1480611266700294,-1.1043,-0.522527,0.359159
1480611266702800,-1.10305,-0.52278,0.358731
1480611266745414,-1.10305,-0.52278,0.358731
1480611266747921,-1.10313,-0.522898,0.358822
1480611266767472,-1.10359,-0.522569,0.358799
1480611266783014,-1.10361,-0.522504,0.35891
1480611266797052,-1.10378,-0.522502,0.358951
1480611266819611,-1.10322,-0.522778,0.358772
1480611266842171,-1.10303,-0.522845,0.35862
1480611266857712,-1.10303,-0.522845,0.35862
1480611266879772,-1.10394,-0.522768,0.358746
1480611266908347,-1.10394,-0.522768,0.358746
1480611266916368,-1.1034,-0.52254,0.358671
1480611266939931,-1.10323,-0.522542,0.358631
1480611266962493,-1.10321,-0.522606,0.358519
1480611266976529,-1.1032,-0.522498,0.358629
1480611267014630,-1.10337,-0.522496,0.358669
1480611267029670,-1.10337,-0.522496,0.358669
1480611267036689,-1.10337,-0.522496,0.358669
1480611267059750,-1.10323,-0.522542,0.358631
1480611267083313,-1.10323,-0.522542,0.358631
1480611267104870,-1.10323,-0.522542,0.358631
1480611267127430,-1.10332,-0.522422,0.35858
1480611267142470,-1.10332,-0.522422,0.35858
1480611267156507,-1.10316,-0.522424,0.35854
1480611267186089,-1.10323,-0.522542,0.358631
1480611267210651,-1.10316,-0.522424,0.35854
1480611267230707,-1.10332,-0.522422,0.35858
1480611267253265,-1.10334,-0.522358,0.358691
1480611267284347,-1.10332,-0.522422,0.35858
1480611267291367,-1.10332,-0.522422,0.35858
1480611267301392,-1.10375,-0.522395,0.358587
1480611267322950,-1.10375,-0.522395,0.358587
1480611267343504,-1.10344,-0.521894,0.358609
1480611267367068,-1.10283,-0.52172,0.358696
1480611267382614,-1.10267,-0.521829,0.358546
1480611267403665,-1.10267,-0.521829,0.358546
1480611267433243,-1.10267,-0.521829,0.358546
1480611267442268,-1.10264,-0.521786,0.358544
1480611267463826,-1.10283,-0.52172,0.358696
1480611267480369,-1.10283,-0.52172,0.358696
1480611267508945,-1.10217,-0.52218,0.358457
1480611267538523,-1.10208,-0.522299,0.358507
1480611267554566,-1.10247,-0.522133,0.358536
1480611267562087,-1.10264,-0.522131,0.358576
1480611267583142,-1.10266,-0.522066,0.358687
1480611267600689,-1.10263,-0.522023,0.358686
1480611267622246,-1.10264,-0.522131,0.358576
1480611267644807,-1.10264,-0.522131,0.358576
1480611267665864,-1.10264,-0.522131,0.358576
1480611267683409,-1.10258,-0.521949,0.358597
1480611267704966,-1.10258,-0.521949,0.358597
1480611267719505,-1.10272,-0.521904,0.358635
1480611267766130,-1.10255,-0.521905,0.358595
1480611267771143,-1.10255,-0.521905,0.358595
1480611267785682,-1.10255,-0.521905,0.358595
1480611267802727,-1.10272,-0.521904,0.358635
1480611267833308,-1.10272,-0.521904,0.358635
1480611267848348,-1.10258,-0.521949,0.358597
1480611267862386,-1.10258,-0.521949,0.358597
1480611267892465,-1.10272,-0.521904,0.358635
1480611267898983,-1.10272,-0.521904,0.358635
1480611267922044,-1.10272,-0.521904,0.358635
1480611267959643,-1.10275,-0.521947,0.358637
1480611267962152,-1.10258,-0.521949,0.358597
1480611267982706,-1.1025,-0.521831,0.358506
1480611268035345,-1.10269,-0.521765,0.358658
1480611268037852,-1.10215,-0.521428,0.358693
1480611268044870,-1.10198,-0.52143,0.358652
1480611268070439,-1.10198,-0.52143,0.358652
1480611268082471,-1.10198,-0.52143,0.358652
1480611268109542,-1.10198,-0.52143,0.358652
1480611268125586,-1.10215,-0.521428,0.358693
1480611268153159,-1.10215,-0.521428,0.358693
1480611268177223,-1.10215,-0.521428,0.358693
1480611268184742,-1.10198,-0.52143,0.358652
1480611268207804,-1.10198,-0.52143,0.358652
1480611268222342,-1.10215,-0.521428,0.358693
1480611268245906,-1.10215,-0.521428,0.358693
1480611268282002,-1.10215,-0.521428,0.358693
1480611268288017,-1.10198,-0.52143,0.358652
1480611268327624,-1.10198,-0.52143,0.358652
1480611268356201,-1.10215,-0.521428,0.358693
1480611268366225,-1.10217,-0.521364,0.358804
1480611268370737,-1.10226,-0.521244,0.358754
1480611268393300,-1.10226,-0.521244,0.358754
1480611268402322,-1.10217,-0.521364,0.358804
1480611268438919,-1.10215,-0.521428,0.358693
1480611268448946,-1.10215,-0.521428,0.358693
1480611268462984,-1.10234,-0.521362,0.358844
1480611268492562,-1.10226,-0.521244,0.358754
1480611268505596,-1.10234,-0.521362,0.358844
1480611268551719,-1.10234,-0.521362,0.358844
1480611268597842,-1.10215,-0.521428,0.358693
1480611268600849,-1.10234,-0.521362,0.358844
1480611268612381,-1.10226,-0.521244,0.358754
1480611268633437,-1.10234,-0.521362,0.358844
1480611268642461,-1.10215,-0.521428,0.358693
1480611268665023,-1.10275,-0.521226,0.35896
1480611268718162,-1.10294,-0.52116,0.359111
1480611268771805,-1.10294,-0.52116,0.359111
1480611268876082,-1.10233,-0.521426,0.359206
1480611268884103,-1.10302,-0.522363,0.360219
1480611268907666,-1.10332,-0.522661,0.36033
1480611268913181,-1.10323,-0.522435,0.360348
1480611268927719,-1.10323,-0.522435,0.360348
1480611268948275,-1.10323,-0.522435,0.360348
1480611268964819,-1.10323,-0.522435,0.360348
1480611268987378,-1.10323,-0.522435,0.360348
1480611269002420,-1.10323,-0.522435,0.360348
1480611269024478,-1.10323,-0.522435,0.360348
1480611269053554,-1.1034,-0.522433,0.360389
1480611269068094,-1.1034,-0.522433,0.360389
1480611269107698,-1.10323,-0.522435,0.360348
1480611269114718,-1.10323,-0.522435,0.360348
1480611269137277,-1.1034,-0.522433,0.360389
1480611269144797,-1.1034,-0.522433,0.360389
1480611269167357,-1.1034,-0.522433,0.360389
1480611269188414,-1.10348,-0.522551,0.36048
1480611269205458,-1.10329,-0.522617,0.360328
1480611269227015,-1.10346,-0.522615,0.360368
1480611269248072,-1.10348,-0.522551,0.36048
1480611269264616,-1.10362,-0.522505,0.360518
1480611269287175,-1.10345,-0.522507,0.360478
1480611269309736,-1.10343,-0.522572,0.360366
1480611269332296,-1.10351,-0.522689,0.360457
1480611269354855,-1.10351,-0.522689,0.360457
1480611269369896,-1.10442,-0.522344,0.360828
1480611269384935,-1.10499,-0.522271,0.360873
1480611269407495,-1.10454,-0.522364,0.360755
1480611269445095,-1.10353,-0.522625,0.360569
1480611269447603,-1.10353,-0.522625,0.360569
1480611269468659,-1.10416,-0.522466,0.360838
1480611269490718,-1.10433,-0.522464,0.360879
1480611269504755,-1.10416,-0.522466,0.360838
1480611269534835,-1.10424,-0.522583,0.360929
1480611269565416,-1.10424,-0.522583,0.360929
1480611269568926,-1.10421,-0.52254,0.360927
1480611269610536,-1.10438,-0.522538,0.360968
1480611269612542,-1.10438,-0.522538,0.360968
1480611269625576,-1.10438,-0.522538,0.360968
1480611269656157,-1.10438,-0.522538,0.360968
1480611269684733,-1.10369,-0.522515,0.360719
1480611269702281,-1.10386,-0.522513,0.360759
1480611269707293,-1.10386,-0.522513,0.360759
1480611269745897,-1.10388,-0.522448,0.36087
1480611269750909,-1.10386,-0.522513,0.360759
1480611269781992,-1.10386,-0.522513,0.360759
1480611269791518,-1.10402,-0.522511,0.3608
1480611269827112,-1.10404,-0.522446,0.360911
1480611269833129,-1.10404,-0.522446,0.360911
1480611269849672,-1.10404,-0.522446,0.360911
1480611269888783,-1.10388,-0.522448,0.36087
1480611269893289,-1.10386,-0.522513,0.360759
1480611269932894,-1.10404,-0.522446,0.360911
1480611269935401,-1.10404,-0.522446,0.360911
1480611269947432,-1.10402,-0.522403,0.360909
1480611269969491,-1.10418,-0.522401,0.360949
1480611269984030,-1.10402,-0.522403,0.360909
1480611270022131,-1.10402,-0.522403,0.360909
1480611270029652,-1.10402,-0.522403,0.360909
1480611270059731,-1.10413,-0.522327,0.36086
1480611270067755,-1.10472,-0.522189,0.361017
1480611270089309,-1.10472,-0.522189,0.361017
1480611270111369,-1.10426,-0.522518,0.361041
1480611270127412,-1.10385,-0.522482,0.361145
1480611270157491,-1.10378,-0.522364,0.361054
1480611270171027,-1.10432,-0.522324,0.361374
1480611270211637,-1.10432,-0.522324,0.361374
1480611270215647,-1.10432,-0.522324,0.361374
1480611270255251,-1.10432,-0.522324,0.361374
1480611270258760,-1.10432,-0.522324,0.361374
1480611270269789,-1.10432,-0.522324,0.361374
1480611270299871,-1.10432,-0.522324,0.361374
1480611270307391,-1.10429,-0.522281,0.361372
1480611270345491,-1.10432,-0.522324,0.361374
1480611270351005,-1.10429,-0.522281,0.361372
1480611270367049,-1.10448,-0.522214,0.361524
1480611270390110,-1.1044,-0.522097,0.361433
1480611270410665,-1.1044,-0.522097,0.361433
1480611270428712,-1.10426,-0.522142,0.361395
1480611270450272,-1.10448,-0.522214,0.361524
1480611270473832,-1.1044,-0.522097,0.361433
1480611270487368,-1.1044,-0.522097,0.361433
1480611270509427,-1.10432,-0.52198,0.361342
1480611270532488,-1.10443,-0.52214,0.361435
1480611270547528,-1.10426,-0.522142,0.361395
1480611270583123,-1.10426,-0.522142,0.361395
1480611270592148,-1.10418,-0.522025,0.361304
1480611270607688,-1.10435,-0.522023,0.361344
1480611270630254,-1.10435,-0.522023,0.361344
1480611270658323,-1.10443,-0.52214,0.361435
1480611270666847,-1.10426,-0.522142,0.361395
1480611270712468,-1.10443,-0.52214,0.361435
1480611270719987,-1.10435,-0.522023,0.361344
1480611270726505,-1.10437,-0.521958,0.361455
1480611270750067,-1.10435,-0.522023,0.361344
1480611270772127,-1.10443,-0.52214,0.361435
1480611270795188,-1.10443,-0.52214,0.361435
1480611270811230,-1.10435,-0.522023,0.361344
1480611270842314,-1.10381,-0.521687,0.361378
1480611270848830,-1.10307,-0.521763,0.361293
1480611270869886,-1.10307,-0.521763,0.361293
1480611270898966,-1.10307,-0.521763,0.361293
1480611270907987,-1.10307,-0.521763,0.361293
1480611270943582,-1.10307,-0.521763,0.361293
1480611270952105,-1.10326,-0.521696,0.361445
1480611270980681,-1.10324,-0.52176,0.361334
1480611270989705,-1.10307,-0.521763,0.361293
1480611271034324,-1.10307,-0.521763,0.361293
1480611271040841,-1.10307,-0.521763,0.361293
1480611271049364,-1.10324,-0.52176,0.361334
1480611271078441,-1.10318,-0.521579,0.361354
1480611271093482,-1.10318,-0.521579,0.361354
1480611271110526,-1.10324,-0.52176,0.361334
1480611271132084,-1.10318,-0.521579,0.361354
1480611271153139,-1.10318,-0.521579,0.361354
1480611271169683,-1.1031,-0.521461,0.361263
1480611271192244,-1.1031,-0.521461,0.361263
1480611271222324,-1.1031,-0.521461,0.361263
1480611271229845,-1.10318,-0.521579,0.361354
1480611271259924,-1.1031,-0.521461,0.361263
1480611271273462,-1.1031,-0.521461,0.361263
1480611271289502,-1.10329,-0.521394,0.361415
1480611271313067,-1.10329,-0.521394,0.361415
1480611271333119,-1.1031,-0.521461,0.361263
1480611271349662,-1.10318,-0.521579,0.361354
1480611271372223,-1.10326,-0.521351,0.361413
1480611271400798,-1.10326,-0.521351,0.361413
1480611271410326,-1.10343,-0.521349,0.361453
1480611271439903,-1.10326,-0.521351,0.361413
1480611271454441,-1.10334,-0.521469,0.361504
1480611271469982,-1.10334,-0.521469,0.361504
1480611271492042,-1.10343,-0.521349,0.361453
1480611271514601,-1.10343,-0.521349,0.361453
1480611271530143,-1.10343,-0.521349,0.361453
1480611271552201,-1.10343,-0.521349,0.361453
1480611271597823,-1.10343,-0.521349,0.361453
1480611271600330,-1.10293,-0.521432,0.361609
1480611271619881,-1.10249,-0.52159,0.361854
1480611271634420,-1.10287,-0.521724,0.362386
1480611271649962,-1.10315,-0.522151,0.362748
1480611271674026,-1.10344,-0.522577,0.36311
1480611271695082,-1.10357,-0.522941,0.363544
1480611271733185,-1.10379,-0.523077,0.364036
1480611271738196,-1.10388,-0.523367,0.364381
1480611271756244,-1.10363,-0.523662,0.364644
1480611271769279,-1.10383,-0.523971,0.364916
1480611271799861,-1.10401,-0.524582,0.365219
1480611271822420,-1.10431,-0.524771,0.365441
1480611271828938,-1.10429,-0.5249,0.365693
1480611271853502,-1.10385,-0.525167,0.365828
1480611271875561,-1.10362,-0.525773,0.365849
1480611271903135,-1.10392,-0.526403,0.36608
1480611271912162,-1.10392,-0.526403,0.36608
1480611271934719,-1.10394,-0.526338,0.366192
1480611271955774,-1.10403,-0.526218,0.366141
1480611271972319,-1.10403,-0.526218,0.366141
1480611271995381,-1.10386,-0.526221,0.3661
1480611272018943,-1.10355,-0.527055,0.366063
1480611272040501,-1.10339,-0.527057,0.366022
1480611272062059,-1.10357,-0.526991,0.366174
1480611272076096,-1.10357,-0.526991,0.366174
1480611272093141,-1.10357,-0.526991,0.366174
1480611272114698,-1.10357,-0.526991,0.366174
1480611272137258,-1.10355,-0.527055,0.366063
1480611272152298,-1.10335,-0.527221,0.366549
1480611272180873,-1.10308,-0.527551,0.367089
1480611272196417,-1.10324,-0.527851,0.367636
1480611272212460,-1.1033,-0.528098,0.36798
1480611272243540,-1.10328,-0.528163,0.367868
1480611272255573,-1.10322,-0.528391,0.368285
1480611272272116,-1.1032,-0.528426,0.368561
1480611272294676,-1.1032,-0.528426,0.368561
1480611272317237,-1.1032,-0.528426,0.368561
1480611272332277,-1.10318,-0.528491,0.368449
1480611272354335,-1.10242,-0.528872,0.368393
1480611272378901,-1.10225,-0.528875,0.368352
1480611272393440,-1.10225,-0.528875,0.368352
1480611272415499,-1.10234,-0.528754,0.368301
1480611272437055,-1.10239,-0.528828,0.368391
1480611272475157,-1.10239,-0.528828,0.368391
1480611272480170,-1.1022,-0.528895,0.368238
1480611272498219,-1.10245,-0.529011,0.368371
1480611272514261,-1.10245,-0.529011,0.368371
1480611272534816,-1.10245,-0.529011,0.368371
1480611272565397,-1.10228,-0.529013,0.36833
1480611272572917,-1.10173,-0.528917,0.368505
1480611272594976,-1.10067,-0.52877,0.369332
1480611272617034,-1.09987,-0.528942,0.370159
1480611272631575,-1.09981,-0.528797,0.37093
1480611272654634,-1.10018,-0.528968,0.371743
1480611272677194,-1.09988,-0.52912,0.372779
1480611272692238,-1.09848,-0.529569,0.373702
1480611272714794,-1.09754,-0.529685,0.374601
1480611272737356,-1.0978,-0.529601,0.375344
1480611272751893,-1.09853,-0.529383,0.375929
1480611272777461,-1.09853,-0.529383,0.375929
1480611272828095,-1.09814,-0.529728,0.376155
1480611272831104,-1.09776,-0.530074,0.376381
1480611272843637,-1.09776,-0.530074,0.376381
1480611272864693,-1.09793,-0.530071,0.376422
1480611272878731,-1.09793,-0.530071,0.376422
1480611272894773,-1.09793,-0.530071,0.376422
1480611272926859,-1.09741,-0.530491,0.37622
1480611272938390,-1.09749,-0.530609,0.376313
1480611272969472,-1.09748,-0.5305,0.376422
1480611272976991,-1.0977,-0.530266,0.376045
1480611272998549,-1.09776,-0.530034,0.375628
1480611273028128,-1.09776,-0.530034,0.375628
1480611273044672,-1.09776,-0.530034,0.375628
1480611273058210,-1.09768,-0.529916,0.375536
1480611273089792,-1.09773,-0.529896,0.37565
1480611273111350,-1.09771,-0.529961,0.375538
1480611273118870,-1.09754,-0.529963,0.375497
1480611273134912,-1.09754,-0.529963,0.375497
1480611273173515,-1.09801,-0.529911,0.375618
1480611273178529,-1.09798,-0.529866,0.375616
1480611273202091,-1.09815,-0.529863,0.375657
1480611273223147,-1.09815,-0.529863,0.375657
1480611273255232,-1.09798,-0.529866,0.375616
1480611273261750,-1.0985,-0.53006,0.375605
1480611273277291,-1.09842,-0.529942,0.375513
1480611273299851,-1.09856,-0.529895,0.375552
1480611273314890,-1.09861,-0.529875,0.375666
1480611273344971,-1.09861,-0.529875,0.375666
1480611273359509,-1.09842,-0.529942,0.375513
1480611273375051,-1.09834,-0.529824,0.375421
1480611273397110,-1.09853,-0.529757,0.375574
1480611273425686,-1.09845,-0.529639,0.375482
1480611273434711,-1.09845,-0.529639,0.375482
1480611273457270,-1.09828,-0.529642,0.375441
1480611273495873,-1.09831,-0.529686,0.375443
1480611273500885,-1.09828,-0.529642,0.375441
1480611273532470,-1.09833,-0.529622,0.375555
1480611273547509,-1.09825,-0.529504,0.375463
1480611273556032,-1.09825,-0.529504,0.375463
1480611273583104,-1.09825,-0.529504,0.375463
1480611273599652,-1.09825,-0.529504,0.375463
1480611273622208,-1.09825,-0.529504,0.375463
1480611273637249,-1.09825,-0.529504,0.375463
1480611273659808,-1.09817,-0.529386,0.375371
1480611273674848,-1.09825,-0.529504,0.375463
1480611273697411,-1.09825,-0.529504,0.375463
1480611273719467,-1.09825,-0.529504,0.375463
1480611273735009,-1.09833,-0.529383,0.375412
1480611273772107,-1.09835,-0.529319,0.375524
1480611273779629,-1.09835,-0.529319,0.375524
1480611273825249,-1.09827,-0.529201,0.375432
1480611273827755,-1.09746,-0.529166,0.375253
1480611273863852,-1.0973,-0.529168,0.375212
1480611273869369,-1.09746,-0.529166,0.375253
1480611273877387,-1.09748,-0.529102,0.375365
1480611273899949,-1.09746,-0.529166,0.375253
1480611273921003,-1.09746,-0.529166,0.375253
1480611273937548,-1.09746,-0.529166,0.375253
1480611273962114,-1.09748,-0.529102,0.375365
1480611273982166,-1.0974,-0.528984,0.375273
1480611273997206,-1.0974,-0.528984,0.375273
1480611274041824,-1.0974,-0.528984,0.375273
1480611274051350,-1.09748,-0.529102,0.375365
1480611274057365,-1.0974,-0.528984,0.375273
1480611274102988,-1.09757,-0.528981,0.375314
1480611274105494,-1.09757,-0.528981,0.375314
1480611274129558,-1.09759,-0.528917,0.375426
1480611274139584,-1.09735,-0.52891,0.375183
1480611274170166,-1.09735,-0.52891,0.375183
1480611274183203,-1.09737,-0.528846,0.375295
1480611274199745,-1.09746,-0.528725,0.375244
1480611274220801,-1.09746,-0.528725,0.375244
1480611274238348,-1.09729,-0.528728,0.375203
1480611274259905,-1.09729,-0.528728,0.375203
1480611274311041,-1.09729,-0.528728,0.375203
1480611274335105,-1.09729,-0.528728,0.375203
1480611274337612,-1.09729,-0.528728,0.375203
1480611274357165,-1.09723,-0.528546,0.375223
1480611274380226,-1.09721,-0.52861,0.375111
1480611274385238,-1.09721,-0.52861,0.375111
1480611274402284,-1.09723,-0.528546,0.375223
1480611274417825,-1.0974,-0.528543,0.375264
1480611274448407,-1.0974,-0.528543,0.375264
1480611274462946,-1.0974,-0.528543,0.375264
1480611274478487,-1.09723,-0.528546,0.375223
1480611274499544,-1.09726,-0.52859,0.375225
1480611274522103,-1.09787,-0.528144,0.375351
1480611274536641,-1.09789,-0.52808,0.375463
1480611274559703,-1.09742,-0.528039,0.375367
1480611274597304,-1.09674,-0.528195,0.375371
1480611274606327,-1.09657,-0.528198,0.37533
1480611274619361,-1.09657,-0.528198,0.37533
1480611274642423,-1.09674,-0.528195,0.375371
1480611274657964,-1.09666,-0.528077,0.375279
1480611274686039,-1.09668,-0.528013,0.375391
1480611274702081,-1.09674,-0.528195,0.375371
1480611274724641,-1.09674,-0.528195,0.375371
1480611274740684,-1.09674,-0.528195,0.375371
1480611274772268,-1.09668,-0.528013,0.375391
1480611274784802,-1.09685,-0.52801,0.375432
1480611274799844,-1.09685,-0.52801,0.375432
1480611274822904,-1.09634,-0.528366,0.375342
1480611274843457,-1.09634,-0.528366,0.375342
1480611274892087,-1.09626,-0.528248,0.37525
1480611274896097,-1.09645,-0.528181,0.375403
1480611274925677,-1.09603,-0.528214,0.375397
1480611274936206,-1.09603,-0.528214,0.375397
1480611274958263,-1.09586,-0.528217,0.375356
1480611274963276,-1.09603,-0.528214,0.375397
1480611274979821,-1.09603,-0.528214,0.375397
1480611275002381,-1.09595,-0.528096,0.375305
1480611275023436,-1.09603,-0.528214,0.375397
1480611275039980,-1.09605,-0.52859,0.375517
1480611275062040,-1.09605,-0.52859,0.375517
1480611275083095,-1.09607,-0.528526,0.375629
1480611275099643,-1.09624,-0.528524,0.37567
1480611275143757,-1.09624,-0.528524,0.37567
1480611275162307,-1.09607,-0.528526,0.375629
1480611275167820,-1.09615,-0.528644,0.375721
1480611275198665,-1.09629,-0.528597,0.375759
1480611275203178,-1.09621,-0.528479,0.375667
1480611275220223,-1.09621,-0.528479,0.375667
1480611275243285,-1.09621,-0.528479,0.375667
1480611275265343,-1.09621,-0.528479,0.375667
1480611275285898,-1.09671,-0.528564,0.375766
1480611275301940,-1.09673,-0.5285,0.375877
1480611275332020,-1.09682,-0.52838,0.375827
1480611275340041,-1.09619,-0.528516,0.375944
1480611275369620,-1.096,-0.528583,0.375791
1480611275384660,-1.09635,-0.528846,0.376103
1480611275399199,-1.09712,-0.528874,0.376556
1480611275438804,-1.09728,-0.528871,0.376597
1480611275483423,-1.0973,-0.528807,0.376709
1480611275488937,-1.0973,-0.528807,0.376709
1480611275504479,-1.0972,-0.528992,0.376648
1480611275519017,-1.09736,-0.528989,0.376689
1480611275542079,-1.09736,-0.528989,0.376689
1480611275572159,-1.09742,-0.528824,0.376636
1480611275587198,-1.09728,-0.528871,0.376597
1480611275610762,-1.09728,-0.528871,0.376597
1480611275632319,-1.09798,-0.528889,0.376849
1480611275678442,-1.0979,-0.528771,0.376757
1480611275691977,-1.09806,-0.52866,0.376907
1480611275715540,-1.09806,-0.52866,0.376907
1480611275724564,-1.09789,-0.528662,0.376866
1480611275746124,-1.09787,-0.528727,0.376754
1480611275750633,-1.09795,-0.528844,0.376846
1480611275765674,-1.09812,-0.528842,0.376887
1480611275796255,-1.09806,-0.52866,0.376907
1480611275806282,-1.09806,-0.52866,0.376907
1480611275827338,-1.09803,-0.528724,0.376795
1480611275842379,-1.09812,-0.528842,0.376887
1480611275864938,-1.09812,-0.528842,0.376887
1480611275886996,-1.09806,-0.52866,0.376907
1480611275902538,-1.09806,-0.52866,0.376907
1480611275947658,-1.09806,-0.52866,0.376907
1480611275961195,-1.09812,-0.528842,0.376887
1480611275986261,-1.09812,-0.528842,0.376887
1480611275991274,-1.09806,-0.52866,0.376907
1480611276005813,-1.09822,-0.528657,0.376948
1480611276037397,-1.09741,-0.528622,0.37677
1480611276045924,-1.09666,-0.528769,0.376572
1480611276067479,-1.09657,-0.52889,0.376623
1480611276083017,-1.09716,-0.528746,0.37678
1480611276113599,-1.09734,-0.528679,0.376933
1480611276125631,-1.09734,-0.528679,0.376933
1480611276142677,-1.09734,-0.528679,0.376933
1480611276164736,-1.09724,-0.528864,0.376872
1480611276187295,-1.09724,-0.528864,0.376872
1480611276225898,-1.09724,-0.528864,0.376872
1480611276231413,-1.09793,-0.528534,0.377089
1480611276270015,-1.09793,-0.528534,0.377089
1480611276272522,-1.09796,-0.528579,0.377092
1480611276286058,-1.09749,-0.52874,0.376862
1480611276307114,-1.09674,-0.52854,0.37663
1480611276321653,-1.09691,-0.528537,0.376671
1480611276344714,-1.09665,-0.52822,0.376673
1480611276367274,-1.09604,-0.528082,0.376371
1480611276381312,-1.09588,-0.528085,0.376329
1480611276404875,-1.09591,-0.528129,0.376332
1480611276458517,-1.09607,-0.528126,0.376373
1480611276465535,-1.09607,-0.528126,0.376373
1480611276467541,-1.09607,-0.528126,0.376373
1480611276488597,-1.09607,-0.528126,0.376373
1480611276503136,-1.09591,-0.528129,0.376332
1480611276538229,-1.09591,-0.528129,0.376332
1480611276547254,-1.09607,-0.528126,0.376373
1480611276585354,-1.09606,-0.528018,0.376482
1480611276587861,-1.09606,-0.528018,0.376482
1480611276636992,-1.09604,-0.528082,0.376371
1480611276643008,-1.09591,-0.528129,0.376332
1480611276653536,-1.09607,-0.528126,0.376373
1480611276667072,-1.09604,-0.528082,0.376371
1480611276695650,-1.09674,-0.527861,0.376479
1480611276718210,-1.09674,-0.527861,0.376479
1480611276733749,-1.09591,-0.52789,0.376189
1480611276764331,-1.09523,-0.528047,0.376193
1480611276779874,-1.09523,-0.528047,0.376193
1480611276787392,-1.09595,-0.528001,0.376556
1480611276815968,-1.0968,-0.527908,0.376957
1480611276825493,-1.0968,-0.527908,0.376957
1480611276861591,-1.09678,-0.527972,0.376845
1480611276875627,-1.0968,-0.527908,0.376957
1480611276898688,-1.0968,-0.527908,0.376957
1480611276916234,-1.0968,-0.527908,0.376957
1480611276958848,-1.09698,-0.528106,0.376864
1480611276966870,-1.09681,-0.528109,0.376823
1480611276995450,-1.09681,-0.528109,0.376823
1480611277014496,-1.09681,-0.528109,0.376823
1480611277027531,-1.09692,-0.527925,0.376884
1480611277033547,-1.09692,-0.527925,0.376884
1480611277055605,-1.09692,-0.527925,0.376884
1480611277065632,-1.09692,-0.527925,0.376884
1480611277087690,-1.09692,-0.527925,0.376884
1480611277115765,-1.09692,-0.527925,0.376884
1480611277138325,-1.09692,-0.527925,0.376884
1480611277147349,-1.09692,-0.527925,0.376884
1480611277177430,-1.09692,-0.527925,0.376884
1480611277184949,-1.09692,-0.527925,0.376884
1480611277207009,-1.09692,-0.527925,0.376884
1480611277229570,-1.09708,-0.527922,0.376925
1480611277246613,-1.097,-0.527804,0.376833
1480611277280703,-1.09692,-0.527925,0.376884
1480611277289729,-1.09692,-0.527925,0.376884
1480611277312792,-1.09692,-0.527925,0.376884
1480611277333344,-1.09684,-0.527807,0.376792
1480611277349388,-1.09702,-0.52774,0.376945
1480611277365430,-1.09702,-0.52774,0.376945
1480611277388491,-1.09739,-0.527871,0.377004
1480611277417568,-1.09739,-0.527871,0.377004
1480611277424086,-1.09731,-0.527754,0.376912
1480611277455670,-1.09725,-0.527572,0.376932
1480611277470710,-1.09725,-0.527572,0.376932
1480611277507809,-1.09725,-0.527572,0.376932
1480611277522848,-1.09716,-0.527693,0.376983
1480611277561952,-1.09716,-0.527693,0.376983
1480611277574987,-1.09725,-0.527572,0.376932
1480611277577494,-1.09725,-0.527572,0.376932
1480611277590531,-1.09725,-0.527572,0.376932
1480611277604066,-1.09725,-0.527572,0.376932
1480611277634144,-1.09725,-0.527572,0.376932
1480611277651189,-1.09725,-0.527572,0.376932
1480611277702827,-1.09742,-0.527569,0.376973
1480611277705334,-1.09744,-0.527505,0.377085
1480611277711351,-1.09725,-0.527572,0.376932
1480611277755467,-1.09725,-0.527572,0.376932
1480611277757473,-1.09725,-0.527572,0.376932
1480611277777025,-1.09736,-0.527387,0.376993
1480611277792068,-1.09736,-0.527387,0.376993
1480611277813123,-1.09736,-0.527387,0.376993
1480611277837185,-1.09736,-0.527387,0.376993
1480611277850720,-1.09722,-0.527434,0.376955
1480611277882305,-1.09722,-0.527434,0.376955
1480611277889825,-1.09714,-0.527316,0.376863
1480611277918401,-1.09733,-0.527249,0.377016
1480611277927424,-1.09716,-0.527252,0.376974
1480611277949989,-1.09714,-0.527316,0.376863
1480611277970540,-1.09714,-0.527316,0.376863
1480611277987083,-1.09714,-0.527316,0.376863
1480611278009643,-1.09708,-0.527134,0.376882
1480611278033707,-1.09708,-0.527134,0.376882
1480611278071311,-1.09708,-0.527134,0.376882
1480611278075820,-1.09708,-0.527134,0.376882
1480611278098381,-1.09706,-0.527198,0.376771
1480611278106401,-1.09708,-0.527134,0.376882
1480611278129965,-1.09708,-0.527134,0.376882
1480611278152021,-1.09708,-0.527134,0.376882
1480611278167564,-1.097,-0.527016,0.37679
1480611278189622,-1.09703,-0.52706,0.376793
1480611278212187,-1.09652,-0.527215,0.376838
1480611278226721,-1.09654,-0.527151,0.37695
1480611278249783,-1.09691,-0.52711,0.37723
1480611278277858,-1.09735,-0.527252,0.377491
1480611278305435,-1.09743,-0.52737,0.377583
1480611278309441,-1.09743,-0.52737,0.377583
1480611278332503,-1.09757,-0.527322,0.377621
1480611278354561,-1.09757,-0.527322,0.377621
1480611278393665,-1.0976,-0.527367,0.377624
1480611278398177,-1.09757,-0.527322,0.377621
1480611278406699,-1.09757,-0.527322,0.377621
1480611278429762,-1.09757,-0.527322,0.377621
1480611278452822,-1.09723,-0.527235,0.377565
1480611278466358,-1.09725,-0.527171,0.377676
1480611278495938,-1.09725,-0.527171,0.377676
1480611278535044,-1.09723,-0.527235,0.377565
1480611278570636,-1.09728,-0.527309,0.377654
1480611278593196,-1.09723,-0.527235,0.377565
1480611278603724,-1.09725,-0.527171,0.377676
1480611278604225,-1.09722,-0.527127,0.377674
1480611278608236,-1.09725,-0.527171,0.377676
1480611278618764,-1.09723,-0.527235,0.377565
1480611278637815,-1.09731,-0.527353,0.377657
1480611278655365,-1.09731,-0.527353,0.377657
1480611278682934,-1.0973,-0.527245,0.377766
1480611278702487,-1.0973,-0.527245,0.377766
1480611278720034,-1.09728,-0.527309,0.377654
1480611278735073,-1.09728,-0.527309,0.377654
1480611278762647,-1.09728,-0.527309,0.377654
1480611278780193,-1.09728,-0.527309,0.377654
1480611278820801,-1.09728,-0.527309,0.377654
1480611278865421,-1.09728,-0.527309,0.377654
1480611278868428,-1.09728,-0.527309,0.377654
1480611278875447,-1.09736,-0.527427,0.377746
1480611278886476,-1.09736,-0.527427,0.377746
1480611278901516,-1.09753,-0.527424,0.377787
1480611278922573,-1.09813,-0.527215,0.378055
1480611278937613,-1.09813,-0.527215,0.378055
1480611278960173,-1.09733,-0.527621,0.377886
1480611278975212,-1.09736,-0.527665,0.377889
1480611278997771,-1.09749,-0.527618,0.377927
1480611279022839,-1.09823,-0.527508,0.378402
1480611279035372,-1.09823,-0.527508,0.378402
1480611279057431,-1.09823,-0.527508,0.378402
1480611279098541,-1.09823,-0.527508,0.378402
1480611279127116,-1.09828,-0.527581,0.378491
1480611279129623,-1.0982,-0.527463,0.378399
1480611279141655,-1.09836,-0.52746,0.37844
1480611279162711,-1.09887,-0.527545,0.378538
1480611279177752,-1.09887,-0.527545,0.378538
1480611279217356,-1.09836,-0.52746,0.37844
1480611279219362,-1.09836,-0.52746,0.37844
1480611279237409,-1.09853,-0.527457,0.378481
1480611279268994,-1.09853,-0.527457,0.378481
1480611279275010,-1.09853,-0.527457,0.378481
1480611279315618,-1.09853,-0.527457,0.378481
1480611279320130,-1.09853,-0.527457,0.378481
1480611279335170,-1.0985,-0.527413,0.378479
1480611279357729,-1.0985,-0.527413,0.378479
1480611279384301,-1.0985,-0.527413,0.378479
1480611279398839,-1.0985,-0.527413,0.378479
1480611279424909,-1.09842,-0.527642,0.378421
1480611279448974,-1.09858,-0.527531,0.378571
1480611279455491,-1.0985,-0.527413,0.378479
1480611279494093,-1.0985,-0.527413,0.378479
1480611279500108,-1.09858,-0.527531,0.378571
1480611279516653,-1.09856,-0.527595,0.378459
1480611279545229,-1.09856,-0.527595,0.378459
1480611279560269,-1.09875,-0.527528,0.378612
1480611279600877,-1.09867,-0.52741,0.37852
1480611279604887,-1.09875,-0.527528,0.378612
1480611279629453,-1.09875,-0.527528,0.378612
1480611279642488,-1.09856,-0.527595,0.378459
1480611279674071,-1.09928,-0.52731,0.378679
1480611279689112,-1.09922,-0.527128,0.378698
1480611279696632,-1.09872,-0.527043,0.3786
1480611279734231,-1.0979,-0.527248,0.378566
1480611279748269,-1.09773,-0.527251,0.378525
1480611279779854,-1.09832,-0.527453,0.378715
1480611279782861,-1.09832,-0.527453,0.378715
1480611279799907,-1.09826,-0.527271,0.378734
1480611279816451,-1.09843,-0.527268,0.378775
1480611279837506,-1.09834,-0.527389,0.378827
1480611279868087,-1.09832,-0.527453,0.378715
1480611279876610,-1.09832,-0.527453,0.378715
1480611279922232,-1.09832,-0.527453,0.378715
1480611279924738,-1.09851,-0.527386,0.378868
1480611279936770,-1.09834,-0.527389,0.378827
1480611279964845,-1.09832,-0.527453,0.378715
1480611279979885,-1.09832,-0.527453,0.378715
1480611279998434,-1.09834,-0.527389,0.378827
1480611280017485,-1.09851,-0.527386,0.378868
1480611280053582,-1.09843,-0.527268,0.378775
1480611280062606,-1.09826,-0.527271,0.378734
1480611280077645,-1.09826,-0.527271,0.378734
1480611280100205,-1.09832,-0.527453,0.378715
1480611280124270,-1.09829,-0.527316,0.378737
1480611280147832,-1.09829,-0.527316,0.378737
1480611280160364,-1.09812,-0.527319,0.378696
1480611280199469,-1.09812,-0.527319,0.378696
1480611280201976,-1.09812,-0.527319,0.378696
1480611280244591,-1.09812,-0.527319,0.378696
1480611280247096,-1.09804,-0.527201,0.378604
1480611280259128,-1.09821,-0.527198,0.378645
1480611280280185,-1.09821,-0.527198,0.378645
1480611280302744,-1.09804,-0.527201,0.378604
1480611280320291,-1.09804,-0.527201,0.378604
1480611280339842,-1.09804,-0.527201,0.378604
1480611280365411,-1.09821,-0.527198,0.378645
1480611280377443,-1.09804,-0.527201,0.378604
1480611280407523,-1.09804,-0.527201,0.378604
1480611280431587,-1.09804,-0.527201,0.378604
1480611280437603,-1.09854,-0.527285,0.378702
1480611280463673,-1.09854,-0.527285,0.378702
1480611280482723,-1.09792,-0.527184,0.378677
1480611280505282,-1.0971,-0.527389,0.378643
1480611280520323,-1.09694,-0.527392,0.378602
1480611280567448,-1.097,-0.527574,0.378582
1480611280570457,-1.097,-0.527574,0.378582
1480611280579981,-1.0971,-0.527389,0.378643
1480611280603043,-1.0971,-0.527389,0.378643
1480611280619087,-1.09718,-0.527507,0.378735
1480611280640141,-1.09716,-0.527571,0.378623
1480611280673730,-1.097,-0.527574,0.378582
1480611280679246,-1.09716,-0.527571,0.378623
1480611280700301,-1.0971,-0.527389,0.378643
1480611280722359,-1.0971,-0.527389,0.378643
1480611280740408,-1.0971,-0.527389,0.378643
1480611280759963,-1.09716,-0.527571,0.378623
1480611280785528,-1.09716,-0.527571,0.378623
1480611280800568,-1.09715,-0.527463,0.378732
1480611280821624,-1.0971,-0.527389,0.378643
1480611280845688,-1.09707,-0.527345,0.37864
1480611280859225,-1.0971,-0.527389,0.378643
1480611280880280,-1.09718,-0.527507,0.378735
1480611280909861,-1.0971,-0.527389,0.378643
1480611280941944,-1.0971,-0.527389,0.378643
1480611280944451,-1.0971,-0.527389,0.378643
1480611280962499,-1.0971,-0.527389,0.378643
1480611280980547,-1.09718,-0.527507,0.378735
1480611281003609,-1.09718,-0.527507,0.378735
1480611281022660,-1.09707,-0.527345,0.37864
1480611281076302,-1.09724,-0.527342,0.378681
1480611281085827,-1.09724,-0.527342,0.378681
1480611281089841,-1.0971,-0.527389,0.378643
1480611281107886,-1.0971,-0.527389,0.378643
1480611281119918,-1.0971,-0.527389,0.378643
1480611281149998,-1.09726,-0.527278,0.378793
1480611281161529,-1.09726,-0.527278,0.378793
1480611281180078,-1.09726,-0.527278,0.378793
1480611281202639,-1.09724,-0.527342,0.378681
1480611281220686,-1.0971,-0.527389,0.378643
1480611281247759,-1.09818,-0.527127,0.379031
1480611281263801,-1.09827,-0.527006,0.37898
1480611281280345,-1.09761,-0.526861,0.378953
1480611281299898,-1.09666,-0.527113,0.378881
1480611281325464,-1.09666,-0.527113,0.378881
1480611281342008,-1.0971,-0.527254,0.379141
1480611281367577,-1.09718,-0.527133,0.37909
1480611281386126,-1.09715,-0.527089,0.379088
1480611281416708,-1.09715,-0.527089,0.379088
1480611281429240,-1.09723,-0.527207,0.37918
1480611281444286,-1.09723,-0.527207,0.37918
1480611281460324,-1.09723,-0.527207,0.37918
1480611281479876,-1.09787,-0.526803,0.379307
1480611281502435,-1.09787,-0.526803,0.379307
1480611281520484,-1.09787,-0.526803,0.379307
1480611281541540,-1.09734,-0.527022,0.37924
1480611281573123,-1.09734,-0.527022,0.37924
1480611281588164,-1.09734,-0.527022,0.37924
1480611281616239,-1.09736,-0.526958,0.379352
1480611281622756,-1.09728,-0.52684,0.37926
1480611281640302,-1.09728,-0.52684,0.37926
1480611281662863,-1.09728,-0.52684,0.37926
1480611281682414,-1.09728,-0.52684,0.37926
1480611281722020,-1.09745,-0.526837,0.379301
1480611281724526,-1.09745,-0.526837,0.379301
1480611281742574,-1.09728,-0.52684,0.37926
1480611281768143,-1.09728,-0.52684,0.37926
1480611281781682,-1.09728,-0.52684,0.37926
1480611281805241,-1.09745,-0.526837,0.379301
1480611281825294,-1.09747,-0.526773,0.379413
1480611281848857,-1.09739,-0.526655,0.379321
1480611281862393,-1.09745,-0.526837,0.379301
1480611281893977,-1.09731,-0.526884,0.379263
1480611281918041,-1.09728,-0.52684,0.37926
1480611281939097,-1.09739,-0.526655,0.379321
1480611281952633,-1.09739,-0.526655,0.379321
1480611281963162,-1.09739,-0.526655,0.379321
1480611281984217,-1.09739,-0.526655,0.379321
1480611282009785,-1.09739,-0.526655,0.379321
1480611282022820,-1.09739,-0.526655,0.379321
1480611282042873,-1.09739,-0.526655,0.379321
1480611282067438,-1.09791,-0.526675,0.37953
1480611282097018,-1.09822,-0.526625,0.37961
1480611282106041,-1.09822,-0.526625,0.37961
1480611282128103,-1.09749,-0.526709,0.379525
1480611282143140,-1.097,-0.5268,0.379682
1480611282178736,-1.097,-0.5268,0.379682
1480611282200292,-1.097,-0.5268,0.379682
1480611282226864,-1.097,-0.5268,0.379682
1480611282231876,-1.09705,-0.526874,0.379771
1480611282244911,-1.09705,-0.526874,0.379771
1480611282280505,-1.09722,-0.526871,0.379812
1480611282284015,-1.09722,-0.526871,0.379812
1480611282312591,-1.0972,-0.526935,0.3797
1480611282336654,-1.09703,-0.526938,0.379659
1480611282412858,-1.09703,-0.526938,0.379659
1480611282415364,-1.09694,-0.526618,0.379702
1480611282421882,-1.09694,-0.526618,0.379702
1480611282450959,-1.09694,-0.526618,0.379702
1480611282464495,-1.09685,-0.526739,0.379753
1480611282467002,-1.09694,-0.526618,0.379702
1480611282504601,-1.09694,-0.526618,0.379702
1480611282548218,-1.09696,-0.526555,0.379813
1480611282551727,-1.09696,-0.526555,0.379813
1480611282555236,-1.09677,-0.526622,0.37966
1480611282593338,-1.09677,-0.526622,0.37966
1480611282690095,-1.09694,-0.526618,0.379702
1480611282692602,-1.09696,-0.526555,0.379813
1480611282735717,-1.0971,-0.526507,0.379852
1480611282743739,-1.0971,-0.526507,0.379852
1480611282787855,-1.0971,-0.526507,0.379852
1480611282790362,-1.0971,-0.526507,0.379852
1480611282832474,-1.09716,-0.526689,0.379832
1480611282882107,-1.0971,-0.526507,0.379852
1480611282967833,-1.0971,-0.526507,0.379852
1480611282970341,-1.09752,-0.52682,0.379891
1480611282976357,-1.09687,-0.526676,0.379864
1480611283012453,-1.09687,-0.526676,0.379864
1480611283014458,-1.09687,-0.526676,0.379864
1480611283049551,-1.0971,-0.526854,0.379886
1480611283053061,-1.09701,-0.526628,0.379903
1480611283065594,-1.09701,-0.526628,0.379903
1480611283110214,-1.09709,-0.526746,0.379995
1480611283153829,-1.09709,-0.526746,0.379995
1480611283178394,-1.09707,-0.52681,0.379883
1480611283223514,-1.09726,-0.526743,0.380036
1480611283245072,-1.0967,-0.526238,0.379815
1480611283252090,-1.09668,-0.526302,0.379703
1480611283254597,-1.09676,-0.52642,0.379795
1480611283290191,-1.0967,-0.526238,0.379815
1480611283295204,-1.09687,-0.526235,0.379856
1480611283340327,-1.09687,-0.526235,0.379856
1480611283392464,-1.09687,-0.526235,0.379856
1480611283432570,-1.09687,-0.526235,0.379856
1480611283529328,-1.09681,-0.526054,0.379875
1480611283568432,-1.09687,-0.526235,0.379856
1480611283620069,-1.09695,-0.526006,0.379913
1480611283658672,-1.09711,-0.526003,0.379954
1480611283663686,-1.09742,-0.525953,0.380034
1480611283711813,-1.09742,-0.525953,0.380034
1480611283859205,-1.09666,-0.525993,0.379946
1480611283890789,-1.0964,-0.525916,0.380091
1480611283897307,-1.09636,-0.526017,0.380256
1480611283905328,-1.09686,-0.526101,0.380354
1480611283928389,-1.0965,-0.52597,0.380295
1480611283947440,-1.09618,-0.525819,0.38035
1480611283970000,-1.0961,-0.525701,0.380258
1480611283989552,-1.09618,-0.525819,0.38035
1480611284122907,-1.09618,-0.525819,0.38035
1480611284126920,-1.09618,-0.525819,0.38035
1480611284131931,-1.0961,-0.525701,0.380258
1480611284132934,-1.09618,-0.525819,0.38035
1480611284165520,-1.09618,-0.525819,0.38035
1480611284176550,-1.09627,-0.525698,0.380299
1480611284206630,-1.09624,-0.525654,0.380296
1480611284211643,-1.09624,-0.525654,0.380296
1480611284260272,-1.09624,-0.525654,0.380296
1480611284265787,-1.09624,-0.525654,0.380296
1480611284302887,-1.09624,-0.525654,0.380296
1480611284353520,-1.09624,-0.525654,0.380296
1480611284398140,-1.09643,-0.525587,0.380449
1480611284423205,-1.09626,-0.52559,0.380408
1480611284444765,-1.09657,-0.525274,0.380733
1480611284447771,-1.09639,-0.525341,0.38058
1480611284487878,-1.09639,-0.525341,0.38058
1480611284497905,-1.09639,-0.525341,0.38058
1480611284535003,-1.09655,-0.525338,0.380621
1480611284537009,-1.09657,-0.525274,0.380733
1480611284586140,-1.09657,-0.525274,0.380733
1480611284596166,-1.09663,-0.525456,0.380713
1480611284640284,-1.09615,-0.525749,0.380736
1480611284645798,-1.09615,-0.525749,0.380736
1480611284671867,-1.09702,-0.52559,0.381248
1480611284676882,-1.09694,-0.525472,0.381156
1480611284686907,-1.09583,-0.52577,0.381797
1480611284722001,-1.096,-0.525834,0.382202
1480611284730523,-1.09669,-0.525477,0.382807
1480611284769127,-1.09666,-0.525433,0.382804
1480611284774139,-1.09666,-0.525433,0.382804
1480611284804721,-1.09661,-0.525666,0.383222
1480611284813243,-1.09656,-0.525898,0.383641
1480611284865382,-1.09689,-0.525959,0.384087
1480611284900977,-1.09737,-0.525971,0.384571
1480611284926545,-1.09732,-0.526204,0.384989
1480611284941585,-1.09732,-0.526204,0.384989
1480611284954619,-1.09732,-0.526204,0.384989
1480611284957127,-1.09749,-0.526201,0.385031
1480611284983697,-1.09746,-0.526156,0.385027
1480611284998236,-1.09746,-0.526156,0.385027
1480611285012278,-1.09746,-0.526156,0.385027
1480611285045867,-1.09752,-0.526338,0.385008
1480611285050876,-1.09754,-0.526274,0.38512
1480611285089979,-1.09762,-0.526153,0.385068
1480611285092486,-1.09762,-0.526153,0.385068
1480611285120060,-1.09796,-0.526239,0.385125
1480611285196764,-1.09796,-0.526239,0.385125
1480611285225841,-1.09757,-0.526411,0.385097
1480611285232860,-1.09777,-0.526519,0.385506
1480611285235367,-1.0976,-0.526523,0.385465
1480611285271463,-1.09768,-0.526641,0.385557
1480611285283996,-1.09768,-0.526641,0.385557
1480611285290513,-1.09785,-0.526637,0.385598
1480611285330119,-1.09782,-0.526593,0.385595
1480611285332629,-1.09782,-0.526593,0.385595
1480611285356188,-1.09827,-0.526841,0.385747
1480611285457458,-1.09827,-0.526841,0.385747
1480611285471996,-1.09824,-0.526797,0.385744
1480611285511101,-1.09824,-0.526797,0.385744
1480611285516113,-1.09824,-0.526797,0.385744
1480611285532657,-1.09841,-0.526793,0.385785
1480611285562738,-1.09833,-0.526675,0.385693
1480611285600839,-1.09841,-0.526793,0.385785
1480611285607857,-1.09841,-0.526793,0.385785
1480611285609864,-1.09841,-0.526793,0.385785
1480611285653478,-1.09841,-0.526793,0.385785
1480611285680550,-1.09841,-0.526793,0.385785
1480611285742716,-1.09857,-0.52679,0.385827
1480611285745228,-1.09866,-0.526908,0.385919
1480611285751238,-1.09863,-0.526863,0.385916
1480611285752744,-1.09879,-0.52686,0.385957
1480611285781319,-1.09879,-0.52686,0.385957
1480611285786332,-1.09885,-0.526933,0.386047
1480611285839975,-1.09885,-0.526933,0.386047
1480611285842482,-1.09851,-0.526847,0.38599
1480611285879581,-1.0978,-0.526523,0.385982
1480611285921693,-1.0978,-0.526523,0.385982
1480611285975836,-1.0978,-0.526523,0.385982
1480611286014941,-1.09804,-0.526637,0.386116
1480611286020455,-1.09795,-0.526344,0.385767
1480611286026471,-1.09841,-0.526114,0.385632
1480611286076104,-1.09909,-0.525954,0.385626
1480611286088636,-1.09972,-0.525549,0.385752
1480611286100668,-1.10035,-0.525035,0.385986
1480611286117213,-1.10052,-0.525032,0.386027
1480611286199432,-1.1006,-0.525149,0.386119
1480611286245055,-1.10075,-0.525515,0.386557
1480611286253074,-1.10097,-0.525585,0.386688
1480611286297693,-1.101,-0.525722,0.386666
1480611286300199,-1.10108,-0.52584,0.386758
1480611286305714,-1.10053,-0.525885,0.386437
1480611286336796,-1.1002,-0.525799,0.38638
1480611286340807,-1.09926,-0.525778,0.385888
1480611286349831,-1.0986,-0.525808,0.385641
1480611286379911,-1.0986,-0.525808,0.385641
1480611286393448,-1.0986,-0.525808,0.385641
1480611286485191,-1.09854,-0.525626,0.38566
1480611286487698,-1.09871,-0.525623,0.385701
1480611286530313,-1.09871,-0.525623,0.385701
1480611286531816,-1.09905,-0.525709,0.385757
1480611286582951,-1.09872,-0.52545,0.385921
1480611286584957,-1.09919,-0.525635,0.386185
1480611286614035,-1.09916,-0.52559,0.386182
1480611286621554,-1.09916,-0.52559,0.386182
1480611286658653,-1.09916,-0.52559,0.386182
1480611286663166,-1.09932,-0.525587,0.386223
1480611286673193,-1.09932,-0.525587,0.386223
1480611286792509,-1.09924,-0.525708,0.386274
1480611286795020,-1.09989,-0.525851,0.386301
1480611286837629,-1.09981,-0.525733,0.386209
1480611286846152,-1.09981,-0.525733,0.386209
1480611286852168,-1.1,-0.525666,0.386362
1480611286890770,-1.10005,-0.5255,0.386307
1480611286903304,-1.10005,-0.5255,0.386307
1480611286935390,-1.09992,-0.525548,0.386269
1480611286994550,-1.09992,-0.525548,0.386269
1480611287026632,-1.1,-0.525666,0.386362
1480611287035155,-1.10005,-0.5255,0.386307
1480611287070749,-1.10013,-0.525618,0.386399
1480611287084787,-1.10013,-0.525618,0.386399
1480611287123389,-1.10005,-0.5255,0.386307
1480611287128905,-1.10007,-0.525436,0.386418
1480611287135421,-1.10007,-0.525436,0.386418
1480611287167507,-1.10007,-0.525436,0.386418
1480611287174525,-1.10007,-0.525436,0.386418
1480611287213630,-1.09953,-0.525108,0.386452
1480611287218142,-1.09956,-0.525153,0.386455
1480611287257747,-1.09956,-0.525153,0.386455
1480611287288328,-1.09939,-0.525156,0.386414
1480611287302867,-1.09937,-0.52522,0.386302
1480611287360521,-1.09945,-0.525338,0.386395
1480611287394613,-1.09956,-0.525153,0.386455
1480611287400627,-1.09939,-0.525156,0.386414
1480611287414664,-1.09939,-0.525156,0.386414
1480611287444746,-1.09938,-0.524955,0.386548
1480611287452766,-1.0993,-0.524837,0.386455
1480611287489363,-1.09938,-0.524955,0.386548
1480611287504904,-1.09921,-0.524959,0.386507
1480611287513929,-1.09938,-0.524955,0.386548
1480611287558547,-1.09935,-0.524911,0.386545
1480611287564062,-1.09927,-0.524793,0.386452
1480611287581107,-1.09932,-0.524774,0.386567
1480611287594646,-1.0993,-0.524837,0.386455
1480611287618206,-1.0993,-0.524837,0.386455
1480611287633747,-1.0993,-0.524837,0.386455
1480611287668338,-1.0993,-0.524837,0.386455
1480611287677868,-1.09927,-0.524793,0.386452
1480611287700424,-1.09929,-0.524729,0.386564
1480611287722484,-1.0993,-0.524837,0.386455
1480611287746547,-1.09938,-0.524955,0.386548
1480611287765599,-1.0993,-0.524837,0.386455
1480611287798686,-1.09946,-0.524726,0.386605
1480611287820243,-1.09946,-0.524726,0.386605
1480611287822749,-1.09946,-0.524726,0.386605
1480611287859348,-1.09927,-0.524793,0.386452
1480611287864862,-1.09946,-0.524726,0.386605
1480611287871379,-1.09946,-0.524726,0.386605
1480611287921011,-1.09876,-0.52451,0.386489
1480611287955102,-1.09803,-0.524597,0.386406
1480611287964126,-1.09786,-0.5246,0.386365
1480611288089960,-1.09846,-0.524737,0.386666
1480611288105001,-1.09838,-0.524619,0.386573
1480611288135081,-1.09872,-0.524705,0.38663
1480611288137587,-1.09891,-0.524637,0.386782
1480611288147613,-1.09834,-0.524374,0.386704
1480611288188723,-1.09843,-0.524599,0.386688
1480611288195241,-1.09827,-0.524603,0.386647
1480611288197748,-1.09827,-0.524603,0.386647
1480611288223316,-1.09834,-0.524374,0.386704
1480611288238356,-1.09837,-0.524418,0.386708
1480611288322579,-1.09837,-0.524418,0.386708
1480611288328595,-1.09837,-0.524418,0.386708
1480611288347647,-1.09837,-0.524418,0.386708
1480611288359178,-1.09834,-0.524374,0.386704
1480611288382238,-1.09837,-0.524418,0.386708
1480611288397279,-1.09837,-0.524418,0.386708
1480611288417833,-1.09821,-0.524421,0.386667
1480611288435881,-1.09837,-0.524418,0.386708
1480611288457438,-1.09837,-0.524418,0.386708
1480611288485512,-1.09837,-0.524418,0.386708
1480611288502057,-1.09837,-0.524418,0.386708
1480611288524617,-1.09834,-0.524374,0.386704
1480611288578259,-1.09834,-0.524374,0.386704
1480611288622878,-1.09851,-0.52437,0.386745
1480611288645438,-1.09843,-0.524252,0.386653
1480611288647443,-1.09903,-0.524388,0.386954
1480611288659476,-1.0992,-0.524385,0.386995
1480611288689555,-1.09885,-0.52443,0.387191
1480611288704595,-1.09794,-0.524652,0.387319
1480611288754227,-1.0974,-0.525351,0.387542
1480611288794334,-1.09774,-0.525851,0.387998
1480611288830431,-1.09879,-0.526126,0.388561
1480611288879060,-1.09879,-0.526126,0.388561
1480611288923178,-1.09865,-0.526241,0.388888
1480611288931700,-1.09857,-0.526123,0.388795
1480611288938718,-1.09857,-0.526123,0.388795
1480611288967796,-1.09865,-0.526241,0.388888
1480611288982336,-1.09865,-0.526241,0.388888
1480611289028458,-1.09857,-0.526123,0.388795
1480611289079092,-1.09874,-0.52612,0.388836
1480611289118197,-1.09874,-0.52612,0.388836
1480611289123712,-1.09857,-0.526123,0.388795
1480611289162817,-1.09874,-0.52612,0.388836
1480611289165322,-1.09874,-0.52612,0.388836
1480611289177354,-1.09857,-0.526123,0.388795
1480611289199412,-1.09865,-0.526241,0.388888
1480611289220970,-1.09882,-0.526237,0.388929
1480611289238516,-1.09882,-0.526237,0.388929
1480611289259574,-1.09882,-0.526237,0.388929
1480611289288148,-1.09882,-0.526237,0.388929
1480611289297675,-1.09916,-0.526323,0.388986
1480611289350815,-1.09986,-0.526165,0.389457
1480611289357834,-1.10003,-0.526161,0.389498
1480611289360351,-1.10003,-0.526161,0.389498
1480611289379391,-1.10003,-0.526161,0.389498
1480611289400447,-1.09986,-0.526165,0.389457
1480611289432033,-1.09992,-0.526346,0.389438
1480611289440053,-1.09992,-0.526346,0.389438
1480611289477652,-1.09965,-0.52607,0.389716
1480611289480159,-1.09911,-0.526183,0.389759
1480611289514751,-1.09973,-0.526254,0.390173
1480611289522272,-1.09971,-0.526318,0.390062
1480611289537813,-1.09971,-0.526318,0.390062
1480611289559871,-1.09988,-0.526315,0.390103
1480611289588447,-1.09985,-0.52627,0.3901
1480611289598474,-1.09941,-0.52637,0.389983
1480611289619530,-1.09941,-0.52637,0.389983
1480611289642090,-1.09986,-0.526378,0.389991
1480611289656629,-1.09969,-0.526382,0.38995
1480611289679690,-1.09986,-0.526378,0.389991
1480611289709772,-1.09988,-0.526315,0.390103
1480611289716291,-1.09969,-0.526382,0.38995
1480611289753387,-1.09969,-0.526382,0.38995
1480611289761910,-1.09974,-0.526455,0.39004
1480611289782964,-1.09991,-0.526452,0.390081
1480611289800014,-1.10063,-0.525923,0.390154
1480611289837611,-1.10063,-0.525923,0.390154
1480611289860170,-1.1,-0.526091,0.389884
1480611289862678,-1.1,-0.526091,0.389884
1480611289889749,-1.09992,-0.526212,0.389936
1480611289896267,-1.10061,-0.525987,0.390042
1480611289934869,-1.10053,-0.52587,0.389949
1480611289942389,-1.10053,-0.52587,0.389949
1480611289987510,-1.10053,-0.52587,0.389949
1480611289990016,-1.10061,-0.525987,0.390042
1480611290004053,-1.10061,-0.525987,0.390042
1480611290033131,-1.10138,-0.525771,0.390349
1480611290047167,-1.10201,-0.525604,0.390619
1480611290076251,-1.10201,-0.525604,0.390619
1480611290082767,-1.10199,-0.525668,0.390507
1480611290127889,-1.1026,-0.525564,0.390665
1480611290165489,-1.10355,-0.525105,0.390868
1480611290177022,-1.10357,-0.525041,0.390979
1480611290183536,-1.10284,-0.524891,0.390751
1480611290211611,-1.10284,-0.524891,0.390751
1480611290220133,-1.10284,-0.524891,0.390751
1480611290257733,-1.10283,-0.524782,0.390859
1480611290264253,-1.103,-0.524778,0.3909
1480611290279792,-1.103,-0.524778,0.3909
1480611290310875,-1.10281,-0.524846,0.390747
1480611290323408,-1.10289,-0.524964,0.39084
1480611290348474,-1.10289,-0.524964,0.39084
1480611290370534,-1.10306,-0.52496,0.390881
1480611290406128,-1.103,-0.524778,0.3909
1480611290416155,-1.103,-0.524778,0.3909
1480611290437211,-1.10281,-0.524846,0.390747
1480611290444732,-1.103,-0.524778,0.3909
1480611290459772,-1.103,-0.524778,0.3909
1480611290489851,-1.103,-0.524778,0.3909
1480611290510907,-1.103,-0.524778,0.3909
1480611290519432,-1.103,-0.524778,0.3909
1480611290549009,-1.103,-0.524778,0.3909
1480611290565554,-1.103,-0.524778,0.3909
1480611290585605,-1.103,-0.524778,0.3909
1480611290602151,-1.103,-0.524778,0.3909
1480611290624209,-1.10283,-0.524782,0.390859
1480611290653286,-1.10286,-0.524827,0.390862
1480611290669329,-1.10284,-0.524891,0.390751
1480611290692390,-1.10284,-0.524891,0.390751
1480611290706928,-1.10286,-0.524827,0.390862
1480611290735505,-1.10286,-0.524827,0.390862
1480611290746533,-1.10286,-0.524827,0.390862
1480611290767088,-1.10284,-0.524891,0.390751
1480611290782630,-1.10284,-0.524891,0.390751
1480611290820732,-1.10284,-0.524891,0.390751
1480611290825745,-1.10286,-0.524827,0.390862
1480611290842290,-1.10278,-0.524709,0.390769
1480611290864849,-1.10217,-0.524813,0.390612
1480611290879387,-1.10217,-0.524813,0.390612
1480611290907963,-1.10217,-0.524813,0.390612
1480611290932027,-1.10217,-0.524813,0.390612
1480611290948069,-1.10217,-0.524813,0.390612
1480611290963110,-1.10217,-0.524813,0.390612
1480611290984668,-1.10217,-0.524813,0.390612
1480611291015248,-1.10225,-0.52493,0.390705
1480611291024775,-1.10225,-0.52493,0.390705
1480611291061372,-1.10217,-0.524813,0.390612
1480611291067888,-1.10242,-0.524688,0.390601
1480611291097969,-1.10234,-0.52457,0.390508
1480611291112007,-1.10242,-0.524688,0.390601
1480611291134065,-1.10189,-0.524562,0.3905
1480611291143592,-1.10206,-0.524558,0.390541
1480611291187708,-1.10206,-0.524558,0.390541
1480611291208764,-1.10206,-0.524558,0.390541
1480611291237841,-1.10206,-0.524558,0.390541
1480611291275948,-1.10206,-0.524558,0.390541
1480611291300007,-1.10206,-0.524558,0.390541
1480611291302012,-1.102,-0.524377,0.39056
1480611291330587,-1.102,-0.524377,0.39056
1480611291331591,-1.10198,-0.524441,0.390448
1480611291337105,-1.10181,-0.524444,0.390407
1480611291344625,-1.10181,-0.524444,0.390407
1480611291373202,-1.10198,-0.524441,0.390448
1480611291389745,-1.102,-0.524377,0.39056
1480611291419825,-1.102,-0.524377,0.39056
1480611291427345,-1.102,-0.524377,0.39056
1480611291465447,-1.10181,-0.524444,0.390407
1480611291468455,-1.10181,-0.524444,0.390407
1480611291511068,-1.102,-0.524377,0.39056
1480611291517084,-1.102,-0.524377,0.39056
1480611291570726,-1.102,-0.524377,0.39056
1480611291573233,-1.102,-0.524377,0.39056
1480611291606322,-1.10203,-0.524421,0.390563
1480611291614844,-1.10194,-0.524304,0.39047
1480611291621361,-1.10146,-0.524158,0.390484
1480611291651942,-1.10068,-0.524266,0.390286
1480611291669489,-1.10076,-0.524383,0.390379
1480611291697564,-1.1006,-0.524387,0.390338
1480611291713607,-1.10076,-0.524383,0.390379
1480611291742183,-1.10076,-0.524383,0.390379
1480611291756722,-1.10076,-0.524383,0.390379
1480611291841447,-1.10076,-0.524383,0.390379
1480611291843954,-1.10076,-0.524383,0.390379
1480611291852977,-1.10085,-0.524262,0.390327
1480611291885564,-1.10068,-0.524266,0.390286
1480611291898097,-1.10076,-0.524383,0.390379
1480611291931689,-1.10076,-0.524383,0.390379
1480611291935697,-1.10068,-0.524266,0.390286
1480611291946226,-1.1007,-0.524202,0.390398
1480611291975804,-1.1007,-0.524202,0.390398
1480611291989842,-1.10065,-0.524129,0.390308
1480611292020924,-1.10065,-0.524129,0.390308
1480611292028446,-1.10048,-0.524133,0.390267
1480611292063044,-1.10065,-0.524129,0.390308
1480611292082087,-1.10065,-0.524129,0.390308
1480611292109159,-1.10065,-0.524129,0.390308
1480611292118684,-1.10065,-0.524129,0.390308
1480611292124701,-1.10065,-0.524129,0.390308
1480611292178343,-1.10065,-0.524129,0.390308
1480611292214940,-1.10057,-0.524011,0.390216
1480611292217446,-1.10057,-0.524011,0.390216
1480611292223463,-1.10065,-0.524129,0.390308
1480611292252039,-1.10065,-0.524129,0.390308
1480611292258055,-1.10065,-0.524129,0.390308
1480611292267580,-1.10065,-0.524129,0.390308
1480611292298664,-1.10065,-0.524129,0.390308
1480611292318215,-1.10059,-0.523947,0.390327
1480611292342780,-1.10057,-0.524011,0.390216
1480611292355815,-1.10057,-0.524011,0.390216
1480611292388406,-1.10059,-0.523947,0.390327
1480611292409959,-1.10059,-0.523947,0.390327
1480611292446057,-1.10103,-0.523847,0.390443
1480611292456082,-1.10095,-0.52373,0.390351
1480611292475635,-1.10103,-0.523847,0.390443
1480611292486161,-1.10044,-0.523887,0.390398
1480611292490675,-1.10046,-0.523823,0.39051
1480611292507218,-1.10063,-0.52382,0.390551
1480611292530280,-1.10063,-0.52382,0.390551
1480611292552839,-1.10063,-0.52382,0.390551
1480611292575901,-1.10069,-0.524001,0.390532
1480611292589436,-1.10052,-0.524005,0.390491
1480611292628541,-1.10069,-0.524001,0.390532
1480611292633053,-1.10063,-0.52382,0.390551
1480611292672658,-1.10063,-0.52382,0.390551
1480611292678173,-1.10046,-0.523823,0.39051
1480611292710260,-1.10046,-0.523823,0.39051
1480611292712765,-1.10046,-0.523823,0.39051
1480611292725299,-1.10063,-0.52382,0.390551
1480611292754375,-1.10055,-0.523702,0.390458
1480611292783956,-1.10055,-0.523702,0.390458
1480611292808520,-1.10041,-0.52375,0.39042
1480611292813031,-1.10041,-0.52375,0.39042
1480611292829576,-1.10041,-0.52375,0.39042
1480611292897757,-1.10057,-0.523638,0.390569
1480611292900263,-1.10057,-0.523638,0.390569
1480611292943380,-1.10058,-0.523746,0.390461
1480611292944882,-1.10041,-0.52375,0.39042
1480611292950899,-1.10041,-0.52375,0.39042
1480611292957415,-1.10058,-0.523746,0.390461
1480611292970450,-1.10057,-0.523638,0.390569
1480611292993011,-1.10057,-0.523638,0.390569
1480611293009555,-1.10055,-0.523702,0.390458
1480611293038131,-1.10055,-0.523702,0.390458
1480611293046653,-1.10055,-0.523702,0.390458
1480611293085757,-1.10057,-0.523638,0.390569
1480611293090770,-1.10074,-0.523635,0.39061
1480611293107315,-1.10055,-0.523702,0.390458
1480611293129875,-1.10055,-0.523702,0.390458
1480611293157950,-1.10063,-0.52382,0.390551
1480611293174494,-1.1008,-0.523816,0.390592
1480611293191037,-1.10077,-0.523772,0.390588
1480611293218109,-1.10077,-0.523772,0.390588
1480611293242174,-1.1008,-0.523816,0.390592
1480611293249693,-1.10063,-0.52382,0.390551
1480611293272253,-1.10077,-0.523772,0.390588
1480611293288797,-1.10077,-0.523772,0.390588
1480611293318375,-1.10035,-0.523808,0.390584
1480611293331912,-1.09987,-0.524103,0.390609
1480611293347957,-1.09987,-0.524103,0.390609
1480611293375528,-1.09987,-0.524103,0.390609
1480611293394079,-1.09987,-0.524103,0.390609
1480611293407613,-1.10003,-0.524099,0.39065
1480611293429673,-1.10003,-0.524099,0.39065
1480611293452734,-1.10012,-0.524216,0.390742
1480611293466270,-1.09961,-0.524814,0.3908
1480611293529439,-1.09961,-0.524814,0.3908
1480611293556509,-1.09955,-0.524633,0.390819
1480611293568040,-1.09926,-0.52486,0.390997
1480611293596617,-1.09924,-0.524924,0.390885
1480611293602131,-1.09932,-0.525041,0.390978
1480611293609653,-1.09932,-0.525041,0.390978
1480611293640234,-1.09931,-0.524933,0.391086
1480611293654771,-1.0994,-0.524812,0.391034
1480611293670312,-1.09948,-0.524929,0.391127
1480611293691870,-1.09946,-0.524993,0.391015
1480611293720445,-1.09946,-0.524993,0.391015
1480611293729972,-1.09946,-0.524993,0.391015
1480611293752530,-1.09948,-0.524929,0.391127
1480611293790131,-1.09948,-0.524929,0.391127
1480611293792137,-1.09946,-0.524993,0.391015
1480611293841267,-1.09954,-0.525111,0.391108
1480611293857811,-1.09954,-0.525111,0.391108
1480611293860319,-1.09954,-0.525111,0.391108
1480611293874355,-1.09951,-0.525066,0.391105
1480611293893407,-1.09951,-0.525066,0.391105
1480611293932510,-1.09959,-0.525184,0.391198
1480611293935016,-1.09957,-0.525248,0.391086
1480611293954569,-1.09957,-0.525248,0.391086
1480611293983144,-1.09976,-0.52518,0.391239
1480611294014728,-1.09976,-0.52518,0.391239
1480611294017235,-1.09976,-0.52518,0.391239
1480611294031274,-1.09982,-0.525362,0.39122
1480611294052830,-1.09982,-0.525362,0.39122
1480611294095443,-1.09979,-0.525317,0.391216
1480611294121011,-1.09944,-0.525363,0.391413
1480611294126527,-1.09944,-0.525363,0.391413
1480611294133043,-1.09943,-0.525842,0.391702
1480611294150088,-1.09943,-0.525842,0.391702
1480611294174654,-1.0996,-0.525838,0.391743
1480611294195209,-1.0996,-0.525838,0.391743
1480611294209748,-1.09957,-0.525793,0.39174
1480611294232811,-1.09965,-0.525911,0.391833
1480611294254867,-1.09971,-0.526093,0.391814
1480611294292468,-1.09971,-0.526093,0.391814
1480611294294974,-1.09971,-0.526093,0.391814
1480611294314526,-1.09971,-0.526093,0.391814
1480611294344606,-1.09971,-0.526093,0.391814
1480611294362155,-1.09971,-0.526093,0.391814
1480611294381705,-1.09979,-0.52621,0.391907
1480611294398250,-1.09979,-0.52621,0.391907
1480611294442867,-1.09976,-0.526166,0.391903
1480611294444873,-1.09993,-0.526162,0.391945
1480611294450387,-1.09993,-0.526162,0.391945
1480611294473449,-1.09974,-0.52623,0.391792
1480611294494505,-1.09983,-0.526347,0.391885
1480611294523081,-1.09983,-0.526347,0.391885
1480611294538622,-1.09999,-0.526343,0.391926
1480611294563689,-1.09999,-0.526343,0.391926
1480611294583241,-1.09983,-0.526347,0.391885
1480611294675990,-1.09991,-0.526465,0.391978
1480611294680499,-1.09989,-0.526529,0.391866
1480611294707573,-1.09991,-0.526465,0.391978
1480611294728628,-1.09989,-0.526529,0.391866
1480611294748680,-1.10007,-0.526461,0.392019
1480611294755700,-1.09996,-0.526299,0.391922
1480611294772745,-1.09996,-0.526299,0.391922
1480611294794804,-1.09999,-0.526343,0.391926
1480611294817364,-1.09991,-0.526465,0.391978
1480611294832906,-1.09991,-0.526465,0.391978
1480611294862985,-1.10004,-0.526417,0.392015
1480611294915123,-1.10004,-0.526417,0.392015
1480611294917631,-1.10004,-0.526417,0.392015
1480611294960245,-1.09994,-0.526602,0.391955
1480611294990324,-1.1,-0.526783,0.391937
1480611294992834,-1.1008,-0.526372,0.392103
1480611294999849,-1.10086,-0.526206,0.392047
1480611295012884,-1.10086,-0.526206,0.392047
1480611295035444,-1.1002,-0.526237,0.3918
1480611295056500,-1.1002,-0.526237,0.3918
1480611295072041,-1.1002,-0.526237,0.3918
1480611295094602,-1.10036,-0.526234,0.391841
1480611295123679,-1.10033,-0.526189,0.391838
1480611295138218,-1.10036,-0.526234,0.391841
1480611295223945,-1.10017,-0.526193,0.391796
1480611295231466,-1.10042,-0.526307,0.391931
1480611295246004,-1.10033,-0.526189,0.391838
1480611295252020,-1.10028,-0.526355,0.391893
1480611295274580,-1.10026,-0.526419,0.391781
1480611295296640,-1.10026,-0.526419,0.391781
1480611295319700,-1.10042,-0.526307,0.391931
1480611295334740,-1.10033,-0.526189,0.391838
1480611295374346,-1.10042,-0.526307,0.391931
1480611295378356,-1.10023,-0.526374,0.391778
1480611295418462,-1.10023,-0.526374,0.391778
1480611295422975,-1.10081,-0.526133,0.391958
1480611295438015,-1.10089,-0.526012,0.391906
1480611295460575,-1.10089,-0.526012,0.391906
1480611295478122,-1.10022,-0.526174,0.391912
1480611295491658,-1.10008,-0.526222,0.391874
1480611295514719,-1.10008,-0.526222,0.391874
1480611295537279,-1.10005,-0.526177,0.39187
1480611295559844,-1.10022,-0.526174,0.391912
1480611295598442,-1.10022,-0.526174,0.391912
1480611295602954,-1.10005,-0.526177,0.39187
1480611295617994,-1.10003,-0.526241,0.391759
1480611295649578,-1.10011,-0.526359,0.391852
1480611295695199,-1.10005,-0.526177,0.39187
1480611295697706,-1.10022,-0.526174,0.391912
1480611295703221,-1.10022,-0.526174,0.391912
1480611295732799,-1.10022,-0.526174,0.391912
1480611295738316,-1.10005,-0.526177,0.39187
1480611295768394,-1.10022,-0.526174,0.391912
1480611295778421,-1.10022,-0.526174,0.391912
1480611295797973,-1.10022,-0.526174,0.391912
1480611295822037,-1.10022,-0.526174,0.391912
1480611295837076,-1.10005,-0.526177,0.39187
1480611295867157,-1.10022,-0.526174,0.391912
1480611295874676,-1.10022,-0.526174,0.391912
1480611295897739,-1.10014,-0.526056,0.391819
1480611295918294,-1.10014,-0.526056,0.391819
1480611295955391,-1.1,-0.526104,0.391781
1480611295979957,-1.1,-0.526104,0.391781
1480611295982463,-1.1,-0.526104,0.391781
1480611295994496,-1.10014,-0.526056,0.391819
1480611296017055,-1.1001,-0.525919,0.391841
1480611296038613,-1.10018,-0.526037,0.391934
1480611296060672,-1.1,-0.526104,0.391781
1480611296077216,-1.1,-0.526104,0.391781
1480611296098773,-1.10014,-0.526056,0.391819
1480611296115317,-1.10016,-0.525992,0.39193
1480611296136874,-1.10007,-0.525874,0.391837
1480611296197037,-1.10007,-0.525874,0.391837
1480611296257696,-1.1001,-0.525919,0.391841
1480611296264214,-1.09965,-0.525911,0.391833
1480611296285770,-1.10058,-0.52593,0.392326
1480611296309835,-1.10039,-0.525998,0.392173
1480611296316853,-1.10056,-0.525994,0.392214
1480611296339413,-1.10058,-0.52593,0.392326
1480611296355957,-1.10058,-0.52593,0.392326
1480611296377016,-1.10058,-0.52593,0.392326
1480611296400075,-1.10058,-0.52593,0.392326
1480611296414112,-1.1005,-0.525812,0.392233
1480611296444693,-1.1005,-0.525812,0.392233
1480611296495328,-1.10044,-0.525631,0.392251
1480611296505856,-1.10044,-0.525631,0.392251
1480611296552480,-1.10044,-0.525631,0.392251
1480611296558998,-1.10047,-0.525675,0.392255
1480611296563008,-1.10039,-0.525558,0.392162
1480611296587072,-1.10039,-0.525558,0.392162
1480611296594091,-1.10039,-0.525558,0.392162
1480611296617152,-1.10039,-0.525558,0.392162
1480611296648736,-1.10047,-0.525675,0.392255
1480611296660768,-1.10039,-0.525558,0.392162
1480611296677813,-1.10039,-0.525558,0.392162
1480611296705386,-1.10033,-0.525376,0.39218
1480611296721930,-1.10033,-0.525376,0.39218
1480611296736970,-1.10041,-0.525494,0.392273
1480611296767051,-1.10039,-0.525558,0.392162
1480611296789610,-1.10033,-0.525376,0.39218
1480611296799136,-1.10033,-0.525376,0.39218
1480611296820191,-1.10033,-0.525376,0.39218
1480611296840748,-1.10033,-0.525376,0.39218
1480611296857291,-1.10033,-0.525376,0.39218
1480611296879851,-1.10033,-0.525376,0.39218
1480611296907926,-1.10033,-0.525376,0.39218
1480611296916950,-1.10088,-0.52509,0.392357
1480611296939509,-1.10082,-0.525017,0.392267
1480611296986134,-1.10082,-0.525017,0.392267
1480611297007190,-1.10001,-0.525228,0.392236
1480611297014208,-1.09993,-0.52511,0.392143
1480611297060331,-1.09993,-0.52511,0.392143
1480611297063339,-1.09993,-0.52511,0.392143
1480611297067851,-1.09993,-0.52511,0.392143
1480611297082891,-1.09993,-0.52511,0.392143
1480611297096930,-1.10007,-0.525062,0.39218
1480611297119488,-1.10015,-0.525179,0.392273
1480611297143054,-1.10007,-0.525062,0.39218
1480611297157590,-1.10007,-0.525062,0.39218
1480611297180150,-1.09993,-0.52511,0.392143
1480611297202209,-1.1001,-0.525106,0.392184
1480611297224769,-1.10009,-0.524998,0.392292
1480611297260363,-1.10001,-0.52488,0.392199
1480611297270892,-1.10017,-0.524876,0.39224
1480611297276411,-1.10003,-0.524925,0.392203
1480611297306986,-1.10003,-0.524925,0.392203
1480611297322028,-1.10003,-0.524925,0.392203
1480611297336566,-1.10003,-0.524925,0.392203
1480611297382688,-1.09997,-0.524743,0.392221
1480611297385195,-1.09944,-0.524966,0.392157
1480611297402742,-1.09942,-0.525029,0.392045
1480611297430317,-1.09934,-0.525151,0.392097
1480611297449867,-1.09942,-0.525029,0.392045
1480611297465910,-1.09944,-0.524966,0.392157
1480611297486965,-1.09944,-0.524966,0.392157
1480611297553643,-1.09936,-0.524848,0.392064
1480611297577707,-1.09936,-0.524848,0.392064
1480611297613803,-1.09944,-0.524966,0.392157
1480611297623329,-1.09936,-0.524848,0.392064
1480611297675468,-1.09938,-0.524784,0.392176
1480611297682485,-1.09936,-0.524848,0.392064
1480611297720085,-1.09936,-0.524848,0.392064
1480611297722593,-1.10008,-0.524558,0.392281
1480611297728107,-1.10083,-0.524405,0.392476
1480611297786263,-1.10083,-0.524405,0.392476
1480611297830379,-1.09993,-0.524498,0.392352
1480611297848929,-1.09921,-0.524587,0.392269
1480611297855947,-1.09923,-0.524524,0.392381
1480611297861964,-1.09923,-0.524524,0.392381
1480611297891041,-1.09923,-0.524524,0.392381
1480611297908588,-1.09923,-0.524524,0.392381
1480611297960225,-1.09931,-0.524402,0.392329
1480611297963738,-1.09931,-0.524402,0.392329
1480611297975771,-1.09931,-0.524402,0.392329
1480611297982283,-1.09914,-0.524406,0.392288
1480611298003339,-1.09931,-0.524402,0.392329
1480611298020384,-1.09925,-0.524221,0.392348
1480611298066007,-1.09925,-0.524221,0.392348
1480611298095585,-1.09925,-0.524221,0.392348
1480611298104108,-1.09925,-0.524221,0.392348
1480611298110126,-1.10008,-0.524425,0.39278
1480611298124664,-1.09999,-0.524307,0.392687
1480611298139703,-1.10001,-0.524243,0.392798
1480611298185324,-1.10018,-0.524239,0.392839
1480611298187329,-1.10008,-0.524425,0.39278
1480611298224428,-1.10008,-0.524425,0.39278
1480611298229943,-1.10016,-0.524542,0.392873
1480611298260022,-1.10013,-0.524498,0.392869
1480611298325196,-1.10021,-0.524376,0.392817
1480611298336726,-1.10021,-0.524376,0.392817
1480611298358285,-1.10029,-0.524494,0.39291
1480611298360289,-1.10029,-0.524494,0.39291
1480611298366806,-1.10029,-0.524494,0.39291
1480611298386860,-1.10021,-0.524376,0.392817
1480611298402902,-1.10029,-0.524494,0.39291
1480611298424461,-1.10029,-0.524494,0.39291
1480611298438999,-1.10029,-0.524494,0.39291
1480611298463565,-1.10029,-0.524494,0.39291
1480611298499659,-1.1004,-0.524309,0.39297
1480611298502166,-1.1004,-0.524309,0.39297
1480611298573356,-1.10038,-0.524372,0.392858
1480611298620983,-1.10029,-0.524494,0.39291
1480611298652065,-1.10038,-0.524611,0.393003
1480611298653569,-1.10043,-0.524445,0.392947
1480611298672620,-1.10051,-0.524563,0.39304
1480611298677634,-1.10051,-0.524563,0.39304
1480611298692675,-1.10128,-0.524585,0.393492
1480611298731778,-1.1018,-0.524602,0.393701
1480611298734284,-1.1018,-0.524602,0.393701
1480611298774892,-1.1018,-0.524602,0.393701
1480611298780407,-1.1018,-0.524602,0.393701
1480611298789932,-1.1018,-0.524602,0.393701
1480611298823521,-1.10199,-0.524534,0.393853
1480611298867640,-1.10199,-0.524534,0.393853
1480611298885185,-1.10199,-0.524534,0.393853
1480611298905239,-1.1018,-0.524602,0.393701
1480611298914264,-1.10199,-0.524534,0.393853
1480611298918776,-1.10199,-0.524534,0.393853
1480611298941840,-1.10199,-0.524534,0.393853
1480611298966402,-1.10196,-0.52449,0.39385
1480611298986455,-1.10197,-0.524598,0.393742
1480611299009522,-1.10202,-0.524671,0.393831
1480611299012023,-1.10202,-0.524671,0.393831
1480611299033079,-1.10221,-0.524603,0.393984
1480611299055138,-1.10213,-0.524486,0.393891
1480611299077698,-1.10202,-0.524671,0.393831
1480611299123821,-1.10202,-0.524671,0.393831
1480611299153399,-1.10202,-0.524671,0.393831
1480611299154903,-1.10296,-0.52445,0.394179
1480611299162424,-1.10296,-0.52445,0.394179
1480611299176463,-1.10228,-0.524374,0.39404
1480611299188994,-1.10235,-0.524555,0.394021
1480611299217570,-1.10235,-0.524555,0.394021
1480611299236119,-1.10243,-0.524673,0.394115
1480611299247650,-1.10235,-0.524555,0.394021
1480611299270210,-1.10248,-0.524507,0.394059
1480611299292772,-1.10257,-0.524624,0.394152
1480611299310317,-1.1024,-0.524628,0.394111
1480611299337388,-1.10248,-0.524746,0.394204
1480611299352428,-1.10265,-0.524742,0.394245
1480611299383511,-1.10257,-0.524624,0.394152
1480611299391533,-1.10257,-0.524624,0.394152
1480611299424120,-1.10257,-0.524624,0.394152
1480611299429133,-1.1024,-0.524628,0.394111
1480611299450189,-1.1024,-0.524628,0.394111
1480611299484279,-1.1024,-0.524628,0.394111
1480611299488791,-1.10257,-0.524624,0.394152
1480611299512856,-1.10257,-0.524624,0.394152
1480611299532407,-1.10257,-0.524624,0.394152
1480611299571010,-1.10243,-0.524673,0.394115
1480611299579031,-1.10243,-0.524673,0.394115
1480611299602093,-1.10248,-0.524507,0.394059
1480611299609113,-1.1025,-0.524443,0.39417
1480611299637186,-1.10248,-0.524507,0.394059
1480611299660247,-1.10243,-0.524673,0.394115
1480611299670274,-1.10257,-0.524624,0.394152
1480611299689826,-1.10257,-0.524624,0.394152
1480611299712386,-1.10257,-0.524624,0.394152
1480611299746477,-1.10257,-0.524624,0.394152
1480611299757506,-1.10257,-0.524624,0.394152
1480611299796109,-1.10257,-0.524624,0.394152
1480611299812152,-1.10191,-0.524417,0.39376
1480611299834712,-1.10104,-0.523968,0.393458
1480611299836717,-1.10104,-0.523968,0.393458
1480611299857272,-1.10107,-0.524013,0.393462
1480611299878829,-1.10105,-0.524076,0.39335
1480611299892367,-1.10088,-0.52408,0.393309
1480611299910413,-1.10107,-0.524013,0.393462
1480611299931471,-1.10107,-0.524013,0.393462
1480611299952525,-1.10104,-0.523968,0.393458
1480611299992633,-1.10107,-0.524013,0.393462
1480611299995139,-1.10155,-0.524157,0.393447
1480611300020205,-1.10182,-0.523993,0.393158
1480611300030233,-1.10184,-0.523929,0.393269
1480611300073849,-1.10148,-0.523561,0.393064
1480611300091896,-1.10148,-0.523561,0.393064
1480611300096409,-1.10175,-0.523637,0.39292
1480611300125988,-1.10175,-0.523637,0.39292
1480611300135511,-1.10123,-0.523381,0.392566
1480611300163588,-1.10081,-0.523179,0.392417
1480611300170103,-1.10081,-0.523179,0.392417
1480611300207705,-1.10067,-0.523227,0.39238
1480611300218733,-1.10067,-0.523227,0.39238
1480611300230264,-1.10057,-0.523412,0.39232
1480611300271373,-1.10051,-0.523231,0.392339
1480611300277891,-1.10067,-0.523227,0.39238
1480611300306467,-1.10067,-0.523227,0.39238
1480611300312483,-1.10075,-0.523344,0.392473
1480611300335043,-1.10073,-0.523408,0.392361
1480611300360611,-1.10057,-0.523412,0.39232
1480611300372643,-1.10057,-0.523412,0.39232
1480611300413251,-1.10067,-0.523227,0.39238
1480611300417261,-1.10067,-0.523227,0.39238
1480611300448845,-1.09954,-0.523314,0.392015
1480611300454862,-1.09903,-0.523473,0.392062
1480611300469902,-1.09903,-0.523473,0.392062
1480611300509006,-1.09912,-0.523351,0.392011
1480611300515021,-1.09912,-0.523351,0.392011
1480611300549614,-1.09909,-0.523307,0.392007
1480611300555128,-1.0992,-0.523469,0.392103
1480611300594233,-1.09903,-0.523473,0.392062
1480611300598744,-1.0992,-0.523469,0.392103
1480611300619800,-1.09912,-0.523351,0.392011
1480611300637849,-1.09912,-0.523351,0.392011
1480611300651886,-1.09912,-0.523351,0.392011
1480611300679960,-1.09903,-0.523473,0.392062
1480611300695001,-1.09903,-0.523473,0.392062
1480611300726084,-1.09912,-0.523351,0.392011
1480611300732600,-1.09914,-0.523287,0.392122
1480611300771704,-1.09914,-0.523287,0.392122
1480611300782232,-1.09914,-0.523287,0.392122
1480611300808805,-1.09914,-0.523287,0.392122
1480611300815320,-1.09906,-0.52317,0.39203
1480611300831363,-1.09906,-0.52317,0.39203
1480611300856932,-1.09906,-0.52317,0.39203
1480611300874980,-1.09906,-0.52317,0.39203
1480611300900547,-1.09889,-0.523174,0.391989
1480611300931130,-1.09889,-0.523174,0.391989
1480611300935139,-1.09906,-0.52317,0.39203
1480611300959204,-1.09906,-0.52317,0.39203
1480611300972744,-1.09906,-0.52317,0.39203
1480611300996302,-1.09889,-0.523174,0.391989
1480611301013347,-1.09889,-0.523174,0.391989
1480611301039919,-1.09889,-0.523174,0.391989
1480611301057967,-1.09827,-0.522838,0.391822
1480611301073507,-1.09757,-0.522625,0.391708
1480611301092559,-1.09741,-0.522629,0.391667
1480611301115118,-1.09749,-0.522746,0.391759
1480611301132665,-1.09752,-0.522791,0.391763
1480611301152720,-1.09749,-0.522746,0.391759
1480611301177785,-1.09741,-0.522629,0.391667
1480611301198841,-1.09741,-0.522629,0.391667
1480611301228921,-1.09743,-0.522673,0.39167
1480611301234938,-1.09727,-0.522677,0.391629
1480611301254991,-1.09743,-0.522673,0.39167
1480611301272537,-1.09743,-0.522673,0.39167
1480611301295097,-1.09743,-0.522673,0.39167
1480611301326179,-1.09743,-0.522673,0.39167
1480611301332195,-1.09743,-0.522673,0.39167
1480611301379320,-1.09743,-0.522673,0.39167
1480611301381827,-1.09743,-0.522673,0.39167
1480611301395364,-1.09735,-0.522555,0.391578
1480611301425946,-1.09737,-0.522492,0.391689
1480611301434467,-1.09735,-0.522555,0.391578
1480611301455523,-1.09727,-0.522677,0.391629
1480611301476580,-1.09727,-0.522677,0.391629
1480611301500143,-1.09727,-0.522677,0.391629
1480611301521198,-1.09735,-0.522555,0.391578
1480611301543257,-1.09727,-0.522677,0.391629
1480611301553786,-1.09727,-0.522677,0.391629
1480611301573843,-1.09727,-0.522677,0.391629
1480611301594895,-1.09725,-0.522741,0.391518
1480611301612942,-1.09727,-0.522677,0.391629
1480611301637509,-1.09727,-0.522677,0.391629
1480611301655054,-1.09727,-0.522677,0.391629
1480611301685636,-1.09727,-0.522677,0.391629
1480611301694660,-1.09725,-0.522741,0.391518
1480611301715214,-1.09676,-0.522836,0.391677
1480611301760836,-1.09678,-0.522772,0.391789
1480611301770361,-1.09678,-0.522772,0.391789
1480611301782393,-1.09678,-0.522772,0.391789
1480611301797433,-1.0969,-0.522787,0.391714
1480611301815482,-1.09698,-0.522905,0.391807
1480611301844058,-1.09698,-0.522905,0.391807
1480611301857593,-1.09698,-0.522905,0.391807
1480611301882659,-1.09698,-0.522905,0.391807
1480611301895194,-1.09698,-0.522905,0.391807
1480611301917252,-1.09706,-0.523023,0.3919
1480611301935801,-1.09654,-0.523005,0.391692
1480611301962373,-1.09662,-0.522884,0.39164
1480611301977412,-1.09662,-0.522884,0.39164
1480611301995462,-1.09662,-0.522884,0.39164
1480611302015012,-1.09662,-0.522884,0.39164
1480611302045092,-1.09667,-0.522957,0.391729
1480611302056623,-1.09667,-0.522957,0.391729
1480611302075676,-1.09667,-0.522957,0.391729
1480611302114276,-1.09667,-0.522957,0.391729
1480611302116783,-1.09667,-0.522957,0.391729
1480611302134831,-1.09667,-0.522957,0.391729
1480611302157392,-1.09667,-0.522957,0.391729
1480611302175442,-1.09675,-0.523075,0.391821
1480611302202511,-1.09681,-0.522909,0.391766
1480611302218555,-1.09689,-0.523027,0.391859
1480611302244121,-1.09673,-0.523138,0.39171
1480611302256155,-1.09673,-0.523138,0.39171
1480611302278213,-1.09679,-0.523212,0.391799
1480611302310298,-1.09689,-0.523027,0.391859
1480611302314809,-1.09659,-0.523079,0.39178
1480611302355919,-1.09643,-0.523191,0.391631
1480611302359930,-1.09643,-0.523191,0.391631
1480611302374971,-1.09648,-0.523264,0.39172
1480611302400537,-1.09665,-0.52326,0.391761
1480611302415077,-1.09665,-0.52326,0.391761
1480611302436634,-1.09665,-0.52326,0.391761
1480611302464708,-1.09665,-0.52326,0.391761
1480611302481252,-1.09654,-0.523445,0.391701
1480611302496293,-1.09727,-0.523356,0.391783
1480611302517349,-1.09727,-0.523356,0.391783
1480611302535396,-1.09744,-0.523352,0.391824
1480611302556455,-1.09744,-0.523352,0.391824
1480611302577510,-1.09727,-0.523356,0.391783
1480611302608092,-1.09735,-0.523474,0.391876
1480611302625136,-1.09752,-0.52347,0.391917
1480611302637668,-1.09752,-0.52347,0.391917
1480611302655215,-1.09741,-0.523308,0.391821
1480611302676272,-1.09744,-0.523352,0.391824
1480611302697328,-1.09752,-0.52347,0.391917
1480611302721391,-1.09733,-0.523537,0.391764
1480611302736431,-1.09749,-0.523425,0.391913
1480611302757488,-1.09749,-0.523425,0.391913
1480611302775536,-1.09749,-0.523425,0.391913
1480611302799098,-1.09755,-0.523606,0.391894
1480611302825170,-1.09755,-0.523606,0.391894
1480611302842715,-1.09755,-0.523606,0.391894
1480611302857758,-1.09771,-0.523602,0.391935
1480611302877306,-1.09769,-0.523558,0.391932
1480611302895355,-1.09769,-0.523558,0.391932
1480611302931951,-1.09785,-0.523554,0.391972
1480611302939973,-1.09787,-0.523491,0.392084
1480611302955516,-1.09729,-0.523292,0.391895
1480611302982586,-1.09729,-0.523292,0.391895
1480611303005146,-1.09729,-0.523292,0.391895
1480611303015172,-1.09729,-0.523292,0.391895
1480611303037733,-1.09729,-0.523292,0.391895
1480611303058290,-1.09735,-0.523474,0.391876
1480611303081349,-1.09754,-0.523406,0.392029
1480611303097893,-1.09752,-0.52347,0.391917
1480611303120453,-1.09752,-0.52347,0.391917
1480611303135493,-1.09752,-0.52347,0.391917
1480611303162566,-1.09757,-0.523543,0.392006
1480611303177606,-1.0976,-0.523587,0.39201
1480611303200165,-1.09757,-0.523543,0.392006
1480611303217712,-1.09757,-0.523543,0.392006
1480611303237264,-1.09757,-0.523543,0.392006
1480611303276869,-1.09757,-0.523543,0.392006
1480611303279376,-1.09757,-0.523543,0.392006
1480611303297424,-1.09773,-0.523539,0.392047
1480611303319983,-1.09775,-0.523475,0.392159
1480611303338032,-1.09773,-0.523539,0.392047
1480611303373627,-1.09773,-0.523539,0.392047
1480611303380144,-1.09757,-0.523543,0.392006
1480611303410726,-1.09765,-0.52366,0.392099
1480611303418746,-1.09779,-0.523612,0.392136
1480611303441307,-1.09771,-0.523494,0.392043
1480611303458354,-1.09771,-0.523494,0.392043
1480611303516010,-1.09779,-0.523612,0.392136
1480611303526534,-1.09779,-0.523612,0.392136
1480611303532550,-1.09779,-0.523612,0.392136
1480611303555109,-1.09795,-0.523608,0.392177
1480611303567643,-1.09789,-0.523427,0.392196
1480611303577670,-1.09727,-0.523356,0.391783
1480611303598725,-1.09669,-0.523505,0.39163
1480611303627300,-1.0965,-0.523572,0.391478
1480611303637830,-1.09669,-0.523505,0.39163
1480611303658888,-1.09669,-0.523505,0.39163
1480611303689969,-1.09669,-0.523505,0.39163
1480611303702502,-1.09669,-0.523505,0.39163
1480611303720550,-1.09667,-0.523568,0.391519
1480611303740104,-1.09624,-0.52363,0.391124
1480611303787227,-1.09626,-0.523566,0.391236
1480611303794245,-1.09681,-0.523213,0.391048
1480611303816304,-1.09679,-0.523037,0.390792
1480611303833350,-1.09617,-0.522966,0.390379
1480611303840371,-1.09555,-0.523002,0.389859
1480611303863431,-1.09552,-0.522958,0.389856
1480611303877968,-1.09563,-0.522773,0.389916
1480611303911057,-1.09563,-0.522773,0.389916
1480611303927600,-1.09564,-0.522641,0.389664
1480611303937627,-1.09553,-0.522412,0.389204
1480611303960187,-1.09554,-0.52228,0.388952
1480611303979739,-1.09554,-0.52228,0.388952
1480611303997787,-1.09552,-0.522236,0.388949
1480611304020351,-1.09552,-0.522236,0.388949
1480611304081008,-1.0956,-0.522354,0.389041
1480611304085520,-1.09558,-0.522417,0.388929
1480611304124628,-1.09568,-0.522232,0.38899
1480611304127133,-1.09568,-0.522232,0.38899
1480611304140166,-1.09568,-0.522232,0.38899
1480611304169243,-1.09521,-0.52222,0.388507
1480611304182278,-1.09503,-0.522156,0.388103
1480611304201329,-1.09557,-0.521695,0.388023
1480611304227398,-1.09568,-0.521511,0.388083
1480611304237926,-1.09521,-0.520887,0.387813
1480611304276529,-1.09453,-0.520981,0.387457
1480611304283045,-1.09436,-0.520985,0.387416
1480611304298087,-1.09436,-0.520985,0.387416
1480611304333680,-1.09453,-0.520981,0.387457
1480611304387825,-1.09453,-0.520981,0.387457
1480611304390332,-1.09453,-0.520981,0.387457
1480611304396849,-1.09453,-0.520981,0.387457
1480611304426428,-1.09461,-0.521098,0.387549
1480611304431441,-1.09459,-0.521162,0.387437
1480611304440967,-1.0952,-0.52082,0.387449
1480611304463025,-1.09522,-0.520756,0.387561
1480611304479067,-1.09519,-0.520712,0.387557
1480611304508149,-1.0952,-0.52082,0.387449
1480611304521179,-1.09517,-0.520776,0.387446
1480611304537723,-1.09534,-0.520772,0.387486
1480611304563794,-1.09536,-0.520708,0.387598
1480611304582844,-1.09536,-0.520708,0.387598
1480611304628967,-1.09536,-0.520708,0.387598
1480611304634481,-1.09536,-0.520708,0.387598
1480611304666065,-1.09534,-0.520772,0.387486
1480611304670075,-1.09536,-0.520708,0.387598
1480611304711688,-1.09536,-0.520708,0.387598
1480611304725725,-1.09553,-0.520704,0.387639
1480611304746779,-1.09553,-0.520704,0.387639
1480611304749286,-1.09553,-0.520704,0.387639
1480611304794407,-1.09553,-0.520704,0.387639
1480611304799419,-1.09553,-0.520704,0.387639
1480611304831004,-1.0955,-0.52066,0.387635
1480611304846045,-1.09567,-0.520657,0.387676
1480611304873617,-1.0955,-0.52066,0.387635
1480611304891666,-1.0955,-0.52066,0.387635
1480611304905702,-1.0955,-0.52066,0.387635
1480611304920241,-1.09567,-0.520657,0.387676
1480611304922246,-1.09567,-0.520657,0.387676
1480611304942801,-1.09567,-0.520657,0.387676
1480611304997447,-1.09484,-0.52069,0.387391
1480611305033542,-1.09484,-0.52069,0.387391
1480611305040060,-1.09484,-0.52069,0.387391
1480611305054598,-1.09501,-0.520686,0.387432
1480611305077661,-1.09501,-0.520686,0.387432
1480611305083174,-1.09506,-0.52076,0.38752
1480611305106237,-1.09506,-0.52076,0.38752
1480611305122278,-1.09522,-0.520756,0.387561
1480611305145340,-1.09522,-0.520756,0.387561
1480611305159377,-1.09522,-0.520756,0.387561
1480611305182940,-1.09522,-0.520756,0.387561
1480611305204999,-1.09522,-0.520756,0.387561
1480611305221042,-1.09521,-0.520649,0.387669
1480611305249618,-1.09538,-0.520645,0.38771
1480611305264657,-1.09538,-0.520645,0.38771
1480611305279698,-1.09538,-0.520645,0.38771
1480611305309778,-1.09538,-0.520645,0.38771
1480611305323814,-1.09538,-0.520645,0.38771
1480611305339857,-1.0953,-0.520527,0.387618
1480611305362921,-1.0953,-0.520527,0.387618
1480611305391996,-1.09538,-0.520645,0.38771
1480611305399516,-1.09538,-0.520645,0.38771
1480611305422578,-1.09538,-0.520645,0.38771
1480611305467698,-1.09538,-0.520645,0.38771
1480611305470204,-1.0953,-0.520527,0.387618
1480611305482236,-1.09547,-0.520523,0.387659
1480611305504797,-1.09538,-0.520645,0.38771
1480611305519334,-1.09538,-0.520645,0.38771
1480611305541896,-1.09538,-0.520645,0.38771
1480611305571974,-1.09555,-0.520641,0.387751
1480611305579495,-1.09549,-0.52046,0.38777
1480611305602557,-1.09547,-0.520523,0.387659
1480611305625618,-1.09599,-0.520541,0.387866
1480611305685778,-1.09599,-0.520541,0.387866
1480611305730898,-1.09599,-0.520541,0.387866
1480611305753458,-1.09555,-0.520294,0.387715
1480611305757973,-1.09561,-0.520475,0.387696
1480611305768999,-1.09569,-0.520593,0.387788
1480611305782034,-1.09571,-0.52053,0.387899
1480611305812113,-1.09579,-0.520408,0.387848
1480611305818631,-1.09584,-0.520482,0.387937
1480611305849715,-1.09569,-0.520593,0.387788
1480611305866759,-1.09608,-0.520859,0.387823
1480611305887313,-1.09608,-0.520859,0.387823
1480611305932434,-1.09625,-0.520856,0.387864
1480611305936946,-1.09625,-0.520856,0.387864
1480611305992593,-1.09625,-0.520856,0.387864
1480611305995101,-1.09622,-0.520812,0.38786
1480611306000615,-1.0963,-0.520929,0.387952
1480611306022675,-1.09639,-0.520808,0.387901
1480611306046236,-1.09639,-0.520808,0.387901
1480611306058771,-1.0963,-0.520929,0.387952
1480611306082332,-1.09628,-0.520993,0.387841
1480611306104392,-1.09636,-0.52111,0.387933
1480611306127453,-1.09636,-0.52111,0.387933
1480611306142493,-1.0963,-0.520929,0.387952
1480611306255293,-1.09647,-0.520925,0.387993
1480611306257805,-1.09636,-0.52111,0.387933
1480611306264318,-1.09658,-0.52118,0.388062
1480611306267828,-1.09658,-0.52118,0.388062
1480611306284871,-1.09658,-0.52118,0.388062
1480611306313447,-1.097,-0.521144,0.388066
1480611306330995,-1.09759,-0.521104,0.38811
1480611306353053,-1.09761,-0.521041,0.388222
1480611306365586,-1.09711,-0.520959,0.388126
1480611306384135,-1.09703,-0.520842,0.388034
1480611306406696,-1.09711,-0.520959,0.388126
1480611306440285,-1.09763,-0.520977,0.388333
1480611306517491,-1.09763,-0.520977,0.388333
1480611306521000,-1.09763,-0.520977,0.388333
1480611306538546,-1.09769,-0.521158,0.388314
1480611306553084,-1.09819,-0.52124,0.38841
1480611306562110,-1.09833,-0.521192,0.388447
1480611306592690,-1.09811,-0.521122,0.388317
1480611306613245,-1.09768,-0.520983,0.388058
1480611306630292,-1.09759,-0.521104,0.38811
1480611306644328,-1.09759,-0.521104,0.38811
1480611306695464,-1.09759,-0.521104,0.38811
1480611306770163,-1.09776,-0.5211,0.388151
1480611306796741,-1.09776,-0.5211,0.388151
1480611306809266,-1.09782,-0.521282,0.388131
1480611306811272,-1.09782,-0.521282,0.388131
1480611306825309,-1.09779,-0.521238,0.388128
1480611306846867,-1.09779,-0.521238,0.388128
1480611306870430,-1.09787,-0.521355,0.38822
1480611306885469,-1.09787,-0.521355,0.38822
1480611306922067,-1.09787,-0.521355,0.38822
1480611306924575,-1.09787,-0.521355,0.38822
1480611306983230,-1.09846,-0.521315,0.388264
1480611307005288,-1.09846,-0.521315,0.388264
1480611307043891,-1.09703,-0.522,0.387724
1480611307051912,-1.09695,-0.522121,0.387775
1480611307071965,-1.097,-0.521956,0.38772
1480611307087507,-1.09708,-0.522073,0.387812
1480611307108062,-1.09714,-0.522254,0.387793
1480611307133128,-1.09714,-0.522254,0.387793
1480611307147666,-1.09679,-0.521994,0.387482
1480611307168723,-1.09679,-0.521994,0.387482
1480611307190783,-1.09728,-0.5219,0.387323
1480611307206824,-1.09708,-0.521792,0.386915
1480611307244424,-1.09687,-0.52183,0.386677
1480611307261469,-1.09656,-0.521707,0.386344
1480611307305085,-1.09663,-0.52141,0.386038
1480611307307596,-1.09663,-0.52141,0.386038
1480611307344191,-1.09663,-0.52141,0.386038
1480611307345694,-1.09663,-0.52141,0.386038
1480611307351709,-1.09663,-0.52141,0.386038
1480611307388307,-1.09663,-0.52141,0.386038
1480611307392819,-1.09677,-0.521362,0.386075
1480611307408862,-1.09677,-0.521362,0.386075
1480611307424904,-1.09685,-0.52148,0.386167
1480611307455486,-1.09683,-0.521544,0.386055
1480611307468019,-1.09691,-0.521661,0.386147
1480611307520158,-1.09701,-0.521476,0.386208
1480611307553246,-1.09707,-0.52155,0.386296
1480611307559262,-1.0965,-0.521659,0.385866
1480611307574303,-1.09656,-0.52184,0.385846
1480611307575806,-1.09705,-0.521747,0.385687
1480611307604883,-1.09705,-0.521747,0.385687
1480611307608396,-1.09656,-0.521426,0.385448
1480611307642484,-1.09614,-0.521222,0.3853
1480611307659027,-1.09597,-0.521226,0.38526
1480611307664542,-1.09603,-0.521407,0.38524
1480611307694622,-1.09603,-0.521407,0.38524
1480611307709662,-1.0962,-0.521404,0.385281
1480611307723700,-1.09617,-0.52136,0.385277
1480611307769821,-1.0958,-0.521401,0.384999
1480611307773332,-1.09588,-0.521519,0.385091
1480611307837502,-1.09625,-0.52141,0.385006
1480611307840010,-1.09625,-0.52141,0.385006
1480611307846528,-1.09596,-0.520983,0.384642
1480611307858557,-1.09596,-0.520983,0.384642
1480611307891148,-1.09596,-0.520983,0.384642
1480611307895657,-1.09596,-0.520983,0.384642
1480611307903678,-1.09596,-0.520983,0.384642
1480611307927742,-1.09612,-0.52098,0.384682
1480611307950803,-1.09612,-0.52098,0.384682
1480611307972363,-1.09612,-0.52098,0.384682
1480611307986900,-1.09609,-0.520936,0.384679
1480611308026004,-1.09617,-0.521053,0.384771
1480611308039540,-1.09617,-0.521053,0.384771
1480611308047059,-1.09617,-0.521053,0.384771
1480611308075134,-1.09634,-0.52105,0.384812
1480611308093683,-1.09634,-0.52105,0.384812
1480611308107225,-1.09634,-0.52105,0.384812
1480611308130783,-1.09623,-0.521235,0.384751
1480611308150334,-1.09624,-0.520996,0.384608
1480611308175402,-1.09678,-0.520537,0.384529
1480611308189940,-1.09697,-0.52047,0.384681
1480611308210494,-1.09697,-0.52047,0.384681
1480611308227038,-1.09598,-0.520613,0.384247
1480611308257119,-1.09598,-0.520613,0.384247
1480611308278177,-1.09595,-0.52057,0.384244
1480611308309257,-1.09612,-0.520566,0.384284
1480611308324799,-1.09614,-0.520502,0.384396
1480611308362399,-1.09612,-0.520566,0.384284
1480611308364906,-1.0962,-0.520683,0.384376
1480611308371423,-1.0962,-0.520683,0.384376
1480611308390476,-1.0962,-0.520683,0.384376
1480611308407018,-1.0962,-0.520683,0.384376
1480611308430079,-1.0962,-0.520683,0.384376
1480611308450633,-1.09617,-0.52064,0.384373
1480611308475699,-1.0962,-0.520683,0.384376
1480611308490239,-1.09625,-0.520757,0.384465
1480611308519817,-1.09634,-0.520636,0.384414
1480611308528841,-1.09634,-0.520636,0.384414
1480611308608052,-1.09634,-0.520636,0.384414
1480611308626601,-1.09634,-0.520636,0.384414
1480611308635124,-1.09634,-0.520636,0.384414
1480611308653172,-1.09634,-0.520636,0.384414
1480611308670719,-1.09634,-0.520636,0.384414
1480611308712831,-1.09642,-0.520753,0.384505
1480611308731882,-1.09642,-0.520753,0.384505
1480611308736895,-1.09642,-0.520753,0.384505
1480611308751935,-1.09655,-0.520706,0.384543
1480611308767476,-1.09655,-0.520706,0.384543
1480611308811594,-1.09655,-0.520706,0.384543
1480611308820617,-1.09655,-0.520706,0.384543
1480611308836160,-1.09655,-0.520706,0.384543
1480611308880778,-1.09605,-0.520184,0.384439
1480611308894313,-1.0956,-0.519936,0.384289
1480611308916873,-1.09561,-0.520044,0.384181
1480611308948457,-1.09553,-0.520165,0.384232
1480611308954474,-1.0955,-0.520121,0.384229
1480611308969513,-1.09566,-0.520118,0.384269
1480611308992074,-1.09585,-0.52005,0.384422
1480611309013131,-1.09566,-0.520118,0.384269
1480611309029173,-1.09566,-0.520118,0.384269
1480611309052234,-1.09583,-0.520114,0.38431
1480611309112393,-1.09583,-0.520114,0.38431
1480611309125929,-1.09585,-0.52005,0.384422
1480611309151498,-1.09583,-0.520114,0.38431
1480611309179572,-1.0958,-0.52007,0.384306
1480611309181076,-1.0958,-0.52007,0.384306
1480611309193108,-1.09599,-0.520003,0.384459
1480611309224693,-1.09599,-0.520003,0.384459
1480611309233215,-1.09599,-0.520003,0.384459
1480611309253770,-1.0958,-0.52007,0.384306
1480611309278335,-1.09588,-0.520187,0.384398
1480611309291871,-1.0958,-0.52007,0.384306
1480611309314431,-1.09599,-0.520003,0.384459
1480611309330975,-1.09599,-0.520003,0.384459
1480611309369578,-1.09605,-0.520184,0.384439
1480611309373087,-1.09605,-0.520184,0.384439
1480611309404671,-1.09605,-0.520184,0.384439
1480611309412192,-1.09605,-0.520184,0.384439
1480611309456811,-1.09621,-0.520073,0.384588
1480611309472352,-1.09621,-0.520073,0.384588
1480611309510955,-1.09605,-0.520184,0.384439
1480611309514464,-1.09605,-0.520184,0.384439
1480611309538528,-1.09621,-0.520073,0.384588
1480611309545549,-1.09571,-0.519752,0.38435
1480611309560586,-1.09499,-0.519599,0.384126
1480611309584650,-1.09499,-0.519599,0.384126
1480611309592170,-1.09519,-0.519733,0.384143
1480611309614229,-1.09519,-0.519733,0.384143
1480611309629270,-1.09536,-0.519729,0.384183
1480611309651829,-1.09549,-0.519682,0.384221
1480611309675393,-1.09549,-0.519682,0.384221
1480611309702965,-1.09557,-0.519799,0.384312
1480611309765632,-1.09557,-0.519799,0.384312
1480611309780671,-1.09557,-0.519799,0.384312
1480611309795713,-1.09571,-0.519752,0.38435
1480611309824788,-1.09571,-0.519752,0.38435
1480611309829301,-1.09571,-0.519752,0.38435
1480611309833312,-1.09579,-0.519869,0.384441
1480611309862389,-1.09588,-0.519748,0.38439
1480611309875423,-1.0959,-0.519684,0.384502
1480611309891968,-1.09582,-0.519567,0.38441
1480611309914528,-1.09573,-0.519688,0.384461
1480611309937589,-1.09571,-0.519752,0.38435
1480611309953632,-1.09571,-0.519752,0.38435
1480611309975190,-1.09571,-0.519752,0.38435
1480611310013291,-1.0959,-0.519684,0.384502
1480611310025323,-1.0959,-0.519684,0.384502
1480611310035855,-1.09588,-0.519748,0.38439
1480611310055403,-1.09588,-0.519748,0.38439
1480611310093002,-1.09593,-0.519822,0.384479
1480611310109045,-1.09604,-0.519637,0.384539
1480611310115563,-1.09604,-0.519637,0.384539
1480611310140128,-1.09604,-0.519637,0.384539
1480611310160682,-1.09612,-0.519754,0.384631
1480611310176228,-1.09628,-0.519751,0.384672
1480611310198283,-1.09625,-0.519707,0.384668
1480611310214325,-1.09625,-0.519707,0.384668
1480611310237888,-1.09625,-0.519707,0.384668
1480611310257942,-1.09692,-0.519786,0.384804
1480611310290530,-1.09743,-0.519868,0.384899
1480611310295543,-1.09756,-0.519821,0.384937
1480611310312085,-1.09708,-0.519674,0.384953
1480611310335648,-1.09708,-0.519674,0.384953
1480611310357208,-1.09708,-0.519674,0.384953
1480611310372246,-1.09756,-0.520059,0.38508
1480611310402826,-1.09772,-0.520055,0.38512
1480611310416864,-1.09772,-0.520055,0.38512
1480611310431905,-1.09769,-0.520011,0.385117
1480611310454464,-1.09734,-0.519989,0.384951
1480611310477027,-1.09732,-0.520053,0.384839
1480611310492064,-1.09732,-0.520053,0.384839
1480611310515126,-1.09732,-0.520053,0.384839
1480611310537184,-1.09714,-0.519855,0.384933
1480611310567765,-1.09706,-0.519738,0.384841
1480611310574785,-1.09706,-0.519738,0.384841
1480611310619904,-1.09731,-0.519852,0.384974
1480611310622413,-1.09728,-0.519808,0.38497
1480611310634442,-1.09728,-0.519808,0.38497
1480611310657507,-1.09728,-0.519808,0.38497
1480611310671541,-1.09745,-0.519804,0.385011
1480611310695607,-1.09745,-0.519804,0.385011
1480611310717163,-1.09734,-0.519989,0.384951
1480611310756770,-1.09734,-0.519989,0.384951
1480611310760278,-1.09734,-0.519989,0.384951
1480611310778827,-1.09734,-0.519989,0.384951
1480611310801387,-1.09751,-0.519985,0.384991
1480611310814422,-1.09748,-0.519942,0.384988
1480611310845003,-1.09756,-0.520059,0.38508
1480611310860044,-1.09756,-0.520059,0.38508
1480611310883105,-1.09756,-0.520059,0.38508
1480611310897142,-1.09772,-0.520055,0.38512
1480611310925718,-1.09772,-0.520055,0.38512
1480611310934240,-1.0978,-0.520173,0.385212
1480611310972849,-1.09777,-0.520129,0.385209
1480611310977859,-1.09777,-0.520129,0.385209
1480611310994902,-1.09777,-0.520129,0.385209
1480611311023480,-1.09794,-0.520125,0.38525
1480611311038518,-1.09853,-0.520087,0.385294
1480611311062081,-1.0985,-0.520043,0.385291
1480611311084640,-1.09781,-0.520374,0.385078
1480611311098178,-1.09742,-0.520546,0.385051
1480611311115222,-1.09742,-0.520546,0.385051
1480611311136779,-1.09816,-0.520635,0.385388
1480611311159339,-1.09816,-0.520635,0.385388
1480611311180897,-1.09824,-0.520752,0.38548
1480611311206969,-1.09838,-0.520705,0.385517
1480611311217995,-1.09838,-0.520705,0.385517
1480611311252086,-1.09863,-0.520818,0.38565
1480611311272140,-1.09863,-0.520818,0.38565
1480611311279659,-1.09894,-0.520968,0.385594
1480611311295201,-1.09878,-0.520972,0.385553
1480611311326284,-1.09825,-0.520953,0.385346
1480611311340324,-1.09842,-0.52095,0.385386
1480611311361878,-1.0985,-0.521067,0.385478
1480611311401483,-1.0985,-0.521067,0.385478
1480611311405494,-1.0985,-0.521067,0.385478
1480611311414518,-1.0985,-0.521067,0.385478
1480611311436577,-1.0985,-0.521067,0.385478
1480611311459638,-1.09847,-0.521023,0.385475
1480611311495233,-1.09847,-0.521023,0.385475
1480611311506771,-1.09847,-0.521023,0.385475
1480611311557900,-1.09855,-0.521141,0.385567
1480611311572439,-1.09853,-0.521204,0.385456
1480611311594497,-1.09855,-0.521141,0.385567
1480611311597004,-1.09855,-0.521141,0.385567
1480611311617558,-1.09853,-0.521204,0.385456
1480611311645634,-1.09861,-0.521322,0.385548
1480611311653655,-1.09855,-0.521141,0.385567
1480611311677217,-1.09872,-0.521137,0.385608
1480611311714817,-1.09872,-0.521137,0.385608
1480611311729858,-1.09872,-0.521137,0.385608
1480611311736876,-1.09912,-0.521166,0.3855
1480611311774476,-1.09982,-0.520942,0.385605
1480611311780492,-1.09992,-0.520757,0.385665
1480611311805559,-1.09934,-0.520557,0.385477
1480611311819596,-1.09892,-0.520592,0.385473
1480611311848173,-1.09875,-0.520596,0.385432
1480611311857196,-1.09933,-0.520796,0.38562
1480611311879755,-1.09931,-0.520752,0.385617
1480611311900310,-1.09947,-0.520748,0.385658
1480611311916855,-1.09949,-0.520685,0.385769
1480611311939415,-1.09947,-0.520748,0.385658
1480611311960470,-1.09955,-0.520866,0.38575
1480611311990552,-1.09939,-0.520869,0.385709
1480611311999574,-1.09998,-0.520831,0.385754
1480611312035670,-1.10008,-0.520646,0.385814
1480611312059233,-1.10008,-0.520646,0.385814
1480611312090316,-1.10008,-0.520646,0.385814
1480611312092321,-1.0999,-0.520713,0.385662
1480611312098337,-1.10006,-0.52071,0.385702
1480611312127415,-1.10008,-0.520646,0.385814
1480611312140452,-1.10008,-0.520646,0.385814
1480611312158497,-1.10008,-0.520646,0.385814
1480611312180055,-1.10008,-0.520646,0.385814
1480611312200108,-1.10008,-0.520646,0.385814
1480611312219161,-1.10008,-0.520646,0.385814
1480611312239715,-1.10008,-0.520646,0.385814
1480611312261772,-1.10008,-0.520646,0.385814
1480611312276812,-1.10008,-0.520646,0.385814
1480611312314412,-1.10006,-0.52071,0.385702
1480611312323438,-1.09998,-0.520831,0.385754
1480611312337473,-1.10014,-0.520827,0.385794
1480611312359532,-1.10014,-0.520827,0.385794
1480611312389613,-1.10016,-0.520763,0.385906
1480611312404652,-1.10014,-0.520827,0.385794
1480611312419692,-1.10014,-0.520827,0.385794
1480611312443255,-1.10022,-0.520945,0.385887
1480611312462808,-1.10011,-0.520783,0.385791
1480611312487372,-1.1003,-0.520716,0.385943
1480611312507928,-1.10022,-0.520598,0.385851
1480611312516450,-1.09925,-0.520678,0.385528
1480611312546529,-1.09933,-0.520796,0.38562
1480611312562071,-1.09933,-0.520796,0.38562
1480611312592151,-1.10003,-0.520572,0.385725
1480611312606189,-1.10002,-0.520465,0.385833
1480611312622231,-1.10002,-0.520465,0.385833
1480611312636770,-1.1,-0.520528,0.385722
1480611312659331,-1.09986,-0.520576,0.385684
1480611312681889,-1.09986,-0.520576,0.385684
1480611312697933,-1.1,-0.520528,0.385722
1480611312719490,-1.1,-0.520528,0.385722
1480611312760098,-1.10003,-0.520572,0.385725
1480611312763608,-1.10003,-0.520572,0.385725
1480611312781154,-1.09992,-0.52065,0.385773
1480611312802210,-1.10008,-0.520646,0.385814
1480611312824268,-1.1,-0.520528,0.385722
1480611312839308,-1.1,-0.520528,0.385722
1480611312876909,-1.10002,-0.520465,0.385833
1480611312890444,-1.1,-0.520528,0.385722
1480611312899471,-1.1,-0.520528,0.385722
1480611312922032,-1.10002,-0.520465,0.385833
1480611312950604,-1.10002,-0.520465,0.385833
1480611312960130,-1.10002,-0.520465,0.385833
1480611312981688,-1.1,-0.520528,0.385722
1480611313003245,-1.10003,-0.520572,0.385725
1480611313020290,-1.09986,-0.520576,0.385684
1480611313041847,-1.10003,-0.520572,0.385725
1480611313062904,-1.10002,-0.520465,0.385833
1480611313079448,-1.10003,-0.520572,0.385725
1480611313108023,-1.09986,-0.520576,0.385684
1480611313123565,-1.09994,-0.520693,0.385776
1480611313147628,-1.1,-0.520528,0.385722
1480611313162175,-1.1,-0.520528,0.385722
1480611313193751,-1.1,-0.520528,0.385722
1480611313201272,-1.1,-0.520528,0.385722
1480611313221828,-1.09986,-0.520576,0.385684
1480611313250402,-1.09917,-0.520561,0.385436
1480611313258924,-1.09861,-0.520644,0.385395
1480611313281986,-1.09845,-0.520647,0.385354
1480611313313069,-1.09843,-0.520711,0.385243
1480611313319586,-1.09843,-0.520711,0.385243
1480611313342146,-1.09826,-0.520715,0.385202
1480611313364205,-1.09843,-0.520711,0.385243
1480611313386264,-1.09843,-0.520711,0.385243
1480611313407821,-1.09843,-0.520711,0.385243
1480611313424866,-1.09834,-0.520832,0.385294
1480611313438904,-1.09845,-0.52102,0.385
1480611313522627,-1.09845,-0.52102,0.385
1480611313525133,-1.09858,-0.520972,0.385037
1480611313544685,-1.09858,-0.520972,0.385037
1480611313558723,-1.09858,-0.520972,0.385037
1480611313581785,-1.09861,-0.521016,0.385041
1480611313605346,-1.09852,-0.520791,0.385057
1480611313618882,-1.09855,-0.520835,0.38506
1480611313641944,-1.09855,-0.520835,0.38506
1480611313664505,-1.09837,-0.520902,0.384908
1480611313685560,-1.09875,-0.520969,0.385078
1480611313708621,-1.09875,-0.520969,0.385078
1480611313724664,-1.09886,-0.520784,0.385138
1480611313760760,-1.09886,-0.520784,0.385138
1480611313778307,-1.09892,-0.520965,0.385119
1480611313790339,-1.09875,-0.520969,0.385078
1480611313830949,-1.09875,-0.520969,0.385078
1480611313844984,-1.09892,-0.520965,0.385119
1480611313847491,-1.09886,-0.520784,0.385138
1480611313866041,-1.09886,-0.520784,0.385138
1480611313882086,-1.09889,-0.520921,0.385116
1480611313912162,-1.09875,-0.520969,0.385078
1480611313925699,-1.09939,-0.520564,0.385202
1480611313941741,-1.09939,-0.520564,0.385202
1480611313966307,-1.09956,-0.52056,0.385243
1480611313985859,-1.09872,-0.520485,0.385066
1480611314001901,-1.09858,-0.520533,0.385028
1480611314030478,-1.09858,-0.520533,0.385028
1480611314129742,-1.09858,-0.520533,0.385028
1480611314174862,-1.09858,-0.520533,0.385028
1480611314182883,-1.09861,-0.52067,0.385006
1480611314184387,-1.09861,-0.52067,0.385006
1480611314187897,-1.0988,-0.520603,0.385158
1480611314217976,-1.0988,-0.520603,0.385158
1480611314228003,-1.0988,-0.520603,0.385158
1480611314255577,-1.09886,-0.520784,0.385138
1480611314264601,-1.09888,-0.52072,0.38525
1480611314301709,-1.09894,-0.520555,0.385195
1480611314347822,-1.09894,-0.520555,0.385195
1480611314349827,-1.09897,-0.520599,0.385198
1480611314355342,-1.09894,-0.520555,0.385195
1480611314369881,-1.09894,-0.520555,0.385195
1480611314386926,-1.09894,-0.520555,0.385195
1480611314406980,-1.09894,-0.520555,0.385195
1480611314421519,-1.0991,-0.520551,0.385236
1480611314452099,-1.09894,-0.520555,0.385195
1480611314467139,-1.099,-0.520736,0.385176
1480611314487694,-1.099,-0.520736,0.385176
1480611314504238,-1.099,-0.520736,0.385176
1480611314528302,-1.09915,-0.520625,0.385325
1480611314541338,-1.09915,-0.520625,0.385325
1480611314578435,-1.09913,-0.520689,0.385213
1480611314616036,-1.09921,-0.520806,0.385305
1480611314624057,-1.09921,-0.520806,0.385305
1480611314634585,-1.09938,-0.520802,0.385346
1480611314654137,-1.09938,-0.520802,0.385346
1480611314668175,-1.09937,-0.520695,0.385454
1480611314697755,-1.09943,-0.520876,0.385435
1480611314709283,-1.09862,-0.521083,0.385404
1480611314727833,-1.09862,-0.521083,0.385404
1480611314745379,-1.09968,-0.521057,0.385931
1480611314772956,-1.10021,-0.521075,0.386139
1480611314787993,-1.10021,-0.521075,0.386139
1480611314812558,-1.10043,-0.521145,0.386268
1480611314827097,-1.10043,-0.521145,0.386268
1480611314865198,-1.10043,-0.521145,0.386268
1480611314895780,-1.10043,-0.521145,0.386268
1480611314918841,-1.10051,-0.521262,0.386361
1480611314924858,-1.10051,-0.521262,0.386361
1480611314927363,-1.10049,-0.521326,0.386249
1480611314954436,-1.10051,-0.521262,0.386361
1480611314967972,-1.10064,-0.521215,0.386398
1480611314984516,-1.10064,-0.521215,0.386398
1480611315007577,-1.10064,-0.521215,0.386398
1480611315028634,-1.10064,-0.521215,0.386398
1480611315045177,-1.10064,-0.521215,0.386398
1480611315067236,-1.10064,-0.521215,0.386398
1480611315089798,-1.10064,-0.521215,0.386398
1480611315104335,-1.10064,-0.521215,0.386398
1480611315135417,-1.10064,-0.521215,0.386398
1480611315186052,-1.1007,-0.521396,0.386379
1480611315196581,-1.1007,-0.521396,0.386379
1480611315211620,-1.10089,-0.521329,0.386531
1480611315224654,-1.10084,-0.521348,0.386416
1480611315262254,-1.10092,-0.521466,0.386509
1480611315270777,-1.10075,-0.521469,0.386468
1480611315283812,-1.10092,-0.521466,0.386509
1480611315314394,-1.10092,-0.521466,0.386509
1480611315336954,-1.10162,-0.521242,0.386613
1480611315343972,-1.10162,-0.521242,0.386613
1480611315402627,-1.10082,-0.521412,0.386305
1480611315429199,-1.10009,-0.521499,0.386222
1480611315462789,-1.10017,-0.521616,0.386315
1480611315473317,-1.1007,-0.521396,0.386379
1480611315486350,-1.10054,-0.5214,0.386338
1480611315492868,-1.10062,-0.521517,0.38643
1480611315515930,-1.10078,-0.521514,0.386471
1480611315525455,-1.10046,-0.521629,0.386281
1480611315562556,-1.10046,-0.521629,0.386281
1480611315571578,-1.1009,-0.52153,0.386397
1480611315583610,-1.1009,-0.52153,0.386397
1480611315608677,-1.1009,-0.52153,0.386397
1480611315681369,-1.1009,-0.52153,0.386397
1480611315720976,-1.1009,-0.52153,0.386397
1480611315742533,-1.10107,-0.521526,0.386438
1480611315744538,-1.10104,-0.521482,0.386434
1480611315768602,-1.10104,-0.521482,0.386434
1480611315796678,-1.10104,-0.521482,0.386434
1480611315800687,-1.10129,-0.521596,0.386568
1480611315809711,-1.1011,-0.521663,0.386415
1480611315879396,-1.10118,-0.521781,0.386508
1480611315884409,-1.10118,-0.521781,0.386508
1480611315966127,-1.10132,-0.521733,0.386545
1480611315981669,-1.10135,-0.521777,0.386549
1480611315997210,-1.10132,-0.521733,0.386545
1480611316019268,-1.1021,-0.521627,0.386742
1480611316035812,-1.1021,-0.521627,0.386742
1480611316050351,-1.10096,-0.521711,0.386378
1480611316072411,-1.10059,-0.52182,0.386463
1480611316086447,-1.10059,-0.52182,0.386463
1480611316110015,-1.10059,-0.52182,0.386463
1480611316132068,-1.10059,-0.52182,0.386463
1480611316229829,-1.10059,-0.52182,0.386463
1480611316232337,-1.10065,-0.522001,0.386444
1480611316254895,-1.10081,-0.521889,0.386593
1480611316266928,-1.10079,-0.521953,0.386481
1480611316289988,-1.10079,-0.521953,0.386481
1480611316312047,-1.10079,-0.521953,0.386481
1480611316326085,-1.10081,-0.521889,0.386593
1480611316351151,-1.10095,-0.521842,0.38663
1480611316372208,-1.10081,-0.521889,0.386593
1480611316394266,-1.10081,-0.521889,0.386593
1480611316415321,-1.10081,-0.521889,0.386593
1480611316439388,-1.10081,-0.521889,0.386593
1480611316499045,-1.10098,-0.521886,0.386633
1480611316524618,-1.10098,-0.521886,0.386633
1480611316546677,-1.10079,-0.521953,0.386481
1480611316553194,-1.10087,-0.522071,0.386573
1480611316558207,-1.10095,-0.521842,0.38663
1480611316573247,-1.10095,-0.521842,0.38663
1480611316589293,-1.10095,-0.521842,0.38663
1480611316612351,-1.10101,-0.522023,0.386611
1480611316632906,-1.10101,-0.522023,0.386611
1480611316649450,-1.10103,-0.521959,0.386722
1480611316673014,-1.10095,-0.521842,0.38663
1480611316694570,-1.10135,-0.521431,0.386513
1480611316710112,-1.10118,-0.521434,0.386472
1480611316746207,-1.10121,-0.521478,0.386475
1480611316761247,-1.1007,-0.521396,0.386379
1480611316776790,-1.1007,-0.521396,0.386379
1480611316791829,-1.1007,-0.521396,0.386379
1480611316812885,-1.1007,-0.521396,0.386379
1480611316829931,-1.1007,-0.521396,0.386379
1480611316860010,-1.10078,-0.521514,0.386471
1480611316873045,-1.10075,-0.521469,0.386468
1480611316897110,-1.10092,-0.521466,0.386509
1480611316920171,-1.10092,-0.521466,0.386509
1480611316932705,-1.10092,-0.521466,0.386509
1480611316949247,-1.10075,-0.521469,0.386468
1480611316971808,-1.10075,-0.521469,0.386468
1480611316994368,-1.10092,-0.521466,0.386509
1480611317018432,-1.10092,-0.521466,0.386509
1480611317045504,-1.10092,-0.521466,0.386509
1480611317070070,-1.10092,-0.521466,0.386509
1480611317072576,-1.10092,-0.521466,0.386509
1480611317099648,-1.10092,-0.521466,0.386509
1480611317120704,-1.10084,-0.521348,0.386416
1480611317137248,-1.10086,-0.521285,0.386528
1480611317154293,-1.10086,-0.521285,0.386528
1480611317181866,-1.10092,-0.521466,0.386509
1480611317188889,-1.10092,-0.521466,0.386509
1480611317211946,-1.10092,-0.521466,0.386509
1480611317251552,-1.10092,-0.521466,0.386509
1480611317255566,-1.10111,-0.521398,0.386661
1480611317295669,-1.10092,-0.521466,0.386509
1480611317309706,-1.10092,-0.521466,0.386509
1480611317332267,-1.10092,-0.521466,0.386509
1480611317334773,-1.10092,-0.521466,0.386509
1480611317356331,-1.10109,-0.521462,0.386549
1480611317369365,-1.10111,-0.521398,0.386661
1480611317406965,-1.10109,-0.521462,0.386549
1480611317414485,-1.10092,-0.521466,0.386509
1480611317428523,-1.10092,-0.521466,0.386509
1480611317452085,-1.10173,-0.521057,0.386673
1480611317489185,-1.10165,-0.52094,0.386581
1480611317519265,-1.10106,-0.52074,0.386392
1480611317525280,-1.10031,-0.52089,0.386199
1480611317534805,-1.10015,-0.520894,0.386158
1480611317564384,-1.10015,-0.520894,0.386158
1480611317573909,-1.10031,-0.52089,0.386199
1480611317594464,-1.10031,-0.52089,0.386199
1480611317631563,-1.10031,-0.52089,0.386199
1480611317641089,-1.10031,-0.52089,0.386199
1480611317654624,-1.10021,-0.521075,0.386139
1480611317678187,-1.10021,-0.521075,0.386139
1480611317692725,-1.10031,-0.52089,0.386199
1480611317737345,-1.10031,-0.52089,0.386199
1480611317739851,-1.10031,-0.52089,0.386199
1480611317767427,-1.10015,-0.520894,0.386158
1480611317788481,-1.10037,-0.521072,0.386179
1480611317804523,-1.10031,-0.52089,0.386199
1480611317817558,-1.10031,-0.52089,0.386199
1480611317842123,-1.10031,-0.52089,0.386199
1480611317855663,-1.10031,-0.52089,0.386199
1480611317880725,-1.10031,-0.52089,0.386199
1480611317894763,-1.10031,-0.52089,0.386199
1480611317915318,-1.10031,-0.52089,0.386199
1480611317931861,-1.10023,-0.520773,0.386106
1480611317954422,-1.10023,-0.520773,0.386106
1480611317977985,-1.10023,-0.520773,0.386106
1480611317999542,-1.10031,-0.52089,0.386199
1480611318015083,-1.10031,-0.52089,0.386199
1480611318038144,-1.10042,-0.520705,0.386259
1480611318059201,-1.10042,-0.520705,0.386259
1480611318083264,-1.10042,-0.520705,0.386259
1480611318097804,-1.10048,-0.520887,0.386239
1480611318117856,-1.10045,-0.520843,0.386236
1480611318134402,-1.10047,-0.520779,0.386347
1480611318157462,-1.10056,-0.520658,0.386296
1480611318185537,-1.10039,-0.520661,0.386255
1480611318194561,-1.10039,-0.520661,0.386255
1480611318217120,-1.10047,-0.520779,0.386347
1480611318231159,-1.10039,-0.520661,0.386255
1480611318254721,-1.10056,-0.520658,0.386296
1480611318276780,-1.09994,-0.520559,0.386274
1480611318291321,-1.09977,-0.520563,0.386233
1480611318314379,-1.09977,-0.520563,0.386233
1480611318360001,-1.09977,-0.520563,0.386233
1480611318362509,-1.09977,-0.520563,0.386233
1480611318374539,-1.09977,-0.520563,0.386233
1480611318397100,-1.09994,-0.520559,0.386274
1480611318425675,-1.09977,-0.520563,0.386233
1480611318434699,-1.09977,-0.520563,0.386233
1480611318457259,-1.09977,-0.520563,0.386233
1480611318477815,-1.09994,-0.520559,0.386274
1480611318501878,-1.09988,-0.520378,0.386293
1480611318522935,-1.09967,-0.520483,0.386419
1480611318541484,-1.09957,-0.520668,0.386359
1480611318597685,-1.09957,-0.520668,0.386359
1480611318616684,-1.09957,-0.520668,0.386359
1480611318628717,-1.09967,-0.520483,0.386419
1480611318644257,-1.09964,-0.520439,0.386416
1480611318658796,-1.09972,-0.520556,0.386508
1480611318674337,-1.0997,-0.52062,0.386396
1480611318702913,-1.09973,-0.520664,0.3864
1480611318717953,-1.09967,-0.520483,0.386419
1480611318742518,-1.09967,-0.520483,0.386419
1480611318745025,-1.09975,-0.5206,0.386511
1480611318765078,-1.09973,-0.520664,0.3864
1480611318825239,-1.09972,-0.520556,0.386508
1480611318827244,-1.09972,-0.520556,0.386508
1480611318841782,-1.09989,-0.520553,0.386549
1480611318846294,-1.09989,-0.520553,0.386549
1480611318862838,-1.0997,-0.52062,0.386396
1480611318893420,-1.0997,-0.52062,0.386396
1480611318904951,-1.0997,-0.52062,0.386396
1480611318927510,-1.09989,-0.520553,0.386549
1480611318942051,-1.09989,-0.520553,0.386549
1480611318973633,-1.09987,-0.520617,0.386437
1480611318982657,-1.10058,-0.521007,0.386807
1480611319020759,-1.10056,-0.520963,0.386803
1480611319026274,-1.10007,-0.521055,0.386962
1480611319039810,-1.09966,-0.521027,0.38707
1480611319062369,-1.09974,-0.521144,0.387162
1480611319086434,-1.10018,-0.521284,0.387422
1480611319099970,-1.10023,-0.521357,0.387511
1480611319149100,-1.10023,-0.521357,0.387511
1480611319161132,-1.1004,-0.521353,0.387551
1480611319168652,-1.1004,-0.521353,0.387551
1480611319185196,-1.10023,-0.521357,0.387511
1480611319215276,-1.10029,-0.521538,0.387491
1480611319219788,-1.10029,-0.521538,0.387491
1480611319242349,-1.10046,-0.521535,0.387532
1480611319264909,-1.10013,-0.521277,0.387696
1480611319281453,-1.10013,-0.521277,0.387696
1480611319302508,-1.10019,-0.521459,0.387677
1480611319327574,-1.10016,-0.521415,0.387674
1480611319347128,-1.10019,-0.521459,0.387677
1480611319362168,-1.10016,-0.521415,0.387674
1480611319384727,-1.1006,-0.521114,0.387923
1480611319401272,-1.10076,-0.521111,0.387964
1480611319422327,-1.10058,-0.521178,0.387812
1480611319447895,-1.10066,-0.521295,0.387904
1480611319461933,-1.10066,-0.521295,0.387904
1480611319523096,-1.10066,-0.521295,0.387904
1480611319528610,-1.10082,-0.521292,0.387945
1480611319549665,-1.10066,-0.521295,0.387904
1480611319564706,-1.10069,-0.521433,0.387882
1480611319582754,-1.10087,-0.521365,0.388034
1480611319605316,-1.10087,-0.521365,0.388034
1480611319632887,-1.10104,-0.521361,0.388075
1480611319649431,-1.10104,-0.521361,0.388075
1480611319662466,-1.10101,-0.521317,0.388071
1480611319686028,-1.10101,-0.521317,0.388071
1480611319701069,-1.10042,-0.521357,0.388027
1480611319725634,-1.10044,-0.521293,0.388138
1480611319769249,-1.10044,-0.521293,0.388138
1480611319771758,-1.10042,-0.521357,0.388027
1480611319782288,-1.10042,-0.521357,0.388027
1480611319806349,-1.10059,-0.521353,0.388067
1480611319827405,-1.10059,-0.521353,0.388067
1480611319842444,-1.10067,-0.52147,0.38816
1480611319865004,-1.10067,-0.52147,0.38816
1480611319883053,-1.10122,-0.521626,0.388345
1480611319902103,-1.10122,-0.521626,0.388345
1480611319927170,-1.10139,-0.521622,0.388386
1480611319950231,-1.10105,-0.521428,0.388438
1480611319971288,-1.10113,-0.521546,0.388531
1480611320001367,-1.10161,-0.521691,0.388516
1480611320007383,-1.10142,-0.521759,0.388364
1480611320025432,-1.10159,-0.521755,0.388404
1480611320061027,-1.10161,-0.521691,0.388516
1480611320076567,-1.10161,-0.521691,0.388516
1480611320097625,-1.10161,-0.521691,0.388516
1480611320107650,-1.10159,-0.521755,0.388404
1480611320135223,-1.1015,-0.521876,0.388456
1480611320152770,-1.10167,-0.521873,0.388497
1480611320164803,-1.10167,-0.521873,0.388497
1480611320190872,-1.10164,-0.521829,0.388494
1480611320202403,-1.10167,-0.521873,0.388497
1480611320227970,-1.10164,-0.521829,0.388494
1480611320248024,-1.10164,-0.521829,0.388494
1480611320286125,-1.10164,-0.521829,0.388494
1480611320302670,-1.10164,-0.521829,0.388494
1480611320307180,-1.10231,-0.521467,0.388621
1480611320347287,-1.10228,-0.521423,0.388617
1480611320352301,-1.10165,-0.52159,0.388349
1480611320375868,-1.1013,-0.521743,0.388438
1480611320382382,-1.10132,-0.521679,0.388549
1480611320407949,-1.10149,-0.521675,0.38859
1480611320427501,-1.10149,-0.521675,0.38859
1480611320442541,-1.10144,-0.521695,0.388475
1480611320474626,-1.10136,-0.521816,0.388527
1480611320487160,-1.10152,-0.521812,0.388568
1480611320505710,-1.10152,-0.521812,0.388568
1480611320524760,-1.10152,-0.521812,0.388568
1480611320555343,-1.10219,-0.521891,0.388705
1480611320563864,-1.10203,-0.521894,0.388664
1480611320592441,-1.10195,-0.521777,0.388572
1480611320610488,-1.10211,-0.521773,0.388613
1480611320625026,-1.10211,-0.521773,0.388613
1480611320675160,-1.10211,-0.521773,0.388613
1480611320686691,-1.10211,-0.521773,0.388613
1480611320691202,-1.10219,-0.521891,0.388705
1480611320705241,-1.10216,-0.521846,0.388702
1480611320727301,-1.10233,-0.521843,0.388743
1480611320743843,-1.10233,-0.521843,0.388743
1480611320764899,-1.10233,-0.521843,0.388743
1480611320787459,-1.10233,-0.521843,0.388743
1480611320836590,-1.10216,-0.521846,0.388702
1480611320842606,-1.10233,-0.521843,0.388743
1480611320847619,-1.10233,-0.521843,0.388743
1480611320865166,-1.10233,-0.521843,0.388743
1480611320902264,-1.10233,-0.521843,0.388743
1480611320907277,-1.10241,-0.52196,0.388835
1480611320932846,-1.10241,-0.52196,0.388835
1480611320944877,-1.1027,-0.521626,0.388766
1480611320970446,-1.10286,-0.521622,0.388806
1480611320992504,-1.10286,-0.521622,0.388806
1480611321021080,-1.10211,-0.521773,0.388613
1480611321027597,-1.10219,-0.521891,0.388705
1480611321045144,-1.10219,-0.521891,0.388705
1480611321064696,-1.10208,-0.521729,0.388609
1480611321087258,-1.10227,-0.521661,0.388761
1480611321112824,-1.1021,-0.521665,0.388721
1480611321140899,-1.10216,-0.521846,0.388702
1480611321147918,-1.10216,-0.521846,0.388702
1480611321169977,-1.10216,-0.521846,0.388702
1480611321185016,-1.10216,-0.521846,0.388702
1480611321207075,-1.10254,-0.521738,0.388617
1480611321225123,-1.10254,-0.521738,0.388617
1480611321246180,-1.10254,-0.521738,0.388617
1480611321270744,-1.10254,-0.521738,0.388617
1480611321292804,-1.10254,-0.521738,0.388617
1480611321313859,-1.10254,-0.521738,0.388617
1480611321334915,-1.10246,-0.52162,0.388524
1480611321344941,-1.10254,-0.521738,0.388617
1480611321364995,-1.10254,-0.521738,0.388617
1480611321394574,-1.10254,-0.521738,0.388617
1480611321406105,-1.10246,-0.52162,0.388524
1480611321433680,-1.10248,-0.521556,0.388636
1480611321463759,-1.10248,-0.521556,0.388636
1480611321470776,-1.10254,-0.521738,0.388617
1480611321511384,-1.10254,-0.521738,0.388617
1480611321523417,-1.10254,-0.521738,0.388617
1480611321529935,-1.10246,-0.52162,0.388524
1480611321546478,-1.10264,-0.521553,0.388676
1480611321570041,-1.10262,-0.521617,0.388565
1480611321592099,-1.10254,-0.521738,0.388617
1480611321606136,-1.103,-0.521508,0.38848
1480611321628697,-1.10341,-0.520925,0.388581
1480611321651257,-1.10357,-0.520921,0.388622
1480611321667801,-1.10271,-0.520818,0.388358
1480611321694873,-1.10269,-0.520882,0.388247
1480611321709913,-1.10252,-0.520885,0.388206
1480611321726958,-1.10252,-0.520885,0.388206
1480611321756035,-1.10269,-0.520882,0.388247
1480611321770073,-1.10271,-0.520818,0.388358
1480611321792131,-1.10252,-0.520885,0.388206
1480611321807171,-1.10252,-0.520885,0.388206
1480611321829733,-1.1026,-0.521003,0.388299
1480611321847780,-1.1026,-0.521003,0.388299
1480611321867332,-1.10252,-0.520885,0.388206
1480611321889891,-1.10271,-0.520818,0.388358
1480611321907939,-1.10194,-0.520686,0.388017
1480611321927493,-1.10203,-0.520911,0.388002
1480611321949550,-1.102,-0.520867,0.387998
1480611321967599,-1.10194,-0.520686,0.388017
1480611321987151,-1.10194,-0.520686,0.388017
1480611322017231,-1.10194,-0.520686,0.388017
1480611322028260,-1.10194,-0.520686,0.388017
1480611322047310,-1.10194,-0.520686,0.388017
1480611322094436,-1.10197,-0.52073,0.388021
1480611322096943,-1.10197,-0.52073,0.388021
1480611322107471,-1.10197,-0.52073,0.388021
1480611322131537,-1.10197,-0.52073,0.388021
1480611322147577,-1.10197,-0.52073,0.388021
1480611322167129,-1.10197,-0.52073,0.388021
1480611322193700,-1.10197,-0.52073,0.388021
1480611322207737,-1.10189,-0.520613,0.387928
1480611322228794,-1.10191,-0.520549,0.38804
1480611322266894,-1.10191,-0.520549,0.38804
1480611322269402,-1.10189,-0.520613,0.387928
1480611322287449,-1.10189,-0.520613,0.387928
1480611322313518,-1.10191,-0.520549,0.38804
1480611322333572,-1.1023,-0.52003,0.38803
1480611322358137,-1.1023,-0.52003,0.38803
1480611322402255,-1.10178,-0.520358,0.387858
1480611322405264,-1.10088,-0.520687,0.38788
1480611322427321,-1.1003,-0.520901,0.388091
1480611322431834,-1.10027,-0.520857,0.388087
1480611322448377,-1.10036,-0.520736,0.388036
1480611322468431,-1.10044,-0.520853,0.388128
1480611322497510,-1.10044,-0.520853,0.388128
1480611322520570,-1.10027,-0.520857,0.388087
1480611322528592,-1.10044,-0.520853,0.388128
1480611322551151,-1.10036,-0.520736,0.388036
1480611322568196,-1.10036,-0.520736,0.388036
1480611322588751,-1.10036,-0.520736,0.388036
1480611322610809,-1.10044,-0.520853,0.388128
1480611322627855,-1.10027,-0.520857,0.388087
1480611322651918,-1.10036,-0.520736,0.388036
1480611322669967,-1.10038,-0.520672,0.388147
1480611322688516,-1.10041,-0.520716,0.388151
1480611322715086,-1.10022,-0.520784,0.387998
1480611322731130,-1.10022,-0.520784,0.387998
1480611322747673,-1.10024,-0.52072,0.38811
1480611322770737,-1.10033,-0.520599,0.388058
1480611322789785,-1.10033,-0.520599,0.388058
1480611322821371,-1.10016,-0.520602,0.388018
1480611322844932,-1.10016,-0.520602,0.388018
