timestamp,x,y,z
1480628787058979,-0.106445,-0.603027,0.780762
1480628787073519,-0.11084,-0.606934,0.777832
1480628787096580,-0.112305,-0.612305,0.777832
1480628787119140,-0.10791,-0.61377,0.78125
1480628787140697,-0.112305,-0.609375,0.784668
1480628787156740,-0.112305,-0.609375,0.782715
1480628787179300,-0.110352,-0.599609,0.784668
1480628787193338,-0.104004,-0.591309,0.778809
1480628787223919,-0.106445,-0.586914,0.782227
1480628787238959,-0.105957,-0.595215,0.777344
1480628787267535,-0.113281,-0.595215,0.775879
1480628787277062,-0.110352,-0.599121,0.785645
1480628787305134,-0.114258,-0.609375,0.779785
1480628787320676,-0.112305,-0.608887,0.782715
1480628787336720,-0.114258,-0.604492,0.781738
1480628787359280,-0.116211,-0.605469,0.785156
1480628787387855,-0.107422,-0.598145,0.784668
1480628787396879,-0.10791,-0.592773,0.780273
1480628787418937,-0.11084,-0.589844,0.787109
1480628787439993,-0.106445,-0.589355,0.774414
1480628787456539,-0.103516,-0.593262,0.783691
1480628787479098,-0.108398,-0.602539,0.782715
1480628787500154,-0.106934,-0.610352,0.783691
1480628787517701,-0.107422,-0.612305,0.783203
1480628787539258,-0.11084,-0.61377,0.782715
1480628787560320,-0.11084,-0.612793,0.789063
1480628787576859,-0.11084,-0.604004,0.78125
1480628787598916,-0.110352,-0.59668,0.786133
1480628787620975,-0.10791,-0.592285,0.790039
1480628787636516,-0.101563,-0.592285,0.783203
1480628787665092,-0.103516,-0.59082,0.781738
1480628787680133,-0.108398,-0.594727,0.781738
1480628787696676,-0.10791,-0.603027,0.785156
1480628787725255,-0.108887,-0.61084,0.786133
1480628787741796,-0.111328,-0.612305,0.779785
1480628787758346,-0.10791,-0.61377,0.787109
1480628787778895,-0.109375,-0.607422,0.786133
1480628787801455,-0.106934,-0.599121,0.776855
1480628787816495,-0.109375,-0.597168,0.78125
1480628787839055,-0.106934,-0.594727,0.781738
1480628787861616,-0.104492,-0.591309,0.780273
1480628787876657,-0.10498,-0.589355,0.782227
1480628787899717,-0.103516,-0.600098,0.778809
1480628787921776,-0.105469,-0.600098,0.783691
1480628787942832,-0.104004,-0.60791,0.778809
1480628787959376,-0.113281,-0.608398,0.780273
1480628787982437,-0.11084,-0.609863,0.78418
1480628787995973,-0.108398,-0.604492,0.786133
1480628788019034,-0.110352,-0.598145,0.788086
1480628788047611,-0.108887,-0.593262,0.783203
1480628788056132,-0.103027,-0.585449,0.786621
1480628788086714,-0.103027,-0.587402,0.781738
1480628788101754,-0.102051,-0.591309,0.783203
1480628788115791,-0.0991211,-0.599121,0.780273
1480628788138853,-0.106445,-0.607422,0.778809
1480628788161413,-0.108887,-0.608887,0.78125
1480628788183471,-0.109375,-0.60498,0.779297
1480628788199514,-0.11084,-0.607422,0.782715
1480628788221574,-0.109863,-0.604004,0.783691
1480628788242630,-0.103027,-0.606445,0.786621
1480628788260177,-0.0966797,-0.598145,0.793457
1480628788281733,-0.0878906,-0.587891,0.801758
1480628788302288,-0.0629883,-0.583984,0.806641
1480628788319333,-0.0537109,-0.594727,0.819336
1480628788341894,-0.0795898,-0.60498,0.810059
1480628788362448,-0.0883789,-0.642578,0.794922
1480628788378992,-0.13916,-0.670898,0.762207
1480628788402053,-0.138672,-0.688477,0.733398
1480628788422607,-0.158203,-0.664063,0.722168
1480628788438651,-0.166504,-0.672852,0.70752
1480628788475749,-0.182129,-0.686035,0.700195
1480628788489786,-0.186523,-0.681641,0.688477
1480628788499815,-0.201172,-0.658203,0.675293
1480628788522373,-0.21875,-0.65625,0.67627
1480628788542427,-0.239746,-0.658691,0.666016
1480628788558470,-0.245117,-0.663086,0.650391
1480628788582032,-0.247559,-0.67627,0.654785
1480628788602586,-0.269531,-0.691895,0.662109
1480628788618629,-0.271484,-0.695313,0.657715
1480628788641691,-0.260742,-0.701172,0.647949
1480628788664753,-0.256348,-0.686035,0.632324
1480628788678290,-0.29541,-0.722656,0.631836
1480628788701850,-0.262207,-0.754883,0.683105
1480628788726416,-0.229004,-0.702148,0.687988
1480628788744965,-0.236328,-0.589844,0.652344
1480628788776552,-0.277344,-0.571289,0.661621
1480628788784069,-0.299316,-0.647461,0.646973
1480628788805126,-0.306641,-0.692383,0.633301
1480628788822672,-0.29834,-0.730957,0.640625
1480628788844233,-0.289063,-0.73291,0.644043
1480628788865788,-0.285156,-0.722656,0.629395
1480628788889349,-0.286133,-0.712402,0.616211
1480628788904389,-0.291992,-0.757324,0.588379
1480628788925446,-0.289551,-0.765137,0.600586
1480628788941488,-0.270996,-0.737305,0.62207
1480628788972070,-0.287109,-0.697754,0.611328
1480628788985104,-0.300781,-0.697266,0.605469
1480628789001648,-0.304199,-0.70459,0.593262
1480628789031729,-0.322266,-0.731445,0.578613
1480628789045264,-0.327637,-0.740234,0.591309
1480628789061808,-0.330078,-0.724121,0.584473
1480628789083867,-0.347168,-0.708008,0.574219
1480628789098405,-0.359375,-0.713379,0.563477
1480628789121467,-0.351563,-0.740234,0.567383
1480628789144030,-0.326172,-0.75293,0.54541
1480628789166587,-0.32959,-0.739746,0.541992
1480628789187644,-0.341797,-0.738281,0.555664
1480628789203686,-0.357422,-0.743164,0.563965
1480628789225243,-0.334473,-0.748535,0.577148
1480628789249309,-0.358398,-0.733398,0.54834
1480628789263845,-0.356445,-0.732422,0.547363
1480628789285403,-0.356445,-0.75293,0.552246
1480628789301450,-0.352539,-0.768066,0.561035
1480628789324507,-0.35791,-0.73877,0.550781
1480628789346065,-0.358398,-0.709473,0.576172
1480628789361105,-0.345215,-0.693848,0.596191
1480628789390182,-0.335938,-0.69043,0.593262
1480628789405221,-0.355469,-0.673828,0.582031
1480628789420764,-0.313477,-0.709473,0.611816
1480628789445328,-0.377441,-0.679199,0.594727
1480628789465382,-0.354004,-0.686523,0.620605
1480628789482929,-0.346191,-0.711426,0.640137
1480628789503984,-0.32373,-0.716797,0.632813
1480628789527047,-0.319336,-0.691895,0.630371
1480628789542588,-0.317871,-0.685059,0.621094
1480628789564144,-0.341797,-0.688477,0.618164
1480628789586704,-0.352051,-0.700195,0.612793
1480628789608263,-0.323242,-0.699707,0.627441
1480628789624305,-0.32959,-0.688477,0.601074
1480628789646864,-0.351563,-0.706543,0.618164
1480628789661404,-0.34375,-0.721191,0.622559
1480628789683964,-0.339844,-0.698242,0.626953
1480628789723068,-0.338867,-0.691895,0.635742
1480628789727580,-0.350098,-0.691406,0.630371
1480628789744123,-0.355469,-0.660645,0.622559
1480628789767185,-0.354004,-0.666504,0.610352
1480628789789243,-0.353027,-0.654785,0.602539
1480628789805286,-0.36377,-0.638184,0.58252
1480628789826847,-0.397949,-0.647949,0.542969
1480628789847900,-0.429688,-0.69043,0.53418
1480628789864945,-0.433105,-0.731934,0.507813
1480628789886502,-0.39209,-0.746582,0.542969
1480628789915078,-0.375488,-0.733887,0.550781
1480628789924103,-0.410156,-0.725098,0.519531
1480628789947165,-0.420898,-0.73291,0.511719
1480628789967719,-0.395508,-0.755371,0.485352
1480628789984262,-0.370117,-0.804199,0.477539
1480628790006823,-0.394531,-0.793457,0.472656
1480628790035398,-0.424316,-0.767578,0.490234
1480628790043921,-0.402832,-0.738281,0.502441
1480628790066482,-0.377441,-0.739746,0.510254
1480628790088039,-0.384766,-0.769043,0.489746
1480628790111602,-0.385254,-0.751953,0.479004
1480628790126643,-0.425293,-0.76123,0.472656
1480628790147697,-0.432129,-0.807129,0.460938
1480628790164241,-0.427246,-0.752441,0.455566
1480628790194321,-0.414551,-0.733887,0.449707
1480628790207857,-0.422363,-0.755371,0.456543
1480628790223900,-0.422363,-0.768066,0.460938
1480628790247464,-0.404785,-0.767578,0.462891
1480628790275035,-0.385742,-0.785156,0.484375
1480628790284060,-0.388672,-0.772461,0.484375
1480628790306620,-0.409668,-0.751953,0.474609
1480628790327676,-0.396484,-0.777344,0.457031
1480628790344220,-0.410156,-0.784668,0.465332
1480628790366780,-0.416992,-0.783203,0.480957
1480628790387838,-0.405762,-0.761719,0.478027
1480628790404380,-0.402344,-0.72998,0.477051
1480628790426440,-0.419434,-0.734863,0.479004
1480628790448998,-0.413086,-0.754883,0.471191
1480628790471558,-0.405273,-0.763184,0.466797
1480628790487099,-0.408691,-0.768555,0.476074
1480628790507654,-0.409668,-0.75,0.486816
1480628790530215,-0.418945,-0.73877,0.485352
1480628790547260,-0.428223,-0.753418,0.476074
1480628790575335,-0.42627,-0.777344,0.46582
1480628790584359,-0.42627,-0.783203,0.464355
1480628790607922,-0.423828,-0.760254,0.458984
1480628790628977,-0.424316,-0.739258,0.460938
1480628790643516,-0.435547,-0.728027,0.431641
1480628790666584,-0.445313,-0.752441,0.434082
1480628790689137,-0.438965,-0.763672,0.4375
1480628790703676,-0.441895,-0.776855,0.452637
1480628790726742,-0.421387,-0.774414,0.456055
1480628790749298,-0.41748,-0.745605,0.457031
1480628790770353,-0.432617,-0.745117,0.45166
1480628790786397,-0.441895,-0.790527,0.450684
1480628790808957,-0.416016,-0.814941,0.467773
1480628790831517,-0.401367,-0.783203,0.473145
1480628790846557,-0.412109,-0.740723,0.458008
1480628790875133,-0.410156,-0.731934,0.448242
1480628790883654,-0.415527,-0.759277,0.468262
1480628790912732,-0.40625,-0.794922,0.470703
1480628790929276,-0.419922,-0.757813,0.453125
1480628790943317,-0.421387,-0.757324,0.435547
1480628790966375,-0.438477,-0.776855,0.453125
1480628790988935,-0.427734,-0.796387,0.44873
1480628791009993,-0.42041,-0.779785,0.459961
1480628791026537,-0.414063,-0.745605,0.472168
1480628791056615,-0.432129,-0.730469,0.466309
1480628791077672,-0.426758,-0.756836,0.475586
1480628791086695,-0.388184,-0.763672,0.478516
1480628791109765,-0.384766,-0.742676,0.493652
1480628791130311,-0.408691,-0.714844,0.486816
1480628791146856,-0.428711,-0.741211,0.493652
1480628791168913,-0.379395,-0.79541,0.506836
1480628791191474,-0.349121,-0.791016,0.52832
1480628791206515,-0.39209,-0.771484,0.506836
1480628791229074,-0.396484,-0.741211,0.486328
1480628791251134,-0.380371,-0.754395,0.492676
1480628791267176,-0.396973,-0.760742,0.505859
1480628791289234,-0.399414,-0.736328,0.507324
1480628791310293,-0.393066,-0.722168,0.499512
1480628791326836,-0.381348,-0.726563,0.501953
1480628791356412,-0.373047,-0.759277,0.513184
1480628791369948,-0.370117,-0.770508,0.520996
1480628791387495,-0.374512,-0.766113,0.52002
1480628791409061,-0.378906,-0.764648,0.492676
1480628791430610,-0.382324,-0.783203,0.502441
1480628791448157,-0.366211,-0.776367,0.528809
1480628791470215,-0.35791,-0.753418,0.539063
1480628791491774,-0.367188,-0.728516,0.522949
1480628791506812,-0.367676,-0.73877,0.50293
1480628791528873,-0.365723,-0.765137,0.492676
1480628791551432,-0.369629,-0.772461,0.502441
1480628791566471,-0.381836,-0.75293,0.502441
1480628791589031,-0.37207,-0.74707,0.51709
1480628791611591,-0.346191,-0.757324,0.526855
1480628791626134,-0.356445,-0.759277,0.54541
1480628791664231,-0.347656,-0.738281,0.536133
1480628791671751,-0.35498,-0.738281,0.541016
1480628791686291,-0.362305,-0.754883,0.533203
1480628791709352,-0.34375,-0.745117,0.543945
1480628791731411,-0.340332,-0.728027,0.538574
1480628791752466,-0.354004,-0.715332,0.537109
1480628791776533,-0.351074,-0.748535,0.542969
1480628791791572,-0.327637,-0.76709,0.546387
1480628791806112,-0.336426,-0.742188,0.531738
1480628791829170,-0.368164,-0.73877,0.512207
1480628791859753,-0.376953,-0.780273,0.505371
1480628791872786,-0.356445,-0.831055,0.50293
1480628791888829,-0.347168,-0.812988,0.514648
1480628791917406,-0.344727,-0.765625,0.508789
1480628791939965,-0.349121,-0.754395,0.507324
1480628791948989,-0.344727,-0.757324,0.498535
1480628791971549,-0.346191,-0.773438,0.490234
1480628791992605,-0.346191,-0.789063,0.496094
1480628792009653,-0.351563,-0.788574,0.492188
1480628792031717,-0.364258,-0.780273,0.490234
1480628792052765,-0.373047,-0.772461,0.479492
1480628792068810,-0.362793,-0.787598,0.481445
1480628792091871,-0.363281,-0.803223,0.481445
1480628792112423,-0.359375,-0.782715,0.480469
1480628792136487,-0.354004,-0.775391,0.483887
1480628792151528,-0.352051,-0.770996,0.483398
1480628792173088,-0.348145,-0.779297,0.480469
1480628792189128,-0.351074,-0.780273,0.481934
1480628792219208,-0.351074,-0.779297,0.484375
1480628792232744,-0.363281,-0.78418,0.476074
1480628792249789,-0.362305,-0.797852,0.477051
1480628792271848,-0.365723,-0.792969,0.46875
1480628792292909,-0.361328,-0.796387,0.46582
1480628792309452,-0.366699,-0.798828,0.461914
1480628792332008,-0.370605,-0.779785,0.463867
1480628792352564,-0.36377,-0.774414,0.460938
1480628792369107,-0.354004,-0.787109,0.462891
1480628792391668,-0.358887,-0.787109,0.462891
1480628792414728,-0.360352,-0.777832,0.458008
1480628792429267,-0.363281,-0.787598,0.449707
1480628792451826,-0.354004,-0.806152,0.45752
1480628792473885,-0.364258,-0.819336,0.456055
1480628792497448,-0.37207,-0.79834,0.457031
1480628792517505,-0.366211,-0.800781,0.457031
1480628792534045,-0.361328,-0.797852,0.458008
1480628792549085,-0.354004,-0.791992,0.458008
1480628792571646,-0.35498,-0.791992,0.461914
1480628792594206,-0.358887,-0.783691,0.45166
1480628792615264,-0.35791,-0.774414,0.461426
1480628792637822,-0.358398,-0.794434,0.455566
1480628792653865,-0.361816,-0.800293,0.467285
1480628792668404,-0.358398,-0.799316,0.463379
1480628792691465,-0.359863,-0.805176,0.46582
1480628792721544,-0.36377,-0.800781,0.456543
1480628792728563,-0.35791,-0.791016,0.453125
1480628792752126,-0.365723,-0.788574,0.457031
1480628792780200,-0.375,-0.782227,0.449219
1480628792788222,-0.363281,-0.774414,0.458984
1480628792811784,-0.353516,-0.780273,0.453125
1480628792834345,-0.356445,-0.779297,0.452637
1480628792848382,-0.35791,-0.782227,0.466309
1480628792871443,-0.345703,-0.790039,0.484375
1480628792894006,-0.333984,-0.795898,0.479492
1480628792909049,-0.339355,-0.808105,0.466797
1480628792932104,-0.342773,-0.822754,0.464355
1480628792954163,-0.331055,-0.834473,0.47168
1480628792975219,-0.331055,-0.824219,0.466309
1480628792999283,-0.335938,-0.789063,0.464844
1480628793013822,-0.333984,-0.782715,0.45459
1480628793035379,-0.317383,-0.803711,0.468262
1480628793051423,-0.324219,-0.82373,0.469238
1480628793073982,-0.32959,-0.79834,0.469238
1480628793102559,-0.319824,-0.791992,0.469238
1480628793111582,-0.323242,-0.809082,0.478027
1480628793134142,-0.322266,-0.815918,0.499023
1480628793155200,-0.319336,-0.788574,0.506348
1480628793170739,-0.307617,-0.778809,0.507813
1480628793194302,-0.312988,-0.757813,0.51416
1480628793215358,-0.319336,-0.750977,0.531738
1480628793230899,-0.308105,-0.75293,0.564453
1480628793253961,-0.276367,-0.755371,0.574707
1480628793259477,-0.272949,-0.73877,0.573242
1480628793283539,-0.282715,-0.731445,0.523438
1480628793298579,-0.312988,-0.76709,0.518555
1480628793327157,-0.327148,-0.792969,0.515137
1480628793342196,-0.342773,-0.803223,0.514648
1480628793359743,-0.325684,-0.782715,0.528809
1480628793379294,-0.298828,-0.779297,0.518555
1480628793410878,-0.300293,-0.772461,0.507324
1480628793416895,-0.297363,-0.780273,0.521484
1480628793439454,-0.289063,-0.794922,0.531738
1480628793470537,-0.285645,-0.780762,0.541504
1480628793477055,-0.286133,-0.76416,0.53125
1480628793499614,-0.290527,-0.767578,0.52832
1480628793524682,-0.299805,-0.783691,0.515137
1480628793537214,-0.303711,-0.797852,0.525391
1480628793559776,-0.300293,-0.796875,0.523438
1480628793581833,-0.304199,-0.780762,0.532715
1480628793607903,-0.302734,-0.766113,0.541016
1480628793619433,-0.289551,-0.760742,0.544922
1480628793645001,-0.28418,-0.768066,0.537598
1480628793658538,-0.277344,-0.769043,0.539551
1480628793687113,-0.284668,-0.766113,0.539063
1480628793702153,-0.29834,-0.753418,0.531738
1480628793718195,-0.297852,-0.771973,0.533691
1480628793746772,-0.288086,-0.790527,0.541504
1480628793761812,-0.285645,-0.791016,0.547852
1480628793778356,-0.283203,-0.782715,0.550293
1480628793800917,-0.291992,-0.768066,0.546387
1480628793823476,-0.286133,-0.76123,0.541504
1480628793838517,-0.285156,-0.757813,0.539551
1480628793859572,-0.294434,-0.762695,0.535156
1480628793884639,-0.291992,-0.766113,0.541016
1480628793898174,-0.280273,-0.77002,0.543457
1480628793919230,-0.273926,-0.775879,0.543945
1480628793942297,-0.284668,-0.772949,0.557617
1480628793966357,-0.285156,-0.769531,0.554688
1480628793979392,-0.276367,-0.779785,0.564941
1480628794001951,-0.279785,-0.77832,0.567383
1480628794026017,-0.263672,-0.772949,0.564453
1480628794047071,-0.254395,-0.750977,0.575195
1480628794062111,-0.288574,-0.737305,0.571289
1480628794079657,-0.29541,-0.726563,0.569824
1480628794099711,-0.276855,-0.740723,0.563965
1480628794121769,-0.279297,-0.74707,0.550781
1480628794144330,-0.311035,-0.763184,0.527344
1480628794162879,-0.327637,-0.775879,0.498047
1480628794181930,-0.318359,-0.797363,0.493164
1480628794204489,-0.328125,-0.827148,0.488281
1480628794221033,-0.32959,-0.82959,0.491211
1480628794245098,-0.319336,-0.803711,0.495605
1480628794274175,-0.303223,-0.798828,0.492676
1480628794281194,-0.305664,-0.804199,0.500488
1480628794304756,-0.29541,-0.791016,0.483398
1480628794327317,-0.310059,-0.780273,0.493164
1480628794339348,-0.314453,-0.788086,0.506836
1480628794361908,-0.305664,-0.797852,0.514648
1480628794385471,-0.304688,-0.802246,0.52002
1480628794399508,-0.30127,-0.791016,0.52002
1480628794422068,-0.306152,-0.788086,0.507813
1480628794444629,-0.321777,-0.787109,0.503906
1480628794462175,-0.316895,-0.787598,0.492676
1480628794482229,-0.330566,-0.780762,0.496094
1480628794504287,-0.335449,-0.766602,0.497559
1480628794522335,-0.316406,-0.773926,0.505859
1480628794541887,-0.307129,-0.776855,0.506836
1480628794564447,-0.311523,-0.78125,0.51416
1480628794579487,-0.312988,-0.785645,0.515137
1480628794612575,-0.312012,-0.790527,0.516113
1480628794632628,-0.314453,-0.803711,0.506836
1480628794642660,-0.325684,-0.785645,0.503906
1480628794662207,-0.324707,-0.786621,0.501465
1480628794684767,-0.317871,-0.771973,0.498535
1480628794699306,-0.3125,-0.77832,0.509277
1480628794721865,-0.316406,-0.775391,0.513672
1480628794744427,-0.303711,-0.771484,0.525879
1480628794759468,-0.303711,-0.76416,0.502441
1480628794782026,-0.311523,-0.788574,0.503906
1480628794804586,-0.317871,-0.804199,0.496582
1480628794827146,-0.314941,-0.806152,0.501465
1480628794842188,-0.320313,-0.802734,0.494141
1480628794864246,-0.32959,-0.791504,0.48877
1480628794886805,-0.323242,-0.779785,0.500488
1480628794901844,-0.319336,-0.769531,0.502441
1480628794924405,-0.311035,-0.771484,0.485352
1480628794940949,-0.311523,-0.787598,0.50293
1480628794962006,-0.312012,-0.79541,0.504395
1480628794992590,-0.302246,-0.793945,0.486328
1480628795001109,-0.307129,-0.798828,0.478027
1480628795022164,-0.322754,-0.812988,0.477051
1480628795044726,-0.315918,-0.82666,0.480469
1480628795060767,-0.310547,-0.822754,0.491211
1480628795089343,-0.315918,-0.805176,0.498535
1480628795108395,-0.314941,-0.788574,0.496582
1480628795120928,-0.306641,-0.781738,0.498535
1480628795141984,-0.308594,-0.774414,0.510254
1480628795164544,-0.297363,-0.770996,0.520996
1480628795187104,-0.302734,-0.765625,0.51709
1480628795202146,-0.29541,-0.769531,0.525391
1480628795224704,-0.301758,-0.78125,0.521484
1480628795240746,-0.30957,-0.780273,0.524414
1480628795269323,-0.310547,-0.780273,0.531738
1480628795284362,-0.309082,-0.778809,0.530762
1480628795302411,-0.3125,-0.77832,0.525391
1480628795321962,-0.308594,-0.772949,0.517578
1480628795352043,-0.304688,-0.78125,0.515625
1480628795362571,-0.29541,-0.780762,0.523438
1480628795385130,-0.291016,-0.770508,0.53125
1480628795412203,-0.284668,-0.772461,0.538574
1480628795422229,-0.279785,-0.770508,0.549805
1480628795442285,-0.297363,-0.761719,0.544922
1480628795464341,-0.301758,-0.770508,0.534668
1480628795482389,-0.290039,-0.792969,0.546387
1480628795501943,-0.290039,-0.787109,0.562988
1480628795524501,-0.294922,-0.760742,0.541504
1480628795550070,-0.292969,-0.744629,0.54541
1480628795562103,-0.290527,-0.747559,0.530762
1480628795584661,-0.29248,-0.775879,0.54541
1480628795606720,-0.284668,-0.762207,0.5625
1480628795629280,-0.27832,-0.75293,0.553223
1480628795644320,-0.276367,-0.776367,0.537109
1480628795662368,-0.286133,-0.785156,0.537598
1480628795681920,-0.294434,-0.788086,0.540039
1480628795707488,-0.293945,-0.800293,0.5625
1480628795722528,-0.28418,-0.786621,0.543457
1480628795742081,-0.27832,-0.761719,0.541504
1480628795764641,-0.288086,-0.760742,0.536621
1480628795782186,-0.291504,-0.759766,0.568359
1480628795801739,-0.28125,-0.75,0.558594
1480628795828310,-0.274902,-0.738281,0.558105
1480628795846859,-0.277344,-0.741699,0.55957
1480628795863403,-0.271973,-0.79248,0.56543
1480628795885963,-0.277832,-0.80957,0.583008
1480628795910027,-0.273926,-0.756836,0.575684
1480628795923562,-0.279297,-0.713867,0.55127
1480628795944625,-0.286621,-0.731445,0.544922
1480628795967180,-0.318359,-0.760254,0.544922
1480628795983222,-0.322754,-0.798828,0.561035
1480628796004277,-0.258789,-0.79248,0.575195
1480628796035360,-0.272949,-0.738281,0.529785
1480628796043382,-0.306152,-0.743652,0.515625
1480628796071959,-0.319336,-0.782715,0.513184
1480628796086997,-0.297852,-0.82373,0.530762
1480628796105046,-0.297363,-0.820313,0.533203
1480628796140642,-0.314941,-0.775879,0.509277
1480628796147158,-0.310059,-0.769531,0.503418
1480628796164705,-0.3125,-0.796387,0.505371
1480628796187266,-0.312012,-0.799316,0.516113
1480628796207318,-0.314453,-0.778809,0.516602
1480628796223360,-0.305664,-0.759277,0.510742
1480628796247424,-0.29834,-0.762207,0.510742
1480628796266976,-0.313477,-0.781738,0.501465
1480628796285025,-0.3125,-0.797852,0.504395
1480628796304577,-0.314941,-0.794922,0.504883
1480628796329643,-0.313477,-0.79541,0.505859
1480628796344683,-0.311035,-0.797363,0.521484
1480628796364235,-0.301758,-0.793457,0.520996
1480628796386796,-0.303711,-0.780762,0.516113
1480628796409355,-0.306152,-0.776367,0.503906
1480628796424395,-0.305176,-0.779297,0.507813
1480628796446955,-0.310059,-0.782715,0.507324
1480628796466006,-0.308594,-0.775391,0.508301
1480628796484556,-0.30127,-0.777832,0.505859
1480628796507116,-0.303711,-0.791992,0.51123
1480628796526170,-0.307129,-0.787598,0.505859
1480628796544716,-0.312012,-0.79834,0.504883
1480628796566775,-0.31543,-0.798828,0.506836
1480628796584822,-0.311035,-0.799805,0.509766
1480628796604374,-0.307129,-0.780273,0.51416
1480628796626934,-0.304199,-0.768555,0.51123
1480628796644983,-0.303711,-0.773438,0.503906
1480628796664535,-0.302734,-0.775391,0.511719
1480628796691105,-0.305664,-0.780273,0.499023
1480628796709659,-0.304199,-0.791504,0.505371
1480628796740737,-0.299805,-0.797852,0.507324
1480628796754273,-0.303711,-0.800293,0.520996
1480628796764802,-0.303223,-0.797363,0.511719
1480628796784353,-0.304199,-0.802734,0.501465
1480628796806913,-0.303223,-0.797363,0.489258
1480628796824961,-0.305176,-0.798828,0.504883
1480628796847521,-0.295898,-0.791016,0.498535
1480628796867072,-0.287598,-0.782227,0.503906
1480628796889633,-0.295898,-0.774902,0.491699
1480628796907681,-0.299805,-0.789551,0.502441
1480628796934251,-0.293945,-0.799316,0.509277
1480628796944780,-0.296387,-0.800781,0.509766
1480628796965835,-0.29248,-0.802246,0.503906
1480628796986891,-0.296387,-0.808594,0.500977
1480628797004940,-0.291992,-0.812012,0.503418
1480628797025998,-0.29541,-0.80127,0.501465
1480628797047052,-0.297852,-0.788086,0.498535
1480628797065601,-0.288574,-0.791504,0.507324
1480628797086155,-0.290527,-0.782715,0.499023
1480628797107213,-0.288086,-0.779297,0.495605
1480628797125272,-0.291016,-0.789551,0.503418
1480628797147819,-0.288574,-0.80127,0.502441
1480628797166870,-0.287109,-0.801758,0.524414
1480628797186422,-0.286621,-0.801758,0.519531
1480628797215003,-0.278809,-0.794922,0.518555
1480628797227030,-0.286621,-0.793457,0.504883
1480628797245580,-0.287109,-0.790527,0.51123
1480628797275159,-0.286621,-0.790039,0.503906
1480628797294711,-0.286621,-0.778809,0.506348
1480628797309250,-0.282715,-0.786621,0.505371
1480628797327298,-0.277832,-0.791016,0.51123
1480628797346849,-0.280762,-0.788574,0.503418
1480628797376929,-0.280762,-0.799316,0.51123
1480628797387457,-0.285156,-0.811035,0.507324
1480628797410017,-0.287598,-0.807617,0.512207
1480628797431073,-0.280762,-0.79834,0.513672
1480628797447618,-0.276367,-0.799316,0.51709
1480628797467169,-0.274414,-0.789551,0.503418
1480628797489730,-0.28125,-0.791504,0.505371
1480628797511788,-0.277344,-0.794434,0.505859
1480628797526828,-0.273438,-0.788574,0.509277
1480628797550893,-0.277344,-0.783691,0.501953
1480628797581473,-0.280762,-0.788086,0.500488
1480628797586988,-0.278809,-0.814453,0.508789
1480628797617069,-0.276367,-0.82373,0.503906
1480628797632107,-0.273926,-0.817871,0.50293
1480628797648652,-0.283691,-0.807129,0.507813
1480628797676727,-0.284668,-0.797363,0.506348
1480628797687258,-0.283691,-0.788574,0.509766
1480628797706807,-0.269043,-0.783691,0.505371
1480628797729367,-0.266602,-0.789551,0.512695
1480628797747917,-0.269531,-0.791992,0.522949
1480628797769976,-0.273438,-0.788574,0.496582
1480628797790031,-0.273438,-0.793457,0.498535
1480628797807574,-0.281738,-0.820801,0.510254
1480628797828631,-0.274414,-0.830566,0.524414
1480628797852695,-0.260742,-0.804199,0.530762
1480628797867236,-0.26709,-0.785645,0.517578
1480628797888290,-0.28418,-0.785156,0.509277
1480628797909346,-0.287598,-0.791016,0.510254
1480628797931906,-0.27832,-0.793457,0.522461
1480628797948450,-0.277832,-0.782715,0.518555
1480628797969506,-0.267578,-0.778809,0.508789
1480628797987554,-0.277832,-0.776855,0.508789
1480628798008611,-0.285156,-0.795898,0.510742
1480628798029665,-0.285156,-0.810059,0.519531
1480628798047714,-0.274902,-0.810547,0.520508
1480628798068769,-0.276367,-0.796387,0.519043
1480628798106371,-0.277344,-0.800293,0.515625
1480628798108879,-0.277344,-0.793945,0.505859
1480628798129933,-0.285156,-0.794434,0.507324
1480628798149485,-0.283691,-0.782715,0.501953
1480628798167533,-0.283203,-0.777344,0.5
1480628798190096,-0.27832,-0.791016,0.491699
1480628798209646,-0.276855,-0.806152,0.505371
1480628798227191,-0.274902,-0.808105,0.504395
1480628798249752,-0.274414,-0.807617,0.495117
1480628798269303,-0.278809,-0.820801,0.492188
1480628798288354,-0.285645,-0.817383,0.489258
1480628798309911,-0.279297,-0.820801,0.48584
1480628798329463,-0.274902,-0.808105,0.492188
1480628798353527,-0.269531,-0.804199,0.495605
1480628798370071,-0.272949,-0.806641,0.480957
1480628798389623,-0.27002,-0.798828,0.47168
1480628798407671,-0.273926,-0.807617,0.481445
1480628798429730,-0.275391,-0.817383,0.479004
1480628798449783,-0.272949,-0.832031,0.484863
1480628798471841,-0.271484,-0.82959,0.483887
1480628798489891,-0.268066,-0.82373,0.484863
1480628798509442,-0.271973,-0.817871,0.474121
1480628798527490,-0.269043,-0.834473,0.488281
1480628798557570,-0.266602,-0.822266,0.481445
1480628798569603,-0.263184,-0.802734,0.479492
1480628798587651,-0.264648,-0.794922,0.461426
1480628798609709,-0.280273,-0.803223,0.452637
1480628798629260,-0.273926,-0.82666,0.474609
1480628798647310,-0.255371,-0.838379,0.514648
1480628798669869,-0.23584,-0.832031,0.519531
1480628798689422,-0.23877,-0.817871,0.516602
1480628798707470,-0.226563,-0.805664,0.501953
1480628798730029,-0.238281,-0.813477,0.484863
1480628798751085,-0.280273,-0.821777,0.469238
1480628798780666,-0.287598,-0.808594,0.458496
1480628798789688,-0.287598,-0.807129,0.459473
1480628798810744,-0.273438,-0.81543,0.474609
1480628798833304,-0.254883,-0.820801,0.47998
1480628798855863,-0.253418,-0.819336,0.47168
1480628798871405,-0.249023,-0.828125,0.472168
1480628798909006,-0.268066,-0.837891,0.478027
1480628798911512,-0.268555,-0.828125,0.488281
1480628798932568,-0.258301,-0.83252,0.477539
1480628798959641,-0.253418,-0.824219,0.491211
1480628798969667,-0.255371,-0.821289,0.483398
1480628798990723,-0.256348,-0.811035,0.481445
1480628799011779,-0.258789,-0.806152,0.479492
1480628799030830,-0.254883,-0.810059,0.475586
1480628799050883,-0.263184,-0.804688,0.458984
1480628799074950,-0.26123,-0.814941,0.460449
1480628799089987,-0.251465,-0.843262,0.489258
1480628799112547,-0.242188,-0.845703,0.513184
1480628799132099,-0.230957,-0.850586,0.511719
1480628799154659,-0.243652,-0.811035,0.509277
1480628799172205,-0.222656,-0.786621,0.499023
1480628799192261,-0.237305,-0.805664,0.485352
1480628799214319,-0.263672,-0.806152,0.497559
1480628799239886,-0.278809,-0.791992,0.483887
1480628799253422,-0.257324,-0.817871,0.468262
1480628799269965,-0.260254,-0.833008,0.460938
1480628799298543,-0.275391,-0.820801,0.463379
1480628799319598,-0.260742,-0.820313,0.445313
1480628799330126,-0.268066,-0.847168,0.462891
1480628799352185,-0.273438,-0.850098,0.475586
1480628799371736,-0.261719,-0.859375,0.491699
1480628799389786,-0.238281,-0.82373,0.541016
1480628799412344,-0.228516,-0.761719,0.499512
1480628799431897,-0.241699,-0.771973,0.475098
1480628799457465,-0.262695,-0.799805,0.484863
1480628799472504,-0.271484,-0.835449,0.520508
1480628799492058,-0.252441,-0.836914,0.525879
1480628799518128,-0.236816,-0.790039,0.523926
1480628799532163,-0.233398,-0.771973,0.501465
1480628799551716,-0.257813,-0.806152,0.501465
1480628799575779,-0.273926,-0.820801,0.509277
1480628799599843,-0.273438,-0.841797,0.509277
1480628799611875,-0.260742,-0.819336,0.509277
1480628799630926,-0.248047,-0.788086,0.507813
1480628799660003,-0.252441,-0.782227,0.514648
1480628799672034,-0.249512,-0.788574,0.512207
1480628799690083,-0.25,-0.79541,0.523926
1480628799712142,-0.25293,-0.796875,0.515625
1480628799733198,-0.253418,-0.800781,0.510254
1480628799750745,-0.258789,-0.807617,0.508301
1480628799772301,-0.261719,-0.813477,0.506348
1480628799794866,-0.261719,-0.817871,0.511719
1480628799809902,-0.251465,-0.814453,0.513184
1480628799832963,-0.248535,-0.808105,0.526855
1480628799853519,-0.238281,-0.784668,0.518555
1480628799878084,-0.239746,-0.780762,0.517578
1480628799905155,-0.250488,-0.787109,0.51123
1480628799913176,-0.25293,-0.806152,0.518066
1480628799929720,-0.248535,-0.810547,0.519531
1480628799952282,-0.245605,-0.803711,0.522949
1480628799973338,-0.25,-0.804688,0.51709
1480628799989881,-0.25,-0.80957,0.515625
1480628800024980,-0.258301,-0.812012,0.513672
1480628800033497,-0.256836,-0.804688,0.514648
1480628800050041,-0.252441,-0.802246,0.516113
1480628800073102,-0.247559,-0.795898,0.515625
1480628800094660,-0.239746,-0.787598,0.518555
1480628800110703,-0.239258,-0.786621,0.526855
1480628800132260,-0.242676,-0.79834,0.523438
1480628800155323,-0.241699,-0.793945,0.520996
1480628800175376,-0.250977,-0.796387,0.514648
1480628800192422,-0.25293,-0.812012,0.520508
1480628800213977,-0.247559,-0.811523,0.519043
1480628800235034,-0.256348,-0.812012,0.514648
1480628800251579,-0.246582,-0.813965,0.51416
1480628800274138,-0.247559,-0.808594,0.512207
1480628800295194,-0.256348,-0.793457,0.51416
1480628800311739,-0.253906,-0.794434,0.506836
1480628800334297,-0.250488,-0.801758,0.508789
1480628800355353,-0.244629,-0.812012,0.505859
1480628800372398,-0.254883,-0.811035,0.521484
1480628800393956,-0.250977,-0.802734,0.518555
1480628800415012,-0.25,-0.80127,0.523438
1480628800432057,-0.248535,-0.818359,0.516602
1480628800454120,-0.258789,-0.811523,0.512207
1480628800475173,-0.263672,-0.802734,0.509277
1480628800491717,-0.261719,-0.806152,0.507324
1480628800513775,-0.258301,-0.797363,0.500488
1480628800535332,-0.258301,-0.799805,0.506348
1480628800551877,-0.257813,-0.785645,0.508789
1480628800573935,-0.255371,-0.792969,0.512207
1480628800602510,-0.256836,-0.818359,0.521484
1480628800611535,-0.256836,-0.824707,0.516602
1480628800634095,-0.259277,-0.82666,0.511719
1480628800655151,-0.262207,-0.806152,0.507324
1480628800671193,-0.273438,-0.800781,0.51123
1480628800694759,-0.282227,-0.796387,0.512207
1480628800716815,-0.279297,-0.788086,0.530762
1480628800737369,-0.265137,-0.78125,0.541504
1480628800753915,-0.245117,-0.775879,0.571777
1480628800774973,-0.240723,-0.75,0.584473
1480628800791012,-0.238281,-0.73877,0.592773
1480628800820089,-0.242676,-0.733887,0.595703
1480628800851673,-0.250977,-0.746582,0.599609
1480628800853679,-0.256836,-0.769531,0.61377
1480628800874236,-0.273438,-0.749512,0.611328
1480628800904315,-0.278809,-0.71582,0.601074
1480628800911332,-0.26123,-0.710938,0.607422
1480628800933893,-0.255371,-0.720215,0.606445
1480628800954948,-0.265625,-0.726074,0.60791
1480628800971492,-0.266602,-0.723633,0.595215
1480628800994053,-0.268555,-0.722168,0.596191
1480628801016613,-0.288086,-0.688477,0.595215
1480628801031653,-0.262207,-0.756348,0.614258
1480628801054212,-0.279297,-0.722168,0.612305
1480628801076773,-0.259277,-0.736816,0.630371
1480628801092314,-0.251953,-0.73584,0.631836
1480628801114874,-0.234375,-0.729004,0.644043
1480628801137433,-0.246582,-0.709961,0.63623
1480628801150971,-0.253906,-0.692871,0.632813
1480628801174031,-0.258789,-0.694824,0.630859
1480628801196591,-0.257324,-0.684082,0.637207
1480628801211633,-0.250977,-0.698242,0.640625
1480628801234191,-0.250488,-0.716309,0.646484
1480628801265274,-0.24707,-0.717285,0.648438
1480628801272292,-0.243164,-0.71875,0.64502
1480628801293850,-0.245605,-0.724609,0.648438
1480628801316410,-0.25293,-0.716797,0.640137
1480628801330948,-0.262207,-0.703125,0.631836
1480628801354010,-0.259766,-0.708008,0.637695
1480628801384091,-0.249023,-0.708496,0.643066
1480628801391122,-0.246094,-0.701172,0.64502
1480628801414171,-0.236328,-0.691895,0.641602
1480628801436730,-0.246582,-0.694824,0.641602
1480628801457787,-0.248535,-0.708008,0.644531
1480628801473828,-0.245117,-0.724121,0.641113
1480628801496388,-0.25,-0.726563,0.643555
1480628801517445,-0.244629,-0.729492,0.650879
1480628801534490,-0.245605,-0.71875,0.645996
1480628801559557,-0.252441,-0.705078,0.637207
1480628801577622,-0.248535,-0.699219,0.639648
1480628801600165,-0.244141,-0.697266,0.636719
1480628801625234,-0.245117,-0.700195,0.64209
1480628801638266,-0.246094,-0.696777,0.637695
1480628801654308,-0.242188,-0.708984,0.643555
1480628801676367,-0.241699,-0.711914,0.641113
1480628801704943,-0.243652,-0.722168,0.641602
1480628801713967,-0.249512,-0.719727,0.643066
1480628801736527,-0.250488,-0.715332,0.644531
1480628801757587,-0.25,-0.711914,0.642578
1480628801774628,-0.249512,-0.708008,0.638672
1480628801798192,-0.242188,-0.706055,0.635254
1480628801817745,-0.236328,-0.713867,0.644043
1480628801834288,-0.234863,-0.708984,0.639648
1480628801856347,-0.230957,-0.706055,0.645996
1480628801901967,-0.235352,-0.701172,0.643066
1480628801904474,-0.234375,-0.706543,0.651855
1480628801916507,-0.244141,-0.720215,0.647461
1480628801939567,-0.239258,-0.719727,0.649414
1480628801961626,-0.239746,-0.717285,0.654785
1480628801985691,-0.23291,-0.708984,0.651855
1480628801999227,-0.230469,-0.70459,0.648926
1480628802020283,-0.240234,-0.695801,0.655762
1480628802043344,-0.227051,-0.689453,0.653809
1480628802066405,-0.228516,-0.6875,0.65918
1480628802073424,-0.224121,-0.694824,0.654297
1480628802097487,-0.234375,-0.702637,0.654297
1480628802119546,-0.234863,-0.711426,0.657227
1480628802133584,-0.231934,-0.708008,0.651367
1480628802158150,-0.234375,-0.70459,0.654297
1480628802179205,-0.230957,-0.701172,0.663574
1480628802193242,-0.227539,-0.703613,0.657715
1480628802222824,-0.228516,-0.70166,0.660156
1480628802238864,-0.223633,-0.709473,0.67334
1480628802253403,-0.212402,-0.720215,0.677246
1480628802276464,-0.200684,-0.700195,0.681152
1480628802299024,-0.211426,-0.670898,0.677246
1480628802321584,-0.21582,-0.660156,0.680176
1480628802336624,-0.219727,-0.666016,0.679688
1480628802359189,-0.227051,-0.683594,0.682129
1480628802373222,-0.221191,-0.686523,0.687988
1480628802396784,-0.216797,-0.685547,0.688965
1480628802424862,-0.211426,-0.693848,0.696289
1480628802439899,-0.205566,-0.680176,0.699219
1480628802456443,-0.20459,-0.658203,0.703125
1480628802487025,-0.200684,-0.652344,0.690918
1480628802509083,-0.20459,-0.654785,0.70459
1480628802517104,-0.208008,-0.658691,0.704102
1480628802539666,-0.209961,-0.665039,0.70166
1480628802560219,-0.209961,-0.671875,0.701172
1480628802576765,-0.208496,-0.674805,0.700195
1480628802599322,-0.219238,-0.677246,0.690918
1480628802620380,-0.226074,-0.672852,0.685059
1480628802637424,-0.224121,-0.675293,0.687012
1480628802658981,-0.225586,-0.669434,0.689453
1480628802680038,-0.227539,-0.678223,0.681641
1480628802712623,-0.214844,-0.678223,0.677246
1480628802726662,-0.22168,-0.688965,0.67334
1480628802741702,-0.214844,-0.685059,0.676758
1480628802764262,-0.215332,-0.689941,0.673828
1480628802793339,-0.222656,-0.686523,0.677246
1480628802799856,-0.228516,-0.694824,0.678711
1480628802816902,-0.225586,-0.692383,0.680664
1480628802838960,-0.218262,-0.682129,0.6875
1480628802860016,-0.22168,-0.67627,0.683105
1480628802876561,-0.217773,-0.668945,0.683594
1480628802900125,-0.227539,-0.663086,0.682617
1480628802921179,-0.223145,-0.666992,0.681641
1480628802937221,-0.217773,-0.674316,0.678711
1480628802959280,-0.214844,-0.680664,0.682129
1480628802988859,-0.219238,-0.681152,0.687988
1480628802996379,-0.223145,-0.687988,0.684082
1480628803019441,-0.225098,-0.689453,0.68457
1480628803041500,-0.224609,-0.689941,0.6875
1480628803070075,-0.22168,-0.681641,0.688477
1480628803079099,-0.220703,-0.67334,0.682617
1480628803107676,-0.213867,-0.671875,0.684082
1480628803116197,-0.216797,-0.666016,0.6875
1480628803145274,-0.21582,-0.661621,0.687012
1480628803161819,-0.217285,-0.669922,0.689941
1480628803175857,-0.214844,-0.668945,0.690918
1480628803198918,-0.210938,-0.678711,0.696289
1480628803228998,-0.210449,-0.686035,0.701172
1480628803236017,-0.214844,-0.685547,0.685547
1480628803260583,-0.211426,-0.69043,0.694824
1480628803297681,-0.20752,-0.679199,0.703125
1480628803303195,-0.209473,-0.665527,0.705566
1480628803325254,-0.205078,-0.652344,0.708008
1480628803349318,-0.198242,-0.654785,0.70459
1480628803365361,-0.19873,-0.654297,0.698242
1480628803379399,-0.202637,-0.663574,0.700195
1480628803401456,-0.204102,-0.671387,0.690918
1480628803422515,-0.211426,-0.683594,0.687988
1480628803439057,-0.216797,-0.695313,0.6875
1480628803461617,-0.213867,-0.689941,0.687012
1480628803491698,-0.209961,-0.688477,0.692383
1480628803514257,-0.213379,-0.682617,0.69043
1480628803521777,-0.207031,-0.67627,0.6875
1480628803544839,-0.208496,-0.668457,0.688965
1480628803558878,-0.20459,-0.666504,0.685059
1480628803588956,-0.206543,-0.668945,0.688477
1480628803602491,-0.199219,-0.671387,0.693848
1480628803619036,-0.202637,-0.678223,0.691406
1480628803649116,-0.203125,-0.679199,0.695801
1480628803662653,-0.208496,-0.679199,0.703613
1480628803679196,-0.209961,-0.676758,0.695801
1480628803701756,-0.203613,-0.671875,0.711914
1480628803738856,-0.19873,-0.660645,0.717773
1480628803741363,-0.1875,-0.651367,0.718262
1480628803761414,-0.18457,-0.63623,0.728516
1480628803782971,-0.18457,-0.623047,0.730469
1480628803798513,-0.182129,-0.619141,0.730469
1480628803822076,-0.183105,-0.616699,0.737793
1480628803850151,-0.175781,-0.633789,0.74707
1480628803874218,-0.17334,-0.647949,0.750488
1480628803881734,-0.174316,-0.637695,0.754395
1480628803904294,-0.17627,-0.623535,0.753418
1480628803926856,-0.170898,-0.616699,0.756836
1480628803941393,-0.174805,-0.615723,0.764648
1480628803963954,-0.169922,-0.605957,0.762695
1480628803986515,-0.17041,-0.599121,0.759766
1480628804001554,-0.168457,-0.598633,0.756348
1480628804024116,-0.165527,-0.595703,0.76416
1480628804038150,-0.162598,-0.605469,0.769043
1480628804069232,-0.161621,-0.61377,0.771973
1480628804091294,-0.160156,-0.612305,0.775879
1480628804099314,-0.16748,-0.612305,0.765625
1480628804121884,-0.167969,-0.608887,0.774414
1480628804143932,-0.166992,-0.621094,0.765625
1480628804158471,-0.166992,-0.618164,0.761719
1480628804181533,-0.164551,-0.609375,0.759766
1480628804211612,-0.160156,-0.59375,0.765137
1480628804219132,-0.161133,-0.59668,0.764648
1480628804241692,-0.165527,-0.603027,0.76709
1480628804264252,-0.160645,-0.608887,0.774414
1480628804278289,-0.163574,-0.611816,0.775391
1480628804301350,-0.165527,-0.614746,0.763184
1480628804323914,-0.166016,-0.61377,0.76709
1480628804346471,-0.162109,-0.614258,0.761719
1480628804361511,-0.161621,-0.612305,0.760742
1480628804384072,-0.164063,-0.615234,0.761719
1480628804405128,-0.163574,-0.601563,0.762207
1480628804421674,-0.164551,-0.596191,0.761719
1480628804444231,-0.163086,-0.594727,0.762207
1480628804465287,-0.163086,-0.603027,0.764648
1480628804481330,-0.161621,-0.606445,0.769043
1480628804503890,-0.159668,-0.623047,0.761719
1480628804524948,-0.164063,-0.62207,0.763672
1480628804541490,-0.166016,-0.618652,0.762695
1480628804564551,-0.166992,-0.618652,0.760742
1480628804585106,-0.169434,-0.613281,0.761719
1480628804601650,-0.163574,-0.60791,0.757813
1480628804624211,-0.15918,-0.606934,0.763184
1480628804646769,-0.153809,-0.608398,0.76709
1480628804661810,-0.148926,-0.606934,0.761719
1480628804683868,-0.153809,-0.609863,0.76416
1480628804704924,-0.15918,-0.617188,0.767578
1480628804727484,-0.162109,-0.62207,0.765137
1480628804744028,-0.164063,-0.618652,0.758789
1480628804765084,-0.17041,-0.624512,0.771973
1480628804781629,-0.161621,-0.626953,0.77002
1480628804804189,-0.155762,-0.60791,0.758301
1480628804826749,-0.158203,-0.596191,0.76123
1480628804840791,-0.155762,-0.59082,0.76123
1480628804872871,-0.158691,-0.599609,0.768066
1480628804886407,-0.157227,-0.602051,0.763184
1480628804901448,-0.15625,-0.605469,0.763672
1480628804925014,-0.157227,-0.617188,0.767578
1480628804946568,-0.163574,-0.619629,0.76123
1480628804961106,-0.164551,-0.623047,0.763184
1480628804984168,-0.162598,-0.62207,0.763184
1480628805006728,-0.158203,-0.624023,0.770996
1480628805020765,-0.163086,-0.608887,0.759766
1480628805043826,-0.164063,-0.608887,0.762207
1480628805066387,-0.160156,-0.606934,0.762695
1480628805080925,-0.157715,-0.600586,0.766113
1480628805103986,-0.156738,-0.604004,0.765137
1480628805126546,-0.156738,-0.606934,0.754395
1480628805149607,-0.161621,-0.615723,0.760742
1480628805164647,-0.161621,-0.618652,0.768066
1480628805186706,-0.163574,-0.619629,0.766602
1480628805207764,-0.166016,-0.621582,0.766113
1480628805224307,-0.164063,-0.614746,0.762207
1480628805247869,-0.163574,-0.611328,0.756836
1480628805267420,-0.15625,-0.603027,0.767578
1480628805291487,-0.156738,-0.602051,0.761719
1480628805306525,-0.163574,-0.602051,0.76709
1480628805327581,-0.155273,-0.608887,0.763184
1480628805344125,-0.153809,-0.611328,0.761719
1480628805374206,-0.158203,-0.618652,0.764648
1480628805387741,-0.158203,-0.625488,0.758789
1480628805404285,-0.159668,-0.624023,0.764648
1480628805426344,-0.160156,-0.620605,0.765625
1480628805447401,-0.160645,-0.617188,0.765625
1480628805463944,-0.15625,-0.613281,0.761719
1480628805486508,-0.155273,-0.601563,0.766113
1480628805507559,-0.152344,-0.601563,0.770508
1480628805525106,-0.158203,-0.59668,0.761719
1480628805546664,-0.158691,-0.603027,0.764648
1480628805567720,-0.160156,-0.61377,0.760742
1480628805584765,-0.157715,-0.621582,0.76416
1480628805606824,-0.160156,-0.624023,0.760742
1480628805627378,-0.157715,-0.622559,0.76416
1480628805643923,-0.155273,-0.617676,0.76123
1480628805672499,-0.166016,-0.612305,0.765137
1480628805687539,-0.157715,-0.608398,0.758789
1480628805704083,-0.160156,-0.601563,0.762695
1480628805726643,-0.154785,-0.599609,0.761719
1480628805749204,-0.150879,-0.600586,0.768555
1480628805764243,-0.156738,-0.600586,0.76123
1480628805786302,-0.15625,-0.612305,0.770508
1480628805815379,-0.158203,-0.614746,0.764648
1480628805823904,-0.168457,-0.619141,0.763184
1480628805846461,-0.160156,-0.625,0.763184
1480628805876541,-0.160156,-0.619141,0.763184
1480628805897598,-0.15918,-0.610352,0.764648
1480628805906622,-0.159668,-0.599609,0.759766
1480628805929182,-0.156738,-0.600586,0.765625
1480628805943218,-0.149414,-0.598633,0.763672
1480628805966781,-0.156738,-0.606445,0.76123
1480628805989343,-0.154785,-0.604004,0.764648
1480628806003378,-0.159668,-0.618164,0.765137
1480628806026941,-0.157715,-0.623535,0.762695
1480628806049000,-0.162109,-0.623535,0.767578
1480628806063538,-0.156738,-0.619629,0.764648
1480628806086600,-0.15918,-0.611816,0.76123
1480628806109662,-0.159668,-0.60791,0.767578
1480628806130217,-0.15625,-0.604492,0.765137
1480628806152777,-0.152832,-0.592285,0.768555
1480628806174835,-0.155273,-0.603027,0.769043
1480628806184362,-0.154297,-0.603516,0.763672
1480628806206419,-0.152344,-0.608398,0.765625
1480628806228979,-0.157715,-0.609863,0.763184
1480628806250035,-0.15918,-0.625977,0.761719
1480628806266579,-0.158203,-0.625,0.76709
1480628806289139,-0.159668,-0.614746,0.761719
1480628806310195,-0.160645,-0.614258,0.765137
1480628806326739,-0.158691,-0.60498,0.762207
1480628806349299,-0.157227,-0.601563,0.772461
1480628806370355,-0.155273,-0.592773,0.769531
1480628806386398,-0.148438,-0.591797,0.76709
1480628806408957,-0.155273,-0.596191,0.765137
1480628806431016,-0.157715,-0.61084,0.768555
1480628806452575,-0.15918,-0.618652,0.766602
1480628806469118,-0.160645,-0.62207,0.762695
1480628806490175,-0.157227,-0.622559,0.772461
1480628806506720,-0.158203,-0.618652,0.774414
1480628806529278,-0.159668,-0.608887,0.765625
1480628806550335,-0.15625,-0.605469,0.772461
1480628806567379,-0.15332,-0.59668,0.763184
1480628806588937,-0.155273,-0.595703,0.760742
1480628806609992,-0.155273,-0.595703,0.766113
1480628806626036,-0.153809,-0.604004,0.768066
1480628806649096,-0.154297,-0.610352,0.763184
1480628806677672,-0.15625,-0.615723,0.767578
1480628806686697,-0.163086,-0.616211,0.765137
1480628806709257,-0.163574,-0.617188,0.768066
1480628806731315,-0.165039,-0.620605,0.768555
1480628806746857,-0.156738,-0.61084,0.767578
1480628806769417,-0.155273,-0.601563,0.767578
1480628806791476,-0.149902,-0.593262,0.763672
1480628806807017,-0.15332,-0.594238,0.767578
1480628806829075,-0.155762,-0.59668,0.76123
1480628806851636,-0.149414,-0.603516,0.76416
1480628806865673,-0.155273,-0.615234,0.769531
1480628806889236,-0.162109,-0.614746,0.766113
1480628806911294,-0.160156,-0.621582,0.760742
1480628806927337,-0.164551,-0.624023,0.768555
1480628806948894,-0.15918,-0.617188,0.766602
1480628806971455,-0.158203,-0.605957,0.769531
1480628806985995,-0.157715,-0.597168,0.772949
1480628807009556,-0.156738,-0.594727,0.769531
1480628807031615,-0.146973,-0.594238,0.767578
1480628807046154,-0.155273,-0.595703,0.771973
1480628807069715,-0.153809,-0.602051,0.761719
1480628807091273,-0.158203,-0.618164,0.767578
1480628807106816,-0.157715,-0.621582,0.767578
1480628807128873,-0.161621,-0.621094,0.770996
1480628807151435,-0.159668,-0.607422,0.771484
1480628807172489,-0.163086,-0.608398,0.761719
1480628807189033,-0.161621,-0.611328,0.767578
1480628807211593,-0.152832,-0.60498,0.77002
1480628807234654,-0.150879,-0.595215,0.766113
1480628807262730,-0.153809,-0.597656,0.77002
1480628807271754,-0.149414,-0.595215,0.772949
1480628807292809,-0.153809,-0.603027,0.763672
1480628807309854,-0.159668,-0.619629,0.766602
1480628807331412,-0.157227,-0.621582,0.77002
1480628807352469,-0.161621,-0.619629,0.76709
1480628807369012,-0.157715,-0.621094,0.765625
1480628807397588,-0.155762,-0.610352,0.766602
1480628807412628,-0.15625,-0.605469,0.768555
1480628807429172,-0.150879,-0.599609,0.763184
1480628807459253,-0.154297,-0.59668,0.768066
1480628807472788,-0.15332,-0.600098,0.76709
1480628807488831,-0.147461,-0.602051,0.76709
1480628807512394,-0.155762,-0.605469,0.768066
1480628807532447,-0.15625,-0.615234,0.763672
1480628807549492,-0.162109,-0.621582,0.768555
1480628807571551,-0.161133,-0.62207,0.766602
1480628807592608,-0.158203,-0.618164,0.774902
1480628807609150,-0.156738,-0.61084,0.768555
1480628807631209,-0.15918,-0.599609,0.761719
1480628807653769,-0.152832,-0.597168,0.766113
1480628807668810,-0.151855,-0.598633,0.769043
1480628807692373,-0.150879,-0.602539,0.766602
1480628807713930,-0.156738,-0.602539,0.761719
1480628807730474,-0.155273,-0.612793,0.764648
1480628807751530,-0.154785,-0.61377,0.770996
1480628807774090,-0.157715,-0.619629,0.765137
1480628807789634,-0.158691,-0.618652,0.766113
1480628807811690,-0.157715,-0.623535,0.770996
1480628807848789,-0.153809,-0.61377,0.77002
1480628807851295,-0.152832,-0.604004,0.767578
1480628807871850,-0.149414,-0.595703,0.768066
1480628807893909,-0.152344,-0.594727,0.767578
1480628807908447,-0.154297,-0.597168,0.766113
1480628807931508,-0.147461,-0.609863,0.764648
1480628807954572,-0.151367,-0.617188,0.770508
1480628807968607,-0.155762,-0.617676,0.764648
1480628807991670,-0.160645,-0.620117,0.762207
1480628808014229,-0.161621,-0.622559,0.760254
1480628808028266,-0.154297,-0.617676,0.768555
1480628808058847,-0.152832,-0.616699,0.76709
1480628808073887,-0.150879,-0.608398,0.77002
1480628808096448,-0.151367,-0.597656,0.76123
1480628808111487,-0.156738,-0.595703,0.76416
1480628808134046,-0.153809,-0.598145,0.765625
1480628808155104,-0.152344,-0.610352,0.765625
1480628808171648,-0.15332,-0.61377,0.765625
1480628808194208,-0.155273,-0.621094,0.76709
1480628808215767,-0.160645,-0.62207,0.762207
1480628808231807,-0.159668,-0.623047,0.765137
1480628808259882,-0.152832,-0.615234,0.763672
1480628808274922,-0.153809,-0.610352,0.767578
1480628808291466,-0.157227,-0.603516,0.77002
1480628808314026,-0.148926,-0.595215,0.76709
1480628808335082,-0.152344,-0.598145,0.771484
1480628808351627,-0.15332,-0.601563,0.769043
1480628808374186,-0.15625,-0.607422,0.766602
1480628808395242,-0.155273,-0.617188,0.768555
1480628808411284,-0.15332,-0.624512,0.771973
1480628808435348,-0.156738,-0.621094,0.765137
1480628808455402,-0.15918,-0.61377,0.763184
1480628808471445,-0.164551,-0.609863,0.769043
1480628808495009,-0.150879,-0.608398,0.769043
1480628808515061,-0.151855,-0.604492,0.769043
1480628808531610,-0.15332,-0.597656,0.76709
1480628808560186,-0.15332,-0.596191,0.763672
1480628808576730,-0.151855,-0.594727,0.764648
1480628808591269,-0.155762,-0.611328,0.768066
1480628808622852,-0.154785,-0.614746,0.76709
1480628808636890,-0.150391,-0.616699,0.767578
1480628808652431,-0.15625,-0.618164,0.774414
1480628808673988,-0.158691,-0.613281,0.76709
1480628808696549,-0.155762,-0.609863,0.769043
1480628808711087,-0.154297,-0.610352,0.769043
1480628808734149,-0.147949,-0.598145,0.765137
1480628808756712,-0.148438,-0.591797,0.768555
1480628808770747,-0.153809,-0.594238,0.762207
1480628808793807,-0.154297,-0.602051,0.766113
1480628808816367,-0.15332,-0.61084,0.770508
1480628808830907,-0.154297,-0.616699,0.765625
1480628808869009,-0.156738,-0.628418,0.765625
1480628808877029,-0.15918,-0.622559,0.766113
1480628808891068,-0.15918,-0.613281,0.765137
1480628808921649,-0.164063,-0.608398,0.772461
1480628808944210,-0.15625,-0.598633,0.766602
1480628808950726,-0.147461,-0.596191,0.763184
1480628808973787,-0.149902,-0.597168,0.768066
1480628808996347,-0.151367,-0.596191,0.765137
1480628809010885,-0.157715,-0.60498,0.768066
1480628809033946,-0.152344,-0.609375,0.77002
1480628809056509,-0.157227,-0.616211,0.76709
1480628809077562,-0.15625,-0.618164,0.770508
1480628809095109,-0.162109,-0.624512,0.763184
1480628809116667,-0.15625,-0.617188,0.769531
1480628809145242,-0.157227,-0.606445,0.76709
1480628809154267,-0.157227,-0.600098,0.764648
1480628809176326,-0.149902,-0.59375,0.771973
1480628809197382,-0.151855,-0.594727,0.76709
1480628809213926,-0.149414,-0.602051,0.768555
1480628809236986,-0.150391,-0.603516,0.77002
1480628809259045,-0.154785,-0.61377,0.768555
1480628809274085,-0.155762,-0.616699,0.773438
1480628809297147,-0.156738,-0.615723,0.769531
1480628809317702,-0.158691,-0.616211,0.775391
1480628809334245,-0.15625,-0.614746,0.765625
1480628809357308,-0.15918,-0.604492,0.76709
1480628809377861,-0.152832,-0.601563,0.765137
1480628809393905,-0.149414,-0.598633,0.770508
1480628809417467,-0.145508,-0.593262,0.770508
1480628809437520,-0.150391,-0.599609,0.765625
1480628809454064,-0.152832,-0.600098,0.769531
1480628809476624,-0.154297,-0.613281,0.767578
1480628809497680,-0.15625,-0.617188,0.770508
1480628809514228,-0.155762,-0.619629,0.77002
1480628809536283,-0.159668,-0.612305,0.768555
1480628809558843,-0.15918,-0.612305,0.771973
1480628809573884,-0.154297,-0.603516,0.765625
1480628809596443,-0.152832,-0.599609,0.764648
1480628809619026,-0.149414,-0.59668,0.771973
1480628809634043,-0.151367,-0.594727,0.77002
1480628809656605,-0.153809,-0.598145,0.768555
1480628809679163,-0.154785,-0.610352,0.770508
1480628809694203,-0.155762,-0.610352,0.773926
1480628809716763,-0.154785,-0.621094,0.768555
1480628809739324,-0.154297,-0.619141,0.773438
1480628809759878,-0.157227,-0.616211,0.769531
1480628809783942,-0.158691,-0.608398,0.766602
1480628809798982,-0.157715,-0.600098,0.773438
1480628809814523,-0.15625,-0.599609,0.773438
1480628809836582,-0.149414,-0.59375,0.772949
1480628809859644,-0.149414,-0.598145,0.769531
1480628809873179,-0.15332,-0.596191,0.769043
1480628809896742,-0.15625,-0.60498,0.767578
1480628809925322,-0.155762,-0.615234,0.76416
1480628809933339,-0.156738,-0.622559,0.774414
1480628809956402,-0.153809,-0.624512,0.774414
1480628809978960,-0.154785,-0.610352,0.773926
1480628810000517,-0.160645,-0.604492,0.770508
1480628810017063,-0.152344,-0.605469,0.776855
1480628810039123,-0.150391,-0.597656,0.773926
1480628810060177,-0.146973,-0.591797,0.76709
1480628810076720,-0.146973,-0.597656,0.771484
1480628810099281,-0.150391,-0.597168,0.768066
1480628810120337,-0.157227,-0.603516,0.765625
1480628810136881,-0.154785,-0.608398,0.767578
1480628810158940,-0.160156,-0.614258,0.77002
1480628810180496,-0.15625,-0.617188,0.773926
1480628810196539,-0.153809,-0.613281,0.767578
1480628810219100,-0.154297,-0.602051,0.773926
1480628810240156,-0.15625,-0.597168,0.765137
1480628810256702,-0.149414,-0.602051,0.772949
1480628810279260,-0.152344,-0.595703,0.769043
1480628810307334,-0.151367,-0.599609,0.769531
1480628810316358,-0.145508,-0.602539,0.773926
1480628810339421,-0.156738,-0.60498,0.772461
1480628810367494,-0.157227,-0.608887,0.77002
1480628810376518,-0.161133,-0.619629,0.768066
1480628810399078,-0.161621,-0.620605,0.774414
1480628810422140,-0.155762,-0.615234,0.766113
1480628810436679,-0.150879,-0.604004,0.769043
1480628810459240,-0.15625,-0.598633,0.769531
1480628810481798,-0.155762,-0.59375,0.771973
1480628810496337,-0.148438,-0.597168,0.769531
1480628810518900,-0.149414,-0.59375,0.770508
1480628810541457,-0.154297,-0.605957,0.772461
1480628810556499,-0.153809,-0.609375,0.765137
1480628810579559,-0.158203,-0.614746,0.772949
1480628810602118,-0.15918,-0.60791,0.773926
1480628810617158,-0.156738,-0.620117,0.773438
1480628810639718,-0.158691,-0.61084,0.773926
1480628810662278,-0.157227,-0.603027,0.765625
1480628810675815,-0.153809,-0.594238,0.765625
1480628810698876,-0.151367,-0.591797,0.766602
1480628810721436,-0.152832,-0.592773,0.766113
1480628810735974,-0.152344,-0.599609,0.772461
1480628810759036,-0.150391,-0.605469,0.769531
1480628810781596,-0.157715,-0.615234,0.766113
1480628810796135,-0.158691,-0.620117,0.773438
1480628810819304,-0.158691,-0.623047,0.768555
1480628810842258,-0.15625,-0.611816,0.765625
1480628810855794,-0.155762,-0.60791,0.774414
1480628810878854,-0.157227,-0.596191,0.77002
1480628810901414,-0.153809,-0.593262,0.774414
1480628810923974,-0.146973,-0.59082,0.77002
1480628810939016,-0.152832,-0.599609,0.76709
1480628810962077,-0.150879,-0.601563,0.769043
1480628810982631,-0.154785,-0.61084,0.768066
1480628810999177,-0.159668,-0.61377,0.770996
1480628811023240,-0.15918,-0.621094,0.775391
1480628811042791,-0.156738,-0.619141,0.771484
1480628811058835,-0.157227,-0.61377,0.766602
1480628811081393,-0.153809,-0.612793,0.774902
1480628811102450,-0.152832,-0.601563,0.771484
1480628811118994,-0.150879,-0.601563,0.768555
1480628811147569,-0.148438,-0.596191,0.772949
1480628811164113,-0.150879,-0.596191,0.771973
1480628811179154,-0.150391,-0.601074,0.77002
1480628811201713,-0.15332,-0.605469,0.767578
1480628811222773,-0.155762,-0.617188,0.767578
1480628811239319,-0.161133,-0.619141,0.76709
1480628811261372,-0.157715,-0.619141,0.775391
1480628811282428,-0.159668,-0.617676,0.77832
1480628811299975,-0.155273,-0.605957,0.770996
1480628811322033,-0.155762,-0.595215,0.771484
1480628811342588,-0.153809,-0.595215,0.774414
1480628811359133,-0.146973,-0.601074,0.774414
1480628811381692,-0.151855,-0.595703,0.774414
1480628811403250,-0.150391,-0.605957,0.77002
1480628811418792,-0.15625,-0.611816,0.768555
1480628811441351,-0.161621,-0.614258,0.768066
1480628811463911,-0.154297,-0.621582,0.766602
1480628811478952,-0.155762,-0.618164,0.765625
1480628811501511,-0.155273,-0.614258,0.768066
1480628811524071,-0.15625,-0.602539,0.769531
1480628811545127,-0.155273,-0.597168,0.770508
1480628811561671,-0.15332,-0.595215,0.768066
1480628811591250,-0.145996,-0.596191,0.77002
1480628811605287,-0.149414,-0.600586,0.762695
1480628811621330,-0.151367,-0.60498,0.772461
1480628811644892,-0.155273,-0.614258,0.770508
1480628811658429,-0.161621,-0.62207,0.770996
1480628811682994,-0.158203,-0.616699,0.76709
1480628811704552,-0.154297,-0.614746,0.767578
1480628811718590,-0.158203,-0.611328,0.76709
1480628811741650,-0.148926,-0.607422,0.769043
1480628811764211,-0.151367,-0.602539,0.772461
1480628811778248,-0.151367,-0.599609,0.763672
1480628811807325,-0.149414,-0.59082,0.769043
1480628811831389,-0.153809,-0.601074,0.765137
1480628811838408,-0.157715,-0.61377,0.762695
1480628811861469,-0.154297,-0.613281,0.769531
1480628811884531,-0.149902,-0.615234,0.77002
1480628811898567,-0.160645,-0.618164,0.768555
1480628811923134,-0.160156,-0.616699,0.771484
1480628811951710,-0.154785,-0.613281,0.769531
1480628811965245,-0.152344,-0.598145,0.773438
1480628811981290,-0.150391,-0.59375,0.770996
1480628812003847,-0.147949,-0.596191,0.768066
1480628812024904,-0.150391,-0.597168,0.76709
1480628812041949,-0.148926,-0.599609,0.773438
1480628812064007,-0.155762,-0.611328,0.76709
1480628812085065,-0.154297,-0.619141,0.769531
1480628812102109,-0.153809,-0.624512,0.76709
1480628812124168,-0.161133,-0.616211,0.770508
1480628812145225,-0.157227,-0.612793,0.777832
1480628812161266,-0.152832,-0.60791,0.770996
1480628812184328,-0.155273,-0.598633,0.775879
1480628812204883,-0.152344,-0.592285,0.767578
1480628812221427,-0.148926,-0.59668,0.767578
1480628812250004,-0.149414,-0.600098,0.768066
1480628812265543,-0.147949,-0.601563,0.767578
1480628812281586,-0.148926,-0.610352,0.765625
1480628812304149,-0.153809,-0.616699,0.766602
1480628812325203,-0.154785,-0.615723,0.768066
1480628812341747,-0.15625,-0.61377,0.767578
1480628812363805,-0.156738,-0.610352,0.773926
1480628812386369,-0.150879,-0.611328,0.776367
1480628812401405,-0.150879,-0.595215,0.766113
1480628812424467,-0.154297,-0.592773,0.768066
1480628812448030,-0.150879,-0.596191,0.767578
1480628812475101,-0.148926,-0.597168,0.765625
1480628812484125,-0.152832,-0.606934,0.770508
1480628812506685,-0.152832,-0.614746,0.772461
1480628812520724,-0.154297,-0.615234,0.771973
1480628812549800,-0.157715,-0.616211,0.765625
1480628812566344,-0.163574,-0.61377,0.764648
1480628812580891,-0.15625,-0.609375,0.767578
1480628812603944,-0.158691,-0.604492,0.770996
1480628812634025,-0.148926,-0.598633,0.769531
1480628812648061,-0.146484,-0.59375,0.765137
1480628812664104,-0.151855,-0.595215,0.76416
1480628812686664,-0.152832,-0.597656,0.766602
1480628812700702,-0.150879,-0.612305,0.769043
1480628812724264,-0.152344,-0.614258,0.768066
1480628812753844,-0.153809,-0.618652,0.770996
1480628812760861,-0.158691,-0.619141,0.772949
1480628812785427,-0.158691,-0.612305,0.775879
1480628812806483,-0.152344,-0.604492,0.774414
1480628812821022,-0.150879,-0.598633,0.771973
1480628812844083,-0.152832,-0.59668,0.77002
1480628812866643,-0.153809,-0.59668,0.765625
1480628812887699,-0.148438,-0.594238,0.774414
1480628812904244,-0.152832,-0.603027,0.769043
1480628812926302,-0.156738,-0.61377,0.767578
1480628812947358,-0.153809,-0.621094,0.773926
1480628812963902,-0.15332,-0.617676,0.771973
1480628812986464,-0.159668,-0.609375,0.772949
1480628813007518,-0.160645,-0.606445,0.770508
1480628813024063,-0.151367,-0.604004,0.770996
1480628813046622,-0.153809,-0.603027,0.772949
1480628813067677,-0.148926,-0.591797,0.77002
1480628813084222,-0.146973,-0.59375,0.768066
1480628813106280,-0.145996,-0.59668,0.767578
1480628813127838,-0.15332,-0.597656,0.773438
1480628813145886,-0.158691,-0.605957,0.76416
1480628813166440,-0.15332,-0.617188,0.776855
1480628813196019,-0.153809,-0.620605,0.775879
1480628813204041,-0.15625,-0.616699,0.766602
1480628813227102,-0.155762,-0.612305,0.77002
1480628813247656,-0.154297,-0.602539,0.770996
1480628813264702,-0.153809,-0.597656,0.766602
1480628813286261,-0.149902,-0.592285,0.76709
1480628813307817,-0.149414,-0.59375,0.774414
1480628813323860,-0.150879,-0.599121,0.766113
1480628813352936,-0.153809,-0.604004,0.767578
1480628813368979,-0.156738,-0.611328,0.766602
1480628813392543,-0.157227,-0.614746,0.771484
1480628813406579,-0.155273,-0.616211,0.768555
1480628813429139,-0.157227,-0.614258,0.76709
1480628813443177,-0.157715,-0.609375,0.772461
1480628813473757,-0.155273,-0.602051,0.775879
1480628813489302,-0.151367,-0.590332,0.773926
1480628813503337,-0.149414,-0.592773,0.770508
1480628813533918,-0.151855,-0.593262,0.77002
1480628813564499,-0.150391,-0.600586,0.769043
1480628813570014,-0.151367,-0.602539,0.77002
1480628813586559,-0.155273,-0.614258,0.771484
1480628813617641,-0.15918,-0.616699,0.771484
1480628813623659,-0.159668,-0.613281,0.770508
1480628813646718,-0.15918,-0.612793,0.773926
1480628813669278,-0.159668,-0.605957,0.770996
1480628813683316,-0.155762,-0.603027,0.774902
1480628813707379,-0.152344,-0.595703,0.769531
1480628813728937,-0.156738,-0.587891,0.76709
1480628813751998,-0.15332,-0.596191,0.771973
1480628813766538,-0.149414,-0.602051,0.770508
1480628813789100,-0.149902,-0.603027,0.774414
1480628813810153,-0.157715,-0.61084,0.77002
1480628813826697,-0.157715,-0.614258,0.770508
1480628813848755,-0.157715,-0.620117,0.770508
1480628813870313,-0.15625,-0.614746,0.775391
1480628813886858,-0.149902,-0.606445,0.769531
1480628813908915,-0.154785,-0.596191,0.766602
1480628813929972,-0.152344,-0.594727,0.774902
1480628813946516,-0.149902,-0.592285,0.76709
1480628813969076,-0.150879,-0.594727,0.769531
1480628813990132,-0.152832,-0.602051,0.769043
1480628814006676,-0.151367,-0.606445,0.773438
1480628814029236,-0.15625,-0.617188,0.768066
1480628814057813,-0.155273,-0.617188,0.772949
1480628814066334,-0.152344,-0.613281,0.772461
1480628814088898,-0.151855,-0.614258,0.766602
1480628814111454,-0.154785,-0.606445,0.769043
1480628814126494,-0.152344,-0.601563,0.770996
1480628814149054,-0.146973,-0.59375,0.772949
1480628814170110,-0.152344,-0.59082,0.76709
1480628814186654,-0.148438,-0.597656,0.771484
1480628814215231,-0.15332,-0.601563,0.772949
1480628814230270,-0.152344,-0.612793,0.772461
1480628814246313,-0.153809,-0.620605,0.767578
1480628814268874,-0.15332,-0.614746,0.771973
1480628814291433,-0.155762,-0.618652,0.768555
1480628814306473,-0.156738,-0.605469,0.772461
1480628814329033,-0.158203,-0.601563,0.772949
1480628814352097,-0.151367,-0.597168,0.771484
1480628814366634,-0.145996,-0.600586,0.768066
1480628814389194,-0.14502,-0.596191,0.76709
1480628814411753,-0.149414,-0.601074,0.768555
1480628814425791,-0.152344,-0.604492,0.770508
1480628814448852,-0.152832,-0.607422,0.773438
1480628814471413,-0.154785,-0.619141,0.773926
1480628814494974,-0.148926,-0.620117,0.773926
1480628814496479,-0.15918,-0.615234,0.769531
1480628814514528,-0.156738,-0.614258,0.765625
1480628814537087,-0.155273,-0.608398,0.76709
1480628814560650,-0.150879,-0.595703,0.770996
1480628814581705,-0.145996,-0.589355,0.767578
1480628814596745,-0.148438,-0.598633,0.769531
1480628814614794,-0.152344,-0.601074,0.770996
1480628814635849,-0.153809,-0.605957,0.762695
1480628814656907,-0.15625,-0.614258,0.765137
1480628814673449,-0.152832,-0.618164,0.766113
1480628814694505,-0.153809,-0.624512,0.769531
1480628814717066,-0.155273,-0.615234,0.767578
1480628814733610,-0.158691,-0.60791,0.763672
1480628814755671,-0.152344,-0.599609,0.765625
1480628814776725,-0.149902,-0.597656,0.767578
1480628814793269,-0.145996,-0.594238,0.773438
1480628814814324,-0.147461,-0.59668,0.769531
1480628814839893,-0.150879,-0.603516,0.762695
1480628814860949,-0.15332,-0.610352,0.769531
1480628814875988,-0.15332,-0.617188,0.76709
1480628814897044,-0.152832,-0.614258,0.773926
1480628814915092,-0.152832,-0.617676,0.772461
1480628814934644,-0.15332,-0.614258,0.773926
1480628814956703,-0.158691,-0.606445,0.768555
1480628814974751,-0.148438,-0.599609,0.774414
1480628815001823,-0.148438,-0.598633,0.769043
1480628815016864,-0.148438,-0.597168,0.764648
1480628815039423,-0.153809,-0.597656,0.769531
1480628815055971,-0.151855,-0.601074,0.771973
1480628815084544,-0.153809,-0.612305,0.767578
1480628815099583,-0.152344,-0.618652,0.771484
1480628815117130,-0.154297,-0.617188,0.770508
1480628815139690,-0.158203,-0.61377,0.776855
1480628815159744,-0.157227,-0.61084,0.769043
1480628815174282,-0.152832,-0.603027,0.771484
1480628815196842,-0.160156,-0.605957,0.767578
1480628815220907,-0.148926,-0.600098,0.771973
1480628815234443,-0.145996,-0.592285,0.768555
1480628815257003,-0.151367,-0.591797,0.773438
1480628815282570,-0.154297,-0.605469,0.76709
1480628815298112,-0.146484,-0.614258,0.768555
1480628815316661,-0.150391,-0.616211,0.770508
1480628815339221,-0.155273,-0.618652,0.76709
1480628815361781,-0.157715,-0.614258,0.770508
1480628815376821,-0.156738,-0.614258,0.770508
1480628815399380,-0.150879,-0.60498,0.776855
1480628815421943,-0.150391,-0.598633,0.773438
1480628815436981,-0.151855,-0.591797,0.770996
1480628815459541,-0.150879,-0.590332,0.771973
1480628815474581,-0.150879,-0.603516,0.769043
1480628815497141,-0.147949,-0.605957,0.770508
1480628815536244,-0.154785,-0.616211,0.770508
1480628815539253,-0.151367,-0.616699,0.768555
1480628815556799,-0.153809,-0.616699,0.77002
1480628815579359,-0.161133,-0.613281,0.76709
1480628815594400,-0.15332,-0.605957,0.77002
1480628815616960,-0.15625,-0.598145,0.772949
1480628815639519,-0.149414,-0.595703,0.770508
1480628815662081,-0.150879,-0.592285,0.770508
1480628815677119,-0.151367,-0.592285,0.770996
1480628815699178,-0.15625,-0.603516,0.766113
1480628815714218,-0.152344,-0.60498,0.772461
1480628815736779,-0.156738,-0.611328,0.771484
1480628815759338,-0.152832,-0.615723,0.770996
1480628815775883,-0.155762,-0.617676,0.769043
1480628815804458,-0.15918,-0.614746,0.765137
1480628815819500,-0.157227,-0.607422,0.770996
1480628815836545,-0.154785,-0.599609,0.772461
1480628815857100,-0.150391,-0.592773,0.766113
1480628815879157,-0.152344,-0.589355,0.768555
1480628815895701,-0.149902,-0.598145,0.76709
1480628815916758,-0.150879,-0.601074,0.772949
1480628815939317,-0.154785,-0.610352,0.766113
1480628815955863,-0.148438,-0.614746,0.765625
1480628815976917,-0.154785,-0.620605,0.771973
1480628815999477,-0.159668,-0.614746,0.772949
1480628816016021,-0.148926,-0.61084,0.775879
1480628816037078,-0.156738,-0.603516,0.772461
1480628816059637,-0.155762,-0.604004,0.769531
1480628816075680,-0.140137,-0.600098,0.777344
1480628816096736,-0.145996,-0.589355,0.772461
1480628816119800,-0.149414,-0.589844,0.767578
1480628816144864,-0.151367,-0.605469,0.769043
1480628816156897,-0.152344,-0.608887,0.768555
1480628816179456,-0.158203,-0.612793,0.772461
1480628816197505,-0.156738,-0.616211,0.772461
1480628816218561,-0.15332,-0.610352,0.770508
1480628816248139,-0.158203,-0.612305,0.772461
1480628816257163,-0.154297,-0.600586,0.769043
1480628816279723,-0.152832,-0.593262,0.770508
1480628816299274,-0.148926,-0.59375,0.768555
1480628816317324,-0.148438,-0.59082,0.771973
1480628816336876,-0.149414,-0.595703,0.77002
1480628816359435,-0.152832,-0.599121,0.768555
1480628816383499,-0.151855,-0.608887,0.773438
1480628816397537,-0.151855,-0.615723,0.778809
1480628816419594,-0.158691,-0.615723,0.776855
1480628816441654,-0.155273,-0.611816,0.770508
1480628816456696,-0.158691,-0.608398,0.769531
1480628816479754,-0.154785,-0.601563,0.77002
1480628816497302,-0.152344,-0.592773,0.772461
1480628816516855,-0.143066,-0.590332,0.771484
1480628816539414,-0.148926,-0.59082,0.766113
1480628816561973,-0.152344,-0.599609,0.771484
1480628816577014,-0.154297,-0.60498,0.774414
1480628816601086,-0.152344,-0.611816,0.772949
1480628816623137,-0.154297,-0.618164,0.776367
1480628816639680,-0.15918,-0.617676,0.773926
1480628816659232,-0.159668,-0.617676,0.774902
1480628816698838,-0.149902,-0.600586,0.775879
1480628816702347,-0.155762,-0.599609,0.767578
1480628816722402,-0.146973,-0.593262,0.766602
1480628816750992,-0.152344,-0.599121,0.769043
1480628816756993,-0.145508,-0.597168,0.772461
1480628816779552,-0.146484,-0.602051,0.769043
1480628816802113,-0.154297,-0.601074,0.775391
1480628816818156,-0.155762,-0.612793,0.77832
1480628816839211,-0.158691,-0.614258,0.772949
1480628816863276,-0.152344,-0.615723,0.774414
1480628816878317,-0.151367,-0.61377,0.770996
1480628816899372,-0.157715,-0.603027,0.77002
1480628816921934,-0.151367,-0.599609,0.767578
1480628816939979,-0.151855,-0.594238,0.77002
1480628816959531,-0.14502,-0.599121,0.777344
1480628816982092,-0.144531,-0.591309,0.771973
1480628816999638,-0.152344,-0.600098,0.766602
1480628817019191,-0.151855,-0.61084,0.76709
1480628817042252,-0.160156,-0.618164,0.775879
1480628817058295,-0.157227,-0.615723,0.773438
1480628817079350,-0.157227,-0.612305,0.771973
1480628817101911,-0.157715,-0.61377,0.770508
1480628817119960,-0.15918,-0.601074,0.767578
1480628817139510,-0.149414,-0.601563,0.767578
1480628817164577,-0.146484,-0.599121,0.776855
1480628817180118,-0.149414,-0.591309,0.76709
1480628817199169,-0.150879,-0.597168,0.764648
1480628817225739,-0.151367,-0.605957,0.769531
1480628817247799,-0.151855,-0.609863,0.773438
1480628817267351,-0.152344,-0.616699,0.76709
1480628817281889,-0.151367,-0.61377,0.770508
1480628817299937,-0.152344,-0.61377,0.775879
1480628817319489,-0.157715,-0.611328,0.770508
1480628817342049,-0.152832,-0.60498,0.769043
1480628817360097,-0.149902,-0.601563,0.768066
1480628817386668,-0.145996,-0.598145,0.772949
1480628817401707,-0.146484,-0.596191,0.769531
1480628817419762,-0.150391,-0.591309,0.775879
1480628817440812,-0.154297,-0.606445,0.769531
1480628817464875,-0.151367,-0.610352,0.769531
1480628817479916,-0.154297,-0.623535,0.77832
1480628817501473,-0.149902,-0.620605,0.762207
1480628817522030,-0.159668,-0.614258,0.765137
1480628817539574,-0.152344,-0.604004,0.771973
1480628817559627,-0.15625,-0.603516,0.77002
1480628817583190,-0.150879,-0.605469,0.768066
1480628817602242,-0.146484,-0.597168,0.77002
1480628817619287,-0.150391,-0.594727,0.768066
1480628817643353,-0.154297,-0.59668,0.765137
1480628817659894,-0.154785,-0.60791,0.77002
1480628817680951,-0.147461,-0.609863,0.769531
1480628817702007,-0.158691,-0.620605,0.768555
1480628817720055,-0.156738,-0.616699,0.776367
1480628817740610,-0.153809,-0.611328,0.77002
1480628817761666,-0.161621,-0.604004,0.771484
1480628817779714,-0.148926,-0.602051,0.773926
1480628817800779,-0.149414,-0.593262,0.765137
1480628817823329,-0.150391,-0.595215,0.774414
1480628817839874,-0.148926,-0.597168,0.771484
1480628817860929,-0.145508,-0.597656,0.77002
1480628817881986,-0.150879,-0.600586,0.772461
1480628817900535,-0.158691,-0.614746,0.76416
1480628817922594,-0.15625,-0.62207,0.772461
1480628817941644,-0.151367,-0.614746,0.770508
1480628817959692,-0.155273,-0.61084,0.773926
1480628817980750,-0.151367,-0.604492,0.768555
1480628818001804,-0.155273,-0.599609,0.768555
1480628818024365,-0.153809,-0.599121,0.771973
1480628818040908,-0.146973,-0.599121,0.771973
1480628818061964,-0.143066,-0.599609,0.76709
1480628818084525,-0.148926,-0.599121,0.768555
1480628818102573,-0.15625,-0.604004,0.767578
1480628818122128,-0.155762,-0.615723,0.771484
1480628818144183,-0.157227,-0.614258,0.773926
1480628818166743,-0.150391,-0.617188,0.773926
1480628818181783,-0.156738,-0.61084,0.769531
1480628818204344,-0.155762,-0.609375,0.769043
1480628818222392,-0.149902,-0.599609,0.773926
1480628818241943,-0.150879,-0.595703,0.771484
1480628818264503,-0.145996,-0.593262,0.771484
1480628818282551,-0.149414,-0.595215,0.768555
1480628818303607,-0.149414,-0.599121,0.771973
1480628818324162,-0.151367,-0.608887,0.772461
1480628818342209,-0.154785,-0.616699,0.773926
1480628818361762,-0.152832,-0.614746,0.771484
1480628818384322,-0.158691,-0.61084,0.771973
1480628818403373,-0.159668,-0.608398,0.772949
1480628818424930,-0.153809,-0.604492,0.768066
1480628818444481,-0.148438,-0.599121,0.770508
1480628818462531,-0.146484,-0.599121,0.771484
1480628818482082,-0.145508,-0.591797,0.772949
1480628818504644,-0.152344,-0.598145,0.777344
1480628818522189,-0.148926,-0.606445,0.771973
1480628818541741,-0.151367,-0.612305,0.767578
1480628818564301,-0.162598,-0.612305,0.774414
1480628818582352,-0.157227,-0.617676,0.771484
1480628818601900,-0.152832,-0.617676,0.776855
1480628818624462,-0.152832,-0.607422,0.775391
1480628818642509,-0.152344,-0.597656,0.770996
1480628818662061,-0.153809,-0.598145,0.764648
1480628818684621,-0.151855,-0.596191,0.773926
1480628818702168,-0.150391,-0.602051,0.767578
1480628818723226,-0.14502,-0.606445,0.769531
1480628818744279,-0.145508,-0.60498,0.771973
1480628818762327,-0.154785,-0.607422,0.770508
1480628818783384,-0.160156,-0.61084,0.772461
1480628818804441,-0.152344,-0.616699,0.770508
1480628818830007,-0.154785,-0.617188,0.775391
1480628818858082,-0.150879,-0.603516,0.772949
1480628818864599,-0.155273,-0.599609,0.767578
1480628818887160,-0.148926,-0.593262,0.770508
1480628818910723,-0.144531,-0.594238,0.770508
1480628818924264,-0.150391,-0.597656,0.772461
1480628818942306,-0.146973,-0.593262,0.764648
1480628818972386,-0.152344,-0.606934,0.774414
1480628818984419,-0.15332,-0.608887,0.773926
1480628819002466,-0.157715,-0.612793,0.769531
1480628819025530,-0.152832,-0.612305,0.772461
1480628819044579,-0.153809,-0.612793,0.768555
1480628819062126,-0.149902,-0.605469,0.775879
1480628819084686,-0.150879,-0.597168,0.771484
1480628819104741,-0.155762,-0.589844,0.766113
1480628819134317,-0.147949,-0.594238,0.775391
1480628819152365,-0.144531,-0.592285,0.779297
1480628819164397,-0.148926,-0.604492,0.768066
1480628819186960,-0.150879,-0.604492,0.773926
1480628819221552,-0.156738,-0.606934,0.773438
1480628819226563,-0.152344,-0.610352,0.773438
1480628819242608,-0.155273,-0.615234,0.774414
1480628819264664,-0.15625,-0.612305,0.770508
1480628819284217,-0.147461,-0.603027,0.772949
1480628819302264,-0.149902,-0.587891,0.774902
1480628819330840,-0.150391,-0.590332,0.765625
1480628819344377,-0.150391,-0.588867,0.770996
1480628819362925,-0.147461,-0.597656,0.772461
1480628819384985,-0.14502,-0.601563,0.773926
1480628819404535,-0.148926,-0.61084,0.773926
1480628819422085,-0.151855,-0.614258,0.774902
1480628819445145,-0.160645,-0.609375,0.778809
1480628819471716,-0.157227,-0.613281,0.776367
1480628819486755,-0.155762,-0.605469,0.772949
1480628819504802,-0.151855,-0.604004,0.768066
1480628819524354,-0.147461,-0.59375,0.772461
1480628819546915,-0.151855,-0.591797,0.769531
1480628819565464,-0.148438,-0.59082,0.76416
1480628819584515,-0.147461,-0.597168,0.773926
1480628819607075,-0.15332,-0.605957,0.768066
1480628819624622,-0.151367,-0.616211,0.780273
1480628819645678,-0.154297,-0.613281,0.773438
1480628819674254,-0.157227,-0.609863,0.773926
1480628819684782,-0.157715,-0.614746,0.769531
1480628819705837,-0.153809,-0.603027,0.765137
1480628819726893,-0.152344,-0.59668,0.775391
1480628819744942,-0.147949,-0.595215,0.771484
1480628819773517,-0.148438,-0.592773,0.770996
1480628819787054,-0.149902,-0.591797,0.774414
1480628819805102,-0.149414,-0.600098,0.775879
1480628819825657,-0.150391,-0.601074,0.772461
1480628819848217,-0.153809,-0.61084,0.776855
1480628819864761,-0.156738,-0.616211,0.769043
1480628819885817,-0.156738,-0.618652,0.770996
1480628819906873,-0.160645,-0.606934,0.769043
1480628819929432,-0.154297,-0.60498,0.771484
1480628819947480,-0.149414,-0.602051,0.775391
1480628819967036,-0.151367,-0.591797,0.767578
1480628819985082,-0.143555,-0.586914,0.77002
1480628820008142,-0.146973,-0.591309,0.774414
1480628820026692,-0.15332,-0.599121,0.774902
1480628820050756,-0.150391,-0.611328,0.769531
1480628820067299,-0.151367,-0.614258,0.768066
1480628820086853,-0.15332,-0.618164,0.771484
1480628820109411,-0.15918,-0.61377,0.771484
1480628820131973,-0.154785,-0.604492,0.774414
1480628820147012,-0.160156,-0.599609,0.781738
1480628820164559,-0.147461,-0.602539,0.773926
1480628820187622,-0.146484,-0.596191,0.767578
1480628820215695,-0.145508,-0.597168,0.772461
1480628820224719,-0.144531,-0.602051,0.768066
1480628820248782,-0.150879,-0.606445,0.77002
1480628820274349,-0.153809,-0.61377,0.775879
1480628820296910,-0.153809,-0.61377,0.769043
1480628820308441,-0.156738,-0.619141,0.766602
1480628820329999,-0.153809,-0.613281,0.772949
1480628820344536,-0.155273,-0.606934,0.770996
1480628820367598,-0.152344,-0.604004,0.774414
1480628820388655,-0.151855,-0.600098,0.77002
1480628820426254,-0.147461,-0.594238,0.772949
1480628820428761,-0.148438,-0.594727,0.769531
1480628820446809,-0.152344,-0.594727,0.768555
1480628820472376,-0.147461,-0.603027,0.772949
1480628820487421,-0.152344,-0.61377,0.779785
1480628820506975,-0.155273,-0.618652,0.769531
1480628820525017,-0.158691,-0.617676,0.77002
1480628820547577,-0.157227,-0.617676,0.771973
1480628820574649,-0.155762,-0.613281,0.770508
1480628820589187,-0.149414,-0.603516,0.767578
1480628820607236,-0.149414,-0.59375,0.770508
1480628820628291,-0.145508,-0.592285,0.768555
1480628820644836,-0.148926,-0.598145,0.768066
1480628820667395,-0.152344,-0.598633,0.771484
1480628820688453,-0.148438,-0.60498,0.77002
1480628820717028,-0.151367,-0.61377,0.772461
1480628820727556,-0.150879,-0.622559,0.768555
1480628820748615,-0.151367,-0.615234,0.77002
1480628820766158,-0.155273,-0.613281,0.771484
1480628820787717,-0.158691,-0.60498,0.767578
1480628820808270,-0.149902,-0.605957,0.772461
1480628820824816,-0.146973,-0.594238,0.771484
1480628820854898,-0.144531,-0.598145,0.769531
1480628820869433,-0.148926,-0.595703,0.769043
1480628820884975,-0.150391,-0.604492,0.770996
1480628820907535,-0.152344,-0.611328,0.770508
1480628820935609,-0.154297,-0.61084,0.769043
1480628820949145,-0.152832,-0.612793,0.768555
1480628820967193,-0.155273,-0.612305,0.770996
1480628820990757,-0.154785,-0.614746,0.769043
1480628821009305,-0.156738,-0.606445,0.770508
1480628821027354,-0.154785,-0.599121,0.769043
1480628821049913,-0.147949,-0.598145,0.773438
1480628821069466,-0.151367,-0.591309,0.769043
1480628821087517,-0.147949,-0.595215,0.77002
1480628821109572,-0.148926,-0.600098,0.775879
1480628821129625,-0.152344,-0.607422,0.765625
1480628821147172,-0.151855,-0.610352,0.772461
1480628821169732,-0.15918,-0.621582,0.769043
1480628821189284,-0.148926,-0.618652,0.770996
1480628821207333,-0.154785,-0.611328,0.773438
1480628821230895,-0.153809,-0.597656,0.771973
1480628821249444,-0.15332,-0.595703,0.771973
1480628821267492,-0.144043,-0.594727,0.77002
1480628821294565,-0.144531,-0.59668,0.768555
1480628821316623,-0.146973,-0.601074,0.769043
1480628821327652,-0.147461,-0.598633,0.766113
1480628821349209,-0.15625,-0.61377,0.763672
1480628821370770,-0.154297,-0.618164,0.766113
1480628821386810,-0.154785,-0.623047,0.767578
1480628821408868,-0.154297,-0.614258,0.772461
1480628821430425,-0.154297,-0.608398,0.770996
1480628821446469,-0.151855,-0.602539,0.775879
1480628821469029,-0.153809,-0.594238,0.76416
1480628821490085,-0.148438,-0.588867,0.771484
1480628821506628,-0.146973,-0.596191,0.771484
1480628821529188,-0.149902,-0.595215,0.77002
1480628821550245,-0.148926,-0.605469,0.768555
1480628821566287,-0.151855,-0.610352,0.775391
1480628821589349,-0.155762,-0.61377,0.771973
1480628821609903,-0.156738,-0.611816,0.768066
1480628821633967,-0.158691,-0.609375,0.774414
1480628821649007,-0.148438,-0.61377,0.773926
1480628821672069,-0.146973,-0.600098,0.770508
1480628821692625,-0.151855,-0.594238,0.767578
1480628821709167,-0.151855,-0.592773,0.766113
1480628821730223,-0.153809,-0.59668,0.762695
1480628821746266,-0.149414,-0.59668,0.770996
1480628821769328,-0.148438,-0.602051,0.77002
1480628821797404,-0.150391,-0.610352,0.772949
1480628821806425,-0.154785,-0.618164,0.770996
1480628821828986,-0.158691,-0.614746,0.770508
1480628821859066,-0.157715,-0.61377,0.77002
1480628821866587,-0.152344,-0.604004,0.771973
1480628821889147,-0.149414,-0.599609,0.774902
1480628821911706,-0.15332,-0.593262,0.770996
1480628821926746,-0.154297,-0.587891,0.768555
1480628821948805,-0.148438,-0.59668,0.77002
1480628821971364,-0.14502,-0.598145,0.771973
1480628821986955,-0.150879,-0.614258,0.768555
1480628822008965,-0.158203,-0.611816,0.77002
1480628822032527,-0.154297,-0.617676,0.770508
1480628822046063,-0.155273,-0.612793,0.774902
1480628822069626,-0.152344,-0.612305,0.772949
1480628822091685,-0.150879,-0.606445,0.775879
1480628822105723,-0.149414,-0.595215,0.774902
1480628822128783,-0.151367,-0.589844,0.772949
1480628822151344,-0.148926,-0.594238,0.775879
1480628822165883,-0.144531,-0.592285,0.771973
1480628822188945,-0.155762,-0.598145,0.775391
1480628822211505,-0.152832,-0.60791,0.777832
1480628822226042,-0.155762,-0.620605,0.768066
1480628822249103,-0.158203,-0.615234,0.76709
1480628822271663,-0.160645,-0.609375,0.775879
1480628822285702,-0.154297,-0.601074,0.783203
1480628822308762,-0.157227,-0.597168,0.773926
1480628822331323,-0.149902,-0.598145,0.765625
1480628822352380,-0.147461,-0.592773,0.774414
1480628822374939,-0.147949,-0.592773,0.776367
1480628822391483,-0.144531,-0.595703,0.770508
1480628822414042,-0.152344,-0.605469,0.775391
1480628822429082,-0.151367,-0.606934,0.770508
1480628822465679,-0.153809,-0.614258,0.771484
1480628822472698,-0.155762,-0.616211,0.772949
1480628822496261,-0.157715,-0.612793,0.771973
1480628822511802,-0.157227,-0.605469,0.772949
1480628822532357,-0.15332,-0.596191,0.770508
1480628822548901,-0.151855,-0.595703,0.772949
1480628822571462,-0.143555,-0.588379,0.770996
1480628822592517,-0.150879,-0.592285,0.771973
1480628822609062,-0.151367,-0.595215,0.771973
1480628822631622,-0.155762,-0.606445,0.769043
1480628822652679,-0.156738,-0.612793,0.772461
1480628822670225,-0.149414,-0.614746,0.775391
1480628822691280,-0.151367,-0.61377,0.775391
1480628822712335,-0.158203,-0.608887,0.772949
1480628822743920,-0.15332,-0.603516,0.771484
1480628822752443,-0.155273,-0.599609,0.774902
1480628822774501,-0.145508,-0.590332,0.773438
1480628822789041,-0.147461,-0.595215,0.775391
1480628822811600,-0.152832,-0.588379,0.771973
1480628822834161,-0.146973,-0.600098,0.769043
1480628822849701,-0.151367,-0.605469,0.774902
1480628822871259,-0.15918,-0.617188,0.77002
1480628822902843,-0.151855,-0.615723,0.774414
1480628822909861,-0.15918,-0.616699,0.770508
1480628822931920,-0.162109,-0.608887,0.769043
1480628822953980,-0.149414,-0.604004,0.77832
1480628822968519,-0.149414,-0.599121,0.773926
1480628822992582,-0.145508,-0.593262,0.772461
1480628823021659,-0.147461,-0.588867,0.772949
1480628823028177,-0.150879,-0.594727,0.763672
1480628823051740,-0.150391,-0.602539,0.767578
1480628823073797,-0.147461,-0.610352,0.772461
1480628823096360,-0.154785,-0.620605,0.77002
1480628823111399,-0.157715,-0.613281,0.770996
1480628823134460,-0.157715,-0.608887,0.769531
1480628823150001,-0.156738,-0.606934,0.767578
1480628823172059,-0.15625,-0.606445,0.772461
1480628823194118,-0.15332,-0.59668,0.771484
1480628823208656,-0.147949,-0.599609,0.769043
1480628823232219,-0.14209,-0.591797,0.769531
1480628823253777,-0.153809,-0.59668,0.774902
1480628823268315,-0.151367,-0.601074,0.773438
1480628823298896,-0.150879,-0.612793,0.772949
1480628823313936,-0.152344,-0.625488,0.766602
1480628823335996,-0.148926,-0.618652,0.773438
1480628823351538,-0.161621,-0.610352,0.770508
1480628823374097,-0.154785,-0.60791,0.766602
1480628823395152,-0.152344,-0.604004,0.774902
1480628823411696,-0.150391,-0.591797,0.773926
1480628823440272,-0.145996,-0.595703,0.769531
1480628823454811,-0.147461,-0.59082,0.765625
1480628823471355,-0.148926,-0.603027,0.765625
1480628823495420,-0.150879,-0.61084,0.775391
1480628823514972,-0.152344,-0.612305,0.770508
1480628823531516,-0.151855,-0.612793,0.773438
1480628823554076,-0.155762,-0.611816,0.767578
1480628823576636,-0.156738,-0.616211,0.77002
1480628823599195,-0.155762,-0.60791,0.771973
1480628823613736,-0.147949,-0.595215,0.775879
1480628823635294,-0.150391,-0.59375,0.771484
1480628823651337,-0.147461,-0.589844,0.770996
1480628823673897,-0.147461,-0.598145,0.769531
1480628823694950,-0.147461,-0.59668,0.771484
1480628823711498,-0.147949,-0.606934,0.771484
1480628823734555,-0.156738,-0.61084,0.772461
1480628823755173,-0.158203,-0.618164,0.771484
1480628823771654,-0.155762,-0.619141,0.770508
1480628823801735,-0.151855,-0.61084,0.773926
1480628823832817,-0.151855,-0.598633,0.773926
1480628823837333,-0.155273,-0.598633,0.777344
1480628823854378,-0.147461,-0.589844,0.772949
1480628823883953,-0.147461,-0.587402,0.775879
1480628823891473,-0.149902,-0.593262,0.769531
1480628823914034,-0.152344,-0.601563,0.774414
1480628823936595,-0.148926,-0.611328,0.776855
1480628823950630,-0.151855,-0.617188,0.771973
1480628823974193,-0.158691,-0.615723,0.765625
1480628823996251,-0.154297,-0.611816,0.769043
1480628824018813,-0.157715,-0.60791,0.768066
1480628824033852,-0.155762,-0.601563,0.770996
1480628824056412,-0.152344,-0.591797,0.769531
1480628824077468,-0.143066,-0.595215,0.765625
1480628824095014,-0.146973,-0.59668,0.768555
1480628824116571,-0.150391,-0.599609,0.766602
1480628824131613,-0.150879,-0.605957,0.767578
1480628824154174,-0.153809,-0.612793,0.772461
1480628824176731,-0.151367,-0.616699,0.769043
1480628824190770,-0.155762,-0.618164,0.766113
1480628824213832,-0.157715,-0.611816,0.773926
1480628824236391,-0.153809,-0.600098,0.773438
1480628824257448,-0.15625,-0.600098,0.774902
1480628824273990,-0.154297,-0.59082,0.77002
1480628824296550,-0.151855,-0.587891,0.768555
1480628824326631,-0.144043,-0.594727,0.776367
1480628824334151,-0.143066,-0.605957,0.770996
1480628824356710,-0.146973,-0.609863,0.770508
1480628824384786,-0.157227,-0.605469,0.771484
1480628824393810,-0.162598,-0.605957,0.773926
1480628824416369,-0.161621,-0.605469,0.776367
1480628824438930,-0.15332,-0.606934,0.778809
1480628824453970,-0.148438,-0.60498,0.772461
1480628824476530,-0.15332,-0.598633,0.776367
1480628824497586,-0.153809,-0.595703,0.771484
1480628824514129,-0.149902,-0.593262,0.777832
1480628824536690,-0.149902,-0.593262,0.776367
1480628824565266,-0.15332,-0.599609,0.766602
1480628824573788,-0.15332,-0.602539,0.769043
1480628824603868,-0.153809,-0.605957,0.771973
1480628824618908,-0.156738,-0.612305,0.776855
1480628824633948,-0.158691,-0.614746,0.773926
1480628824656515,-0.159668,-0.60498,0.777344
1480628824685085,-0.150879,-0.599121,0.773438
1480628824694109,-0.15332,-0.588867,0.772461
1480628824716668,-0.146973,-0.593262,0.779297
1480628824738727,-0.147949,-0.597168,0.78125
1480628824759783,-0.149902,-0.592773,0.768066
1480628824776327,-0.155762,-0.598633,0.773438
1480628824799389,-0.157227,-0.605469,0.77002
1480628824813927,-0.152344,-0.608398,0.772461
1480628824835986,-0.158691,-0.602539,0.777344
1480628824859047,-0.155273,-0.610352,0.776855
1480628824881608,-0.155762,-0.604004,0.777344
1480628824897149,-0.151855,-0.601563,0.770508
1480628824919207,-0.152344,-0.595703,0.770508
1480628824941266,-0.147949,-0.589355,0.774902
1480628824956306,-0.142578,-0.586914,0.768555
1480628824978866,-0.151367,-0.587891,0.772949
1480628824993405,-0.150391,-0.598145,0.769043
1480628825016466,-0.153809,-0.609375,0.780273
1480628825039026,-0.154297,-0.612305,0.777344
1480628825054067,-0.152832,-0.611816,0.769043
1480628825077127,-0.160156,-0.606445,0.775879
1480628825105202,-0.151367,-0.602539,0.775391
1480628825120245,-0.151367,-0.59082,0.780762
1480628825136791,-0.150879,-0.593262,0.773438
1480628825158844,-0.149902,-0.586914,0.773926
1480628825173383,-0.155273,-0.588379,0.776855
1480628825196446,-0.15332,-0.590332,0.77832
1480628825219007,-0.153809,-0.591797,0.777344
1480628825240061,-0.15332,-0.602539,0.773438
1480628825256604,-0.155273,-0.612793,0.778809
1480628825279164,-0.151855,-0.614258,0.765625
1480628825300221,-0.155762,-0.610352,0.771973
1480628825316264,-0.161133,-0.605957,0.767578
1480628825338823,-0.15332,-0.599121,0.772949
1480628825359882,-0.145996,-0.592773,0.772949
1480628825383944,-0.145508,-0.584473,0.774902
1480628825405505,-0.149414,-0.592773,0.773438
1480628825420545,-0.15332,-0.59668,0.771973
1480628825436585,-0.155762,-0.602051,0.776367
1480628825459143,-0.157227,-0.609863,0.777344
1480628825480200,-0.151855,-0.607422,0.776367
1480628825496243,-0.161133,-0.604492,0.78125
1480628825519304,-0.156738,-0.60791,0.775391
1480628825540360,-0.154297,-0.601074,0.772461
1480628825556905,-0.151367,-0.59375,0.770508
1480628825578962,-0.154785,-0.588379,0.770508
1480628825600018,-0.148438,-0.584961,0.774414
1480628825616563,-0.146973,-0.589355,0.773438
1480628825639122,-0.147949,-0.598633,0.778809
1480628825660178,-0.152344,-0.603516,0.774902
1480628825683773,-0.15918,-0.609375,0.775879
1480628825699815,-0.15625,-0.614258,0.774902
1480628825721372,-0.161621,-0.612793,0.776855
1480628825736420,-0.156738,-0.608887,0.78125
1480628825759474,-0.154785,-0.600586,0.779297
1480628825781533,-0.156738,-0.591797,0.768555
1480628825796573,-0.149414,-0.590332,0.771484
1480628825819133,-0.153809,-0.595215,0.769531
1480628825841692,-0.14502,-0.598633,0.774414
1480628825855730,-0.145996,-0.601563,0.772949
1480628825879292,-0.150879,-0.612793,0.769531
1480628825901351,-0.152832,-0.615723,0.77002
1480628825915890,-0.153809,-0.615234,0.771973
1480628825938951,-0.152832,-0.61084,0.772949
1480628825962013,-0.158203,-0.605469,0.774902
1480628825976050,-0.156738,-0.594727,0.774902
1480628825999111,-0.15332,-0.588867,0.780273
1480628826021671,-0.146973,-0.594727,0.769531
1480628826035708,-0.144531,-0.591797,0.773926
1480628826066290,-0.147949,-0.594727,0.771484
1480628826081330,-0.154785,-0.597656,0.77002
1480628826095869,-0.152832,-0.611816,0.772461
1480628826119432,-0.152832,-0.616211,0.771973
1480628826141489,-0.150879,-0.617676,0.766602
1480628826162546,-0.154785,-0.615723,0.77002
1480628826187112,-0.152832,-0.611816,0.773926
1480628826201650,-0.152344,-0.600098,0.774414
1480628826222706,-0.14502,-0.59668,0.777832
1480628826244765,-0.149902,-0.585938,0.76709
1480628826267828,-0.14502,-0.588867,0.772461
1480628826282365,-0.147949,-0.597656,0.77002
1480628826298909,-0.150879,-0.603516,0.768066
1480628826321469,-0.156738,-0.61084,0.770508
1480628826343528,-0.153809,-0.61084,0.768066
1480628826359069,-0.157227,-0.614258,0.765137
1480628826381629,-0.15625,-0.604492,0.773926
1480628826410204,-0.152344,-0.604004,0.765137
1480628826419732,-0.149414,-0.599609,0.768066
1480628826442290,-0.154297,-0.599609,0.772461
1480628826463847,-0.146973,-0.59375,0.773926
1480628826478889,-0.148438,-0.594238,0.767578
1480628826501450,-0.148926,-0.602051,0.77002
1480628826523507,-0.147461,-0.605469,0.772461
1480628826539047,-0.152344,-0.61084,0.768066
1480628826561608,-0.154785,-0.616211,0.777344
1480628826582663,-0.157715,-0.617676,0.766602
1480628826598706,-0.15625,-0.611328,0.770996
1480628826621267,-0.156738,-0.597656,0.774414
1480628826643826,-0.146484,-0.59375,0.771484
1480628826658365,-0.148926,-0.593262,0.769043
1480628826688946,-0.146973,-0.587891,0.770996
1480628826703988,-0.15332,-0.594238,0.772949
1480628826719528,-0.148438,-0.60498,0.770996
1480628826741588,-0.15332,-0.612793,0.771484
1480628826764146,-0.149902,-0.619629,0.774902
1480628826778184,-0.155762,-0.61377,0.771973
1480628826802248,-0.15918,-0.615723,0.768066
1480628826823805,-0.156738,-0.61084,0.777344
1480628826838346,-0.150391,-0.600586,0.765137
1480628826861405,-0.145996,-0.593262,0.770996
1480628826883965,-0.150879,-0.587891,0.777344
1480628826905022,-0.147461,-0.592773,0.77002
1480628826921566,-0.147461,-0.594727,0.772461
1480628826944125,-0.151367,-0.605469,0.773438
1480628826966687,-0.150879,-0.609863,0.768555
1480628826988744,-0.153809,-0.612793,0.770996
1480628827003783,-0.160156,-0.615234,0.770508
1480628827018323,-0.15332,-0.614258,0.770508
1480628827041384,-0.154297,-0.603027,0.777832
1480628827063944,-0.15625,-0.597656,0.775391
1480628827078482,-0.150879,-0.591309,0.777832
1480628827101547,-0.150879,-0.59082,0.774902
1480628827124105,-0.149414,-0.591309,0.771484
1480628827145160,-0.151367,-0.595215,0.768066
1480628827161203,-0.151367,-0.609375,0.767578
1480628827184264,-0.152832,-0.616699,0.774902
1480628827204819,-0.158691,-0.616211,0.769531
1480628827221363,-0.153809,-0.616699,0.776855
1480628827243923,-0.155273,-0.60791,0.775391
1480628827264979,-0.154297,-0.604004,0.771973
1480628827281523,-0.147461,-0.598145,0.77832
1480628827304083,-0.151367,-0.59082,0.770508
1480628827326642,-0.150879,-0.590332,0.773926
1480628827341683,-0.150879,-0.591309,0.765137
1480628827363743,-0.153809,-0.601074,0.771484
1480628827384800,-0.151367,-0.607422,0.771973
1480628827401342,-0.154297,-0.612793,0.775879
1480628827423901,-0.156738,-0.615723,0.76709
1480628827452479,-0.160645,-0.617676,0.771484
1480628827461501,-0.15332,-0.61377,0.773926
1480628827492584,-0.152832,-0.601563,0.77832
1480628827505121,-0.147949,-0.592773,0.766602
1480628827521665,-0.153809,-0.586426,0.774414
1480628827544222,-0.15332,-0.589355,0.77832
1480628827566281,-0.150391,-0.596191,0.769043
1480628827581321,-0.150391,-0.601563,0.774902
1480628827603880,-0.15332,-0.61377,0.76709
1480628827626441,-0.161621,-0.61377,0.776367
1480628827642484,-0.154785,-0.61377,0.773926
1480628827664041,-0.152344,-0.608398,0.774414
1480628827686602,-0.155273,-0.605469,0.774414
1480628827701642,-0.151367,-0.599121,0.774414
1480628827724200,-0.150879,-0.59082,0.770508
1480628827753781,-0.148438,-0.590332,0.771973
1480628827767821,-0.152344,-0.585449,0.772461
1480628827783859,-0.150879,-0.598633,0.772461
1480628827806420,-0.149414,-0.603516,0.773438
1480628827820968,-0.152832,-0.608887,0.771973
1480628827843518,-0.160645,-0.612793,0.770508
1480628827866579,-0.156738,-0.611328,0.771973
1480628827880616,-0.156738,-0.61084,0.775879
1480628827904179,-0.157227,-0.605957,0.777832
1480628827927240,-0.146973,-0.59375,0.773438
1480628827947294,-0.150879,-0.587891,0.768555
1480628827964841,-0.153809,-0.590332,0.769531
1480628827986400,-0.147949,-0.588867,0.770996
1480628828000937,-0.145996,-0.595703,0.774414
1480628828023999,-0.146973,-0.605957,0.772461
1480628828046558,-0.155762,-0.61084,0.771484
1480628828067614,-0.15918,-0.616699,0.778809
1480628828097694,-0.155762,-0.612793,0.771484
1480628828106718,-0.155273,-0.611328,0.781738
1480628828127273,-0.155273,-0.601563,0.777344
1480628828144820,-0.155273,-0.587402,0.775879
1480628828172393,-0.152832,-0.586914,0.770508
1480628828188937,-0.152344,-0.589844,0.776855
1480628828204980,-0.148438,-0.59668,0.769531
1480628828226537,-0.151367,-0.595215,0.768066
1480628828247594,-0.151367,-0.60498,0.767578
1480628828264639,-0.160645,-0.608398,0.776367
1480628828287700,-0.155762,-0.612305,0.772461
1480628828307251,-0.156738,-0.61377,0.780762
1480628828324799,-0.15332,-0.605957,0.775391
1480628828346356,-0.150879,-0.599609,0.773926
1480628828367413,-0.152344,-0.591797,0.77002
1480628828383957,-0.152344,-0.594727,0.773438
1480628828406516,-0.149414,-0.588379,0.773438
1480628828427573,-0.148926,-0.595215,0.765625
1480628828450131,-0.145996,-0.603516,0.777344
1480628828466676,-0.15332,-0.607422,0.777832
1480628828487231,-0.157227,-0.610352,0.768066
1480628828503775,-0.157227,-0.611328,0.772949
1480628828526335,-0.155762,-0.611816,0.771484
1480628828548895,-0.151855,-0.605957,0.770996
1480628828563935,-0.147949,-0.602539,0.774414
1480628828592510,-0.154785,-0.590332,0.77002
1480628828609055,-0.149414,-0.59082,0.773438
1480628828624095,-0.146484,-0.588867,0.779297
1480628828646655,-0.150391,-0.597656,0.770508
1480628828669718,-0.149902,-0.606934,0.771973
1480628828683253,-0.150879,-0.609863,0.776367
1480628828707333,-0.156738,-0.612793,0.774902
1480628828745417,-0.15625,-0.615234,0.772949
1480628828749929,-0.156738,-0.612305,0.770996
1480628828766474,-0.154297,-0.604004,0.774902
1480628828789044,-0.152832,-0.600586,0.772461
1480628828803571,-0.148926,-0.591309,0.774414
1480628828826635,-0.146973,-0.587891,0.773438
1480628828849194,-0.149902,-0.59375,0.775391
1480628828863231,-0.148438,-0.599121,0.769043
1480628828886293,-0.153809,-0.606934,0.773926
1480628828908852,-0.153809,-0.615723,0.771973
1480628828929908,-0.155762,-0.614746,0.768555
1480628828946452,-0.150391,-0.614746,0.77832
1480628828969515,-0.15332,-0.61084,0.772461
1480628828983049,-0.157715,-0.605469,0.770996
1480628829006612,-0.151855,-0.597168,0.774414
1480628829029173,-0.149414,-0.591797,0.768555
1480628829050229,-0.149414,-0.595215,0.768066
1480628829066776,-0.151367,-0.594727,0.771484
1480628829088831,-0.150879,-0.597168,0.769531
1480628829117910,-0.145996,-0.604004,0.770996
1480628829134954,-0.158203,-0.612793,0.772949
1480628829148993,-0.157227,-0.620605,0.775391
1480628829170050,-0.155273,-0.612305,0.772461
1480628829186594,-0.155273,-0.608398,0.770996
1480628829209151,-0.151855,-0.600098,0.77002
1480628829230208,-0.151855,-0.599121,0.773438
1480628829246250,-0.148438,-0.596191,0.771973
1480628829269313,-0.147949,-0.595215,0.768555
1480628829290367,-0.148438,-0.59082,0.770996
1480628829306410,-0.154297,-0.608398,0.772461
1480628829328970,-0.151367,-0.614258,0.765137
1480628829350026,-0.157715,-0.613281,0.772949
1480628829366068,-0.158203,-0.618652,0.767578
1480628829389130,-0.151855,-0.614258,0.77002
1480628829410186,-0.154297,-0.604004,0.774414
1480628829426228,-0.154785,-0.598145,0.772949
1480628829456309,-0.146484,-0.596191,0.769531
1480628829471348,-0.147461,-0.594238,0.777344
1480628829486890,-0.148438,-0.594727,0.768555
1480628829508948,-0.148438,-0.599609,0.764648
1480628829532012,-0.151367,-0.605957,0.766602
1480628829546550,-0.153809,-0.612793,0.768555
1480628829569111,-0.156738,-0.618652,0.778809
1480628829592170,-0.154785,-0.617676,0.771484
1480628829612224,-0.15625,-0.608887,0.770996
1480628829629269,-0.155273,-0.605957,0.773438
1480628829651329,-0.151367,-0.602539,0.772461
1480628829665866,-0.151367,-0.59668,0.775879
1480628829688927,-0.149902,-0.592285,0.77002
1480628829711487,-0.148926,-0.592773,0.768555
1480628829726026,-0.151367,-0.602539,0.773438
1480628829749087,-0.148438,-0.61084,0.769531
1480628829771647,-0.149414,-0.615234,0.766113
1480628829785685,-0.154785,-0.615234,0.768555
1480628829809247,-0.157227,-0.61377,0.770996
1480628829832310,-0.154785,-0.61084,0.769043
1480628829846346,-0.153809,-0.605469,0.777832
1480628829876426,-0.146484,-0.59668,0.773438
1480628829891466,-0.145508,-0.594727,0.768066
1480628829906005,-0.149414,-0.593262,0.77002
1480628829929066,-0.149902,-0.588867,0.762695
1480628829951627,-0.151855,-0.602051,0.76709
1480628829972682,-0.14502,-0.610352,0.770508
1480628829988725,-0.149902,-0.615723,0.773438
1480628830017303,-0.154785,-0.614258,0.76709
1480628830033845,-0.15625,-0.613281,0.776367
1480628830048885,-0.158691,-0.607422,0.774902
1480628830071445,-0.151367,-0.599121,0.773438
1480628830094005,-0.147461,-0.592285,0.766602
1480628830108544,-0.147949,-0.591309,0.76709
1480628830131605,-0.145508,-0.595215,0.769043
1480628830153669,-0.145508,-0.599609,0.769043
1480628830175221,-0.149414,-0.603027,0.77002
1480628830192266,-0.150879,-0.611328,0.764648
1480628830212320,-0.155273,-0.614258,0.770508
1480628830228864,-0.160645,-0.611816,0.775879
1480628830251425,-0.152832,-0.612793,0.779785
1480628830272981,-0.153809,-0.609863,0.770996
1480628830289024,-0.151855,-0.599121,0.766113
1480628830312588,-0.154297,-0.592285,0.769043
1480628830332640,-0.145996,-0.589355,0.770996
1480628830350188,-0.149414,-0.589844,0.769531
1480628830371243,-0.143066,-0.601563,0.772461
1480628830392299,-0.150391,-0.606445,0.76709
1480628830408843,-0.15332,-0.615723,0.773438
1480628830431403,-0.154297,-0.618164,0.769043
1480628830453963,-0.154297,-0.61377,0.772461
1480628830469504,-0.158203,-0.61377,0.777832
1480628830492565,-0.149902,-0.602051,0.769043
1480628830514625,-0.151367,-0.600098,0.770508
1480628830529163,-0.148438,-0.59375,0.773926
1480628830551725,-0.151855,-0.592285,0.769531
1480628830573782,-0.148926,-0.590332,0.775391
1480628830588821,-0.150391,-0.594238,0.773438
1480628830611382,-0.153809,-0.608887,0.768555
1480628830633942,-0.148438,-0.614746,0.772461
1480628830648480,-0.159668,-0.615723,0.774902
1480628830671541,-0.151367,-0.61377,0.76709
1480628830694101,-0.152344,-0.609375,0.77002
1480628830708139,-0.153809,-0.599609,0.772461
1480628830731703,-0.149902,-0.592773,0.771973
1480628830753764,-0.150879,-0.592285,0.776367
1480628830768299,-0.147949,-0.590332,0.777344
1480628830791360,-0.146973,-0.596191,0.771973
1480628830814422,-0.154785,-0.603516,0.76709
1480628830834977,-0.150879,-0.612793,0.771973
1480628830851521,-0.15625,-0.612305,0.76709
1480628830874080,-0.160156,-0.614258,0.772461
1480628830888119,-0.157227,-0.61377,0.779297
1480628830912182,-0.159668,-0.605469,0.773438
1480628830933740,-0.15332,-0.600586,0.768555
1480628830954799,-0.152344,-0.595703,0.772949
1480628830984876,-0.148438,-0.594238,0.774902
1480628830993900,-0.149902,-0.591309,0.77002
1480628831014955,-0.149414,-0.597168,0.76709
1480628831032000,-0.15332,-0.604004,0.77002
1480628831060090,-0.152832,-0.609863,0.768555
1480628831075115,-0.15625,-0.61084,0.77002
1480628831099179,-0.155273,-0.619141,0.773438
1480628831114720,-0.163574,-0.611328,0.771973
1480628831143296,-0.155762,-0.607422,0.772949
1480628831151819,-0.154297,-0.599609,0.773438
1480628831173878,-0.148926,-0.59375,0.772949
1480628831194935,-0.146484,-0.592285,0.762207
1480628831211478,-0.147461,-0.597168,0.776367
1480628831234041,-0.151855,-0.598633,0.769043
1480628831254593,-0.153809,-0.601074,0.773438
1480628831272640,-0.152832,-0.61084,0.772461
1480628831293697,-0.155273,-0.616699,0.772949
1480628831314752,-0.154785,-0.617188,0.768555
1480628831331297,-0.157227,-0.612305,0.771973
1480628831353857,-0.154785,-0.608887,0.774414
1480628831376416,-0.152832,-0.595703,0.76709
1480628831391457,-0.154785,-0.590332,0.771484
1480628831413516,-0.149414,-0.587402,0.765625
1480628831437078,-0.151367,-0.592285,0.770996
1480628831453122,-0.148438,-0.599609,0.779297
1480628831474177,-0.153809,-0.605957,0.770996
1480628831496236,-0.157227,-0.612793,0.771973
1480628831510774,-0.15625,-0.617676,0.766602
1480628831541355,-0.156738,-0.618652,0.773926
1480628831556396,-0.155273,-0.60791,0.777344
1480628831570934,-0.150879,-0.603027,0.775879
1480628831593997,-0.147949,-0.594727,0.770508
1480628831622573,-0.153809,-0.589844,0.773926
1480628831630593,-0.146973,-0.59082,0.768066
1480628831654157,-0.148926,-0.599609,0.77002
1480628831676214,-0.150879,-0.597656,0.774902
1480628831698774,-0.149902,-0.604004,0.769531
1480628831713815,-0.15332,-0.610352,0.769531
1480628831737377,-0.159668,-0.616211,0.772461
1480628831750914,-0.158691,-0.619141,0.774414
1480628831775980,-0.154785,-0.607422,0.768555
1480628831796534,-0.151855,-0.598145,0.771484
1480628831819096,-0.151855,-0.590332,0.771484
1480628831834135,-0.150879,-0.588867,0.775391
1480628831856695,-0.150391,-0.591797,0.775879
1480628831877249,-0.146484,-0.598633,0.765625
1480628831901815,-0.148438,-0.600586,0.766602
1480628831917356,-0.151855,-0.607422,0.769531
1480628831937409,-0.160645,-0.613281,0.770508
1480628831959969,-0.160156,-0.613281,0.775391
1480628831976513,-0.15625,-0.609863,0.773926
1480628831997569,-0.149414,-0.608398,0.772949
1480628832014114,-0.152344,-0.602539,0.772949
1480628832044194,-0.153809,-0.596191,0.768066
1480628832057729,-0.148926,-0.595215,0.769043
1480628832074774,-0.148926,-0.594727,0.771484
1480628832096332,-0.150879,-0.597656,0.772949
1480628832117389,-0.153809,-0.602051,0.771484
1480628832133932,-0.155762,-0.613281,0.772461
1480628832156492,-0.156738,-0.616699,0.769531
1480628832179052,-0.158203,-0.613281,0.768555
1480628832194094,-0.158203,-0.618164,0.769531
1480628832216652,-0.15332,-0.609375,0.764648
1480628832238711,-0.154785,-0.598633,0.773438
1480628832254252,-0.149902,-0.599121,0.77002
1480628832276311,-0.14502,-0.593262,0.771484
1480628832297367,-0.152344,-0.59668,0.768066
1480628832313911,-0.148926,-0.603516,0.772461
1480628832336972,-0.151855,-0.610352,0.771484
1480628832359031,-0.152344,-0.613281,0.771973
1480628832374071,-0.158203,-0.616699,0.771484
1480628832396631,-0.158203,-0.619141,0.772461
1480628832425207,-0.154297,-0.612305,0.769531
1480628832433229,-0.150879,-0.602051,0.769531
1480628832456290,-0.154297,-0.601074,0.776855
1480628832486370,-0.150391,-0.592285,0.769043
1480628832501410,-0.150879,-0.597168,0.771484
1480628832517453,-0.149414,-0.599121,0.771973
1480628832539010,-0.148926,-0.601563,0.776855
1480628832554052,-0.152344,-0.608887,0.766113
1480628832576610,-0.15332,-0.622559,0.762695
1480628832599170,-0.156738,-0.618164,0.772461
1480628832613207,-0.157227,-0.617188,0.770508
1480628832636268,-0.157227,-0.607422,0.763672
1480628832659330,-0.148438,-0.614258,0.774414
1480628832673367,-0.147949,-0.606445,0.769043
1480628832704450,-0.147461,-0.589355,0.766602
1480628832735534,-0.152832,-0.589844,0.764648
1480628832740044,-0.145996,-0.601074,0.773926
1480628832764108,-0.147949,-0.602051,0.765625
1480628832795193,-0.153809,-0.61084,0.772461
1480628832800206,-0.154297,-0.614258,0.767578
1480628832816247,-0.158203,-0.620117,0.77002
1480628832839811,-0.157715,-0.619629,0.771484
1480628832859863,-0.155273,-0.608887,0.776367
1480628832876409,-0.151855,-0.60498,0.769043
1480628832898967,-0.146484,-0.594238,0.765625
1480628832920025,-0.148926,-0.599609,0.769531
1480628832936568,-0.149414,-0.59082,0.772461
1480628832959127,-0.148926,-0.600586,0.768555
1480628832980184,-0.151367,-0.607422,0.767578
1480628832996226,-0.150391,-0.617188,0.773438
1480628833018786,-0.157715,-0.61084,0.765137
1480628833039842,-0.154785,-0.614258,0.772949
1480628833056386,-0.158691,-0.615234,0.777344
1480628833079448,-0.155762,-0.609863,0.770508
1480628833100005,-0.152832,-0.604004,0.772949
1480628833116547,-0.147949,-0.59668,0.770508
1480628833139607,-0.147949,-0.594727,0.763184
1480628833167683,-0.146484,-0.59375,0.771484
1480628833176205,-0.149902,-0.602539,0.768066
1480628833198765,-0.155273,-0.607422,0.769531
1480628833220326,-0.158203,-0.61377,0.767578
1480628833236365,-0.154297,-0.617188,0.771973
1480628833258925,-0.157715,-0.619629,0.769043
1480628833281485,-0.156738,-0.616211,0.763672
1480628833296525,-0.152344,-0.608398,0.770508
1480628833319588,-0.151855,-0.595703,0.766113
1480628833341645,-0.15332,-0.59375,0.770996
1480628833356187,-0.150391,-0.599121,0.76416
1480628833379746,-0.147461,-0.603516,0.769043
1480628833402307,-0.150879,-0.602539,0.768066
1480628833416846,-0.150391,-0.609863,0.770996
1480628833438903,-0.159668,-0.618652,0.768555
1480628833461464,-0.157715,-0.618164,0.768066
1480628833482522,-0.15918,-0.621094,0.76709
1480628833499064,-0.156738,-0.608887,0.773438
1480628833521624,-0.150879,-0.606934,0.768555
1480628833535661,-0.149414,-0.592773,0.768555
1480628833573764,-0.147949,-0.591797,0.771484
1480628833581283,-0.151855,-0.599121,0.773926
1480628833595821,-0.148438,-0.599121,0.765625
1480628833618883,-0.148926,-0.61084,0.769531
1480628833641443,-0.153809,-0.611816,0.768555
1480628833655981,-0.155762,-0.615234,0.771484
1480628833679042,-0.155762,-0.619141,0.777832
1480628833701606,-0.155762,-0.611816,0.771484
1480628833715640,-0.15918,-0.609863,0.774902
1480628833738701,-0.152832,-0.60498,0.763672
1480628833761261,-0.148438,-0.59375,0.77002
1480628833789837,-0.150391,-0.593262,0.773926
1480628833799362,-0.147461,-0.598145,0.773926
1480628833821421,-0.150391,-0.600098,0.777344
1480628833842979,-0.151855,-0.610352,0.769531
1480628833859022,-0.157715,-0.612305,0.767578
1480628833881581,-0.157715,-0.617188,0.77002
1480628833903140,-0.158203,-0.618164,0.774902
1480628833919182,-0.154785,-0.616699,0.768066
1480628833941239,-0.157715,-0.60791,0.770508
1480628833962296,-0.155762,-0.604492,0.764648
1480628833978840,-0.150879,-0.59668,0.769043
1480628834001400,-0.150879,-0.591309,0.772949
1480628834022456,-0.151367,-0.591309,0.770508
1480628834039000,-0.147949,-0.595215,0.768555
1480628834069082,-0.152344,-0.609375,0.766113
1480628834082616,-0.150391,-0.612793,0.768555
1480628834099160,-0.15625,-0.618164,0.768555
1480628834121219,-0.157715,-0.618652,0.773926
1480628834142274,-0.15625,-0.611328,0.770996
1480628834158819,-0.155762,-0.603516,0.774902
1480628834181379,-0.157227,-0.599609,0.775879
1480628834202434,-0.153809,-0.593262,0.770996
1480628834218980,-0.151367,-0.594238,0.771973
1480628834241539,-0.149414,-0.595703,0.767578
1480628834264100,-0.151855,-0.60498,0.770996
1480628834285156,-0.154297,-0.612793,0.771484
1480628834301700,-0.152344,-0.611816,0.770996
1480628834323758,-0.15625,-0.619629,0.77002
1480628834346317,-0.152832,-0.611816,0.771973
1480628834376398,-0.154297,-0.609375,0.768066
1480628834383918,-0.15332,-0.607422,0.769043
1480628834398458,-0.153809,-0.592285,0.770996
1480628834427535,-0.149902,-0.592285,0.772461
1480628834444078,-0.146484,-0.594238,0.770508
1480628834458115,-0.146484,-0.596191,0.772461
1480628834481678,-0.149902,-0.604004,0.765625
1480628834503736,-0.154785,-0.612793,0.773926
1480628834518275,-0.15332,-0.615723,0.769531
1480628834541838,-0.155273,-0.620605,0.770508
1480628834563897,-0.158203,-0.61377,0.767578
1480628834578436,-0.158203,-0.60791,0.771973
1480628834601498,-0.152344,-0.603516,0.772949
1480628834624057,-0.153809,-0.595703,0.768066
1480628834638596,-0.149414,-0.59375,0.775391
1480628834661155,-0.149902,-0.588867,0.772461
1480628834684217,-0.150879,-0.597168,0.772949
1480628834698254,-0.151855,-0.598633,0.770508
1480628834721315,-0.150391,-0.615234,0.768555
1480628834758415,-0.157227,-0.611816,0.775879
1480628834764931,-0.155762,-0.617676,0.771973
1480628834781476,-0.155762,-0.610352,0.769531
1480628834804036,-0.15625,-0.605469,0.770996
1480628834825092,-0.151855,-0.593262,0.772461
1480628834841635,-0.146484,-0.595703,0.774902
1480628834870211,-0.14502,-0.59668,0.771484
1480628834892271,-0.149414,-0.598145,0.77002
1480628834901300,-0.148926,-0.603516,0.773438
1480628834923854,-0.157227,-0.603027,0.772461
1480628834944910,-0.158203,-0.61377,0.771973
1480628834962056,-0.153809,-0.615723,0.772461
1480628834984014,-0.164063,-0.612793,0.770508
1480628835005571,-0.155273,-0.605957,0.765137
1480628835021614,-0.154297,-0.60498,0.768066
1480628835043672,-0.153809,-0.599609,0.777344
1480628835066234,-0.149902,-0.59082,0.770508
1480628835081273,-0.151855,-0.59082,0.775391
1480628835103833,-0.145996,-0.59375,0.77002
1480628835124888,-0.146973,-0.604492,0.775879
1480628835147449,-0.154297,-0.609863,0.773926
1480628835164495,-0.150391,-0.614746,0.772461
1480628835192570,-0.161621,-0.610352,0.77002
1480628835201596,-0.160156,-0.620117,0.766113
1480628835224154,-0.151855,-0.613281,0.769043
1480628835246212,-0.154297,-0.611328,0.773926
1480628835261252,-0.150391,-0.601563,0.770996
1480628835289828,-0.147949,-0.593262,0.771973
1480628835307375,-0.153809,-0.59668,0.766113
1480628835320911,-0.156738,-0.597656,0.775879
1480628835343972,-0.152344,-0.605957,0.77002
1480628835374052,-0.150391,-0.60791,0.777344
1480628835395108,-0.151855,-0.617188,0.76709
1480628835404633,-0.158691,-0.615234,0.76709
1480628835426190,-0.160645,-0.620605,0.76709
1480628835449252,-0.157227,-0.61084,0.76416
1480628835469807,-0.154785,-0.603027,0.771973
1480628835486852,-0.15332,-0.594727,0.76416
1480628835500889,-0.148926,-0.592285,0.773438
1480628835523952,-0.148438,-0.600098,0.770508
1480628835546511,-0.148438,-0.599609,0.769531
1480628835560548,-0.152344,-0.606934,0.76709
1480628835584613,-0.15625,-0.61377,0.770508
1480628835606671,-0.15918,-0.619629,0.768555
1480628835622212,-0.159668,-0.614258,0.774414
1480628835652293,-0.152832,-0.612305,0.773438
1480628835673849,-0.155273,-0.60791,0.769531
1480628835688890,-0.158691,-0.600586,0.761719
1480628835690395,-0.147461,-0.598145,0.774902
1480628835709444,-0.147949,-0.595215,0.769531
1480628835732004,-0.149414,-0.597656,0.77002
1480628835749551,-0.154297,-0.599609,0.76709
1480628835769605,-0.149902,-0.611328,0.768555
1480628835791663,-0.150879,-0.609863,0.770996
1480628835814223,-0.155273,-0.617188,0.771484
1480628835829263,-0.158691,-0.614746,0.772461
1480628835851823,-0.154785,-0.613281,0.76416
1480628835874383,-0.154297,-0.611816,0.772949
1480628835889424,-0.153809,-0.600098,0.761719
1480628835911983,-0.153809,-0.600098,0.769043
1480628835943066,-0.149902,-0.594727,0.767578
1480628835949085,-0.147461,-0.598145,0.765625
1480628835971642,-0.147461,-0.603516,0.769043
1480628835994204,-0.156738,-0.607422,0.768555
1480628836009242,-0.155762,-0.614746,0.763184
1480628836031802,-0.15625,-0.619629,0.771484
1480628836054362,-0.155762,-0.620117,0.772461
1480628836069402,-0.15625,-0.609375,0.772949
1480628836091962,-0.154297,-0.609863,0.764648
1480628836114525,-0.154297,-0.598145,0.766602
1480628836145605,-0.148438,-0.596191,0.77002
1480628836151621,-0.147461,-0.593262,0.771484
1480628836174180,-0.148438,-0.59668,0.77002
1480628836189226,-0.151855,-0.604492,0.765625
1480628836211780,-0.150879,-0.61377,0.769531
1480628836234341,-0.152832,-0.619141,0.771484
1480628836249381,-0.158203,-0.621582,0.769043
1480628836271941,-0.154297,-0.613281,0.771484
1480628836303023,-0.155762,-0.606445,0.769531
1480628836309039,-0.15625,-0.604004,0.764648
1480628836331599,-0.151855,-0.597656,0.763672
1480628836357168,-0.151367,-0.59375,0.768555
1480628836369199,-0.148926,-0.596191,0.767578
1480628836391760,-0.148926,-0.603027,0.766602
1480628836423344,-0.151855,-0.60791,0.771973
1480628836429359,-0.158691,-0.608887,0.765625
1480628836453424,-0.160645,-0.617188,0.769531
1480628836474479,-0.160156,-0.623047,0.767578
1480628836489520,-0.157227,-0.614258,0.765137
1480628836511579,-0.152832,-0.608887,0.763672
1480628836534140,-0.152344,-0.603027,0.773438
1480628836557200,-0.15332,-0.595703,0.771973
1480628836571738,-0.148926,-0.59375,0.765137
1480628836594299,-0.155273,-0.601074,0.768555
1480628836612346,-0.152344,-0.597168,0.773438
1480628836631900,-0.149902,-0.609863,0.767578
1480628836654461,-0.149414,-0.609863,0.768555
1480628836679525,-0.159668,-0.615723,0.768066
1480628836692059,-0.158203,-0.617188,0.765625
1480628836714117,-0.157227,-0.614746,0.769043
1480628836732668,-0.156738,-0.605957,0.765137
1480628836751718,-0.15332,-0.602051,0.76709
1480628836774277,-0.146973,-0.592773,0.773438
1480628836790822,-0.150879,-0.591309,0.765137
1480628836813382,-0.151367,-0.596191,0.766602
1480628836834439,-0.152832,-0.603027,0.771484
1480628836850982,-0.150879,-0.609375,0.769531
1480628836872037,-0.15332,-0.611328,0.769531
1480628836894096,-0.157227,-0.617676,0.774902
1480628836910640,-0.158203,-0.617676,0.768555
1480628836932197,-0.157227,-0.61377,0.771973
1480628836957264,-0.151367,-0.599609,0.770996
1480628836978320,-0.153809,-0.599609,0.769043
1480628836991856,-0.149902,-0.594238,0.773438
1480628837014415,-0.147461,-0.594238,0.775391
1480628837030960,-0.148926,-0.59668,0.77002
1480628837052016,-0.152344,-0.603027,0.766113
1480628837074074,-0.154297,-0.611328,0.772461
1480628837092123,-0.155762,-0.614746,0.772949
1480628837111674,-0.153809,-0.612793,0.77002
1480628837134741,-0.155273,-0.616699,0.771484
1480628837152787,-0.160645,-0.610352,0.774414
1480628837174842,-0.15625,-0.601074,0.777832
1480628837201915,-0.158203,-0.603516,0.770996
1480628837225478,-0.144531,-0.59375,0.766113
1480628837232998,-0.146484,-0.592285,0.770508
1480628837257062,-0.150391,-0.594727,0.773438
1480628837276613,-0.15332,-0.60791,0.777344
1480628837291654,-0.153809,-0.609375,0.769531
1480628837314214,-0.152832,-0.61377,0.763672
1480628837339781,-0.160645,-0.618652,0.769531
1480628837351814,-0.155762,-0.612793,0.766602
1480628837374374,-0.159668,-0.606445,0.770508
1480628837396934,-0.151855,-0.599121,0.77002
1480628837411974,-0.150879,-0.593262,0.76709
1480628837434538,-0.150391,-0.591309,0.768555
1480628837457093,-0.149902,-0.59668,0.770508
1480628837471632,-0.149902,-0.602051,0.774414
1480628837502214,-0.151855,-0.607422,0.772949
1480628837517256,-0.157715,-0.61084,0.768066
1480628837531793,-0.15625,-0.615234,0.766113
1480628837554353,-0.15625,-0.612793,0.770508
1480628837584936,-0.161133,-0.616211,0.775879
1480628837594961,-0.155273,-0.606934,0.768555
1480628837614513,-0.15332,-0.601563,0.773926
1480628837638075,-0.145508,-0.59375,0.769043
1480628837651611,-0.152344,-0.591309,0.77002
1480628837674170,-0.152832,-0.594238,0.772461
1480628837696731,-0.151855,-0.604492,0.768066
1480628837714278,-0.155762,-0.610352,0.769043
1480628837734332,-0.155762,-0.61377,0.764648
1480628837759900,-0.154785,-0.612305,0.771973
1480628837773937,-0.157227,-0.611816,0.769043
1480628837794493,-0.154785,-0.612305,0.77002
1480628837817051,-0.158691,-0.609375,0.77002
1480628837834600,-0.153809,-0.604004,0.771973
1480628837854158,-0.148926,-0.595215,0.771484
1480628837876709,-0.153809,-0.59082,0.770508
1480628837899275,-0.15625,-0.594727,0.768066
1480628837921830,-0.147949,-0.603516,0.772949
1480628837936869,-0.15332,-0.607422,0.772949
1480628837954919,-0.154297,-0.611328,0.771973
1480628837974470,-0.156738,-0.618164,0.773438
1480628837999537,-0.157227,-0.618164,0.76709
1480628838015580,-0.154785,-0.606934,0.772461
1480628838034131,-0.155762,-0.596191,0.771484
1480628838059697,-0.154297,-0.591309,0.769531
1480628838074736,-0.150391,-0.59668,0.770508
1480628838094288,-0.151367,-0.595703,0.772461
1480628838118354,-0.148438,-0.599609,0.770996
1480628838135398,-0.154297,-0.597656,0.760742
1480628838154450,-0.152832,-0.611328,0.768555
1480628838177009,-0.160645,-0.616211,0.772949
1480628838194556,-0.157227,-0.618164,0.76709
1480628838214108,-0.159668,-0.615723,0.771484
1480628838244187,-0.158203,-0.606934,0.765625
1480628838254717,-0.155273,-0.602051,0.776367
1480628838274268,-0.153809,-0.595703,0.769531
1480628838298332,-0.146484,-0.595215,0.768066
1480628838314875,-0.147949,-0.601563,0.771484
1480628838334429,-0.153809,-0.603027,0.772949
1480628838364508,-0.154297,-0.607422,0.771484
1480628838375537,-0.158203,-0.611328,0.766113
1480628838401609,-0.152832,-0.619629,0.768555
1480628838418151,-0.15332,-0.619629,0.775879
1480628838435196,-0.155273,-0.614258,0.770508
1480628838454247,-0.15625,-0.609863,0.769043
1480628838476806,-0.155762,-0.600098,0.767578
1480628838495356,-0.15332,-0.597168,0.77002
1480628838514407,-0.149414,-0.598633,0.77002
1480628838536966,-0.153809,-0.59668,0.769043
1480628838562033,-0.152344,-0.599609,0.776855
1480628838574065,-0.154785,-0.612305,0.770996
1480628838596625,-0.15332,-0.618652,0.769043
1480628838620690,-0.157715,-0.620605,0.770996
1480628838645758,-0.158203,-0.619629,0.763672
1480628838656785,-0.159668,-0.614746,0.770508
1480628838674834,-0.153809,-0.609375,0.769043
1480628838695889,-0.148926,-0.596191,0.769531
1480628838716945,-0.148438,-0.596191,0.765137
1480628838739505,-0.151367,-0.594727,0.772949
1480628838755550,-0.149414,-0.601563,0.768066
1480628838776609,-0.151367,-0.608398,0.772461
1480628838799165,-0.157227,-0.608887,0.765137
1480628838815709,-0.157227,-0.61084,0.76416
1480628838836767,-0.158691,-0.62207,0.769043
1480628838859324,-0.158203,-0.617188,0.769043
1480628838875867,-0.155273,-0.613281,0.764648
1480628838896924,-0.154297,-0.609863,0.769531
1480628838919484,-0.152832,-0.597168,0.769531
1480628838935526,-0.151855,-0.592773,0.766602
1480628838956583,-0.147461,-0.603027,0.76709
1480628838979143,-0.143555,-0.604492,0.76416
1480628839004712,-0.149902,-0.602539,0.768066
1480628839016743,-0.154297,-0.609375,0.763184
1480628839039303,-0.15918,-0.624023,0.765625
1480628839063367,-0.155762,-0.62207,0.77002
1480628839084424,-0.155273,-0.619141,0.765137
1480628839117010,-0.155273,-0.611328,0.768066
1480628839119520,-0.157227,-0.601563,0.762207
1480628839138065,-0.154297,-0.594727,0.766602
1480628839166641,-0.146484,-0.597168,0.766113
1480628839177171,-0.144531,-0.594238,0.769043
1480628839196721,-0.148926,-0.602051,0.769531
1480628839219282,-0.150391,-0.611328,0.774414
1480628839237330,-0.155273,-0.614258,0.769531
1480628839259889,-0.161133,-0.615723,0.765625
1480628839279441,-0.15918,-0.621094,0.767578
1480628839296989,-0.158203,-0.615723,0.771484
1480628839317044,-0.153809,-0.610352,0.771973
1480628839339601,-0.155762,-0.603027,0.766602
1480628839357148,-0.151855,-0.598633,0.763184
1480628839376701,-0.152344,-0.597168,0.770508
1480628839399260,-0.150391,-0.603027,0.763672
1480628839417310,-0.147949,-0.604004,0.762207
1480628839436860,-0.155273,-0.611328,0.770508
1480628839466944,-0.154297,-0.622559,0.760742
1480628839484490,-0.159668,-0.620117,0.767578
1480628839498524,-0.157227,-0.616211,0.768555
1480628839519080,-0.157227,-0.611816,0.762695
1480628839537127,-0.15332,-0.60498,0.773438
1480628839556681,-0.154785,-0.60498,0.767578
1480628839580744,-0.15332,-0.595703,0.772461
1480628839597287,-0.150391,-0.597168,0.770508
1480628839618345,-0.150391,-0.599121,0.771484
1480628839639901,-0.150879,-0.606445,0.764648
1480628839664968,-0.155273,-0.612793,0.763672
1480628839678507,-0.154785,-0.616699,0.770996
