timestamp,emg1,emg2,emg3,emg4,emg5,emg6,emg7,emg8
1480628787058485,1,-3,-3,-2,-2,0,3,7
1480628787058485,-7,-3,0,0,1,0,-2,-4
1480628787059983,-9,-2,-2,-3,0,1,-1,-5
1480628787059983,-3,-4,-3,-3,-1,-1,0,2
1480628787072515,-9,-1,0,-1,-1,-2,-7,-12
1480628787072515,5,-4,0,-2,-1,1,10,16
1480628787079534,4,9,4,2,1,2,0,0
1480628787079534,10,2,0,-1,-2,-1,-1,0
1480628787095578,1,-1,-1,0,1,0,0,3
1480628787095578,6,-1,-3,-1,-1,-2,-2,6
1480628787097582,9,3,3,-1,0,0,2,0
1480628787097582,4,0,-3,-1,0,-1,0,10
1480628787118137,9,7,2,2,1,0,-5,-6
1480628787118137,-4,-1,-2,-2,0,3,7,1
1480628787120145,-13,-5,0,3,1,0,2,6
1480628787120145,4,-6,-4,-4,-2,-1,-5,-13
1480628787133177,-4,-2,-2,-2,2,1,2,7
1480628787133177,-19,-3,-2,-1,0,-2,-5,-7
1480628787141700,10,3,0,1,0,-1,0,2
1480628787141700,-18,-11,-5,-4,-1,0,1,-7
1480628787155737,19,3,-2,-4,-3,-2,0,3
1480628787155737,-8,-7,-4,-3,-1,-2,-4,-9
1480628787157747,-18,0,3,-2,-2,-2,-3,-17
1480628787157747,30,12,5,3,1,0,6,20
1480628787178297,-4,-5,-3,-1,0,0,5,6
1480628787178297,-9,-3,0,0,-2,-1,-4,-7
1480628787179801,-1,-1,-1,-1,-1,1,2,2
1480628787179801,4,-3,-2,-2,-1,-3,-1,5
1480628787192836,-5,1,0,0,1,1,4,-1
1480628787192836,-8,-3,-2,-1,-2,-2,0,-3
1480628787199353,-2,-1,-2,0,0,0,-5,1
1480628787199353,-12,-7,-1,-3,-3,-1,2,-14
1480628787223417,14,8,5,1,1,-1,-4,-6
1480628787223417,12,6,1,0,0,-1,0,8
1480628787224921,11,7,0,1,0,2,1,2
1480628787224921,-9,2,-1,1,0,-1,-1,-2
1480628787238458,-3,-3,-3,-2,0,1,2,-6
1480628787238458,6,2,1,0,-1,-1,-2,-2
1480628787239961,-8,-3,-2,1,-1,1,1,-2
1480628787239961,19,6,2,0,1,3,5,7
1480628787260015,-5,-5,-3,-2,-2,-3,-12,-2
1480628787260015,-29,-7,-2,-4,-2,-1,8,-10
1480628787268538,-8,-3,-1,-2,-1,-1,0,0
1480628787268538,-11,2,0,1,0,0,1,-4
1480628787276559,-7,-4,0,0,0,1,1,4
1480628787276559,-1,6,0,0,-1,-2,-10,-12
1480628787278066,12,0,4,1,1,-1,0,4
1480628787278066,-9,-1,-1,1,1,-1,0,-7
1480628787297614,-13,-4,-2,-1,-3,-3,-1,-2
1480628787297614,9,-2,-2,-1,-3,0,-1,1
1480628787306137,10,-4,-3,-1,-2,-3,0,2
1480628787306137,-2,0,0,1,0,1,-2,0
1480628787312153,-16,-4,-3,-3,-4,-2,1,-5
1480628787312153,11,2,1,-1,3,0,-3,-1
1480628787327194,5,0,-1,-1,0,-1,-2,0
1480628787327194,7,-8,-2,-2,-2,-2,-4,8
1480628787335716,-13,-2,-1,-4,-3,-3,-2,0
1480628787335716,-10,-2,-1,2,2,4,2,0
1480628787337220,-4,-3,-1,-2,-1,-2,0,-1
1480628787337220,-10,0,-3,-1,-1,-2,-2,-5
1480628787358275,18,-1,-1,1,-1,0,1,1
1480628787358275,8,0,0,-2,-2,-2,0,11
1480628787359780,1,4,2,0,0,1,-5,-9
1480628787359780,-10,-12,-4,0,-1,-2,-2,0
1480628787371812,1,1,-2,0,-1,-1,-2,-1
1480628787371812,18,4,0,-1,-3,-3,-4,-6
1480628787388360,-3,-2,-3,-1,-2,2,-1,-2
1480628787388360,-14,-5,-3,-4,-4,-2,5,-5
1480628787395877,16,3,2,2,2,4,8,13
1480628787395877,1,0,0,1,2,2,-1,-3
1480628787397380,-24,-3,0,0,-2,-1,-8,-2
1480628787397380,-10,-1,0,0,0,1,4,-7
1480628787418437,-11,-1,-2,0,0,-1,-7,-2
1480628787418437,2,-1,-1,-1,-1,0,1,-1
1480628787419941,3,-1,-1,1,-2,-3,0,3
1480628787419941,7,3,1,0,0,0,-2,-2
1480628787431973,-1,-5,-3,-2,-3,-2,3,7
1480628787431973,-21,-6,0,0,-1,0,-4,7
1480628787440997,6,-2,-4,-3,-5,-5,-5,-11
1480628787440997,3,2,3,2,1,0,-1,4
1480628787456036,-9,-5,0,0,1,-1,1,-1
1480628787456036,5,-3,-2,-1,-2,0,0,12
1480628787457541,3,9,6,2,0,3,4,-4
1480628787457541,22,3,1,-2,-1,-1,-4,4
1480628787478095,-6,1,-2,0,-1,-1,1,-14
1480628787478095,-17,-2,-2,2,2,2,5,-4
1480628787480101,24,6,3,1,1,0,2,13
1480628787480101,4,3,0,-1,1,0,1,-2
1480628787492133,14,3,0,0,-1,0,1,5
1480628787492133,7,-2,0,-1,0,1,2,3
1480628787501156,22,7,-2,-2,0,0,4,5
1480628787501156,-13,6,7,2,0,-1,-5,-1
1480628787516697,17,-6,-5,-3,1,-1,2,19
1480628787516697,2,3,3,1,2,1,-4,-13
1480628787521711,-5,-5,-3,-1,-1,-1,3,8
1480628787521711,-3,-1,-4,-2,-2,-1,-3,-5
1480628787538255,-6,-4,1,-3,-1,-2,-1,1
1480628787538255,-2,2,2,2,-1,-2,-6,-11
1480628787539759,3,-4,-1,-1,0,-1,0,0
1480628787539759,7,0,-1,-3,-2,-2,-1,-1
1480628787551794,-23,-7,-6,-2,0,-2,-3,-16
1480628787551794,2,0,-1,-2,-1,-2,-1,2
1480628787561319,-13,-7,-4,0,1,-1,11,1
1480628787561319,-12,-4,-2,-4,-3,-2,0,6
1480628787575855,12,2,0,0,1,-1,-2,4
1480628787575855,-28,-8,-4,-2,1,-1,-4,-6
1480628787577362,-31,-4,0,0,1,0,1,-8
1480628787577362,-4,2,0,-2,-2,-1,-2,-9
1480628787598415,-8,0,1,-1,-1,3,0,2
1480628787598415,21,-2,-8,-5,-4,-5,-1,11
1480628787599919,5,-2,0,0,-1,1,8,15
1480628787599919,-12,-2,2,2,4,2,-2,-13
1480628787611951,8,7,2,1,-1,2,-3,-1
1480628787611951,-1,0,-1,-2,0,1,3,3
1480628787621477,10,0,-2,-1,-2,-1,-3,0
1480628787621477,-10,-12,-7,-4,-4,-4,-1,-7
1480628787636016,-4,-2,0,2,1,0,-1,-13
1480628787636016,-26,-6,0,0,-2,-4,1,2
1480628787637519,-3,2,0,0,-1,0,-3,-4
1480628787637519,6,-2,-1,-1,-1,-1,-4,-2
1480628787657572,-39,-5,1,0,-1,0,1,-11
1480628787657572,36,6,0,-1,-3,-2,-2,2
1480628787666095,-13,-11,-2,-2,-1,0,-6,-7
1480628787666095,-16,-2,-3,-1,-2,-1,0,-6
1480628787672112,-1,-3,-3,-1,1,-2,-14,-7
1480628787672112,11,3,2,0,0,1,13,11
1480628787681135,5,2,0,0,0,1,-2,2
1480628787681135,3,1,-1,2,2,-1,-3,-3
1480628787695675,21,3,0,-1,-1,-1,7,5
1480628787695675,-12,-7,-3,-3,-1,-1,-5,-10
1480628787697178,-12,-1,2,0,2,0,-1,-12
1480628787697178,14,4,2,2,2,7,3,7
1480628787718233,-3,-2,-1,-4,-4,-4,0,1
1480628787718233,-14,-6,-2,1,0,-1,0,-6
1480628787725757,-1,-3,-2,-1,-1,-2,-3,5
1480628787725757,-25,-7,-2,2,1,1,6,-2
1480628787740794,5,-1,-2,1,1,0,2,1
1480628787740794,8,1,0,-1,0,0,4,8
1480628787742299,-12,0,1,-1,-1,-3,-1,-3
1480628787742299,7,0,-2,-1,0,-2,-2,17
1480628787756335,15,7,4,0,0,-1,2,1
1480628787756335,-31,-10,-5,-2,-2,-1,-9,-21
1480628787759343,-3,-4,-4,-3,0,-2,0,6
1480628787759343,18,7,2,2,1,0,-9,-2
1480628787778393,1,-6,-4,-5,-3,-2,6,2
1480628787778393,2,12,6,2,0,1,0,0
1480628787779898,-5,1,1,0,0,0,4,-2
1480628787779898,-13,-5,-5,-2,-2,0,-5,-8
1480628787800953,18,2,0,0,-1,0,6,7
1480628787800953,7,-1,1,0,0,1,-2,1
1480628787802459,7,0,-4,-2,-2,-2,-4,0
1480628787802459,3,0,1,-2,0,-1,5,2
1480628787815994,4,4,1,0,-2,-1,-7,-5
1480628787815994,4,-1,-1,-1,-2,0,0,2
1480628787817498,8,6,1,0,-1,0,2,-5
1480628787817498,-8,-5,0,0,-2,0,4,10
1480628787838053,-9,1,-2,0,-1,-1,-7,-13
1480628787838053,17,3,1,0,2,-1,-2,1
1480628787840058,-9,-3,-1,1,-1,1,1,3
1480628787840058,5,1,-1,0,-1,-2,-7,-7
1480628787860613,-23,-7,-2,-3,2,-2,2,3
1480628787860613,4,-1,-1,0,1,-1,6,5
1480628787862618,3,4,-2,0,0,0,-2,-9
1480628787862618,17,-6,0,-4,-1,-1,-3,1
1480628787875652,-8,-2,-3,-1,-1,1,0,1
1480628787875652,-7,-2,-1,-1,1,-2,-4,-9
1480628787882169,-26,-5,-2,-1,0,1,-3,-2
1480628787882169,6,3,1,0,-1,1,1,-7
1480628787898713,2,-3,0,1,-1,-2,-3,8
1480628787898713,5,3,1,0,-1,1,-2,-5
1480628787900719,9,-3,-3,-5,-4,-4,-9,-5
1480628787900719,-5,1,2,1,0,0,11,1
1480628787920773,3,-4,-1,-4,-4,-2,-3,-6
1480628787920773,-16,-8,-7,0,-1,0,-6,7
1480628787922277,23,6,4,2,1,2,7,9
1480628787922277,-3,1,1,-1,1,0,6,1
1480628787936313,3,3,2,1,-2,1,-1,-2
1480628787936313,2,-4,-1,-2,1,-1,3,2
1480628787943333,11,-1,-2,0,0,-2,-9,-7
1480628787943333,-6,0,-1,-1,-1,0,2,5
1480628787958372,14,5,1,1,0,3,7,9
1480628787958372,-45,-15,-5,-4,-4,-5,-10,-9
1480628787959877,-4,2,1,0,1,0,4,1
1480628787959877,4,3,1,0,-2,-2,-4,1
1480628787981434,0,-4,-3,0,0,-3,-5,2
1480628787981434,18,9,5,3,2,2,2,-12
1480628787982938,0,-2,-2,-3,-3,-2,-3,-2
1480628787982938,-17,-6,-1,-1,0,3,1,1
1480628787994971,9,0,0,-1,1,1,-2,-1
1480628787994971,5,-1,-1,-2,-1,-1,-7,11
1480628788001989,3,6,3,4,3,4,7,-6
1480628788001989,7,-1,-1,1,0,-2,-4,-3
1480628788018533,-9,5,3,0,0,1,3,3
1480628788018533,8,3,1,1,1,1,1,1
1480628788020037,-7,-5,-3,-2,-2,-4,-4,1
1480628788020037,-7,-2,-4,0,0,-2,-6,-9
1480628788040090,3,5,-1,0,-2,-2,0,3
1480628788040090,4,-2,-2,-3,-2,-2,-2,-1
1480628788048613,2,-1,-1,-2,-1,0,-2,0
1480628788048613,-29,-8,-5,-3,-4,-6,-5,-8
1480628788055130,7,-3,-1,-1,0,0,-1,-7
1480628788055130,0,1,0,-1,0,0,-3,-1
1480628788062149,-12,-8,-9,-6,-6,-4,-3,-1
1480628788062149,12,5,3,3,0,2,1,6
1480628788085711,-1,-2,-4,-1,-1,-2,-1,2
1480628788085711,4,-1,-3,1,-2,-2,-6,-1
1480628788087216,-5,-1,2,1,0,4,4,9
1480628788087216,14,5,1,1,1,1,4,-1
1480628788100751,-8,-2,0,1,1,0,2,1
1480628788100751,-3,0,0,-1,-1,1,3,-4
1480628788102257,17,3,-1,-3,-2,-2,-3,6
1480628788102257,19,0,-3,-1,0,0,3,5
1480628788115290,4,3,1,0,1,-1,-2,-2
1480628788115290,5,1,0,-1,0,-1,2,8
1480628788121808,-15,-4,-2,-1,-1,0,5,-7
1480628788121808,-9,0,-1,-3,-2,-4,-5,-10
1480628788138353,-6,-3,0,1,1,0,-1,-3
1480628788138353,5,-5,-3,0,-1,0,3,3
1480628788139855,2,-1,-1,-2,0,-3,-5,3
1480628788139855,11,1,0,0,-1,-1,-5,-9
1480628788160913,4,0,-1,1,2,1,-1,3
1480628788160913,-8,1,-1,-1,-2,1,-2,-5
1480628788162416,13,3,2,1,2,2,10,1
1480628788162416,1,1,-2,1,0,-1,-2,2
1480628788174447,3,-3,-4,-2,-1,-3,0,4
1480628788174447,2,-1,3,1,-1,-2,2,0
1480628788183972,-24,-9,-3,-2,-1,-2,-5,-21
1480628788183972,1,-5,-1,-2,-1,-2,0,6
1480628788199012,-15,0,0,0,-2,0,-6,-7
1480628788199012,-2,-5,-6,-3,-3,-2,4,-9
1480628788204527,22,2,-2,1,0,-2,-3,4
1480628788204527,-2,2,3,0,0,1,-1,-8
1480628788221072,-4,-4,0,0,0,1,-6,-3
1480628788221072,-1,2,0,-1,1,1,10,2
1480628788222575,1,1,5,1,1,0,-7,-7
1480628788222575,14,2,0,0,0,2,3,7
1480628788234608,-21,-7,-1,-2,-2,-2,1,-1
1480628788234608,10,2,0,-1,-2,-2,-4,-4
1480628788249648,-8,-5,-3,-1,-2,-3,-1,10
1480628788249648,6,10,4,1,3,0,2,3
1480628788259173,7,-2,-5,-1,0,-2,0,1
1480628788259173,-4,-2,-3,-1,-1,0,0,0
1480628788260679,-4,2,0,1,0,3,0,0
1480628788260679,-9,-5,0,-3,-3,-3,-3,2
1480628788280730,5,1,-4,-1,-3,-3,0,2
1480628788280730,0,0,-3,-2,2,4,-2,1
1480628788282234,0,2,4,-4,1,2,3,2
1480628788282234,-7,-4,-4,-1,-1,1,0,-1
1480628788294268,2,-1,4,3,0,1,1,-2
1480628788294268,1,2,-3,-1,-3,-4,-8,-2
1480628788309308,2,14,18,-7,-1,-1,1,1
1480628788309308,-10,-24,-43,-5,-2,-2,-1,1
1480628788318330,2,1,1,-9,3,4,3,2
1480628788318330,-4,-1,-3,18,0,-2,-2,-1
1480628788319835,0,2,5,12,1,-3,-2,-2
1480628788319835,1,9,13,6,-1,0,-1,0
1480628788340890,3,-3,0,-4,-1,-1,2,0
1480628788340890,-1,0,-2,-7,7,4,6,2
1480628788342395,1,3,-2,2,1,2,1,-1
1480628788342395,-4,-1,12,-4,-4,-3,-1,-2
1480628788354427,0,-4,-20,-9,-2,0,-1,-2
1480628788354427,2,4,8,-9,-5,0,0,1
1480628788363450,-5,-7,-2,12,-3,-8,-4,-5
1480628788363450,0,3,1,-19,2,2,2,3
1480628788377990,2,6,24,39,3,0,-2,-1
1480628788377990,-6,-9,-14,-5,-3,-2,-1,0
1480628788384508,-5,-5,-4,-1,1,2,0,-1
1480628788384508,2,11,31,2,0,0,-1,-2
1480628788401051,-5,-16,-79,-25,-5,-3,-2,-2
1480628788401051,2,10,14,7,0,-1,-2,-1
1480628788407568,7,19,2,-12,-7,1,1,3
1480628788407568,-5,-8,1,8,6,1,0,-3
1480628788414587,-1,5,9,1,1,2,1,4
1480628788414587,4,5,8,-21,-3,-2,-1,0
1480628788423611,-1,-2,-11,18,-3,-5,-4,-5
1480628788423611,1,1,11,21,1,2,2,2
1480628788437647,5,12,19,12,1,2,1,2
1480628788437647,-6,-19,-18,-28,-2,0,-1,-3
1480628788444667,-3,-9,-16,7,-1,-1,-2,-1
1480628788444667,-4,-5,-10,-7,1,-4,-2,2
1480628788467227,4,-1,7,-2,-3,-6,-4,0
1480628788467227,1,4,-4,-17,-7,2,2,1
1480628788476754,0,-3,10,9,-5,-4,-2,2
1480628788476754,-7,-6,-9,1,1,2,-1,-7
1480628788477253,2,6,24,26,6,7,2,5
1480628788477253,5,9,14,24,6,4,3,5
1480628788498309,-3,-12,-35,-84,-11,-2,-2,-2
1480628788498309,-2,-5,-8,38,0,-5,-2,0
1480628788498810,-4,5,10,-6,-4,-3,-3,-6
1480628788498810,-2,-1,-7,10,-1,-3,-2,1
1480628788504325,0,-3,5,1,-3,3,2,-1
1480628788504325,3,3,-2,-23,0,2,1,1
1480628788521370,-2,-7,-7,-23,-4,-4,-2,-1
1480628788521370,-4,-5,18,49,6,-3,-3,-5
1480628788522874,-1,-7,-32,-65,-7,-3,-1,1
1480628788522874,4,1,-22,-33,-8,-1,-1,1
1480628788534405,-3,-2,38,95,12,-1,0,4
1480628788534405,1,-4,-9,-24,-6,-2,0,5
1480628788549445,-14,-3,19,14,-3,0,-9,-42
1480628788549445,5,-2,-20,-27,-6,2,1,4
1480628788557466,7,13,3,-36,3,6,2,-2
1480628788557466,-5,-7,-13,0,-2,-6,-2,6
1480628788564485,4,0,5,16,6,0,3,13
1480628788564485,-9,-1,5,17,-1,-3,-8,-20
1480628788581029,-1,-2,-19,-44,-6,-3,-4,-3
1480628788581029,4,9,8,-9,1,3,2,1
1480628788587045,0,0,-1,40,2,-1,0,10
1480628788587045,2,4,6,-16,5,3,4,9
1480628788594565,-2,-9,-5,-6,-8,-3,-1,7
1480628788594565,-7,-5,-3,-1,-2,-2,-5,-10
1480628788603589,2,1,-13,-67,-1,6,5,4
1480628788603589,-3,1,32,99,12,-12,-8,-7
1480628788617627,-3,-7,6,31,-3,-1,1,-2
1480628788617627,8,10,-6,-48,-4,13,10,11
1480628788624645,-2,-11,-11,10,-1,-2,-4,10
1480628788624645,-2,-1,-11,-12,-2,-1,0,-5
1480628788640694,1,4,0,-26,2,-4,0,-20
1480628788640694,2,-5,-2,22,-1,-3,4,13
1480628788642192,-11,-10,-23,-24,-3,-1,-4,17
1480628788642192,-3,6,3,-3,1,4,-11,-25
1480628788663751,-4,-6,-3,-11,-6,-7,-4,5
1480628788663751,3,7,7,24,6,4,-1,1
1480628788665254,3,1,15,18,1,-3,8,15
1480628788665254,2,-4,-3,-11,2,6,8,18
1480628788677787,-2,-5,-6,5,0,-1,-1,25
1480628788677787,-6,2,15,32,7,-1,1,-16
1480628788691824,-5,2,11,12,-3,-1,-13,-52
1480628788691824,-2,-3,5,5,-6,-5,-4,-4
1480628788700847,3,3,-7,-20,0,3,6,-4
1480628788700847,-1,-4,-8,-36,-3,-6,-6,14
1480628788702351,0,4,14,46,12,-1,-2,-1
1480628788702351,1,-5,-20,-54,-24,-3,5,3
1480628788725414,2,2,-1,1,3,1,-3,5
1480628788725414,-6,-11,-13,-36,-25,2,-3,-6
1480628788726920,-1,1,6,-2,2,2,0,-13
1480628788726920,7,11,14,4,7,1,3,19
1480628788737947,-5,-12,-13,6,0,-2,-2,-1
1480628788737947,-4,-1,4,18,-3,-7,-8,-22
1480628788745968,8,4,-3,0,8,3,6,16
1480628788745968,0,-3,-1,-19,9,5,3,6
1480628788776048,-3,0,0,9,0,-3,-4,-13
1480628788776048,-1,2,0,-3,-1,-1,-1,-5
1480628788777552,4,2,5,0,-1,-4,-2,9
1480628788777552,-1,-3,4,12,2,1,3,0
1480628788783066,-4,1,-7,-13,0,2,-2,-14
1480628788783066,3,-2,-14,-18,-14,-3,0,7
1480628788785071,0,0,10,14,10,0,-3,3
1480628788785071,-2,-2,1,29,9,0,2,-6
1480628788797104,4,1,-2,-23,-8,0,1,4
1480628788797104,-1,0,-6,-9,-10,-7,-4,-3
1480628788806128,0,1,1,-7,-4,0,1,-1
1480628788806128,0,2,-5,0,-6,2,1,1
1480628788821669,1,0,-1,4,14,10,4,1
1480628788821669,-1,3,14,31,22,0,0,-3
1480628788823173,-1,-1,-4,-2,-9,0,-1,-4
1480628788823173,3,2,-5,0,5,-3,-3,2
1480628788843227,1,0,4,-11,-10,-4,1,1
1480628788843227,-2,2,5,9,8,1,-4,-6
1480628788844731,-1,-9,-8,-16,-16,-2,5,6
1480628788844731,0,0,-7,-8,-4,-2,-2,3
1480628788856762,-1,2,7,-6,-6,0,0,-2
1480628788856762,0,-3,-3,4,11,1,2,-1
1480628788866790,1,5,9,12,4,1,4,3
1480628788866790,-2,-1,0,-4,-1,-2,-2,0
1480628788888346,-1,-3,-7,3,3,-4,-1,-3
1480628788888346,-1,-2,3,2,-5,1,0,0
1480628788889851,0,0,3,0,0,-2,-1,0
1480628788889851,-2,-2,3,-9,-7,0,-2,-2
1480628788903386,1,4,7,9,3,-1,0,1
1480628788903386,-2,-3,-4,-3,2,0,1,2
1480628788905392,-1,-3,-4,-11,-8,-2,-2,-1
1480628788905392,-1,-2,-3,-6,-1,-1,1,-1
1480628788918427,-1,0,5,6,1,-2,-2,-2
1480628788918427,-1,0,-5,-3,-3,-3,-1,-2
1480628788925947,1,1,4,11,8,1,0,-4
1480628788925947,-2,0,-1,-3,-4,-5,-3,-1
1480628788940986,-2,-2,-1,-2,-2,1,0,0
1480628788940986,-1,-2,1,-2,-1,6,2,0
1480628788942491,1,3,-3,-11,2,5,1,-1
1480628788942491,0,-2,2,6,-3,-2,2,-1
1480628788970566,0,-1,-3,7,-2,-3,-2,-2
1480628788970566,-2,-3,-1,-3,4,-1,-2,-1
1480628788972571,0,-1,0,11,9,1,0,0
1480628788972571,-1,0,-2,-6,-6,1,1,-1
1480628788977086,-1,-2,-6,0,2,0,3,2
1480628788977086,0,-2,3,14,13,-1,-1,-1
1480628788986106,-1,1,-1,-10,-16,-4,-2,-3
1480628788986106,-1,-1,-1,-7,-3,0,-3,-2
1480628789000645,0,2,3,0,-3,1,-3,-1
1480628789000645,4,4,-8,-3,3,-2,6,4
1480628789003152,-8,-7,3,10,2,-2,-3,-5
1480628789003152,-1,0,7,3,1,0,-1,-1
1480628789030727,0,3,-6,-3,1,0,0,0
1480628789030727,-3,-5,-8,-7,-7,-1,-2,-3
1480628789032229,3,4,5,15,11,1,3,4
1480628789032229,-9,-13,-3,14,6,-4,-6,-7
1480628789037243,0,1,2,4,4,-2,-1,-1
1480628789037243,-4,-4,-1,-27,-7,-1,-2,-2
1480628789045765,1,2,-5,-5,-6,0,0,1
1480628789045765,-2,-3,2,-7,6,2,-1,-1
1480628789060809,0,2,-1,6,6,-3,-2,-1
1480628789060809,-5,-7,-5,3,-14,0,-2,-4
1480628789062310,4,5,6,0,0,-2,-2,0
1480628789062310,5,8,5,4,1,0,-1,3
1480628789083365,-4,-6,-8,-6,-7,-2,0,-9
1480628789083365,6,5,1,2,-2,-3,-3,5
1480628789084869,2,2,0,0,0,0,10,1
1480628789084869,0,1,3,0,-4,2,-1,1
1480628789097403,-1,-7,-15,-11,-7,-2,-2,0
1480628789097403,3,-2,-5,-3,-1,-5,-6,-3
1480628789111943,-3,-3,-4,3,6,3,-1,1
1480628789111943,0,0,-6,-6,-3,-2,-3,-2
1480628789120965,2,0,6,-2,-4,1,3,0
1480628789120965,-2,-1,4,3,-1,1,2,-2
1480628789122469,-2,-1,-2,-4,-3,-4,-6,-2
1480628789122469,1,-1,-4,-6,-3,-1,2,1
1480628789143531,-2,-4,0,1,6,5,1,0
1480628789143531,0,1,9,17,5,-1,-1,1
1480628789145030,-4,-3,-6,-13,-6,-1,-1,-2
1480628789145030,3,2,0,-6,-7,-1,2,1
1480628789165585,0,0,2,-2,-2,-3,-2,-3
1480628789165585,0,4,16,7,7,0,0,0
1480628789167590,4,14,5,4,-1,1,0,2
1480628789167590,-2,-6,-3,-2,-7,-5,-3,-4
1480628789180124,0,-1,-5,-7,-2,-1,-3,1
1480628789180124,0,1,4,1,7,8,7,2
1480628789188646,-3,-1,3,8,4,-3,-4,-5
1480628789188646,1,3,-4,4,0,1,-1,-1
1480628789203184,-3,-5,1,-15,-22,-4,-8,-4
1480628789203184,0,0,-8,-13,-6,1,12,2
1480628789210207,-1,-5,-3,1,1,-4,-5,1
1480628789210207,0,0,-2,14,4,-1,1,1
1480628789216720,1,2,4,7,9,2,7,5
1480628789216720,-2,-2,-3,-4,-3,-2,-4,-1
1480628789225746,2,-1,10,-8,0,-1,-1,0
1480628789225746,1,0,-7,-9,0,-2,-3,-1
1480628789248304,-2,3,5,9,1,-1,-3,-2
1480628789248304,-4,-5,-8,-5,-5,-5,-2,-3
1480628789249808,1,-2,-1,9,6,2,2,3
1480628789249808,-3,1,0,-5,0,1,-1,-1
1480628789263344,1,0,1,-3,2,2,4,0
1480628789263344,-1,1,-1,2,-1,1,-2,-1
1480628789264848,-1,-5,-8,-5,-7,0,-2,0
1480628789264848,2,10,1,-6,-8,-1,3,3
1480628789276885,-4,-16,-23,3,16,3,0,-3
1480628789276885,0,3,5,-9,-20,-1,-1,0
1480628789285904,-4,-2,-7,7,23,1,-4,-5
1480628789285904,2,-1,1,3,-5,4,5,5
1480628789300944,3,7,4,1,-19,-2,-1,0
1480628789300944,-1,-1,-3,5,23,-1,-4,-2
1480628789302448,2,-1,-4,-15,-10,2,3,0
1480628789302448,0,1,2,1,7,-4,-1,-3
1480628789324006,0,2,9,1,0,0,-2,0
1480628789324006,-4,-12,-22,0,5,0,-1,-3
1480628789325510,-1,4,6,5,-11,-4,-7,-4
1480628789325510,-2,-2,4,5,8,-1,8,0
1480628789337041,-2,1,-2,-4,1,-4,-3,-1
1480628789337041,1,0,2,-11,-10,-1,-3,-1
1480628789346566,0,1,0,5,6,-2,-1,0
1480628789346566,-4,-10,-10,4,1,-2,-6,-6
1480628789360107,1,8,14,-15,-17,1,0,1
1480628789360107,0,0,-2,4,13,1,1,-2
1480628789367121,2,-1,-7,-2,-3,3,2,1
1480628789367121,-3,-2,19,-9,-5,-4,-4,-4
1480628789382160,1,2,11,6,11,2,4,2
1480628789382160,0,4,2,-1,-7,-1,-3,-1
1480628789391184,-3,-6,0,10,8,-1,0,-3
1480628789391184,0,4,1,-3,-9,2,-1,0
1480628789396699,-1,-4,-10,-16,-7,-4,-2,0
1480628789396699,2,6,8,6,-8,-1,0,-2
1480628789405723,-1,-3,-1,4,10,3,1,1
1480628789405723,4,1,-3,1,8,2,2,3
1480628789420261,-3,-10,-21,0,12,2,-3,-4
1480628789420261,-3,-8,-11,11,-11,-6,-2,-2
1480628789427282,0,2,-1,-29,-11,1,1,2
1480628789427282,-3,-8,-12,-5,0,-1,0,1
1480628789444326,-2,-2,-3,7,8,-1,-4,0
1480628789444326,2,6,24,13,7,2,2,2
1480628789445829,0,0,-9,-2,-11,-2,2,0
1480628789445829,-6,-8,-7,-5,-4,-5,-8,-6
1480628789456859,0,1,1,15,-5,-3,-3,-1
1480628789456859,1,0,-5,-9,2,1,2,1
1480628789481426,-2,1,3,-2,-4,0,3,-2
1480628789481426,2,-4,12,1,0,1,0,2
1480628789482426,-4,-6,-17,-6,-1,-4,-4,-2
1480628789482426,-7,-11,-13,8,-5,-1,-4,-4
1480628789494460,1,-4,-11,1,6,-2,-1,1
1480628789494460,4,14,15,26,14,5,2,0
1480628789502983,-4,-9,-15,-40,-17,-2,3,0
1480628789502983,0,0,2,-8,-9,-5,-2,0
1480628789509499,0,2,14,30,5,-5,-2,-4
1480628789509499,0,-1,-13,-25,-7,4,4,8
1480628789525542,6,8,25,16,16,6,6,6
1480628789525542,3,8,8,-9,-3,3,-2,-2
1480628789527547,-3,-9,-24,-8,-4,-1,0,-3
1480628789527547,0,3,4,15,-4,-7,-4,-4
1480628789541585,-1,-3,-4,16,-8,-8,-3,-6
1480628789541585,-1,1,-10,-18,22,4,0,1
1480628789543090,2,4,32,-7,-14,1,1,1
1480628789543090,0,-5,-11,-2,21,5,-1,-3
1480628789563145,-4,1,4,12,-14,-3,-4,-3
1480628789563145,3,2,-1,-4,-6,-5,-1,2
1480628789565147,-4,-16,-38,-4,3,3,0,2
1480628789565147,-1,2,-9,-15,-6,1,1,1
1480628789585701,4,8,11,-2,6,1,2,1
1480628789585701,-4,-4,2,33,-26,-13,-7,-4
1480628789587206,-2,-2,4,2,16,-6,-4,-2
1480628789587206,-3,-5,-18,-46,-5,9,5,-1
1480628789600741,1,3,-1,-21,-8,8,0,1
1480628789600741,-8,-24,-35,1,-16,-4,-3,-5
1480628789609265,3,5,0,9,25,7,0,1
1480628789609265,-6,-10,-10,4,-6,-9,-6,-5
1480628789623302,8,23,51,74,32,9,4,5
1480628789623302,-5,-12,-38,-49,-16,-4,-3,-3
1480628789624806,-3,1,15,-8,-23,-8,-5,-6
1480628789624806,-2,-8,-33,-31,-10,-9,-3,-3
1480628789645861,0,6,19,20,2,0,0,1
1480628789645861,5,10,17,-14,4,1,1,-2
1480628789647367,1,6,10,9,-3,2,2,3
1480628789647367,-2,-9,-24,7,2,1,-18,-2
1480628789660902,0,4,6,-2,-5,-2,20,3
1480628789660902,2,1,11,23,20,4,0,-1
1480628789662406,-4,-5,-15,-19,4,1,-6,-3
1480628789662406,3,18,38,4,-23,-4,3,4
1480628789683462,2,-2,-9,13,3,-7,-4,7
1480628789683462,-3,3,7,-16,9,5,2,0
1480628789684966,0,-4,-17,-14,2,2,-3,-8
1480628789684966,1,4,11,31,22,9,2,-9
1480628789722066,2,7,-3,-21,-6,3,0,3
1480628789722066,-2,2,22,28,5,0,4,8
1480628789723569,6,8,15,-20,-14,-3,4,2
1480628789723569,-6,-8,-17,3,-3,-8,-4,-2
1480628789724571,-1,-13,32,28,11,2,-6,-13
1480628789724571,0,-8,-46,-40,0,0,-6,4
1480628789729084,-3,-1,10,-1,-16,-3,9,0
1480628789729084,-3,5,11,12,5,-4,-14,-16
1480628789743628,-2,2,-5,-9,8,1,3,9
1480628789743628,14,11,19,14,-11,0,5,17
1480628789745127,-7,1,11,20,0,2,0,-5
1480628789745127,4,6,51,21,6,0,9,2
1480628789766684,-4,-7,-27,-6,4,3,-8,-13
1480628789766684,-10,-11,-6,-5,-12,-8,-4,-13
1480628789768190,10,2,2,-15,19,9,5,4
1480628789768190,-21,-16,-4,31,-8,-7,-1,3
1480628789788241,6,17,19,-14,1,3,-3,-1
1480628789788241,-13,-18,-8,9,8,1,2,-3
1480628789789745,-9,-3,-11,-8,-30,-8,-5,-8
1480628789789745,20,0,9,19,7,3,6,6
1480628789804283,5,-7,-3,-13,-5,-4,-7,4
1480628789804283,-2,-4,6,0,3,0,0,-10
1480628789805787,-10,0,-6,-3,-2,-6,1,17
1480628789805787,-11,-2,7,5,6,5,5,-6
1480628789825841,13,-5,-13,-12,-10,-6,2,15
1480628789825841,7,17,1,0,4,3,-10,-9
1480628789827347,16,4,-20,6,2,-2,-22,2
1480628789827347,-11,-3,2,-16,-4,2,22,7
1480628789839377,-8,-10,-13,-5,-2,-1,-4,1
1480628789839377,-8,9,51,12,0,-2,-1,-16
1480628789848402,-7,-18,-63,-48,-14,-8,-18,-10
1480628789848402,11,15,56,0,-1,1,5,4
1480628789863942,-1,1,1,38,4,3,4,-1
1480628789863942,4,3,5,3,3,4,3,1
1480628789865450,-1,-3,26,30,1,-4,-1,-1
1480628789865450,-3,-6,-40,-30,-3,0,1,3
1480628789886000,-11,-13,-22,31,15,-1,-2,-6
1480628789886000,12,12,26,30,-2,4,0,8
1480628789887504,0,10,13,-27,-3,3,12,4
1480628789887504,4,-9,-56,-6,0,-5,-5,-2
1480628789901042,-7,-5,-15,-36,-8,-4,-6,-5
1480628789901042,-3,-9,-15,5,10,3,4,-2
1480628789916080,-1,4,-10,38,10,4,5,0
1480628789916080,28,17,55,5,0,0,-5,17
1480628789923601,-18,-14,-44,-34,-12,-8,-6,-17
1480628789923601,0,7,31,-23,-3,-2,2,3
1480628789925105,-1,-9,21,34,8,5,6,-8
1480628789925105,6,6,15,16,0,-2,-8,5
1480628789946161,15,4,6,-20,-7,0,24,27
1480628789946161,5,5,0,4,0,2,-4,-11
1480628789947665,-6,-3,-15,-3,1,1,1,4
1480628789947665,-8,-20,1,-2,-3,-5,-7,-8
1480628789959699,9,4,23,10,1,1,-9,-6
1480628789959699,-9,-14,-39,-22,-2,-1,-3,3
1480628789968721,3,-2,-24,-21,-3,-4,4,2
1480628789968721,3,3,24,20,5,3,0,-4
1480628789983259,-5,2,26,8,-10,0,-1,-3
1480628789983259,0,-1,14,40,5,-1,0,4
1480628789984764,0,-8,-12,-1,4,3,-4,-7
1480628789984764,-10,-11,-5,-2,-19,-8,-4,-2
1480628790005821,-24,-13,10,27,1,-2,-6,-24
1480628790005821,25,17,-23,-17,1,1,1,17
1480628790007324,-26,12,64,43,11,3,0,-10
1480628790007324,13,6,-12,-8,1,1,-7,6
1480628790019355,-2,-1,-68,-18,-4,-2,-1,1
1480628790019355,4,8,1,-6,5,3,6,-7
1480628790035900,10,6,28,-8,-2,1,5,4
1480628790035900,11,5,-28,-2,-8,-5,-6,0
1480628790043421,-9,-5,-2,-12,-4,-1,-6,-11
1480628790043421,1,-13,5,14,0,-3,-2,4
1480628790044924,6,1,0,-1,-2,-4,-1,2
1480628790044924,-19,-25,-28,-38,-5,-3,-1,-13
1480628790065980,19,9,24,28,7,4,2,6
1480628790065980,-9,-9,-12,-8,-6,-2,2,4
1480628790067486,-3,-2,9,-5,-1,2,-1,-2
1480628790067486,-4,5,-32,2,4,1,5,6
1480628790079515,0,-2,14,40,5,0,-6,-13
1480628790079515,-5,0,0,-36,-6,0,3,2
1480628790089041,7,-2,-25,-28,-13,-6,-3,8
1480628790089041,-9,-7,-8,0,5,3,5,-1
1480628790110599,-13,-3,-14,-26,-10,-7,-5,2
1480628790110599,-4,-5,-4,3,0,1,-3,-5
1480628790112606,10,-5,3,24,2,-4,-4,-1
1480628790112606,-9,10,37,11,4,5,3,-2
1480628790125638,-2,-9,1,-8,-2,-3,-1,1
1480628790125638,5,1,6,-5,-2,-1,-1,11
1480628790127644,-11,-3,-4,55,1,0,-5,-15
1480628790127644,13,24,61,9,14,9,6,3
1480628790139676,5,-16,-53,-86,-22,-9,-6,-5
1480628790139676,-16,-11,-64,-30,-11,-9,-4,-5
1480628790148699,5,-13,18,30,10,6,2,1
1480628790148699,-12,-7,-21,-19,-4,-3,-2,-9
1480628790163241,-2,3,-11,24,6,3,1,0
1480628790163241,9,24,59,33,9,5,5,13
1480628790164746,7,8,-39,-31,-2,1,-6,-13
1480628790164746,-2,-5,-2,13,-11,-4,3,1
1480628790193322,14,35,78,43,17,9,19,29
1480628790193322,-21,-69,-91,-2,-16,-18,-21,-17
1480628790194822,8,18,37,-38,-5,-1,1,6
1480628790194822,-7,-1,-71,-27,-5,-2,-6,-31
1480628790199336,0,1,10,7,4,1,-7,9
1480628790199336,5,30,23,16,2,4,24,6
1480628790208360,-31,-67,-69,52,-4,-10,-10,-14
1480628790208360,-2,-11,-43,-88,-16,-12,-23,-1
1480628790223399,-13,-14,-28,-17,-3,-2,9,-7
1480628790223399,-1,15,51,30,9,9,6,-4
1480628790224904,31,23,54,-22,-7,-12,-14,20
1480628790224904,-18,18,23,44,8,3,-1,-3
1480628790246464,-19,-11,-13,-8,-2,0,-7,-3
1480628790246464,12,13,3,-27,-1,1,-1,0
1480628790247964,18,15,31,23,8,6,15,15
1480628790247964,15,-17,-36,-21,-7,-5,-4,-15
1480628790259498,5,2,14,-1,-2,-1,1,9
1480628790259498,7,17,40,25,8,7,-1,-4
1480628790276040,7,5,-19,-31,-3,3,8,22
1480628790276040,-4,11,42,46,12,5,6,-7
1480628790283559,23,40,84,43,5,1,0,-9
1480628790283559,-1,0,44,24,1,-3,-17,-5
1480628790286065,-14,-15,-70,-46,-14,-4,8,1
1480628790286065,-16,-16,-12,-34,-10,-6,-3,-8
1480628790305617,-3,20,42,5,3,1,-4,-16
1480628790305617,-24,-10,-17,18,2,0,4,4
1480628790307622,1,21,52,28,9,1,-8,-4
1480628790307622,7,-5,19,6,4,3,6,10
1480628790319654,10,-9,-20,-28,-5,-2,-4,7
1480628790319654,4,10,-23,-7,-5,-5,-6,-5
1480628790328678,-14,-11,-3,5,5,7,8,-18
1480628790328678,9,29,-8,-60,-2,-2,-2,16
1480628790343219,-1,-14,-6,37,1,-1,-4,-2
1480628790343219,-1,-22,-3,-17,0,-1,3,11
1480628790344721,10,49,48,17,2,4,7,3
1480628790344721,-2,-18,44,31,-6,-4,3,13
1480628790365777,-24,-11,-66,-40,-2,-4,-10,-14
1480628790365777,8,-2,2,-20,-10,-2,-1,-1
1480628790367282,-7,0,9,1,3,1,-2,-8
1480628790367282,6,-10,-67,2,0,-1,0,3
1480628790379315,1,16,16,11,7,6,5,-4
1480628790379315,-5,-11,-11,-6,-8,-7,7,-1
1480628790388337,7,-19,-47,-21,-3,-5,-16,-14
1480628790388337,-9,-11,-17,2,-4,-4,0,19
1480628790403878,27,18,0,-3,0,2,11,14
1480628790403878,-10,0,61,21,5,5,-2,-3
1480628790409394,9,-15,7,-12,0,2,2,-9
1480628790409394,-7,-3,38,38,10,2,-4,-8
1480628790425938,-1,-22,-12,-17,-15,-11,-11,-14
1480628790425938,-6,-1,-3,-18,1,0,0,9
1480628790427442,6,32,49,27,7,5,5,13
1480628790427442,0,-30,-7,15,-2,3,-6,-29
1480628790448497,4,21,-6,-25,2,3,13,37
1480628790448497,2,2,-10,14,2,-1,0,2
1480628790450002,-20,-5,-19,-9,-3,-4,-10,-15
1480628790450002,-5,-6,-43,-67,0,6,7,-4
1480628790471057,-5,-6,4,34,-5,-6,-15,-23
1480628790471057,6,7,-16,22,4,3,2,4
1480628790472562,-3,-7,-11,-1,2,-2,2,16
1480628790472562,13,10,16,22,5,2,5,9
1480628790486599,1,-6,45,5,-4,-1,-1,-2
1480628790486599,-12,-3,-31,-19,-4,-1,-1,-1
1480628790488102,-6,-13,-17,-3,-6,0,4,0
1480628790488102,9,14,40,0,2,1,-4,-12
1480628790499633,-8,-12,-35,-12,-5,-8,-2,10
1480628790499633,25,29,49,9,2,1,-11,-11
1480628790508662,-15,-19,-59,-89,-14,-10,-3,-13
1480628790508662,0,17,28,90,4,4,3,-9
1480628790522193,-14,3,17,8,-1,-8,-17,-8
1480628790522193,8,-14,-6,-5,3,4,22,30
1480628790530716,4,4,11,3,2,-3,-13,-1
1480628790530716,3,24,8,-39,-4,1,3,-6
1480628790546257,5,-5,-24,10,0,0,6,21
1480628790546257,-10,-25,-50,-9,-4,-3,-9,-28
1480628790551773,14,43,55,13,6,3,12,33
1480628790551773,-6,-12,-32,7,-6,-10,-10,-11
1480628790567313,9,13,23,6,4,6,6,0
1480628790567313,-12,-22,-18,-25,-3,-5,-10,-9
1480628790575836,-2,-10,-33,19,5,5,7,4
1480628790575836,-1,3,20,20,-6,-2,-6,-5
1480628790583356,-3,-16,-51,-34,-3,2,3,-22
1480628790583356,-1,3,-1,-17,0,-1,-1,6
1480628790584860,-9,-17,-8,7,-6,-4,-3,-5
1480628790584860,6,1,6,20,19,-1,6,30
1480628790606919,-2,-15,-5,-5,2,5,13,18
1480628790606919,-1,6,-56,-12,-13,-10,-16,-49
1480628790608924,13,28,31,7,-22,-2,2,6
1480628790608924,4,12,2,-6,23,8,0,10
1480628790628476,4,8,16,-13,-9,2,1,-9
1480628790628476,7,25,39,32,30,3,-6,-1
1480628790629980,-16,-47,-63,0,-14,-3,0,1
1480628790629980,-8,-14,-11,-9,-20,-9,0,1
1480628790642515,9,20,39,32,17,2,-2,-4
1480628790642515,8,14,48,4,5,4,4,16
1480628790649532,-5,-6,9,0,7,2,-3,-14
1480628790649532,1,-2,-7,5,-2,5,8,3
1480628790665575,-1,-13,-23,-22,-18,-5,1,12
1480628790665575,-4,2,7,-2,0,-3,-4,-3
1480628790667591,8,12,9,-4,8,5,3,-2
1480628790667591,5,5,20,0,7,1,3,2
1480628790688135,3,10,20,8,8,2,-3,-2
1480628790688135,-3,-10,-27,-38,-12,1,1,1
1480628790690140,-3,1,41,-4,19,2,-1,-4
1480628790690140,4,28,-23,45,-22,-6,-2,4
1480628790702673,2,-8,-3,-4,23,2,-1,-5
1480628790702673,2,-1,-31,-64,-10,4,3,8
1480628790709697,5,-1,3,5,-11,-3,-2,0
1480628790709697,-6,-3,34,27,2,-9,-7,-4
1480628790725736,-6,-9,-7,24,-25,-6,-1,-3
1480628790725736,-5,-7,2,13,22,4,4,-1
1480628790727741,5,7,-9,-42,17,13,4,2
1480628790727741,-4,-8,11,-10,3,-1,-5,-2
1480628790748295,-8,-12,-37,-16,-1,-3,-5,-9
1480628790748295,-2,-7,10,11,-11,-6,-2,0
1480628790749799,-2,2,-27,16,-7,-3,1,-3
1480628790749799,-8,-22,-37,-6,2,-3,-4,-5
1480628790762334,-7,5,-24,-19,-6,1,-3,-7
1480628790762334,6,1,4,8,1,1,11,24
1480628790770855,-1,5,16,27,17,-10,-6,-11
1480628790770855,1,-5,-8,-27,-2,6,-2,15
1480628790785894,4,1,8,-15,-6,4,2,-7
1480628790785894,2,-3,-6,6,-14,3,7,9
1480628790787399,-9,-12,3,18,-10,-9,-5,-13
1480628790787399,-4,-2,9,-18,-5,-1,0,-3
1480628790808456,1,-3,14,0,-31,-9,-3,9
1480628790808456,11,26,65,61,5,-6,1,4
1480628790809962,-14,-34,-44,-62,15,9,-3,-4
1480628790809962,-1,-11,-6,-35,-6,7,6,-5
1480628790831015,1,12,32,9,-18,-4,-1,-2
1480628790831015,-2,5,31,41,27,-1,-4,-5
1480628790832518,3,10,35,22,-12,-3,-3,-4
1480628790832518,-6,-23,-61,-31,-20,-2,1,0
1480628790846056,-4,-11,-19,-38,8,4,3,4
1480628790846056,5,2,-10,7,-24,-9,-3,-3
1480628790847560,-5,-2,5,27,12,-1,-1,-1
1480628790847560,5,12,42,22,5,-3,1,2
1480628790868114,4,-5,-5,-6,-6,-5,2,13
1480628790868114,-7,5,2,-7,-5,3,-5,-21
1480628790876137,1,-14,-19,4,-10,-2,-1,5
1480628790876137,4,9,6,11,29,2,3,0
1480628790882652,0,-2,-1,35,4,0,2,2
1480628790882652,1,-6,2,-18,-18,-2,1,8
1480628790889670,-11,-11,-20,-4,-7,-3,-6,-6
1480628790889670,3,5,-15,-33,2,2,-1,0
1480628790904711,-10,-12,-9,24,29,-8,-10,-17
1480628790904711,-10,-24,-36,35,16,1,-1,0
1480628790913234,5,16,51,38,-12,-6,2,3
1480628790913234,-6,-6,-33,2,-16,4,2,-1
1480628790928276,-2,-5,-27,-40,0,-1,-6,-6
1480628790928276,5,4,-8,-2,9,7,4,5
1480628790929778,0,-3,-27,6,9,-3,-1,0
1480628790929778,-2,-3,32,7,16,1,3,-1
1480628790942812,-3,-12,7,-6,-42,-8,-5,1
1480628790942812,-7,-13,-63,-29,30,2,-6,-3
1480628790949329,12,13,-16,-37,-22,3,16,14
1480628790949329,-2,8,13,9,-20,-7,1,13
1480628790965873,-7,-8,-21,8,23,0,-11,-21
1480628790965873,4,-2,32,9,-13,4,2,-10
1480628790967378,4,16,36,15,20,12,11,21
1480628790967378,8,17,-20,-38,-25,-3,5,11
1480628790988434,-4,0,-2,13,40,6,2,-1
1480628790988434,2,6,-1,10,2,-1,-1,-1
1480628790989938,-3,-1,11,12,-33,-11,-10,-14
1480628790989938,0,-2,13,10,16,0,-4,-7
1480628791001969,-1,9,28,-26,-23,-2,1,1
1480628791001969,-7,-3,9,8,12,4,-2,-7
1480628791010995,9,2,3,-19,17,7,6,9
1480628791010995,-5,-8,-3,-19,2,-9,-10,-6
1480628791026034,-7,3,-9,35,21,11,-3,-17
1480628791026034,1,7,31,-12,-58,-17,-6,0
1480628791027538,-5,-4,19,0,25,5,1,3
1480628791027538,7,-6,9,8,8,0,6,5
1480628791055613,16,16,3,-43,4,4,1,11
1480628791055613,8,10,13,35,-21,0,0,7
1480628791058119,-8,-8,-35,1,-8,-13,-8,-10
1480628791058119,-8,-9,-11,-54,-5,-3,-6,-9
1480628791062130,-6,-9,-1,-4,-7,-7,2,4
1480628791062130,4,7,-8,-26,13,6,6,7
1480628791078674,-4,-7,-7,-21,-22,-8,-6,-8
1480628791078674,0,6,51,127,23,-6,-9,-9
1480628791085692,6,-6,-50,-109,-7,7,12,14
1480628791085692,-10,-6,39,89,-5,-6,-7,-9
1480628791087698,-7,-3,-22,-32,-18,-8,-9,-15
1480628791087698,-5,-4,-33,-22,-10,-4,0,-10
1480628791108754,5,7,19,41,60,27,12,24
1480628791108754,-5,-9,-30,-83,-14,-8,-8,-18
1480628791110259,4,3,6,-1,-4,9,13,24
1480628791110259,13,10,2,-6,-24,-2,4,-2
1480628791121789,2,-12,14,16,-16,-9,2,34
1480628791121789,-9,-9,-6,24,30,2,-3,-1
1480628791130812,0,7,7,1,-4,3,-2,-7
1480628791130812,-7,-6,0,7,-15,-10,-2,-11
1480628791145854,-6,-10,1,-1,39,9,-4,-15
1480628791145854,-2,-7,-23,-41,-39,-7,-2,7
1480628791147356,-2,-3,3,20,10,-2,-2,-4
1480628791147356,-1,4,25,-9,2,6,-2,7
1480628791168412,-8,-9,4,59,-31,-14,-5,-29
1480628791168412,3,4,7,-30,2,-5,3,38
1480628791169916,14,17,5,6,48,8,9,-10
1480628791169916,1,9,-13,-58,-8,5,-3,12
1480628791190972,5,15,36,1,11,6,0,-2
1480628791190972,-14,-10,-22,-23,-30,-10,-14,-39
1480628791192476,4,-2,-5,10,-27,-11,12,34
1480628791192476,7,6,21,17,50,4,-7,-5
1480628791206012,-3,8,9,-53,-30,-5,-6,-15
1480628791206012,-1,-2,-1,11,3,0,2,3
1480628791207518,-5,8,15,-20,6,0,-6,-16
1480628791207518,-13,-15,-22,36,-22,-14,-14,1
1480628791228072,12,15,7,24,-4,5,9,-17
1480628791228072,7,-2,-17,-45,10,-4,5,39
1480628791230077,0,-6,-4,7,18,15,-6,-9
1480628791230077,-7,-11,-24,-57,-19,-3,4,13
1480628791242108,-2,-2,-14,-27,-32,-10,-3,-4
1480628791242108,-4,-1,-7,11,3,-7,-3,-13
1480628791251634,3,6,31,72,-7,-3,-4,-2
1480628791251634,7,0,-63,-83,7,13,6,-4
1480628791266174,-12,-4,35,127,-41,-25,-14,-16
1480628791266174,22,26,31,-14,12,16,17,27
1480628791272189,-2,2,-28,-95,26,11,-5,-5
1480628791272189,-10,-26,-21,61,-7,-9,-6,-12
1480628791288231,-6,-10,-28,-63,-15,-2,3,-7
1480628791288231,-3,-3,10,83,5,-2,2,-12
1480628791289736,-8,-6,11,28,-6,-11,-15,-5
1480628791289736,25,23,51,57,-5,9,22,40
1480628791301767,4,-12,-74,-104,3,9,9,28
1480628791301767,-5,-9,-6,-28,2,7,2,-13
1480628791310792,-1,1,-1,-8,9,2,-6,-14
1480628791310792,-5,-4,1,28,-5,-6,-1,-9
1480628791325831,-10,3,23,59,-25,-12,-6,-5
1480628791325831,4,10,11,33,5,-8,-19,-1
1480628791327336,8,2,-11,-77,-21,14,6,9
1480628791327336,-2,-6,-14,-8,0,3,0,4
1480628791355911,-4,0,22,70,22,-2,-3,-3
1480628791355911,-12,-17,8,46,-8,-10,-13,-28
1480628791357415,-4,-8,-18,-58,-52,-20,0,3
1480628791357415,-5,-12,-7,-21,57,16,-3,3
1480628791361927,-1,-1,0,27,14,2,-3,-11
1480628791361927,0,-4,-16,-22,-22,1,7,4
1480628791370951,-3,-1,9,62,-4,-6,3,-17
1480628791370951,5,15,13,-29,-26,0,-4,-17
1480628791386493,-11,-18,-31,-24,81,13,-5,11
1480628791386493,3,-1,-8,-12,-5,1,7,17
1480628791392009,-5,-12,-15,12,16,4,5,1
1480628791392009,-6,9,37,39,-52,-18,-6,-30
1480628791408553,15,11,0,-30,-4,10,14,42
1480628791408553,9,26,75,8,18,10,3,-26
1480628791410055,6,1,-24,-46,-12,0,13,32
1480628791410055,-7,-1,-6,-6,39,7,-3,-18
1480628791422087,-8,-8,20,49,-43,-16,-17,-28
1480628791422087,-10,-11,-38,4,3,-2,-5,-12
1480628791446653,4,3,27,45,21,-5,6,11
1480628791446653,7,10,-1,-95,-21,2,2,-8
1480628791447154,-5,-5,-7,18,-8,-5,-10,4
1480628791447154,2,4,-1,-15,-10,0,4,18
1480628791448658,-9,-13,17,30,12,-8,-7,-17
1480628791448658,-15,-11,-11,23,-58,-21,-12,-7
1480628791469213,20,29,1,-88,80,16,17,19
1480628791469213,-22,-17,-14,30,-33,-17,-27,-42
1480628791474227,-1,-2,-27,-6,-30,-4,-19,-38
1480628791474227,5,13,56,51,6,-6,4,16
1480628791490770,6,-4,-14,-19,4,21,12,19
1480628791490770,2,-5,-41,-4,-10,5,10,11
1480628791492275,-3,11,56,59,24,-1,-13,-12
1480628791492275,14,21,8,-66,-32,5,15,8
1480628791505810,-10,-12,-1,78,14,-17,-10,-19
1480628791505810,17,8,-22,-128,69,29,15,21
1480628791507314,-14,-21,-5,86,-59,-17,-8,-4
1480628791507314,-7,-18,18,57,26,7,10,5
1480628791527869,6,8,-2,-44,-31,-8,-1,1
1480628791527869,-1,-8,3,16,36,5,8,17
1480628791534386,7,10,-8,-102,11,18,3,1
1480628791534386,-11,-14,-30,2,18,2,4,9
1480628791550930,11,-9,10,44,-24,-2,5,1
1480628791550930,1,10,15,9,22,-9,-13,0
1480628791552434,7,9,9,-10,-2,6,16,31
1480628791552434,-10,-17,-48,-7,15,-4,-14,-10
1480628791565970,-4,0,-3,-28,-34,0,1,-6
1480628791565970,-5,0,-3,-6,-11,-3,-1,-22
1480628791567474,2,-4,20,89,17,-7,2,27
1480628791567474,-1,3,-4,-42,12,5,-4,7
1480628791588530,-4,-4,-22,-34,-8,-3,1,10
1480628791588530,-1,3,-2,-15,-14,-4,-11,-28
1480628791590034,-1,0,-18,-24,15,3,0,-11
1480628791590034,7,10,3,39,-8,1,4,4
1480628791610589,-10,-9,15,41,3,-5,-5,-13
1480628791610589,0,-8,-16,-6,2,4,2,12
1480628791612594,8,10,-13,-52,-7,2,-7,-2
1480628791612594,-8,-7,-9,38,6,-6,8,5
1480628791625130,-18,5,-10,-29,-1,-2,-9,-43
1480628791625130,3,0,8,7,-7,2,1,-1
1480628791639667,-31,-24,-53,-16,-9,-11,1,13
1480628791639667,38,21,36,39,19,2,-27,11
1480628791663229,-21,-16,-37,-76,-9,-2,41,15
1480628791663229,14,-11,8,70,-10,-2,9,18
1480628791664733,11,18,21,0,2,0,0,-5
1480628791664733,-11,-11,-12,-15,8,1,-7,-19
1480628791670749,2,3,3,-5,-2,4,-6,6
1480628791670749,5,7,1,0,-6,-8,-7,-11
1480628791672252,-25,-14,8,18,3,-3,-5,-12
1480628791672252,-2,-11,-31,-46,-2,1,9,1
1480628791685790,36,14,62,59,4,-2,-11,1
1480628791685790,-18,-7,-21,-47,-4,1,10,10
1480628791691806,17,4,-4,5,-2,-1,-8,-8
1480628791691806,-27,-4,3,-10,-1,0,-4,-16
1480628791708351,-1,7,24,76,4,-4,-4,4
1480628791708351,-7,-2,1,-26,-12,-7,-7,1
1480628791710855,2,-11,-25,-32,1,5,9,3
1480628791710855,10,5,13,29,3,0,-3,-2
1480628791730410,-11,-8,-18,-15,-1,-3,-17,-20
1480628791730410,3,3,8,0,-3,0,11,27
1480628791744946,-5,2,-2,3,1,0,-7,-8
1480628791744946,10,3,-3,-11,0,-1,2,5
1480628791745948,4,-1,1,-2,4,1,-1,11
1480628791745948,0,3,6,2,-2,2,14,0
1480628791753469,7,0,-1,-19,0,-1,0,5
1480628791753469,-10,0,27,49,6,-2,-3,-5
1480628791776035,7,-3,-24,0,-8,-5,-1,1
1480628791776035,-19,0,-13,-33,-1,4,-5,-7
1480628791777533,3,-1,15,43,3,-2,4,5
1480628791777533,-1,-6,36,29,1,-1,2,4
1480628791791069,3,-1,-22,-38,-1,1,-4,4
1480628791791069,4,-4,-15,39,-2,-2,-6,-12
1480628791792573,6,-1,-2,-31,-5,-2,-1,-2
1480628791792573,-18,-6,-5,-3,-2,-3,-9,-5
1480628791805111,35,7,9,-10,0,0,1,-2
1480628791805111,-1,3,-2,-22,2,4,-7,7
1480628791812126,18,2,18,34,0,-4,16,6
1480628791812126,30,11,-12,0,-2,0,9,-1
1480628791828167,-11,2,-15,-24,0,1,0,-1
1480628791828167,-33,-6,13,7,2,-3,-8,-13
1480628791830173,-22,-9,11,8,1,0,-7,-13
1480628791830173,-19,-4,-34,-82,-7,1,-4,-2
1480628791858749,-2,-14,13,60,0,-7,-5,12
1480628791858749,23,10,20,25,-2,-2,-4,-1
1480628791860754,4,-1,-14,27,6,2,-6,3
1480628791860754,-20,-13,-35,-93,-10,2,6,-2
1480628791864263,-3,1,14,12,3,2,-2,1
1480628791864263,-5,-3,-1,-2,0,0,3,-6
1480628791873287,10,7,9,5,-4,-2,4,23
1480628791873287,31,7,-6,0,4,3,2,8
1480628791888327,-26,1,3,10,0,1,2,-11
1480628791888327,20,6,0,-19,0,1,-3,-10
1480628791889832,-19,1,-7,-17,-3,-1,-5,-13
1480628791889832,-12,-6,-6,-17,-2,0,-7,13
1480628791909887,7,6,29,53,5,1,6,3
1480628791909887,38,8,4,1,-3,-4,1,14
1480628791918408,15,12,27,2,0,3,-5,-4
1480628791918408,-30,-5,12,-27,-1,-3,0,-8
1480628791924424,3,-4,-2,2,-2,-1,-4,-6
1480628791924424,-10,-2,-9,15,-5,-5,-2,-7
1480628791940967,-11,-5,-3,-8,-2,-5,-7,4
1480628791940967,12,2,0,-3,4,5,3,2
1480628791948488,-5,0,0,-3,-4,-2,-6,-3
1480628791948488,-13,-6,-10,-8,1,0,11,-3
1480628791949992,-1,-4,-3,4,-1,0,-1,0
1480628791949992,-16,0,-1,26,2,-1,1,-3
1480628791971049,-14,-3,2,-34,-4,-1,-7,-11
1480628791971049,-10,-13,-10,0,0,0,-10,8
1480628791972552,47,10,-7,-10,1,1,8,2
1480628791972552,7,2,9,48,4,1,2,2
1480628791984583,-3,-3,-15,-23,-1,0,1,3
1480628791984583,-7,0,-4,6,2,-1,-1,3
1480628791993610,-1,-5,-2,-28,-3,-2,-3,-4
1480628791993610,14,12,17,57,-1,-5,-2,-4
1480628792008649,0,2,-22,-67,-5,-2,-3,3
1480628792008649,-1,9,18,15,0,0,1,-3
1480628792010656,-9,-11,-44,-25,-2,0,-3,-5
1480628792010656,-22,-13,11,21,-8,-8,-7,-17
1480628792030707,-2,-2,2,15,-3,0,-4,-5
1480628792030707,0,2,9,-13,0,0,2,4
1480628792032227,22,8,0,-4,-2,0,-9,4
1480628792032227,-19,-3,3,-9,3,2,8,1
1480628792044242,0,-4,-12,-17,1,2,9,8
1480628792044242,-25,2,27,27,1,0,-2,-10
1480628792053266,-12,-9,-15,2,-2,-1,-1,-7
1480628792053266,2,-2,-17,-18,0,0,-6,0
1480628792068306,1,3,11,-4,1,-1,4,-5
1480628792068306,8,-3,-7,8,-1,0,3,-3
1480628792069811,-24,-1,12,8,0,-1,-8,-6
1480628792069811,21,7,14,9,3,3,9,16
1480628792090867,-12,-11,-21,-4,-3,-3,-4,-17
1480628792090867,4,-5,-4,16,1,1,0,4
1480628792092371,-9,-10,-7,-23,-7,-4,-1,-4
1480628792092371,-1,-1,-14,-36,-2,2,-6,-9
1480628792104402,-3,10,12,34,3,2,2,9
1480628792104402,27,-8,-24,-41,-5,-1,0,-16
1480628792113428,-40,-7,25,69,2,-3,-2,-18
1480628792113428,30,6,-7,-10,-5,-3,-13,13
1480628792135987,12,-3,4,3,-1,-1,11,-1
1480628792135987,0,2,-15,-15,-2,-1,9,20
1480628792137490,43,4,-1,-18,1,4,8,30
1480628792137490,3,15,12,17,8,6,3,-22
1480628792151026,3,-1,-4,-23,1,0,-6,9
1480628792151026,-5,10,16,26,-1,-1,-5,0
1480628792152531,-2,-5,-19,10,4,-1,2,7
1480628792152531,18,-12,1,14,-13,-11,-3,-4
1480628792164563,5,8,6,4,-1,0,-5,11
1480628792164563,6,2,-5,-15,4,3,4,5
1480628792173587,-4,-2,2,-8,-5,-2,-6,-11
1480628792173587,8,-5,-14,-3,1,-1,9,7
1480628792188125,-23,2,-2,-1,4,4,0,-10
1480628792188125,-26,-15,-20,-5,-3,-4,-13,-11
1480628792190131,20,4,2,-30,2,4,8,-6
1480628792190131,-6,13,18,38,3,0,1,5
1480628792218205,-9,-10,-8,-7,-7,-6,5,4
1480628792218205,10,0,-3,-29,3,4,-2,-7
1480628792219709,26,-1,13,42,-3,-2,-2,6
1480628792219709,-4,-2,-8,-19,1,4,6,0
1480628792224222,19,8,11,17,5,2,-2,1
1480628792224222,-32,-8,6,9,-2,-2,1,5
1480628792233747,-12,4,-11,-33,1,1,2,-5
1480628792233747,0,-6,-3,2,-1,0,-2,2
1480628792248786,-7,-5,15,2,-2,-3,-3,-2
1480628792248786,23,7,1,27,1,1,-7,-2
1480628792250792,0,-3,-4,-38,-8,-6,-4,5
1480628792250792,-21,-8,0,17,0,0,1,2
1480628792270847,-2,5,-1,-7,2,2,2,-1
1480628792270847,10,3,-10,9,0,-3,2,2
1480628792272359,1,-6,-8,4,1,-5,-12,-12
1480628792272359,-23,-12,-13,-26,-4,-3,-3,-21
1480628792284381,29,5,-2,5,-2,-6,-14,-8
1480628792284381,-17,-5,-1,26,2,3,20,12
1480628792293407,-1,4,2,-9,4,3,6,17
1480628792293407,-1,2,14,-10,-2,0,-2,9
1480628792308446,13,1,-6,27,3,1,-6,-7
1480628792308446,1,7,21,-12,2,1,-6,-4
1480628792309953,-16,-1,6,17,-5,-3,4,4
1480628792309953,-11,5,2,-11,3,2,-5,-16
1480628792331006,4,-5,-4,-14,-1,0,14,19
1480628792331006,23,-4,-3,5,-2,-3,-2,-1
1480628792337021,-47,-9,-7,-15,1,2,3,2
1480628792337021,14,8,8,21,0,-2,-8,4
1480628792344541,12,-15,-22,-6,-9,-6,-2,2
1480628792344541,-7,4,-2,-28,-3,1,0,-9
1480628792359584,9,6,8,9,4,2,6,14
1480628792359584,2,-7,-14,2,-1,-2,3,6
1480628792368605,-35,5,5,-4,2,1,-7,-21
1480628792368605,-9,-14,-1,-1,-3,-4,-10,8
1480628792370109,-4,0,-1,-9,-3,0,1,-14
1480628792370109,-1,11,4,-30,6,3,4,6
1480628792390664,-14,-32,-48,15,-7,-2,0,-5
1480628792390664,3,6,25,17,0,-4,-5,-4
1480628792392170,3,6,2,2,2,0,-6,-13
1480628792392170,-1,-9,-6,9,-2,-5,2,15
1480628792413725,12,15,8,-24,4,2,-8,-9
1480628792413725,-19,2,5,32,2,1,4,-12
1480628792419240,-24,-19,-27,-36,-2,-1,-9,-10
1480628792419240,33,14,10,-17,-3,3,17,6
1480628792428266,-14,2,18,32,-1,1,7,12
1480628792428266,1,1,-3,4,3,0,-10,-2
1480628792429771,-2,-4,8,12,-4,0,8,1
1480628792429771,-18,-12,-4,2,-2,-4,-2,-16
1480628792450825,-8,4,4,-8,1,1,-5,-8
1480628792450825,23,5,-14,-32,-2,-1,5,20
1480628792452329,3,1,-1,12,-1,3,5,4
1480628792452329,6,0,15,-7,-1,-1,-7,3
1480628792472882,-4,-19,-51,-12,-5,-3,2,3
1480628792472882,-6,11,34,-3,5,3,2,-2
1480628792479400,1,-3,-18,9,-5,-7,-8,-6
1480628792479400,13,-1,1,31,2,1,-6,-1
1480628792496447,-12,4,13,-14,2,-1,-9,-1
1480628792496447,16,-4,-20,-34,-5,0,13,12
1480628792497949,24,15,24,48,6,1,-14,8
1480628792497949,-34,-14,-25,-35,-7,-1,15,12
1480628792510484,9,14,28,38,3,0,-7,-7
1480628792510484,-10,-6,-22,-40,-2,0,6,2
1480628792518505,6,-4,23,47,-2,-7,-1,-10
1480628792518505,4,1,0,13,1,0,-4,-2
1480628792533544,-4,4,5,-21,2,2,2,8
1480628792533544,-6,-13,-5,17,-9,-7,-7,-11
1480628792535048,0,1,-9,-23,3,4,-3,-9
1480628792535048,-10,-9,-21,-2,-1,1,-1,4
1480628792548584,5,3,-1,-51,-6,1,7,3
1480628792548584,-3,-1,16,67,4,-3,-7,-10
1480628792550088,-19,-11,-27,-21,-3,-2,0,-6
1480628792550088,-5,2,3,18,-3,-2,-6,-5
1480628792570642,4,-18,2,-17,-2,-2,1,3
1480628792570642,-9,0,-8,-17,-1,-1,-2,-4
1480628792572649,1,5,5,-15,-1,0,0,5
1480628792572649,4,-3,-1,3,-3,-3,-3,-2
1480628792593206,0,10,6,-2,0,-1,-10,-5
1480628792593206,15,0,7,9,-2,-1,5,10
1480628792594708,-17,-5,-6,-14,-1,-1,7,-4
1480628792594708,16,9,11,-4,2,2,-12,-6
1480628792608243,3,4,-15,-5,-1,-1,-1,-2
1480628792608243,25,-1,-6,5,0,4,9,25
1480628792615766,-8,6,15,51,6,1,-12,2
1480628792615766,-13,-2,-7,-24,-3,2,17,-8
1480628792630301,-20,-7,2,-5,1,-1,-4,-3
1480628792630301,2,5,2,3,4,4,-3,-18
1480628792638323,1,-14,-26,-62,-7,-3,-4,7
1480628792638323,1,0,17,36,2,0,0,6
1480628792653363,6,5,14,24,4,1,-1,3
1480628792653363,-32,-15,-19,-18,-5,-1,10,-2
1480628792654868,4,4,14,14,2,1,3,6
1480628792654868,11,6,-15,-12,-2,-5,-10,-8
1480628792667401,8,6,-2,-6,-1,-1,6,0
1480628792667401,-7,-6,2,10,-1,-1,-13,-4
1480628792674419,7,1,8,-9,-2,2,9,13
1480628792674419,14,10,6,-12,1,1,1,7
1480628792690965,-4,-1,-5,17,-2,-2,1,-2
1480628792690965,2,0,4,2,0,0,-2,0
1480628792692467,-2,0,-4,-10,0,1,2,-5
1480628792692467,-2,-5,4,13,1,1,1,3
1480628792720542,3,1,5,-3,-1,-2,1,0
1480628792720542,-1,3,0,-14,1,0,-3,-4
1480628792722547,4,1,15,12,-2,-3,-1,-5
1480628792722547,-5,-3,2,-10,0,0,-6,-4
1480628792727564,5,1,4,-5,-1,-2,-1,0
1480628792727564,0,0,4,20,4,0,10,1
1480628792742101,7,9,7,10,-2,-2,-5,-1
1480628792742101,0,1,5,3,2,-1,2,1
1480628792751624,-3,-5,-13,0,0,7,12,9
1480628792751624,9,3,-8,-34,-3,-2,-11,-3
1480628792753128,-1,4,4,44,1,1,0,-5
1480628792753128,-4,-1,-17,-58,-11,-2,-2,-6
1480628792773683,-1,-2,3,8,2,-2,-3,-2
1480628792773683,-5,-3,-14,-12,-1,-1,-6,-5
1480628792781203,-3,-9,11,35,4,3,6,0
1480628792781203,-1,-2,-2,16,-3,-5,-6,-1
1480628792787721,3,4,20,-17,-1,1,10,3
1480628792787721,-5,-7,-3,0,-5,-2,-4,-3
1480628792801757,5,10,0,-16,8,0,3,2
1480628792801757,-5,-6,6,26,-3,-1,-2,-2
1480628792810781,-2,-4,-11,-22,-4,1,-4,-3
1480628792810781,-1,2,8,12,-1,-2,-4,-3
1480628792812286,7,8,10,-6,10,4,6,3
1480628792812286,-6,-11,-32,6,-1,-1,-5,-5
1480628792833344,4,2,12,-8,-8,-5,-4,2
1480628792833344,-2,-5,-1,1,1,1,1,0
1480628792834847,-6,-2,-26,-39,-10,-3,-4,-3
1480628792834847,-1,-1,3,38,6,-1,-1,1
1480628792847379,3,-1,14,7,4,1,0,-2
1480628792847379,2,-2,-8,-5,-7,-3,1,3
1480628792854398,1,-6,-10,-18,10,-2,1,1
1480628792854398,-7,-12,2,33,36,10,-1,-2
1480628792870943,-1,-2,-17,-11,-19,-3,1,-2
1480628792870943,-3,2,-2,10,12,-3,-6,-6
1480628792872446,2,-2,5,0,-15,-2,1,0
1480628792872446,4,10,-7,-44,0,4,2,5
1480628792893504,0,4,12,59,8,-3,-2,-1
1480628792893504,1,0,-2,-18,-12,-5,-3,-3
1480628792895007,0,8,5,-9,-15,-6,-1,-2
1480628792895007,7,8,19,-1,5,4,7,7
1480628792908042,1,-5,7,4,7,-1,-1,-1
1480628792908042,5,10,-5,-10,-26,-1,5,6
1480628792914560,-2,0,14,8,-2,-7,-4,-3
1480628792914560,-2,-5,-7,17,5,6,0,-1
1480628792931102,-1,0,-12,-44,-7,3,0,-1
1480628792931102,-4,-12,8,40,12,0,-2,-2
1480628792937117,2,12,-1,0,-18,0,-3,-1
1480628792937117,-1,-6,-22,-27,-17,-13,0,1
1480628792953161,-2,0,0,2,18,3,-3,-3
1480628792953161,6,8,-6,-13,7,8,4,6
1480628792954665,-6,-10,-5,6,-5,-3,-3,-4
1480628792954665,-3,-5,-3,-1,-26,-9,-2,-4
1480628792966697,4,6,9,16,5,0,2,1
1480628792966697,0,-4,-21,-21,0,-2,0,0
1480628792976224,1,-1,2,15,6,8,-1,0
1480628792976224,-3,-3,12,22,49,13,0,-2
1480628792998280,-1,-13,-20,-25,-20,-2,0,2
1480628792998280,1,9,9,-7,-10,-3,-1,-1
1480628792999784,-4,-19,-21,-4,13,-1,0,0
1480628792999784,1,3,10,3,-25,-7,-1,1
1480628793013320,3,7,-7,-25,-6,-4,-3,0
1480628793013320,-2,1,23,25,14,5,1,-1
1480628793014825,0,-7,-4,-14,-16,-8,-2,-1
1480628793014825,0,2,15,-11,13,-2,-1,-1
1480628793026858,-1,1,9,59,34,5,2,2
1480628793026858,-4,-17,-6,-46,-18,-2,-5,-5
1480628793035880,-1,9,34,0,19,6,2,-1
1480628793035880,1,-3,-32,-28,-13,-1,0,0
1480628793050922,-3,2,16,13,-2,0,-1,-1
1480628793050922,0,2,-7,-10,-8,-7,-4,-3
1480628793052425,3,3,9,11,10,4,5,3
1480628793052425,2,2,-8,-6,-13,-4,-2,1
1480628793073480,1,3,1,25,-14,-10,-6,-4
1480628793073480,-3,-7,-9,0,6,3,-6,0
1480628793074985,-8,-9,-21,-28,-13,3,8,-2
1480628793074985,12,16,14,-10,6,1,4,4
1480628793087016,-1,-5,-13,2,-17,-5,-6,-5
1480628793087016,-2,1,-2,-14,-1,-3,7,-1
1480628793103560,1,4,25,87,15,0,-1,2
1480628793103560,-9,-9,-23,-65,-4,-1,-9,-7
1480628793110579,1,2,8,13,-1,2,-10,0
1480628793110579,3,4,0,-14,-3,4,21,7
1480628793112586,1,4,-43,-80,-1,2,-3,-1
1480628793112586,-7,-6,44,110,-3,-10,-6,-7
1480628793133140,-2,-4,-14,-31,-4,1,-1,-2
1480628793133140,1,2,-15,-35,-5,-5,-9,-1
1480628793134644,-1,-5,-1,37,4,-1,-8,-6
1480628793134644,4,7,9,-30,0,2,-6,-2
1480628793146675,-9,-14,-26,-13,-15,-8,10,1
1480628793146675,2,5,10,8,8,2,-5,0
1480628793156202,-2,-4,-10,-32,-5,-1,6,2
1480628793156202,4,4,55,83,5,2,-6,1
1480628793170238,-4,-6,-50,-66,-3,-4,-3,-4
1480628793170238,-8,-15,-18,23,-2,-4,-2,-8
1480628793176757,6,7,12,-18,3,-1,-16,2
1480628793176757,-1,-1,-21,-26,-8,2,15,7
1480628793193303,-4,3,24,32,4,-2,-3,-7
1480628793193303,-1,-6,-16,23,8,-1,4,5
1480628793194803,-7,-3,-17,-14,-12,-7,-15,-10
1480628793194803,2,-4,-14,-31,4,8,9,9
1480628793206835,2,-2,6,2,1,-2,2,0
1480628793206835,3,2,0,-22,-3,-3,-9,-6
1480628793215859,-1,-6,17,27,4,4,16,2
1480628793215859,-5,-7,-9,37,-13,-7,6,-2
1480628793229897,3,15,17,-13,1,4,3,3
1480628793229897,-3,-6,6,17,-2,-5,-11,-8
1480628793244437,-3,-10,5,4,-1,-1,0,-3
1480628793244437,2,3,-38,-102,-13,3,-1,-1
1480628793253459,-4,-5,20,57,7,-1,-1,2
1480628793253459,-2,4,27,83,-9,-8,0,-3
1480628793254963,-1,-2,5,8,18,-3,1,0
1480628793254963,5,2,4,-56,29,23,6,2
1480628793275018,1,3,-11,-3,-9,4,-2,-4
1480628793275018,5,12,3,5,7,1,5,5
1480628793282537,1,1,-6,9,-12,-4,1,-1
1480628793282537,-3,-5,-18,5,-11,-5,-6,-6
1480628793289555,2,4,12,-31,-62,-11,3,5
1480628793289555,-3,-2,4,8,37,2,-1,1
1480628793297577,5,6,7,-48,9,19,8,7
1480628793297577,-4,-10,4,26,9,-4,-1,-2
1480628793312620,-3,-8,3,36,20,7,-1,-4
1480628793312620,3,8,11,-10,-29,-5,-1,1
1480628793313621,-5,-8,-23,-31,-14,-6,-7,-3
1480628793313621,-3,-1,8,38,3,-5,-3,-1
1480628793335177,4,3,-5,-22,1,0,-1,-2
1480628793335177,-5,0,24,56,11,2,-4,-3
1480628793335679,5,7,-13,-66,2,-3,1,6
1480628793335679,-5,-7,5,20,-27,-9,2,3
1480628793358238,3,1,-18,-45,-10,-8,-13,-8
1480628793358238,-7,-7,22,61,30,-2,-7,-7
1480628793359243,-1,-8,-26,6,4,9,3,-1
1480628793359243,-2,9,-17,-25,-13,-9,-7,-7
1480628793372777,0,6,12,-1,-4,-2,3,3
1480628793372777,-1,-8,5,-31,11,8,-1,-4
1480628793373278,0,4,-8,5,-35,-7,-3,1
1480628793373278,1,6,45,51,-36,-12,-3,-2
1480628793394835,-5,-13,-55,-45,57,17,4,1
1480628793394835,5,6,-4,-55,-47,-1,1,1
1480628793395838,-5,-3,11,22,23,4,-3,-6
1480628793395838,1,0,4,6,-9,-2,2,3
1480628793411379,0,1,28,52,0,-7,-2,1
1480628793411379,1,3,-21,-19,-6,-2,0,2
1480628793412382,1,6,4,7,13,4,1,-2
1480628793412382,0,-3,-14,-32,-3,-2,-5,-4
1480628793432435,-4,-9,4,35,6,-2,-1,-1
1480628793432435,0,6,14,-23,6,3,0,0
1480628793433438,-4,3,-21,-15,-15,-4,0,-3
1480628793433438,8,0,32,79,13,-2,1,2
1480628793454995,-13,-22,-51,-81,25,11,-1,-2
1480628793454995,-2,-7,-3,-10,6,0,2,1
1480628793455998,-1,8,27,39,8,-1,-7,-8
1480628793455998,11,11,4,-33,-19,7,10,13
1480628793471540,8,15,22,93,37,-3,1,1
1480628793471540,-8,-22,-55,-110,40,27,0,-5
1480628793472542,-1,-3,-8,-45,30,12,5,4
1480628793472542,-5,-1,7,51,0,-4,-4,-6
1480628793493097,11,9,28,-5,-40,-8,7,5
1480628793493097,-2,1,-17,-12,-52,-22,-8,3
1480628793493598,1,0,9,46,37,7,3,2
1480628793493598,-6,-4,-24,-75,-2,6,-4,-8
1480628793523177,-12,-3,-3,-10,-12,-7,-14,-15
1480628793523177,5,6,31,41,13,5,7,8
1480628793524180,0,-4,-15,16,-18,-8,-5,-3
1480628793524180,0,2,15,-39,-11,-11,-6,-2
1480628793530697,-5,1,-6,7,38,20,5,-1
1480628793530697,-1,-9,3,47,-4,3,4,-1
1480628793531700,2,1,7,9,-17,-15,-4,-2
1480628793531700,-2,6,-16,-38,1,9,2,1
1480628793553257,6,-6,17,28,-4,3,4,7
1480628793553257,-4,-5,-5,5,-2,-10,-6,-8
1480628793553758,7,4,-10,-41,-23,1,6,5
1480628793553758,-9,-21,-18,73,18,-3,-4,-9
1480628793574816,7,21,19,-39,14,6,3,5
1480628793574816,5,0,-22,-15,-13,0,4,6
1480628793575820,2,-7,22,67,-9,-9,-6,-4
1480628793575820,-6,-10,-35,-75,5,-2,-2,0
1480628793606399,-1,-3,8,18,-20,2,7,7
1480628793606399,4,8,10,-4,-25,-20,-3,3
1480628793607402,-11,-15,-21,-33,47,8,-9,-9
1480628793607402,2,4,18,24,10,8,2,-2
1480628793612916,-3,5,7,5,-9,-7,-1,-14
1480628793612916,-10,-12,-35,-6,-66,-22,-16,-9
1480628793613918,7,5,31,-18,66,14,10,25
1480628793613918,-2,4,4,94,-1,-13,-4,-2
1480628793643499,-6,-13,-21,-32,3,1,-9,-4
1480628793643499,7,7,4,-31,19,21,10,-2
1480628793644001,1,3,-10,-26,-36,-7,2,-5
1480628793644001,-7,-2,12,15,6,-7,-10,-3
1480628793649513,5,3,14,34,-19,-3,5,4
1480628793649513,2,9,-2,-35,12,-1,-1,0
1480628793657535,-2,-4,11,36,-20,-4,-1,-1
1480628793657535,2,6,-10,0,-8,-2,1,1
1480628793672574,-6,-15,-17,-7,0,-6,-9,-7
1480628793672574,2,1,12,9,39,13,8,7
1480628793673577,1,6,-14,-19,-15,-6,1,2
1480628793673577,-1,-9,-32,-33,-13,0,-1,-7
1480628793695135,7,8,26,102,-44,-19,1,4
1480628793695135,-11,-19,-44,-76,99,20,-8,-3
1480628793696137,-1,4,0,-6,-50,1,6,-2
1480628793696137,6,4,6,12,-5,-7,1,6
1480628793709676,4,6,-7,-55,-1,5,4,7
1480628793709676,4,7,5,84,-16,-8,-1,-5
1480628793717694,3,4,5,6,45,15,4,0
1480628793717694,-11,-1,11,-32,-36,-9,-12,-13
1480628793732734,3,-3,-27,-15,36,4,2,2
1480628793732734,5,12,23,19,-39,-3,7,7
1480628793733236,-6,-7,6,19,-7,-9,-9,-9
1480628793733236,9,7,17,16,20,13,10,5
1480628793754793,0,14,5,-86,-22,-7,-2,4
1480628793754793,-15,-37,-28,30,-16,-14,-11,-4
1480628793755796,6,7,11,-2,13,11,7,4
1480628793755796,-3,-9,-4,23,8,-1,-2,3
1480628793769331,-3,-5,5,10,4,2,5,-1
1480628793769331,1,12,20,-14,0,2,-3,-7
1480628793777854,-3,-5,-5,1,-30,-16,-5,7
1480628793777854,6,6,12,-19,1,0,6,9
1480628793792395,-15,-21,-48,-20,-8,-14,-24,-19
1480628793792395,-3,12,29,2,-42,-12,-1,-4
1480628793800415,-18,-36,-15,39,-1,-18,-17,-16
1480628793800415,2,2,-35,-63,49,36,13,6
1480628793815455,6,6,12,9,-13,4,9,4
1480628793815455,7,13,40,19,18,4,6,5
1480628793822472,-2,1,-25,-22,-51,-19,-11,-8
1480628793822472,0,-2,-5,32,5,-2,3,4
1480628793829491,-8,-16,-4,-13,23,2,-6,-6
1480628793829491,1,1,-11,1,-15,1,6,3
1480628793837514,7,10,14,15,19,6,8,12
1480628793837514,0,12,6,-26,-7,-7,-9,-8
1480628793853054,9,9,23,68,-33,-4,16,18
1480628793853054,-5,-8,-1,-41,56,17,0,-5
1480628793854058,2,0,-11,-49,-1,12,6,11
1480628793854058,2,0,9,41,0,-7,-9,-7
1480628793883136,-2,5,7,9,-9,-3,-9,-10
1480628793883136,-1,5,22,59,-29,-21,-4,-3
1480628793884137,-10,-11,-25,26,18,8,-1,-10
1480628793884137,-2,-3,-14,-83,-5,-4,-3,-1
1480628793889652,1,3,-10,-37,18,7,0,3
1480628793889652,4,-3,6,31,-8,-1,-11,-1
1480628793897673,4,6,17,-9,4,2,18,4
1480628793897673,-7,0,10,53,-8,-7,5,0
1480628793912713,3,-6,10,-5,6,-1,3,9
1480628793912713,-2,-2,-28,-96,5,7,-11,-5
1480628793913215,-3,8,15,84,-18,-10,-4,-6
1480628793913215,1,-2,33,0,-2,-1,3,6
1480628793935273,-12,-10,0,-27,13,-5,-12,-14
1480628793935273,6,8,-3,20,8,11,14,10
1480628793935774,3,2,5,-37,-29,-14,-9,-2
1480628793935774,6,2,-2,-7,16,7,9,13
1480628793949311,-7,-8,15,-4,9,2,-9,-10
1480628793949311,0,-2,-10,-4,-8,-4,1,4
1480628793965353,-5,3,7,11,6,0,-4,-2
1480628793965353,-2,-8,-10,-7,-4,2,2,-6
1480628793972372,-1,1,7,6,-15,-4,-9,1
1480628793972372,1,-5,-18,8,4,-2,16,4
1480628793973375,-13,-3,9,-16,-8,0,1,-17
1480628793973375,5,9,17,11,5,-5,-17,6
1480628793994932,-13,-5,-8,-47,0,3,14,-15
1480628793994932,-16,-3,7,13,2,3,5,-1
1480628793995935,0,-4,2,16,8,-1,-28,-11
1480628793995935,-15,-6,-29,-60,-6,4,29,5
1480628794009471,-3,4,8,30,6,1,-3,-8
1480628794009471,45,15,20,22,1,-3,-12,17
1480628794025012,-14,-2,-1,3,0,4,10,-7
1480628794025012,13,-7,-26,-48,0,2,-7,4
1480628794032532,2,11,-2,1,-5,5,5,9
1480628794032532,-19,-10,10,47,2,-3,2,-7
1480628794033535,13,3,-6,-17,8,3,-1,6
1480628794033535,9,6,7,2,-4,-5,-10,-3
1480628794055092,-6,-5,-24,-10,4,2,-5,3
1480628794055092,-1,-6,10,4,-5,-2,8,7
1480628794056094,3,1,7,-4,4,0,-1,1
1480628794056094,-4,3,-5,-14,1,1,-2,-5
1480628794078153,3,0,34,81,-2,-7,-10,0
1480628794078153,-11,1,-15,-31,1,3,2,-13
1480628794079156,-6,-3,-10,-20,-3,-1,7,1
1480628794079156,6,0,7,13,7,1,-17,-14
1480628794092696,8,1,-5,-22,-4,5,29,19
1480628794092696,15,6,-3,1,-4,-5,-7,-2
1480628794093195,-1,-1,-6,19,3,-3,2,5
1480628794093195,-10,0,-1,-15,-5,1,1,-7
1480628794115252,-4,-6,-10,-9,0,-4,-7,-2
1480628794115252,-3,1,2,3,2,0,-3,-4
1480628794115753,-11,1,5,3,-4,0,4,-3
1480628794115753,-4,-13,5,16,-4,-4,-3,0
1480628794137812,15,14,18,22,8,5,2,9
1480628794137812,-5,-6,-29,-58,-11,-5,-2,-11
1480628794138313,1,-9,-18,0,1,2,-1,7
1480628794138313,-9,-16,-7,17,7,1,2,-3
1480628794161375,3,4,15,20,3,3,0,2
1480628794161375,-1,-4,-11,-11,-1,0,0,-1
1480628794162382,4,2,5,-21,-6,-3,-10,-1
1480628794162382,4,4,3,19,7,1,11,1
1480628794174912,-8,-10,-24,-30,-8,-4,2,-1
1480628794174912,0,0,9,28,8,1,-18,0
1480628794175915,3,-2,6,5,0,3,12,10
1480628794175915,5,5,-4,2,2,-2,-4,-4
1480628794197470,-6,-10,-3,-38,-10,-7,0,-11
1480628794197470,-13,-3,-1,0,-4,-3,-4,-10
1480628794198473,16,21,10,13,5,3,-9,8
1480628794198473,-19,-17,-16,14,2,2,17,8
1480628794213012,-1,5,-43,-25,0,5,-11,-16
1480628794213012,4,0,-7,31,0,2,9,6
1480628794220030,-4,-1,-1,-6,3,-3,-12,-14
1480628794220030,5,9,17,-6,-5,1,11,7
1480628794243093,7,-4,-18,-16,-4,-2,-5,8
1480628794243093,-7,6,5,-24,2,2,8,8
1480628794244097,33,-2,-14,-2,1,-1,-5,0
1480628794244097,-33,0,-9,8,-6,-6,-19,-14
1480628794257632,-2,-1,16,29,5,2,13,3
1480628794257632,-2,3,-13,-32,-4,-3,-6,-4
1480628794258633,-5,-11,1,9,0,-4,4,1
1480628794258633,4,0,9,-4,-6,-3,-9,-7
1480628794275178,4,2,-4,-1,-4,1,2,6
1480628794275178,-15,-14,-8,9,9,-2,-2,-7
1480628794280191,-7,-1,8,16,-8,-1,1,-5
1480628794280191,5,-1,2,-3,1,0,5,7
1480628794303252,2,4,8,12,2,-3,-2,-4
1480628794303252,3,-7,2,-21,-5,1,4,0
1480628794304255,-4,3,3,3,3,-1,2,-2
1480628794304255,0,-8,-12,-8,-2,-3,-5,-6
1480628794325814,10,-2,3,-17,1,3,3,14
1480628794325814,-6,-4,14,23,-2,-4,-4,-11
1480628794326815,-1,2,9,2,1,-2,-18,-6
1480628794326815,6,1,-3,28,2,5,25,13
1480628794332832,1,-3,1,-14,-1,-1,-5,2
1480628794332832,-1,7,13,2,-2,-2,-19,-3
1480628794333834,11,5,-2,-15,-1,4,18,7
1480628794333834,17,11,-13,-56,-2,1,-5,14
1480628794354890,-14,-5,11,35,0,-1,-9,-10
1480628794354890,0,3,16,39,0,-1,4,2
1480628794355892,32,2,3,-17,-1,2,-1,13
1480628794355892,-38,-3,-5,-17,-2,-1,-15,-29
1480628794377450,-18,-10,-5,16,0,-5,-6,-4
1480628794377450,6,0,-6,-18,-3,-1,26,12
1480628794378453,8,8,-4,-5,4,6,10,-7
1480628794378453,13,2,24,35,5,2,-5,0
1480628794392490,-2,-12,-9,-36,-9,-5,-12,-6
1480628794392490,-8,-1,0,-8,1,0,-4,-7
1480628794393493,-16,-7,-10,-5,-8,-5,9,3
1480628794393493,8,0,6,16,-1,-3,-1,4
1480628794415049,0,5,9,-5,3,1,1,2
1480628794415049,0,-3,-7,-6,0,5,8,5
1480628794416053,-1,2,-3,-24,0,1,-1,5
1480628794416053,5,2,9,-11,-3,-3,-7,1
1480628794438111,1,3,5,46,2,-1,2,-2
1480628794438111,5,6,0,-16,-5,0,-3,-1
1480628794439114,-12,-5,-5,8,-2,-6,-21,-11
1480628794439114,-4,5,4,-28,-4,-1,7,-1
1480628794460672,7,0,-12,18,-2,-1,3,-2
1480628794460672,-1,-7,-2,1,0,0,0,3
1480628794461674,-10,-2,-8,-31,-1,0,1,-2
1480628794461674,4,0,7,75,2,-2,-4,0
1480628794475711,0,5,7,-29,-5,-1,-2,-3
1480628794475711,7,2,-12,-21,-1,1,2,4
1480628794476714,-13,-12,-14,0,-9,-7,-3,-4
1480628794476714,3,1,7,-9,1,0,-2,-1
1480628794497769,2,-3,-6,-10,-5,1,-1,-7
1480628794497769,-12,-6,5,14,2,0,4,-2
1480628794498271,3,5,10,-9,4,2,3,1
1480628794498271,-3,-6,-13,-5,-2,-2,1,1
1480628794520830,4,12,20,23,5,-1,-7,-1
1480628794520830,5,6,-6,-28,2,2,-8,0
1480628794521332,-8,-9,-10,22,-2,-3,8,2
1480628794521332,-3,-5,-11,0,1,-2,-7,-5
1480628794535390,9,2,7,-8,-1,1,-2,6
1480628794535390,0,-1,-1,-10,0,2,3,-1
1480628794535871,-6,0,5,15,6,3,1,-1
1480628794535871,0,-6,-14,-10,-7,-3,-5,-3
1480628794557428,1,0,10,7,4,2,2,3
1480628794557428,4,0,2,6,-6,-5,2,3
1480628794558431,-5,-3,5,4,-4,-3,-9,-6
1480628794558431,4,11,9,4,4,3,4,5
1480628794572468,2,-7,-23,2,-3,1,12,10
1480628794572468,-5,-14,-28,-56,-13,-6,-12,-4
1480628794573472,-3,4,41,66,4,-4,-2,-3
1480628794573472,1,-1,-7,-14,-2,1,6,2
1480628794610570,-3,1,1,13,1,0,0,-3
1480628794610570,2,5,3,2,3,1,-8,-5
1480628794611572,5,5,-5,-32,-1,2,4,10
1480628794611572,-4,-6,-4,4,2,-2,3,-1
1480628794617588,-3,0,11,20,0,-3,-1,-1
1480628794617588,2,-1,2,24,0,-3,-1,0
1480628794618591,-4,-5,-17,-36,-7,-4,-8,-7
1480628794618591,-1,-3,-5,-16,1,-2,-5,-4
1480628794640650,-5,0,-13,-11,-1,1,0,-6
1480628794640650,2,6,-5,2,0,3,0,1
1480628794641652,-3,-7,5,28,0,-2,-2,-2
1480628794641652,7,9,8,-7,-6,2,0,3
1480628794655188,-3,-4,-3,8,-7,-6,-2,-4
1480628794655188,4,3,-3,-10,6,3,7,6
1480628794655690,0,3,8,22,6,1,1,-1
1480628794655690,-2,-4,10,-3,-2,1,0,0
1480628794677749,0,1,-9,-12,1,1,-7,-2
1480628794677749,0,-2,-5,16,-8,-7,-23,-8
1480628794678251,5,6,-2,-33,0,8,46,18
1480628794678251,-6,-6,-9,10,-1,-4,-2,-4
1480628794692790,0,0,-12,-15,3,2,-1,0
1480628794692790,-5,-8,4,9,-4,-6,-4,-3
1480628794693290,-6,-6,-1,18,-2,-5,-17,-10
1480628794693290,6,-2,1,17,1,0,0,0
1480628794715348,6,15,13,-39,8,3,9,7
1480628794715348,-4,1,6,50,0,-3,1,-3
1480628794716351,-2,-3,-8,-37,-11,1,-4,-3
1480628794716351,2,-7,3,31,16,7,9,9
1480628794737407,2,3,11,-8,9,0,-5,-2
1480628794737407,-11,-14,-28,-31,-22,-10,-5,-7
1480628794738410,3,-3,-22,5,-17,-9,-6,0
1480628794738410,-2,-2,-7,-13,25,10,-4,0
1480628794752447,-1,-6,2,-10,-8,1,3,0
1480628794752447,2,2,11,-7,10,5,6,3
1480628794753450,-7,-9,-2,14,-15,-7,-5,-4
1480628794753450,-3,0,7,-16,-21,-9,-7,-4
1480628794775510,8,15,5,25,4,0,4,5
1480628794775510,-6,-9,18,14,13,2,0,-3
1480628794776512,0,2,-11,-27,8,0,-7,-2
1480628794776512,2,6,0,13,4,2,3,2
1480628794797567,-10,-20,-31,-13,-9,-7,-5,-7
1480628794797567,6,12,-1,-24,-11,5,5,6
1480628794798570,2,9,18,-15,0,3,-2,-1
1480628794798570,-4,-13,-6,18,0,-5,-5,-2
1480628794812609,-3,2,11,17,-2,2,3,0
1480628794812609,1,1,-6,7,7,3,0,0
1480628794813611,0,-10,-5,6,-10,2,4,3
1480628794813611,2,22,18,-38,0,-1,-2,-2
1480628794835169,-2,-8,-8,29,6,-2,-1,-3
1480628794835169,1,4,13,-43,-2,2,3,2
1480628794835669,2,7,-5,-2,-3,0,-4,-2
1480628794835669,-3,-1,16,40,5,-8,-6,-6
1480628794857727,1,6,20,9,-6,0,1,1
1480628794857727,-5,-3,-10,25,17,-1,0,-2
1480628794859233,6,8,0,-18,10,11,5,4
1480628794859233,-4,-7,-25,-39,-12,-4,-2,-3
1480628794872767,-5,-11,3,39,-14,-4,-2,-3
1480628794872767,4,9,20,17,35,1,0,-1
1480628794873270,-2,-3,-11,-38,-21,2,-2,-2
1480628794873270,0,-3,-4,-4,11,3,-1,1
1480628794895329,1,-4,22,23,-1,0,0,1
1480628794895329,-3,-14,-3,-3,-15,3,2,4
1480628794895829,-2,-2,-17,57,41,-5,-4,-1
1480628794895829,-3,2,2,-54,-20,5,1,-1
1480628794917386,-3,-11,-35,-42,11,3,-2,-4
1480628794917386,6,12,3,-12,-14,1,1,2
1480628794918389,-2,-8,16,56,7,-5,-1,0
1480628794918389,-5,-5,10,6,-22,-5,-2,-2
1480628794931925,6,15,-17,-29,-15,-3,3,6
1480628794931925,-2,-3,-1,7,36,-1,-3,-5
1480628794939946,1,1,11,-12,10,6,1,1
1480628794939946,2,1,-5,5,-5,-4,0,-1
1480628794954986,-8,-8,2,32,25,4,-3,-3
1480628794954986,-3,1,7,35,-40,-10,-3,-6
1480628794955990,0,-7,-12,-34,-21,-10,-1,-2
1480628794955990,-1,-2,1,4,32,13,2,1
1480628794977547,2,1,13,-3,6,7,0,0
1480628794977547,-3,-10,-49,-43,-10,-6,-3,-2
1480628794978549,-2,15,25,11,1,-3,-3,-4
1480628794978549,2,3,-15,-48,-19,-1,0,3
1480628794993589,-4,-10,-4,79,24,-7,-3,-2
1480628794993589,3,7,7,-49,-20,4,5,5
1480628795000106,-1,-4,-13,-14,-6,-3,-7,-7
1480628795000106,-9,-3,28,48,2,-8,-6,-7
1480628795015147,5,14,7,-35,-12,-1,2,3
1480628795015147,1,-9,1,27,17,10,3,0
1480628795016149,-5,-1,-6,-15,-14,-3,-5,-4
1480628795016149,-1,-3,-2,14,19,-2,0,-3
1480628795037706,-2,0,4,-25,-12,3,1,-2
1480628795037706,-3,4,16,16,-43,-21,-7,-5
1480628795038207,6,2,-28,-35,26,7,3,4
1480628795038207,12,17,16,16,8,12,10,8
1480628795051743,-12,-24,-30,-36,-42,-18,-13,-10
1480628795051743,3,2,-1,16,32,8,5,5
1480628795060269,2,8,14,-10,-22,8,1,-2
1480628795060269,-7,-7,-6,31,12,-10,-8,-5
1480628795075308,8,12,13,9,6,2,5,5
1480628795075308,-1,1,-11,-20,6,0,-4,-4
1480628795075811,-2,-9,-7,-14,-1,-3,-3,-3
1480628795075811,-2,-3,-20,-14,-30,-3,0,2
1480628795105888,-4,0,28,4,32,12,1,0
1480628795105888,2,5,3,17,-8,-9,-4,-3
1480628795106891,-2,-3,-19,-32,-7,-4,1,-1
1480628795106891,0,-4,12,-2,-32,-7,-4,-4
1480628795111903,-4,2,-2,7,30,-2,-3,-5
1480628795111903,0,-7,9,-42,-10,7,8,7
1480628795119924,0,1,16,32,34,13,6,5
1480628795119924,6,8,8,5,-12,0,3,5
1480628795134965,-7,-12,-47,-66,-35,-15,-9,-9
1480628795134965,9,12,20,28,13,-4,1,2
1480628795135967,-12,-29,-34,-24,-35,-10,-4,-4
1480628795135967,-4,-4,2,38,33,2,-3,-1
1480628795157525,6,12,7,-7,-3,11,10,7
1480628795157525,2,4,-10,11,-1,-4,0,-2
1480628795158527,-5,-5,23,-28,-19,-5,0,0
1480628795158527,3,6,-3,0,0,-6,-2,3
1480628795181087,1,-8,-15,-26,47,14,-1,0
1480628795181087,-6,-7,3,67,-9,-10,-3,-5
1480628795182090,7,15,42,23,-4,1,4,5
1480628795182090,-11,-18,-23,-17,-21,-7,-3,-4
1480628795195125,16,26,24,-12,-16,-8,2,5
1480628795195125,-4,-11,-10,11,-18,4,-6,-3
1480628795195627,7,3,20,4,-5,1,3,4
1480628795195627,0,5,-3,16,11,0,-1,-3
1480628795217684,-6,-4,20,43,16,-1,-1,-3
1480628795217684,-4,-6,-20,-90,-2,4,0,0
1480628795218187,-11,-4,-19,47,-9,-13,-11,-10
1480628795218187,2,-3,-5,-24,-25,-10,1,1
1480628795231722,-1,-4,-8,10,-33,-6,-1,1
1480628795231722,-2,-6,-11,-7,5,-2,1,3
1480628795240247,-6,-22,-30,-34,36,4,-5,-6
1480628795240247,6,10,5,4,-7,-3,-5,-3
1480628795255786,0,8,31,18,-26,-9,-2,3
1480628795255786,-2,3,-7,-24,7,0,1,0
1480628795256789,-3,-4,-20,14,27,17,2,0
1480628795256789,3,0,17,-19,-23,0,2,0
1480628795277845,2,-3,-18,-47,8,-1,-1,1
1480628795277845,-8,-4,35,89,29,4,-7,-8
1480628795278347,4,8,17,33,-16,-11,3,3
1480628795278347,10,21,11,-43,-17,12,4,3
1480628795300906,-5,-14,-37,-29,38,18,5,0
1480628795300906,-5,-2,-2,12,-16,-7,-3,0
1480628795301408,-1,-2,-23,-10,21,7,2,1
1480628795301408,-1,-2,2,0,-79,-26,-5,-4
1480628795314944,-2,-4,-23,-17,44,11,-5,-5
1480628795314944,6,5,15,-14,2,8,5,6
1480628795315946,2,14,25,34,-14,-12,-10,-7
1480628795315946,-9,-19,-20,-8,62,19,2,-3
1480628795337503,-5,-9,-4,-18,-43,-16,-6,-5
1480628795337503,8,13,28,-29,1,4,2,2
1480628795338507,-1,6,-7,20,-15,-1,1,-2
1480628795338507,2,12,8,30,-12,-9,-2,2
1480628795361067,0,-1,-36,-80,26,8,8,5
1480628795361067,-2,0,30,85,-33,-9,-7,-7
1480628795361569,0,-5,-5,-24,29,13,3,1
1480628795361569,2,-1,-8,-10,12,9,6,5
1480628795383626,-2,5,18,18,-14,-6,0,-4
1480628795383626,19,35,12,-11,-25,-4,7,10
1480628795384127,3,-7,24,12,42,17,9,10
1480628795384127,-12,-21,-19,-16,56,10,-5,-6
1480628795397664,-3,-5,13,32,-31,-10,-4,-4
1480628795397664,-1,-1,-15,-28,-10,-1,1,-2
1480628795398165,-2,7,14,24,-6,-5,-1,0
1480628795398165,2,0,-12,-4,-5,-9,-4,-2
1480628795420724,-4,-9,11,6,-25,-1,-1,-1
1480628795420724,-4,-7,-19,-54,-20,-4,-3,-4
1480628795421727,3,3,5,16,19,2,9,7
1480628795421727,-11,-17,-39,7,15,3,-6,-6
1480628795435765,5,7,-37,-45,5,-6,1,6
1480628795435765,-6,-11,15,97,5,13,3,3
1480628795436266,-9,-19,-37,-95,-48,-16,-5,-6
1480628795436266,-1,-2,-17,14,19,8,3,2
1480628795457325,9,15,44,64,-23,0,9,9
1480628795457325,2,-1,-18,-49,37,4,-1,-3
1480628795458326,6,4,2,-50,-24,5,7,10
1480628795458326,-10,-9,35,91,-28,-19,-10,-10
1480628795480885,2,4,-6,0,32,9,0,0
1480628795480885,-9,-6,1,0,-30,-16,-5,-5
1480628795481386,14,33,30,29,-57,-15,-3,2
1480628795481386,0,-9,-30,-35,74,15,-1,-3
1480628795494922,0,1,19,9,-17,4,3,-1
1480628795494922,4,15,26,18,0,-1,5,6
1480628795495939,-3,-17,-27,-74,-46,-8,-2,-2
1480628795495939,3,9,25,83,-34,-15,-4,-1
1480628795517483,-7,-6,-13,18,39,16,-1,-4
1480628795517483,-2,-10,-5,-28,53,29,7,-1
1480628795518486,5,-4,45,85,26,0,1,4
1480628795518486,3,3,-18,-56,-52,-12,0,1
1480628795548064,-8,-9,1,57,-24,-22,-9,-7
1480628795548064,-5,-12,-29,-32,2,-2,-4,-6
1480628795549067,6,20,4,42,1,-5,1,1
1480628795549067,-2,-6,-55,-87,80,28,2,0
1480628795555083,-3,-2,-8,-18,-26,-8,-4,-4
1480628795555083,1,3,14,61,16,-1,-3,1
1480628795556085,-13,-9,-18,6,-6,-8,-12,-15
1480628795556085,9,18,30,-5,-26,-9,2,3
1480628795577643,-4,-13,-11,-63,16,6,-2,-2
1480628795577643,3,7,-6,-8,-11,-5,4,5
1480628795578147,-8,-8,19,67,5,-6,-13,-14
1480628795578147,0,-5,0,-28,9,9,6,4
1480628795600704,-6,-1,18,26,-10,-10,-11,-8
1480628795600704,7,15,11,-59,-79,-18,0,2
1480628795601205,-9,-21,-5,-15,76,5,-4,-5
1480628795601205,1,5,31,25,54,52,13,1
1480628795615243,4,2,-27,-35,-41,-9,1,4
1480628795615243,-17,-20,3,54,-38,-19,-14,-16
1480628795616246,13,28,44,0,-23,-15,1,5
1480628795616246,0,-25,-19,-87,34,27,12,10
1480628795637803,1,6,39,68,0,-3,-2,-2
1480628795637803,-7,-25,-37,6,5,2,0,-4
1480628795638304,-11,3,-1,8,-38,-16,-9,-9
1480628795638304,1,2,23,41,-56,-32,-11,-7
1480628795660864,-5,-6,-42,-63,-9,5,0,2
1480628795660864,7,0,-10,9,63,11,1,3
1480628795661365,-4,-3,-14,-3,5,17,3,-2
1480628795661365,-12,-21,-29,-53,-12,-14,-11,-11
1480628795674904,11,15,46,39,-29,-5,4,4
1480628795674904,-13,-13,-25,-23,-25,-22,-16,-9
1480628795675906,12,-8,-43,-38,52,30,17,16
1480628795675906,-9,1,42,62,-44,-28,-10,-7
1480628795705984,-4,-12,-6,-12,-1,-4,-11,-12
1480628795705984,8,13,3,-53,16,14,9,10
1480628795706485,9,13,15,23,-67,-8,8,4
1480628795706485,-9,9,-7,38,60,-13,-15,-9
1480628795721027,9,1,-15,-13,-28,18,18,14
1480628795721027,-13,-26,37,67,6,-9,-5,-5
1480628795721525,-6,-1,-13,-12,5,-1,0,2
1480628795721525,-4,-4,-35,-52,-34,-8,-1,0
1480628795735062,1,-1,27,86,56,9,-1,1
1480628795735062,2,12,-16,-51,-9,2,-1,-5
1480628795736064,4,13,27,64,-22,-12,-1,1
1480628795736064,-1,-1,6,-39,-23,-4,1,1
1480628795757623,3,12,-11,-54,17,6,3,4
1480628795757623,-1,-5,-3,2,-11,3,0,0
1480628795758124,3,13,26,13,29,7,5,5
1480628795758124,-6,-21,-32,2,-4,-5,-5,-3
1480628795780683,-2,0,-15,-78,-1,0,-4,-5
1480628795780683,-1,4,11,72,-1,-8,0,-1
1480628795781685,8,10,-3,-9,3,5,7,11
1480628795781685,4,4,12,10,46,10,6,5
1480628795795221,2,6,13,2,1,20,11,8
1480628795795221,-5,-4,-8,-27,6,7,-3,-5
1480628795795723,-5,-5,-12,-44,33,9,-2,-6
1480628795795723,2,10,-9,10,-74,-19,-3,-2
1480628795826305,0,-6,-1,19,-5,-11,-3,0
1480628795826305,9,10,-1,10,14,5,-2,1
1480628795827307,-8,-22,-11,-13,12,4,-5,-8
1480628795827307,6,9,9,-18,-3,5,2,4
1480628795840343,-5,-4,8,53,25,-9,-37,-15
1480628795840343,9,8,-1,-23,-11,15,53,28
1480628795840844,-6,0,3,-7,-15,-13,-15,-17
1480628795840844,6,11,6,23,-2,5,27,7
1480628795854378,3,1,-3,-24,13,2,3,7
1480628795854378,-3,-4,1,12,-13,-9,-15,-13
1480628795862901,8,-9,-14,-9,-2,1,-3,10
1480628795862901,-10,4,17,-1,21,5,-7,-19
1480628795877439,-8,-4,-7,16,-33,-13,-16,-11
1480628795877439,-2,6,14,4,19,5,19,3
1480628795884961,-15,-18,-21,-9,8,1,-8,-8
1480628795884961,9,2,16,12,-4,5,3,6
1480628795908524,3,3,-17,-8,-15,-3,10,4
1480628795908524,-3,-7,-6,-20,8,2,-9,-6
1480628795909025,3,5,-8,14,7,-1,1,2
1480628795909025,-1,4,10,2,-15,-4,-17,-2
1480628795914540,-11,-5,6,20,-8,-6,14,-10
1480628795914540,0,-6,-16,-27,7,1,1,1
1480628795922559,-3,-1,-10,-3,-11,-3,0,-2
1480628795922559,-7,-9,-1,10,-1,0,-1,-5
1480628795938101,15,4,9,-6,2,-4,8,31
1480628795938101,2,13,-1,4,2,0,-19,-11
1480628795938603,-4,-5,-13,-3,-6,1,4,-11
1480628795938603,-3,-2,1,20,-7,-4,-6,0
1480628795960161,6,1,-3,-3,8,4,4,3
1480628795960161,-5,-7,-8,-16,-7,-7,-6,-8
1480628795960662,4,2,-3,-13,8,-3,-14,20
1480628795960662,11,11,12,24,-1,12,31,10
1480628795974199,-6,-12,3,25,-12,-7,-4,-4
1480628795974199,7,3,-23,-5,11,-3,-8,-3
1480628795982720,-5,-2,7,3,5,3,-2,-13
1480628795982720,1,2,9,11,3,0,-7,-1
1480628795998262,-6,-8,-9,3,12,-6,-1,0
1480628795998262,1,0,22,-3,-21,5,0,-2
1480628795999264,-1,0,-15,-59,26,8,6,2
1480628795999264,3,-3,-6,18,-5,-5,-2,11
1480628796020320,-9,2,24,37,2,-3,-2,-13
1480628796020320,0,-5,8,17,-2,-2,-3,4
1480628796021323,2,4,8,-12,-16,-1,-2,0
1480628796021323,-5,-4,-8,-16,1,-1,5,0
1480628796035861,5,2,-10,-7,-4,0,3,1
1480628796035861,-3,1,14,18,14,-1,-10,-5
1480628796042380,-13,-25,-55,-7,-16,-2,10,4
1480628796042380,5,-2,-6,6,1,-3,-11,-11
1480628796057419,9,0,-5,-1,-9,1,1,15
1480628796057419,1,16,8,-37,11,7,9,2
1480628796058424,1,-5,-20,12,-4,-4,-7,4
1480628796058424,1,1,10,1,3,6,-6,-2
1480628796079978,-18,-7,-17,-8,6,-2,-19,-22
1480628796079978,-4,8,6,-4,2,2,17,3
1480628796080982,-4,-4,24,-9,-10,1,2,-2
1480628796080982,-6,-3,31,95,7,-7,-4,-1
1480628796103041,4,4,-11,-66,-11,-2,-4,1
1480628796103041,-4,-15,-17,-18,6,-4,-10,-2
1480628796104043,0,3,35,32,-9,0,-1,-6
1480628796104043,-3,-13,-33,-61,-7,-1,4,6
1480628796117581,-3,-3,11,26,7,5,-4,-10
1480628796117581,5,2,12,-45,-9,-1,4,6
1480628796118582,-5,-4,-13,36,-8,-10,-2,-5
1480628796118582,6,1,-11,19,3,2,-14,1
1480628796141645,2,9,-12,-7,0,5,18,8
1480628796141645,-7,-30,-41,1,1,0,-7,1
1480628796142648,9,21,31,-3,11,5,-1,1
1480628796142648,2,-2,-25,-33,-19,-7,-10,-6
1480628796163200,0,2,3,9,0,-3,0,-4
1480628796163200,3,11,1,34,3,0,1,5
1480628796164203,-2,-10,7,-23,2,2,-3,-5
1480628796164203,-3,2,9,-34,-4,0,4,2
1480628796185761,2,-9,-11,-4,-5,-1,8,8
1480628796185761,1,6,11,17,8,1,-7,-7
1480628796186765,3,2,1,11,-4,-3,-2,-1
1480628796186765,5,2,18,20,-1,-1,5,7
1480628796200299,-1,-3,0,-16,5,2,1,-8
1480628796200299,-1,2,-6,44,-3,-4,-7,-1
1480628796200801,-1,0,-17,-27,-1,2,4,2
1480628796200801,5,4,-7,-57,16,9,10,4
1480628796214336,-4,-5,12,18,-26,-11,-8,-2
1480628796214336,-5,-6,1,10,-3,-1,0,-2
1480628796222859,5,11,0,3,-1,-3,2,-1
1480628796222859,-4,2,-5,18,8,1,1,2
1480628796245921,5,10,11,12,0,-1,-3,0
1480628796245921,-7,0,8,-33,-8,-4,-6,-5
1480628796246421,2,-6,-14,11,7,4,-7,-2
1480628796246421,1,1,0,-15,-4,0,7,2
1480628796259958,-1,4,10,24,8,5,7,1
1480628796259958,-1,2,-2,-3,-4,-5,-11,-3
1480628796260960,1,-5,-5,-41,-7,-2,1,1
1480628796260960,-1,8,20,21,-8,-4,-6,-4
1480628796283019,1,0,-10,-8,29,4,-5,-2
1480628796283019,-3,-5,-1,23,-11,-4,2,0
1480628796284022,0,-7,-13,-14,-3,6,2,1
1480628796284022,-4,-13,3,-1,-7,-4,-1,-5
1480628796297558,1,2,14,4,-1,-2,0,1
1480628796297558,1,-5,-2,-2,18,-1,4,4
1480628796298561,2,8,29,67,-4,0,0,2
1480628796298561,-8,-11,-49,-72,-14,-5,-6,-8
1480628796328139,-3,-8,2,-1,0,1,-4,-3
1480628796328139,5,3,-4,12,6,2,-2,-2
1480628796329142,-2,3,-8,-29,-1,-1,6,-3
1480628796329142,0,-6,14,69,2,-2,-5,6
1480628796343179,-1,-2,5,-17,-4,-2,2,-13
1480628796343179,-7,2,13,-5,-8,1,-1,4
1480628796344183,6,7,28,35,10,1,3,6
1480628796344183,1,6,2,-16,0,4,-4,-1
1480628796357717,-2,-9,-17,-8,-2,-1,2,6
1480628796357717,-4,0,16,10,1,4,0,-8
1480628796358220,-8,-9,-18,-22,-6,-6,-4,-7
1480628796358220,-2,6,6,11,1,-1,2,3
1480628796380279,2,6,21,1,-3,-2,-5,1
1480628796380279,0,-14,-40,-25,-21,-3,8,2
1480628796380779,-1,6,24,14,9,0,-8,-2
1480628796380779,2,13,21,-2,3,0,5,-5
1480628796403841,-6,-12,-4,7,4,1,3,0
1480628796403841,7,2,5,4,12,5,1,3
1480628796404846,-2,-4,-15,-6,-16,-8,-6,-3
1480628796404846,2,0,8,-1,-2,-1,1,5
1480628796417376,-2,4,-3,-13,-4,1,-2,-2
1480628796417376,3,3,8,16,1,-3,2,4
1480628796418380,-2,-2,-6,-32,3,2,2,-2
1480628796418380,0,-3,-16,24,8,2,2,-1
1480628796439938,-2,2,1,-3,-1,-1,0,-2
1480628796439938,2,-1,-5,-10,-7,-3,-4,0
1480628796440940,-3,-6,-10,9,-2,-1,-1,-3
1480628796440940,5,5,0,-7,-8,-2,0,5
1480628796464502,-2,-4,0,-6,11,-1,-2,-3
1480628796464502,2,3,6,4,5,8,5,4
1480628796465004,3,2,1,-11,-9,-3,0,-1
1480628796465004,5,11,16,5,-1,1,1,3
1480628796477537,-4,-4,-13,1,-3,-4,-3,-2
1480628796477537,3,5,16,-6,-3,1,0,-1
1480628796478541,-4,2,-9,29,17,3,1,-2
1480628796478541,-3,-1,-22,-49,-15,-5,-3,-3
1480628796500097,-1,-7,-12,7,-20,-6,-3,-2
1480628796500097,0,4,12,-22,0,-2,-1,-1
1480628796501099,1,1,-17,0,-8,-6,1,1
1480628796501099,-7,-11,-8,28,17,10,1,-5
1480628796523158,0,0,-2,-3,19,3,0,-3
1480628796523158,0,-1,-2,6,2,1,-1,-3
1480628796525164,-3,-7,-5,-21,-28,-7,-4,1
1480628796525164,1,0,2,5,2,0,0,-3
1480628796537696,4,5,22,33,1,1,2,5
1480628796537696,-5,-7,-15,-48,-15,-5,-5,-4
1480628796538202,-1,2,16,20,18,2,3,-2
1480628796538202,0,-12,-5,13,-9,-5,-3,-3
1480628796560759,2,8,-3,-8,-4,3,-4,-3
1480628796560759,2,0,-1,23,4,-4,-1,-1
1480628796561259,1,4,8,-15,7,4,1,2
1480628796561259,0,1,8,-14,-10,-4,2,1
1480628796583318,-1,-3,8,23,4,-1,-4,-3
1480628796583318,-6,-1,-23,8,13,0,-3,-3
1480628796584321,-4,-6,1,-7,-2,0,-1,-3
1480628796584321,2,9,31,13,-10,-1,0,1
1480628796597355,1,4,3,26,12,-3,-1,-2
1480628796597355,-3,-7,-17,-2,-28,1,0,0
1480628796598358,1,-2,-11,-45,2,0,4,4
1480628796598358,-1,-2,-6,-20,-4,-8,-5,-5
1480628796619923,-5,-1,-5,-2,1,-6,-1,0
1480628796619923,3,7,37,60,41,7,1,0
1480628796620919,-1,-4,-14,-25,-17,2,0,-1
1480628796620919,-3,-3,-8,-2,5,0,1,4
1480628796643479,3,-1,-15,-38,-7,2,7,7
1480628796643479,1,-2,10,32,-2,-6,-2,-1
1480628796643980,-2,-3,6,36,-5,-2,-3,-3
1480628796643980,-3,-4,-19,-36,14,3,-1,-2
1480628796657520,0,5,7,0,-21,-3,0,0
1480628796657520,-4,-7,-20,-28,-14,-8,-5,0
1480628796658518,1,-1,18,13,8,3,2,-1
1480628796658518,1,10,30,14,-16,-4,-3,-2
1480628796688096,1,-3,-29,-46,26,12,3,0
1480628796688096,-3,-2,13,10,3,-4,-2,-1
1480628796690102,-3,-4,3,39,-13,-6,-4,-3
1480628796690102,-2,-5,-2,-1,-11,-3,-2,-3
1480628796703137,4,2,2,-35,-19,-4,1,2
1480628796703137,2,0,-7,-1,-2,4,3,4
1480628796703638,0,2,5,37,26,3,-2,-3
1480628796703638,-3,-5,-16,-11,8,1,2,1
1480628796717677,1,-5,9,-7,-9,3,1,3
1480628796717677,-4,-4,-28,-9,9,0,-4,-7
1480628796718178,3,9,9,2,8,0,0,2
1480628796718178,2,-2,-18,-14,-20,2,5,3
1480628796741743,1,2,4,-3,18,2,1,2
1480628796741743,-2,-8,4,16,-20,-13,-2,-4
1480628796742743,-3,-11,-10,-5,59,14,1,1
1480628796742743,-5,-9,-14,15,-3,-1,-4,-6
1480628796763297,1,4,0,17,0,-5,-3,-2
1480628796763297,0,3,-15,-56,-16,-3,2,4
1480628796764300,4,13,28,30,-7,1,3,2
1480628796764300,-5,-18,-28,-26,1,-1,0,-1
1480628796777839,1,4,6,9,-4,0,1,0
1480628796777839,1,-3,-12,4,1,-2,0,2
1480628796778339,-5,-8,-6,-34,-16,-4,-1,-3
1480628796778339,4,17,19,25,39,4,2,2
1480628796799894,-2,0,-9,-3,-38,-3,0,-3
1480628796799894,2,5,1,0,16,4,1,3
1480628796800897,-3,-7,-10,-10,-9,-3,-4,-4
1480628796800897,-2,0,-23,26,2,-5,-1,-4
1480628796823457,-2,-5,-8,-17,-12,-6,-3,5
1480628796823457,6,12,17,9,-16,1,3,5
1480628796823960,-4,-2,-37,-19,32,4,0,0
1480628796823960,2,0,11,-14,-17,-7,-2,-1
1480628796846018,-7,-15,-13,7,16,4,-2,-8
1480628796846018,-4,-7,-3,-16,7,2,-6,-7
1480628796846518,4,8,20,35,-23,-8,2,2
1480628796846518,-4,-5,4,16,25,2,-2,-2
1480628796860054,6,10,0,-48,-11,0,1,0
1480628796860054,0,2,28,60,-13,0,-3,-2
1480628796861056,-2,-7,-23,-44,-13,-9,-2,1
1480628796861056,-9,-13,8,10,-1,3,-4,-6
1480628796883116,12,16,21,31,-17,4,12,11
1480628796883116,0,-2,-22,-28,33,5,0,2
1480628796884119,-4,-4,-1,9,-4,-1,0,5
1480628796884119,3,2,3,-7,13,5,-3,-2
1480628796905676,-1,1,-11,-23,-11,-3,-4,-1
1480628796905676,-6,0,9,61,3,-8,-2,-3
1480628796906678,0,1,11,-19,-58,-15,-4,-1
1480628796906678,3,0,-30,-41,47,15,7,4
1480628796920215,-4,-7,4,34,1,-2,-1,-2
1480628796920215,0,3,1,-32,-30,-11,-1,0
1480628796920718,-4,-2,1,15,52,16,-1,-2
1480628796920718,-2,1,4,11,-38,-14,-4,-4
1480628796943276,-3,-5,-6,-12,13,-1,-4,-5
1480628796943276,6,11,9,-8,14,7,2,0
1480628796944279,-2,-12,-15,9,-55,-16,-5,-2
1480628796944279,1,-6,-5,-33,32,22,7,6
1480628796956812,-3,3,9,22,-14,-10,-3,-5
1480628796956812,-10,-20,-36,-9,18,1,-4,-4
1480628796965334,7,11,3,-25,12,7,7,4
1480628796965334,0,2,18,53,6,-4,-3,-1
1480628796979872,-1,-2,17,-32,-19,-2,-1,-1
1480628796979872,-3,-6,15,20,-35,-9,-1,-3
1480628796980875,-1,8,-23,-18,-1,-3,1,1
1480628796980875,-1,0,1,-45,-43,-8,0,5
1480628797003435,-7,-2,9,71,30,-8,-6,-6
1480628797003435,5,10,23,25,1,8,2,0
1480628797003937,-2,0,-10,-53,43,15,2,-4
1480628797003937,-6,-3,18,53,-33,-20,-10,-10
1480628797016974,-4,-3,-10,-15,13,-3,-1,-1
1480628797016974,-3,1,13,-25,-57,-5,-6,-17
1480628797024995,2,-1,16,8,25,-8,-5,10
1480628797024995,-1,-7,-7,-27,-22,6,4,5
1480628797040033,0,-14,-16,-44,10,10,4,5
1480628797040033,-10,-8,5,39,29,0,2,2
1480628797041036,2,8,8,-6,-52,-12,-5,-10
1480628797041036,-7,-7,6,74,21,-7,-8,-15
1480628797064097,4,5,5,19,8,2,3,6
1480628797064097,2,-1,-2,-40,4,-1,-2,3
1480628797064598,0,-2,10,-11,-23,5,3,1
1480628797064598,6,11,-10,-19,57,5,4,5
1480628797077131,-4,-7,5,34,-17,5,-1,-3
1480628797077131,4,0,-17,-13,15,-1,5,8
1480628797085154,-3,-1,-3,53,-25,-9,-6,-5
1480628797085154,2,7,7,-23,-3,-1,0,-1
1480628797100193,-1,-13,-13,-6,7,8,5,2
1480628797100193,-1,-11,-21,-34,-8,4,-3,-7
1480628797100694,-3,-6,-7,-1,13,4,2,-6
1480628797100694,2,1,-16,-21,-7,-3,5,7
1480628797123254,-1,3,1,-24,-29,-11,-3,0
1480628797123254,4,0,-1,18,25,5,4,3
1480628797124257,11,15,20,8,-1,-4,-2,-1
1480628797124257,-1,-6,6,5,-48,-2,0,-3
1480628797146315,-1,-3,-22,11,27,1,-2,0
1480628797146315,-2,1,0,-22,12,8,1,-3
1480628797147318,5,10,16,-3,0,5,5,5
1480628797147318,-4,-6,-6,40,-4,0,-1,2
1480628797159852,4,17,24,-16,1,3,2,-3
1480628797159852,-4,-14,-77,-101,-61,-24,-7,5
1480628797160854,-5,-5,19,52,89,23,2,-4
1480628797160854,-6,1,22,56,-2,-1,-3,-5
1480628797183916,6,11,-3,-6,9,-7,-2,-2
1480628797183916,2,4,5,-13,-3,9,3,0
1480628797184919,1,-3,21,23,-40,-15,0,6
1480628797184919,-1,-5,-6,-39,10,-2,-9,-12
1480628797212993,-1,4,11,-31,14,3,2,0
1480628797212993,-10,-7,0,-22,4,-10,-11,-10
1480628797213996,0,-5,-19,-11,7,12,8,9
1480628797213996,0,1,4,14,-14,-8,-2,1
1480628797220012,-1,8,29,30,-14,-6,-2,-3
1480628797220012,-6,-20,-18,7,28,10,0,1
1480628797221015,0,-5,-9,-20,-22,-7,-4,-7
1480628797221015,2,2,6,-1,-4,-2,0,0
1480628797243575,4,2,-10,3,-11,-4,-3,-3
1480628797243575,-10,-14,-10,12,44,1,-3,1
1480628797244577,1,-3,-23,-30,-29,-5,-3,-1
1480628797244577,-2,0,7,14,5,-4,0,2
1480628797273152,0,-6,-33,-23,-21,1,0,0
1480628797273152,2,10,37,27,18,12,5,-4
1480628797274156,-10,-10,-19,-16,-5,-3,-6,-4
1480628797274156,21,29,19,-34,-24,-3,9,16
1480628797280172,-20,-26,-6,68,34,-11,-18,-20
1480628797280172,8,13,14,-9,10,21,10,10
1480628797281676,-1,3,-2,-6,-2,-3,0,-4
1480628797281676,-2,2,-15,-35,2,6,4,3
1480628797302733,-2,1,25,46,-3,-7,-2,3
1480628797302733,12,17,15,12,-53,-11,2,3
1480628797303234,-6,-7,-13,-14,16,-3,-14,-17
1480628797303234,-6,-5,18,-9,-6,1,3,1
1480628797325794,0,-2,-3,-41,24,16,4,6
1480628797325794,-5,-10,-24,28,9,-5,-4,-3
1480628797326295,-2,3,21,17,2,-4,3,4
1480628797326295,4,3,-15,-10,6,-1,-4,-6
1480628797340332,-4,-16,-16,5,-27,8,0,-8
1480628797340332,8,12,31,14,42,8,9,19
1480628797340833,4,3,8,-20,-13,-3,0,-1
1480628797340833,-5,-11,-4,16,-2,-1,-2,-1
1480628797371414,2,8,10,37,8,-2,0,0
1480628797371414,4,4,-4,-23,-55,-16,-2,0
1480628797371916,0,-6,-14,-34,36,13,2,2
1480628797371916,3,5,18,40,11,0,1,1
1480628797385953,-1,-3,-10,-19,1,-3,3,6
1480628797385953,4,5,3,-11,-7,0,-1,-4
1480628797386455,-1,-2,-14,19,-12,-2,-2,2
1480628797386455,4,3,-6,7,8,7,3,3
1480628797408517,-5,-19,-18,-24,-13,-6,-2,-3
1480628797408517,-11,-13,-20,1,-8,-9,-13,-16
1480628797409014,2,4,7,10,21,9,2,-4
1480628797409014,3,-2,-16,-38,-7,1,2,6
1480628797423052,4,-1,3,-34,-17,-4,0,2
1480628797423052,-4,-2,13,39,-6,-4,4,0
1480628797430071,-6,-2,6,18,-3,-8,-4,-6
1480628797430071,-1,-5,8,16,0,0,2,1
1480628797445612,0,5,-2,-46,-10,2,-2,1
1480628797445612,-1,1,-5,-35,14,2,-1,-4
1480628797446615,-1,-2,14,31,-10,-9,0,2
1480628797446615,-7,-8,-21,15,8,-4,-5,-10
1480628797460151,2,8,2,-19,-12,8,1,0
1480628797460151,6,6,29,39,17,8,3,12
1480628797460652,-5,-4,-6,-14,-15,-9,-4,-5
1480628797460652,2,0,-4,-32,-7,-1,2,0
1480628797483214,3,3,3,29,6,-2,2,0
1480628797483214,-5,-2,-11,19,-4,-6,-14,-12
1480628797484216,3,5,6,-6,-3,1,-4,2
1480628797484216,-3,-5,-6,-14,-7,3,12,0
1480628797505271,-4,-2,0,0,11,-4,-9,-5
1480628797505271,-1,-1,-2,-10,-5,0,4,1
1480628797506275,2,-3,5,1,5,4,10,6
1480628797506275,-5,-5,-7,-4,-29,-9,-10,-5
1480628797520311,5,10,3,36,37,-2,1,3
1480628797520311,4,-1,2,-9,-7,14,4,2
1480628797520813,-2,-3,-4,-24,6,-3,-5,-3
1480628797520813,-3,0,0,18,10,3,-3,-7
1480628797543372,2,5,4,-36,-37,-8,3,4
1480628797543372,1,4,21,34,25,-2,-2,1
1480628797549889,5,11,1,14,27,16,4,-3
1480628797549889,5,-2,-5,-22,-6,-5,-2,1
1480628797573453,-1,8,15,17,31,12,3,1
1480628797573453,-4,-5,-9,-20,-21,-11,-6,-4
1480628797574456,1,-1,-1,0,-19,-9,2,7
1480628797574456,-3,3,21,23,15,-2,-4,-2
1480628797582477,-5,-4,-13,16,-12,-2,-7,-12
1480628797582477,-4,-7,16,-1,-10,-3,3,0
1480628797582978,2,4,-3,12,-19,-3,0,3
1480628797582978,-4,-13,-13,-40,-12,0,-9,-9
1480628797602529,-2,-15,7,38,51,12,3,9
1480628797602529,4,4,-30,-21,19,8,8,9
1480628797604034,-3,-8,5,3,-29,-10,-5,-9
1480628797604034,6,24,32,-26,-22,-6,4,4
1480628797625593,-10,-11,-7,4,25,3,-8,-12
1480628797625593,-1,1,0,18,-2,-2,-2,-3
1480628797626593,0,4,-7,-24,-25,-12,1,6
1480628797626593,-1,-3,-2,-12,30,13,1,0
1480628797639628,5,16,9,27,-29,-12,1,1
1480628797639628,3,2,5,-9,57,10,-1,-2
1480628797647649,-2,2,17,-8,-3,5,3,-1
1480628797647649,-4,-7,14,-12,-30,-7,-1,-2
1480628797662690,4,2,-35,-73,11,7,5,6
1480628797662690,-7,2,26,73,-42,-21,-7,-3
1480628797663192,1,-4,-12,5,37,5,-3,-3
1480628797663192,-2,-2,-9,24,15,-1,-1,3
1480628797685751,4,4,19,-34,5,5,4,4
1480628797685751,-10,-24,-32,30,-10,-18,-7,-11
1480628797686754,-5,-19,-25,-84,-28,11,6,3
1480628797686754,0,4,8,34,5,0,-2,0
1480628797700289,1,-3,13,35,-5,-8,-2,-1
1480628797700289,-3,5,-2,-52,-14,0,-5,-8
1480628797700791,5,14,14,32,2,-4,3,6
1480628797700791,-7,-17,-20,2,4,-4,-5,-6
1480628797722348,2,8,16,13,-30,-11,-1,-1
1480628797722348,2,9,3,9,11,8,0,0
1480628797723351,-5,-8,-15,-29,-12,-9,-5,-4
1480628797723351,9,21,20,35,24,9,5,6
1480628797746413,-4,-11,4,-33,-24,-4,-3,-5
1480628797746413,0,-6,-11,36,3,1,3,3
1480628797746914,-2,-7,-6,10,14,-3,-7,-4
1480628797746914,1,1,-22,-44,-8,2,-2,-1
1480628797768472,-16,-21,-22,3,9,-5,-11,-12
1480628797768472,8,2,-1,-83,20,10,8,7
1480628797768973,-3,-3,5,85,-24,-13,-4,-2
1480628797768973,4,4,1,40,6,1,4,3
1480628797782508,5,4,-17,-62,-8,1,0,0
1480628797782508,-2,-9,-1,-47,-22,-4,-1,1
1480628797783511,-5,2,25,93,17,-3,-7,-6
1480628797783511,-2,-7,-21,-44,7,2,3,1
1480628797805569,0,2,-1,30,6,0,-1,0
1480628797805569,4,2,-7,-43,-24,-2,1,6
1480628797806572,4,7,10,2,20,7,2,3
1480628797806572,-9,-23,-7,-20,-12,-3,-9,-7
1480628797819607,5,3,-31,-72,19,14,9,8
1480628797819607,-7,1,55,84,-34,-23,-12,-14
1480628797827631,-2,-1,-13,-42,69,10,3,4
1480628797827631,-14,-13,11,75,-30,-7,-5,-10
1480628797850690,7,8,-3,-43,-8,-1,-1,-1
1480628797850690,-4,1,-15,-27,4,3,-1,-3
1480628797851693,6,1,2,-17,-64,-11,4,4
1480628797851693,3,-4,30,70,76,-8,-3,5
1480628797865730,1,-1,-21,-55,-1,27,13,14
1480628797865730,-5,2,11,79,-20,-14,-10,-3
1480628797866734,-2,1,-11,-68,13,9,1,-3
1480628797866734,-3,4,-11,6,-48,-13,-2,-2
1480628797879266,2,3,15,48,-6,-9,1,3
1480628797879266,8,5,-6,-16,45,14,4,3
1480628797887788,6,10,-13,-37,-48,-10,3,9
1480628797887788,10,11,6,-79,43,18,6,3
1480628797902828,-11,-8,-3,86,5,-8,-2,-3
1480628797902828,-4,-12,7,-41,-18,-4,-2,-3
1480628797903331,-3,-8,-20,-8,-13,-3,-7,-12
1480628797903331,-3,-7,1,17,-10,-4,-4,-7
1480628797926394,2,-2,20,-15,13,-2,-2,4
1480628797926394,8,26,14,0,-54,-7,8,10
1480628797926895,-11,-17,-27,48,91,7,-9,-18
1480628797926895,16,19,-12,-97,-17,8,6,6
1480628797939425,-9,-10,11,86,11,-10,-5,-4
1480628797939425,7,9,-11,-63,5,24,9,11
1480628797947449,-7,-2,20,62,-4,-4,-4,0
1480628797947449,5,13,1,-1,-34,-8,1,2
1480628797962488,0,0,-5,-1,55,0,-4,-6
1480628797962488,-10,-33,-22,-84,-37,10,2,-8
1480628797963491,1,-3,7,20,-15,-11,-1,12
1480628797963491,6,-1,-48,-33,25,20,10,9
1480628797985550,1,11,34,33,-83,-24,-10,-4
1480628797985550,-1,7,25,82,61,6,2,1
1480628797986552,-5,-5,-14,-14,-3,-4,-5,-5
1480628797986552,-6,-11,2,40,-6,-4,-4,-5
1480628797999585,4,14,-10,-71,-18,1,-1,-4
1480628797999585,-6,-8,-16,41,34,-2,-7,-8
1480628798007607,16,33,8,-54,-58,-2,8,11
1480628798007607,-9,-13,4,2,9,-10,-10,-3
1480628798022648,-6,-7,14,13,7,11,3,-3
1480628798022648,1,-3,-16,-25,-17,-7,-3,-2
1480628798023149,10,30,37,38,1,3,1,3
1480628798023149,-1,6,0,23,13,-1,-3,-10
1480628798046210,-5,-14,6,-12,10,7,4,9
1480628798046210,1,6,-1,5,11,-10,-5,2
1480628798047213,-1,1,12,-12,30,12,2,0
1480628798047213,-3,-7,0,-38,-27,-4,-5,-6
1480628798059248,-1,3,8,43,-27,-13,-4,-4
1480628798059248,9,15,6,38,-19,-9,6,2
1480628798067767,-10,-25,-36,-51,39,15,-4,1
1480628798067767,-3,6,16,10,10,-2,3,7
1480628798082808,-2,-6,-23,12,-11,-7,-4,-8
1480628798082808,7,0,-9,1,-9,-6,0,0
1480628798083309,-17,-32,0,1,-54,-12,-4,-14
1480628798083309,9,11,-11,-17,45,17,6,9
1480628798107373,-9,-15,-23,-18,15,3,-6,-8
1480628798107373,-1,4,-9,0,20,6,0,-3
1480628798107874,10,2,3,-3,-12,0,1,5
1480628798107874,0,6,15,33,3,-2,4,8
1480628798128428,8,15,1,-14,-45,-7,7,13
1480628798128428,-17,-46,-6,-2,46,2,-8,-10
1480628798128930,0,2,-6,-15,6,6,3,-4
1480628798128930,4,22,30,-1,-12,3,0,6
1480628798142467,10,11,9,16,-4,-6,-2,-2
1480628798142467,2,15,-22,-37,-30,-2,-4,-1
1480628798143469,-6,-6,21,48,73,13,0,-2
1480628798143469,-3,-12,-2,16,-36,-6,2,-2
1480628798166029,-7,2,-2,-29,-13,0,-1,-3
1480628798166029,12,8,23,-2,-19,-7,6,15
1480628798166530,8,31,37,15,25,11,0,-11
1480628798166530,-5,-5,-39,-32,1,-3,-8,-10
1480628798188087,2,4,22,78,9,0,-2,-3
1480628798188087,-2,2,-9,-92,-26,-9,2,5
1480628798189090,-6,-13,-13,71,-32,-13,0,8
1480628798189090,0,-11,-8,-19,-10,0,-4,-14
1480628798203127,2,24,29,-9,9,-6,5,9
1480628798203127,-1,3,4,-20,-18,-5,-4,-13
1480628798203629,-3,-9,-30,-8,8,-2,-2,0
1480628798203629,8,8,12,22,21,11,15,13
1480628798225688,-4,-15,-20,-40,-55,-16,-10,-12
1480628798225688,-4,-5,7,44,4,3,-5,3
1480628798226690,8,12,20,-32,40,4,3,1
1480628798226690,-5,-5,-5,-7,-54,-12,-7,0
1480628798248248,-9,-18,15,42,36,-2,-8,-11
1480628798248248,-3,-6,0,14,27,8,2,1
1480628798249250,4,0,-23,-69,-49,-5,9,16
1480628798249250,-10,1,-9,15,5,-3,-4,-9
1480628798262785,3,8,23,12,-22,-6,-4,-9
1480628798262785,-3,-4,-46,13,42,8,0,-1
1480628798263288,1,9,26,50,-44,-21,-7,-6
1480628798263288,4,-28,-59,-64,41,2,3,7
1480628798285847,-2,-12,5,-46,-39,5,10,13
1480628798285847,1,-2,-1,38,13,-3,-2,-6
1480628798287352,-1,-2,-21,-46,20,13,1,-11
1480628798287352,-1,2,10,22,-48,-19,-8,10
1480628798308409,7,8,-16,5,36,11,8,7
1480628798308409,-5,-7,10,14,-12,6,2,-7
1480628798309410,6,8,8,-2,-9,-6,8,22
1480628798309410,6,26,25,41,-2,-5,5,10
1480628798323450,-2,-6,-23,2,24,10,-9,-22
1480628798323450,3,24,48,20,-42,-13,0,13
1480628798324450,-23,-53,-70,-42,58,10,-6,-18
1480628798324450,5,6,-16,0,5,9,7,15
1480628798345004,-11,2,-15,-34,-14,-12,-14,-42
1480628798345004,-1,2,13,48,-72,-18,-1,12
1480628798352525,-1,-22,-42,-43,50,1,-8,2
1480628798352525,-9,2,55,14,20,15,3,-15
1480628798368067,-1,-18,-32,-30,-37,-11,-5,7
1480628798368067,2,0,-23,-14,7,2,5,1
1480628798369069,-3,3,14,38,-52,-18,-16,-18
1480628798369069,-8,-26,22,7,-14,-2,1,11
1480628798382605,0,-16,9,-2,37,15,7,4
1480628798382605,-9,-22,-26,-52,47,12,1,2
1480628798383608,9,17,42,16,-8,2,-1,-12
1480628798383608,-1,-3,3,55,-15,-16,-7,-8
1480628798406167,3,18,-12,-10,0,-11,-1,3
1480628798406167,-12,-15,-22,-35,31,24,5,0
1480628798407171,-3,-11,6,10,80,23,10,13
1480628798407171,-8,-19,-21,-31,-26,-10,-9,-19
1480628798428226,0,0,-3,25,33,6,9,19
1480628798428226,-4,-18,-10,46,-29,-22,-12,-16
1480628798429228,21,41,24,-23,-51,-3,4,9
1480628798429228,0,-20,13,87,0,-3,-2,-11
1480628798442768,-4,-18,-25,10,9,5,4,10
1480628798442768,8,5,-4,-18,35,9,8,7
1480628798443271,1,13,30,-14,-48,-12,-7,-19
1480628798443271,1,11,3,11,20,-10,-8,6
1480628798464824,9,17,-5,-68,2,28,11,-2
1480628798464824,-2,1,-8,-23,50,25,6,-2
1480628798465827,-6,1,28,103,-37,-17,-3,-2
1480628798465827,1,7,-48,-88,-62,-19,-3,-3
1480628798488389,-10,-8,11,-24,11,0,-12,-2
1480628798488389,6,22,10,-39,-29,-6,2,6
1480628798489389,-9,-20,-19,21,0,-1,-5,-18
1480628798489389,-2,0,0,-28,16,7,1,-1
1480628798502424,-3,2,17,71,-21,-9,1,9
1480628798502424,10,-16,2,-21,-51,-16,0,11
1480628798503426,-14,-31,-39,24,24,-4,-2,8
1480628798503426,-4,-5,28,-15,22,10,-2,-9
1480628798525987,-6,-30,-56,0,18,1,-4,-4
1480628798525987,-2,16,-2,-53,13,8,4,-1
1480628798526488,4,5,-10,38,-62,-21,-2,-3
1480628798526488,-4,-2,-18,-32,117,45,9,4
1480628798555565,-7,-6,21,43,-62,-28,-9,0
1480628798555565,-6,-5,12,85,55,8,-9,-14
1480628798556568,-4,0,-2,-28,45,13,5,3
1480628798556568,15,18,-3,-81,-49,-15,3,4
1480628798562583,-11,-11,3,26,11,-4,-10,-10
1480628798562583,-3,-13,39,28,-17,8,5,-6
1480628798563586,-6,0,3,16,-16,-13,-6,1
1480628798563586,18,18,5,-8,94,53,20,27
1480628798585646,9,28,-9,-44,-62,-14,0,-16
1480628798585646,-2,4,74,90,23,-6,-3,-4
1480628798586648,16,11,-30,-110,-57,0,8,13
1480628798586648,-24,-28,12,127,11,-27,-19,-22
1480628798608207,12,20,4,-43,7,8,7,16
1480628798608207,5,8,-13,-36,-32,-12,-4,-12
1480628798609207,-4,-14,-5,-36,34,19,5,16
1480628798609207,3,20,-8,13,-15,-16,2,-6
1480628798622744,-4,-8,16,-31,13,8,-7,-25
1480628798622744,-2,-13,-44,-5,-41,-16,0,19
1480628798623246,-5,3,24,19,-11,-11,-13,-29
1480628798623246,2,2,-10,4,26,12,-9,-1
1480628798645805,-1,0,2,9,19,3,16,12
1480628798645805,5,1,-16,-45,-12,-1,-2,-4
1480628798646306,2,-1,1,-2,-11,-2,-13,-10
1480628798646306,-6,-4,15,30,-15,-4,0,6
1480628798668366,1,2,5,4,19,13,10,-3
1480628798668366,5,11,-10,2,-7,-2,2,9
1480628798668866,-1,9,1,-19,20,7,5,11
1480628798668866,-12,-21,24,80,-64,-27,-19,-15
1480628798682904,-2,-15,2,-48,3,6,-3,11
1480628798682904,4,-9,-23,-77,95,39,16,11
1480628798683907,-2,8,2,48,-30,-9,3,17
1480628798683907,-1,-9,-3,-27,-4,-2,2,-4
1480628798705964,-1,1,14,42,-69,-24,-6,-1
1480628798705964,-8,-6,-4,28,51,9,-3,-8
1480628798706467,-3,-6,-8,-22,34,16,1,-10
1480628798706467,2,2,-10,-75,-23,-3,7,11
1480628798728527,1,12,-31,-22,-23,-5,2,2
1480628798728527,4,1,-19,16,19,-6,-9,-3
1480628798729027,-9,-14,11,24,-44,-13,3,6
1480628798729027,-2,1,17,18,26,7,5,0
1480628798742061,8,3,39,26,5,-2,-1,4
1480628798742061,-3,6,-15,7,6,-2,-7,-11
1480628798750094,7,15,7,-9,-18,2,11,7
1480628798750094,9,9,-43,-82,-48,-5,0,1
1480628798765122,-1,8,42,73,15,-7,-10,-5
1480628798765122,-3,5,27,4,-16,-8,2,-5
1480628798780163,1,-11,-10,-3,22,8,0,8
1480628798780163,5,24,27,10,-15,-2,0,-11
1480628798788184,7,2,-14,3,29,3,4,16
1480628798788184,-9,-24,-46,-47,-1,-5,-3,0
1480628798789187,-12,-21,10,33,-21,-3,-6,-23
1480628798789187,6,4,-38,-124,29,12,14,24
1480628798802222,-9,1,22,109,-10,-14,-17,-26
1480628798802222,11,18,17,11,-117,-14,6,13
1480628798810243,-1,-9,-36,-36,119,18,4,-6
1480628798810243,0,-7,17,52,-34,-4,6,9
1480628798825286,-4,6,-37,-80,-30,-5,-6,-13
1480628798825286,-4,-9,-17,-10,2,-1,-4,5
1480628798832802,2,-7,4,90,6,-4,-1,-1
1480628798832802,6,14,24,-13,16,12,0,-10
1480628798847341,3,0,4,-27,28,11,6,17
1480628798847341,8,33,8,-15,-51,-7,2,3
1480628798854861,-4,-13,7,-9,-15,-12,-2,-5
1480628798854861,-6,-13,-24,58,13,1,-3,4
1480628798862381,5,-5,-25,-38,115,37,10,6
1480628798862381,5,9,-4,-54,14,9,5,3
1480628798870903,-3,-12,62,65,-11,-4,5,16
1480628798870903,-5,1,-1,-22,-11,-3,-2,5
1480628798884942,9,7,0,-3,-23,-5,-1,-1
1480628798884942,-10,-29,12,76,-29,-20,-9,-14
1480628798885945,1,4,-31,-40,61,14,2,8
1480628798885945,-11,-19,-39,-5,-3,-1,-5,-15
1480628798910008,1,-1,-10,-10,-66,-18,-1,0
1480628798910008,-10,-40,51,-34,2,-6,-6,-11
1480628798910509,6,20,-28,-105,-22,0,4,1
1480628798910509,-8,2,34,123,-18,-17,-7,-3
1480628798931063,6,-5,-13,5,44,6,3,1
1480628798931063,-1,20,2,-10,-6,6,-1,-11
1480628798931566,1,29,41,55,-31,-9,-5,0
1480628798931566,9,-26,-1,-69,0,2,7,17
1480628798945602,-16,-13,2,10,-41,-8,0,-9
1480628798945602,-13,1,2,48,81,12,-13,-8
1480628798946608,12,2,-45,-67,10,11,12,10
1480628798946608,5,15,45,81,-45,-10,0,-1
1480628798968163,4,23,23,28,26,-1,2,5
1480628798968163,12,2,-5,-81,-31,-4,1,13
1480628798969165,-3,10,-13,29,11,1,-4,-5
1480628798969165,0,-5,27,-61,-24,2,-5,-9
1480628798981698,-8,-13,-36,58,92,16,-1,-8
1480628798981698,5,12,-5,5,-33,-6,6,13
1480628798990222,2,21,14,20,-15,-11,-5,-1
1480628798990222,-16,-22,-31,-75,-20,-1,0,-11
1480628799005260,-3,-19,11,21,15,-6,-9,0
1480628799005260,-2,0,-18,6,34,13,3,-5
1480628799006765,-2,-6,0,-6,-57,-16,-5,-7
1480628799006765,-7,4,-13,26,28,2,-3,-10
1480628799028322,-4,3,21,-57,-47,-7,-3,8
1480628799028322,7,11,-13,-7,6,-7,0,1
1480628799029827,1,-2,4,36,-2,-6,-7,-8
1480628799029827,3,-12,-20,-22,20,10,5,3
1480628799041862,-10,-11,11,44,-15,2,2,0
1480628799041862,8,13,19,31,-52,-14,3,-3
1480628799049880,-8,-26,-40,-128,72,15,-10,-5
1480628799049880,3,-5,-13,12,23,2,1,7
1480628799073443,-2,5,19,-6,-37,-7,-4,-26
1480628799073443,-3,-2,-10,30,33,3,-1,22
1480628799074445,-4,-28,-17,-38,-11,3,17,2
1480628799074445,1,18,38,69,-14,-17,-16,-6
1480628799088483,2,1,-15,-20,-11,-1,-3,3
1480628799088483,-14,-12,-12,7,-26,-17,-8,-18
1480628799088984,4,17,20,21,-2,-1,11,0
1480628799088984,2,-3,-20,-36,12,0,11,-1
1480628799110541,4,7,7,12,-4,4,3,9
1480628799110541,-6,-3,3,2,3,-2,-13,-15
1480628799111544,-4,0,7,-9,-15,-7,-19,-3
1480628799111544,5,10,-3,-11,-1,3,27,10
1480628799125084,2,2,16,-2,14,7,3,11
1480628799125084,-9,-10,-10,21,-2,-2,-8,-28
1480628799126083,1,9,24,-31,-21,1,7,23
1480628799126083,-5,-5,20,50,-22,-20,-19,-19
1480628799148650,8,5,-20,-29,-29,-10,-2,-1
1480628799148650,3,9,17,-6,70,26,11,9
1480628799149645,6,17,2,-20,-29,-7,-2,0
1480628799149645,-5,1,-7,16,5,2,-6,-12
1480628799170702,1,-5,-12,-35,-4,1,7,7
1480628799170702,3,7,6,7,-18,-6,-4,3
1480628799171707,-3,-5,-27,-18,-10,-3,1,2
1480628799171707,2,13,20,14,0,-1,-5,-2
1480628799185241,0,-4,-10,-4,11,3,2,-2
1480628799185241,4,11,11,0,-12,-3,3,14
1480628799185743,1,13,23,65,31,6,-4,-17
1480628799185743,-5,-22,-52,-117,-34,-3,-6,-2
1480628799208303,-9,-12,3,81,-1,-3,2,5
1480628799208303,1,8,16,20,-19,-13,-2,-1
1480628799208804,7,0,-14,-51,45,29,9,17
1480628799208804,-1,6,3,12,-7,-4,-6,-4
1480628799238382,-10,-11,8,-4,6,-5,-10,-7
1480628799238382,-1,-10,-18,-18,-22,-4,2,4
1480628799238883,-2,4,33,68,-20,-13,-17,-10
1480628799238883,-4,-7,-25,-16,19,9,5,6
1480628799245901,5,-3,-16,-32,-4,3,10,14
1480628799245901,-4,-1,16,38,4,3,13,-5
1480628799252418,-2,-11,-31,-24,-9,-2,0,-6
1480628799252418,-1,-2,12,27,4,-5,-9,5
1480628799268461,9,9,15,-76,14,12,6,8
1480628799268461,-14,-22,2,66,-9,-8,-9,-18
1480628799268963,-2,-21,-18,7,-32,-6,12,12
1480628799268963,16,26,-6,-8,7,-4,0,2
1480628799290018,-5,1,4,-9,6,-3,-3,-6
1480628799290018,1,-2,-18,-30,31,17,2,4
1480628799297539,-5,-7,14,-2,-5,-6,-5,-6
1480628799297539,-11,-8,10,41,19,0,1,0
1480628799305059,-5,-6,-38,-42,-25,-9,-8,-12
1480628799305059,-3,-22,11,11,0,5,-2,2
1480628799306062,8,16,20,34,-15,-6,-1,-1
1480628799306062,2,18,-19,-16,11,4,-4,0
1480628799328121,5,10,11,22,10,6,9,6
1480628799328121,-1,6,-2,-6,-20,-9,-2,-3
1480628799329123,-1,2,0,-10,3,-1,-3,-9
1480628799329123,-4,-11,0,-4,2,2,-7,-3
1480628799350680,2,-7,1,12,10,8,5,7
1480628799350680,4,9,-3,-25,-8,-5,-1,3
1480628799351684,-1,2,-5,-13,8,1,7,-5
1480628799351684,-6,-3,-12,-14,-2,-1,-13,-9
1480628799365218,9,3,10,25,6,3,7,13
1480628799365218,-7,-12,-19,-11,-4,-7,-11,-22
1480628799365720,-12,0,4,37,-3,-2,-3,2
1480628799365720,2,-1,1,-18,4,6,8,-2
1480628799388280,4,4,-7,-14,-20,-2,-1,0
1480628799388280,7,11,16,3,30,4,1,4
1480628799389283,-4,-6,-4,5,20,8,0,-2
1480628799389283,-3,-18,-8,-26,-6,-1,1,-3
1480628799410840,1,6,9,22,1,-2,6,3
1480628799410840,4,10,-6,-36,-6,1,1,2
1480628799411342,2,0,1,17,-5,-3,-1,-2
1480628799411342,3,-3,0,15,-2,0,5,6
1480628799425382,0,2,7,-7,3,1,-4,-3
1480628799425382,-8,-7,-3,4,-10,-8,-25,-12
1480628799425880,4,3,15,30,6,1,31,3
1480628799425880,2,-2,4,-15,-2,5,4,8
1480628799455960,-3,-1,-13,-12,-1,-4,-2,-8
1480628799455960,1,2,-3,-7,-3,0,-3,8
1480628799456464,-5,-4,-1,0,-6,-2,-3,-8
1480628799456464,3,5,11,-4,2,2,-13,-7
1480628799471000,-7,-8,-6,20,5,0,1,-4
1480628799471000,9,1,0,-8,6,6,12,17
1480628799471501,5,4,-1,-36,-2,-2,-16,-9
1480628799471501,-4,-4,-8,-30,-6,-3,12,7
1480628799485038,-7,-7,17,81,0,-7,-15,-6
1480628799485038,7,12,6,-15,-4,1,3,2
1480628799486040,-3,3,-5,31,-13,-10,-7,-3
1480628799486040,1,4,44,3,6,-2,3,0
1480628799516622,-4,-3,-28,-55,-8,0,-4,-1
1480628799516622,-6,-1,-3,-4,-6,1,4,-5
1480628799517125,2,-1,-3,-10,-2,-2,-1,6
1480628799517125,1,2,-6,3,2,-4,-5,-5
1480628799530659,-1,0,1,1,2,-1,4,-4
1480628799530659,-5,-8,-9,-3,-3,-5,8,2
1480628799531661,1,-1,5,15,-5,2,1,6
1480628799531661,3,3,3,28,1,4,-4,-3
1480628799545198,-4,-6,-9,-21,-1,-4,-8,-4
1480628799545198,4,1,-10,-24,13,5,-11,0
1480628799545699,-3,-4,-2,15,0,1,21,13
1480628799545699,1,0,6,19,0,-3,-18,-4
1480628799567256,0,1,-1,-5,2,7,24,5
1480628799567256,1,3,8,32,-3,-1,5,-1
1480628799575281,-2,-5,-15,-68,-1,-2,-14,-6
1480628799575281,1,-4,-16,4,-6,-1,5,2
1480628799598341,5,11,10,-1,9,3,-2,0
1480628799598341,-5,0,21,53,-1,-6,0,-2
1480628799598840,-5,-1,-10,-20,4,2,7,0
1480628799598840,-3,-11,-5,35,12,0,1,-8
1480628799604856,12,15,0,-44,14,11,1,15
1480628799604856,-10,-13,-12,-15,-17,-6,7,-1
1480628799605859,3,10,16,52,-6,-3,-9,-3
1480628799605859,-1,5,-4,-40,0,-1,-2,-6
1480628799628419,-4,-3,-13,-19,1,-5,-15,-4
1480628799628419,1,1,2,21,3,5,9,-2
1480628799629923,3,-5,-11,-22,-1,-3,14,10
1480628799629923,0,1,-6,-11,-10,-1,7,1
1480628799658502,0,-1,18,52,3,-5,-13,1
1480628799658502,-2,-1,-15,-21,-5,1,-7,-12
1480628799659004,2,4,9,3,7,4,1,1
1480628799659004,-6,-5,5,26,5,1,8,3
1480628799665018,-1,-3,-11,-21,-9,-6,-2,-5
1480628799665018,0,2,0,-17,-8,0,-1,7
1480628799666020,-4,-5,1,-2,0,-2,-14,-15
1480628799666020,5,7,-2,-19,-1,3,9,6
1480628799688079,-3,-9,7,35,-4,-2,0,1
1480628799688079,7,6,10,26,7,-2,-3,4
1480628799689080,-7,-18,-23,-56,-5,0,-12,-9
1480628799689080,-5,-4,-4,-13,-11,-1,3,9
1480628799710638,-3,-2,11,41,1,2,4,-4
1480628799710638,6,8,11,-8,4,1,-6,1
1480628799711640,-2,-3,-8,15,2,-1,11,-1
1480628799711640,2,4,-6,-1,5,3,9,8
1480628799724676,-1,7,2,-4,-5,-4,-11,-9
1480628799724676,-3,-12,4,14,1,-1,3,0
1480628799732697,-6,-4,-6,1,-7,-6,-4,0
1480628799732697,-1,1,-1,-22,-1,1,-5,-4
1480628799748739,-1,-3,-10,-21,0,1,2,2
1480628799748739,2,-1,-6,-6,-3,-2,1,-1
1480628799749743,4,6,5,-1,4,3,-3,1
1480628799749743,-7,-11,-16,10,-7,-8,-10,-4
1480628799770797,1,2,5,-6,-1,2,8,3
1480628799770797,-7,-6,1,-4,-1,-2,-5,-5
1480628799771800,1,1,-3,16,4,3,5,5
1480628799771800,4,-7,-20,-7,-5,-5,-8,0
1480628799793360,-6,2,2,-1,-3,0,-5,-9
1480628799793360,-1,0,1,-17,1,2,0,4
1480628799793861,7,2,24,6,-2,-4,-9,3
1480628799793861,3,7,16,28,7,2,-4,-3
1480628799808400,4,2,4,-6,-2,-1,8,5
1480628799808400,1,2,-4,9,4,1,6,-3
1480628799808900,-2,0,6,6,-3,-2,-6,0
1480628799808900,2,-1,-8,-44,-5,-2,-6,-5
1480628799831459,-2,-3,6,28,2,1,-1,-4
1480628799831459,-4,-1,-14,-26,3,0,-3,-5
1480628799831960,3,3,13,23,1,-1,2,1
1480628799831960,2,3,2,29,10,6,4,1
1480628799844494,-4,-5,-4,7,-8,-3,3,-1
1480628799844494,4,2,4,9,3,0,1,7
1480628799852517,-3,-2,-8,-1,-3,-2,-6,-11
1480628799852517,-1,-1,-2,-20,-2,0,-8,-2
1480628799876078,4,3,2,2,6,0,10,8
1480628799876078,-5,-14,9,30,-8,-6,-22,-7
1480628799877081,1,1,-8,-54,1,6,38,9
1480628799877081,-2,-2,-5,-5,-6,-2,-4,-2
1480628799891118,0,-6,-6,4,3,0,-3,-2
1480628799891118,8,10,-7,-6,-3,-3,-4,1
1480628799892123,-9,-5,2,-1,3,2,-5,0
1480628799892123,6,1,14,34,-5,-2,9,5
1480628799906660,-6,0,-9,-39,-2,-3,-10,-8
1480628799906660,6,-1,-14,-11,-1,0,10,5
1480628799912675,1,3,13,52,2,-1,-11,-2
1480628799912675,-12,-14,-11,-30,-1,-1,3,-2
1480628799928216,2,1,-8,-5,1,1,-1,1
1480628799928216,0,4,12,-14,-3,1,5,1
1480628799929220,-1,-2,3,-3,-1,0,4,-3
1480628799929220,2,1,6,23,2,-1,-3,0
1480628799950777,-5,-8,-18,-14,-6,-4,-7,-8
1480628799950777,-3,1,1,-11,0,0,2,2
1480628799951780,5,5,2,15,2,-2,-4,3
1480628799951780,-4,2,4,-3,-5,0,-4,-5
1480628799964312,5,5,-5,-21,-1,0,-5,2
1480628799964312,-4,-1,0,18,-3,-3,2,-4
1480628799972335,5,9,18,46,7,0,-8,0
1480628799972335,-8,-14,-32,-72,-13,-3,-1,-5
1480628799988377,0,0,11,9,-1,-3,-4,-1
1480628799988377,1,-3,3,0,0,-2,-5,-2
1480628799988878,-2,-5,-26,-32,-3,-1,2,-1
1480628799988878,0,5,26,48,9,2,6,8
1480628800018457,0,-1,12,-2,1,4,3,-4
1480628800018457,-6,-5,-5,5,-1,3,0,-2
1480628800019461,7,3,-5,-21,-2,-2,-5,4
1480628800019461,-2,4,10,4,-4,-1,-2,0
1480628800025977,-2,-9,-18,0,-8,-3,-7,-3
1480628800025977,1,5,9,19,5,0,-3,0
1480628800032494,-3,-8,-14,-38,-4,1,-4,-7
1480628800032494,2,7,4,14,4,-1,12,6
1480628800048036,3,8,31,9,5,0,1,2
1480628800048036,-4,-3,-15,-11,-7,-5,-15,-9
1480628800049038,-8,-11,-11,17,-2,-3,-2,1
1480628800049038,-1,6,10,9,4,0,-6,-7
1480628800071096,4,-7,-15,-21,2,3,13,10
1480628800071096,2,4,-6,-3,0,1,2,0
1480628800072100,-1,-4,5,0,-7,-3,-10,-2
1480628800072100,-1,-2,-10,-8,-4,-3,1,-4
1480628800093155,-3,-4,8,5,0,-1,-3,-1
1480628800093155,2,0,-1,3,1,4,16,9
1480628800094159,2,-4,-6,-23,-2,-2,-9,-4
1480628800094159,2,2,5,14,3,2,-10,-3
1480628800108697,1,0,-15,-33,-4,1,21,6
1480628800108697,4,1,0,9,-3,-1,4,7
1480628800109699,-8,-12,-7,9,0,-2,-4,0
1480628800109699,12,9,18,27,5,2,3,-10
1480628800130755,-10,-10,0,-3,-2,-2,-7,1
1480628800130755,-13,-1,10,12,1,0,-3,-11
1480628800131758,1,2,-9,-32,-3,0,5,8
1480628800131758,1,-9,-5,-4,-1,-1,-3,3
1480628800154318,-5,0,-11,11,2,-4,-10,-6
1480628800154318,20,12,36,6,3,-1,3,8
1480628800155823,-16,-15,-61,-40,-5,-2,-7,-13
1480628800155823,1,7,-6,9,-3,3,10,8
1480628800166852,-1,-6,10,30,2,-3,-7,-4
1480628800166852,-5,-1,0,-7,3,2,-1,0
1480628800175876,13,6,18,2,3,1,1,11
1480628800175876,-16,0,-4,6,-7,-4,-9,-21
1480628800190916,17,5,-8,9,5,1,1,7
1480628800190916,-11,-16,-9,4,-3,-1,9,2
1480628800193423,4,4,20,0,0,2,6,-4
1480628800193423,-3,-6,-20,-64,0,3,-2,0
1480628800213476,1,6,5,29,2,1,-7,-4
1480628800213476,-2,-6,12,23,-2,-5,-8,-6
1480628800214979,-2,4,20,32,1,-2,1,1
1480628800214979,2,-8,-6,-27,0,0,3,8
1480628800227012,4,4,-5,-32,-1,2,2,-1
1480628800227012,2,-2,-14,-14,-14,-9,-23,-16
1480628800236036,-21,2,7,6,5,8,19,5
1480628800236036,-2,-8,11,48,-6,-8,-17,-2
1480628800251076,-10,-4,8,-4,-1,-3,9,-13
1480628800251076,0,-5,-29,-38,1,4,2,6
1480628800252581,12,11,23,20,5,1,-3,2
1480628800252581,-5,-4,0,-5,-9,-8,-10,-27
1480628800273135,-4,0,-3,-32,1,3,3,10
1480628800273135,-3,-2,-2,12,-1,-2,0,-4
1480628800275141,7,4,-2,-34,1,1,2,-1
1480628800275141,-5,-10,4,44,-6,-5,1,14
1480628800287172,-2,-2,-11,-10,-2,-2,-4,-4
1480628800287172,1,5,21,9,1,0,4,1
1480628800296196,1,0,5,3,0,0,-5,-3
1480628800296196,5,3,-1,5,3,2,3,8
1480628800310734,-3,-6,-10,-34,-5,-2,-5,-3
1480628800310734,5,0,-19,-31,-3,-1,12,3
1480628800312239,-2,-2,-8,-5,-4,-4,-1,5
1480628800312239,2,-5,-2,20,2,-1,-3,-1
1480628800333295,-7,4,19,45,5,4,14,-1
1480628800333295,-6,-1,-7,-23,0,2,-6,-3
1480628800334799,5,-1,-12,0,-5,-4,0,3
1480628800334799,-6,1,0,-13,5,3,-1,-3
1480628800346830,-4,-6,0,-10,-3,-1,1,1
1480628800346830,5,2,-3,-6,-2,-1,-2,9
1480628800355855,0,-2,-19,43,1,-2,0,-11
1480628800355855,3,-3,-5,-23,0,-2,14,14
1480628800370896,-11,-4,-29,-26,-7,-2,-11,-18
1480628800370896,-12,-2,-4,-17,1,2,2,-7
1480628800374404,3,-3,17,43,-6,-7,-6,1
1480628800374404,6,4,7,18,6,1,-5,7
1480628800393956,0,-5,-8,0,-1,-4,-9,-11
1480628800393956,-6,4,3,-14,3,4,4,-1
1480628800394958,-4,-4,2,-6,-3,-5,-16,-19
1480628800394958,0,4,4,6,5,4,7,2
1480628800406990,9,3,-4,-38,-5,0,1,13
1480628800406990,19,4,17,64,8,-3,-21,-3
1480628800416014,-21,-5,-10,-66,-8,0,8,1
1480628800416014,-5,4,13,32,4,1,11,-11
1480628800431054,1,3,14,27,2,-1,0,2
1480628800431054,2,-8,-34,-60,-7,-4,-10,9
1480628800433060,8,6,14,34,3,0,6,-3
1480628800433060,-1,-2,6,-20,-5,-1,-9,-2
1480628800453113,5,1,11,25,5,3,10,11
1480628800453113,-4,4,-4,7,-6,-2,2,3
1480628800455118,2,5,12,10,4,2,-6,0
1480628800455118,2,-2,-4,-15,5,4,5,6
1480628800467150,5,-7,5,16,-8,-6,-6,-3
1480628800467150,-6,-5,-16,-17,0,-2,1,1
1480628800476174,2,-2,-1,-8,-4,-1,1,0
1480628800476174,2,3,-3,-12,-2,1,-5,-1
1480628800490713,-1,7,14,18,8,2,-4,3
1480628800490713,-4,-6,7,30,-4,-2,6,-4
1480628800492217,2,3,2,-6,-1,1,1,1
1480628800492217,-2,-3,-7,0,1,2,9,7
1480628800512772,-1,-1,-11,-23,-3,-2,-1,0
1480628800512772,-7,0,6,15,-1,2,-2,-10
1480628800519791,3,0,2,-2,-2,-2,-3,-2
1480628800519791,16,1,1,-8,-1,0,9,8
1480628800526809,-16,13,18,21,3,3,-5,-10
1480628800526809,0,-4,6,37,9,2,3,4
1480628800535836,-12,-14,-41,-75,-12,-4,-14,-14
1480628800535836,3,2,2,14,2,1,12,19
1480628800551375,-4,-7,-14,-6,-6,-3,-4,-6
1480628800551375,3,11,0,-17,-1,2,3,-3
1480628800556889,0,5,18,25,6,0,-1,4
1480628800556889,-10,-15,-36,-12,-6,-4,-10,-5
1480628800573434,1,0,7,20,-1,-3,-3,-4
1480628800573434,-2,-3,1,-15,-3,-1,-14,-2
1480628800574938,3,-5,-3,29,3,4,31,14
1480628800574938,2,4,-1,-21,-5,-2,8,-8
1480628800586969,5,1,1,5,1,-1,3,6
1480628800586969,-3,-9,-8,-14,-1,2,5,-3
1480628800604014,4,0,3,9,-2,-4,-8,3
1480628800604014,-6,4,10,-13,-4,-3,-9,-3
1480628800611034,3,-2,-7,-11,1,2,-6,0
1480628800611034,-4,-1,-4,5,-2,-1,10,3
1480628800612538,-3,-5,-9,1,3,2,-8,-8
1480628800612538,-8,0,15,20,1,0,-1,-7
1480628800633092,6,0,-7,-33,-2,-1,-3,7
1480628800633092,-4,-17,-20,-11,-7,-4,0,-4
1480628800635097,-1,3,18,60,4,-1,-1,0
1480628800635097,1,-1,-7,-20,0,1,-3,-3
1480628800647129,3,-1,1,3,-5,-1,6,3
1480628800647129,2,8,15,6,11,4,5,0
1480628800656154,3,3,9,-8,2,4,4,7
1480628800656154,-3,-6,-15,-30,-8,-6,-11,-7
1480628800670692,2,4,-2,0,3,1,8,-1
1480628800670692,2,10,10,-2,-7,-1,0,1
1480628800676708,-1,-5,2,-1,-3,-4,-7,0
1480628800676708,0,3,-2,13,3,0,-1,-2
1480628800693754,-2,-4,2,-4,-1,-2,-3,0
1480628800693754,-2,-5,-16,-22,-1,-1,-12,-5
1480628800695759,0,6,27,66,13,5,6,-5
1480628800695759,0,0,2,-16,-4,3,9,8
1480628800715814,-5,-7,-20,-9,-1,1,12,-6
1480628800715814,2,6,10,-6,1,-1,-9,1
1480628800717316,-7,-2,-15,-38,-9,-7,-5,1
1480628800717316,16,0,0,13,1,3,-19,7
1480628800729348,2,6,6,32,7,8,33,10
1480628800729348,-4,-4,-4,-26,-9,-4,8,0
1480628800738372,-1,-3,-1,15,-1,-5,-14,-4
1480628800738372,-9,1,4,9,-1,-3,-6,-8
1480628800753412,-3,-6,-7,-25,-6,-6,-11,-2
1480628800753412,5,2,2,-10,5,3,-1,4
1480628800754916,-5,-6,-25,-28,-7,-3,-1,-4
1480628800754916,-2,1,18,33,7,0,7,0
1480628800767453,-4,-3,-4,-5,-6,-7,-20,-10
1480628800767453,-11,-4,-7,-25,6,3,8,-5
1480628800775973,5,-12,-2,26,-23,-15,-12,-2
1480628800775973,1,5,8,16,5,1,1,3
1480628800790010,-1,-2,-2,10,-1,-3,2,-1
1480628800790010,4,4,10,-4,2,0,5,8
1480628800797028,-4,-3,-12,-26,1,1,-5,-4
1480628800797028,0,-1,-6,-10,-4,2,9,-4
1480628800813071,6,2,8,26,3,2,-1,8
1480628800813071,-4,2,-10,-37,0,-1,5,-5
1480628800821092,4,2,18,59,5,0,-7,0
1480628800821092,-7,-5,-9,-21,-5,-3,6,-10
1480628800827108,-1,3,-5,-32,4,5,6,-7
1480628800827108,1,2,18,56,-1,-1,3,0
1480628800852175,8,6,4,6,3,2,8,12
1480628800852175,5,0,-9,-36,-4,-4,-12,-10
1480628800853177,-10,-9,-2,19,-5,-6,-17,1
1480628800853177,-1,-4,-4,-1,-6,-4,-8,-6
1480628800857188,5,0,-9,-40,-1,1,12,6
1480628800857188,-5,1,15,43,4,-3,-10,-4
1480628800873231,1,-3,-8,-19,-3,0,2,-1
1480628800873231,19,3,3,30,3,-1,-1,10
1480628800874736,-11,-6,-3,-33,-5,-7,-8,-8
1480628800874736,-1,-1,-2,11,-3,-4,-1,-1
1480628800903311,2,6,8,-1,6,3,-3,1
1480628800903311,-9,-8,-5,8,-9,-5,2,-2
1480628800904817,-10,1,-8,-39,-2,0,-14,-19
1480628800904817,5,2,-1,-24,5,5,7,4
1480628800910831,-2,-3,21,81,2,-6,-3,-1
1480628800910831,4,1,-6,-17,-3,-2,-5,-4
1480628800912335,0,1,-6,-27,3,4,5,2
1480628800912335,-5,-2,-2,-6,-2,-2,-7,-3
1480628800933391,0,-4,-23,-39,-14,-2,-15,-2
1480628800933391,1,3,14,39,6,-3,-19,8
1480628800934895,-1,0,-5,-12,4,12,48,7
1480628800934895,-2,-2,6,22,0,0,3,4
1480628800946926,0,1,-1,-27,2,-2,-3,-3
1480628800946926,-2,2,1,-10,-1,1,-5,-6
1480628800955951,0,-4,-12,-15,-7,-6,-11,-1
1480628800955951,-2,0,12,52,5,-1,-2,0
1480628800970990,-2,1,-1,-19,-2,0,8,2
1480628800970990,-4,-4,-3,24,-2,-3,-2,-6
1480628800972494,1,0,1,-30,-1,1,-1,4
1480628800972494,6,-1,-4,14,-1,-1,0,-5
1480628800993051,-6,-2,-4,-8,-4,-6,-12,-15
1480628800993051,11,6,-4,-19,3,6,11,11
1480628800995054,-3,-2,6,27,-2,-4,-23,-3
1480628800995054,-2,-3,2,-14,-2,-3,2,2
1480628801015610,-2,-1,-2,-17,1,2,-10,-3
1480628801015610,-6,-4,-3,32,-10,-5,14,-6
1480628801017615,5,6,3,-3,8,6,-9,-1
1480628801017615,-6,-3,-1,6,-9,-5,6,6
1480628801030650,-1,-1,1,0,2,1,2,5
1480628801030650,-5,-2,-3,-33,-2,-1,-15,-18
1480628801032154,2,2,-28,-83,-4,2,-1,-4
1480628801032154,-9,-14,12,83,-11,-13,-5,-10
1480628801053212,6,5,4,2,2,-1,-2,14
1480628801053212,-5,-3,-2,-5,-2,-1,19,7
1480628801054716,7,4,8,16,2,1,7,8
1480628801054716,-8,-6,-19,-49,-1,5,-7,-19
1480628801075769,-16,-1,-2,-23,-2,-2,-2,-13
1480628801075769,-8,-4,1,-6,-1,-2,-9,5
1480628801077274,2,14,2,6,7,2,0,-1
1480628801077274,-3,-11,11,62,-3,-6,-17,1
1480628801091814,0,-4,9,23,-1,-3,19,2
1480628801091814,1,3,-7,-17,1,2,1,-4
1480628801096826,11,2,2,-29,4,3,6,3
1480628801096826,-3,-1,-10,-6,-1,-1,-1,7
1480628801113371,5,1,1,6,0,2,1,-2
1480628801113371,1,-2,-3,-5,-2,-2,-6,-2
1480628801115877,-3,-6,3,20,-4,-3,2,-1
1480628801115877,4,11,-2,-22,6,6,1,-3
1480628801136431,1,-3,-7,-16,-4,-2,-2,5
1480628801136431,1,1,3,17,0,-1,-4,-1
1480628801137935,0,-5,8,39,0,-2,3,4
1480628801137935,1,5,-8,-37,1,4,1,2
1480628801149967,8,0,-7,-9,1,1,4,5
1480628801149967,2,-2,8,21,-3,0,2,-4
1480628801156986,-22,-7,1,27,0,-4,-3,-8
1480628801156986,1,3,-3,-38,-3,1,1,0
1480628801173529,7,7,-5,-7,1,2,3,3
1480628801173529,-15,-19,-15,7,-2,-7,-16,-16
1480628801175034,-11,0,7,9,1,2,5,-9
1480628801175034,8,2,0,2,2,1,16,19
1480628801195588,-11,-3,-4,2,-3,-3,9,-8
1480628801195588,0,3,10,29,3,3,-3,-5
1480628801197594,3,-1,-11,-32,-4,0,3,7
1480628801197594,-3,1,-4,-41,1,2,0,-3
1480628801210128,4,-5,-2,14,-2,-2,-5,3
1480628801210128,2,5,4,2,4,1,4,6
1480628801216644,-1,-5,4,23,-5,-5,-3,-8
1480628801216644,4,4,3,-6,3,0,-4,1
1480628801233188,12,0,-1,-1,0,2,-4,6
1480628801233188,-1,-2,-11,-27,-8,-4,5,7
1480628801234692,2,0,5,28,5,-1,-8,-2
1480628801234692,2,2,-6,-27,-2,2,1,2
1480628801264271,-12,-9,1,10,1,1,1,-8
1480628801264271,3,5,12,6,4,3,-1,6
1480628801270788,4,0,-16,-41,-8,-3,0,3
1480628801270788,2,1,22,59,10,2,2,3
1480628801271289,8,4,-6,-16,-3,-3,-13,-10
1480628801271289,-17,-2,8,10,1,-1,1,-8
1480628801276805,12,3,-2,10,1,0,-2,4
1480628801276805,-11,1,-8,-26,-3,0,1,-4
1480628801293351,0,4,15,15,2,-2,-3,-1
1480628801293351,4,0,-9,-33,-2,2,2,2
1480628801294852,-6,-4,2,23,1,0,-1,-3
1480628801294852,3,1,-4,-16,-6,-2,-2,-1
1480628801315908,-3,4,13,57,8,2,-4,2
1480628801315908,1,-8,-10,-33,-6,-4,13,7
1480628801317419,0,-1,-4,10,-2,-2,-1,-4
1480628801317419,8,10,11,4,2,0,-3,-1
1480628801329946,-11,-7,-2,-4,-1,0,4,5
1480628801329946,6,0,1,12,-1,-1,-13,-2
1480628801344484,5,3,1,-10,0,3,4,6
1480628801344484,-3,-7,-13,-11,-1,-2,-1,-3
1480628801353508,-2,-5,-2,-4,-4,-5,-4,-1
1480628801353508,1,6,9,16,4,2,-11,1
1480628801355013,0,-2,3,-1,0,2,18,10
1480628801355013,3,0,-8,-16,-4,1,-2,6
1480628801383088,-4,2,0,-10,0,0,1,-7
1480628801383088,6,1,0,16,2,0,1,1
1480628801385093,-3,0,-4,-7,1,0,-8,-4
1480628801385093,0,-6,2,39,-3,-2,3,8
1480628801390106,1,2,3,-25,-3,0,0,-3
1480628801390106,1,-3,-9,0,0,-1,2,-2
1480628801397124,-1,1,4,0,1,0,-3,-2
1480628801397124,-1,-2,-7,-22,-4,-1,1,-2
1480628801413168,10,7,-6,-11,-1,1,1,5
1480628801413168,-6,-4,6,13,-1,-1,1,-4
1480628801414672,-5,-3,14,19,1,-2,-7,-3
1480628801414672,3,1,-2,-3,2,1,2,1
1480628801435727,2,-1,-5,-1,-2,0,2,5
1480628801435727,10,6,-4,-34,-1,2,2,-4
1480628801437232,-6,-2,2,11,-3,-2,-1,2
1480628801437232,-1,-1,-5,-2,1,-3,-3,-6
1480628801449263,0,-3,0,-1,-2,0,3,7
1480628801449263,-3,3,-2,-7,0,-2,-1,-11
1480628801458289,-7,-2,10,19,-1,0,-14,-10
1480628801458289,1,-7,-10,-18,-5,-2,9,4
1480628801473328,2,1,-4,4,2,1,-4,-2
1480628801473328,-8,-4,-5,-10,-1,0,6,9
1480628801474831,15,9,-1,2,0,-1,-2,2
1480628801474831,-13,-10,-6,0,-3,-2,-4,-6
1480628801495889,-7,-1,-1,-7,-1,-4,-6,-6
1480628801495889,-1,-2,-10,2,-4,-2,-3,1
1480628801497392,-2,-2,-1,5,3,-1,-1,-2
1480628801497392,3,3,3,-2,1,2,-3,-2
1480628801509423,0,-3,-2,-5,-1,1,1,1
1480628801509423,-2,-1,0,3,1,0,-1,-1
1480628801518448,-2,-5,-3,-16,-5,-3,3,-4
1480628801518448,0,4,8,14,3,0,-3,-2
1480628801533487,-1,-1,-11,10,1,2,0,-2
1480628801533487,3,1,11,3,-2,0,1,1
1480628801539503,2,4,8,-13,-1,1,3,2
1480628801539503,-7,-7,-10,-7,-4,-3,-3,-5
1480628801556051,-1,0,3,3,0,-1,1,0
1480628801556051,3,-1,9,36,3,-1,-2,1
1480628801559557,1,-2,-13,-22,-2,-1,0,-1
1480628801559557,-8,-4,-1,-16,-2,-3,-4,-1
1480628801569583,4,0,0,-9,0,0,5,5
1480628801569583,-8,-3,6,21,2,0,-2,-3
1480628801578607,7,-3,-10,-21,-1,-2,-1,12
1480628801578607,-8,6,11,26,0,-2,-5,-18
1480628801592649,-2,-8,-5,0,-2,-1,-5,-7
1480628801592649,-7,-1,-1,-15,-2,-1,0,4
1480628801600666,-4,1,3,12,1,1,2,-7
1480628801600666,2,-3,-13,-22,-2,1,-1,-3
1480628801624229,2,4,13,10,-1,-2,0,0
1480628801624229,-1,-8,-7,-1,-1,-2,0,-4
1480628801630244,-1,-2,-3,1,0,0,2,2
1480628801630244,2,-2,-6,-3,-1,-1,1,4
1480628801630746,-6,1,4,9,0,1,-1,-7
1480628801630746,7,2,-7,-8,-2,0,2,4
1480628801639270,-4,-5,-4,-4,-4,-3,-1,1
1480628801639270,4,2,0,-5,0,-2,-2,-1
1480628801653306,0,0,11,43,-2,-1,1,4
1480628801653306,2,-3,-7,-51,-3,0,2,4
1480628801654810,3,7,-2,-6,1,1,-3,1
1480628801654810,-1,0,13,26,5,-1,-1,1
1480628801675866,-2,-2,1,-1,-5,-3,0,-1
1480628801675866,-8,-2,-4,6,-2,-1,-3,-7
1480628801677370,2,1,3,3,1,1,-1,2
1480628801677370,9,6,1,-11,3,4,5,12
1480628801689402,-4,-2,-10,-11,0,-1,-1,-1
1480628801689402,2,5,6,5,0,-1,-2,1
1480628801705947,-6,-2,-2,-2,-3,-2,-2,-1
1480628801705947,-1,-1,9,3,0,-1,0,-1
1480628801713466,3,-5,-1,-4,-1,0,-1,1
1480628801713466,6,4,2,-1,0,0,1,0
1480628801714970,-6,-7,-1,13,1,-1,-1,-3
1480628801714970,5,0,-9,-8,-2,0,2,3
1480628801735524,-1,3,-2,-8,0,-1,0,-1
1480628801735524,0,-1,-4,-5,0,-1,0,-3
1480628801737530,0,0,3,8,-1,-1,-3,-3
1480628801737530,-1,1,3,2,-2,0,-2,0
1480628801749562,-3,-1,2,-9,0,-2,-1,-3
1480628801749562,-3,-1,-6,0,1,-1,-1,5
1480628801758586,11,2,-7,-12,-3,2,3,3
1480628801758586,-6,-3,6,20,-1,-4,-4,-13
1480628801773627,-6,-11,-9,-4,0,0,-1,-2
1480628801773627,5,6,7,9,1,1,0,3
1480628801796186,3,1,5,2,-1,0,-1,-5
1480628801796186,-2,2,-3,-28,-2,-1,1,3
1480628801797189,3,-1,-1,-10,-3,-1,0,1
1480628801797189,-3,-7,-1,3,1,-1,0,-2
1480628801798694,-5,4,6,-3,-2,-1,-3,-2
1480628801798694,-2,-4,-10,9,2,1,0,0
1480628801809722,2,1,3,7,3,2,2,4
1480628801809722,2,1,-1,-10,-1,0,1,0
1480628801818245,-1,-2,-4,12,2,0,1,4
1480628801818245,-5,-3,-2,1,0,0,-2,-7
1480628801833285,2,1,-2,-5,1,-1,0,-1
1480628801833285,-1,-2,0,2,-2,0,-1,-3
1480628801839300,-1,-2,-3,1,0,-1,-1,1
1480628801839300,-3,-9,-1,-4,-3,-2,-1,1
1480628801855846,-6,2,-2,-8,0,-1,-1,-4
1480628801855846,0,1,0,4,2,0,0,0
1480628801857350,5,4,9,3,0,0,-1,3
1480628801857350,-4,-9,-15,-13,-3,-1,1,3
1480628801884925,-2,0,-6,4,1,-1,-1,-2
1480628801884925,3,0,1,2,0,-1,2,9
1480628801902971,0,0,-1,-3,-2,-1,-1,-5
1480628801902971,-3,4,2,2,-2,-2,-2,-1
1480628801903975,-1,0,-2,1,-1,0,0,-2
1480628801903975,-1,-1,0,-1,-1,-2,-3,-5
1480628801907483,-7,-4,-4,-4,0,-1,0,-1
1480628801907483,9,5,4,3,0,2,3,12
1480628801915511,-8,-4,-9,-2,-2,0,-2,-5
1480628801915511,2,2,1,-1,-1,0,-1,-1
1480628801917509,-4,-1,-3,0,-1,-2,-1,-1
1480628801917509,-2,0,-1,-2,1,-2,-1,-3
1480628801938063,7,2,6,0,-2,-1,2,8
1480628801938063,-2,-2,1,-2,-2,1,-2,-4
1480628801940069,-6,-4,-5,-1,-2,1,0,-5
1480628801940069,1,2,1,0,0,-1,0,-5
1480628801960623,12,7,2,-2,-1,-2,1,10
1480628801960623,-7,-2,1,2,2,0,-2,-7
1480628801962128,-3,-1,0,-1,-1,-2,0,0
1480628801962128,5,6,4,-1,1,4,2,7
1480628801984688,5,-3,-3,0,0,-2,-2,3
1480628801984688,15,3,-1,0,-1,0,-1,-2
1480628801986192,-4,-4,-3,-2,0,-1,0,9
1480628801986192,6,1,-2,-1,0,-1,-2,4
1480628801998224,-3,-1,8,2,-1,-1,-2,-14
1480628801998224,-5,-3,-4,-1,0,-2,-1,-3
1480628801999728,-6,-6,0,-1,-1,-1,-1,-6
1480628801999728,3,1,-8,-2,-1,-2,-2,-3
1480628802011759,-2,-5,3,3,1,3,0,-3
1480628802011759,0,2,-1,-2,-1,-1,0,3
1480628802020784,1,-2,-4,-1,-3,-2,-3,-7
1480628802020784,-6,-3,-1,0,0,1,0,-1
1480628802035323,0,1,4,0,-2,0,0,-3
1480628802035323,-9,-3,0,0,-1,-2,2,3
1480628802043845,7,5,0,3,1,0,-1,-3
1480628802043845,2,-2,-1,0,-3,-1,-1,3
1480628802065903,-3,3,2,-3,0,-1,-2,-3
1480628802065903,-1,-1,6,2,0,-1,2,3
1480628802067407,2,-1,-2,0,0,1,1,2
1480628802067407,-2,0,3,0,-1,-1,0,-4
1480628802072421,-4,-4,-4,-3,-2,-2,-2,-5
1480628802072421,0,1,-2,0,-1,2,0,1
1480628802086975,9,0,-2,-2,-1,-1,0,-1
1480628802086975,-10,-3,1,0,2,2,0,-6
1480628802096485,3,-1,-4,1,0,1,-1,6
1480628802096485,-1,1,-1,-1,-2,-1,0,-2
1480628802097989,-9,-4,-1,-3,-1,-1,-3,-15
1480628802097989,-5,6,7,3,3,3,3,3
1480628802118544,-1,0,-3,0,1,-1,1,-2
1480628802118544,-2,-3,-3,-1,-2,-1,-3,-7
1480628802124561,-8,-2,-1,-1,0,-1,-1,-4
1480628802124561,10,-4,-2,-2,-3,-4,-3,4
1480628802132581,-3,-6,-4,-2,-1,-2,-1,-2
1480628802132581,-1,1,0,1,1,0,0,5
1480628802156645,1,0,0,-1,0,-1,0,4
1480628802156645,-8,-6,0,-2,-1,-1,-2,-9
1480628802157148,18,2,1,-2,0,1,2,4
1480628802157148,5,0,1,-2,-1,0,1,10
1480628802158651,0,3,2,0,0,0,-3,-9
1480628802158651,9,3,1,0,-1,-1,-2,4
1480628802178202,-15,-2,-2,-2,1,1,0,-4
1480628802178202,-5,-4,-3,-1,-1,-1,-3,-15
1480628802179706,-3,-1,1,-2,0,0,6,19
1480628802179706,15,6,3,1,0,2,2,-4
1480628802192741,-3,-3,-2,-1,-1,-2,1,6
1480628802192741,10,3,1,0,2,1,1,3
1480628802206779,-7,1,-1,-1,-1,-1,-1,1
1480628802206779,-6,-4,-2,0,-3,-4,-4,-6
1480628802215302,-7,-4,-4,-2,-1,-2,1,6
1480628802215302,15,0,-2,-2,0,0,-3,-10
1480628802223324,-33,0,0,-1,-1,-2,0,-7
1480628802223324,-7,-1,-1,-1,1,3,1,3
1480628802238362,5,3,2,-1,-2,-2,-5,-15
1480628802238362,-10,-4,-1,0,-2,-1,0,4
1480628802239867,18,4,2,1,2,3,-1,-10
1480628802239867,1,17,8,0,0,-2,-1,3
1480628802252903,-7,-1,-2,-1,0,0,-1,1
1480628802252903,-15,-4,-2,-2,0,-2,-3,-6
1480628802259418,7,1,-3,-2,-2,-2,-2,7
1480628802259418,-12,-14,-9,-3,-3,-2,-3,-8
1480628802275963,11,2,-1,-3,0,0,3,5
1480628802275963,-7,0,-1,0,0,0,1,-2
1480628802277472,14,-2,-3,-3,-1,0,-1,5
1480628802277472,1,-3,-1,0,1,1,-2,1
1480628802298021,-10,-1,0,-1,-1,1,-2,-4
1480628802298021,-4,-1,-8,-3,-1,-3,-5,-10
1480628802300027,-3,-5,1,3,-1,1,4,7
1480628802300027,-4,-4,-3,-4,-3,-1,-3,-9
1480628802320583,7,-1,-1,0,1,1,2,7
1480628802320583,0,-2,-5,-1,1,0,-1,-5
1480628802322587,10,-1,-7,-2,-1,-1,0,10
1480628802322587,1,-2,4,0,0,0,1,1
1480628802335620,-7,-2,-1,-1,-2,-3,1,2
1480628802335620,1,-2,-1,-1,-1,-2,2,0
1480628802337125,-3,0,-1,-1,-1,-2,-3,-5
1480628802337125,5,-2,-3,0,-2,0,1,5
1480628802358184,-9,-3,0,-1,-2,-1,-4,-13
1480628802358184,-10,-3,-1,0,-1,0,0,0
1480628802359685,-6,-1,1,1,-2,0,-1,-1
1480628802359685,-1,0,-2,0,0,0,0,5
1480628802372720,8,6,4,4,3,3,1,2
1480628802372720,11,0,2,1,-2,-1,0,11
1480628802379238,-14,-3,-2,-1,0,-2,-4,-18
