timestamp,x,y,z
1480628787058979,0.5,0.0625,0
1480628787073519,0.25,-0.0625,-0.125
1480628787096580,-0.3125,-0.125,-0.4375
1480628787119140,-0.25,-0.1875,-0.5625
1480628787140697,-0.375,0.0625,-0.0625
1480628787156740,-0.3125,0.0625,0.125
1480628787179300,0.5,0.0625,-0.25
1480628787193338,0.625,0,0
1480628787223919,0.4375,0.0625,-0.25
1480628787238959,0.375,0.0625,-0.25
1480628787267535,1.1875,0.0625,-0.0625
1480628787277062,0.4375,0.0625,0.375
1480628787305134,0.3125,-0.0625,0
1480628787320676,0.4375,-0.125,-0.4375
1480628787336720,0.5625,-0.125,-0.375
1480628787359280,0.3125,-0.1875,-0.5
1480628787387855,-0.375,-0.25,-0.5625
1480628787396879,-0.5,-0.125,-0.6875
1480628787418937,-0.4375,0,-0.8125
1480628787439993,-0.5,-0.125,-1.25
1480628787456539,-1.1875,-0.1875,-0.875
1480628787479098,-1.375,-0.25,-0.5625
1480628787500154,-0.625,-0.0625,-0.6875
1480628787517701,0.375,0,-0.25
1480628787539258,0.25,0,0.1875
1480628787560320,-0.25,-0.0625,0
1480628787576859,0.375,-0.0625,-0.1875
1480628787598916,0.5625,-0.0625,-0.4375
1480628787620975,-0.625,-0.25,-0.4375
1480628787636516,-0.5,-0.1875,-0.5
1480628787665092,-0.25,-0.1875,-0.125
1480628787680133,-0.625,-0.25,-0.375
1480628787696676,-0.375,-0.25,-0.5
1480628787725255,0.1875,-0.25,-0.5
1480628787741796,0.25,-0.1875,-0.3125
1480628787758346,0.125,0,-0.1875
1480628787778895,0.125,0.1875,-0.0625
1480628787801455,-0.375,0.1875,-0.0625
1480628787816495,-0.5,-0.125,-0.25
1480628787839055,-0.25,-0.1875,-0.625
1480628787861616,0.375,0,-0.4375
1480628787876657,0.5625,-0.0625,-0.1875
1480628787899717,0.375,0,-0.1875
1480628787921776,1,0.0625,-0.3125
1480628787942832,0.9375,0.125,-0.25
1480628787959376,0.6875,0.1875,-0.25
1480628787982437,0.4375,0,-0.1875
1480628787995973,0.5,0,-0.1875
1480628788019034,0,0.0625,0
1480628788047611,-0.0625,-0.125,-0.125
1480628788056132,-0.25,-0.25,-0.25
1480628788086714,-0.5,-0.1875,-0.25
1480628788101754,-1.25,-0.125,-0.375
1480628788115791,-2,-0.1875,-0.25
1480628788138853,-1.5625,0,-0.3125
1480628788161413,-0.5,0.1875,-0.6875
1480628788183471,-1.125,0.3125,-0.9375
1480628788199514,-1,0.25,-1.375
1480628788221574,-1.0625,0.375,-1.5
1480628788242630,-2.0625,0.625,-1
1480628788260177,-3.0625,1.4375,-0.75
1480628788281733,-5.25,2.9375,-1.4375
1480628788302288,-11.25,7.1875,-2.625
1480628788319333,-19.875,13.9375,-3.1875
1480628788341894,-31.0625,20.4375,-2.0625
1480628788362448,-39,26.9375,0.375
1480628788378992,-40.6875,33.875,7.25
1480628788402053,-34.125,36.75,7.3125
1480628788422607,-37.6875,35.6875,13.375
1480628788438651,-38.25,35.5625,16.625
1480628788475749,-29.5625,34.1875,19.375
1480628788489786,-20.9375,31,19.0625
1480628788499815,-16.9375,27.375,16.125
1480628788522373,-12.4375,26.5625,14.625
1480628788542427,-12.625,24.875,10.4375
1480628788558470,-12.5,21.3125,8.5
1480628788582032,-12.6875,19.6875,9.8125
1480628788602586,-10.375,18.4375,8.5625
1480628788618629,-11,16.125,5.8125
1480628788641691,-12.0625,12.6875,3.8125
1480628788664753,-4.3125,8.3125,3.5625
1480628788678290,-3.625,5.6875,4.625
1480628788701850,5.5625,6.9375,11.375
1480628788726416,17.9375,10.25,10.9375
1480628788744965,13.875,12.4375,8.8125
1480628788776552,-6.5,12.5625,5.5
1480628788784069,-27.3125,12.8125,-1.25
1480628788805126,-32,12.0625,-7.3125
1480628788822672,-29.1875,13.4375,-5.8125
1480628788844233,-20.1875,13.5625,-3.875
1480628788865788,-18.125,14.125,-3.9375
1480628788889349,-19.75,14.375,-2.125
1480628788904389,-18.5,13.5,0.3125
1480628788925446,-5.125,10.625,5.125
1480628788941488,6.25,12.875,6
1480628788972070,6.25,15.3125,4.875
1480628788985104,-3.6875,16.125,3
1480628789001648,-8.0625,16.0625,3.5625
1480628789031729,-8.25,15.75,5.125
1480628789045264,-7,14.375,5.5625
1480628789061808,-6.375,13.375,2.9375
1480628789083867,-8.875,12.3125,0.5625
1480628789098405,-14.4375,11.125,1.125
1480628789121467,-18.0625,9.5625,2.3125
1480628789144030,-14.625,6.6875,3.5625
1480628789166587,-6.0625,2.5,5.625
1480628789187644,-1.625,1.625,6.4375
1480628789203686,2.125,0.6875,6
1480628789225243,2.375,0.4375,4.4375
1480628789249309,2.4375,-0.3125,6.4375
1480628789263845,-1.25,-3.875,8.8125
1480628789285403,-2.9375,-7.375,8.5625
1480628789301450,4.125,-9.75,8.9375
1480628789324507,16.3125,-10.1875,10.25
1480628789346065,19.625,-11.25,10
1480628789361105,16.6875,-12,9.9375
1480628789390182,13.6875,-12.875,9.875
1480628789405221,10,-15,9.125
1480628789420764,7.1875,-14.125,5.875
1480628789445328,12.75,-12.0625,7.75
1480628789465382,7.0625,-13.875,1.875
1480628789482929,0.4375,-10.75,2.0625
1480628789503984,-0.875,-7.0625,3.9375
1480628789527047,0.875,-5.5,1.8125
1480628789542588,-2.8125,-3.4375,1.6875
1480628789564144,-5.8125,0.6875,5.8125
1480628789586704,-6.9375,0.9375,4.1875
1480628789608263,-3.5,1,3
1480628789624305,-2.6875,0.875,3.375
1480628789646864,-4.5625,1,5.1875
1480628789661404,-0.3125,3.875,6.5
1480628789683964,1.625,7.6875,7.25
1480628789723068,-1.5625,10.625,7.5625
1480628789727580,-2.3125,13.625,8.0625
1480628789744123,-6.4375,19.75,8.6875
1480628789767185,-12.6875,24.25,6.5625
1480628789789243,-21.5,26.6875,3.5625
1480628789805286,-26.0625,27.9375,-2.75
1480628789826847,-30.4375,28.5,-6.4375
1480628789847900,-30.9375,28.0625,-5.25
1480628789864945,-21.6875,22.8125,-11.875
1480628789886502,-5,19.3125,-17.125
1480628789915078,-1.75,22.0625,-17.25
1480628789924103,-9.6875,22.625,-14.6875
1480628789947165,-22.75,20.0625,-8.4375
1480628789967719,-32.75,16.9375,-6.625
1480628789984262,-23.6875,12.5,-6.125
1480628790006823,-10.125,10.25,-2.75
1480628790035398,2.9375,8.125,-2.875
1480628790043921,4.8125,8.625,-2.4375
1480628790066482,-6.125,9.9375,1.0625
1480628790088039,-11.1875,10.8125,2.4375
1480628790111602,-9.9375,9.625,1.0625
1480628790126643,-11.3125,10.1875,0.625
1480628790147697,-11,10.125,-1.125
1480628790164241,-4.4375,8,-3.875
1480628790194321,-5.75,5.0625,-4.6875
1480628790207857,-7.9375,2.5,-4.1875
1480628790223900,-3,0.5,-5.6875
1480628790247464,3.3125,0,-3.4375
1480628790275035,5.6875,0.5,-2.0625
1480628790284060,8.125,2.625,-0.4375
1480628790306620,0.75,2.3125,2.25
1480628790327676,-4,1.875,1.5
1480628790344220,0.0625,0.9375,3.875
1480628790366780,6.1875,1.125,4.875
1480628790387838,11.9375,1.75,2.1875
1480628790404380,8.625,3.6875,2
1480628790426440,0.5625,4.25,2.875
1480628790448998,-2.3125,3.9375,2.6875
1480628790471558,0.0625,3.4375,2.8125
1480628790487099,5.5625,4.25,3.25
1480628790507654,6.3125,5.4375,1.0625
1480628790530215,0.4375,7,0.0625
1480628790547260,-6,7.625,1.3125
1480628790575335,-7.8125,7.0625,2
1480628790584359,-4,7.5,1.3125
1480628790607922,-0.9375,6.9375,0.375
1480628790628977,-3.375,6.8125,0.1875
1480628790643516,-8.3125,4.5625,-1.0625
1480628790666584,-10,2.125,-0.0625
1480628790689137,-5.4375,-0.875,-1.875
1480628790703676,-0.4375,-2.625,-2.5625
1480628790726742,4.0625,-4.125,-2.375
1480628790749298,2.0625,-5.1875,-5.8125
1480628790770353,-8.875,-6.375,-4.1875
1480628790786397,-14.25,-6.5625,0.3125
1480628790808957,-4.4375,-5.1875,0
1480628790831517,4.625,-2.6875,0.4375
1480628790846557,3.4375,-3.125,-0.1875
1480628790875133,-2.4375,-3.6875,0.9375
1480628790883654,-6.125,-1.625,1.75
1480628790912732,-1.375,-0.875,0.4375
1480628790929276,2.0625,-1.625,-0.1875
1480628790943317,3,-2.75,0.875
1480628790966375,2.375,-3.75,2
1480628790988935,6.375,-6.5,0.1875
1480628791009993,12.8125,-8.375,-0.6875
1480628791026537,13.375,-9.375,-1.8125
1480628791056615,6.75,-10.0625,-2.5
1480628791077672,0.5625,-12.375,-1.4375
1480628791086695,6.75,-12.6875,-3.3125
1480628791109765,13.75,-11.625,-3.4375
1480628791130311,12.4375,-10.875,-5.5
1480628791146856,3.5625,-10.6875,-5.125
1480628791168913,-0.0625,-11.4375,-5
1480628791191474,5.4375,-6.75,-4.4375
1480628791206515,5.8125,-2.875,-0.4375
1480628791229074,2.75,-3.9375,-0.375
1480628791251134,-2.375,-5.1875,-0.625
1480628791267176,2.5,-5.375,-0.75
1480628791289234,6.6875,-4.875,-3.0625
1480628791310293,4.375,-5.1875,-5.375
1480628791326836,0.75,-5.875,-5.5
1480628791356412,-2.25,-5.3125,-5.625
1480628791369948,1.125,-3.5625,-5.125
1480628791387495,3.25,-3,-4.5
1480628791409061,0.8125,-4.25,-4.0625
1480628791430610,0.375,-6.0625,-3.125
1480628791448157,4.625,-4.0625,-1.5625
1480628791470215,5.0625,-1.5,-2.0625
1480628791491774,0.875,-0.375,-2.3125
1480628791506812,-5.3125,-2.375,-1.1875
1480628791528873,-3.125,-5.0625,-1.3125
1480628791551432,3.9375,-6,-0.8125
1480628791566471,7.5625,-6.1875,-0.5
1480628791589031,7.4375,-7.1875,-2.0625
1480628791611591,5.25,-6.9375,-1.8125
1480628791626134,5.75,-5.125,-1.875
1480628791664231,4.75,-2.75,-2.75
1480628791671751,-1.875,-0.5625,-2.5625
1480628791686291,-1.5625,0.625,-4
1480628791709352,2.1875,1.875,-5.8125
1480628791731411,5,4,-7.125
1480628791752466,1.375,6.8125,-5.875
1480628791776533,-2.9375,8.4375,-6.125
1480628791791572,1,9,-9.5
1480628791806112,-2.0625,10.125,-8.625
1480628791829170,-11.6875,10.3125,-8.1875
1480628791859753,-20.25,8.1875,-6.875
1480628791872786,-16.1875,6.125,-7.6875
1480628791888829,-3.375,5.625,-5.125
1480628791917406,-0.25,6.5625,-3.6875
1480628791939965,-6.875,6.8125,-2.6875
1480628791948989,-12,5.5625,-0.25
1480628791971549,-12.8125,5.375,1
1480628791992605,-9.6875,5.5,0.4375
1480628792009653,-4.75,6.1875,0.5625
1480628792031717,-3.25,5.625,0.0625
1480628792052765,-4.25,4.625,-0.375
1480628792068810,-6.0625,3.625,-1.1875
1480628792091871,-5.125,3.5,-2.375
1480628792112423,-1.3125,2.8125,-2.5625
1480628792136487,-0.875,3.375,-2.25
1480628792151528,-2.8125,3.9375,-1.75
1480628792173088,-3.0625,3.9375,-1.0625
1480628792189128,-2.0625,3.9375,-0.625
1480628792219208,-1.9375,4.9375,-0.3125
1480628792232744,-4.625,5.5,-0.3125
1480628792249789,-5.375,5.3125,-0.875
1480628792271848,-5.4375,5.4375,-1.125
1480628792292909,-5.25,4.9375,-1.1875
1480628792309452,-2.8125,4.4375,-1.75
1480628792332008,-3.0625,3.9375,-1.6875
1480628792352564,-4,2.875,-2.125
1480628792369107,-3.6875,2.625,-1.5625
1480628792391668,-1.0625,3.375,-1.5
1480628792414728,-1,3.125,-1.0625
1480628792429267,-3.625,1.75,-1.25
1480628792451826,-4.1875,0.4375,-0.75
1480628792473885,-0.625,0.5625,-1
1480628792497448,1.5625,0.6875,-0.6875
1480628792517505,-1.125,-0.25,-1.75
1480628792534045,-1.25,-0.3125,-0.6875
1480628792549085,-0.8125,-0.625,-0.5625
1480628792571646,-0.625,-0.4375,-0.625
1480628792594206,0.9375,-0.6875,0.5
1480628792615264,0.75,-1.0625,0.375
1480628792637822,-0.3125,-1.3125,0
1480628792653865,1.5625,-2.125,0.25
1480628792668404,2.5625,-1.8125,0.3125
1480628792691465,1.875,-1.125,0.9375
1480628792721544,0.75,-1.3125,1.5625
1480628792728563,-0.125,-2.375,0.75
1480628792752126,-0.1875,-3.125,-0.0625
1480628792780200,1.5,-4,-0.75
1480628792788222,2.4375,-5.25,-3
1480628792811784,3.5625,-6.5,-5
1480628792834345,4.6875,-7.5625,-6.25
1480628792848382,3.875,-8,-6.25
1480628792871443,-1.125,-7.75,-6.25
1480628792894006,-9,-8,-6.875
1480628792909049,-12.75,-8.5625,-5.8125
1480628792932104,-11.625,-8.6875,-3.4375
1480628792954163,-7.6875,-8.75,-2.875
1480628792975219,-0.5,-8.0625,-2
1480628792999283,4.5625,-7.9375,-0.75
1480628793013822,2.5625,-10.1875,-1.6875
1480628793035379,2.125,-10.5625,-0.3125
1480628793051423,7.5625,-10.125,0.5
1480628793073982,13.1875,-11.625,-0.1875
1480628793102559,13.25,-12.9375,0.375
1480628793111582,12.75,-13.875,1.8125
1480628793134142,17.625,-13.375,1.9375
1480628793155200,21.25,-12.1875,2.5625
1480628793170739,21,-12.8125,1.5625
1480628793194302,20.625,-13.1875,-0.4375
1480628793215358,20.6875,-11.875,-0.9375
1480628793230899,16.6875,-8.25,0.25
1480628793253961,9,-2.9375,-0.6875
1480628793259477,1.6875,2.3125,0.25
1480628793283539,-6.875,3.1875,-0.625
1480628793298579,-12.625,1.8125,-1.0625
1480628793327157,-9.0625,0.4375,-3.1875
1480628793342196,-1.8125,0.5625,-4.8125
1480628793359743,0.875,-0.125,-4.6875
1480628793379294,-0.9375,-2.375,-5.8125
1480628793410878,-4,-4.9375,-4.5
1480628793416895,-4,-5.5,-2.9375
1480628793439454,0.0625,-3.9375,-1.0625
1480628793470537,2.9375,-2.0625,-0.625
1480628793477055,2.375,-0.9375,-0.1875
1480628793499614,0.3125,-1.5,0.4375
1480628793524682,-0.9375,-2.8125,0.9375
1480628793537214,-0.625,-4.4375,0.6875
1480628793559776,4.25,-5,-0.125
1480628793581833,6.625,-4.9375,-0.625
1480628793607903,6.25,-4.5625,-1.1875
1480628793619433,3.6875,-4.4375,-1.25
1480628793645001,0.75,-3.9375,-0.625
1480628793658538,0.125,-3,-0.125
1480628793687113,2.9375,-2.5,0.125
1480628793702153,2.8125,-2.5625,-0.625
1480628793718195,0.3125,-3.1875,-1.0625
1480628793746772,0.6875,-3.625,-0.5
1480628793761812,3.3125,-3,-0.6875
1480628793778356,5.25,-1.875,-0.125
1480628793800917,3.25,-0.625,-0.0625
1480628793823476,-0.5,-1.25,-0.875
1480628793838517,-1.3125,-1.1875,-0.8125
1480628793859572,-0.5,-1.1875,-1.125
1480628793884639,0.5,-2,-1.125
1480628793898174,2.375,-2.6875,-1.25
1480628793919230,3.3125,-2.25,-0.4375
1480628793942297,5.1875,-1.5625,0.375
1480628793966357,3.25,-1.5,0.3125
1480628793979392,1.625,-0.0625,0.125
1480628794001951,4.0625,2.625,1
1480628794026017,4.625,6.0625,2
1480628794047071,3.375,10.75,1.875
1480628794062111,-0.125,16.125,0.4375
1480628794079657,-4.375,19.375,-1.8125
1480628794099711,-7.75,21.1875,-3.6875
1480628794121769,-13.1875,22.125,-3.5
1480628794144330,-20,21.5625,-4.875
1480628794162879,-20.9375,17.5,-5.5625
1480628794181930,-20.1875,12.6875,-7.1875
1480628794204489,-15,9.5,-7.25
1480628794221033,-6.5,8.3125,-6.5625
1480628794245098,0,6.9375,-4.1875
1480628794274175,-0.625,4.3125,-2
1480628794281194,-0.9375,2.1875,1.1875
1480628794304756,-0.3125,0.125,2.625
1480628794327317,0.8125,-1,3.1875
1480628794339348,2,-1.4375,3.4375
1480628794361908,3.375,-0.25,3.0625
1480628794385471,4.375,1.3125,2
1480628794399508,3.8125,2.3125,3.75
1480628794422068,-1.3125,3.0625,3.6875
1480628794444629,-3.875,2.6875,3.5625
1480628794462175,-2.0625,2.25,2.75
1480628794482229,-0.3125,1.0625,1.6875
1480628794504287,1.125,-0.4375,0.625
1480628794522335,2.4375,-1.375,-0.5625
1480628794541887,3.3125,-1.625,-0.5625
1480628794564447,2.5625,-1.5625,-0.125
1480628794579487,0.8125,-1.1875,0.625
1480628794612575,-0.0625,-0.75,0.5625
1480628794632628,-0.625,-0.125,0.375
1480628794642660,-0.125,-0.25,0.5
1480628794662207,-1.4375,-1.3125,0.25
1480628794684767,-1.1875,-2.625,-0.0625
1480628794699306,-0.3125,-2.875,0.25
1480628794721865,0.375,-2.4375,0.125
1480628794744427,-3.3125,-2.5,0.1875
1480628794759468,-9.5,-1.875,0.5
1480628794782026,-11.5,-1.125,2.1875
1480628794804586,-11.125,-1.0625,2.8125
1480628794827146,-6.0625,-1.3125,2.9375
1480628794842188,-3,-1.5625,2.1875
1480628794864246,-1.9375,-2.25,1.6875
1480628794886805,-2.5,-3.6875,0.375
1480628794901844,-5.6875,-4.1875,-0.3125
1480628794924405,-7.0625,-4.75,-0.5
1480628794940949,-6.875,-3.9375,-0.0625
1480628794962006,-5.5,-3.375,-0.4375
1480628794992590,-4.5625,-4.125,-1.1875
1480628795001109,-4.25,-4.5,0.3125
1480628795022164,-4.625,-5.6875,1.375
1480628795044726,0.25,-8.0625,1.8125
1480628795060767,4.75,-8.5625,3.125
1480628795089343,8.5,-9.1875,3.6875
1480628795108395,8.625,-10.0625,4.5625
1480628795120928,8.0625,-10.5625,4.875
1480628795141984,8.125,-10.5625,5.5625
1480628795164544,8.4375,-9.5,5.3125
1480628795187104,6.4375,-8.8125,4.375
1480628795202146,5.375,-7.75,3.6875
1480628795224704,4.625,-6.875,2.6875
1480628795240746,4.625,-6.125,1.5
1480628795269323,4.6875,-5.125,0.75
1480628795284362,3.25,-4.625,-1.3125
1480628795302411,1.4375,-4.9375,-2.0625
1480628795321962,-0.125,-6.375,-2.125
1480628795352043,0.3125,-7.5,-1.0625
1480628795362571,4.5,-7.625,0.25
1480628795385130,8.625,-6.8125,0.5625
1480628795412203,8.625,-6.5625,1.0625
1480628795422229,9.125,-5.4375,1.5625
1480628795442285,5.375,-5.375,1
1480628795464341,0.5,-5.75,0.5625
1480628795482389,-0.0625,-4.875,0.25
1480628795501943,4.5,-2.875,0.125
1480628795524501,4.75,-1.8125,-0.3125
1480628795550070,1.1875,-1.5625,-1.5
1480628795562103,-3.1875,-2.5625,-2.0625
1480628795584661,-2.1875,-2.875,-3.0625
1480628795606720,3.0625,-1.5625,-2.8125
1480628795629280,1.875,-0.75,-3.625
1480628795644320,-1.9375,-1.5,-2.375
1480628795662368,-0.75,-1.6875,-1.1875
1480628795681920,0.375,-2,-0.75
1480628795707488,2.9375,-1.5625,0.625
1480628795722528,6.4375,-1.25,1.75
1480628795742081,5.5625,-1.4375,0.75
1480628795764641,3.375,-2.25,1.25
1480628795782186,3.625,-2,1
1480628795801739,5,-1.375,-0.5
1480628795828310,2.9375,-0.6875,-1.25
1480628795846859,-0.75,-0.375,-0.9375
1480628795863403,-2.3125,2.25,0.6875
1480628795885963,5.5,6.375,0.5
1480628795910027,10.0625,10.625,1.3125
1480628795923562,-2.1875,9.875,-1.6875
1480628795944625,-12.3125,8.375,-1.1875
1480628795967180,-14.1875,10.625,-1.25
1480628795983222,-12.8125,12.0625,-1.3125
1480628796004277,-4.5625,13.1875,-4.3125
1480628796035360,-4,13.0625,-5.5625
1480628796043382,-11.25,11.875,-1.1875
1480628796071959,-15.5625,9.3125,-1.25
1480628796086997,-10.5,7.875,-1.3125
1480628796105046,-2.75,8.3125,-0.8125
1480628796140642,-1.0625,7.5625,-0.5
1480628796147158,-6.1875,5.25,1.0625
1480628796164705,-8.75,3.5,1.4375
1480628796187266,-4.125,2.5625,0.5625
1480628796207318,1.5,3.25,0.4375
1480628796223360,0.5625,2.6875,0.0625
1480628796247424,-4.125,2.3125,0.125
1480628796266976,-5.75,1.0625,0.4375
1480628796285025,-2.8125,0.6875,0.4375
1480628796304577,-0.625,0,-0.75
1480628796329643,0.875,-0.9375,-1.3125
1480628796344683,1.5,-0.6875,-1.25
1480628796364235,1.4375,0.0625,-0.8125
1480628796386796,-0.625,0.5625,0.0625
1480628796409355,-3.625,0.375,-0.125
1480628796424395,-2.5,0.25,0
1480628796446955,-1.3125,0.0625,0.25
1480628796466006,0.3125,-0.0625,-0.625
1480628796484556,-0.25,-0.1875,-0.6875
1480628796507116,-1.4375,-0.25,-0.3125
1480628796526170,-1.875,-0.375,-0.625
1480628796544716,-1.9375,-0.4375,-0.1875
1480628796566775,-1.75,-0.9375,-0.625
1480628796584822,-0.6875,-1.25,-0.3125
1480628796604374,0.875,-1.125,-0.5
1480628796626934,-0.625,-0.6875,-0.875
1480628796644983,-2.4375,-1.25,-1.1875
1480628796664535,-2.3125,-1.25,-1.3125
1480628796691105,-3.1875,-1.8125,-2.1875
1480628796709659,-3.6875,-3.125,-1.75
1480628796740737,-2.875,-3.625,-1.125
1480628796754273,-1.4375,-2.75,-0.4375
1480628796764802,-3,-1.875,-0.5
1480628796784353,-5.8125,-2.1875,-1
1480628796806913,-4.1875,-2.6875,-0.8125
1480628796824961,-3.3125,-2.3125,-0.125
1480628796847521,-1.1875,-2.5,-0.375
1480628796867072,-0.3125,-2.6875,-1.3125
1480628796889633,-1.375,-3.5625,-0.875
1480628796907681,-1.625,-4.1875,-0.6875
1480628796934251,-1.0625,-3.9375,-1.6875
1480628796944780,0.0625,-3.375,-1.25
1480628796965835,-1.125,-3.0625,-0.8125
1480628796986891,-2.9375,-2.875,-0.5
1480628797004940,-2.25,-2.875,0.5625
1480628797025998,0.5625,-2.75,0.875
1480628797047052,1.5625,-2.875,1.25
1480628797065601,1,-3.5,0.625
1480628797086155,0.875,-3.6875,1.0625
1480628797107213,1.25,-4.4375,0.0625
1480628797125272,1.5,-5.0625,-0.375
1480628797147819,3.375,-4.8125,-0.6875
1480628797166870,3.875,-3.875,-0.5625
1480628797186422,2.625,-2.9375,-0.5
1480628797215003,0.5,-1.625,-0.875
1480628797227030,-1.8125,-0.75,-0.8125
1480628797245580,-2.9375,-0.5,-1.1875
1480628797275159,-1.3125,-0.375,-1.875
1480628797294711,-0.75,-0.5625,-2.4375
1480628797309250,-0.9375,-1,-2.0625
1480628797327298,-1.125,-0.625,-2
1480628797346849,-1.1875,-0.5625,-1.9375
1480628797376929,-1.3125,-0.875,-1.5625
1480628797387457,-0.5625,-0.625,-1.625
1480628797410017,1,0.1875,-1.4375
1480628797431073,-0.25,0.8125,-1.4375
1480628797447618,-1.375,1.3125,-1.75
1480628797467169,-2.5,1.1875,-2.375
1480628797489730,-3.5,0.875,-2.125
1480628797511788,-0.4375,0.8125,-1.8125
1480628797526828,2.875,1.3125,-1.5625
1480628797550893,3.6875,1.25,-2.625
1480628797581473,-0.875,0.1875,-2.3125
1480628797586988,-3.25,0.125,-1.0625
1480628797617069,-1.4375,0.125,-0.625
1480628797632107,0.8125,0,-0.375
1480628797648652,3.6875,0,-0.8125
1480628797676727,3.875,0,-0.75
1480628797687258,2.625,-0.25,-0.6875
1480628797706807,0.75,-0.625,-0.75
1480628797729367,-1.3125,-0.375,-0.375
1480628797747917,-0.8125,-0.625,-0.5625
1480628797769976,-0.125,-1.1875,-0.5
1480628797790031,-1.5,-1.75,-0.125
1480628797807574,-1.5625,-1.375,0.375
1480628797828631,3.0625,-0.6875,2.1875
1480628797852695,5.875,1,1.1875
1480628797867236,3.625,1.125,1.6875
1480628797888290,-0.75,0.625,1.5
1480628797909346,-2.6875,0.4375,0.625
1480628797931906,0.1875,1.25,0.5
1480628797948450,2.625,1.875,-0.375
1480628797969506,1.4375,1.8125,-0.75
1480628797987554,-1.3125,1.5,-0.625
1480628798008611,-2.9375,1.0625,-1.125
1480628798029665,-1.75,1.4375,-1.5
1480628798047714,0.8125,2.6875,-1.75
1480628798068769,-1.125,3.5625,-1.1875
1480628798106371,-4.0625,3.75,-0.875
1480628798108879,-5.8125,4.0625,-1.125
1480628798129933,-5.3125,3.9375,-1.5
1480628798149485,-3.5625,3.25,-2.5625
1480628798167533,-4.625,2.625,-3.1875
1480628798190096,-5.0625,2.4375,-3.625
1480628798209646,-5.0625,2.625,-3.8125
1480628798227191,-4.1875,2.9375,-3.875
1480628798249752,-5.5625,2.9375,-3.25
1480628798269303,-5.9375,2.8125,-3.5625
1480628798288354,-6.6875,2.3125,-3.25
1480628798309911,-5.5625,1.75,-3.8125
1480628798329463,-4.3125,1.8125,-2.8125
1480628798353527,-5.125,2,-2.9375
1480628798370071,-6,1.625,-3.0625
1480628798389623,-4.6875,0.8125,-2.375
1480628798407671,-3.875,0.375,-3.0625
1480628798429730,-2.5625,-0.25,-3.5
1480628798449783,-1.0625,-0.6875,-2.6875
1480628798471841,-1.0625,-0.5625,-1.75
1480628798489891,-1.625,-1.1875,-1.625
1480628798509442,-3.9375,-1.6875,-2.25
1480628798527490,-2.9375,-1.6875,-1.0625
1480628798557570,0.75,-0.8125,-1.625
1480628798569603,1.25,-1.375,-1.9375
1480628798587651,0,-3.25,-1.9375
1480628798609709,0.25,-7.25,-3.125
1480628798629260,4,-8.875,-4.0625
1480628798647310,7.3125,-6.125,-3.625
1480628798669869,6.8125,-0.5,-0.625
1480628798689422,0.125,4.4375,1.5625
1480628798707470,-7.5,6.625,1.625
1480628798730029,-10.875,6.875,1.625
1480628798751085,-8.625,6.5,0.4375
1480628798780666,-3.25,4.4375,-2.3125
1480628798789688,-0.625,2.875,-4.5
1480628798810744,0.5625,2.0625,-4.5625
1480628798833304,2.5,1.125,-4.25
1480628798855863,2.5625,-0.375,-2.875
1480628798871405,0.1875,-2.125,-1.3125
1480628798909006,-0.0625,-2.25,-0.625
1480628798911512,0.75,-2.0625,-0.6875
1480628798932568,-1.125,-1.875,-0.375
1480628798959641,0.125,-1.125,-0.3125
1480628798969667,0,-0.9375,-0.9375
1480628798990723,0.5,-1.1875,-1.125
1480628799011779,-0.8125,-1.5,-1.4375
1480628799030830,-1.5,-2.75,-1.5625
1480628799050883,0.5625,-4.625,-1.875
1480628799074950,1.5625,-7,-3
1480628799089987,3.4375,-5.9375,-3.1875
1480628799112547,5.0625,-3.125,-0.9375
1480628799132099,6.9375,1.375,0.375
1480628799154659,7.8125,5.375,2.3125
1480628799172205,1.5625,6.875,1.125
1480628799192261,-4.875,8.125,0.8125
1480628799214319,-3.5,8.5625,0.25
1480628799239886,-5.125,8.0625,-2.5625
1480628799253422,-6.75,7.5,-3.875
1480628799269965,-2.75,7,-0.8125
1480628799298543,1.125,4.625,-1.0625
1480628799319598,3.25,-1.1875,-3.75
1480628799330126,4.75,-3.1875,-2.8125
1480628799352185,9.3125,-3.125,-1.25
1480628799371736,14.9375,-1.75,0.375
1480628799389786,20.0625,1.9375,3.8125
1480628799412344,12.4375,1.5625,-0.125
1480628799431897,1.1875,-2.125,-1.625
1480628799457465,-0.1875,-3.25,-0.5
1480628799472504,5.4375,-1.5,-1.6875
1480628799492058,15.9375,1.125,-0.8125
1480628799518128,15.375,2.6875,0.8125
1480628799532163,4.5625,2.4375,-0.4375
1480628799551716,-4.25,0.9375,0.3125
1480628799575779,-5.1875,-0.1875,0.625
1480628799599843,-0.625,0.375,-1.25
1480628799611875,6,0.4375,-1.1875
1480628799630926,7.6875,0.1875,-1.375
1480628799660003,3.9375,-0.1875,-0.625
1480628799672034,1.875,-0.25,-0.75
1480628799690083,1.0625,0.0625,-0.75
1480628799712142,0.1875,0.75,-0.875
1480628799733198,-0.4375,0.4375,-1.3125
1480628799750745,-0.3125,0.1875,-1.25
1480628799772301,0.5,-0.0625,-1.5625
1480628799794866,1.3125,-0.25,-1.8125
1480628799809902,2.4375,0,-1.1875
1480628799832963,3.3125,0.5,-1.375
1480628799853519,2.875,1.25,-1.4375
1480628799878084,-0.6875,1.1875,-1.8125
1480628799905155,-2.75,0.4375,-1.875
1480628799913176,-2,0.3125,-1.9375
1480628799929720,1.4375,0.8125,-1.625
1480628799952282,2.875,1.1875,-0.625
1480628799973338,1.3125,1.25,-0.625
1480628799989881,-0.25,0.8125,-0.5625
1480628800024980,-0.875,0.8125,-1.1875
1480628800033497,-0.3125,0.375,-1.375
1480628800050041,0.25,0.0625,-1.6875
1480628800073102,1,0,-1.4375
1480628800094660,1,0,-1.625
1480628800110703,-0.1875,0.3125,-0.6875
1480628800132260,0.75,1,-0.625
1480628800155323,0.8125,1.1875,-0.0625
1480628800175376,-1.625,1.5625,-0.3125
1480628800192422,-1.8125,0.875,-0.625
1480628800213977,0.125,2,0.25
1480628800235034,-1.9375,1.5,0.125
1480628800251579,-3.375,1,-0.625
1480628800274138,1.0625,1.6875,-0.1875
1480628800295194,1.75,1.375,0.5625
1480628800311739,-2.6875,0.0625,0.5625
1480628800334297,-2.6875,-1,0.8125
1480628800355353,-0.125,-1.25,1.1875
1480628800372398,4.0625,-0.9375,1.8125
1480628800393956,3.25,-0.625,2.0625
1480628800415012,-0.75,-0.25,2.625
1480628800432057,-3.875,-0.3125,2.625
1480628800454120,-3.75,-0.5625,3.5
1480628800475173,-3.5625,-1.1875,3.9375
1480628800491717,-2.25,-2.1875,3.8125
1480628800513775,0.3125,-3.4375,4
1480628800535332,2.8125,-3.5,3.75
1480628800551877,3.5625,-4.0625,3.1875
1480628800573935,2.625,-4.9375,3.125
1480628800602510,1.875,-5.5,4.625
1480628800611535,4.6875,-5.625,6.375
1480628800634095,9.3125,-6.25,8.0625
1480628800655151,11.5625,-7.9375,8.5625
1480628800671193,11,-9.9375,7.9375
1480628800694759,13.375,-13.3125,8.5
1480628800716815,18.375,-16.6875,7.5625
1480628800737369,24.375,-17.875,6.8125
1480628800753915,29.9375,-17.0625,8.9375
1480628800774973,28.5625,-14.9375,10.0625
1480628800791012,22.25,-12.1875,12.6875
1480628800820089,14.1875,-10.6875,13.1875
1480628800851673,9.1875,-9.875,12.1875
1480628800853679,11.625,-7.75,9.625
1480628800874236,17.625,-4.4375,7.125
1480628800904315,15,-2.875,5.1875
1480628800911332,8.375,-2.5,3.875
1480628800933893,3.5625,-2.125,2.625
1480628800954948,1.6875,-1.9375,2.5625
1480628800971492,5.125,-2.875,2.125
1480628800994053,6.875,-4,1.375
1480628801016613,8.1875,-7.5625,0.8125
1480628801031653,10.25,-8.625,-2.125
1480628801054212,13.5,-8.3125,-0.4375
1480628801076773,12,-7.8125,-1.125
1480628801092314,10.75,-7.25,2
1480628801114874,9.25,-5.875,2.8125
1480628801137433,7.5625,-4.375,3.375
1480628801150971,4.4375,-4.75,2.9375
1480628801174031,3.375,-5,1.5
1480628801196591,3.875,-5.0625,-0.1875
1480628801211633,2.875,-3.875,-1.8125
1480628801234191,4.875,-3.0625,-2.4375
1480628801265274,4.75,-1.875,-2.6875
1480628801272292,1.875,-1.125,-0.4375
1480628801293850,-0.4375,-0.4375,1.125
1480628801316410,-1.5625,-0.5,1.125
1480628801330948,-3.3125,-1.375,0.3125
1480628801354010,-2.125,-3.125,-0.5
1480628801384091,0.25,-2.875,-0.375
1480628801391122,2.5,-2.125,-0.3125
1480628801414171,1.8125,-1.6875,-0.5625
1480628801436730,-1.3125,-1.8125,-0.4375
1480628801457787,-2.75,-2.0625,0.375
1480628801473828,-2.8125,-2.25,0
1480628801496388,-1.4375,-1.5625,0.5
1480628801517445,0.8125,-1.25,0.625
1480628801534490,1.9375,-0.625,0.5625
1480628801559557,1.0625,-0.8125,0.75
1480628801577622,-0.8125,-1.25,-0.0625
1480628801600165,-0.6875,-1.75,-0.625
1480628801625234,-0.25,-1.6875,-0.625
1480628801638266,-0.75,-1.375,-0.625
1480628801654308,-1.5625,-0.8125,-1.3125
1480628801676367,-1.875,-0.5,-1.4375
1480628801704943,-1.125,-0.4375,-0.9375
1480628801713967,-0.625,-0.5625,-0.4375
1480628801736527,-0.875,-0.9375,-0.625
1480628801757587,-0.625,-1.1875,-1.3125
1480628801774628,-0.25,-1.75,-1.75
1480628801798192,-1.0625,-2.8125,-2.0625
1480628801817745,0.3125,-3.125,-1.8125
1480628801834288,2.5625,-3.125,-0.0625
1480628801856347,3.9375,-3.0625,0.0625
1480628801901967,4.5625,-3.125,0.4375
1480628801904474,3.625,-3.0625,0.5625
1480628801916507,2.8125,-2.9375,0.375
1480628801939567,2.5625,-3.0625,-0.4375
1480628801961626,3.25,-3.0625,-0.625
1480628801985691,4.3125,-3,-0.8125
1480628801999227,4.125,-2.5,-0.4375
1480628802020283,3.125,-2.375,0.4375
1480628802043344,1.9375,-2.5625,0.8125
1480628802066405,0.75,-2.4375,1.0625
1480628802073424,1.125,-2.6875,1
1480628802097487,1.75,-2.875,0.25
1480628802119546,3.1875,-3.125,-0.3125
1480628802133584,3.75,-3.75,-0.625
1480628802158150,2.625,-4.75,-1.25
1480628802179205,2.125,-5.75,-2.375
1480628802193242,3.25,-6.75,-3.75
1480628802222824,5.6875,-7.1875,-4.5
1480628802238864,8.125,-6.875,-4.0625
1480628802253403,13.875,-5.375,-1.875
1480628802276464,19.6875,-3.8125,0.9375
1480628802299024,18.25,-3.375,2.25
1480628802321584,10.3125,-3.5625,3.4375
1480628802336624,4.1875,-4.25,3.4375
1480628802359189,0.9375,-4.5625,2.75
1480628802373222,0.625,-5.0625,0.9375
1480628802396784,2.375,-4.75,-0.1875
1480628802424862,4.8125,-3.3125,0.25
1480628802439899,7.625,-2.0625,0.4375
1480628802456443,6,-0.9375,0.9375
1480628802487025,3.4375,-0.125,1.0625
1480628802509083,2.1875,0.9375,0.625
1480628802517104,1.5,2.3125,-0.1875
1480628802539666,0.375,3.625,-1.125
1480628802560219,-0.6875,4.375,-2
1480628802576765,-1.0625,5.375,-2.1875
1480628802599322,-2.3125,5.8125,-2.4375
1480628802620380,-4.1875,5.75,-3.9375
1480628802637424,-4.9375,5.4375,-4
1480628802658981,-4.8125,5,-4
1480628802680038,-5.125,4.4375,-3.5
1480628802712623,-5.0625,4,-2.4375
1480628802726662,-3.8125,3.3125,-1.1875
1480628802741702,-1.25,2.5,-0.375
1480628802764262,1.0625,2.125,0.8125
1480628802793339,1.0625,1.0625,1.25
1480628802799856,0.8125,0.3125,0.5625
1480628802816902,1.3125,0.1875,0.8125
1480628802838960,1.1875,0.1875,0.5625
1480628802860016,0.75,0.25,0.4375
1480628802876561,0.625,0.375,-0.375
1480628802900125,-0.25,0.0625,-0.625
1480628802921179,-0.8125,-0.25,-0.8125
1480628802937221,-0.375,-0.5,-0.9375
1480628802959280,0.25,-0.75,-0.5
1480628802988859,1.375,-0.9375,-0.4375
1480628802996379,1.375,-1.375,-0.3125
1480628803019441,1.0625,-1.625,-0.6875
1480628803041500,1.125,-1.75,-0.75
1480628803070075,1.1875,-1.875,-0.6875
1480628803079099,0.5625,-2.1875,-0.875
1480628803107676,0.8125,-2.3125,-1.0625
1480628803116197,1.875,-2.5,-1.625
1480628803145274,3.1875,-2.5625,-1.9375
1480628803161819,4.0625,-2.6875,-1.75
1480628803175857,2.9375,-3,-1.75
1480628803198918,1.75,-2.9375,-1.5
1480628803228998,1.875,-2.5625,-1.375
1480628803236017,2.3125,-2.25,-1.1875
1480628803260583,2.75,-2.25,-1.625
1480628803297681,3.75,-2.0625,-1.375
1480628803303195,3.875,-1.125,-1
1480628803325254,1.0625,-0.125,-1.625
1480628803349318,-0.9375,0.8125,-2.5625
1480628803365361,-1.4375,1.8125,-2.0625
1480628803379399,-2.125,2.4375,-2.5
1480628803401456,-2.8125,2.25,-2.5625
1480628803422515,-2.6875,1.625,-2.5
1480628803439057,-1.3125,1.3125,-2.25
1480628803461617,0.1875,0.625,-2.0625
1480628803491698,0.5625,0.125,-0.8125
1480628803514257,0.4375,-0.75,0
1480628803521777,1.25,-1.6875,0.125
1480628803544839,1.9375,-2.5625,0.875
1480628803558878,3.4375,-3.875,1.5
1480628803588956,4.4375,-5.25,1.75
1480628803602491,5.3125,-6.4375,1.875
1480628803619036,7.0625,-7.4375,2.625
1480628803649116,8.375,-8.4375,3
1480628803662653,8.625,-9.625,3.375
1480628803679196,9.75,-10.9375,3.6875
1480628803701756,10.9375,-12.0625,3.5
1480628803738856,12.875,-12.625,4.125
1480628803741363,15.375,-12.25,4.9375
1480628803761414,16.3125,-12.1875,4.6875
1480628803782971,16.5625,-12.3125,3.875
1480628803798513,15.5,-12.5,3.875
1480628803822076,12.4375,-11.9375,4.1875
1480628803850151,10.875,-11.125,3.5
1480628803874218,11.8125,-10.25,2.625
1480628803881734,11.6875,-9.1875,2.8125
1480628803904294,9.6875,-8.3125,2.6875
1480628803926856,6.6875,-7.25,3.25
1480628803941393,5.1875,-6.6875,2.75
1480628803963954,4.75,-6.0625,2.0625
1480628803986515,4.875,-6,1
1480628804001554,5,-5.6875,0.625
1480628804024116,4.5,-5.125,0.1875
1480628804038150,3.125,-4.125,0
1480628804069232,3.375,-3.125,0.3125
1480628804091294,2.8125,-2.25,0.125
1480628804099314,-0.1875,-1.5,-0.0625
1480628804121884,-2.4375,-1.1875,-0.75
1480628804143932,-3,-0.625,-0.8125
1480628804158471,-0.625,-0.8125,-1.0625
1480628804181533,1.4375,-0.8125,-0.875
1480628804211612,1.8125,-0.875,-0.1875
1480628804219132,0.625,-1.1875,-0.0625
1480628804241692,-0.25,-1.6875,0
1480628804264252,-0.625,-1.5625,0.0625
1480628804278289,0.8125,-1,0.375
1480628804301350,0.75,-0.3125,0.5
1480628804323914,-1.125,0,0.4375
1480628804346471,-2.4375,0.125,-0.125
1480628804361511,-2.25,0.125,-0.25
1480628804384072,-1.375,0,0.0625
1480628804405128,-0.8125,-0.25,-0.125
1480628804421674,-0.4375,-0.4375,0
1480628804444231,-0.1875,-0.8125,0.1875
1480628804465287,-1.0625,-0.8125,0.25
1480628804481330,-1.375,-1.0625,0.3125
1480628804503890,-1.0625,-0.8125,0.3125
1480628804524948,-1,-0.6875,0.5625
1480628804541490,-1.3125,-0.5,0.5625
1480628804564551,-2,-0.8125,0.5
1480628804585106,-1.5,-1.25,-0.0625
1480628804601650,-0.75,-1.625,-0.5625
1480628804624211,-0.625,-1.8125,-0.5
1480628804646769,-0.8125,-1.5625,-0.3125
1480628804661810,-0.0625,-0.8125,0.125
1480628804683868,-0.125,-0.5,0.4375
1480628804704924,-0.25,-0.4375,0.8125
1480628804727484,0.75,-0.375,0.375
1480628804744028,1.375,-0.5625,-0.0625
1480628804765084,0.5,-0.75,-0.125
1480628804781629,1.25,-0.6875,-0.0625
1480628804804189,1.8125,-0.4375,0.125
1480628804826749,0.5,-0.25,0.625
1480628804840791,-0.3125,-0.5625,0.125
1480628804872871,-1,-0.75,-0.0625
1480628804886407,-0.4375,-0.6875,0.25
1480628804901448,-0.4375,-0.5625,0.375
1480628804925014,-1.1875,-0.3125,0.6875
1480628804946568,-0.8125,-0.1875,0.5
1480628804961106,-0.8125,-0.375,0.6875
1480628804984168,-0.75,-0.4375,0.375
1480628805006728,-0.625,-0.25,0.1875
1480628805020765,0.25,-0.125,0
1480628805043826,-0.0625,-0.0625,0.5
1480628805066387,-0.25,-0.3125,0
1480628805080925,0.5,-0.375,0.125
1480628805103986,1,-0.25,0.1875
1480628805126546,0.625,-0.4375,0.125
1480628805149607,-0.25,-0.3125,-0.3125
1480628805164647,-0.625,-0.3125,-0.125
1480628805186706,-0.625,-0.3125,0
1480628805207764,-0.4375,-0.25,0
1480628805224307,-0.6875,-0.4375,0
1480628805247869,-0.875,-0.4375,-0.25
1480628805267420,-0.6875,-0.625,-0.1875
1480628805291487,-0.625,-0.75,0
1480628805306525,-0.9375,-0.6875,0
1480628805327581,-0.625,-0.5,0.125
1480628805344125,-0.625,-0.3125,0.5
1480628805374206,-0.875,-0.25,0.125
1480628805387741,0,-0.3125,-0.1875
1480628805404285,0.3125,-0.0625,0
1480628805426344,-0.4375,-0.25,0
1480628805447401,-0.125,-0.375,-0.0625
1480628805463944,0.75,-0.25,-0.0625
1480628805486508,0.8125,0,0
1480628805507559,0.875,0.0625,0.25
1480628805525106,0.1875,0.125,0.375
1480628805546664,-0.875,-0.125,0.1875
1480628805567720,-0.5625,-0.5,-0.3125
1480628805584765,0.5,-0.5625,-0.375
1480628805606824,0.625,-0.5,-0.0625
1480628805627378,-0.1875,-0.25,0.0625
1480628805643923,-0.4375,-0.0625,0.25
1480628805672499,-0.375,-0.0625,-0.125
1480628805687539,0.4375,-0.25,-0.3125
1480628805704083,0.375,-0.3125,-0.125
1480628805726643,0.1875,-0.3125,0
1480628805749204,0.375,-0.1875,0.375
1480628805764243,0.1875,0,0.4375
1480628805786302,0,-0.125,-0.0625
1480628805815379,-0.125,-0.125,-0.1875
1480628805823904,-0.625,-0.3125,0.1875
1480628805846461,-0.6875,-0.4375,-0.125
1480628805876541,0.4375,-0.4375,-0.25
1480628805897598,-0.125,-0.25,0.375
1480628805906622,-0.4375,-0.375,0.1875
1480628805929182,-0.5625,-0.25,-0.125
1480628805943218,-0.1875,-0.3125,-0.125
1480628805966781,-0.0625,-0.25,-0.1875
1480628805989343,-0.25,-0.25,-0.25
1480628806003378,-0.5,-0.4375,-0.5
1480628806026941,0.1875,-0.5625,-0.125
1480628806049000,0.5,-0.25,0
1480628806063538,0.1875,-0.25,0.125
1480628806086600,-0.1875,-0.25,0.25
1480628806109662,0,-0.1875,-0.125
1480628806130217,0.75,-0.1875,-0.375
1480628806152777,0.125,-0.1875,0.0625
1480628806174835,-0.9375,-0.1875,0.1875
1480628806184362,0,-0.1875,0.0625
1480628806206419,0.875,-0.125,0.0625
1480628806228979,-0.0625,-0.0625,0.125
1480628806250035,-0.375,-0.1875,-0.3125
1480628806266579,0.5,-0.1875,-0.0625
1480628806289139,0.25,-0.0625,0.125
1480628806310195,0.25,-0.25,-0.125
1480628806326739,0.6875,-0.25,0
1480628806349299,0.8125,-0.25,0.125
1480628806370355,0.5,-0.25,0.125
1480628806386398,-0.125,-0.0625,0.125
1480628806408957,-0.8125,-0.125,-0.125
1480628806431016,-0.375,-0.125,-0.25
1480628806452575,-0.0625,-0.25,-0.25
1480628806469118,-0.125,-0.375,0
1480628806490175,-0.0625,-0.4375,-0.0625
1480628806506720,0.1875,-0.25,-0.125
1480628806529278,-0.3125,-0.125,0.125
1480628806550335,-0.4375,0,0.0625
1480628806567379,-0.1875,0,0
1480628806588937,0,-0.125,0
1480628806609992,-0.0625,-0.4375,-0.25
1480628806626036,-0.25,-0.375,-0.125
1480628806649096,-0.5,-0.125,0.0625
1480628806677672,0.1875,0.0625,-0.0625
1480628806686697,-0.0625,0,0.125
1480628806709257,-0.4375,-0.125,0
1480628806731315,-0.625,-0.3125,-0.25
1480628806746857,0,-0.1875,-0.375
1480628806769417,0.375,0,0
1480628806791476,-0.1875,-0.0625,0.4375
1480628806807017,-0.1875,-0.1875,0
1480628806829075,-0.1875,-0.25,-0.4375
1480628806851636,0,-0.3125,-0.25
1480628806865673,-0.3125,-0.125,-0.1875
1480628806889236,-0.0625,-0.0625,-0.125
1480628806911294,0,-0.125,0.0625
1480628806927337,-0.125,-0.3125,-0.1875
1480628806948894,0.625,-0.375,-0.125
1480628806971455,1.125,-0.25,0.125
1480628806985995,0.3125,-0.375,0.1875
1480628807009556,-0.1875,-0.25,-0.0625
1480628807031615,-0.3125,0,0.125
1480628807046154,-0.9375,0.125,0
1480628807069715,-1.25,-0.0625,-0.1875
1480628807091273,-0.875,-0.375,-0.25
1480628807106816,0.125,-0.5625,-0.0625
1480628807128873,0.5,-0.3125,0.1875
1480628807151435,-0.5625,-0.25,0.375
1480628807172489,-1.3125,-0.25,0.1875
1480628807189033,-0.75,-0.375,-0.5
1480628807211593,-0.0625,-0.25,-0.25
1480628807234654,-0.1875,-0.25,0.1875
1480628807262730,-0.25,-0.1875,0.0625
1480628807271754,-0.0625,-0.125,0.1875
1480628807292809,-0.4375,-0.1875,-0.0625
1480628807309854,-0.5625,-0.3125,-0.3125
1480628807331412,-0.1875,-0.3125,-0.375
1480628807352469,-0.4375,-0.125,0
1480628807369012,-0.8125,-0.3125,0.375
1480628807397588,-0.25,-0.375,-0.0625
1480628807412628,0.5,-0.375,-0.25
1480628807429172,0.625,-0.3125,-0.25
1480628807459253,-0.625,-0.25,0.0625
1480628807472788,-1.0625,-0.25,0
1480628807488831,-0.25,-0.1875,0.125
1480628807512394,0.125,-0.125,0.0625
1480628807532447,-0.5,-0.25,-0.3125
1480628807549492,0,-0.1875,-0.25
1480628807571551,-0.25,-0.25,0.1875
1480628807592608,-0.4375,-0.1875,0.0625
1480628807609150,-0.1875,-0.1875,0
1480628807631209,0.0625,-0.25,0.125
1480628807653769,-0.625,-0.375,-0.125
1480628807668810,-0.5625,-0.25,-0.125
1480628807692373,-0.4375,-0.1875,-0.25
1480628807713930,-0.875,-0.125,-0.1875
1480628807730474,-0.4375,-0.25,0
1480628807751530,-0.5625,-0.25,0.375
1480628807774090,-0.6875,-0.3125,0.125
1480628807789634,-0.375,-0.4375,-0.375
1480628807811690,-0.125,-0.3125,-0.125
1480628807848789,-0.5,-0.375,-0.125
1480628807851295,-0.375,-0.25,0.125
1480628807871850,-0.3125,-0.125,0.25
1480628807893909,-0.1875,-0.0625,-0.125
1480628807908447,-0.5,-0.25,-0.3125
1480628807931508,-0.75,-0.375,-0.375
1480628807954572,-0.625,-0.25,-0.0625
1480628807968607,-0.25,0,0.1875
1480628807991670,-0.375,-0.0625,0.25
1480628808014229,0,-0.3125,-0.25
1480628808028266,-0.1875,-0.3125,-0.25
1480628808058847,-0.875,-0.25,-0.1875
1480628808073887,-0.25,-0.0625,-0.125
1480628808096448,0.1875,0.125,0.3125
1480628808111487,-0.125,-0.1875,0.125
1480628808134046,-0.3125,-0.375,-0.1875
1480628808155104,0.0625,-0.25,-0.5
1480628808171648,-0.375,-0.1875,-0.3125
1480628808194208,-0.3125,0.0625,0.1875
1480628808215767,0,-0.0625,0.3125
1480628808231807,0.4375,-0.1875,0.0625
1480628808259882,0.5,-0.125,-0.0625
1480628808274922,-0.25,-0.25,-0.125
1480628808291466,-0.4375,-0.125,-0.125
1480628808314026,0,-0.125,-0.125
1480628808335082,0.1875,0.0625,0
1480628808351627,-0.4375,-0.125,-0.25
1480628808374186,-0.25,-0.125,-0.375
1480628808395242,-0.1875,-0.1875,0.1875
1480628808411284,0,-0.25,-0.0625
1480628808435348,0.4375,-0.1875,0
1480628808455402,0.375,-0.0625,0.3125
1480628808471445,0.0625,-0.25,-0.125
1480628808495009,-0.3125,-0.375,-0.625
1480628808515061,0.0625,-0.125,-0.1875
1480628808531610,-0.4375,0,0.375
1480628808560186,-0.5625,-0.0625,0.3125
1480628808576730,-0.0625,-0.0625,-0.3125
1480628808591269,0,-0.3125,-0.25
1480628808622852,0.1875,-0.5,-0.375
1480628808636890,-0.0625,-0.3125,-0.1875
1480628808652431,0,-0.1875,0.125
1480628808673988,-0.0625,-0.25,0
1480628808696549,-0.125,-0.125,-0.3125
1480628808711087,0,-0.125,-0.125
1480628808734149,0.0625,0,0.25
1480628808756712,-0.1875,0.0625,0.0625
1480628808770747,0,0.0625,0.25
1480628808793807,-0.0625,-0.25,0
1480628808816367,0.3125,-0.25,-0.375
1480628808830907,-0.1875,-0.25,0.0625
1480628808869009,-0.3125,0.0625,0.3125
1480628808877029,1,0,0.5
1480628808891068,0.5625,0,0.125
1480628808921649,0.4375,-0.1875,-0.3125
1480628808944210,0.125,-0.0625,-0.3125
1480628808950726,-0.625,-0.125,0
1480628808973787,-0.5,0,0.0625
1480628808996347,-0.0625,0,0.125
1480628809010885,0,-0.1875,-0.25
1480628809033946,-0.1875,-0.25,-0.3125
1480628809056509,-0.625,-0.125,0.125
1480628809077562,-0.75,-0.0625,0.125
1480628809095109,-0.1875,-0.125,-0.0625
1480628809116667,0.625,-0.0625,0
1480628809145242,0.0625,0.0625,0.25
1480628809154267,-0.375,-0.125,0.125
1480628809176326,-0.5,0,-0.125
1480628809197382,-0.125,-0.1875,-0.25
1480628809213926,0.375,-0.25,-0.1875
1480628809236986,0.5625,-0.1875,0
1480628809259045,-0.0625,-0.0625,0.125
1480628809274085,-0.0625,-0.0625,-0.25
1480628809297147,0.25,-0.0625,-0.25
1480628809317702,-0.1875,-0.0625,-0.0625
1480628809334245,-0.125,-0.125,-0.0625
1480628809357308,-0.1875,-0.25,0
1480628809377861,0.0625,-0.25,-0.3125
1480628809393905,0.25,-0.125,-0.375
1480628809417467,0.3125,-0.0625,-0.125
1480628809437520,-0.3125,0,0.125
1480628809454064,-0.1875,-0.125,0.25
1480628809476624,-0.3125,-0.1875,-0.25
1480628809497680,-0.125,-0.1875,-0.125
1480628809514228,-0.5,-0.125,-0.1875
1480628809536283,-0.375,0.0625,0.0625
1480628809558843,-0.125,-0.125,0.125
1480628809573884,0.125,-0.0625,0.125
1480628809596443,0.0625,-0.0625,0.25
1480628809619026,0.0625,0.125,0.0625
1480628809634043,0,0,0.1875
1480628809656605,-0.375,0.0625,0.0625
1480628809679163,-0.0625,-0.0625,-0.125
1480628809694203,0.125,-0.125,-0.375
1480628809716763,-0.3125,-0.1875,-0.125
1480628809739324,-0.125,-0.0625,0.1875
1480628809759878,0.375,0,0.25
1480628809783942,-0.1875,-0.0625,-0.0625
1480628809798982,-0.375,-0.1875,-0.1875
1480628809814523,-0.0625,-0.25,-0.25
1480628809836582,0,-0.1875,-0.0625
1480628809859644,-0.1875,0,0
1480628809873179,-0.0625,0,0.1875
1480628809896742,0,-0.1875,-0.0625
1480628809925322,-0.125,-0.375,-0.25
1480628809933339,-0.4375,-0.125,-0.1875
1480628809956402,-0.0625,0.0625,-0.125
1480628809978960,0.1875,0.0625,-0.0625
1480628810000517,-0.1875,-0.125,0
1480628810017063,-0.0625,-0.1875,-0.1875
1480628810039123,-0.3125,-0.1875,-0.1875
1480628810060177,0,0.0625,-0.0625
1480628810076720,0.125,0.25,0.25
1480628810099281,0.0625,0.1875,0.125
1480628810120337,0.375,0.25,0.0625
1480628810136881,0.5,0.0625,0.125
1480628810158940,-0.125,0,-0.125
1480628810180496,-0.5,-0.1875,-0.1875
1480628810196539,0.0625,-0.125,0.125
1480628810219100,-0.25,0,0.125
1480628810240156,-0.6875,-0.375,0.0625
1480628810256702,-0.6875,-0.375,0.125
1480628810279260,1,-0.3125,-0.125
1480628810307334,0.75,-0.375,0.125
1480628810316358,0.5,0,0.125
1480628810339421,0.125,0.25,0.25
1480628810367494,-0.625,0.3125,0.1875
1480628810376518,-0.4375,0.1875,-0.1875
1480628810399078,-0.375,0.0625,-0.125
1480628810422140,0.1875,0.0625,-0.125
1480628810436679,0.4375,0,0.3125
1480628810459240,0.0625,0,0.625
1480628810481798,0.0625,-0.125,-0.125
1480628810496337,0.0625,-0.125,-0.25
1480628810518900,-0.375,0,-0.0625
1480628810541457,-0.3125,-0.125,0.0625
1480628810556499,0.125,0,0
1480628810579559,-0.0625,-0.125,0.25
1480628810602118,-0.25,-0.3125,-0.125
1480628810617158,0,-0.1875,-0.3125
1480628810639718,-0.25,-0.125,0
1480628810662278,-0.875,-0.0625,0.125
1480628810675815,-0.25,-0.0625,-0.0625
1480628810698876,-0.0625,-0.125,0.125
1480628810721436,-0.0625,-0.3125,-0.1875
1480628810735974,-0.75,-0.375,-0.0625
1480628810759036,-0.4375,-0.1875,-0.1875
1480628810781596,-0.4375,-0.125,0
1480628810796135,-0.625,-0.25,0.0625
1480628810819304,-0.4375,-0.125,0.25
1480628810842258,0.0625,-0.125,-0.0625
1480628810855794,-0.1875,0,0.0625
1480628810878854,-0.75,-0.25,0.125
1480628810901414,-0.625,-0.25,0.0625
1480628810923974,-0.25,-0.125,-0.0625
1480628810939016,-0.5,-0.125,0.0625
1480628810962077,-0.125,-0.125,-0.0625
1480628810982631,-0.3125,-0.0625,0.1875
1480628810999177,-0.25,0,0.0625
1480628811023240,0,-0.25,-0.125
1480628811042791,-0.1875,-0.3125,0.125
1480628811058835,-0.3125,-0.25,-0.0625
1480628811081393,-0.4375,-0.1875,0
1480628811102450,-0.25,-0.3125,0.0625
1480628811118994,-0.0625,-0.25,0.1875
1480628811147569,0,-0.25,0
1480628811164113,0.3125,-0.3125,0
1480628811179154,0,-0.0625,0.1875
1480628811201713,-0.5,-0.125,0
1480628811222773,-0.75,-0.3125,-0.1875
1480628811239319,-0.25,-0.5,-0.375
1480628811261372,-0.0625,-0.3125,-0.125
1480628811282428,-0.4375,-0.1875,0
1480628811299975,-0.4375,0.0625,0.125
1480628811322033,-0.8125,-0.0625,0
1480628811342588,-0.875,-0.25,-0.5625
1480628811359133,-0.3125,-0.3125,-0.375
1480628811381692,-0.0625,-0.4375,0
1480628811403250,-0.5625,-0.125,0.25
1480628811418792,-0.625,-0.0625,0.0625
1480628811441351,-0.3125,-0.25,-0.1875
1480628811463911,-0.375,-0.375,-0.25
1480628811478952,-0.5,-0.1875,-0.1875
1480628811501511,-0.3125,-0.125,0.25
1480628811524071,0,0,0.25
1480628811545127,-0.4375,-0.125,0
1480628811561671,-0.625,-0.375,-0.25
1480628811591250,-0.625,-0.1875,-0.0625
1480628811605287,-0.75,-0.0625,0.125
1480628811621330,-0.4375,0.0625,-0.1875
1480628811644892,0.125,-0.125,-0.0625
1480628811658429,0,-0.1875,0.1875
1480628811682994,0.125,-0.125,0.1875
1480628811704552,-0.3125,-0.0625,0
1480628811718590,-0.5,-0.25,-0.3125
1480628811741650,-0.0625,-0.25,-0.1875
1480628811764211,-0.125,0,0
1480628811778248,-0.125,0.125,0.125
1480628811807325,-0.1875,0.1875,0.0625
1480628811831389,0.0625,-0.125,-0.125
1480628811838408,0,-0.3125,-0.1875
1480628811861469,0.5,-0.0625,-0.125
1480628811884531,0.3125,0.25,0.3125
1480628811898567,-0.625,0.1875,0.3125
1480628811923134,-0.5625,0,-0.4375
1480628811951710,0.5625,-0.0625,-0.3125
1480628811965245,0.375,0,0.125
1480628811981290,-0.3125,-0.125,0.125
1480628812003847,-0.4375,0,-0.125
1480628812024904,0.125,0,-0.25
1480628812041949,-0.3125,0.0625,-0.125
1480628812064007,-0.6875,-0.0625,0
1480628812085065,-0.1875,-0.1875,-0.125
1480628812102109,0.6875,-0.125,-0.25
1480628812124168,0.3125,-0.0625,-0.1875
1480628812145225,-0.1875,-0.125,-0.0625
1480628812161266,0.0625,0,0.1875
1480628812184328,0.25,0,-0.125
1480628812204883,-0.1875,-0.125,0
1480628812221427,-0.375,-0.125,-0.125
1480628812250004,0.3125,0.0625,-0.1875
1480628812265543,0.0625,0.125,0.1875
1480628812281586,0.0625,0,0.0625
1480628812304149,0.3125,0.0625,0
1480628812325203,0.8125,0.125,0
1480628812341747,-0.0625,0.125,0
1480628812363805,-0.3125,-0.0625,-0.0625
1480628812386369,0.0625,-0.1875,-0.25
1480628812401405,0.25,0.125,0
1480628812424467,-0.4375,0.25,-0.0625
1480628812448030,-0.75,0.0625,0
1480628812475101,-0.25,-0.125,-0.125
1480628812484125,0.1875,-0.375,-0.3125
1480628812506685,0.1875,-0.125,-0.1875
1480628812520724,-0.25,0.0625,0.25
1480628812549800,-0.4375,0.1875,0.375
1480628812566344,-0.0625,0,-0.25
1480628812580891,0.375,-0.125,-0.375
1480628812603944,0,-0.1875,-0.0625
1480628812634025,-0.375,0,0
1480628812648061,-0.25,0.25,0.25
1480628812664104,-0.125,0.0625,-0.0625
1480628812686664,0.0625,-0.125,-0.4375
1480628812700702,0.1875,-0.1875,-0.3125
1480628812724264,0,-0.0625,-0.125
1480628812753844,-0.5625,0.1875,0.25
1480628812760861,-0.0625,0.0625,0.0625
1480628812785427,0.875,0,-0.1875
1480628812806483,0.5,0,-0.25
1480628812821022,-0.1875,0.0625,-0.0625
1480628812844083,-0.8125,-0.0625,0.3125
1480628812866643,0.0625,0,0
1480628812887699,0.6875,-0.0625,-0.3125
1480628812904244,-0.5625,0,-0.1875
1480628812926302,-0.125,-0.5,0.0625
1480628812947358,-0.125,-0.25,0.4375
1480628812963902,1.4375,-0.125,0.125
1480628812986464,0.5,0.0625,0.125
1480628813007518,-0.625,-0.0625,-0.1875
1480628813024063,-0.625,-0.0625,-0.125
1480628813046622,-0.125,0,0.0625
1480628813067677,0,-0.0625,-0.125
1480628813084222,-0.375,-0.0625,-0.0625
1480628813106280,-0.25,-0.125,0.1875
1480628813127838,0.1875,-0.0625,0.125
1480628813145886,-0.1875,-0.125,-0.1875
1480628813166440,-0.1875,-0.1875,-0.1875
1480628813196019,0,-0.125,0.0625
1480628813204041,0,0.125,0.0625
1480628813227102,-0.25,0,0.1875
1480628813247656,0,-0.125,0.125
1480628813264702,0.375,-0.125,-0.125
1480628813286261,-0.5,0,-0.1875
1480628813307817,-0.875,-0.0625,-0.125
1480628813323860,-0.25,0.0625,0
1480628813352936,0,-0.125,-0.0625
1480628813368979,0.25,-0.125,-0.125
1480628813392543,0.0625,-0.125,-0.1875
1480628813406579,-0.375,-0.0625,-0.0625
1480628813429139,-0.625,-0.0625,-0.125
1480628813443177,0.4375,-0.0625,-0.0625
1480628813473757,0.6875,-0.0625,0
1480628813489302,-0.125,0.0625,0
1480628813503337,-0.8125,-0.0625,0.125
1480628813533918,0,-0.1875,-0.125
1480628813564499,0.125,-0.0625,-0.25
1480628813570014,0,0,-0.0625
1480628813586559,-0.1875,0,0.25
1480628813617641,0.0625,-0.0625,0.0625
1480628813623659,0.9375,-0.125,-0.1875
1480628813646718,0.8125,-0.125,-0.125
1480628813669278,-0.5625,-0.1875,-0.0625
1480628813683316,-0.6875,-0.0625,0.0625
1480628813707379,0.125,0.0625,-0.0625
1480628813728937,-0.25,0,-0.125
1480628813751998,-0.8125,-0.1875,-0.125
1480628813766538,-0.0625,-0.25,0
1480628813789100,0.125,0,0.1875
1480628813810153,-0.4375,-0.0625,0.1875
1480628813826697,-0.25,-0.125,-0.125
1480628813848755,0.0625,0.0625,-0.0625
1480628813870313,-0.0625,0,-0.0625
1480628813886858,-0.375,0.0625,0.1875
1480628813908915,-0.5625,-0.1875,0.125
1480628813929972,-0.375,-0.375,-0.3125
1480628813946516,0,-0.375,-0.5
1480628813969076,-0.1875,-0.5,-0.375
1480628813990132,-0.5625,-0.375,-0.375
1480628814006676,-0.1875,-0.3125,-0.3125
1480628814029236,0.5,-0.3125,-0.1875
1480628814057813,-0.4375,-0.3125,0
1480628814066334,-1.375,0,-0.125
1480628814088898,-0.625,-0.1875,0.0625
1480628814111454,0.375,-0.0625,0
1480628814126494,0.6875,-0.25,-0.0625
1480628814149054,-0.0625,-0.0625,0.1875
1480628814170110,-1.1875,0,0.125
1480628814186654,-0.625,-0.125,0.0625
1480628814215231,0.0625,-0.25,-0.25
1480628814230270,-0.125,-0.1875,-0.4375
1480628814246313,0.3125,-0.0625,-0.125
1480628814268874,-0.625,0.0625,0.5
1480628814291433,-0.25,0.125,0.3125
1480628814306473,0.3125,-0.0625,0
1480628814329033,0.125,-0.25,-0.3125
1480628814352097,-0.5625,-0.3125,-0.375
1480628814366634,-1.3125,0,0.1875
1480628814389194,-0.75,0.125,0.25
1480628814411753,-0.0625,0.0625,-0.125
1480628814425791,0.125,-0.125,0.125
1480628814448852,0.1875,-0.125,-0.0625
1480628814471413,-0.0625,0.0625,-0.0625
1480628814494974,-0.125,0.1875,0.125
1480628814496479,-0.8125,0.25,0.375
1480628814514528,-0.25,0.0625,-0.0625
1480628814537087,0.8125,-0.0625,-0.3125
1480628814560650,0.875,-0.0625,-0.0625
1480628814581705,-0.4375,0.125,0.1875
1480628814596745,-0.875,0.25,0.125
1480628814614794,0.4375,0.25,-0.25
1480628814635849,0.375,0,-0.1875
1480628814656907,-0.5625,0,-0.25
1480628814673449,-0.375,0.0625,0.0625
1480628814694505,0.0625,0.25,0.0625
1480628814717066,0.4375,0.0625,-0.0625
1480628814733610,0.625,0,-0.125
1480628814755671,0.25,0.0625,-0.0625
1480628814776725,0.25,0,0
1480628814793269,-0.125,0.0625,-0.0625
1480628814814324,-0.25,0.125,0.125
1480628814839893,0.125,0.125,0
1480628814860949,0.375,0.125,-0.1875
1480628814875988,0.6875,0.3125,-0.125
1480628814897044,0.3125,0.3125,0.3125
1480628814915092,0.0625,0.25,0.125
1480628814934644,0.6875,0.1875,-0.125
1480628814956703,0.8125,0.0625,-0.25
1480628814974751,0.375,0,-0.1875
1480628815001823,-0.25,0.3125,0.1875
1480628815016864,-0.1875,0.4375,0.125
1480628815039423,0.4375,0.25,-0.25
1480628815055971,0.3125,-0.125,-0.3125
1480628815084544,0,-0.125,0.0625
1480628815099583,-0.1875,-0.0625,0
1480628815117130,0.0625,0.1875,-0.0625
1480628815139690,0.125,0.1875,0.125
1480628815159744,-0.125,-0.0625,-0.1875
1480628815174282,-0.5,0,-0.4375
1480628815196842,-0.375,0.0625,0.125
1480628815220907,0.3125,-0.1875,0.0625
1480628815234443,0.9375,0.0625,0.0625
1480628815257003,0.0625,0.0625,0.125
1480628815282570,-0.625,-0.0625,-0.1875
1480628815298112,0.4375,0.0625,-0.4375
1480628815316661,0.0625,0.0625,-0.0625
1480628815339221,-0.125,0.0625,0.125
1480628815361781,0.3125,0.0625,-0.125
1480628815376821,0.8125,0,-0.125
1480628815399380,0.125,0,-0.25
1480628815421943,0.1875,0.125,0.1875
1480628815436981,0.4375,0.1875,0.1875
1480628815459541,0.125,-0.0625,0.0625
1480628815474581,0.3125,0,-0.125
1480628815497141,0.5625,0.0625,-0.25
1480628815536244,-0.25,0.125,0
1480628815539253,0.0625,0.0625,0.125
1480628815556799,0.5625,0.1875,0.125
1480628815579359,1.1875,0.0625,-0.1875
1480628815594400,0.4375,0,-0.1875
1480628815616960,-0.3125,0,-0.125
1480628815639519,-0.0625,0.0625,-0.1875
1480628815662081,0.375,0.0625,0
1480628815677119,-0.25,0.125,-0.25
1480628815699178,-0.4375,-0.0625,-0.125
1480628815714218,0.0625,0,-0.125
1480628815736779,-0.1875,-0.0625,0.125
1480628815759338,-0.1875,-0.125,0
1480628815775883,0.1875,0,0
1480628815804458,0.0625,0,-0.0625
1480628815819500,-0.4375,-0.0625,0.0625
1480628815836545,-0.25,0.0625,0
1480628815857100,0.25,0,-0.0625
1480628815879157,0.1875,-0.0625,-0.0625
1480628815895701,-0.1875,-0.1875,-0.125
1480628815916758,-0.0625,-0.0625,-0.125
1480628815939317,-0.5,0,0
1480628815955863,-0.1875,-0.0625,-0.125
1480628815976917,-0.1875,0,-0.0625
1480628815999477,0,-0.0625,-0.1875
1480628816016021,-0.25,0,0
1480628816037078,-0.75,0.125,0.0625
1480628816059637,0.25,-0.4375,-0.1875
1480628816075680,1.5,-0.125,-0.5
1480628816096736,0.8125,0.0625,0.3125
1480628816119800,-0.5,-0.0625,0.125
1480628816144864,-0.875,-0.125,-0.125
1480628816156897,0.625,0.0625,-0.3125
1480628816179456,-0.0625,0.0625,-0.0625
1480628816197505,0,-0.0625,0.0625
1480628816218561,0.3125,-0.0625,0.5
1480628816248139,0.5625,0,0.1875
1480628816257163,1.0625,-0.0625,-0.3125
1480628816279723,0.375,-0.0625,-0.0625
1480628816299274,-0.625,-0.125,0.125
1480628816317324,-0.625,-0.1875,0.0625
1480628816336876,-0.0625,0.125,0.125
1480628816359435,-0.1875,-0.0625,0
1480628816383499,-0.125,-0.25,-0.125
1480628816397537,-0.125,-0.1875,-0.125
1480628816419594,-0.625,-0.0625,0.1875
1480628816441654,-0.9375,-0.0625,0.125
1480628816456696,-0.8125,0,0.125
1480628816479754,0,-0.25,-0.1875
1480628816497302,-0.25,-0.25,0
1480628816516855,-0.8125,-0.125,-0.0625
1480628816539414,-0.75,-0.125,0.0625
1480628816561973,-0.625,-0.1875,-0.125
1480628816577014,-0.6875,-0.125,-0.0625
1480628816601086,-0.5,-0.1875,-0.25
1480628816623137,-0.4375,-0.1875,0.125
1480628816639680,-0.6875,-0.25,-0.0625
1480628816659232,-0.125,-0.3125,-0.125
1480628816698838,0.1875,-0.125,0.0625
1480628816702347,-0.5625,0,0.25
1480628816722402,-0.8125,-0.1875,0
1480628816750992,-0.1875,-0.1875,-0.1875
1480628816756993,-0.125,-0.1875,-0.0625
1480628816779552,-0.125,-0.125,0.1875
1480628816802113,0,-0.125,0.3125
1480628816818156,0.1875,-0.1875,0
1480628816839211,-0.75,-0.3125,0
1480628816863276,-1.0625,-0.1875,0.1875
1480628816878317,-0.9375,0.0625,0.0625
1480628816899372,-0.625,0,0.25
1480628816921934,0.125,-0.25,0.1875
1480628816939979,-0.4375,-0.25,-0.0625
1480628816959531,-0.3125,-0.3125,-0.125
1480628816982092,-0.125,-0.0625,0.1875
1480628816999638,-1.1875,-0.0625,0.125
1480628817019191,-1.1875,-0.3125,-0.125
1480628817042252,-0.625,-0.125,-0.1875
1480628817058295,-0.375,-0.1875,0
1480628817079350,-0.375,-0.125,0.375
1480628817101911,-0.5,-0.1875,0.25
1480628817119960,-0.3125,-0.3125,-0.125
1480628817139510,-0.375,-0.4375,-0.4375
1480628817164577,-0.5,-0.0625,0.0625
1480628817180118,-0.5,-0.125,0.25
1480628817199169,-0.4375,-0.0625,0
1480628817225739,-0.3125,-0.25,-0.25
1480628817247799,-0.125,-0.25,-0.125
1480628817267351,-0.1875,-0.1875,0.0625
1480628817281889,-0.5,-0.0625,0.0625
1480628817299937,-0.625,0.0625,0.0625
1480628817319489,-0.875,-0.0625,-0.125
1480628817342049,-0.875,-0.0625,-0.5
1480628817360097,-0.375,-0.0625,-0.1875
1480628817386668,-0.375,-0.25,0
1480628817401707,0.3125,-0.0625,0.1875
1480628817419762,0.375,-0.0625,0.3125
1480628817440812,-0.5,0,-0.125
1480628817464875,-0.875,-0.1875,-0.1875
1480628817479916,-0.6875,-0.1875,0
1480628817501473,-0.4375,-0.0625,0.1875
1480628817522030,-0.3125,0.0625,0.25
1480628817539574,-0.5,0.0625,-0.0625
1480628817559627,-0.625,-0.0625,-0.25
1480628817583190,-0.3125,0,-0.125
1480628817602242,-0.1875,0.0625,0.125
1480628817619287,-0.4375,-0.0625,0.375
1480628817643353,0.0625,-0.125,0
1480628817659894,0.375,-0.0625,-0.3125
1480628817680951,-0.125,0,-0.125
1480628817702007,-0.8125,0.125,0.1875
1480628817720055,-0.4375,0.1875,0
1480628817740610,0.5625,-0.0625,-0.125
1480628817761666,0.375,-0.25,-0.125
1480628817779714,-0.125,-0.125,-0.25
1480628817800779,-0.125,-0.0625,-0.125
1480628817823329,0.5,-0.0625,0
1480628817839874,0.1875,-0.0625,-0.125
1480628817860929,-0.3125,0.0625,-0.25
1480628817881986,-0.75,0.125,-0.125
1480628817900535,-0.9375,0.0625,0.0625
1480628817922594,0.125,-0.25,-0.3125
1480628817941644,0.4375,-0.125,-0.1875
1480628817959692,-0.1875,0.0625,0.3125
1480628817980750,-0.625,0.125,-0.0625
1480628818001804,-0.375,-0.0625,-0.3125
1480628818024365,0.1875,-0.1875,-0.3125
1480628818040908,0.1875,-0.1875,-0.125
1480628818061964,-0.3125,0.125,0.25
1480628818084525,0.0625,0.25,0.25
1480628818102573,0.625,0,-0.0625
1480628818122128,0.4375,-0.125,-0.3125
1480628818144183,-0.4375,-0.0625,-0.125
1480628818166743,-0.5,-0.0625,0.1875
1480628818181783,-0.1875,0.1875,-0.0625
1480628818204344,0.5625,-0.0625,0.1875
1480628818222392,0.5625,-0.1875,0.0625
1480628818241943,0.5625,-0.125,0.125
1480628818264503,0.25,0.0625,-0.0625
1480628818282551,-0.0625,0.0625,0.125
1480628818303607,-0.25,0,-0.0625
1480628818324162,-0.1875,-0.0625,-0.25
1480628818342209,-0.1875,0,-0.1875
1480628818361762,-0.625,0.0625,-0.125
1480628818384322,-0.4375,0.0625,0.0625
1480628818403373,-0.4375,0.0625,-0.0625
1480628818424930,0,-0.25,-0.25
1480628818444481,-0.375,-0.125,0
1480628818462531,0.1875,-0.1875,-0.1875
1480628818482082,0.375,-0.125,-0.125
1480628818504644,-0.25,-0.0625,-0.125
1480628818522189,-0.25,0,0
1480628818541741,0.1875,0,0
1480628818564301,0.3125,-0.125,-0.25
1480628818582352,0.25,-0.125,-0.5
1480628818601900,-0.25,0,-0.1875
1480628818624462,-0.8125,0.125,0.125
1480628818642509,-0.625,0.25,0.0625
1480628818662061,-0.1875,-0.0625,-0.0625
1480628818684621,-0.1875,-0.25,-0.25
1480628818702168,-0.5625,-0.125,-0.1875
1480628818723226,-0.5625,-0.375,0.3125
1480628818744279,0.9375,0.0625,0.125
1480628818762327,0.6875,0.3125,0.4375
1480628818783384,-0.4375,-0.125,-0.125
1480628818804441,-0.625,-0.1875,-0.375
1480628818830007,0.125,0.0625,-0.125
1480628818858082,-0.0625,0.1875,0.375
1480628818864599,-0.25,0.3125,0.0625
1480628818887160,0.25,-0.0625,-0.125
1480628818910723,0.5,-0.1875,-0.25
1480628818924264,0.6875,-0.125,-0.375
1480628818942306,0,-0.5625,-0.0625
1480628818972386,-0.4375,-0.3125,0.25
1480628818984419,0.75,-0.3125,-0.25
1480628819002466,0.6875,-0.4375,-0.5625
1480628819025530,0.375,-0.0625,-0.5
1480628819044579,-1.0625,-0.125,-0.125
1480628819062126,-0.1875,-0.125,0.1875
1480628819084686,0.8125,0.125,0.125
1480628819104741,0.3125,-0.125,0
1480628819134317,0.375,-0.1875,-0.4375
1480628819152365,-0.125,0,0
1480628819164397,-0.25,0.0625,0.0625
1480628819186960,-0.0625,0.0625,0.0625
1480628819221552,0.25,0,0.125
1480628819226563,-0.125,-0.125,-0.125
1480628819242608,-1,0,-0.125
1480628819264664,-0.75,0,0
1480628819284217,-0.375,-0.0625,-0.0625
1480628819302264,-0.25,-0.125,0.25
1480628819330840,-0.375,0,0.0625
1480628819344377,-0.25,-0.3125,-0.125
1480628819362925,-0.5,-0.0625,-0.25
1480628819384985,-1.0625,-0.125,0.125
1480628819404535,-0.8125,0.0625,0.375
1480628819422085,0.1875,0.0625,0.1875
1480628819445145,0,-0.0625,-0.1875
1480628819471716,-0.875,-0.3125,-0.1875
1480628819486755,-1.125,-0.25,-0.25
1480628819504802,-0.875,-0.0625,0.375
1480628819524354,-0.5625,0.125,0.3125
1480628819546915,-0.8125,0.0625,0.125
1480628819565464,-0.125,-0.0625,-0.0625
1480628819584515,-0.125,-0.125,0.0625
1480628819607075,-0.1875,-0.125,-0.125
1480628819624622,-0.1875,-0.25,-0.0625
1480628819645678,-0.3125,-0.0625,0.3125
1480628819674254,-0.5,0.0625,0
1480628819684782,-0.5,-0.125,-0.0625
1480628819705837,-0.1875,-0.1875,-0.125
1480628819726893,-0.25,-0.1875,0
1480628819744942,-1.5,-0.0625,0.1875
1480628819773517,-0.4375,-0.1875,0.0625
1480628819787054,0.0625,-0.1875,-0.125
1480628819805102,0.1875,-0.1875,0
1480628819825657,-0.25,-0.125,0.125
1480628819848217,-0.875,-0.0625,0.375
1480628819864761,-0.5,0,0
1480628819885817,-0.125,-0.1875,-0.125
1480628819906873,-0.3125,-0.125,0
1480628819929432,-0.6875,-0.3125,-0.125
1480628819947480,-0.75,-0.1875,0.125
1480628819967036,-0.75,-0.125,0.1875
1480628819985082,-0.375,-0.0625,-0.125
1480628820008142,-0.375,0.1875,-0.125
1480628820026692,-1.125,-0.1875,-0.1875
1480628820050756,-0.6875,-0.375,-0.25
1480628820067299,-0.375,-0.125,0.25
1480628820086853,-0.4375,-0.0625,0.25
1480628820109411,-0.25,-0.125,-0.125
1480628820131973,-0.0625,-0.125,-0.25
1480628820147012,-1.125,-0.1875,-0.125
1480628820164559,-1,-0.4375,0
1480628820187622,-1.0625,-0.125,0.0625
1480628820215695,-1.1875,0,-0.0625
1480628820224719,-0.5,0,-0.0625
1480628820248782,0.3125,-0.1875,-0.125
1480628820274349,0.4375,-0.125,0.125
1480628820296910,0.125,-0.25,0.0625
1480628820308441,-1.0625,-0.1875,0.0625
1480628820329999,-0.3125,-0.125,-0.0625
1480628820344536,-0.5625,0.0625,0
1480628820367598,-0.875,0.0625,-0.125
1480628820388655,-1.125,0,0.0625
1480628820426254,-0.25,0.0625,0.1875
1480628820428761,0.125,-0.0625,0.0625
1480628820446809,-0.125,-0.3125,0.0625
1480628820472376,-0.6875,-0.1875,0.125
1480628820487421,-0.625,0,0
1480628820506975,-0.25,-0.0625,0.125
1480628820525017,-0.3125,0,0
1480628820547577,-0.4375,-0.0625,0
1480628820574649,-0.3125,-0.1875,0.0625
1480628820589187,-0.375,-0.0625,-0.125
1480628820607236,-0.4375,-0.0625,-0.125
1480628820628291,-0.375,0.1875,-0.0625
1480628820644836,0.125,0.0625,-0.0625
1480628820667395,-0.125,0.0625,0.125
1480628820688453,-0.3125,-0.1875,-0.125
1480628820717028,-0.1875,-0.125,-0.125
1480628820727556,0.125,-0.0625,0
1480628820748615,0.0625,0.125,0.1875
1480628820766158,-0.375,0.25,0.3125
1480628820787717,-0.4375,-0.125,-0.125
1480628820808270,0.1875,-0.1875,-0.1875
1480628820824816,0,-0.125,-0.125
1480628820854898,-0.6875,0.25,0.125
1480628820869433,-0.4375,0.25,0
1480628820884975,0.375,0.125,0
1480628820907535,1.0625,-0.125,-0.125
1480628820935609,0.5625,-0.0625,0.125
1480628820949145,-0.125,0.1875,0.125
1480628820967193,-0.3125,0.0625,0.125
1480628820990757,0.0625,0.125,-0.25
1480628821009305,0.375,-0.0625,-0.3125
1480628821027354,-0.125,0.0625,-0.125
1480628821049913,-0.5625,0.25,0.1875
1480628821069466,-0.5625,0.25,-0.0625
1480628821087517,-0.125,0,0.125
1480628821109572,-0.125,0,-0.0625
1480628821129625,0.0625,-0.0625,-0.125
1480628821147172,-0.125,-0.0625,0.1875
1480628821169732,-0.5,-0.0625,-0.0625
1480628821189284,-0.4375,-0.25,-0.125
1480628821207333,0.125,0,0.0625
1480628821230895,0.1875,-0.125,0
1480628821249444,-0.4375,-0.0625,0
1480628821267492,-0.8125,0,-0.1875
1480628821294565,-0.25,0.125,-0.1875
1480628821316623,0.125,0,-0.0625
1480628821327652,0.0625,0,-0.125
1480628821349209,-0.5625,0,0
1480628821370770,-0.6875,-0.1875,-0.0625
1480628821386810,0.375,-0.0625,-0.25
1480628821408868,0.75,0,-0.125
1480628821430425,0.125,0.0625,0
1480628821446469,-0.375,0.125,0.3125
1480628821469029,-0.125,-0.0625,0.125
1480628821490085,0.375,0,-0.0625
1480628821506628,-0.0625,-0.0625,-0.1875
1480628821529188,-0.25,0.0625,-0.125
1480628821550245,0.0625,0.0625,0.1875
1480628821566287,-0.0625,0.0625,0.125
1480628821589349,0.5625,0.125,-0.125
1480628821609903,0.375,-0.0625,0
1480628821633967,-0.5,-0.125,-0.125
1480628821649007,-0.25,-0.125,-0.3125
1480628821672069,-0.1875,0.125,-0.0625
1480628821692625,-0.625,0.1875,0.1875
1480628821709167,-0.75,-0.0625,-0.0625
1480628821730223,0.625,-0.25,-0.1875
1480628821746266,0.875,-0.25,-0.1875
1480628821769328,-0.5,-0.25,-0.125
1480628821797404,-1.0625,0,0.3125
1480628821806425,-0.25,0.125,0.0625
1480628821828986,0.25,0,-0.1875
1480628821859066,0.125,-0.0625,-0.3125
1480628821866587,-0.125,-0.1875,0.0625
1480628821889147,-0.6875,0,0.3125
1480628821911706,-0.625,0.0625,-0.0625
1480628821926746,0.1875,0,-0.125
1480628821948805,-0.0625,-0.1875,-0.125
1480628821971364,-0.125,-0.1875,0
1480628821986955,0,-0.125,0
1480628822008965,0.0625,0,0.0625
1480628822032527,-0.375,-0.125,-0.3125
1480628822046063,-0.5625,-0.1875,-0.125
1480628822069626,-0.375,-0.125,-0.0625
1480628822091685,0.3125,-0.0625,-0.1875
1480628822105723,0.4375,0.125,0
1480628822128783,-0.1875,-0.0625,0.4375
1480628822151344,-0.8125,-0.0625,0
1480628822165883,0.125,-0.0625,-0.25
1480628822188945,-0.125,0.0625,-0.125
1480628822211505,-0.4375,0,-0.3125
1480628822226042,0.25,-0.125,0.3125
1480628822249103,0.5625,-0.1875,0.4375
1480628822271663,0.9375,-0.125,0
1480628822285702,0.625,-0.0625,0.0625
1480628822308762,-0.5625,-0.125,-0.0625
1480628822331323,-0.4375,-0.1875,-0.1875
1480628822352380,-0.1875,-0.0625,0.0625
1480628822374939,-0.5,0.0625,-0.125
1480628822391483,-0.75,-0.0625,0
1480628822414042,-0.1875,0.125,0.1875
1480628822429082,0.375,-0.1875,0.1875
1480628822465679,-0.375,0,-0.125
1480628822472698,-0.5625,0.125,0.1875
1480628822496261,-0.6875,0.25,0.3125
1480628822511802,-0.4375,-0.0625,0.1875
1480628822532357,0.5625,-0.125,-0.25
1480628822548901,0,-0.25,0.125
1480628822571462,-0.5,-0.0625,0.1875
1480628822592517,-0.4375,0.0625,0.25
1480628822609062,0,0.0625,0
1480628822631622,-0.5625,-0.25,-0.25
1480628822652679,-0.75,-0.375,-0.0625
1480628822670225,-0.25,-0.25,0.125
1480628822691280,-0.1875,-0.0625,0.0625
1480628822712335,-0.25,-0.1875,0.125
1480628822743920,-0.125,-0.1875,0
1480628822752443,-0.25,-0.25,-0.0625
1480628822774501,-0.125,-0.3125,0.0625
1480628822789041,-0.3125,0,0.25
1480628822811600,-0.3125,0,0.1875
1480628822834161,-0.5,-0.25,-0.25
1480628822849701,-0.25,-0.3125,-0.1875
1480628822871259,-0.6875,-0.25,-0.1875
1480628822902843,-0.6875,0.0625,0.1875
1480628822909861,-0.4375,0,0.25
1480628822931920,-0.25,-0.1875,0.125
1480628822953980,0,-0.375,-0.125
1480628822968519,-0.3125,-0.375,-0.125
1480628822992582,-0.75,-0.1875,0.1875
1480628823021659,-0.75,-0.125,0.3125
1480628823028177,-0.6875,-0.1875,-0.1875
1480628823051740,-0.6875,-0.25,-0.25
1480628823073797,-0.6875,-0.3125,-0.0625
1480628823096360,-0.6875,-0.25,0.25
1480628823111399,0.375,-0.1875,0.5
1480628823134460,-0.1875,-0.1875,0.0625
1480628823150001,-0.75,-0.25,-0.125
1480628823172059,-0.375,-0.1875,0.125
1480628823194118,-0.4375,-0.125,0.125
1480628823208656,-0.5,-0.125,0.1875
1480628823232219,-0.375,-0.125,0.375
1480628823253777,-0.5,-0.25,0.125
1480628823268315,0.125,-0.3125,0.0625
1480628823298896,-0.0625,-0.125,0
1480628823313936,-0.3125,-0.125,0
1480628823335996,1.125,0,0.1875
1480628823351538,0.1875,0.0625,0.4375
1480628823374097,-0.625,-0.375,-0.125
1480628823395152,0.0625,-0.1875,-0.25
1480628823411696,0.1875,-0.0625,-0.0625
1480628823440272,-0.625,-0.0625,0.0625
1480628823454811,-0.125,0.0625,0
1480628823471355,0.125,-0.125,0.0625
1480628823495420,0.1875,-0.1875,-0.0625
1480628823514972,0,-0.25,-0.125
1480628823531516,-0.4375,0,0.1875
1480628823554076,-0.5,0.0625,0
1480628823576636,0.1875,0.0625,-0.125
1480628823599195,0.625,-0.125,0
1480628823613736,0.5,-0.0625,0.0625
1480628823635294,0.1875,0.0625,0.0625
1480628823651337,-0.375,0,0.125
1480628823673897,-0.3125,0,0.0625
1480628823694950,0.1875,0,-0.0625
1480628823711498,0.4375,0.1875,0
1480628823734555,0,0.125,0.125
1480628823755173,-0.6875,0,0.125
1480628823771654,-0.3125,-0.125,0.1875
1480628823801735,0.125,-0.1875,-0.1875
1480628823832817,0.4375,0.125,-0.125
1480628823837333,-0.5625,0.0625,0.25
1480628823854378,-0.4375,0.125,0.1875
1480628823883953,-0.3125,0.25,0.0625
1480628823891473,-0.375,0.1875,-0.0625
1480628823914034,-1,-0.1875,-0.0625
1480628823936595,-1,-0.3125,-0.125
1480628823950630,-0.4375,-0.1875,-0.0625
1480628823974193,-0.5625,-0.0625,0.1875
1480628823996251,-0.4375,-0.0625,0.1875
1480628824018813,-0.3125,-0.1875,0.0625
1480628824033852,-0.25,-0.125,0
1480628824056412,-0.3125,-0.1875,-0.3125
1480628824077468,-0.375,0,0.125
1480628824095014,0.0625,0,0.1875
1480628824116571,0.375,0.1875,0
1480628824131613,0.5,0.125,-0.1875
1480628824154174,0.25,0.0625,-0.25
1480628824176731,0.8125,0.125,-0.125
1480628824190770,1.1875,0.25,-0.0625
1480628824213832,1.4375,0.1875,-0.25
1480628824236391,1.5625,0.125,-0.25
1480628824257448,0.75,0.1875,0.0625
1480628824273990,0.3125,0.1875,-0.0625
1480628824296550,-0.1875,0.125,-0.1875
1480628824326631,-0.625,0,-0.25
1480628824334151,0.375,0.1875,-0.25
1480628824356710,1.6875,0.5625,0.4375
1480628824384786,1.9375,0.375,0.25
1480628824393810,1.125,0.125,0.25
1480628824416369,0.375,-0.1875,0.0625
1480628824438930,-0.3125,-0.3125,-0.1875
1480628824453970,-1.4375,-0.1875,0.125
1480628824476530,-0.75,0.0625,0
1480628824497586,0.1875,0.125,0.1875
1480628824514129,0.125,0.25,-0.0625
1480628824536690,-0.1875,0.125,0.0625
1480628824565266,0.625,0,0.125
1480628824573788,1.0625,0.0625,0.125
1480628824603868,1.0625,0,0.0625
1480628824618908,1.1875,0,-0.0625
1480628824633948,0.625,-0.0625,0.0625
1480628824656515,0.625,-0.125,0
1480628824685085,0.5,-0.125,0.125
1480628824694109,0.0625,-0.1875,-0.0625
1480628824716668,-0.625,-0.1875,-0.375
1480628824738727,-0.0625,-0.125,-0.4375
1480628824759783,0.9375,0.1875,0
1480628824776327,0.5,0.25,0.125
1480628824799389,0.8125,-0.0625,-0.1875
1480628824813927,1.5625,0,0
1480628824835986,0.8125,0.0625,-0.3125
1480628824859047,-0.375,0.125,-0.125
1480628824881608,-0.0625,0.0625,-0.1875
1480628824897149,0.4375,0.0625,-0.1875
1480628824919207,0.75,0,-0.375
1480628824941266,0.875,-0.125,-0.1875
1480628824956306,0.5,0.125,0
1480628824978866,-0.0625,0.125,-0.0625
1480628824993405,0,0.125,-0.3125
1480628825016466,0.375,0.0625,-0.4375
1480628825039026,0,0.1875,-0.1875
1480628825054067,-0.125,0.1875,0
1480628825077127,0.3125,0.0625,0.0625
1480628825105202,1,-0.0625,-0.4375
1480628825120245,0.75,0.125,-0.25
1480628825136791,0.25,0.25,-0.1875
1480628825158844,-0.1875,0.1875,0.0625
1480628825173383,-0.3125,0.125,0.0625
1480628825196446,0.125,-0.1875,0.0625
1480628825219007,0,-0.375,-0.125
1480628825240061,-1.3125,-0.5,-0.1875
1480628825256604,-2.25,-0.3125,0
1480628825279164,-1.5625,-0.25,0.0625
1480628825300221,-0.625,-0.1875,-0.1875
1480628825316264,-0.125,-0.5,-0.1875
1480628825338823,0.5,-0.5625,-0.1875
1480628825359882,0.3125,-0.125,-0.1875
1480628825383944,0.0625,0.0625,-0.125
1480628825405505,-0.0625,0.1875,-0.125
1480628825420545,0.4375,0.1875,0.0625
1480628825436585,0.125,-0.125,0.1875
1480628825459143,0.0625,-0.375,0
1480628825480200,0.625,-0.375,0
1480628825496243,-0.375,-0.25,0
1480628825519304,-0.8125,-0.25,-0.0625
1480628825540360,-0.75,-0.125,0.1875
1480628825556905,-0.3125,-0.0625,0.125
1480628825578962,-0.125,-0.25,0
1480628825600018,-0.4375,-0.4375,0.25
1480628825616563,-1,-0.3125,0
1480628825639122,-1,-0.25,0.125
1480628825660178,-0.375,-0.125,0.25
1480628825683773,-1.125,-0.1875,0.125
1480628825699815,-1.0625,-0.375,0.125
1480628825721372,-0.9375,-0.375,0.125
1480628825736420,-0.9375,-0.4375,0.25
1480628825759474,-1.1875,-0.25,0.375
1480628825781533,-1.3125,-0.125,0.25
1480628825796573,-1.3125,-0.3125,-0.125
1480628825819133,-0.9375,-0.375,-0.1875
1480628825841692,-0.5625,-0.25,0.1875
1480628825855730,-0.1875,0,0.25
1480628825879292,0.0625,0,0
1480628825901351,0.3125,-0.0625,0
1480628825915890,0.4375,0.0625,-0.25
1480628825938951,0.4375,0,-0.125
1480628825962013,0.4375,0.0625,0.1875
1480628825976050,0.5,-0.1875,-0.125
1480628825999111,-0.5,-0.25,-0.25
1480628826021671,-0.75,-0.25,-0.375
1480628826035708,-0.375,-0.125,-0.125
1480628826066290,-0.5,-0.125,-0.0625
1480628826081330,-1.5,-0.3125,-0.3125
1480628826095869,-1.25,-0.4375,-0.0625
1480628826119432,-0.5,-0.25,-0.125
1480628826141489,-0.25,-0.125,-0.0625
1480628826162546,-0.6875,0,0
1480628826187112,0.125,-0.1875,-0.125
1480628826201650,0.875,-0.0625,0.125
1480628826222706,0.9375,0,0.125
1480628826244765,0.5625,0.125,0.125
1480628826267828,-0.125,0,-0.0625
1480628826282365,0.3125,0.0625,-0.1875
1480628826298909,0.5,0,-0.3125
1480628826321469,-0.4375,-0.0625,0
1480628826343528,-0.625,-0.125,0
1480628826359069,-0.0625,-0.25,0.125
1480628826381629,-0.4375,-0.4375,-0.125
1480628826410204,-1.1875,-0.375,-0.1875
1480628826419732,-0.9375,-0.4375,-0.0625
1480628826442290,-0.6875,-0.1875,0.0625
1480628826463847,-0.5625,-0.0625,-0.1875
1480628826478889,-0.5,-0.125,0.1875
1480628826501450,-0.25,-0.25,0
1480628826523507,0.25,-0.0625,-0.0625
1480628826539047,-0.0625,-0.0625,-0.125
1480628826561608,-0.3125,0.0625,0.0625
1480628826582663,0.25,0.125,0.0625
1480628826598706,1.0625,0,-0.125
1480628826621267,0.8125,0.0625,0
1480628826643826,0.125,-0.125,-0.1875
1480628826658365,0.1875,0.125,0.0625
1480628826688946,0.5,0.0625,0.0625
1480628826703988,0.0625,-0.0625,-0.3125
1480628826719528,-0.5,-0.25,-0.25
1480628826741588,-0.375,-0.125,0.0625
1480628826764146,0,0.0625,0
1480628826778184,0.1875,0.125,-0.125
1480628826802248,0.3125,0,-0.0625
1480628826823805,0.5,-0.125,0
1480628826838346,0.6875,-0.0625,-0.125
1480628826861405,0.4375,0.125,0
1480628826883965,0.375,0.125,0
1480628826905022,0.375,0,-0.125
1480628826921566,0.0625,0.125,-0.1875
1480628826944125,-0.625,0.0625,-0.0625
1480628826966687,0.0625,0.0625,-0.0625
1480628826988744,0.5625,0.0625,0
1480628827003783,-0.0625,-0.0625,0
1480628827018323,-0.1875,-0.125,0.125
1480628827041384,0.125,-0.0625,-0.125
1480628827063944,0.375,0,0
1480628827078482,0,0,-0.125
1480628827101547,-0.4375,0.0625,-0.125
1480628827124105,-0.0625,0.0625,-0.125
1480628827145160,-0.375,0.125,-0.1875
1480628827161203,-0.75,0,-0.375
1480628827184264,0.1875,0.125,-0.3125
1480628827204819,0.3125,0.125,0
1480628827221363,0.125,0,-0.0625
1480628827243923,-0.25,0,0
1480628827264979,0.0625,0.125,-0.375
1480628827281523,0.1875,0.0625,-0.1875
1480628827304083,0.25,0.1875,0
1480628827326642,0,0.1875,0.25
1480628827341683,0.25,0,-0.1875
1480628827363743,0.3125,-0.125,-0.1875
1480628827384800,0.3125,-0.0625,-0.3125
1480628827401342,0,0.1875,0.25
1480628827423901,-0.0625,0.1875,0.25
1480628827452479,0.3125,-0.0625,-0.125
1480628827461501,0.8125,-0.0625,-0.1875
1480628827492584,0.9375,-0.0625,0.0625
1480628827505121,0.0625,-0.0625,0.3125
1480628827521665,-0.125,-0.0625,-0.0625
1480628827544222,0.4375,-0.125,-0.25
1480628827566281,0.125,0,-0.1875
1480628827581321,-0.9375,-0.0625,0.125
1480628827603880,-0.75,0.0625,0.1875
1480628827626441,0.375,-0.125,0.0625
1480628827642484,0.125,-0.25,-0.1875
1480628827664041,-0.25,-0.1875,-0.0625
1480628827686602,-0.375,-0.125,0.25
1480628827701642,0,0,0
1480628827724200,0.25,-0.0625,-0.25
1480628827753781,0.1875,-0.0625,-0.0625
1480628827767821,-0.25,-0.375,0.25
1480628827783859,-1.8125,-0.25,0.125
1480628827806420,0.125,-0.1875,-0.125
1480628827820968,0.3125,0.0625,-0.0625
1480628827843518,-0.4375,0,-0.125
1480628827866579,-0.875,-0.125,0
1480628827880616,0,-0.125,0
1480628827904179,0.1875,-0.1875,-0.1875
1480628827927240,0.5,-0.0625,-0.0625
1480628827947294,0,-0.0625,0.375
1480628827964841,-0.0625,-0.0625,0.0625
1480628827986400,-0.3125,-0.1875,-0.1875
1480628828000937,-0.5,0,0
1480628828023999,-0.3125,0.0625,0
1480628828046558,-0.125,0.25,0.1875
1480628828067614,0.25,0,-0.0625
1480628828097694,0.6875,-0.125,-0.125
1480628828106718,0.25,-0.125,-0.1875
1480628828127273,-0.125,0,0.0625
1480628828144820,0,0.1875,0.1875
1480628828172393,-0.5625,-0.1875,-0.125
1480628828188937,-0.3125,-0.25,-0.3125
1480628828204980,-0.25,-0.25,-0.1875
1480628828226537,-0.6875,-0.125,0
1480628828247594,-0.5625,0.0625,0.25
1480628828264639,-0.375,-0.125,0.125
1480628828287700,0,-0.3125,-0.3125
1480628828307251,0.125,-0.3125,0
1480628828324799,-0.375,-0.0625,0.125
1480628828346356,-0.5625,0,0.375
1480628828367413,-0.5,-0.125,0.1875
1480628828383957,-0.375,-0.25,-0.1875
1480628828406516,0.0625,-0.375,-0.1875
1480628828427573,-0.375,-0.1875,0.25
1480628828450131,-1,-0.0625,0.4375
1480628828466676,-0.4375,-0.125,-0.0625
1480628828487231,0.4375,-0.125,0.0625
1480628828503775,-0.5625,-0.25,0
1480628828526335,-1.0625,-0.375,0
1480628828548895,-0.1875,-0.3125,0
1480628828563935,0,-0.3125,0.125
1480628828592510,0.0625,-0.25,0
1480628828609055,-0.625,-0.1875,0.375
1480628828624095,-0.375,-0.125,0.125
1480628828646655,-0.8125,-0.1875,-0.1875
1480628828669718,-0.5625,-0.3125,-0.125
1480628828683253,-0.4375,-0.25,-0.0625
1480628828707333,-0.4375,0,0.25
1480628828745417,0.25,-0.125,0.1875
1480628828749929,0.1875,-0.25,-0.0625
1480628828766474,0.5,-0.375,-0.1875
1480628828789044,-0.3125,-0.0625,0.25
1480628828803571,-0.8125,-0.1875,0.1875
1480628828826635,-0.375,-0.1875,0
1480628828849194,-0.3125,-0.125,-0.125
1480628828863231,-1.1875,-0.1875,0
1480628828886293,-1.1875,-0.25,0.1875
1480628828908852,0,-0.1875,0.0625
1480628828929908,0.125,-0.375,0.0625
1480628828946452,-0.6875,-0.3125,0.0625
1480628828969515,-0.6875,-0.125,0.1875
1480628828983049,-0.375,-0.0625,0
1480628829006612,-0.25,-0.1875,-0.3125
1480628829029173,-0.4375,-0.25,0.0625
1480628829050229,-0.4375,-0.25,0.1875
1480628829066776,-0.25,-0.3125,0
1480628829088831,-0.4375,-0.1875,-0.1875
1480628829117910,-0.875,-0.375,-0.1875
1480628829134954,-1.125,-0.3125,0.0625
1480628829148993,-0.875,-0.3125,-0.0625
1480628829170050,-0.3125,-0.3125,-0.125
1480628829186594,-0.125,-0.3125,0
1480628829209151,-0.8125,-0.125,0
1480628829230208,-0.6875,-0.1875,0
1480628829246250,-0.0625,-0.1875,0
1480628829269313,0.25,-0.1875,-0.125
1480628829290367,0,-0.1875,0.3125
1480628829306410,-1.1875,-0.25,0.25
1480628829328970,-0.75,-0.1875,-0.125
1480628829350026,-0.3125,-0.0625,-0.1875
1480628829366068,0.4375,-0.1875,-0.0625
1480628829389130,0.375,-0.1875,0.4375
1480628829410186,0.3125,0.0625,0.25
1480628829426228,-0.3125,0,0.125
1480628829456309,-0.5625,-0.0625,-0.1875
1480628829471348,-0.4375,-0.1875,-0.25
1480628829486890,0.0625,0,0.0625
1480628829508948,0.1875,0,0.1875
1480628829532012,-0.4375,-0.0625,-0.1875
1480628829546550,-0.1875,-0.125,0
1480628829569111,0.125,-0.125,0.1875
1480628829592170,0.0625,-0.0625,0.0625
1480628829612224,-0.125,-0.0625,0.0625
1480628829629269,0,-0.125,0
1480628829651329,-0.5625,-0.0625,0
1480628829665866,-0.3125,0,-0.1875
1480628829688927,0,-0.0625,0.1875
1480628829711487,0,-0.0625,0.1875
1480628829726026,-0.75,-0.25,-0.0625
1480628829749087,-0.4375,-0.1875,-0.3125
1480628829771647,0.4375,0,-0.0625
1480628829785685,-0.0625,0.0625,0.125
1480628829809247,-0.375,0,0.0625
1480628829832310,0.3125,-0.0625,-0.125
1480628829846346,0.5625,-0.25,-0.25
1480628829876426,0.0625,-0.25,0.125
1480628829891466,0.125,-0.0625,0.1875
1480628829906005,0.6875,0,0.3125
1480628829929066,0.1875,-0.0625,0
1480628829951627,-0.5,-0.3125,-0.0625
1480628829972682,-0.25,-0.0625,-0.0625
1480628829988725,0.0625,0.0625,0
1480628830017303,0,0,0.1875
1480628830033845,0.125,-0.0625,0.25
1480628830048885,0.5,0,-0.125
1480628830071445,0.75,-0.0625,-0.1875
1480628830094005,-0.4375,-0.0625,0.25
1480628830108544,-0.875,-0.125,0
1480628830131605,0,0,-0.25
1480628830153669,0.3125,-0.0625,-0.1875
1480628830175221,-0.4375,-0.0625,0.125
1480628830192266,-0.4375,0.0625,0.25
1480628830212320,0.25,-0.125,0.25
1480628830228864,0.5625,-0.0625,-0.25
1480628830251425,-0.0625,-0.125,-0.0625
1480628830272981,-0.375,-0.0625,0.1875
1480628830289024,-0.3125,0,0.1875
1480628830312588,0.1875,0,-0.0625
1480628830332640,0.1875,-0.125,0
1480628830350188,-0.5625,-0.125,0.0625
1480628830371243,-0.5,-0.0625,-0.0625
1480628830392299,-0.1875,-0.0625,-0.0625
1480628830408843,0.0625,-0.0625,-0.125
1480628830431403,-0.0625,-0.0625,-0.125
1480628830453963,0,-0.1875,0.125
1480628830469504,-0.25,-0.1875,-0.0625
1480628830492565,-0.125,0,-0.1875
1480628830514625,-0.25,-0.0625,-0.0625
1480628830529163,0,-0.0625,0.0625
1480628830551725,0.1875,0,0.125
1480628830573782,0.5,0.0625,0.0625
1480628830588821,0,-0.0625,0.0625
1480628830611382,-0.75,-0.1875,0.0625
1480628830633942,0.0625,-0.125,-0.1875
1480628830648480,0.125,0.125,0
1480628830671541,0.0625,0.125,0.0625
1480628830694101,-0.3125,-0.125,0.1875
1480628830708139,0.1875,-0.0625,-0.1875
1480628830731703,-0.125,0.125,-0.25
1480628830753764,-0.9375,0.25,-0.125
1480628830768299,-0.75,0.1875,-0.1875
1480628830791360,-0.1875,-0.0625,0
1480628830814422,0.0625,-0.125,-0.1875
1480628830834977,0,-0.125,-0.125
1480628830851521,-0.3125,0,0.0625
1480628830874080,-0.4375,-0.125,-0.0625
1480628830888119,-0.1875,-0.125,-0.125
1480628830912182,0,0,-0.125
1480628830933740,-0.1875,-0.125,0.0625
1480628830954799,-0.3125,-0.125,0.0625
1480628830984876,-0.0625,0,-0.375
1480628830993900,-0.4375,0,0.125
1480628831014955,-0.1875,-0.0625,0.125
1480628831032000,-0.0625,0,-0.1875
1480628831060090,0,-0.125,-0.0625
1480628831075115,-0.0625,-0.0625,-0.1875
1480628831099179,-0.25,0,0.125
1480628831114720,-0.0625,-0.0625,-0.1875
1480628831143296,0.25,-0.125,-0.125
1480628831151819,-0.25,-0.125,-0.125
1480628831173878,-0.6875,-0.125,-0.125
1480628831194935,0.125,-0.125,-0.0625
1480628831211478,0.375,0,0.1875
1480628831234041,0.125,0,0.125
1480628831254593,0.125,-0.0625,-0.0625
1480628831272640,-0.375,-0.125,-0.1875
1480628831293697,-0.125,-0.25,-0.125
1480628831314752,-0.0625,-0.125,-0.125
1480628831331297,-0.1875,0.0625,0
1480628831353857,-0.125,0.0625,0.0625
1480628831376416,0.1875,0,-0.0625
1480628831391457,0.4375,-0.125,-0.0625
1480628831413516,0.3125,-0.125,0.0625
1480628831437078,-0.1875,-0.125,0
1480628831453122,-0.125,-0.125,-0.1875
1480628831474177,0.125,0.0625,-0.0625
1480628831496236,-0.5,0.125,0
1480628831510774,-0.8125,-0.125,0
1480628831541355,0,-0.125,-0.0625
1480628831556396,0.9375,-0.125,0
1480628831570934,0.25,-0.125,0.0625
1480628831593997,-0.25,-0.125,0.125
1480628831622573,-0.5625,0,0
1480628831630593,-0.4375,-0.0625,-0.25
1480628831654157,-0.25,-0.25,-0.25
1480628831676214,-0.125,-0.1875,0.1875
1480628831698774,-0.1875,-0.1875,0.25
1480628831713815,-0.375,-0.125,0.1875
1480628831737377,-0.4375,-0.125,-0.1875
1480628831750914,-0.5625,-0.1875,-0.1875
1480628831775980,-0.4375,-0.1875,0
1480628831796534,-0.1875,-0.125,0.1875
1480628831819096,-0.1875,-0.125,0.1875
1480628831834135,-0.3125,-0.1875,-0.1875
1480628831856695,-0.75,-0.375,-0.125
1480628831877249,-0.25,-0.25,-0.0625
1480628831901815,-0.125,-0.0625,0.125
1480628831917356,-0.25,0,0.3125
1480628831937409,-0.125,-0.125,0
1480628831959969,-0.3125,-0.3125,-0.1875
1480628831976513,-0.5625,-0.25,0.25
1480628831997569,-0.625,-0.125,0.0625
1480628832014114,-0.75,0,-0.0625
1480628832044194,-0.6875,-0.125,0.125
1480628832057729,-0.5,-0.25,-0.0625
1480628832074774,-0.0625,-0.25,-0.0625
1480628832096332,-0.0625,-0.125,0.0625
1480628832117389,-0.4375,-0.25,0.1875
1480628832133932,-0.375,-0.125,-0.0625
1480628832156492,-0.5,-0.1875,-0.0625
1480628832179052,-0.5,-0.125,0.125
1480628832194094,-1.0625,-0.125,0.0625
1480628832216652,-0.4375,-0.25,0
1480628832238711,0.25,-0.375,0.0625
1480628832254252,0.1875,-0.375,0.0625
1480628832276311,-0.25,-0.1875,0.125
1480628832297367,-0.5,-0.125,0.3125
1480628832313911,-0.25,-0.125,-0.25
1480628832336972,-0.4375,-0.0625,-0.125
1480628832359031,-0.375,-0.1875,0.25
1480628832374071,-0.1875,-0.1875,0.25
1480628832396631,-0.3125,-0.3125,-0.1875
1480628832425207,-0.4375,-0.3125,-0.25
1480628832433229,-0.75,-0.125,-0.0625
1480628832456290,-0.75,-0.0625,0
1480628832486370,-0.5625,-0.125,-0.0625
1480628832501410,-0.25,-0.3125,-0.0625
1480628832517453,0.125,-0.25,-0.25
1480628832539010,0.125,0.0625,-0.1875
1480628832554052,-0.625,0.1875,0.125
1480628832576610,-0.75,0.0625,-0.0625
1480628832599170,-0.25,-0.125,-0.1875
1480628832613207,-0.5,0.125,-0.25
1480628832636268,-0.6875,0,-0.125
1480628832659330,-1.375,-0.125,-0.125
1480628832673367,0.5,-0.0625,0.125
1480628832704450,1,0,0.125
1480628832735534,-0.3125,-0.0625,-0.1875
1480628832740044,-0.5,-0.125,-0.25
1480628832764108,-0.25,-0.0625,-0.125
1480628832795193,-0.4375,0.0625,0
1480628832800206,-0.125,-0.0625,-0.125
1480628832816247,-0.125,-0.125,-0.125
1480628832839811,-0.25,-0.125,-0.25
1480628832859863,0,-0.0625,-0.125
1480628832876409,-0.1875,-0.0625,0.1875
1480628832898967,-0.1875,-0.0625,-0.125
1480628832920025,0.3125,-0.0625,-0.1875
1480628832936568,0.5,-0.0625,0.0625
1480628832959127,-0.3125,-0.125,0.1875
1480628832980184,-0.375,0,-0.125
1480628832996226,0.375,0.0625,0
1480628833018786,0.125,-0.0625,0.0625
1480628833039842,-0.9375,-0.125,-0.0625
1480628833056386,-0.4375,-0.125,-0.1875
1480628833079448,0.5,-0.125,-0.1875
1480628833100005,0,-0.125,0.0625
1480628833116547,-0.75,-0.125,-0.0625
1480628833139607,-0.25,-0.0625,-0.1875
1480628833167683,0.25,0,-0.0625
1480628833176205,0,0,0
1480628833198765,-0.9375,0.125,-0.125
1480628833220326,-1.1875,0.125,-0.25
1480628833236365,-0.375,-0.0625,-0.1875
1480628833258925,0.25,-0.0625,0
1480628833281485,-0.0625,-0.0625,-0.0625
1480628833296525,0.3125,0.0625,-0.0625
1480628833319588,0.75,0.1875,0.0625
1480628833341645,0.0625,-0.0625,0.0625
1480628833356187,-0.0625,-0.1875,-0.25
1480628833379746,0.5625,-0.125,0
1480628833402307,0.3125,0,-0.0625
1480628833416846,-0.8125,-0.0625,-0.0625
1480628833438903,-0.375,0,-0.1875
1480628833461464,0,0,0
1480628833482522,0,-0.0625,-0.125
1480628833499064,-0.0625,-0.125,0.0625
1480628833521624,0,-0.0625,0
1480628833535661,0.3125,-0.125,-0.0625
1480628833573764,0,-0.125,0.0625
1480628833581283,0,-0.125,0
1480628833595821,0.3125,-0.125,-0.125
1480628833618883,-0.0625,-0.125,0
1480628833641443,-0.0625,-0.0625,0.125
1480628833655981,-0.1875,-0.125,-0.0625
1480628833679042,-0.0625,-0.125,-0.1875
1480628833701606,0,-0.125,-0.0625
1480628833715640,-0.25,-0.0625,0
1480628833738701,-0.125,-0.0625,-0.0625
1480628833761261,0.3125,-0.125,-0.1875
1480628833789837,-0.25,-0.125,-0.1875
1480628833799362,-0.5,0,-0.0625
1480628833821421,0.25,-0.0625,0
1480628833842979,0.8125,0,0.0625
1480628833859022,0,-0.125,0
1480628833881581,-0.375,-0.125,-0.125
1480628833903140,0,-0.0625,0
1480628833919182,0.125,0.25,-0.1875
1480628833941239,-0.25,0.1875,-0.125
1480628833962296,-0.25,-0.125,0
1480628833978840,0.875,-0.125,0.125
1480628834001400,1.25,-0.0625,0.0625
1480628834022456,0.5625,0,-0.0625
1480628834039000,-0.4375,-0.0625,-0.1875
1480628834069082,-0.5,-0.0625,-0.125
1480628834082616,0,0.125,-0.1875
1480628834099160,-0.25,0.0625,-0.0625
1480628834121219,-0.5,0,0.0625
1480628834142274,-0.1875,-0.125,0
1480628834158819,0.4375,-0.125,-0.0625
1480628834181379,-0.25,-0.0625,0
1480628834202434,-0.4375,-0.125,0.0625
1480628834218980,-0.1875,-0.125,0
1480628834241539,-0.25,-0.125,0
1480628834264100,-0.25,0,-0.0625
1480628834285156,-0.25,-0.125,0.0625
1480628834301700,-0.0625,-0.0625,-0.125
1480628834323758,-0.0625,-0.125,-0.125
1480628834346317,0,0,-0.1875
1480628834376398,-0.1875,-0.0625,-0.0625
1480628834383918,-0.25,0,-0.0625
1480628834398458,0.5,-0.125,-0.125
1480628834427535,0.625,-0.125,-0.1875
1480628834444078,-0.0625,-0.125,0
1480628834458115,-0.3125,-0.0625,0.0625
1480628834481678,0.125,-0.125,-0.0625
1480628834503736,-0.25,-0.125,-0.0625
1480628834518275,-0.5,-0.1875,0.0625
1480628834541838,-0.625,-0.125,0.0625
1480628834563897,-0.125,0,0
1480628834578436,-0.5,0.125,-0.125
1480628834601498,-0.125,-0.0625,-0.0625
1480628834624057,0.4375,-0.125,0.25
1480628834638596,0.75,-0.125,0.0625
1480628834661155,0.5625,-0.125,0
1480628834684217,0.125,0,0.0625
1480628834698254,-0.625,-0.125,-0.1875
1480628834721315,-0.25,-0.0625,-0.0625
1480628834758415,-0.25,-0.0625,-0.125
1480628834764931,-0.5,0,0
1480628834781476,-0.375,-0.1875,0.125
1480628834804036,-0.0625,-0.125,-0.0625
1480628834825092,0.4375,-0.1875,-0.125
1480628834841635,-0.0625,-0.0625,0.0625
1480628834870211,-0.375,-0.0625,0.0625
1480628834892271,-0.0625,-0.125,-0.125
1480628834901300,0.4375,-0.125,-0.125
1480628834923854,0,-0.125,0.1875
1480628834944910,-0.5,-0.125,0
1480628834962056,-0.25,-0.125,-0.125
1480628834984014,-0.3125,-0.1875,-0.0625
1480628835005571,-0.5,-0.125,-0.1875
1480628835021614,-0.75,-0.25,-0.125
1480628835043672,-0.375,-0.25,0.0625
1480628835066234,0,-0.25,0
1480628835081273,-0.4375,-0.25,-0.0625
1480628835103833,-0.5625,-0.375,-0.125
1480628835124888,-0.3125,-0.4375,0
1480628835147449,-0.25,-0.25,0
1480628835164495,-0.25,-0.125,0.0625
1480628835192570,-1,-0.125,0.1875
1480628835201596,-1.375,-0.1875,0.1875
1480628835224154,-0.5625,-0.125,0
1480628835246212,-0.1875,-0.1875,-0.125
1480628835261252,-0.4375,-0.125,0
1480628835289828,-0.1875,0,0.3125
1480628835307375,-0.25,-0.125,0.4375
1480628835320911,0.0625,-0.25,-0.125
1480628835343972,0,-0.25,-0.0625
1480628835374052,-0.5625,-0.125,0.1875
1480628835395108,-0.6875,-0.125,0.125
1480628835404633,-0.625,-0.125,0
1480628835426190,-0.6875,-0.125,-0.1875
1480628835449252,-0.5625,-0.125,-0.0625
1480628835469807,-0.0625,-0.0625,0.25
1480628835486852,0.3125,-0.25,0.0625
1480628835500889,-0.375,-0.25,-0.1875
1480628835523952,-0.4375,-0.25,-0.125
1480628835546511,-0.375,-0.125,0.0625
1480628835560548,-0.375,-0.125,0
1480628835584613,-0.25,-0.125,-0.0625
1480628835606671,0.125,-0.25,0.0625
1480628835622212,-0.25,-0.25,0
1480628835652293,-0.25,-0.0625,-0.1875
1480628835673849,-0.375,-0.0625,-0.0625
1480628835688890,-0.75,-0.1875,-0.1875
1480628835690395,-0.5,-0.1875,-0.0625
1480628835709444,0.25,-0.125,0
1480628835732004,0.25,-0.1875,0.125
1480628835749551,-0.6875,-0.1875,-0.125
1480628835769605,-0.5625,-0.25,-0.0625
1480628835791663,-0.125,0,0.0625
1480628835814223,-0.25,-0.1875,0.0625
1480628835829263,-0.375,-0.1875,-0.0625
1480628835851823,-0.625,-0.1875,0.125
1480628835874383,-0.25,-0.125,-0.0625
1480628835889424,0,0,-0.0625
1480628835911983,0,-0.0625,0.0625
1480628835943066,-0.0625,-0.125,0.125
1480628835949085,0,-0.0625,0.1875
1480628835971642,0.0625,-0.125,0.125
1480628835994204,-0.0625,0,-0.1875
1480628836009242,-0.25,-0.125,-0.125
1480628836031802,-0.5625,0,0
1480628836054362,-0.25,0,-0.0625
1480628836069402,0.0625,0.125,-0.125
1480628836091962,-0.375,-0.0625,0
1480628836114525,-0.0625,-0.1875,-0.0625
1480628836145605,0.1875,-0.0625,-0.125
1480628836151621,0.4375,0.0625,0
1480628836174180,-0.0625,0.125,0.125
1480628836189226,-0.3125,-0.125,-0.125
1480628836211780,0.0625,-0.0625,-0.1875
1480628836234341,0.25,0,-0.125
1480628836249381,0,-0.0625,-0.0625
1480628836271941,-0.1875,-0.125,0
1480628836303023,-0.25,-0.0625,-0.125
1480628836309039,0.3125,0.0625,-0.1875
1480628836331599,0.1875,-0.0625,-0.1875
1480628836357168,-0.0625,-0.125,-0.0625
1480628836369199,-0.125,-0.125,-0.0625
1480628836391760,0.4375,-0.125,-0.0625
1480628836423344,0.5625,0,-0.1875
1480628836429359,0,0.0625,-0.0625
1480628836453424,-0.625,-0.125,0
1480628836474479,-0.25,-0.125,-0.125
1480628836489520,0.375,-0.125,-0.1875
1480628836511579,0.1875,-0.0625,-0.1875
1480628836534140,-0.0625,0.0625,0.125
1480628836557200,0,0.25,0
1480628836571738,-0.4375,0,-0.1875
1480628836594299,0.625,0.0625,0.0625
1480628836612346,0.25,-0.125,0.125
1480628836631900,0.125,-0.125,-0.125
1480628836654461,0,0.0625,0
1480628836679525,-0.5,0.125,-0.0625
1480628836692059,-1.3125,0,-0.1875
1480628836714117,-0.25,-0.0625,-0.0625
1480628836732668,0.6875,-0.0625,0.125
1480628836751718,0.375,-0.0625,-0.0625
1480628836774277,-0.125,-0.125,0.125
1480628836790822,0,-0.0625,0
1480628836813382,-0.125,-0.0625,-0.375
1480628836834439,0.0625,-0.125,-0.1875
1480628836850982,-0.125,-0.0625,0.25
1480628836872037,-0.0625,-0.0625,0.125
1480628836894096,-0.25,-0.125,-0.1875
1480628836910640,0.3125,-0.0625,-0.1875
1480628836932197,-0.1875,-0.125,-0.125
1480628836957264,-0.125,-0.125,0
1480628836978320,0.0625,0,-0.125
1480628836991856,0.25,-0.125,-0.1875
1480628837014415,-0.125,-0.125,-0.0625
1480628837030960,-0.0625,-0.1875,0.1875
1480628837052016,0.25,-0.0625,0
1480628837074074,-0.0625,-0.0625,0
1480628837092123,0,-0.125,-0.125
1480628837111674,-0.125,0,0.0625
1480628837134741,-0.4375,0,-0.125
1480628837152787,0.0625,0.125,0
1480628837174842,0.5625,-0.125,0.0625
1480628837201915,0.4375,-0.125,0
1480628837225478,0.5,-0.0625,0.0625
1480628837232998,0.5625,0.0625,0.125
1480628837257062,-0.1875,-0.0625,-0.1875
1480628837276613,-0.4375,-0.125,-0.25
1480628837291654,-0.3125,-0.0625,-0.0625
1480628837314214,-0.5,0,0.25
1480628837339781,-0.375,-0.0625,-0.1875
1480628837351814,0.0625,-0.125,-0.1875
1480628837374374,0.1875,-0.0625,0
1480628837396934,-0.8125,-0.125,0.3125
1480628837411974,-0.25,0.125,-0.125
1480628837434538,0.3125,-0.125,-0.125
1480628837457093,-0.25,-0.125,-0.0625
1480628837471632,-0.25,-0.125,-0.125
1480628837502214,0.0625,-0.0625,0.0625
1480628837517256,0.1875,-0.0625,-0.0625
1480628837531793,-0.6875,0.1875,-0.1875
1480628837554353,-0.75,0,-0.25
1480628837584936,-0.5625,0.0625,-0.3125
1480628837594961,-0.5,-0.0625,-0.1875
1480628837614513,-0.25,-0.125,-0.125
1480628837638075,0.3125,-0.0625,-0.125
1480628837651611,0.0625,0.0625,0
1480628837674170,-0.625,0.0625,-0.125
1480628837696731,-0.4375,-0.125,-0.25
1480628837714278,0.25,0,-0.1875
1480628837734332,0.3125,-0.125,0.0625
1480628837759900,-0.0625,-0.0625,0.25
1480628837773937,-0.25,0,-0.125
1480628837794493,-0.1875,0,-0.1875
1480628837817051,0.1875,-0.125,-0.0625
1480628837834600,-0.125,-0.125,0.25
1480628837854158,0.5625,0,-0.0625
1480628837876709,0.4375,0,0.0625
1480628837899275,-0.0625,-0.125,0
1480628837921830,-0.3125,-0.1875,-0.125
1480628837936869,-0.1875,-0.0625,-0.0625
1480628837954919,-0.6875,0.0625,-0.1875
1480628837974470,-0.8125,-0.0625,-0.125
1480628837999537,-0.25,-0.125,0
1480628838015580,0.375,-0.125,0.1875
1480628838034131,-0.0625,-0.0625,0.125
1480628838059697,-0.75,-0.1875,0
1480628838074736,-0.5625,-0.25,-0.1875
1480628838094288,0,-0.125,-0.125
1480628838118354,-0.125,-0.0625,0.125
1480628838135398,-0.5,-0.125,0.25
1480628838154450,-0.5,-0.125,0
1480628838177009,-0.25,-0.125,-0.1875
1480628838194556,-0.5625,-0.125,-0.0625
1480628838214108,-0.6875,-0.125,0.0625
1480628838244187,-0.375,-0.125,0.0625
1480628838254717,-0.25,-0.1875,-0.125
1480628838274268,-0.0625,-0.3125,-0.1875
1480628838298332,-0.5,-0.1875,-0.125
1480628838314875,-0.5,-0.125,0.125
1480628838334429,-0.375,0,0.0625
1480628838364508,0.1875,-0.125,0.125
1480628838375537,-0.25,-0.125,0.0625
1480628838401609,-0.75,-0.375,-0.125
1480628838418151,-0.6875,-0.3125,0.125
1480628838435196,-0.4375,-0.125,-0.1875
1480628838454247,-0.5,0.0625,0
1480628838476806,-0.25,-0.125,0.125
1480628838495356,-0.25,-0.125,0.125
1480628838514407,0.375,-0.3125,-0.0625
1480628838536966,0.125,-0.125,0.125
1480628838562033,-0.625,-0.1875,0.125
1480628838574065,-1.0625,-0.1875,-0.125
1480628838596625,-0.6875,-0.1875,-0.125
1480628838620690,-0.4375,0,-0.0625
1480628838645758,-0.6875,-0.125,-0.125
1480628838656785,-0.125,-0.1875,0.125
1480628838674834,0.4375,-0.1875,0.25
1480628838695889,-0.25,-0.125,0.1875
1480628838716945,-0.75,-0.125,-0.125
1480628838739505,-0.625,-0.125,-0.1875
1480628838755550,-0.3125,-0.1875,-0.125
1480628838776609,-0.25,-0.25,0
1480628838799165,-0.25,-0.3125,0.1875
1480628838815709,-0.4375,-0.25,-0.125
1480628838836767,-0.625,-0.3125,-0.1875
1480628838859324,-0.8125,-0.1875,-0.1875
1480628838875867,-0.8125,-0.3125,0.125
1480628838896924,0.0625,-0.125,0.0625
1480628838919484,0.25,-0.3125,0.0625
1480628838935526,-0.3125,-0.375,-0.0625
1480628838956583,-0.4375,-0.25,-0.1875
1480628838979143,0,-0.0625,0
1480628839004712,0.0625,0.125,0.1875
1480628839016743,-0.5625,-0.125,0.1875
1480628839039303,-0.3125,-0.375,-0.1875
1480628839063367,-0.1875,-0.3125,-0.1875
1480628839084424,0,-0.125,-0.125
1480628839117010,-0.1875,0.125,0.0625
1480628839119520,-0.1875,0,0.125
1480628839138065,0,-0.25,0.125
1480628839166641,0.1875,-0.1875,-0.1875
1480628839177171,0.125,-0.1875,-0.125
1480628839196721,-0.5,-0.25,0.125
1480628839219282,-0.6875,-0.125,0
1480628839237330,0,0.1875,-0.0625
1480628839259889,-0.25,0.0625,-0.0625
1480628839279441,-0.75,-0.125,-0.125
1480628839296989,0.125,-0.1875,0
1480628839317044,0.625,-0.0625,0
1480628839339601,-0.5625,-0.125,0
1480628839357148,-0.3125,-0.125,-0.1875
1480628839376701,0.5625,-0.0625,0.0625
1480628839399260,0.0625,-0.0625,-0.125
1480628839417310,0.0625,-0.125,-0.0625
1480628839436860,-0.25,-0.0625,0.1875
1480628839466944,-0.25,-0.125,-0.1875
1480628839484490,-0.25,-0.0625,-0.1875
1480628839498524,-0.0625,-0.125,0
1480628839519080,0.1875,0,-0.1875
1480628839537127,-0.25,-0.125,0
1480628839556681,-0.1875,-0.125,-0.125
1480628839580744,0.125,-0.125,-0.125
1480628839597287,0.4375,-0.125,-0.1875
1480628839618345,-0.125,0,0.125
1480628839639901,-0.3125,-0.0625,0.1875
1480628839664968,0.1875,-0.125,-0.0625
1480628839678507,0.0625,-0.125,-0.1875
1480628839699560,-0.25,-0.125,-0.1875
1480628839717107,-0.5,0,0
1480628839738162,0.3125,0,0
1480628839759218,0.625,0.125,0.0625
1480628839777267,0.375,0,0
1480628839805842,-0.25,-0.125,-0.125
1480628839819379,0,-0.125,-0.1875
1480628839837426,0,-0.0625,-0.125
1480628839866004,-0.0625,0.125,0
1480628839879538,-0.0625,0.1875,0.0625
1480628839897085,-0.5,0,-0.1875
1480628839919645,-0.125,-0.125,-0.25
1480628839946717,0.125,-0.125,0
1480628839957245,-0.0625,-0.125,0
1480628839979805,-0.5,0,0.125
1480628839999359,-0.0625,-0.0625,-0.0625
1480628840017405,0.1875,-0.125,-0.25
1480628840039463,0,-0.1875,-0.1875
1480628840059517,-0.25,0,0.125
1480628840077064,-0.25,0.0625,0.1875
1480628840099624,0.0625,-0.0625,-0.1875
1480628840119175,0.1875,-0.125,-0.375
1480628840137724,-0.25,-0.125,-0.125
1480628840159784,-0.5,0,0.0625
1480628840179335,0.1875,0.0625,0
1480628840197885,0.5,-0.125,-0.1875
1480628840225961,0.125,-0.125,-0.1875
1480628840239495,-0.25,-0.0625,-0.125
1480628840262055,0,0.125,0.0625
1480628840280104,0.4375,0.25,0.0625
1480628840299155,-0.0625,-0.125,0.0625
1480628840321715,0.875,-0.375,-0.25
1480628840339762,0.625,-0.125,0.1875
1480628840360819,-0.1875,-0.0625,-0.1875
1480628840381876,-0.4375,0.25,-0.0625
1480628840399922,-0.1875,0.0625,-0.0625
1480628840419475,0.125,-0.125,-0.125
1480628840442034,0.8125,-0.125,-0.125
1480628840459581,0.75,0.0625,-0.0625
1480628840487158,0.0625,0,0.0625
1480628840519241,-0.5625,-0.0625,-0.1875
1480628840521748,-0.25,0,-0.1875
1480628840540798,0,0,-0.1875
1480628840561853,-0.25,0.0625,0
1480628840579902,-0.25,-0.125,0.0625
1480628840602462,0.5,-0.125,-0.125
1480628840622014,0.5,-0.125,-0.1875
1480628840639560,-0.25,0,0.1875
1480628840660616,-0.375,-0.0625,0
1480628840681672,0,0,0
1480628840699720,0.3125,-0.125,-0.25
1480628840721279,0.3125,-0.125,0
1480628840741832,-0.125,-0.0625,0.0625
1480628840759880,-0.4375,-0.0625,0
1480628840782441,-0.25,0,-0.125
1480628840802994,0.0625,-0.125,-0.0625
1480628840819539,-0.1875,-0.125,-0.125
1480628840842101,-0.375,-0.1875,0.0625
1480628840861651,0.0625,-0.125,-0.125
1480628840879699,0.1875,-0.0625,-0.1875
1480628840902259,-0.6875,0,-0.125
1480628840922314,-0.25,-0.125,-0.0625
1480628840939858,0.375,0.0625,-0.0625
1480628840962419,0.5,-0.125,0
1480628840983479,-0.125,0,0
1480628841007039,0.0625,-0.125,0.0625
1480628841029598,-0.25,-0.0625,0.0625
1480628841041630,-0.4375,0,-0.1875
1480628841059678,-0.625,-0.0625,-0.0625
1480628841082239,0.125,-0.0625,-0.125
1480628841101791,0,0.125,-0.0625
1480628841119838,-0.625,0.3125,-0.25
1480628841142398,-1.3125,0.125,-0.125
1480628841161949,-0.25,0.125,0.0625
1480628841179496,0.3125,-0.125,-0.1875
1480628841202558,0.5,-0.25,-0.125
1480628841222109,0.125,-0.0625,0
1480628841239657,-0.5,0.0625,-0.0625
1480628841266728,-0.4375,0.0625,0.125
1480628841285278,-0.1875,0,-0.125
1480628841299817,0.5,-0.1875,-0.1875
1480628841322378,0.4375,-0.125,-0.0625
1480628841341928,0.0625,-0.0625,0.125
1480628841359977,-0.5625,0,0.0625
1480628841384041,-0.4375,0,-0.3125
1480628841401588,0,-0.125,-0.0625
1480628841419636,0,-0.0625,0
1480628841446707,-0.5625,-0.125,-0.125
1480628841461747,-0.4375,-0.125,-0.1875
1480628841480297,-0.0625,-0.125,-0.375
1480628841509876,0,-0.125,-0.125
1480628841523412,0,-0.0625,0.0625
1480628841539955,-0.0625,0,0.1875
1480628841562015,-0.3125,-0.0625,-0.1875
1480628841584077,-0.3125,-0.125,-0.25
1480628841613151,-0.125,-0.0625,-0.0625
1480628841622176,0,-0.0625,0.125
1480628841644734,0.0625,-0.125,-0.0625
1480628841659774,0.25,-0.0625,0
1480628841682335,0.25,-0.0625,-0.0625
1480628841703391,-0.1875,-0.125,0.125
1480628841724446,-0.5625,-0.125,-0.125
1480628841741992,-0.0625,-0.0625,-0.0625
1480628841769566,-0.4375,0.0625,0
1480628841784106,-0.25,0,-0.125
1480628841802155,-0.0625,0,0
1480628841824713,-0.1875,0,0.1875
1480628841844265,0.1875,-0.0625,-0.125
1480628841868329,0.4375,-0.0625,0
1480628841892393,0.0625,-0.0625,0
1480628841904428,-0.5625,-0.125,0
1480628841921972,-0.25,0,-0.0625
1480628841950548,-0.375,0,-0.0625
1480628841967599,-0.4375,-0.125,0.0625
1480628841982133,0.0625,-0.125,0
1480628842004692,0.3125,-0.125,0
1480628842024244,-0.0625,-0.125,-0.0625
1480628842042292,-0.25,-0.125,0
1480628842063851,-0.1875,-0.125,0
1480628842084406,-0.125,-0.125,-0.0625
1480628842102452,-0.125,-0.25,-0.0625
1480628842129524,0.1875,-0.3125,-0.0625
1480628842147071,0.125,-0.3125,-0.1875
1480628842169630,-0.625,-0.1875,-0.125
1480628842185174,-0.9375,-0.0625,0
1480628842204224,-0.5,0,-0.0625
1480628842228287,-0.3125,-0.125,-0.125
1480628842244831,-0.1875,-0.375,-0.1875
1480628842264384,0.1875,-0.375,0
1480628842282431,-0.3125,-0.125,0.0625
1480628842304492,-0.625,-0.125,0.1875
1480628842324042,-0.875,-0.125,0
1480628842349610,0.1875,-0.1875,-0.1875
1480628842364649,0.75,-0.125,-0.0625
1480628842384201,-0.25,-0.125,0.1875
1480628842402249,-0.625,-0.125,0.125
1480628842425812,-0.1875,-0.1875,-0.125
1480628842448874,-0.1875,-0.1875,0
1480628842462409,-0.9375,-0.1875,-0.0625
1480628842484970,-0.9375,-0.0625,0
1480628842505524,-0.25,-0.125,0.0625
1480628842522068,0.125,-0.1875,0.1875
1480628842544126,0.1875,-0.1875,-0.0625
1480628842566186,-0.25,-0.375,0
1480628842588746,-0.625,-0.125,-0.0625
1480628842603786,-0.5625,-0.25,-0.1875
1480628842624842,-0.625,-0.1875,0
1480628842641385,-0.1875,-0.125,0.125
1480628842663946,-0.125,-0.125,0.125
1480628842685504,-0.1875,-0.125,-0.0625
1480628842701545,0.0625,-0.1875,0
1480628842724106,-0.3125,-0.125,0.125
1480628842753685,-0.25,-0.1875,0
1480628842775242,-0.1875,-0.0625,0.0625
1480628842785269,-0.0625,-0.125,-0.0625
1480628842807327,-0.375,-0.125,0
1480628842827381,-0.25,-0.125,0.0625
1480628842844426,-0.5,-0.1875,0
1480628842866487,-0.3125,-0.25,-0.1875
1480628842887542,-0.25,-0.1875,-0.1875
1480628842904085,-0.625,-0.125,-0.0625
1480628842926645,-0.5625,-0.1875,0
1480628842947202,-0.5,-0.25,-0.1875
1480628842963743,-0.125,-0.25,-0.1875
1480628842986317,0.1875,-0.3125,-0.1875
1480628843007359,-0.25,-0.25,0
1480628843031424,-0.5,0,0.1875
1480628843062506,-0.375,0,0.125
1480628843067520,-0.375,-0.25,-0.0625
1480628843084064,-0.0625,-0.4375,-0.1875
1480628843107125,0.125,-0.3125,-0.0625
1480628843120661,-0.4375,0.0625,0.1875
1480628843144725,-0.6875,0.1875,0.125
1480628843166282,-0.4375,-0.0625,-0.125
1480628843187339,0.125,-0.3125,-0.125
1480628843203883,0.8125,-0.375,-0.0625
1480628843226442,-0.1875,-0.125,0.3125
1480628843247500,-1,0,0.1875
1480628843264544,-0.75,0.0625,-0.125
1480628843286603,-0.375,-0.125,-0.1875
1480628843308661,-0.25,-0.0625,-0.125
1480628843324711,0.1875,-0.25,0
1480628843353782,0.1875,-0.25,0.25
1480628843367318,-0.0625,0,-0.125
1480628843383861,-0.4375,0,-0.0625
1480628843407425,-0.0625,0.0625,0.1875
1480628843427978,-0.0625,0,-0.1875
1480628843444021,-0.1875,0,-0.125
1480628843474100,-0.25,0,0.0625
1480628843487637,-0.1875,-0.1875,0
1480628843504683,-0.0625,-0.125,-0.1875
1480628843526239,0,-0.125,-0.25
1480628843554816,-0.4375,0.0625,0.0625
1480628843563840,-0.625,0.0625,-0.125
1480628843586400,0.1875,0,-0.0625
1480628843607455,0.375,-0.125,-0.1875
1480628843624000,-0.125,-0.125,-0.1875
1480628843646560,-0.1875,-0.125,0.125
1480628843667616,0.6875,0.125,0.0625
1480628843683658,0.125,0.0625,0
1480628843706218,-0.75,-0.1875,-0.1875
1480628843728779,-0.25,-0.1875,-0.125
1480628843743819,0.5625,-0.125,-0.125
1480628843766381,-0.1875,0.125,0.0625
1480628843788938,-0.3125,0.125,0.0625
1480628843809994,-0.0625,0.125,-0.1875
1480628843826540,0.1875,-0.0625,0.125
1480628843849099,0.5625,-0.125,-0.0625
1480628843863136,-0.1875,0,0.0625
1480628843886198,-0.3125,-0.125,-0.0625
1480628843908757,-0.125,0.0625,-0.0625
1480628843923300,-0.125,0.0625,-0.1875
1480628843946358,-0.5,0.0625,-0.125
1480628843968917,-0.25,-0.125,0
1480628843983457,0.3125,-0.0625,0.125
1480628844006517,0.5,-0.125,-0.125
1480628844029079,0.3125,-0.125,-0.1875
1480628844043115,-0.0625,-0.125,0.125
1480628844066682,-0.125,0,0
1480628844089237,0.25,-0.125,-0.0625
1480628844103276,0.375,-0.0625,0
1480628844127339,-0.125,-0.125,-0.125
1480628844156416,0.125,-0.0625,-0.0625
1480628844163435,-0.125,0,0
1480628844186496,-0.1875,-0.0625,-0.0625
1480628844209056,0.0625,-0.0625,-0.1875
1480628844229611,0,0,-0.1875
1480628844246657,-0.3125,-0.0625,-0.125
1480628844276235,0,-0.125,0
1480628844289772,0.625,0.0625,-0.125
1480628844306315,0.8125,0,0.0625
1480628844334891,-0.25,-0.0625,0.0625
1480628844349932,0,-0.125,-0.1875
1480628844366479,-0.0625,-0.0625,0
1480628844395050,0.125,0,-0.125
1480628844410090,-0.1875,0,0.0625
1480628844433155,0.25,-0.0625,0
1480628844449198,0.5625,-0.0625,0.125
1480628844470252,0.5,0,0
1480628844486297,0.3125,0.125,0
1480628844508854,-0.125,-0.0625,0
1480628844531414,-0.25,-0.125,-0.0625
1480628844553975,-0.25,-0.125,-0.125
1480628844569014,-0.25,0.0625,0.0625
1480628844590070,-0.1875,0.0625,-0.125
1480628844612629,-0.3125,-0.125,-0.0625
1480628844643213,0.0625,-0.125,0.125
1480628844657249,0,-0.0625,-0.0625
1480628844666776,0.125,0,-0.0625
1480628844689835,-0.3125,-0.0625,0.1875
1480628844718913,-0.125,0,-0.1875
1480628844726432,0.25,0,-0.125
1480628844748993,0.125,-0.125,0.125
1480628844771552,-0.3125,0.0625,0.0625
1480628844787095,-0.0625,-0.0625,0
1480628844809653,-0.0625,-0.0625,-0.125
1480628844831213,-0.125,-0.125,-0.125
1480628844845750,0,-0.0625,0
1480628844876332,-0.1875,-0.125,0.125
1480628844891372,-0.1875,-0.0625,0
1480628844905910,-0.375,-0.125,-0.25
1480628844929974,-0.125,-0.125,-0.1875
1480628844951533,0.375,-0.125,-0.0625
1480628844965569,-0.25,0,0.25
1480628844989633,-0.25,-0.0625,0
1480628845012199,0.1875,-0.125,0
1480628845025729,-0.0625,-0.125,-0.3125
1480628845048791,-0.75,0,-0.0625
1480628845071350,-0.125,-0.0625,0.25
1480628845085898,0.625,-0.0625,0.3125
1480628845109451,0.8125,-0.0625,-0.1875
1480628845139030,0.1875,-0.0625,0.0625
1480628845145548,-0.1875,-0.125,-0.0625
1480628845169110,-0.1875,-0.125,-0.125
1480628845191672,0.25,0,-0.125
1480628845212727,-0.375,0.125,0.0625
1480628845228771,-0.8125,-0.125,-0.0625
1480628845251330,0.0625,-0.125,-0.1875
1480628845273890,0.125,-0.125,0.125
1480628845288929,-0.125,-0.125,0
1480628845311488,-0.1875,-0.0625,0.0625
1480628845334049,0.0625,-0.0625,-0.125
1480628845349090,-0.5,-0.125,-0.0625
1480628845371148,-0.3125,-0.125,-0.125
1480628845392203,0.125,-0.125,0
1480628845408748,-0.375,-0.0625,-0.0625
1480628845431309,-0.5625,-0.1875,-0.1875
1480628845452364,-0.1875,-0.0625,-0.125
1480628845469409,0.125,-0.125,-0.125
1480628845497484,-0.4375,-0.125,-0.125
1480628845512524,-0.4375,-0.125,-0.0625
1480628845529070,0.4375,-0.125,-0.125
1480628845551630,-0.0625,-0.1875,-0.0625
1480628845572183,-0.75,-0.25,-0.0625
1480628845589730,0.375,-0.125,-0.125
1480628845612290,0.3125,-0.0625,0.125
1480628845639862,-0.625,-0.1875,0
1480628845648388,-0.875,-0.1875,0
1480628845671451,0.125,-0.125,-0.1875
1480628845694007,0.3125,0.0625,0
1480628845709047,0.1875,0,0.125
1480628845732108,-0.3125,-0.125,0.375
1480628845754172,0,-0.25,-0.1875
1480628845768204,0.25,-0.4375,-0.1875
1480628845791266,-0.625,-0.25,0.125
1480628845813825,-1.625,-0.25,0.125
1480628845828367,-0.875,-0.1875,-0.125
1480628845850925,-0.5,-0.0625,-0.0625
1480628845873985,-1,-0.1875,-0.0625
1480628845888524,-1.25,-0.1875,0.125
1480628845919106,-0.3125,-0.1875,0.25
1480628845933646,0.0625,-0.1875,0
1480628845948184,-0.4375,-0.4375,-0.1875
1480628845971244,-0.25,-0.375,-0.0625
1480628845994808,0.0625,-0.125,0.125
1480628846008342,-0.0625,-0.125,0.0625
1480628846031405,-0.3125,-0.1875,0.125
1480628846053965,-0.375,-0.125,-0.1875
1480628846075020,-0.25,-0.125,-0.1875
1480628846091564,-0.4375,-0.25,-0.0625
1480628846114626,-0.1875,-0.125,0
1480628846136183,-0.4375,-0.0625,0.1875
1480628846151224,-0.5,-0.1875,-0.0625
1480628846173783,-0.375,-0.3125,-0.1875
1480628846194840,-0.3125,-0.3125,-0.1875
1480628846217399,-0.5625,-0.375,0
1480628846233943,-0.4375,-0.1875,0.125
1480628846255000,-0.25,-0.125,0
1480628846271543,0,-0.125,-0.0625
1480628846294103,-0.6875,-0.125,-0.0625
1480628846315164,-1.0625,-0.125,0.1875
1480628846331704,-0.6875,-0.125,-0.0625
1480628846353766,0.25,-0.0625,-0.125
1480628846374817,0.0625,-0.125,0.125
1480628846391363,-0.625,-0.125,0.25
1480628846413923,0.125,-0.125,0.0625
1480628846434978,0.4375,-0.25,-0.0625
1480628846451523,-0.75,-0.1875,-0.1875
1480628846474085,-1.375,-0.125,0.0625
1480628846495139,-0.875,0,0
1480628846511180,-0.1875,-0.125,-0.3125
1480628846533741,-0.125,-0.125,-0.0625
1480628846554797,-0.25,-0.25,0.375
1480628846571342,-0.25,-0.0625,0.0625
1480628846593901,-0.3125,-0.0625,-0.375
1480628846616461,-0.625,-0.0625,-0.1875
1480628846631501,-0.5,-0.0625,-0.0625
1480628846654061,0.125,0.0625,0.125
1480628846682137,0.25,0.1875,0.0625
1480628846692664,-0.5625,0.3125,-0.4375
1480628846721741,-1.6875,0,-0.75
1480628846736280,-0.6875,-0.125,-0.125
1480628846750819,0.875,-0.125,0.1875
1480628846773880,0.9375,-0.125,0
1480628846797945,0.25,-0.0625,-0.1875
1480628846811479,-0.625,-0.125,-0.25
1480628846834039,-0.125,-0.0625,-0.25
1480628846856600,0.375,0.0625,0
1480628846870637,0.375,0,0.0625
1480628846893699,0,-0.1875,-0.0625
1480628846916261,0.25,-0.3125,-0.1875
1480628846945838,0.375,-0.125,-0.125
1480628846953859,0.125,0.1875,0
1480628846977421,-0.125,0.3125,0.0625
1480628846997476,0.125,0,0
1480628847014020,0.625,-0.0625,-0.0625
1480628847044099,0.625,-0.125,-0.125
1480628847057635,-0.0625,0,0.0625
1480628847073677,-0.5625,-0.0625,0
1480628847096237,-0.375,0.1875,-0.1875
1480628847117294,-0.25,0.1875,-0.125
1480628847133837,-0.5625,0.0625,-0.1875
1480628847163918,-0.25,-0.125,-0.0625
1480628847177454,0.1875,-0.0625,0.25
1480628847193998,-0.0625,-0.125,-0.0625
1480628847216560,0,-0.0625,-0.1875
1480628847254660,0.3125,0.125,0.0625
1480628847256664,-0.0625,0.125,-0.0625
1480628847276215,-0.125,0.0625,-0.1875
1480628847297272,0.0625,0.0625,0.0625
1480628847313816,-0.1875,-0.0625,-0.25
1480628847336878,-0.1875,-0.0625,0.1875
1480628847357432,0.125,-0.1875,-0.125
1480628847373976,0,0,0
1480628847396536,-0.0625,0.0625,0
1480628847417593,-0.25,0,-0.125
1480628847441656,-0.1875,-0.125,-0.125
1480628847462713,-0.125,-0.1875,-0.25
1480628847485274,0.25,-0.125,0
1480628847495299,0.5625,0.0625,0
1480628847522370,0.25,-0.0625,0.0625
1480628847539416,0,-0.125,-0.0625
1480628847553955,-0.25,-0.125,0
1480628847576515,0.0625,-0.0625,-0.125
1480628847599576,0,-0.125,0.0625
1480628847614115,1,-0.125,0.25
1480628847636174,0.5625,0,0.25
1480628847658734,0.1875,-0.125,0
1480628847673272,0.1875,0,-0.125
1480628847696335,-0.125,-0.1875,0.125
1480628847718896,0.625,-0.1875,-0.1875
1480628847733433,-0.375,-0.0625,0.25
1480628847756493,-0.25,-0.1875,0
1480628847779053,-0.3125,-0.0625,-0.1875
1480628847793091,0.125,0.0625,-0.125
1480628847816654,-0.125,-0.0625,0.125
1480628847838712,-0.5625,-0.125,0.0625
1480628847859768,0.3125,-0.0625,-0.25
1480628847876313,0.4375,-0.0625,0
1480628847898873,-0.25,-0.125,-0.1875
1480628847913915,0.3125,-0.25,-0.25
1480628847944494,0.5,-0.25,-0.1875
1480628847966554,0.6875,0,-0.0625
1480628847973071,0.25,0.0625,-0.125
1480628847996633,-0.3125,0.0625,-0.3125
1480628848027214,0.8125,-0.4375,0
1480628848039747,-0.125,-0.3125,0.1875
1480628848056291,1.1875,-0.5,-0.25
1480628848078851,1.0625,-0.1875,0.125
1480628848099907,0.375,-0.1875,0.0625
1480628848116954,0.75,-0.0625,-0.4375
1480628848139012,0.1875,0.125,0.125
1480628848160067,0.1875,0.125,0
1480628848183630,0,-0.25,-0.0625
1480628848199675,0.8125,-0.25,0
1480628848220731,0.3125,0,0.25
1480628848236270,-0.625,0,-0.0625
1480628848258831,-0.25,0.0625,-0.0625
1480628848279886,0,0.0625,0.0625
1480628848297433,0.5,0.0625,0.4375
1480628848318992,0.125,0,0.1875
1480628848340046,-0.625,-0.125,0.1875
1480628848356591,-0.0625,-0.125,-0.4375
1480628848378649,-0.5625,-0.125,-0.0625
1480628848400206,-1,-0.0625,0.0625
1480628848417252,-1,0.0625,-0.0625
1480628848439310,-0.6875,-0.1875,0
1480628848467385,0.1875,-0.1875,-0.0625
1480628848475907,0,0,0.0625
1480628848498971,-0.3125,-0.0625,0.125
1480628848521530,-0.25,0.0625,0.0625
1480628848536569,0,-0.0625,-0.125
1480628848558628,-0.1875,-0.0625,-0.0625
1480628848581188,-0.375,-0.125,0
1480628848602243,-0.25,-0.125,-0.0625
1480628848618788,-0.125,-0.125,-0.125
1480628848642350,-0.5,-0.125,0
1480628848655886,-0.1875,-0.3125,-0.1875
1480628848679449,-0.0625,-0.1875,-0.1875
1480628848701508,-0.6875,-0.125,-0.1875
1480628848715548,-0.75,-0.25,-0.125
1480628848739108,-0.5625,-0.1875,-0.0625
1480628848762671,-0.1875,-0.3125,-0.125
1480628848775705,0.375,-0.0625,0
1480628848799769,-0.4375,-0.125,0
1480628848836366,-0.6875,-0.1875,0
1480628848838873,-0.4375,-0.3125,-0.0625
1480628848859428,-0.3125,-0.3125,-0.1875
1480628848880985,-0.1875,-0.3125,-0.0625
1480628848895524,-0.8125,-0.1875,0.25
1480628848919589,0.125,-0.125,0.125
1480628848941647,0.375,-0.0625,0.125
1480628848962201,-0.125,-0.1875,0
1480628848986266,-0.375,-0.3125,0.125
1480628849001305,-0.5,-0.1875,0.125
1480628849022366,-0.6875,-0.25,-0.0625
1480628849038905,-1,-0.1875,0
1480628849061466,-1.1875,-0.25,0.0625
1480628849082524,-0.625,-0.125,-0.125
1480628849099066,-0.3125,-0.1875,0.125
1480628849121626,-0.25,-0.375,0
1480628849142180,-0.6875,-0.5,0.125
1480628849158724,0.3125,-0.4375,-0.1875
1480628849181788,-0.3125,-0.1875,0.25
1480628849202341,-0.875,-0.125,0.0625
1480628849219386,-0.5625,-0.1875,0.0625
1480628849241444,0.3125,-0.25,0
1480628849262500,0.125,-0.3125,0.0625
1480628849279044,-0.5625,-0.4375,0
1480628849301604,-0.3125,-0.25,0.0625
1480628849322660,-0.0625,-0.3125,-0.0625
1480628849344719,0.0625,-0.25,0.1875
1480628849361263,-0.75,-0.3125,-0.0625
1480628849382322,-1.0625,-0.5,0
1480628849399868,-0.125,-0.5,-0.375
1480628849421423,0.0625,-0.25,0.25
1480628849443983,-0.5,-0.1875,0.25
1480628849459023,-0.625,-0.25,0.125
1480628849481584,-0.3125,-0.125,-0.1875
1480628849504143,-0.3125,-0.125,0
1480628849518684,-0.8125,-0.1875,0.125
1480628849541241,-0.8125,-0.125,-0.125
1480628849563802,0.375,-0.125,-0.125
1480628849578344,0.5625,-0.125,0.375
1480628849601403,-0.0625,-0.125,0.25
1480628849631484,-0.375,-0.1875,0.125
1480628849637999,-0.25,-0.1875,-0.1875
1480628849661562,-0.4375,-0.1875,-0.0625
1480628849691642,-0.8125,-0.125,0.125
1480628849698159,-0.5,0,0
1480628849745286,-0.5,-0.0625,-0.125
1480628849750299,-0.0625,-0.25,0
1480628849764837,-0.1875,-0.375,0.0625
1480628849781381,-0.25,-0.25,-0.0625
1480628849804441,-0.125,0,-0.1875
1480628849818481,-0.6875,0.0625,0.3125
1480628849842042,-0.6875,-0.0625,-0.125
1480628849871622,-0.1875,-0.1875,-0.125
1480628849885157,0,-0.25,0
1480628849901200,-0.1875,-0.1875,0.125
1480628849923761,-0.375,-0.125,-0.0625
1480628849960859,-0.25,0,-0.0625
1480628849967375,-0.3125,0,-0.125
1480628849983922,-0.1875,0,-0.0625
1480628850004477,0.4375,-0.0625,-0.125
1480628850021520,0.4375,-0.1875,-0.0625
1480628850044079,0.25,-0.125,0
1480628850067141,0.0625,0,-0.0625
1480628850081681,-0.25,-0.0625,0.0625
1480628850103739,-0.3125,-0.25,-0.1875
1480628850124794,0,-0.25,0
1480628850141342,0.0625,-0.125,0.125
1480628850163898,-0.1875,-0.125,-0.3125
1480628850184955,0.0625,-0.0625,-0.125
1480628850215051,0.3125,0,0.1875
1480628850224059,0.1875,0,0.25
1480628850246118,-0.25,0.0625,0
1480628850262160,-0.0625,-0.0625,-0.125
1480628850289733,0,-0.1875,-0.0625
1480628850304779,0.3125,0,-0.125
1480628850321317,-0.125,0.1875,0
1480628850344880,-0.5,0.1875,0
1480628850372455,-0.1875,0,-0.1875
1480628850381480,0.3125,-0.1875,0
1480628850404037,0.25,-0.1875,-0.125
1480628850433616,0.5,-0.125,0.0625
1480628850443142,0.25,0.0625,0.125
1480628850463696,-0.0625,-0.125,-0.1875
1480628850492273,0.0625,-0.125,-0.1875
1480628850500797,0.25,-0.1875,0.0625
1480628850523856,0.125,-0.0625,0
1480628850546416,-0.125,-0.0625,-0.125
1480628850560955,-0.1875,-0.0625,-0.1875
1480628850584016,-0.25,-0.0625,-0.125
1480628850607077,-0.125,0,-0.1875
1480628850620613,-0.0625,0,0.0625
1480628850643675,0.0625,-0.25,-0.125
1480628850666238,0.1875,-0.1875,-0.125
1480628850688795,0.5625,-0.0625,-0.0625
1480628850709851,0.4375,0.1875,0
1480628850726896,-0.375,0,0
1480628850740933,-0.3125,-0.125,-0.1875
1480628850773019,0.0625,-0.1875,-0.0625
1480628850792571,0,-0.125,-0.25
1480628850800593,0,0,-0.0625
1480628850823656,0.5625,0,0.25
1480628850846217,0.5,0.0625,-0.0625
1480628850867270,0.5625,0,0
1480628850883814,-0.25,0,0.125
1480628850906373,-0.3125,-0.0625,-0.1875
1480628850927931,0.0625,-0.0625,-0.1875
1480628850943973,-0.125,0.0625,0.125
1480628850966535,-0.5,0,0
1480628850987589,-0.1875,0.0625,0
1480628851004133,0.1875,0,0
1480628851026193,0.1875,-0.125,-0.0625
1480628851047249,-0.25,-0.1875,0.0625
1480628851065301,0.1875,0.0625,0
1480628851086360,0.3125,0.125,0.125
1480628851107408,-0.125,-0.125,-0.3125
1480628851123454,0.0625,-0.125,-0.125
1480628851146513,0.1875,0,0.125
1480628851167570,0.3125,0.0625,0
1480628851184113,0.125,-0.125,-0.25
1480628851207174,0.0625,-0.1875,-0.375
1480628851227728,0.0625,-0.1875,-0.125
1480628851245275,-0.1875,-0.125,0.125
1480628851273851,0.25,-0.0625,0.0625
1480628851287387,0.5625,-0.0625,-0.1875
1480628851304934,-0.25,-0.125,-0.125
1480628851326491,-0.1875,-0.125,-0.125
1480628851349054,0.625,0.0625,0.1875
1480628851377627,0.6875,0.1875,-0.0625
1480628851387153,-0.0625,0.125,0
1480628851408710,-0.4375,-0.125,-0.0625
1480628851437286,0,-0.0625,-0.1875
1480628851446312,0.0625,0.125,0
1480628851468870,0.1875,0.1875,0
1480628851483910,0.125,0,0.0625
1480628851506971,0.125,-0.0625,0.0625
1480628851529030,0.5625,0,-0.125
1480628851543068,0.4375,0,0.0625
1480628851566128,0.125,0,0
1480628851588689,-0.25,0.125,-0.125
1480628851604230,-0.4375,0.0625,-0.0625
1480628851632305,-0.4375,0,-0.0625
1480628851648853,-0.0625,0,-0.125
1480628851663388,0.5625,0,-0.0625
1480628851686449,0.8125,0.0625,0.125
1480628851709009,0.1875,0,0
1480628851723046,-0.0625,-0.0625,-0.1875
1480628851746609,0.125,0.0625,-0.125
1480628851774683,0.375,0.0625,-0.0625
1480628851790225,0.3125,-0.0625,0
1480628851806267,0.375,-0.125,-0.125
1480628851829329,0.3125,-0.125,-0.0625
1480628851849883,-0.25,0.0625,-0.0625
1480628851866431,-0.4375,0.125,-0.1875
1480628851888987,-0.125,0.0625,-0.1875
1480628851910043,0.375,0,-0.25
1480628851926588,-0.0625,-0.0625,0.1875
1480628851949651,-0.25,0,0
1480628851969703,0.25,-0.0625,-0.3125
1480628851986250,0.4375,0,-0.0625
1480628852009809,-0.3125,-0.0625,0.125
1480628852029863,-0.375,-0.0625,0
1480628852046408,0.625,-0.0625,0
1480628852068966,0.75,0.0625,-0.0625
1480628852090022,0.0625,-0.125,0
1480628852106566,-0.6875,-0.125,0
1480628852129127,-0.0625,0.0625,0.0625
1480628852158706,-0.375,0.1875,-0.125
1480628852166225,-0.4375,0,-0.0625
1480628852188787,0.3125,-0.3125,0.25
1480628852217363,1.5,0,0.0625
1480628852226385,0.375,0.1875,0.125
1480628852249446,-0.5625,-0.125,-0.125
1480628852272006,-0.0625,-0.1875,-0.25
1480628852287548,0.0625,0,-0.1875
1480628852309105,0.0625,-0.0625,0.0625
1480628852331667,-0.125,0,0
1480628852346205,0.4375,-0.125,-0.125
1480628852368764,0.8125,0.0625,-0.0625
1480628852414386,-0.0625,-0.125,0
1480628852416892,-0.5,-0.1875,-0.1875
1480628852434940,0.3125,-0.1875,-0.25
1480628852451986,0.8125,-0.0625,0.125
1480628852466023,-0.3125,-0.25,0.125
1480628852497106,-1.375,-0.3125,-0.125
1480628852511644,1.1875,-0.125,-0.25
1480628852533707,0.5,-0.0625,0.1875
1480628852548743,-1.0625,-0.1875,0.0625
1480628852572306,-0.5625,-0.125,-0.1875
1480628852592860,0.8125,-0.0625,0
1480628852608903,0.1875,-0.125,0.125
1480628852631467,-0.6875,-0.125,0.125
1480628852645501,-0.4375,-0.1875,-0.0625
1480628852669063,-0.25,-0.25,-0.25
1480628852691624,-0.5,-0.1875,0.125
1480628852712177,-0.625,-0.1875,0.0625
1480628852742758,-0.4375,-0.3125,0.125
1480628852752785,0.0625,-0.1875,-0.1875
1480628852772338,-0.4375,0,0.1875
1480628852796402,-1.125,-0.125,0.1875
1480628852812445,-0.1875,-0.125,-0.0625
1480628852840017,-0.25,-0.125,0.1875
1480628852856562,-0.1875,-0.1875,-0.125
1480628852871602,-0.4375,-0.0625,0
