timestamp,x,y,z,w
1480628787058979,0.150757,-0.290222,0.748962,-0.576294
1480628787073519,0.150757,-0.290222,0.748962,-0.576294
1480628787096580,0.150757,-0.290283,0.748962,-0.576294
1480628787119140,0.150757,-0.290283,0.748962,-0.576294
1480628787140697,0.150757,-0.290283,0.748901,-0.576294
1480628787156740,0.150757,-0.290283,0.748901,-0.576294
1480628787179300,0.150757,-0.290283,0.748901,-0.576294
1480628787193338,0.150696,-0.290283,0.748962,-0.576294
1480628787223919,0.150696,-0.290222,0.748962,-0.576294
1480628787238959,0.150696,-0.290222,0.748962,-0.576294
1480628787267535,0.150452,-0.2901,0.749023,-0.576355
1480628787277062,0.150452,-0.290039,0.749023,-0.576355
1480628787305134,0.150452,-0.2901,0.749023,-0.576355
1480628787320676,0.150452,-0.2901,0.749023,-0.576355
1480628787336720,0.150452,-0.2901,0.749023,-0.576355
1480628787359280,0.150391,-0.2901,0.749023,-0.576355
1480628787387855,0.150391,-0.2901,0.749023,-0.576355
1480628787396879,0.150391,-0.2901,0.749023,-0.576416
1480628787418937,0.15033,-0.290039,0.749023,-0.576416
1480628787439993,0.150391,-0.289978,0.749146,-0.576233
1480628787456539,0.150574,-0.289978,0.749207,-0.576111
1480628787479098,0.150757,-0.2901,0.749207,-0.57605
1480628787500154,0.150757,-0.2901,0.749207,-0.57605
1480628787517701,0.150757,-0.2901,0.749207,-0.57605
1480628787539258,0.150757,-0.290161,0.749207,-0.57605
1480628787560320,0.150757,-0.290161,0.749146,-0.57605
1480628787576859,0.150757,-0.290161,0.749146,-0.57605
1480628787598916,0.150696,-0.290161,0.749207,-0.57605
1480628787620975,0.150696,-0.2901,0.749207,-0.57605
1480628787636516,0.150696,-0.290039,0.749207,-0.57605
1480628787665092,0.150696,-0.290039,0.749207,-0.57605
1480628787680133,0.150635,-0.290039,0.749207,-0.576111
1480628787696676,0.150635,-0.289978,0.749207,-0.576111
1480628787725255,0.150635,-0.290039,0.749207,-0.576111
1480628787741796,0.150635,-0.290039,0.749207,-0.576111
1480628787758346,0.150696,-0.290039,0.749207,-0.57605
1480628787778895,0.150635,-0.290039,0.749207,-0.57605
1480628787801455,0.150635,-0.290039,0.749207,-0.576111
1480628787816495,0.150635,-0.290039,0.749207,-0.576111
1480628787839055,0.150635,-0.289978,0.749207,-0.576111
1480628787861616,0.150635,-0.289978,0.749207,-0.576111
1480628787876657,0.150574,-0.289917,0.749207,-0.576111
1480628787899717,0.150635,-0.289917,0.749268,-0.576111
1480628787921776,0.150513,-0.289734,0.749329,-0.576111
1480628787942832,0.150513,-0.289734,0.749329,-0.576111
1480628787959376,0.150513,-0.289795,0.749329,-0.576111
1480628787982437,0.150513,-0.289795,0.749329,-0.576111
1480628787995973,0.150513,-0.289795,0.749329,-0.576111
1480628788019034,0.150452,-0.289734,0.749329,-0.576111
1480628788047611,0.150452,-0.289734,0.749329,-0.576111
1480628788056132,0.150452,-0.289673,0.749329,-0.576111
1480628788086714,0.150452,-0.289673,0.74939,-0.576111
1480628788101754,0.150513,-0.289673,0.74939,-0.57605
1480628788115791,0.150818,-0.289795,0.749329,-0.575989
1480628788138853,0.151001,-0.290039,0.749268,-0.575928
1480628788161413,0.151001,-0.290039,0.749268,-0.575928
1480628788183471,0.151123,-0.290222,0.749329,-0.575745
1480628788199514,0.151184,-0.290405,0.74939,-0.575562
1480628788221574,0.151245,-0.290527,0.749512,-0.575317
1480628788242630,0.151428,-0.290771,0.749512,-0.575073
1480628788260177,0.151611,-0.291077,0.749573,-0.574829
1480628788281733,0.151794,-0.291565,0.749695,-0.574402
1480628788302288,0.152222,-0.29303,0.749756,-0.573364
1480628788319333,0.152832,-0.296143,0.749756,-0.571716
1480628788341894,0.153381,-0.301514,0.749084,-0.56958
1480628788362448,0.153931,-0.308899,0.747864,-0.567078
1480628788378992,0.153137,-0.317871,0.745789,-0.565063
1480628788402053,0.15155,-0.326416,0.744019,-0.562927
1480628788422607,0.149841,-0.335205,0.741455,-0.561646
1480628788438651,0.14801,-0.344116,0.738464,-0.560669
1480628788475749,0.145386,-0.351868,0.735596,-0.560303
1480628788489786,0.142334,-0.358154,0.733215,-0.560242
1480628788499815,0.139343,-0.363342,0.731262,-0.560242
1480628788522373,0.136047,-0.367859,0.729675,-0.560181
1480628788542427,0.133179,-0.372192,0.728333,-0.559692
1480628788558470,0.130859,-0.376221,0.727112,-0.559204
1480628788582032,0.128845,-0.380066,0.725647,-0.558899
1480628788602586,0.126709,-0.383606,0.724426,-0.558594
1480628788618629,0.125122,-0.386841,0.723389,-0.558044
1480628788641691,0.124451,-0.389832,0.722412,-0.557373
1480628788664753,0.123535,-0.391418,0.721863,-0.557129
1480628788678290,0.122681,-0.393066,0.721069,-0.557251
1480628788701850,0.120789,-0.393372,0.720459,-0.558167
1480628788726416,0.11731,-0.391968,0.721069,-0.559143
1480628788744965,0.113586,-0.390991,0.72168,-0.559875
1480628788776552,0.111572,-0.392517,0.721069,-0.559998
1480628788784069,0.112305,-0.397095,0.719482,-0.558594
1480628788805126,0.114136,-0.402344,0.718079,-0.556274
1480628788822672,0.115662,-0.407349,0.716797,-0.554016
1480628788844233,0.116211,-0.411072,0.716003,-0.552124
1480628788865788,0.116516,-0.414612,0.715393,-0.550232
1480628788889349,0.11676,-0.418335,0.714478,-0.548523
1480628788904389,0.117065,-0.422302,0.713257,-0.546997
1480628788925446,0.11615,-0.424316,0.712524,-0.546631
1480628788941488,0.11377,-0.424683,0.71283,-0.546448
1480628788972070,0.110901,-0.425232,0.713257,-0.546082
1480628788985104,0.108948,-0.427124,0.713074,-0.545227
1480628789001648,0.107422,-0.429626,0.712402,-0.544312
1480628789031729,0.105896,-0.432495,0.711548,-0.543579
1480628789045264,0.10437,-0.434937,0.710693,-0.54303
1480628789061808,0.103027,-0.437134,0.710083,-0.542236
1480628789083867,0.102051,-0.439514,0.709473,-0.541321
1480628789098405,0.101624,-0.442627,0.708313,-0.540466
1480628789121467,0.101868,-0.445984,0.706726,-0.539673
1480628789144030,0.102356,-0.44873,0.705322,-0.539185
1480628789166587,0.102295,-0.450012,0.704285,-0.53949
1480628789187644,0.101746,-0.450562,0.703552,-0.540039
1480628789203686,0.100891,-0.450623,0.703064,-0.540833
1480628789225243,0.100403,-0.450378,0.702881,-0.541321
1480628789249309,0.0996094,-0.450378,0.702332,-0.542175
1480628789263845,0.0994263,-0.450562,0.701233,-0.543457
1480628789285403,0.100037,-0.450623,0.699951,-0.544983
1480628789301450,0.100281,-0.449646,0.699158,-0.546753
1480628789324507,0.0991821,-0.447144,0.699158,-0.549011
1480628789346065,0.0977783,-0.443848,0.699463,-0.551514
1480628789361105,0.0967407,-0.440613,0.699646,-0.554016
1480628789390182,0.0961914,-0.437683,0.699646,-0.556519
1480628789405221,0.0960693,-0.435181,0.699219,-0.559021
1480628789420764,0.0969238,-0.432739,0.699097,-0.560852
1480628789445328,0.0961304,-0.430298,0.698975,-0.56311
1480628789465382,0.0968018,-0.427979,0.699097,-0.564575
1480628789482929,0.0979004,-0.426697,0.698792,-0.565735
1480628789503984,0.0987549,-0.425964,0.698364,-0.56665
1480628789527047,0.0993042,-0.425049,0.698303,-0.567322
1480628789542588,0.0999756,-0.424866,0.697998,-0.567749
1480628789564144,0.0999146,-0.425598,0.697021,-0.568359
1480628789586704,0.100098,-0.426636,0.696106,-0.568726
1480628789608263,0.10022,-0.426941,0.695679,-0.56897
1480628789624305,0.100159,-0.427368,0.69519,-0.569214
1480628789646864,0.100037,-0.42804,0.694397,-0.569763
1480628789661404,0.0992432,-0.428528,0.693848,-0.57019
1480628789683964,0.0976563,-0.429016,0.693481,-0.570557
1480628789723068,0.0959473,-0.429993,0.692932,-0.57074
1480628789727580,0.0939331,-0.431458,0.692322,-0.570679
1480628789744123,0.0913086,-0.43396,0.691406,-0.570313
1480628789767185,0.0891113,-0.437622,0.690369,-0.569214
1480628789789243,0.0876465,-0.442444,0.688965,-0.567383
1480628789805286,0.086792,-0.447815,0.687744,-0.564758
1480628789826847,0.0863647,-0.454163,0.68634,-0.561462
1480628789847900,0.0859985,-0.460754,0.68457,-0.558289
1480628789864945,0.0861206,-0.465881,0.68396,-0.554688
1480628789886502,0.0857544,-0.46814,0.685547,-0.550964
1480628789915078,0.0848389,-0.470032,0.6875,-0.546997
1480628789924103,0.0841064,-0.473267,0.688293,-0.543274
1480628789947165,0.0842896,-0.477966,0.687378,-0.540344
1480628789967719,0.0859985,-0.483643,0.685425,-0.537537
1480628789984262,0.0877686,-0.487854,0.684143,-0.535034
1480628790006823,0.0880127,-0.490295,0.683594,-0.533447
1480628790035398,0.086853,-0.490906,0.684082,-0.532471
1480628790043921,0.0854492,-0.490967,0.684875,-0.531555
1480628790066482,0.0848389,-0.492371,0.68457,-0.530823
1480628790088039,0.0845947,-0.49469,0.683655,-0.529907
1480628790111602,0.0844116,-0.496765,0.682861,-0.528992
1480628790126643,0.0840454,-0.499207,0.681885,-0.528015
1480628790147697,0.0840454,-0.501831,0.680969,-0.526672
1480628790164241,0.0836182,-0.503235,0.680908,-0.525513
1480628790194321,0.0837402,-0.504395,0.680786,-0.524475
1480628790207857,0.0843506,-0.505615,0.68042,-0.523682
1480628790223900,0.0849609,-0.506042,0.680603,-0.522949
1480628790247464,0.0849609,-0.505615,0.681213,-0.522583
1480628790275035,0.0848389,-0.504822,0.682068,-0.522278
1480628790284060,0.0839844,-0.503906,0.682983,-0.522095
1480628790306620,0.083313,-0.504028,0.682861,-0.522217
1480628790327676,0.0834961,-0.504822,0.682373,-0.522034
1480628790344220,0.0831299,-0.505066,0.682068,-0.522339
1480628790366780,0.0820313,-0.504456,0.682129,-0.522888
1480628790387838,0.0805664,-0.503174,0.683044,-0.523193
1480628790404380,0.0790405,-0.50238,0.683777,-0.523315
1480628790426440,0.078064,-0.502625,0.683594,-0.523438
1480628790448998,0.0775757,-0.503296,0.683167,-0.523376
1480628790471558,0.0770264,-0.503723,0.682983,-0.523315
1480628790487099,0.0758667,-0.503479,0.683289,-0.523376
1480628790507654,0.0745239,-0.503052,0.683899,-0.523132
1480628790530215,0.0735474,-0.503479,0.684082,-0.522583
1480628790547260,0.072998,-0.504944,0.683533,-0.522034
1480628790575335,0.0727539,-0.506653,0.682739,-0.521484
1480628790584359,0.0722656,-0.507935,0.682312,-0.520813
1480628790607922,0.0715332,-0.508728,0.682251,-0.520203
1480628790628977,0.0709229,-0.509705,0.682007,-0.519653
1480628790643516,0.0709839,-0.511292,0.681274,-0.519104
1480628790666584,0.0714722,-0.512878,0.680237,-0.518799
1480628790689137,0.0721436,-0.513611,0.67981,-0.518555
1480628790703676,0.0726929,-0.51355,0.679871,-0.518433
1480628790726742,0.0731201,-0.512695,0.68042,-0.518555
1480628790749298,0.0739746,-0.511841,0.681091,-0.518372
1480628790770353,0.0757446,-0.512268,0.680542,-0.518433
1480628790786397,0.0776978,-0.51355,0.679016,-0.51886
1480628790808957,0.0789795,-0.513611,0.678589,-0.519104
1480628790831517,0.0790405,-0.512634,0.679077,-0.519409
1480628790846557,0.0790405,-0.511841,0.679443,-0.519775
1480628790875133,0.0794678,-0.511719,0.679077,-0.520264
1480628790883654,0.0800171,-0.512146,0.678406,-0.52063
1480628790912732,0.0804443,-0.512146,0.678345,-0.52063
1480628790929276,0.0803833,-0.51178,0.678528,-0.520813
1480628790943317,0.0803223,-0.511353,0.678589,-0.521179
1480628790966375,0.0802612,-0.510925,0.678406,-0.52179
1480628790988935,0.0805054,-0.509827,0.678772,-0.522339
1480628791009993,0.0804443,-0.507629,0.67981,-0.523132
1480628791026537,0.0803833,-0.505127,0.68103,-0.524048
1480628791056615,0.0808105,-0.503357,0.681641,-0.524841
1480628791077672,0.0822144,-0.502197,0.68158,-0.525879
1480628791086695,0.0835571,-0.500122,0.682373,-0.526611
1480628791109765,0.0840454,-0.497192,0.683838,-0.527405
1480628791130311,0.0843506,-0.494507,0.685181,-0.528076
1480628791146856,0.0853882,-0.493042,0.68573,-0.528625
1480628791168913,0.0875244,-0.491882,0.686096,-0.528809
1480628791191474,0.0886841,-0.490234,0.687195,-0.528809
1480628791206515,0.088623,-0.489258,0.687683,-0.529053
1480628791229074,0.0887451,-0.488647,0.687805,-0.529419
1480628791251134,0.0896606,-0.488464,0.687622,-0.529724
1480628791267176,0.0900879,-0.487671,0.687805,-0.530151
1480628791289234,0.0900879,-0.486267,0.688538,-0.530457
1480628791310293,0.0904541,-0.485168,0.68927,-0.530457
1480628791326836,0.0914307,-0.484375,0.689758,-0.530396
1480628791356412,0.0928345,-0.484009,0.690002,-0.53009
1480628791369948,0.093689,-0.483337,0.690613,-0.529785
1480628791387495,0.0941772,-0.482544,0.691284,-0.529541
1480628791409061,0.0949707,-0.482178,0.691589,-0.529358
1480628791430610,0.0959473,-0.48175,0.691711,-0.529419
1480628791448157,0.0962524,-0.480713,0.692261,-0.529602
1480628791470215,0.0961914,-0.479614,0.692993,-0.529602
1480628791491774,0.0961914,-0.479248,0.693298,-0.529541
1480628791506812,0.0969849,-0.479675,0.692932,-0.529541
1480628791528873,0.0980835,-0.479736,0.692627,-0.529602
1480628791551432,0.0985718,-0.478882,0.692871,-0.530029
1480628791566471,0.0985107,-0.4776,0.693298,-0.53064
1480628791589031,0.0986938,-0.476013,0.693909,-0.531189
1480628791611591,0.0993652,-0.474609,0.694519,-0.531555
1480628791626134,0.0996094,-0.473206,0.69519,-0.531921
1480628791664231,0.0997314,-0.472168,0.695862,-0.531921
1480628791671751,0.100098,-0.472046,0.695984,-0.531738
1480628791686291,0.100403,-0.472229,0.696289,-0.531189
1480628791709352,0.100464,-0.471802,0.697144,-0.530396
1480628791731411,0.100037,-0.47113,0.698425,-0.529358
1480628791752466,0.0993652,-0.471252,0.699219,-0.52832
1480628791776533,0.0990601,-0.472107,0.699829,-0.526855
1480628791791572,0.098877,-0.472412,0.701111,-0.524902
1480628791806112,0.0985718,-0.473267,0.701965,-0.52301
1480628791829170,0.0988159,-0.475525,0.701843,-0.521057
1480628791859753,0.100037,-0.478882,0.700806,-0.519165
1480628791872786,0.101685,-0.481628,0.700134,-0.517212
1480628791888829,0.10199,-0.482544,0.700439,-0.51593
1480628791917406,0.101501,-0.483032,0.700928,-0.514954
1480628791939965,0.10144,-0.484314,0.700745,-0.513977
1480628791948989,0.101807,-0.486145,0.69989,-0.513306
1480628791971549,0.102234,-0.48822,0.698792,-0.512695
1480628791992605,0.102539,-0.489868,0.698059,-0.512085
1480628792009653,0.102173,-0.491028,0.697754,-0.511475
1480628792031717,0.101685,-0.491943,0.69751,-0.510986
1480628792052765,0.101379,-0.492981,0.697144,-0.510559
1480628792068810,0.101563,-0.49408,0.696777,-0.509949
1480628792091871,0.101868,-0.495056,0.696594,-0.509216
1480628792112423,0.101807,-0.495483,0.696716,-0.508667
1480628792136487,0.101624,-0.495789,0.69696,-0.508118
1480628792151528,0.101501,-0.496338,0.69696,-0.507568
1480628792173088,0.10144,-0.496948,0.696899,-0.507019
1480628792189128,0.101196,-0.497437,0.696899,-0.506592
1480628792219208,0.10083,-0.497986,0.696899,-0.506104
1480628792232744,0.100525,-0.499023,0.696655,-0.505554
1480628792249789,0.100464,-0.500122,0.69635,-0.504883
1480628792271848,0.100342,-0.501282,0.696045,-0.50415
1480628792292909,0.100342,-0.50238,0.69574,-0.503418
1480628792309452,0.10022,-0.503174,0.695679,-0.502747
1480628792332008,0.0999756,-0.503906,0.695618,-0.502258
1480628792352564,0.100098,-0.504578,0.695496,-0.501709
1480628792369107,0.100281,-0.505188,0.695374,-0.501221
1480628792391668,0.100037,-0.505554,0.695496,-0.500732
1480628792414728,0.0997925,-0.505859,0.695557,-0.500366
1480628792429267,0.0999756,-0.506531,0.695313,-0.499939
1480628792451826,0.100525,-0.50708,0.695068,-0.499695
1480628792473885,0.100525,-0.507141,0.695068,-0.499634
1480628792497448,0.100281,-0.50708,0.69519,-0.499573
1480628792517505,0.100586,-0.507202,0.69519,-0.499329
1480628792534045,0.100769,-0.507324,0.695129,-0.499268
1480628792549085,0.100769,-0.507324,0.69519,-0.499268
1480628792571646,0.10083,-0.507263,0.69519,-0.499268
1480628792594206,0.100769,-0.507263,0.69519,-0.499268
1480628792615264,0.100769,-0.507019,0.695251,-0.499451
1480628792637822,0.100952,-0.506958,0.69519,-0.499573
1480628792653865,0.101013,-0.506531,0.695251,-0.499817
1480628792668404,0.101013,-0.506042,0.695435,-0.500061
1480628792691465,0.100952,-0.505737,0.695557,-0.500244
1480628792721544,0.100952,-0.505676,0.695435,-0.500549
1480628792728563,0.101196,-0.505554,0.695251,-0.500793
1480628792752126,0.101501,-0.50531,0.695129,-0.501099
1480628792780200,0.101746,-0.504944,0.69519,-0.501465
1480628792788222,0.102295,-0.504089,0.695496,-0.501648
1480628792811784,0.10321,-0.503052,0.696106,-0.501709
1480628792834345,0.104187,-0.501831,0.696838,-0.501709
1480628792848382,0.105225,-0.500549,0.697571,-0.50177
1480628792871443,0.10675,-0.499756,0.697937,-0.501709
1480628792894006,0.109192,-0.499939,0.697693,-0.501404
1480628792909049,0.111938,-0.50061,0.696899,-0.50116
1480628792932104,0.11438,-0.501282,0.695984,-0.501221
1480628792954163,0.116516,-0.501404,0.695435,-0.501343
1480628792975219,0.117798,-0.500793,0.695435,-0.50177
1480628792999283,0.118347,-0.499512,0.69574,-0.502502
1480628793013822,0.119385,-0.498291,0.695801,-0.503296
1480628793035379,0.120605,-0.49707,0.695862,-0.50415
1480628793051423,0.121277,-0.495422,0.696228,-0.505127
1480628793073982,0.121521,-0.492859,0.697083,-0.506409
1480628793102559,0.121887,-0.490173,0.697876,-0.507813
1480628793111582,0.122375,-0.48761,0.698425,-0.509399
1480628793134142,0.122314,-0.484314,0.699463,-0.511108
1480628793155200,0.121704,-0.480652,0.700806,-0.512878
1480628793170739,0.121277,-0.476929,0.702148,-0.514587
1480628793194302,0.120972,-0.473145,0.703674,-0.516113
1480628793215358,0.120422,-0.46936,0.7052,-0.517578
1480628793230899,0.11969,-0.466125,0.706543,-0.518799
1480628793253961,0.119446,-0.464172,0.707642,-0.519226
1480628793259477,0.11908,-0.463562,0.70813,-0.519165
1480628793283539,0.119385,-0.464478,0.707825,-0.518738
1480628793298579,0.1203,-0.466248,0.706848,-0.518188
1480628793327157,0.121277,-0.46759,0.706299,-0.517517
1480628793342196,0.121582,-0.46814,0.70636,-0.516907
1480628793359743,0.121765,-0.467957,0.706787,-0.516418
1480628793379294,0.122681,-0.467773,0.707153,-0.515808
1480628793410878,0.124023,-0.467834,0.707092,-0.515503
1480628793416895,0.125366,-0.467773,0.706909,-0.515503
1480628793439454,0.126038,-0.467346,0.70697,-0.515625
1480628793470537,0.12616,-0.466614,0.707336,-0.515808
1480628793477055,0.126099,-0.466064,0.707642,-0.51593
1480628793499614,0.126221,-0.465759,0.707642,-0.516113
1480628793524682,0.126587,-0.46582,0.707336,-0.516418
1480628793537214,0.127136,-0.465576,0.707092,-0.516785
1480628793559776,0.127441,-0.464783,0.707275,-0.517212
1480628793581833,0.127441,-0.463501,0.707764,-0.5177
1480628793607903,0.12738,-0.462219,0.708252,-0.518188
1480628793619433,0.127625,-0.461182,0.708679,-0.518494
1480628793645001,0.128113,-0.460632,0.70874,-0.518799
1480628793658538,0.12854,-0.460205,0.70874,-0.518982
1480628793687113,0.128601,-0.459534,0.708984,-0.519287
1480628793702153,0.12854,-0.458923,0.709167,-0.519531
1480628793718195,0.128906,-0.458679,0.709167,-0.519714
1480628793746772,0.129395,-0.458252,0.709167,-0.519897
1480628793761812,0.129639,-0.457581,0.709473,-0.520081
1480628793778356,0.129456,-0.456665,0.7099,-0.520325
1480628793800917,0.12915,-0.456177,0.710144,-0.520508
1480628793823476,0.129395,-0.456055,0.710144,-0.520508
1480628793838517,0.129639,-0.456055,0.710144,-0.520508
1480628793859572,0.129822,-0.456055,0.710144,-0.520508
1480628793884639,0.130005,-0.455811,0.710205,-0.520569
1480628793898174,0.130249,-0.4552,0.710449,-0.52063
1480628793919230,0.130371,-0.45459,0.710754,-0.520813
1480628793942297,0.130005,-0.453735,0.711121,-0.521118
1480628793966357,0.129822,-0.453125,0.711304,-0.521362
1480628793979392,0.129761,-0.452759,0.711548,-0.521423
1480628794001951,0.129028,-0.452393,0.711914,-0.521423
1480628794026017,0.127869,-0.452209,0.712341,-0.52124
1480628794047071,0.126221,-0.452393,0.712952,-0.520691
1480628794062111,0.124023,-0.453552,0.713379,-0.519653
1480628794079657,0.121887,-0.455444,0.713745,-0.518005
1480628794099711,0.120178,-0.457886,0.71405,-0.515747
1480628794121769,0.118958,-0.461121,0.713989,-0.513306
1480628794144330,0.118286,-0.465454,0.713196,-0.51062
1480628794162879,0.118286,-0.469849,0.712158,-0.508057
1480628794181930,0.11908,-0.473633,0.711243,-0.505676
1480628794204489,0.119812,-0.476624,0.710571,-0.50354
1480628794221033,0.119934,-0.478394,0.710571,-0.501831
1480628794245098,0.119385,-0.479126,0.710999,-0.500732
1480628794274175,0.119141,-0.479675,0.711121,-0.5
1480628794281194,0.118896,-0.480103,0.710999,-0.499878
1480628794304756,0.118835,-0.480286,0.710693,-0.500122
1480628794327317,0.118591,-0.480225,0.710449,-0.50061
1480628794339348,0.118225,-0.479919,0.710266,-0.501221
1480628794361908,0.117737,-0.479492,0.710327,-0.501709
1480628794385471,0.117126,-0.479004,0.710571,-0.501892
1480628794399508,0.116272,-0.478699,0.710693,-0.502258
1480628794422068,0.115784,-0.479187,0.710388,-0.50238
1480628794444629,0.115417,-0.47998,0.709778,-0.502563
1480628794462175,0.115051,-0.480591,0.709351,-0.502625
1480628794482229,0.114685,-0.480896,0.709106,-0.502808
1480628794504287,0.114319,-0.480774,0.709045,-0.503052
1480628794522335,0.114258,-0.480286,0.70929,-0.503174
1480628794541887,0.114258,-0.479675,0.709595,-0.503357
1480628794564447,0.114197,-0.479126,0.709839,-0.50354
1480628794579487,0.114258,-0.478821,0.7099,-0.503723
1480628794612575,0.114258,-0.478821,0.7099,-0.503723
1480628794632628,0.114319,-0.478821,0.7099,-0.503662
1480628794642660,0.114258,-0.478882,0.7099,-0.503723
1480628794662207,0.114502,-0.479004,0.709656,-0.503845
1480628794684767,0.114807,-0.479004,0.709473,-0.504028
1480628794699306,0.115173,-0.47876,0.709351,-0.504333
1480628794721865,0.115356,-0.478394,0.709351,-0.504578
1480628794744427,0.115906,-0.478333,0.709167,-0.504822
1480628794759468,0.116943,-0.479248,0.708313,-0.504883
1480628794782026,0.11792,-0.480591,0.707153,-0.505005
1480628794804586,0.118835,-0.482056,0.705933,-0.505188
1480628794827146,0.119324,-0.482788,0.705139,-0.505493
1480628794842188,0.119629,-0.483154,0.70459,-0.505798
1480628794864246,0.119812,-0.483337,0.704163,-0.506165
1480628794886805,0.1203,-0.483276,0.703796,-0.506531
1480628794901844,0.121155,-0.483459,0.703308,-0.506897
1480628794924405,0.122375,-0.483887,0.702637,-0.50708
1480628794940949,0.123413,-0.484253,0.702026,-0.507324
1480628794962006,0.124329,-0.484497,0.701599,-0.507507
1480628794992590,0.125427,-0.48468,0.701233,-0.507568
1480628795001109,0.126343,-0.484924,0.700745,-0.507813
1480628795022164,0.127319,-0.485229,0.699951,-0.508301
1480628795044726,0.128235,-0.484741,0.699585,-0.509094
1480628795060767,0.128723,-0.483582,0.699463,-0.510254
1480628795089343,0.128723,-0.481873,0.699585,-0.511658
1480628795108395,0.128723,-0.480042,0.699646,-0.513306
1480628795120928,0.128845,-0.47821,0.699646,-0.514954
1480628795141984,0.128845,-0.476257,0.699646,-0.516785
1480628795164544,0.128784,-0.474304,0.699768,-0.518494
1480628795187104,0.128845,-0.472656,0.699768,-0.519958
1480628795202146,0.128967,-0.471191,0.699768,-0.521179
1480628795224704,0.129211,-0.470032,0.699829,-0.522156
1480628795240746,0.129333,-0.468933,0.69989,-0.52301
1480628795269323,0.129395,-0.467834,0.700134,-0.523682
1480628795284362,0.129639,-0.466919,0.700439,-0.523987
1480628795302411,0.130188,-0.466309,0.700562,-0.524231
1480628795321962,0.131042,-0.465759,0.700562,-0.524536
1480628795352043,0.132019,-0.465088,0.700439,-0.525024
1480628795362571,0.132507,-0.463867,0.700623,-0.525757
1480628795385130,0.132507,-0.462158,0.701111,-0.52655
1480628795412203,0.132507,-0.460388,0.70166,-0.527405
1480628795422229,0.132324,-0.458618,0.702209,-0.528259
1480628795442285,0.132263,-0.457397,0.702454,-0.528992
1480628795464341,0.132813,-0.456909,0.702271,-0.529541
1480628795482389,0.133484,-0.456482,0.702148,-0.529907
1480628795501943,0.133423,-0.455566,0.702515,-0.530273
1480628795524501,0.133179,-0.454773,0.70282,-0.530518
1480628795550070,0.133179,-0.454346,0.703064,-0.530579
1480628795562103,0.13385,-0.454468,0.702942,-0.530518
1480628795584661,0.134644,-0.454407,0.702942,-0.530334
1480628795606720,0.134705,-0.453613,0.703491,-0.530273
1480628795629280,0.134827,-0.453064,0.704041,-0.529968
1480628795644320,0.135498,-0.453125,0.704102,-0.529663
1480628795662368,0.135986,-0.453186,0.704041,-0.529602
1480628795681920,0.13623,-0.453064,0.704041,-0.529602
1480628795707488,0.136108,-0.452637,0.704163,-0.529907
1480628795722528,0.13562,-0.451843,0.704468,-0.530273
1480628795742081,0.135254,-0.45105,0.704773,-0.530579
1480628795764641,0.135071,-0.450562,0.704834,-0.531006
1480628795782186,0.134705,-0.449829,0.705017,-0.531494
1480628795801739,0.134399,-0.448914,0.705444,-0.531738
1480628795828310,0.134216,-0.448303,0.705872,-0.531738
1480628795846859,0.134216,-0.448242,0.705933,-0.531799
1480628795863403,0.134277,-0.448669,0.70575,-0.531555
1480628795885963,0.133179,-0.448547,0.70636,-0.531128
1480628795910027,0.130859,-0.448059,0.707458,-0.530701
1480628795923562,0.129761,-0.448975,0.707703,-0.529846
1480628795944625,0.129822,-0.451111,0.707092,-0.528809
1480628795967180,0.129639,-0.453979,0.706238,-0.527649
1480628795983222,0.129272,-0.456726,0.705505,-0.526306
1480628796004277,0.128784,-0.458008,0.706116,-0.524475
1480628796035360,0.127991,-0.459351,0.706665,-0.522705
1480628796043382,0.127441,-0.461853,0.706116,-0.521423
1480628796071959,0.127686,-0.464844,0.705017,-0.520203
1480628796086997,0.127991,-0.466919,0.704468,-0.518982
1480628796105046,0.127502,-0.468018,0.704468,-0.518066
1480628796140642,0.126587,-0.468994,0.704529,-0.517395
1480628796147158,0.126282,-0.470337,0.703979,-0.516968
1480628796164705,0.126587,-0.471924,0.703125,-0.516602
1480628796187266,0.126587,-0.472778,0.702759,-0.516357
1480628796207318,0.125916,-0.472839,0.702881,-0.516235
1480628796223360,0.125366,-0.472961,0.703003,-0.516113
1480628796247424,0.125427,-0.473572,0.702759,-0.515869
1480628796266976,0.125732,-0.474487,0.702209,-0.515747
1480628796285025,0.125916,-0.474976,0.701904,-0.515625
1480628796304577,0.125916,-0.475037,0.701904,-0.515625
1480628796329643,0.126038,-0.474915,0.702026,-0.515503
1480628796344683,0.126099,-0.474548,0.702271,-0.515503
1480628796364235,0.126099,-0.474304,0.702515,-0.515381
1480628796386796,0.126099,-0.474304,0.702515,-0.515381
1480628796409355,0.126343,-0.474792,0.702209,-0.515259
1480628796424395,0.126526,-0.475098,0.702026,-0.515198
1480628796446955,0.126526,-0.475281,0.701904,-0.515198
1480628796466006,0.126526,-0.47522,0.701904,-0.515259
1480628796484556,0.126526,-0.47522,0.701904,-0.515259
1480628796507116,0.12677,-0.475342,0.701843,-0.515198
1480628796526170,0.127014,-0.475586,0.701721,-0.515076
1480628796544716,0.127319,-0.47583,0.701538,-0.515015
1480628796566775,0.127563,-0.476013,0.701355,-0.515015
1480628796584822,0.127808,-0.476013,0.701294,-0.515015
1480628796604374,0.127869,-0.475708,0.701416,-0.515137
1480628796626934,0.127869,-0.475708,0.701416,-0.515137
1480628796644983,0.128235,-0.47583,0.701294,-0.515076
1480628796664535,0.128662,-0.47583,0.701233,-0.515076
1480628796691105,0.129272,-0.476074,0.701111,-0.514893
1480628796709659,0.130127,-0.476196,0.700867,-0.514832
1480628796740737,0.130981,-0.476196,0.700684,-0.514893
1480628796754273,0.13147,-0.476013,0.700623,-0.515076
1480628796764802,0.131958,-0.476135,0.700378,-0.515137
1480628796784353,0.132874,-0.476685,0.69989,-0.515015
1480628796806913,0.133667,-0.477112,0.699524,-0.515015
1480628796824961,0.134216,-0.477295,0.699158,-0.515137
1480628796847521,0.134644,-0.477234,0.699036,-0.515259
1480628796867072,0.135132,-0.476868,0.699158,-0.51532
1480628796889633,0.135681,-0.476685,0.699036,-0.515503
1480628796907681,0.136353,-0.47644,0.698853,-0.515808
1480628796934251,0.137024,-0.476135,0.698853,-0.515869
1480628796944780,0.137573,-0.475769,0.698914,-0.516052
1480628796965835,0.138123,-0.475586,0.698792,-0.516113
1480628796986891,0.138794,-0.475769,0.698547,-0.516235
1480628797004940,0.139343,-0.47583,0.698181,-0.516418
1480628797025998,0.139526,-0.475525,0.69812,-0.516785
1480628797047052,0.139587,-0.475159,0.697998,-0.517273
1480628797065601,0.139832,-0.47467,0.697998,-0.517639
1480628797086155,0.140076,-0.474243,0.697876,-0.518127
1480628797107213,0.140442,-0.473694,0.697876,-0.518555
1480628797125272,0.14093,-0.473022,0.697876,-0.518982
1480628797147819,0.141296,-0.472229,0.698059,-0.519348
1480628797166870,0.141479,-0.471252,0.698425,-0.519714
1480628797186422,0.141663,-0.470581,0.698669,-0.519958
1480628797215003,0.141907,-0.470276,0.698792,-0.52002
1480628797227030,0.142212,-0.470398,0.698669,-0.519897
1480628797245580,0.142639,-0.470642,0.698547,-0.519775
1480628797275159,0.142883,-0.470764,0.698608,-0.519531
1480628797294711,0.143127,-0.470703,0.69873,-0.519348
1480628797309250,0.143494,-0.470703,0.698792,-0.519165
1480628797327298,0.14386,-0.470642,0.698914,-0.518982
1480628797346849,0.144165,-0.470703,0.698975,-0.518738
1480628797376929,0.144531,-0.470703,0.699036,-0.518616
1480628797387457,0.144836,-0.470703,0.699097,-0.518433
1480628797410017,0.144775,-0.470642,0.69928,-0.51825
1480628797431073,0.144836,-0.470642,0.699463,-0.518005
1480628797447618,0.144958,-0.470764,0.699585,-0.517639
1480628797467169,0.145203,-0.471069,0.699646,-0.517212
1480628797489730,0.145569,-0.471558,0.699585,-0.516846
1480628797511788,0.14563,-0.471558,0.699707,-0.516541
1480628797526828,0.145325,-0.471191,0.700195,-0.516357
1480628797550893,0.144958,-0.470764,0.700745,-0.516052
1480628797581473,0.145142,-0.470886,0.700867,-0.515747
1480628797586988,0.145569,-0.471313,0.700684,-0.515503
1480628797617069,0.145874,-0.471558,0.700623,-0.515259
1480628797632107,0.145874,-0.471619,0.700623,-0.515259
1480628797648652,0.145569,-0.471191,0.700928,-0.515259
1480628797676727,0.145203,-0.470703,0.701294,-0.515259
1480628797687258,0.144958,-0.470337,0.701599,-0.51532
1480628797706807,0.144958,-0.470337,0.701599,-0.51532
1480628797729367,0.145203,-0.470276,0.701538,-0.51532
1480628797747917,0.145203,-0.470276,0.701599,-0.51532
1480628797769976,0.145386,-0.470215,0.701599,-0.51532
1480628797790031,0.145752,-0.470276,0.701416,-0.515442
1480628797807574,0.146057,-0.470459,0.701172,-0.515503
1480628797828631,0.145813,-0.470032,0.701233,-0.515869
1480628797852695,0.145203,-0.469177,0.701782,-0.516052
1480628797867236,0.144592,-0.46875,0.702026,-0.516235
1480628797888290,0.144348,-0.468933,0.701843,-0.516418
1480628797909346,0.144348,-0.46936,0.701538,-0.516479
1480628797931906,0.144104,-0.469299,0.701599,-0.516479
1480628797948450,0.143616,-0.469055,0.701965,-0.516418
1480628797969506,0.143311,-0.468933,0.702209,-0.516174
1480628797987554,0.14325,-0.469116,0.702209,-0.516052
1480628798008611,0.143372,-0.469604,0.702087,-0.515747
1480628798029665,0.143494,-0.46991,0.702148,-0.515442
1480628798047714,0.14325,-0.46991,0.702454,-0.514954
1480628798068769,0.143005,-0.470276,0.702637,-0.514526
1480628798106371,0.143005,-0.471008,0.702515,-0.514038
1480628798108879,0.143127,-0.472046,0.702209,-0.513428
1480628798129933,0.143127,-0.472961,0.702026,-0.512817
1480628798149485,0.143127,-0.473572,0.702026,-0.512207
1480628798167533,0.143372,-0.474243,0.702026,-0.511597
1480628798190096,0.143738,-0.475037,0.701965,-0.510803
1480628798209646,0.144226,-0.475708,0.702026,-0.51001
1480628798227191,0.144531,-0.476318,0.702087,-0.509155
1480628798249752,0.144958,-0.477173,0.702026,-0.508362
1480628798269303,0.145508,-0.478149,0.701904,-0.507507
1480628798288354,0.146057,-0.479187,0.70166,-0.506775
1480628798309911,0.146667,-0.47998,0.701538,-0.505981
1480628798329463,0.147034,-0.48053,0.701477,-0.505371
1480628798353527,0.147461,-0.48114,0.701416,-0.504761
1480628798370071,0.14801,-0.481934,0.701233,-0.504089
1480628798389623,0.148499,-0.482544,0.70105,-0.503662
1480628798407671,0.148987,-0.482971,0.700989,-0.503174
1480628798429730,0.149536,-0.483154,0.70105,-0.502686
1480628798449783,0.149963,-0.483215,0.701172,-0.50238
1480628798471841,0.15033,-0.483276,0.701233,-0.502136
1480628798489891,0.150757,-0.483276,0.701233,-0.502014
1480628798509442,0.151489,-0.483643,0.700989,-0.50177
1480628798527490,0.1521,-0.483765,0.700806,-0.501709
1480628798557570,0.152283,-0.483582,0.70105,-0.501587
1480628798569603,0.152405,-0.483154,0.701294,-0.501526
1480628798587651,0.152954,-0.482849,0.701355,-0.501587
1480628798609709,0.153931,-0.482361,0.701294,-0.501831
1480628798629260,0.154907,-0.48114,0.70166,-0.502197
1480628798647310,0.155396,-0.479431,0.702515,-0.502502
1480628798669869,0.15509,-0.478149,0.703369,-0.502563
1480628798689422,0.15448,-0.478271,0.703552,-0.502441
1480628798707470,0.154419,-0.479431,0.703186,-0.501831
1480628798730029,0.154541,-0.481262,0.702454,-0.501099
1480628798751085,0.154358,-0.483093,0.701721,-0.500366
1480628798780666,0.154053,-0.484009,0.701599,-0.499756
1480628798789688,0.15387,-0.484436,0.701904,-0.499023
1480628798810744,0.153809,-0.484436,0.702332,-0.498352
1480628798833304,0.15387,-0.48407,0.703003,-0.497803
1480628798855863,0.153992,-0.483643,0.703491,-0.497498
1480628798871405,0.15448,-0.483398,0.703552,-0.497437
1480628798909006,0.154785,-0.483276,0.703491,-0.497559
1480628798911512,0.154968,-0.482971,0.703552,-0.497742
1480628798932568,0.155334,-0.482971,0.70343,-0.497742
1480628798959641,0.155518,-0.482727,0.703491,-0.497864
1480628798969667,0.155518,-0.482727,0.703552,-0.497864
1480628798990723,0.15564,-0.482483,0.703674,-0.497864
1480628799011779,0.155945,-0.482361,0.703674,-0.497864
1480628799030830,0.156494,-0.482239,0.703613,-0.497864
1480628799050883,0.157043,-0.481812,0.703613,-0.498108
1480628799074950,0.157959,-0.48114,0.703735,-0.498352
1480628799089987,0.158752,-0.480103,0.704102,-0.498535
1480628799112547,0.158813,-0.479004,0.704651,-0.498779
1480628799132099,0.158264,-0.478027,0.705444,-0.498779
1480628799154659,0.156677,-0.477356,0.706177,-0.498901
1480628799172205,0.155701,-0.477478,0.706604,-0.498535
1480628799192261,0.155151,-0.478638,0.706421,-0.497803
1480628799214319,0.154175,-0.479736,0.70636,-0.497131
1480628799239886,0.153503,-0.480957,0.706299,-0.496216
1480628799253422,0.153503,-0.482422,0.706238,-0.494873
1480628799269965,0.153015,-0.483582,0.706177,-0.494019
1480628799298543,0.152283,-0.484009,0.70636,-0.493591
1480628799319598,0.152527,-0.483704,0.706787,-0.493225
1480628799330126,0.152832,-0.483032,0.707153,-0.493225
1480628799352185,0.152466,-0.481812,0.707825,-0.49353
1480628799371736,0.151489,-0.47998,0.708923,-0.494019
1480628799389786,0.149292,-0.477295,0.710632,-0.494934
1480628799412344,0.14801,-0.475525,0.711914,-0.495117
1480628799431897,0.148315,-0.475098,0.712097,-0.495178
1480628799457465,0.148682,-0.474976,0.711975,-0.495422
1480628799472504,0.148438,-0.47406,0.712524,-0.495483
1480628799492058,0.147034,-0.472107,0.713989,-0.495667
1480628799518128,0.145325,-0.470154,0.715454,-0.495972
1480628799532163,0.144714,-0.469604,0.716003,-0.49585
1480628799551716,0.144958,-0.470276,0.715637,-0.495667
1480628799575779,0.145264,-0.471069,0.715027,-0.495667
1480628799599843,0.145325,-0.471313,0.715027,-0.495483
1480628799611875,0.144836,-0.470642,0.715576,-0.495422
1480628799630926,0.144287,-0.469604,0.71637,-0.495422
1480628799660003,0.143921,-0.468933,0.716797,-0.495544
1480628799672034,0.143799,-0.468567,0.717041,-0.495544
1480628799690083,0.143738,-0.468323,0.717285,-0.495483
1480628799712142,0.143738,-0.468262,0.717285,-0.495483
1480628799733198,0.143799,-0.468323,0.717407,-0.4953
1480628799750745,0.14386,-0.468445,0.717468,-0.495117
1480628799772301,0.143921,-0.468445,0.717529,-0.494934
1480628799794866,0.143982,-0.468323,0.717773,-0.494751
1480628799809902,0.143921,-0.468018,0.718079,-0.494629
1480628799832963,0.143677,-0.467529,0.718506,-0.494507
1480628799853519,0.143433,-0.467041,0.718994,-0.494263
1480628799878084,0.143494,-0.467041,0.719238,-0.493958
1480628799905155,0.143738,-0.467346,0.719177,-0.493652
1480628799913176,0.143982,-0.467529,0.719177,-0.493347
1480628799929720,0.143921,-0.467407,0.719482,-0.493103
1480628799952282,0.143616,-0.467041,0.719849,-0.493042
1480628799973338,0.143372,-0.466919,0.720093,-0.492859
1480628799989881,0.143372,-0.466919,0.720032,-0.492859
1480628800024980,0.143433,-0.467163,0.720032,-0.492615
1480628800033497,0.143433,-0.467285,0.720154,-0.492432
1480628800050041,0.143494,-0.467163,0.720276,-0.492249
1480628800073102,0.143494,-0.46698,0.72052,-0.492126
1480628800094660,0.143555,-0.466675,0.720825,-0.491943
1480628800110703,0.143555,-0.466614,0.720825,-0.491943
1480628800132260,0.143433,-0.466492,0.721069,-0.491821
1480628800155323,0.143188,-0.46637,0.721191,-0.49176
1480628800175376,0.143127,-0.466736,0.72113,-0.491577
1480628800192422,0.143188,-0.467041,0.721069,-0.491394
1480628800213977,0.142944,-0.467163,0.72113,-0.491272
1480628800235034,0.142883,-0.46759,0.720947,-0.491089
1480628800251579,0.143188,-0.46814,0.720703,-0.490845
1480628800274138,0.142883,-0.46814,0.720886,-0.490662
1480628800295194,0.142456,-0.468018,0.721008,-0.490723
1480628800311739,0.142517,-0.468445,0.720703,-0.490784
1480628800334297,0.142822,-0.468689,0.720398,-0.490906
1480628800355353,0.143005,-0.468689,0.720215,-0.491089
1480628800372398,0.142578,-0.46814,0.720398,-0.491455
1480628800393956,0.142212,-0.467712,0.720459,-0.491882
1480628800415012,0.14209,-0.467712,0.720215,-0.492249
1480628800432057,0.142334,-0.468262,0.719666,-0.492432
1480628800454120,0.142395,-0.468872,0.719055,-0.492859
1480628800475173,0.142456,-0.46936,0.718323,-0.493408
1480628800491717,0.142578,-0.469604,0.717712,-0.493958
1480628800513775,0.142639,-0.469421,0.717285,-0.494751
1480628800535332,0.142517,-0.468933,0.717102,-0.495605
1480628800551877,0.142334,-0.468201,0.71698,-0.49646
1480628800573935,0.142456,-0.467468,0.716797,-0.497314
1480628800602510,0.142639,-0.466919,0.716431,-0.498352
1480628800611535,0.142578,-0.466125,0.716064,-0.499634
1480628800634095,0.142029,-0.464783,0.715881,-0.501282
1480628800655151,0.141418,-0.463074,0.71582,-0.503235
1480628800671193,0.140991,-0.461243,0.715637,-0.505249
1480628800694759,0.140686,-0.458923,0.715454,-0.50769
1480628800716815,0.140381,-0.455505,0.715698,-0.510498
1480628800737369,0.139832,-0.451111,0.716553,-0.513367
1480628800753915,0.138672,-0.445862,0.717773,-0.516541
1480628800774973,0.137207,-0.440857,0.718872,-0.519653
1480628800791012,0.135742,-0.43689,0.719299,-0.522766
1480628800820089,0.134766,-0.434082,0.719116,-0.525635
1480628800851673,0.134216,-0.432129,0.718567,-0.528198
1480628800853679,0.133484,-0.429993,0.718445,-0.530212
1480628800874236,0.131714,-0.427429,0.718994,-0.531921
1480628800904315,0.130005,-0.425354,0.719604,-0.533325
1480628800911332,0.129089,-0.42395,0.719849,-0.534241
1480628800933893,0.128784,-0.423157,0.71991,-0.534851
1480628800954948,0.12854,-0.422729,0.719788,-0.535461
1480628800971492,0.128235,-0.421875,0.719849,-0.536072
1480628800994053,0.127869,-0.420715,0.720154,-0.536743
1480628801016613,0.127563,-0.419006,0.720398,-0.537781
1480628801031653,0.12793,-0.416992,0.72113,-0.538269
1480628801054212,0.127563,-0.414612,0.721863,-0.539185
1480628801076773,0.127502,-0.412292,0.722717,-0.539856
1480628801092314,0.127319,-0.410278,0.723145,-0.540894
1480628801114874,0.127197,-0.408386,0.723511,-0.541809
1480628801137433,0.12677,-0.406982,0.723694,-0.542725
1480628801150971,0.126648,-0.405884,0.723694,-0.543579
1480628801174031,0.126648,-0.404907,0.723694,-0.544312
1480628801196591,0.126709,-0.403809,0.723877,-0.544861
1480628801211633,0.126953,-0.402893,0.724243,-0.545044
1480628801234191,0.127075,-0.401855,0.724792,-0.545044
1480628801265274,0.127075,-0.40094,0.725342,-0.544922
1480628801272292,0.127136,-0.400574,0.725525,-0.544983
1480628801293850,0.127197,-0.400574,0.725403,-0.545105
1480628801316410,0.127319,-0.400757,0.725159,-0.545288
1480628801330948,0.127625,-0.401123,0.724792,-0.54541
1480628801354010,0.128113,-0.401123,0.724609,-0.545532
1480628801384091,0.128418,-0.400757,0.724609,-0.545776
1480628801391122,0.128418,-0.400085,0.724792,-0.545959
1480628801414171,0.128479,-0.399536,0.725037,-0.546082
1480628801436730,0.128784,-0.399414,0.724976,-0.546204
1480628801457787,0.129211,-0.399536,0.724731,-0.546387
1480628801473828,0.129761,-0.399719,0.724426,-0.546448
1480628801496388,0.130127,-0.39978,0.724243,-0.54657
1480628801517445,0.130188,-0.399597,0.724243,-0.546692
1480628801534490,0.130066,-0.399292,0.724304,-0.546875
1480628801559557,0.129944,-0.399109,0.724243,-0.547058
1480628801577622,0.130066,-0.399048,0.724182,-0.54718
1480628801600165,0.13031,-0.398865,0.724182,-0.547302
1480628801625234,0.130493,-0.398682,0.724182,-0.547363
1480628801638266,0.130676,-0.39856,0.724182,-0.547424
1480628801654308,0.130981,-0.398621,0.724182,-0.547302
1480628801676367,0.131348,-0.398743,0.724182,-0.547119
1480628801704943,0.131592,-0.398804,0.724182,-0.546936
1480628801713967,0.131592,-0.398865,0.724182,-0.546936
1480628801736527,0.131592,-0.398865,0.724182,-0.546997
1480628801757587,0.131775,-0.398804,0.724243,-0.546936
1480628801774628,0.132019,-0.398621,0.724304,-0.546875
1480628801798192,0.132568,-0.398438,0.724365,-0.546753
1480628801817745,0.133118,-0.39801,0.724487,-0.546753
1480628801834288,0.13324,-0.397339,0.724609,-0.547058
1480628801856347,0.13324,-0.396484,0.724854,-0.547363
1480628801901967,0.133179,-0.395508,0.725098,-0.547791
1480628801904474,0.133118,-0.394714,0.725281,-0.548157
1480628801916507,0.133179,-0.394165,0.725281,-0.548523
1480628801939567,0.133362,-0.393555,0.725403,-0.548706
1480628801961626,0.133484,-0.392883,0.725647,-0.548889
1480628801985691,0.133484,-0.392029,0.725952,-0.549133
1480628801999227,0.133484,-0.391235,0.726196,-0.549316
1480628802020283,0.133301,-0.390564,0.726318,-0.549683
1480628802043344,0.133301,-0.389954,0.726379,-0.550049
1480628802066405,0.133423,-0.389526,0.726318,-0.550415
1480628802073424,0.133545,-0.389038,0.726257,-0.550781
1480628802097487,0.133728,-0.38855,0.726318,-0.551025
1480628802119546,0.133789,-0.387878,0.72644,-0.55127
1480628802133584,0.133972,-0.387146,0.726624,-0.551514
1480628802158150,0.134399,-0.386353,0.726807,-0.551758
1480628802179205,0.13501,-0.385498,0.727051,-0.551941
1480628802193242,0.135742,-0.384338,0.727417,-0.552002
1480628802222824,0.136353,-0.382874,0.728027,-0.552063
1480628802238864,0.136719,-0.381104,0.728821,-0.552185
1480628802253403,0.136353,-0.378845,0.729797,-0.552551
1480628802276464,0.13501,-0.375854,0.730957,-0.553345
1480628802299024,0.133484,-0.373169,0.731873,-0.554321
1480628802321584,0.132568,-0.37146,0.732178,-0.555298
1480628802336624,0.132385,-0.370544,0.732056,-0.556152
1480628802359189,0.132568,-0.370117,0.731689,-0.556885
1480628802373222,0.133057,-0.369568,0.731506,-0.557373
1480628802396784,0.133423,-0.368835,0.731567,-0.557678
1480628802424862,0.133423,-0.367859,0.73175,-0.558044
1480628802439899,0.132935,-0.366577,0.732178,-0.558411
1480628802456443,0.132324,-0.36554,0.732544,-0.558777
1480628802487025,0.131897,-0.364868,0.732788,-0.559021
1480628802509083,0.13147,-0.364441,0.732971,-0.559143
1480628802517104,0.13092,-0.364258,0.733215,-0.559082
1480628802539666,0.130432,-0.364441,0.733459,-0.558777
1480628802560219,0.130066,-0.364807,0.733765,-0.558228
1480628802576765,0.1297,-0.365295,0.73407,-0.557556
1480628802599322,0.129272,-0.36615,0.734253,-0.556824
1480628802620380,0.129089,-0.367249,0.734497,-0.555908
1480628802637424,0.129028,-0.368347,0.734619,-0.554993
1480628802658981,0.128967,-0.369324,0.734802,-0.554077
1480628802680038,0.129028,-0.370361,0.734924,-0.553284
1480628802712623,0.12915,-0.371399,0.734924,-0.552551
1480628802726662,0.129211,-0.372253,0.734802,-0.552063
1480628802741702,0.129089,-0.372681,0.734802,-0.551819
1480628802764262,0.128784,-0.372864,0.734802,-0.551758
1480628802793339,0.128479,-0.372925,0.734741,-0.55188
1480628802799856,0.128479,-0.372925,0.734741,-0.55188
1480628802816902,0.128235,-0.372925,0.734741,-0.551941
1480628802838960,0.128052,-0.372742,0.734802,-0.552063
1480628802860016,0.128052,-0.372742,0.734802,-0.552063
1480628802876561,0.128052,-0.372681,0.734802,-0.552063
1480628802900125,0.127991,-0.372681,0.734802,-0.552063
1480628802921179,0.127991,-0.372681,0.734802,-0.552124
1480628802937221,0.127991,-0.37262,0.734802,-0.552124
1480628802959280,0.127991,-0.37262,0.734802,-0.552124
1480628802988859,0.127991,-0.372314,0.734924,-0.552185
1480628802996379,0.128052,-0.372009,0.734985,-0.552246
1480628803019441,0.128174,-0.371826,0.735046,-0.552246
1480628803041500,0.128357,-0.371521,0.735168,-0.552307
1480628803070075,0.128479,-0.371155,0.735291,-0.552368
1480628803079099,0.128662,-0.37085,0.735352,-0.552429
1480628803107676,0.128967,-0.370422,0.735474,-0.55249
1480628803116197,0.129089,-0.369812,0.735718,-0.552551
1480628803145274,0.12915,-0.369019,0.736084,-0.552551
1480628803161819,0.129089,-0.368164,0.73645,-0.552673
1480628803175857,0.129272,-0.367371,0.736755,-0.552734
1480628803198918,0.129578,-0.366821,0.736938,-0.552795
1480628803228998,0.129822,-0.366272,0.737183,-0.552795
1480628803236017,0.130005,-0.365845,0.737366,-0.552795
1480628803260583,0.130127,-0.365295,0.73761,-0.552795
1480628803297681,0.130127,-0.364502,0.737976,-0.552795
1480628803303195,0.129883,-0.36377,0.738342,-0.552917
1480628803325254,0.129761,-0.363342,0.738647,-0.552795
1480628803349318,0.129822,-0.36322,0.738892,-0.552429
1480628803365361,0.129822,-0.363342,0.739136,-0.552063
1480628803379399,0.129822,-0.363708,0.739319,-0.551575
1480628803401456,0.130005,-0.364197,0.739441,-0.551086
1480628803422515,0.130188,-0.364746,0.739563,-0.550537
1480628803439057,0.13031,-0.365173,0.739624,-0.55011
1480628803461617,0.130371,-0.365295,0.739807,-0.549805
1480628803491698,0.130371,-0.365356,0.739746,-0.549805
1480628803514257,0.130371,-0.365356,0.739746,-0.549805
1480628803521777,0.130432,-0.365051,0.739807,-0.549927
1480628803544839,0.130432,-0.364624,0.739746,-0.550293
1480628803558878,0.130493,-0.363831,0.739746,-0.550842
1480628803588956,0.130615,-0.362793,0.739685,-0.551453
1480628803602491,0.130859,-0.361572,0.739746,-0.552246
1480628803619036,0.131042,-0.360107,0.739746,-0.553162
1480628803649116,0.131165,-0.358337,0.739746,-0.55426
1480628803662653,0.131348,-0.356506,0.739685,-0.555481
1480628803679196,0.131531,-0.354492,0.739563,-0.556824
1480628803701756,0.131836,-0.352112,0.739563,-0.558289
1480628803738856,0.131897,-0.349304,0.739685,-0.559875
1480628803741363,0.131653,-0.346191,0.739868,-0.561646
1480628803761414,0.131287,-0.342834,0.740173,-0.563354
1480628803782971,0.13092,-0.339417,0.74054,-0.565063
1480628803798513,0.130676,-0.336121,0.740845,-0.566711
1480628803822076,0.130615,-0.333313,0.740906,-0.568298
1480628803850151,0.130798,-0.33075,0.740967,-0.569641
1480628803874218,0.13092,-0.328308,0.74115,-0.57074
1480628803881734,0.130859,-0.325928,0.741333,-0.571899
1480628803904294,0.130798,-0.323914,0.741455,-0.572937
1480628803926856,0.130859,-0.322266,0.741333,-0.573975
1480628803941393,0.13092,-0.320862,0.741211,-0.574829
1480628803963954,0.131042,-0.319519,0.741211,-0.575623
1480628803986515,0.131165,-0.318176,0.741272,-0.576233
1480628804001554,0.131226,-0.316833,0.741394,-0.576843
1480628804024116,0.131348,-0.315613,0.741577,-0.577271
1480628804038150,0.131531,-0.314636,0.741699,-0.577637
1480628804069232,0.131592,-0.313782,0.74176,-0.577881
1480628804091294,0.131592,-0.313049,0.741943,-0.578125
1480628804099314,0.131714,-0.312927,0.741882,-0.578186
1480628804121884,0.13208,-0.313049,0.741821,-0.578186
1480628804143932,0.132507,-0.313354,0.741699,-0.578003
1480628804158471,0.132751,-0.313416,0.74176,-0.577881
1480628804181533,0.132751,-0.31311,0.741882,-0.577881
1480628804211612,0.132568,-0.312622,0.742004,-0.578003
1480628804219132,0.132568,-0.312317,0.742065,-0.578125
1480628804241692,0.13269,-0.312073,0.742065,-0.578247
1480628804264252,0.132935,-0.31189,0.742004,-0.578369
1480628804278289,0.132935,-0.31189,0.742004,-0.578369
1480628804301350,0.132935,-0.31189,0.742004,-0.578369
1480628804323914,0.132935,-0.312073,0.741882,-0.578369
1480628804346471,0.133179,-0.312439,0.74176,-0.578308
1480628804361511,0.133423,-0.312744,0.741638,-0.578247
1480628804384072,0.133545,-0.312927,0.741577,-0.578186
1480628804405128,0.133484,-0.312927,0.741577,-0.578186
1480628804421674,0.133484,-0.312866,0.741577,-0.578247
1480628804444231,0.133423,-0.312866,0.741577,-0.578247
1480628804465287,0.133545,-0.312805,0.741516,-0.578308
1480628804481330,0.133728,-0.312805,0.741394,-0.57843
1480628804503890,0.134033,-0.312927,0.741272,-0.578491
1480628804524948,0.134033,-0.312927,0.741272,-0.578491
1480628804541490,0.134155,-0.31311,0.741089,-0.578552
1480628804564551,0.134399,-0.313354,0.740906,-0.578613
1480628804585106,0.134644,-0.313416,0.740784,-0.578674
1480628804601650,0.134888,-0.313354,0.740784,-0.578674
1480628804624211,0.135193,-0.313171,0.740784,-0.578735
1480628804646769,0.135437,-0.312988,0.740723,-0.578796
1480628804661810,0.135498,-0.312927,0.740784,-0.578796
1480628804683868,0.135498,-0.312927,0.740784,-0.578796
1480628804704924,0.135498,-0.312866,0.740784,-0.578796
1480628804727484,0.135498,-0.312927,0.740784,-0.578796
1480628804744028,0.135376,-0.312744,0.740784,-0.578857
1480628804765084,0.135376,-0.312744,0.740784,-0.578857
1480628804781629,0.135376,-0.312561,0.740845,-0.578918
1480628804804189,0.135254,-0.312195,0.740967,-0.578979
1480628804826749,0.135254,-0.312195,0.740967,-0.578979
1480628804840791,0.135193,-0.312134,0.740967,-0.579041
1480628804872871,0.135193,-0.312134,0.740967,-0.579041
1480628804886407,0.135193,-0.312073,0.740967,-0.579041
1480628804901448,0.135132,-0.312073,0.740967,-0.579041
1480628804925014,0.135315,-0.312134,0.740845,-0.579102
1480628804946568,0.135315,-0.312195,0.740845,-0.579102
1480628804961106,0.135315,-0.312195,0.740845,-0.579102
1480628804984168,0.135315,-0.312195,0.740845,-0.579102
1480628805006728,0.135315,-0.312195,0.740845,-0.579102
1480628805020765,0.135315,-0.312195,0.740845,-0.579102
1480628805043826,0.135254,-0.312195,0.740845,-0.579102
1480628805066387,0.135254,-0.312195,0.740845,-0.579102
1480628805080925,0.135254,-0.312134,0.740845,-0.579163
1480628805103986,0.135132,-0.31189,0.740906,-0.579224
1480628805126546,0.135132,-0.31189,0.740906,-0.579224
1480628805149607,0.135132,-0.31189,0.740906,-0.579224
1480628805164647,0.135132,-0.31189,0.740906,-0.579224
1480628805186706,0.135132,-0.31189,0.740906,-0.579224
1480628805207764,0.135132,-0.311951,0.740906,-0.579224
1480628805224307,0.135132,-0.311951,0.740906,-0.579224
1480628805247869,0.135132,-0.311951,0.740906,-0.579224
1480628805267420,0.135071,-0.31189,0.740906,-0.579224
1480628805291487,0.135071,-0.31189,0.740906,-0.579224
1480628805306525,0.135071,-0.31189,0.740906,-0.579224
1480628805327581,0.135071,-0.311829,0.740906,-0.579285
1480628805344125,0.135071,-0.311829,0.740906,-0.579224
1480628805374206,0.135071,-0.311829,0.740906,-0.579224
1480628805387741,0.135071,-0.31189,0.740906,-0.579224
1480628805404285,0.135132,-0.31189,0.740906,-0.579224
1480628805426344,0.135132,-0.31189,0.740906,-0.579224
1480628805447401,0.135132,-0.31189,0.740906,-0.579224
1480628805463944,0.135132,-0.31189,0.740906,-0.579224
1480628805486508,0.135132,-0.311829,0.740906,-0.579224
1480628805507559,0.135132,-0.311829,0.740967,-0.579224
1480628805525106,0.135071,-0.311768,0.740967,-0.579224
1480628805546664,0.135071,-0.311768,0.740967,-0.579285
1480628805567720,0.135071,-0.311768,0.740967,-0.579285
1480628805584765,0.135071,-0.311768,0.740967,-0.579224
1480628805606824,0.135132,-0.311768,0.740967,-0.579224
1480628805627378,0.135132,-0.311768,0.740967,-0.579224
1480628805643923,0.135132,-0.311768,0.740967,-0.579224
1480628805672499,0.135132,-0.311829,0.740967,-0.579224
1480628805687539,0.135132,-0.311768,0.740967,-0.579224
1480628805704083,0.135071,-0.311768,0.740967,-0.579224
1480628805726643,0.135071,-0.311768,0.740967,-0.579224
1480628805749204,0.135071,-0.311707,0.740967,-0.579285
1480628805764243,0.135071,-0.311646,0.740967,-0.579285
1480628805786302,0.135071,-0.311646,0.741028,-0.579285
1480628805815379,0.135071,-0.311646,0.741028,-0.579285
1480628805823904,0.135071,-0.311646,0.740967,-0.579285
1480628805846461,0.135071,-0.311707,0.740967,-0.579285
1480628805876541,0.135071,-0.311707,0.740967,-0.579285
1480628805897598,0.135071,-0.311707,0.740967,-0.579285
1480628805906622,0.135071,-0.311646,0.740967,-0.579285
1480628805929182,0.135071,-0.311646,0.741028,-0.579285
1480628805943218,0.135071,-0.311584,0.741028,-0.579285
1480628805966781,0.135071,-0.311584,0.741028,-0.579285
1480628805989343,0.13501,-0.311584,0.741028,-0.579285
1480628806003378,0.135071,-0.311584,0.741028,-0.579285
1480628806026941,0.135071,-0.311584,0.741028,-0.579285
1480628806049000,0.135071,-0.311584,0.741028,-0.579285
1480628806063538,0.135071,-0.311584,0.741028,-0.579285
1480628806086600,0.135071,-0.311584,0.741028,-0.579285
1480628806109662,0.135071,-0.311584,0.741028,-0.579285
1480628806130217,0.135071,-0.311584,0.741028,-0.579285
1480628806152777,0.135071,-0.311523,0.741028,-0.579285
1480628806174835,0.13501,-0.311462,0.741089,-0.579285
1480628806184362,0.13501,-0.311462,0.741089,-0.579285
1480628806206419,0.13501,-0.311401,0.741089,-0.579285
1480628806228979,0.13501,-0.311401,0.741089,-0.579285
1480628806250035,0.135071,-0.311401,0.741089,-0.579285
1480628806266579,0.135071,-0.311462,0.741089,-0.579285
1480628806289139,0.135071,-0.311462,0.741089,-0.579285
1480628806310195,0.135071,-0.311462,0.741089,-0.579285
1480628806326739,0.135071,-0.311462,0.741089,-0.579285
1480628806349299,0.135071,-0.311401,0.741089,-0.579285
1480628806370355,0.13501,-0.31134,0.741089,-0.579285
1480628806386398,0.13501,-0.311279,0.74115,-0.579346
1480628806408957,0.13501,-0.311279,0.74115,-0.579346
1480628806431016,0.13501,-0.311218,0.74115,-0.579346
1480628806452575,0.13501,-0.311218,0.74115,-0.579346
1480628806469118,0.13501,-0.311279,0.74115,-0.579346
1480628806490175,0.13501,-0.311279,0.74115,-0.579346
1480628806506720,0.13501,-0.311218,0.74115,-0.579346
1480628806529278,0.13501,-0.311218,0.74115,-0.579346
1480628806550335,0.13501,-0.311218,0.74115,-0.579346
1480628806567379,0.13501,-0.311157,0.74115,-0.579346
1480628806588937,0.134949,-0.311157,0.74115,-0.579346
1480628806609992,0.134949,-0.311096,0.741211,-0.579346
1480628806626036,0.134949,-0.311096,0.741211,-0.579346
1480628806649096,0.134949,-0.311035,0.741211,-0.579346
1480628806677672,0.134949,-0.311035,0.741211,-0.579346
1480628806686697,0.134949,-0.311035,0.741211,-0.579346
1480628806709257,0.134949,-0.311035,0.741211,-0.579346
1480628806731315,0.134949,-0.311096,0.741211,-0.579346
1480628806746857,0.134949,-0.311096,0.741211,-0.579346
1480628806769417,0.134949,-0.311035,0.741211,-0.579346
1480628806791476,0.134949,-0.310974,0.741211,-0.579407
1480628806807017,0.134888,-0.310913,0.741211,-0.579407
1480628806829075,0.134888,-0.310913,0.741211,-0.579407
1480628806851636,0.134888,-0.310913,0.741272,-0.579407
1480628806865673,0.134888,-0.310852,0.741272,-0.579407
1480628806889236,0.134888,-0.310852,0.741272,-0.579407
1480628806911294,0.134949,-0.310913,0.741272,-0.579407
1480628806927337,0.134949,-0.310913,0.741211,-0.579407
1480628806948894,0.134949,-0.310913,0.741211,-0.579407
1480628806971455,0.134766,-0.310669,0.741333,-0.579468
1480628806985995,0.134766,-0.310608,0.741333,-0.579468
1480628807009556,0.134705,-0.310608,0.741333,-0.579468
1480628807031615,0.134705,-0.310547,0.741333,-0.579468
1480628807046154,0.134705,-0.310486,0.741333,-0.579529
1480628807069715,0.134827,-0.310547,0.741333,-0.579468
1480628807091273,0.134827,-0.310547,0.741333,-0.579468
1480628807106816,0.134827,-0.310608,0.741333,-0.579468
1480628807128873,0.134827,-0.310608,0.741333,-0.579468
1480628807151435,0.134827,-0.310547,0.741333,-0.579468
1480628807172489,0.134949,-0.31073,0.741211,-0.579529
1480628807189033,0.134949,-0.31073,0.741211,-0.579529
1480628807211593,0.134949,-0.31073,0.741211,-0.579529
1480628807234654,0.134888,-0.310669,0.741272,-0.579529
1480628807262730,0.134888,-0.310608,0.741272,-0.579529
1480628807271754,0.134888,-0.310547,0.741272,-0.579529
1480628807292809,0.134888,-0.310547,0.741272,-0.579529
1480628807309854,0.134888,-0.310547,0.741272,-0.579529
1480628807331412,0.134888,-0.310547,0.741272,-0.579529
1480628807352469,0.134888,-0.310547,0.741272,-0.579529
1480628807369012,0.134949,-0.310547,0.741272,-0.579529
1480628807397588,0.134949,-0.310547,0.741272,-0.579529
1480628807412628,0.134888,-0.310547,0.741272,-0.579529
1480628807429172,0.134888,-0.310486,0.741272,-0.579529
1480628807459253,0.134888,-0.310486,0.741333,-0.579529
1480628807472788,0.13501,-0.310425,0.741272,-0.579529
1480628807488831,0.13501,-0.310425,0.741333,-0.579529
1480628807512394,0.13501,-0.310364,0.741333,-0.579529
1480628807532447,0.13501,-0.310425,0.741333,-0.579529
1480628807549492,0.13501,-0.310425,0.741333,-0.579529
1480628807571551,0.13501,-0.310425,0.741272,-0.579529
1480628807592608,0.13501,-0.310425,0.741333,-0.579529
1480628807609150,0.13501,-0.310425,0.741333,-0.579529
1480628807631209,0.13501,-0.310425,0.741333,-0.579529
1480628807653769,0.13501,-0.310364,0.741333,-0.57959
1480628807668810,0.13501,-0.310303,0.741333,-0.57959
1480628807692373,0.13501,-0.310303,0.741333,-0.57959
1480628807713930,0.13501,-0.310303,0.741333,-0.57959
1480628807730474,0.13501,-0.310242,0.741333,-0.57959
1480628807751530,0.13501,-0.310242,0.741333,-0.57959
1480628807774090,0.13501,-0.310242,0.741333,-0.57959
1480628807789634,0.13501,-0.310303,0.741333,-0.57959
1480628807811690,0.13501,-0.310303,0.741333,-0.57959
1480628807848789,0.13501,-0.310303,0.741333,-0.579529
1480628807851295,0.13501,-0.310242,0.741394,-0.57959
1480628807871850,0.13501,-0.310181,0.741394,-0.57959
1480628807893909,0.13501,-0.310181,0.741394,-0.57959
1480628807908447,0.13501,-0.31012,0.741394,-0.57959
1480628807931508,0.13501,-0.31012,0.741394,-0.57959
1480628807954572,0.135071,-0.31012,0.741394,-0.57959
1480628807968607,0.135071,-0.31012,0.741394,-0.57959
1480628807991670,0.135071,-0.31012,0.741394,-0.57959
1480628808014229,0.135071,-0.310181,0.741394,-0.579529
1480628808028266,0.135071,-0.310181,0.741394,-0.579529
1480628808058847,0.135132,-0.310181,0.741394,-0.579529
1480628808073887,0.135132,-0.31012,0.741394,-0.579529
1480628808096448,0.135132,-0.31012,0.741394,-0.579529
1480628808111487,0.135071,-0.310059,0.741455,-0.579529
1480628808134046,0.135071,-0.310059,0.741455,-0.57959
1480628808155104,0.135071,-0.309998,0.741455,-0.57959
1480628808171648,0.135071,-0.309998,0.741455,-0.57959
1480628808194208,0.135132,-0.310059,0.741455,-0.579529
1480628808215767,0.135132,-0.310059,0.741455,-0.579529
1480628808231807,0.135132,-0.310059,0.741455,-0.579529
1480628808259882,0.135132,-0.310059,0.741455,-0.579529
1480628808274922,0.135193,-0.310059,0.741455,-0.579529
1480628808291466,0.135132,-0.310059,0.741455,-0.579529
1480628808314026,0.135132,-0.309998,0.741455,-0.579529
1480628808335082,0.135132,-0.309937,0.741455,-0.579529
1480628808351627,0.135132,-0.309937,0.741455,-0.57959
1480628808374186,0.135132,-0.309937,0.741516,-0.57959
1480628808395242,0.135132,-0.309937,0.741516,-0.57959
1480628808411284,0.135132,-0.309937,0.741516,-0.579529
1480628808435348,0.135193,-0.309937,0.741516,-0.579529
1480628808455402,0.135193,-0.309937,0.741455,-0.579529
1480628808471445,0.135132,-0.309937,0.741455,-0.579529
1480628808495009,0.135132,-0.309937,0.741516,-0.579529
1480628808515061,0.135132,-0.309875,0.741516,-0.579529
1480628808531610,0.135132,-0.309875,0.741516,-0.57959
1480628808560186,0.135132,-0.309814,0.741516,-0.57959
1480628808576730,0.135132,-0.309814,0.741516,-0.57959
1480628808591269,0.135132,-0.309753,0.741516,-0.57959
1480628808622852,0.135132,-0.309753,0.741516,-0.57959
1480628808636890,0.135132,-0.309753,0.741516,-0.57959
1480628808652431,0.135132,-0.309753,0.741516,-0.57959
1480628808673988,0.135132,-0.309753,0.741516,-0.57959
1480628808696549,0.135132,-0.309753,0.741516,-0.57959
1480628808711087,0.135132,-0.309753,0.741577,-0.57959
1480628808734149,0.135132,-0.309692,0.741577,-0.57959
1480628808756712,0.135132,-0.309631,0.741577,-0.57959
1480628808770747,0.135132,-0.309631,0.741577,-0.57959
1480628808793807,0.135132,-0.309631,0.741577,-0.57959
1480628808816367,0.135132,-0.30957,0.741577,-0.57959
1480628808830907,0.135132,-0.30957,0.741577,-0.57959
1480628808869009,0.135193,-0.309631,0.741577,-0.57959
1480628808877029,0.135071,-0.30957,0.741577,-0.579651
1480628808891068,0.135071,-0.309631,0.741577,-0.579651
1480628808921649,0.135071,-0.30957,0.741577,-0.579651
1480628808944210,0.13501,-0.30957,0.741577,-0.579651
1480628808950726,0.13501,-0.309509,0.741577,-0.579651
1480628808973787,0.13501,-0.309509,0.741577,-0.579651
1480628808996347,0.13501,-0.309448,0.741638,-0.579651
1480628809010885,0.13501,-0.309448,0.741638,-0.579651
1480628809033946,0.13501,-0.309448,0.741638,-0.579651
1480628809056509,0.13501,-0.309448,0.741638,-0.579651
1480628809077562,0.13501,-0.309448,0.741638,-0.579651
1480628809095109,0.135071,-0.309448,0.741638,-0.579651
1480628809116667,0.135071,-0.309509,0.741638,-0.579651
1480628809145242,0.135071,-0.309448,0.741638,-0.579651
1480628809154267,0.13501,-0.309448,0.741638,-0.579651
1480628809176326,0.13501,-0.309387,0.741638,-0.579651
1480628809197382,0.13501,-0.309387,0.741638,-0.579712
1480628809213926,0.13501,-0.309326,0.741638,-0.579712
1480628809236986,0.13501,-0.309326,0.741638,-0.579712
1480628809259045,0.13501,-0.309326,0.741638,-0.579712
1480628809274085,0.13501,-0.309326,0.741699,-0.579712
1480628809297147,0.13501,-0.309326,0.741699,-0.579651
1480628809317702,0.13501,-0.309265,0.741699,-0.579712
1480628809334245,0.13501,-0.309326,0.741699,-0.579651
1480628809357308,0.13501,-0.309265,0.741699,-0.579712
1480628809377861,0.13501,-0.309265,0.741699,-0.579712
1480628809393905,0.13501,-0.309204,0.741699,-0.579712
1480628809417467,0.13501,-0.309204,0.741699,-0.579712
1480628809437520,0.13501,-0.309143,0.741699,-0.579712
1480628809454064,0.13501,-0.309143,0.741699,-0.579712
1480628809476624,0.13501,-0.309143,0.74176,-0.579712
1480628809497680,0.13501,-0.309143,0.741699,-0.579712
1480628809514228,0.13501,-0.309143,0.741699,-0.579712
1480628809536283,0.13501,-0.309143,0.741699,-0.579712
1480628809558843,0.13501,-0.309143,0.741699,-0.579712
1480628809573884,0.13501,-0.309082,0.74176,-0.579712
1480628809596443,0.13501,-0.309082,0.74176,-0.579712
1480628809619026,0.13501,-0.309021,0.74176,-0.579712
1480628809634043,0.13501,-0.309021,0.74176,-0.579712
1480628809656605,0.134949,-0.30896,0.74176,-0.579712
1480628809679163,0.134949,-0.30896,0.74176,-0.579712
1480628809694203,0.134949,-0.30896,0.74176,-0.579712
1480628809716763,0.13501,-0.30896,0.74176,-0.579712
1480628809739324,0.13501,-0.30896,0.74176,-0.579712
1480628809759878,0.13501,-0.30896,0.74176,-0.579712
1480628809783942,0.13501,-0.30896,0.74176,-0.579712
1480628809798982,0.134949,-0.30896,0.74176,-0.579712
1480628809814523,0.134949,-0.308899,0.741821,-0.579712
1480628809836582,0.134949,-0.308838,0.741821,-0.579773
1480628809859644,0.134949,-0.308838,0.741821,-0.579773
1480628809873179,0.134949,-0.308777,0.741821,-0.579773
1480628809896742,0.134949,-0.308777,0.741821,-0.579773
1480628809925322,0.134949,-0.308777,0.741821,-0.579773
1480628809933339,0.134949,-0.308777,0.741821,-0.579773
1480628809956402,0.134949,-0.308777,0.741821,-0.579773
1480628809978960,0.134949,-0.308777,0.741821,-0.579773
1480628810000517,0.134949,-0.308777,0.741821,-0.579773
1480628810017063,0.134949,-0.308777,0.741821,-0.579773
1480628810039123,0.134949,-0.308716,0.741882,-0.579773
1480628810060177,0.134949,-0.308655,0.741882,-0.579773
1480628810076720,0.134949,-0.308594,0.741882,-0.579773
1480628810099281,0.134949,-0.308594,0.741882,-0.579773
1480628810120337,0.134888,-0.308594,0.741882,-0.579773
1480628810136881,0.134888,-0.308594,0.741882,-0.579773
1480628810158940,0.134888,-0.308594,0.741882,-0.579773
1480628810180496,0.134888,-0.308594,0.741882,-0.579773
1480628810196539,0.134949,-0.308594,0.741882,-0.579773
1480628810219100,0.134888,-0.308533,0.741943,-0.579773
1480628810240156,0.134888,-0.308533,0.741943,-0.579773
1480628810256702,0.134888,-0.308533,0.741943,-0.579773
1480628810279260,0.134766,-0.308228,0.742004,-0.579834
1480628810307334,0.134766,-0.308167,0.742065,-0.579834
1480628810316358,0.134766,-0.308167,0.742065,-0.579834
1480628810339421,0.134766,-0.308105,0.742065,-0.579895
1480628810367494,0.134766,-0.308105,0.742065,-0.579895
1480628810376518,0.134766,-0.308167,0.742065,-0.579895
1480628810399078,0.134766,-0.308167,0.742065,-0.579834
1480628810422140,0.134766,-0.308167,0.742065,-0.579834
1480628810436679,0.134766,-0.308167,0.742065,-0.579834
1480628810459240,0.134766,-0.308167,0.742065,-0.579895
1480628810481798,0.134766,-0.308105,0.742065,-0.579895
1480628810496337,0.134766,-0.308044,0.742065,-0.579895
1480628810518900,0.134705,-0.308044,0.742065,-0.579895
1480628810541457,0.134705,-0.308044,0.742065,-0.579895
1480628810556499,0.134705,-0.308044,0.742065,-0.579895
1480628810579559,0.134705,-0.308044,0.742065,-0.579895
1480628810602118,0.134705,-0.307983,0.742065,-0.579895
1480628810617158,0.134705,-0.308044,0.742065,-0.579895
1480628810639718,0.134705,-0.308044,0.742065,-0.579895
1480628810662278,0.134705,-0.308044,0.742065,-0.579895
1480628810675815,0.134705,-0.307983,0.742126,-0.579895
1480628810698876,0.134705,-0.307983,0.742126,-0.579895
1480628810721436,0.134644,-0.307922,0.742126,-0.579895
1480628810735974,0.134644,-0.307922,0.742126,-0.579895
1480628810759036,0.134644,-0.307861,0.742126,-0.579895
1480628810781596,0.134644,-0.307922,0.742126,-0.579895
1480628810796135,0.134705,-0.307922,0.742126,-0.579895
1480628810819304,0.134705,-0.307922,0.742126,-0.579895
1480628810842258,0.134705,-0.307922,0.742126,-0.579895
1480628810855794,0.134705,-0.307922,0.742126,-0.579895
1480628810878854,0.134644,-0.307922,0.742126,-0.579895
1480628810901414,0.134644,-0.307861,0.742126,-0.579956
1480628810923974,0.134644,-0.3078,0.742126,-0.579956
1480628810939016,0.134644,-0.3078,0.742126,-0.579956
1480628810962077,0.134644,-0.3078,0.742188,-0.579956
1480628810982631,0.134644,-0.3078,0.742188,-0.579956
1480628810999177,0.134644,-0.3078,0.742188,-0.579956
1480628811023240,0.134644,-0.3078,0.742126,-0.579956
1480628811042791,0.134644,-0.3078,0.742126,-0.579956
1480628811058835,0.134644,-0.307861,0.742126,-0.579956
1480628811081393,0.134644,-0.3078,0.742126,-0.579956
1480628811102450,0.134644,-0.3078,0.742188,-0.579956
1480628811118994,0.134644,-0.3078,0.742188,-0.579956
1480628811147569,0.134644,-0.307739,0.742188,-0.579956
1480628811164113,0.134644,-0.307739,0.742188,-0.579956
1480628811179154,0.134644,-0.307678,0.742188,-0.579956
1480628811201713,0.134644,-0.307678,0.742188,-0.579956
1480628811222773,0.134644,-0.307678,0.742188,-0.579956
1480628811239319,0.134644,-0.307739,0.742188,-0.579956
1480628811261372,0.134705,-0.307739,0.742188,-0.579956
1480628811282428,0.134644,-0.307739,0.742188,-0.579956
1480628811299975,0.134644,-0.307739,0.742188,-0.579956
1480628811322033,0.134644,-0.307678,0.742188,-0.579956
1480628811342588,0.134644,-0.307678,0.742188,-0.579956
1480628811359133,0.134644,-0.307617,0.742249,-0.579956
1480628811381692,0.134644,-0.307617,0.742249,-0.579956
1480628811403250,0.134644,-0.307556,0.742249,-0.579956
1480628811418792,0.134644,-0.307556,0.742249,-0.579956
1480628811441351,0.134644,-0.307617,0.742249,-0.579956
1480628811463911,0.134644,-0.307617,0.742249,-0.579956
1480628811478952,0.134644,-0.307617,0.742188,-0.579956
1480628811501511,0.134644,-0.307678,0.742188,-0.579956
1480628811524071,0.134644,-0.307617,0.742188,-0.579956
1480628811545127,0.134644,-0.307617,0.742249,-0.579956
1480628811561671,0.134644,-0.307617,0.742249,-0.579956
1480628811591250,0.134644,-0.307556,0.742249,-0.579956
1480628811605287,0.134644,-0.307556,0.742249,-0.579956
1480628811621330,0.134644,-0.307495,0.742249,-0.579956
1480628811644892,0.134644,-0.307556,0.742249,-0.579956
1480628811658429,0.134644,-0.307556,0.742249,-0.579956
1480628811682994,0.134644,-0.307556,0.742249,-0.579956
1480628811704552,0.134705,-0.307556,0.742249,-0.579956
1480628811718590,0.134705,-0.307617,0.742249,-0.579956
1480628811741650,0.134705,-0.307556,0.742249,-0.579956
1480628811764211,0.134705,-0.307556,0.742249,-0.579956
1480628811778248,0.134705,-0.307556,0.742249,-0.579956
1480628811807325,0.134705,-0.307495,0.742249,-0.579956
1480628811831389,0.134644,-0.307495,0.742249,-0.579956
1480628811838408,0.134705,-0.307495,0.742249,-0.579956
1480628811861469,0.134705,-0.307495,0.742249,-0.579956
1480628811884531,0.134705,-0.307495,0.742249,-0.579956
1480628811898567,0.134705,-0.307556,0.742249,-0.579956
1480628811923134,0.134705,-0.307556,0.742249,-0.579956
1480628811951710,0.134705,-0.307556,0.742249,-0.579956
1480628811965245,0.134705,-0.307556,0.742249,-0.579956
1480628811981290,0.134705,-0.307495,0.742249,-0.579956
1480628812003847,0.134705,-0.307495,0.742249,-0.579956
1480628812024904,0.134705,-0.307434,0.74231,-0.579956
1480628812041949,0.134705,-0.307434,0.74231,-0.579956
1480628812064007,0.134705,-0.307434,0.74231,-0.579956
1480628812085065,0.134705,-0.307434,0.74231,-0.579956
1480628812102109,0.134766,-0.307434,0.74231,-0.579956
1480628812124168,0.134766,-0.307495,0.742249,-0.579956
1480628812145225,0.134705,-0.307495,0.74231,-0.579956
1480628812161266,0.134766,-0.307495,0.74231,-0.579956
1480628812184328,0.134705,-0.307434,0.74231,-0.579956
1480628812204883,0.134705,-0.307434,0.74231,-0.579956
1480628812221427,0.134705,-0.307373,0.74231,-0.579956
1480628812250004,0.134705,-0.307373,0.74231,-0.579956
1480628812265543,0.134705,-0.307312,0.74231,-0.579956
1480628812281586,0.134705,-0.307312,0.74231,-0.579956
1480628812304149,0.134766,-0.307373,0.74231,-0.579956
1480628812325203,0.134766,-0.307373,0.74231,-0.579956
1480628812341747,0.134766,-0.307373,0.74231,-0.579956
1480628812363805,0.134766,-0.307373,0.74231,-0.579956
1480628812386369,0.134766,-0.307373,0.74231,-0.579956
1480628812401405,0.134766,-0.307312,0.74231,-0.579956
1480628812424467,0.134766,-0.307312,0.74231,-0.579956
1480628812448030,0.134766,-0.307312,0.742371,-0.579956
1480628812475101,0.134766,-0.307251,0.742371,-0.579956
1480628812484125,0.134766,-0.307251,0.742371,-0.579956
1480628812506685,0.134766,-0.307251,0.742371,-0.579956
1480628812520724,0.134766,-0.307251,0.742371,-0.579956
1480628812549800,0.134766,-0.307251,0.742371,-0.579956
1480628812566344,0.134766,-0.307312,0.74231,-0.579956
1480628812580891,0.134766,-0.307312,0.74231,-0.579956
1480628812603944,0.134766,-0.307312,0.74231,-0.579956
1480628812634025,0.134766,-0.307312,0.742371,-0.579956
1480628812648061,0.134766,-0.307251,0.742371,-0.579956
1480628812664104,0.134766,-0.307251,0.742371,-0.579956
1480628812686664,0.134705,-0.30719,0.742371,-0.579956
1480628812700702,0.134766,-0.30719,0.742371,-0.579956
1480628812724264,0.134766,-0.307251,0.742371,-0.579956
1480628812753844,0.134766,-0.307251,0.742371,-0.579956
1480628812760861,0.134766,-0.307251,0.742371,-0.579956
1480628812785427,0.134766,-0.307251,0.742371,-0.579956
1480628812806483,0.134766,-0.307251,0.742371,-0.579956
1480628812821022,0.134766,-0.30719,0.742371,-0.579956
1480628812844083,0.134766,-0.30719,0.742371,-0.579956
1480628812866643,0.134766,-0.30719,0.742371,-0.579956
1480628812887699,0.134705,-0.307129,0.742432,-0.579956
1480628812904244,0.134705,-0.307129,0.742432,-0.579956
1480628812926302,0.134766,-0.307129,0.742432,-0.579956
1480628812947358,0.134766,-0.307129,0.742371,-0.579956
1480628812963902,0.134705,-0.307007,0.742432,-0.580017
1480628812986464,0.134644,-0.307007,0.742432,-0.580017
1480628813007518,0.134644,-0.307007,0.742432,-0.580017
1480628813024063,0.134644,-0.306946,0.742432,-0.580017
1480628813046622,0.134644,-0.306946,0.742432,-0.580017
1480628813067677,0.134644,-0.306946,0.742493,-0.580017
1480628813084222,0.134644,-0.306885,0.742493,-0.580017
1480628813106280,0.134644,-0.306885,0.742493,-0.580017
1480628813127838,0.134644,-0.306824,0.742493,-0.580017
1480628813145886,0.134644,-0.306824,0.742493,-0.580017
1480628813166440,0.134644,-0.306824,0.742493,-0.580017
1480628813196019,0.134644,-0.306824,0.742493,-0.580017
1480628813204041,0.134644,-0.306885,0.742493,-0.580017
1480628813227102,0.134644,-0.306885,0.742493,-0.580017
1480628813247656,0.134644,-0.306885,0.742493,-0.580017
1480628813264702,0.134644,-0.306885,0.742493,-0.580017
1480628813286261,0.134644,-0.306824,0.742493,-0.580017
1480628813307817,0.134644,-0.306763,0.742493,-0.580017
1480628813323860,0.134644,-0.306763,0.742493,-0.580017
1480628813352936,0.134644,-0.306763,0.742493,-0.580017
1480628813368979,0.134644,-0.306763,0.742493,-0.580017
1480628813392543,0.134644,-0.306824,0.742493,-0.580017
1480628813406579,0.134644,-0.306824,0.742493,-0.580017
1480628813429139,0.134644,-0.306824,0.742493,-0.580017
1480628813443177,0.134644,-0.306824,0.742493,-0.580017
1480628813473757,0.134644,-0.306824,0.742493,-0.580017
1480628813489302,0.134583,-0.306763,0.742493,-0.580017
1480628813503337,0.134583,-0.306763,0.742554,-0.580017
1480628813533918,0.134583,-0.306702,0.742554,-0.580078
1480628813564499,0.134583,-0.306702,0.742554,-0.580078
1480628813570014,0.134583,-0.306702,0.742554,-0.580078
1480628813586559,0.134583,-0.306702,0.742554,-0.580078
1480628813617641,0.134583,-0.306702,0.742554,-0.580017
1480628813623659,0.134583,-0.306702,0.742554,-0.580017
1480628813646718,0.134583,-0.306763,0.742554,-0.580017
1480628813669278,0.134583,-0.306763,0.742554,-0.580078
1480628813683316,0.134583,-0.306702,0.742554,-0.580078
1480628813707379,0.134521,-0.306702,0.742554,-0.580078
1480628813728937,0.134521,-0.306702,0.742554,-0.580078
1480628813751998,0.134521,-0.306641,0.742554,-0.580078
1480628813766538,0.134521,-0.306641,0.742554,-0.580078
1480628813789100,0.134521,-0.30658,0.742554,-0.580078
1480628813810153,0.134521,-0.306641,0.742554,-0.580078
1480628813826697,0.134521,-0.306641,0.742554,-0.580078
1480628813848755,0.134521,-0.306641,0.742554,-0.580078
1480628813870313,0.134521,-0.306641,0.742554,-0.580078
1480628813886858,0.134521,-0.306641,0.742554,-0.580078
1480628813908915,0.134521,-0.306641,0.742554,-0.580078
1480628813929972,0.134521,-0.30658,0.742554,-0.580078
1480628813946516,0.134521,-0.30658,0.742554,-0.580078
1480628813969076,0.13446,-0.30658,0.742554,-0.580078
1480628813990132,0.13446,-0.306519,0.742615,-0.580078
1480628814006676,0.13446,-0.306519,0.742615,-0.580078
1480628814029236,0.134521,-0.30658,0.742554,-0.580078
1480628814057813,0.134521,-0.30658,0.742554,-0.580078
1480628814066334,0.134705,-0.306763,0.742493,-0.580017
1480628814088898,0.134705,-0.306763,0.742493,-0.580017
1480628814111454,0.134705,-0.306763,0.742493,-0.580017
1480628814126494,0.134705,-0.306763,0.742493,-0.580017
1480628814149054,0.134705,-0.306702,0.742554,-0.580017
1480628814170110,0.134705,-0.306763,0.742493,-0.580078
1480628814186654,0.134705,-0.306702,0.742493,-0.580078
1480628814215231,0.134705,-0.306702,0.742493,-0.580078
1480628814230270,0.134705,-0.306702,0.742493,-0.580078
1480628814246313,0.134766,-0.306702,0.742493,-0.580078
1480628814268874,0.134766,-0.306702,0.742493,-0.580017
1480628814291433,0.134766,-0.306763,0.742493,-0.580017
1480628814306473,0.134766,-0.306763,0.742493,-0.580017
1480628814329033,0.134766,-0.306702,0.742493,-0.580078
1480628814352097,0.134766,-0.306702,0.742493,-0.580078
1480628814366634,0.134888,-0.306763,0.742432,-0.580078
1480628814389194,0.134888,-0.306763,0.742493,-0.580078
1480628814411753,0.134888,-0.306702,0.742493,-0.580078
1480628814425791,0.134888,-0.306702,0.742493,-0.580078
1480628814448852,0.134888,-0.306702,0.742493,-0.580078
1480628814471413,0.134888,-0.306702,0.742493,-0.580017
1480628814494974,0.134949,-0.306702,0.742493,-0.580017
1480628814496479,0.134949,-0.306763,0.742493,-0.580017
1480628814514528,0.134949,-0.306763,0.742432,-0.580017
1480628814537087,0.134949,-0.306763,0.742432,-0.580017
1480628814560650,0.134949,-0.306763,0.742493,-0.580017
1480628814581705,0.134949,-0.306702,0.742493,-0.580017
1480628814596745,0.134949,-0.306702,0.742493,-0.580017
1480628814614794,0.134949,-0.306641,0.742493,-0.580078
1480628814635849,0.134949,-0.306641,0.742493,-0.580017
1480628814656907,0.134949,-0.306702,0.742493,-0.580017
1480628814673449,0.134949,-0.306702,0.742493,-0.580017
1480628814694505,0.13501,-0.306763,0.742493,-0.580017
1480628814717066,0.13501,-0.306763,0.742493,-0.580017
1480628814733610,0.13501,-0.306763,0.742432,-0.580017
1480628814755671,0.13501,-0.306763,0.742493,-0.580017
1480628814776725,0.13501,-0.306763,0.742493,-0.580017
1480628814793269,0.134949,-0.306702,0.742493,-0.580017
1480628814814324,0.134949,-0.306641,0.742493,-0.580017
1480628814839893,0.13501,-0.306641,0.742493,-0.580017
1480628814860949,0.13501,-0.306641,0.742493,-0.580017
1480628814875988,0.13501,-0.306702,0.742493,-0.580017
1480628814897044,0.13501,-0.306702,0.742493,-0.580017
1480628814915092,0.13501,-0.306702,0.742493,-0.580017
1480628814934644,0.13501,-0.306702,0.742493,-0.580017
1480628814956703,0.13501,-0.306702,0.742493,-0.580017
1480628814974751,0.13501,-0.306702,0.742493,-0.580017
1480628815001823,0.13501,-0.306641,0.742493,-0.580017
1480628815016864,0.13501,-0.306641,0.742493,-0.580017
1480628815039423,0.13501,-0.306641,0.742493,-0.580017
1480628815055971,0.13501,-0.30658,0.742493,-0.580017
1480628815084544,0.13501,-0.306641,0.742493,-0.580017
1480628815099583,0.13501,-0.306641,0.742493,-0.580017
1480628815117130,0.135071,-0.306641,0.742493,-0.580017
1480628815139690,0.13501,-0.306641,0.742493,-0.580017
1480628815159744,0.13501,-0.306641,0.742493,-0.580017
1480628815174282,0.13501,-0.306641,0.742493,-0.580017
1480628815196842,0.13501,-0.306641,0.742493,-0.580017
1480628815220907,0.13501,-0.306641,0.742493,-0.580017
1480628815234443,0.13501,-0.30658,0.742554,-0.580017
1480628815257003,0.13501,-0.30658,0.742554,-0.580017
1480628815282570,0.13501,-0.30658,0.742554,-0.580017
1480628815298112,0.13501,-0.30658,0.742554,-0.580017
1480628815316661,0.13501,-0.30658,0.742554,-0.580017
1480628815339221,0.135071,-0.30658,0.742554,-0.580017
1480628815361781,0.135071,-0.30658,0.742554,-0.580017
1480628815376821,0.135071,-0.306641,0.742493,-0.580017
1480628815399380,0.135071,-0.30658,0.742554,-0.580017
1480628815421943,0.135071,-0.30658,0.742554,-0.580017
1480628815436981,0.13501,-0.306519,0.742554,-0.580017
1480628815459541,0.13501,-0.306519,0.742554,-0.580017
1480628815474581,0.13501,-0.306458,0.742554,-0.580017
1480628815497141,0.13501,-0.306458,0.742554,-0.580017
1480628815536244,0.13501,-0.306458,0.742554,-0.580017
1480628815539253,0.135071,-0.306519,0.742554,-0.580017
1480628815556799,0.135071,-0.306519,0.742554,-0.580017
1480628815579359,0.134888,-0.306458,0.742615,-0.580017
1480628815594400,0.134888,-0.306458,0.742615,-0.580017
1480628815616960,0.134888,-0.306458,0.742615,-0.580017
1480628815639519,0.134888,-0.306396,0.742615,-0.580017
1480628815662081,0.134888,-0.306396,0.742615,-0.580017
1480628815677119,0.134827,-0.306335,0.742615,-0.580078
1480628815699178,0.134827,-0.306335,0.742615,-0.580078
1480628815714218,0.134827,-0.306335,0.742615,-0.580078
1480628815736779,0.134827,-0.306335,0.742615,-0.580078
1480628815759338,0.134827,-0.306396,0.742615,-0.580078
1480628815775883,0.134888,-0.306396,0.742615,-0.580017
1480628815804458,0.134888,-0.306396,0.742615,-0.580017
1480628815819500,0.134827,-0.306396,0.742615,-0.580017
1480628815836545,0.134827,-0.306396,0.742615,-0.580017
1480628815857100,0.134827,-0.306396,0.742615,-0.580078
1480628815879157,0.134827,-0.306335,0.742615,-0.580078
1480628815895701,0.134827,-0.306335,0.742615,-0.580078
1480628815916758,0.134827,-0.306335,0.742615,-0.580078
1480628815939317,0.134827,-0.306335,0.742615,-0.580078
1480628815955863,0.134827,-0.306335,0.742615,-0.580078
1480628815976917,0.134827,-0.306335,0.742615,-0.580017
1480628815999477,0.134827,-0.306396,0.742615,-0.580017
1480628816016021,0.134888,-0.306396,0.742615,-0.580017
1480628816037078,0.134827,-0.306335,0.742615,-0.580078
1480628816059637,0.134827,-0.306335,0.742615,-0.580078
1480628816075680,0.134766,-0.305969,0.742798,-0.580017
1480628816096736,0.134766,-0.305908,0.742859,-0.580017
1480628816119800,0.134766,-0.305908,0.742859,-0.580017
1480628816144864,0.134766,-0.305908,0.742859,-0.580017
1480628816156897,0.134766,-0.305908,0.742859,-0.580017
1480628816179456,0.134766,-0.305908,0.742859,-0.580017
1480628816197505,0.134766,-0.305908,0.742859,-0.580017
1480628816218561,0.134766,-0.305908,0.742859,-0.580017
1480628816248139,0.134766,-0.305969,0.742859,-0.580017
1480628816257163,0.134644,-0.305786,0.74292,-0.580017
1480628816279723,0.134644,-0.305725,0.74292,-0.580017
1480628816299274,0.134644,-0.305725,0.74292,-0.580017
1480628816317324,0.134644,-0.305664,0.74292,-0.580078
1480628816336876,0.134644,-0.305664,0.742981,-0.580078
1480628816359435,0.134583,-0.305664,0.742981,-0.580078
1480628816383499,0.134644,-0.305664,0.742981,-0.580078
1480628816397537,0.134644,-0.305664,0.742981,-0.580078
1480628816419594,0.134644,-0.305664,0.742981,-0.580078
1480628816441654,0.134644,-0.305664,0.742981,-0.580078
1480628816456696,0.134644,-0.305664,0.74292,-0.580078
1480628816479754,0.134583,-0.305664,0.74292,-0.580078
1480628816497302,0.134583,-0.305664,0.742981,-0.580078
1480628816516855,0.134583,-0.305603,0.742981,-0.580078
1480628816539414,0.134583,-0.305603,0.742981,-0.580078
1480628816561973,0.134583,-0.305603,0.742981,-0.580078
1480628816577014,0.134583,-0.305603,0.742981,-0.580078
1480628816601086,0.134583,-0.305603,0.742981,-0.580078
1480628816623137,0.134583,-0.305603,0.742981,-0.580078
1480628816639680,0.134583,-0.305603,0.742981,-0.580078
1480628816659232,0.134583,-0.305664,0.742981,-0.580078
1480628816698838,0.134583,-0.305603,0.742981,-0.580078
1480628816702347,0.134583,-0.305603,0.742981,-0.580078
1480628816722402,0.134583,-0.305603,0.742981,-0.580078
1480628816750992,0.134583,-0.305603,0.742981,-0.580078
1480628816756993,0.134583,-0.305542,0.742981,-0.580078
1480628816779552,0.134583,-0.305542,0.742981,-0.580078
1480628816802113,0.134583,-0.305542,0.742981,-0.580078
1480628816818156,0.134583,-0.305542,0.742981,-0.580078
1480628816839211,0.134583,-0.305542,0.742981,-0.580078
1480628816863276,0.134766,-0.305725,0.74292,-0.580078
1480628816878317,0.134766,-0.305725,0.74292,-0.580078
1480628816899372,0.134766,-0.305725,0.74292,-0.580078
1480628816921934,0.134766,-0.305725,0.74292,-0.580078
1480628816939979,0.134705,-0.305664,0.74292,-0.580078
1480628816959531,0.134705,-0.305664,0.74292,-0.580078
1480628816982092,0.134705,-0.305603,0.74292,-0.580078
1480628816999638,0.134827,-0.305725,0.742859,-0.580078
1480628817019191,0.13501,-0.305908,0.742798,-0.580078
1480628817042252,0.13501,-0.305908,0.742798,-0.580078
1480628817058295,0.13501,-0.305969,0.742798,-0.580078
1480628817079350,0.13501,-0.305969,0.742798,-0.580078
1480628817101911,0.13501,-0.305969,0.742737,-0.580078
1480628817119960,0.13501,-0.305969,0.742737,-0.580078
1480628817139510,0.13501,-0.305969,0.742737,-0.580078
1480628817164577,0.13501,-0.305908,0.742798,-0.580078
1480628817180118,0.13501,-0.305908,0.742798,-0.580078
1480628817199169,0.13501,-0.305908,0.742798,-0.580078
1480628817225739,0.13501,-0.305908,0.742798,-0.580078
1480628817247799,0.13501,-0.305908,0.742798,-0.580078
1480628817267351,0.13501,-0.305908,0.742798,-0.580078
1480628817281889,0.13501,-0.305908,0.742798,-0.580078
1480628817299937,0.13501,-0.305908,0.742798,-0.580078
1480628817319489,0.13501,-0.305908,0.742798,-0.580078
1480628817342049,0.13501,-0.305908,0.742798,-0.580078
1480628817360097,0.13501,-0.305908,0.742798,-0.580078
1480628817386668,0.13501,-0.305908,0.742798,-0.580078
1480628817401707,0.13501,-0.305847,0.742798,-0.580078
1480628817419762,0.13501,-0.305847,0.742798,-0.580078
1480628817440812,0.13501,-0.305847,0.742798,-0.580078
1480628817464875,0.13501,-0.305847,0.742798,-0.580078
1480628817479916,0.13501,-0.305847,0.742798,-0.580078
1480628817501473,0.135071,-0.305908,0.742798,-0.580017
1480628817522030,0.135071,-0.305908,0.742798,-0.580017
1480628817539574,0.135071,-0.305908,0.742798,-0.580017
1480628817559627,0.135071,-0.305908,0.742798,-0.580017
1480628817583190,0.135071,-0.305908,0.742798,-0.580017
1480628817602242,0.135071,-0.305847,0.742798,-0.580017
1480628817619287,0.135071,-0.305847,0.742798,-0.580078
1480628817643353,0.13501,-0.305847,0.742798,-0.580078
1480628817659894,0.13501,-0.305847,0.742798,-0.580078
1480628817680951,0.135071,-0.305847,0.742798,-0.580078
1480628817702007,0.135071,-0.305908,0.742798,-0.580017
1480628817720055,0.135071,-0.305908,0.742798,-0.580017
1480628817740610,0.135071,-0.305908,0.742798,-0.580017
1480628817761666,0.135071,-0.305908,0.742798,-0.580017
1480628817779714,0.135071,-0.305908,0.742798,-0.580017
1480628817800779,0.13501,-0.305847,0.742798,-0.580078
1480628817823329,0.13501,-0.305847,0.742798,-0.580078
1480628817839874,0.13501,-0.305847,0.742798,-0.580078
1480628817860929,0.13501,-0.305786,0.742798,-0.580078
1480628817881986,0.13501,-0.305786,0.742798,-0.580078
1480628817900535,0.13501,-0.305786,0.742798,-0.580078
1480628817922594,0.13501,-0.305847,0.742798,-0.580078
1480628817941644,0.135071,-0.305847,0.742798,-0.580078
1480628817959692,0.135071,-0.305847,0.742798,-0.580078
1480628817980750,0.135071,-0.305847,0.742798,-0.580078
1480628818001804,0.13501,-0.305847,0.742798,-0.580078
1480628818024365,0.13501,-0.305847,0.742798,-0.580078
1480628818040908,0.13501,-0.305786,0.742798,-0.580078
1480628818061964,0.13501,-0.305786,0.742798,-0.580078
1480628818084525,0.13501,-0.305786,0.742859,-0.580078
1480628818102573,0.13501,-0.305786,0.742859,-0.580078
1480628818122128,0.13501,-0.305786,0.742798,-0.580078
1480628818144183,0.13501,-0.305786,0.742798,-0.580078
1480628818166743,0.135071,-0.305786,0.742798,-0.580078
1480628818181783,0.135071,-0.305847,0.742798,-0.580078
1480628818204344,0.135071,-0.305847,0.742798,-0.580078
1480628818222392,0.135071,-0.305786,0.742798,-0.580078
1480628818241943,0.13501,-0.305786,0.742798,-0.580078
1480628818264503,0.13501,-0.305786,0.742859,-0.580078
1480628818282551,0.13501,-0.305725,0.742859,-0.580078
1480628818303607,0.13501,-0.305725,0.742859,-0.580078
1480628818324162,0.13501,-0.305725,0.742859,-0.580078
1480628818342209,0.13501,-0.305725,0.742859,-0.580078
1480628818361762,0.13501,-0.305725,0.742859,-0.580078
1480628818384322,0.13501,-0.305725,0.742859,-0.580078
1480628818403373,0.13501,-0.305786,0.742859,-0.580078
1480628818424930,0.13501,-0.305786,0.742859,-0.580078
1480628818444481,0.13501,-0.305725,0.742859,-0.580078
1480628818462531,0.13501,-0.305725,0.742859,-0.580078
1480628818482082,0.13501,-0.305664,0.742859,-0.580078
1480628818504644,0.13501,-0.305664,0.742859,-0.580078
1480628818522189,0.13501,-0.305664,0.742859,-0.580078
1480628818541741,0.13501,-0.305664,0.742859,-0.580078
1480628818564301,0.13501,-0.305664,0.742859,-0.580078
1480628818582352,0.13501,-0.305725,0.742859,-0.580078
1480628818601900,0.13501,-0.305725,0.742859,-0.580078
1480628818624462,0.13501,-0.305725,0.742859,-0.580078
1480628818642509,0.13501,-0.305664,0.742859,-0.580078
1480628818662061,0.13501,-0.305664,0.742859,-0.580078
1480628818684621,0.134949,-0.305664,0.742859,-0.580078
1480628818702168,0.134949,-0.305664,0.742859,-0.580078
1480628818723226,0.13501,-0.305664,0.742859,-0.580078
1480628818744279,0.13501,-0.305603,0.742859,-0.580078
1480628818762327,0.13501,-0.305603,0.742859,-0.580078
1480628818783384,0.13501,-0.305664,0.742859,-0.580078
1480628818804441,0.13501,-0.305664,0.742859,-0.580078
1480628818830007,0.13501,-0.305664,0.742859,-0.580078
1480628818858082,0.13501,-0.305664,0.742859,-0.580078
1480628818864599,0.13501,-0.305664,0.742859,-0.580078
1480628818887160,0.13501,-0.305664,0.742859,-0.580078
1480628818910723,0.13501,-0.305603,0.742859,-0.580078
1480628818924264,0.13501,-0.305603,0.74292,-0.580078
1480628818942306,0.13501,-0.305542,0.74292,-0.580078
1480628818972386,0.13501,-0.305542,0.74292,-0.580078
1480628818984419,0.13501,-0.305542,0.74292,-0.580078
1480628819002466,0.13501,-0.305603,0.74292,-0.580078
1480628819025530,0.13501,-0.305603,0.74292,-0.580078
1480628819044579,0.135132,-0.305786,0.742798,-0.580078
1480628819062126,0.135132,-0.305725,0.742859,-0.580078
1480628819084686,0.135132,-0.305725,0.742859,-0.580078
1480628819104741,0.135132,-0.305725,0.742859,-0.580078
1480628819134317,0.135071,-0.305664,0.742859,-0.580078
1480628819152365,0.135071,-0.305603,0.742859,-0.580078
1480628819164397,0.135071,-0.305603,0.742859,-0.580078
1480628819186960,0.135071,-0.305603,0.742859,-0.580078
1480628819221552,0.135071,-0.305603,0.742859,-0.580078
1480628819226563,0.135071,-0.305603,0.742859,-0.580078
1480628819242608,0.135071,-0.305603,0.742859,-0.580078
1480628819264664,0.135071,-0.305664,0.742859,-0.580078
1480628819284217,0.135071,-0.305603,0.742859,-0.580078
1480628819302264,0.135071,-0.305603,0.742859,-0.580078
1480628819330840,0.135071,-0.305542,0.742859,-0.580078
1480628819344377,0.13501,-0.305542,0.74292,-0.580078
1480628819362925,0.13501,-0.305481,0.74292,-0.580139
1480628819384985,0.135193,-0.305542,0.742859,-0.580139
1480628819404535,0.135193,-0.305542,0.742859,-0.580078
1480628819422085,0.135193,-0.305542,0.742859,-0.580078
1480628819445145,0.135193,-0.305542,0.742859,-0.580139
1480628819471716,0.135193,-0.305542,0.742859,-0.580139
1480628819486755,0.135254,-0.305664,0.742798,-0.580078
1480628819504802,0.135254,-0.305664,0.742798,-0.580078
1480628819524354,0.135254,-0.305603,0.742859,-0.580078
1480628819546915,0.135254,-0.305603,0.742859,-0.580078
1480628819565464,0.135254,-0.305542,0.742859,-0.580078
1480628819584515,0.135254,-0.305542,0.742859,-0.580078
1480628819607075,0.135254,-0.305542,0.742859,-0.580078
1480628819624622,0.135254,-0.305542,0.742859,-0.580078
1480628819645678,0.135254,-0.305542,0.742859,-0.580078
1480628819674254,0.135254,-0.305542,0.742859,-0.580078
1480628819684782,0.135254,-0.305603,0.742859,-0.580078
1480628819705837,0.135254,-0.305603,0.742859,-0.580078
1480628819726893,0.135193,-0.305542,0.742859,-0.580139
1480628819744942,0.135315,-0.305664,0.742798,-0.580139
1480628819773517,0.135315,-0.305603,0.742798,-0.580139
1480628819787054,0.135315,-0.305603,0.742798,-0.580139
1480628819805102,0.135315,-0.305542,0.742798,-0.580139
1480628819825657,0.135254,-0.305542,0.742798,-0.580139
1480628819848217,0.135254,-0.305542,0.742798,-0.580139
1480628819864761,0.135315,-0.305542,0.742798,-0.580139
1480628819885817,0.135315,-0.305603,0.742798,-0.580139
1480628819906873,0.135254,-0.305603,0.742798,-0.580139
1480628819929432,0.135254,-0.305603,0.742798,-0.580139
1480628819947480,0.135254,-0.305603,0.742798,-0.580139
1480628819967036,0.135254,-0.305542,0.742798,-0.580139
1480628819985082,0.135254,-0.305542,0.742798,-0.580139
1480628820008142,0.135254,-0.305481,0.742798,-0.5802
1480628820026692,0.135315,-0.305542,0.742798,-0.580139
1480628820050756,0.135315,-0.305542,0.742798,-0.580139
1480628820067299,0.135315,-0.305542,0.742798,-0.580139
1480628820086853,0.135315,-0.305542,0.742798,-0.580139
1480628820109411,0.135315,-0.305603,0.742798,-0.580139
1480628820131973,0.135315,-0.305603,0.742798,-0.580139
1480628820147012,0.135315,-0.305603,0.742737,-0.5802
1480628820164559,0.135315,-0.305603,0.742737,-0.5802
1480628820187622,0.135437,-0.305664,0.742737,-0.5802
1480628820215695,0.135559,-0.305664,0.742676,-0.580139
1480628820224719,0.135559,-0.305664,0.742737,-0.580139
1480628820248782,0.135559,-0.305664,0.742737,-0.580139
1480628820274349,0.135559,-0.305664,0.742676,-0.580139
1480628820296910,0.135559,-0.305664,0.742676,-0.580139
1480628820308441,0.135742,-0.305908,0.742615,-0.580139
1480628820329999,0.135742,-0.305908,0.742615,-0.580139
1480628820344536,0.135742,-0.305908,0.742615,-0.580139
1480628820367598,0.135681,-0.305908,0.742615,-0.580139
1480628820388655,0.135742,-0.30603,0.742554,-0.580139
1480628820426254,0.135742,-0.305969,0.742554,-0.580139
1480628820428761,0.135742,-0.305969,0.742554,-0.580139
1480628820446809,0.135742,-0.305908,0.742554,-0.580139
1480628820472376,0.135742,-0.305908,0.742554,-0.580139
1480628820487421,0.135742,-0.305908,0.742554,-0.580139
1480628820506975,0.135742,-0.305908,0.742554,-0.580139
1480628820525017,0.135742,-0.305969,0.742554,-0.580139
1480628820547577,0.135742,-0.305969,0.742554,-0.580139
1480628820574649,0.135742,-0.305969,0.742554,-0.580139
1480628820589187,0.135742,-0.305969,0.742554,-0.580139
1480628820607236,0.135742,-0.305969,0.742554,-0.580139
1480628820628291,0.135742,-0.305908,0.742554,-0.580139
1480628820644836,0.135742,-0.305908,0.742554,-0.580139
1480628820667395,0.135681,-0.305908,0.742554,-0.5802
1480628820688453,0.135681,-0.305908,0.742554,-0.5802
1480628820717028,0.135742,-0.305908,0.742554,-0.5802
1480628820727556,0.135742,-0.305908,0.742554,-0.580139
1480628820748615,0.135742,-0.305908,0.742554,-0.580139
1480628820766158,0.135742,-0.305908,0.742554,-0.580139
1480628820787717,0.135742,-0.305969,0.742554,-0.580139
1480628820808270,0.135742,-0.305908,0.742554,-0.580139
1480628820824816,0.135742,-0.305908,0.742554,-0.580139
1480628820854898,0.135742,-0.305847,0.742554,-0.580139
1480628820869433,0.135742,-0.305847,0.742615,-0.5802
1480628820884975,0.135742,-0.305847,0.742615,-0.5802
1480628820907535,0.135681,-0.305725,0.742676,-0.5802
1480628820935609,0.135681,-0.305725,0.742676,-0.5802
1480628820949145,0.135681,-0.305725,0.742615,-0.5802
1480628820967193,0.135681,-0.305725,0.742615,-0.5802
1480628820990757,0.135681,-0.305786,0.742615,-0.580139
1480628821009305,0.135681,-0.305786,0.742615,-0.5802
1480628821027354,0.13562,-0.305786,0.742615,-0.5802
1480628821049913,0.13562,-0.305725,0.742615,-0.5802
1480628821069466,0.13562,-0.305725,0.742676,-0.5802
1480628821087517,0.13562,-0.305664,0.742676,-0.5802
1480628821109572,0.13562,-0.305664,0.742676,-0.5802
1480628821129625,0.13562,-0.305664,0.742676,-0.5802
1480628821147172,0.13562,-0.305664,0.742676,-0.5802
1480628821169732,0.13562,-0.305725,0.742676,-0.5802
1480628821189284,0.13562,-0.305725,0.742676,-0.5802
1480628821207333,0.13562,-0.305725,0.742676,-0.5802
1480628821230895,0.13562,-0.305725,0.742676,-0.5802
1480628821249444,0.13562,-0.305664,0.742676,-0.5802
1480628821267492,0.13562,-0.305664,0.742676,-0.5802
1480628821294565,0.13562,-0.305603,0.742676,-0.5802
1480628821316623,0.13562,-0.305603,0.742676,-0.5802
1480628821327652,0.13562,-0.305603,0.742676,-0.5802
1480628821349209,0.13562,-0.305603,0.742676,-0.5802
1480628821370770,0.13562,-0.305664,0.742676,-0.5802
1480628821386810,0.13562,-0.305664,0.742676,-0.5802
1480628821408868,0.13562,-0.305725,0.742676,-0.5802
1480628821430425,0.13562,-0.305725,0.742676,-0.5802
1480628821446469,0.13562,-0.305664,0.742676,-0.5802
1480628821469029,0.13562,-0.305664,0.742676,-0.5802
1480628821490085,0.13562,-0.305664,0.742676,-0.5802
1480628821506628,0.135559,-0.305603,0.742676,-0.5802
1480628821529188,0.135559,-0.305603,0.742676,-0.5802
1480628821550245,0.135559,-0.305603,0.742676,-0.5802
1480628821566287,0.135559,-0.305603,0.742676,-0.5802
1480628821589349,0.135559,-0.305603,0.742676,-0.5802
1480628821609903,0.135559,-0.305603,0.742676,-0.5802
1480628821633967,0.135559,-0.305603,0.742676,-0.5802
1480628821649007,0.135559,-0.305603,0.742676,-0.5802
1480628821672069,0.135559,-0.305603,0.742676,-0.5802
1480628821692625,0.135559,-0.305603,0.742676,-0.5802
1480628821709167,0.135559,-0.305603,0.742676,-0.5802
1480628821730223,0.135559,-0.305603,0.742676,-0.5802
1480628821746266,0.135559,-0.305542,0.742676,-0.580261
1480628821769328,0.135559,-0.305542,0.742676,-0.580261
1480628821797404,0.13562,-0.305664,0.742615,-0.580261
1480628821806425,0.135681,-0.305725,0.742615,-0.580261
1480628821828986,0.13562,-0.305725,0.742615,-0.580261
1480628821859066,0.13562,-0.305725,0.742615,-0.580261
1480628821866587,0.13562,-0.305725,0.742615,-0.580261
1480628821889147,0.13562,-0.305725,0.742615,-0.580261
1480628821911706,0.13562,-0.305664,0.742615,-0.580261
1480628821926746,0.135559,-0.305664,0.742615,-0.580261
1480628821948805,0.135559,-0.305664,0.742615,-0.580261
1480628821971364,0.135559,-0.305603,0.742615,-0.580261
1480628821986955,0.135559,-0.305603,0.742615,-0.580261
1480628822008965,0.135559,-0.305664,0.742615,-0.580261
1480628822032527,0.135559,-0.305664,0.742615,-0.580261
1480628822046063,0.135559,-0.305664,0.742615,-0.580261
1480628822069626,0.13562,-0.305664,0.742615,-0.580261
1480628822091685,0.13562,-0.305664,0.742615,-0.580261
1480628822105723,0.135559,-0.305603,0.742615,-0.580261
1480628822128783,0.135559,-0.305603,0.742615,-0.580261
1480628822151344,0.135559,-0.305542,0.742676,-0.580322
1480628822165883,0.135559,-0.305542,0.742676,-0.580322
1480628822188945,0.135498,-0.305481,0.742676,-0.580322
1480628822211505,0.135498,-0.305481,0.742676,-0.580322
1480628822226042,0.135498,-0.305542,0.742676,-0.580322
1480628822249103,0.135498,-0.305542,0.742676,-0.580322
1480628822271663,0.135498,-0.305542,0.742615,-0.580322
1480628822285702,0.135498,-0.305542,0.742676,-0.580322
1480628822308762,0.135437,-0.305542,0.742676,-0.580322
1480628822331323,0.135437,-0.305542,0.742676,-0.580322
1480628822352380,0.135437,-0.305481,0.742676,-0.580322
1480628822374939,0.135437,-0.30542,0.742676,-0.580322
1480628822391483,0.135437,-0.30542,0.742676,-0.580322
1480628822414042,0.135437,-0.30542,0.742676,-0.580322
1480628822429082,0.135437,-0.30542,0.742676,-0.580322
1480628822465679,0.135437,-0.30542,0.742676,-0.580322
1480628822472698,0.135437,-0.30542,0.742676,-0.580322
1480628822496261,0.135437,-0.30542,0.742676,-0.580322
1480628822511802,0.135437,-0.305481,0.742676,-0.580322
1480628822532357,0.135376,-0.30542,0.742676,-0.580383
1480628822548901,0.135376,-0.30542,0.742676,-0.580383
1480628822571462,0.135376,-0.305359,0.742676,-0.580383
1480628822592517,0.135376,-0.305359,0.742676,-0.580383
1480628822609062,0.135315,-0.305298,0.742737,-0.580383
1480628822631622,0.135315,-0.305359,0.742737,-0.580383
1480628822652679,0.135315,-0.305359,0.742676,-0.580383
1480628822670225,0.135315,-0.305359,0.742676,-0.580383
1480628822691280,0.135376,-0.305359,0.742676,-0.580383
1480628822712335,0.135315,-0.305359,0.742676,-0.580383
1480628822743920,0.135315,-0.305359,0.742676,-0.580383
1480628822752443,0.135315,-0.305359,0.742676,-0.580383
1480628822774501,0.135315,-0.305298,0.742737,-0.580383
1480628822789041,0.135315,-0.305298,0.742737,-0.580383
1480628822811600,0.135254,-0.305237,0.742737,-0.580444
1480628822834161,0.135254,-0.305237,0.742737,-0.580444
1480628822849701,0.135254,-0.305237,0.742737,-0.580444
1480628822871259,0.135254,-0.305237,0.742737,-0.580383
1480628822902843,0.135254,-0.305237,0.742737,-0.580383
1480628822909861,0.135254,-0.305298,0.742737,-0.580383
1480628822931920,0.135254,-0.305298,0.742737,-0.580383
1480628822953980,0.135254,-0.305298,0.742737,-0.580383
1480628822968519,0.135254,-0.305237,0.742737,-0.580444
1480628822992582,0.135254,-0.305237,0.742737,-0.580444
1480628823021659,0.135254,-0.305176,0.742737,-0.580444
1480628823028177,0.135254,-0.305176,0.742737,-0.580444
1480628823051740,0.135254,-0.305176,0.742737,-0.580444
1480628823073797,0.135254,-0.305176,0.742737,-0.580444
1480628823096360,0.135254,-0.305176,0.742737,-0.580444
1480628823111399,0.135254,-0.305237,0.742737,-0.580444
1480628823134460,0.135254,-0.305237,0.742737,-0.580444
1480628823150001,0.135254,-0.305237,0.742737,-0.580444
1480628823172059,0.135254,-0.305237,0.742737,-0.580444
1480628823194118,0.135193,-0.305237,0.742737,-0.580444
1480628823208656,0.135193,-0.305237,0.742737,-0.580444
1480628823232219,0.135193,-0.305176,0.742737,-0.580444
1480628823253777,0.135193,-0.305176,0.742737,-0.580444
1480628823268315,0.135193,-0.305176,0.742737,-0.580444
1480628823298896,0.135193,-0.305176,0.742737,-0.580444
1480628823313936,0.135254,-0.305237,0.742737,-0.580444
1480628823335996,0.135193,-0.305115,0.742798,-0.580444
1480628823351538,0.135193,-0.305115,0.742737,-0.580444
1480628823374097,0.135193,-0.305176,0.742737,-0.580444
1480628823395152,0.135193,-0.305176,0.742737,-0.580444
1480628823411696,0.135193,-0.305115,0.742798,-0.580444
1480628823440272,0.135193,-0.305115,0.742798,-0.580444
1480628823454811,0.135132,-0.305054,0.742798,-0.580444
1480628823471355,0.135193,-0.305054,0.742798,-0.580444
1480628823495420,0.135193,-0.305054,0.742798,-0.580444
1480628823514972,0.135193,-0.305054,0.742798,-0.580444
1480628823531516,0.135193,-0.305115,0.742798,-0.580444
1480628823554076,0.135193,-0.305115,0.742798,-0.580444
1480628823576636,0.135193,-0.305115,0.742737,-0.580444
1480628823599195,0.135193,-0.305115,0.742737,-0.580444
1480628823613736,0.135193,-0.305115,0.742798,-0.580444
1480628823635294,0.135193,-0.305115,0.742798,-0.580444
1480628823651337,0.135132,-0.305054,0.742798,-0.580444
1480628823673897,0.135132,-0.305054,0.742798,-0.580444
1480628823694950,0.135132,-0.304993,0.742798,-0.580444
1480628823711498,0.135193,-0.304993,0.742798,-0.580444
1480628823734555,0.135193,-0.304993,0.742798,-0.580444
1480628823755173,0.135193,-0.305054,0.742798,-0.580444
1480628823771654,0.135193,-0.305054,0.742798,-0.580444
1480628823801735,0.135193,-0.305115,0.742798,-0.580444
1480628823832817,0.135193,-0.305054,0.742798,-0.580444
1480628823837333,0.135132,-0.305054,0.742798,-0.580444
1480628823854378,0.135132,-0.304993,0.742798,-0.580444
1480628823883953,0.135132,-0.304993,0.742798,-0.580505
1480628823891473,0.135132,-0.304932,0.742798,-0.580505
1480628823914034,0.135071,-0.304932,0.742798,-0.580505
1480628823936595,0.135132,-0.304932,0.742798,-0.580505
1480628823950630,0.135132,-0.304932,0.742798,-0.580505
1480628823974193,0.135132,-0.304993,0.742798,-0.580505
1480628823996251,0.135132,-0.304993,0.742798,-0.580505
1480628824018813,0.135132,-0.304993,0.742798,-0.580505
1480628824033852,0.135132,-0.304993,0.742798,-0.580505
1480628824056412,0.135071,-0.304993,0.742798,-0.580505
1480628824077468,0.135132,-0.304993,0.742798,-0.580505
1480628824095014,0.135132,-0.304932,0.742798,-0.580505
1480628824116571,0.135132,-0.304932,0.742798,-0.580505
1480628824131613,0.135132,-0.304932,0.742798,-0.580505
1480628824154174,0.135132,-0.304993,0.742798,-0.580505
1480628824176731,0.135132,-0.304993,0.742798,-0.580505
1480628824190770,0.13501,-0.304993,0.742859,-0.580444
1480628824213832,0.134827,-0.304932,0.74292,-0.580444
1480628824236391,0.134644,-0.304688,0.743042,-0.580444
1480628824257448,0.134644,-0.304688,0.743042,-0.580444
1480628824273990,0.134583,-0.304626,0.743042,-0.580505
1480628824296550,0.134583,-0.304626,0.743042,-0.580505
1480628824326631,0.134583,-0.304565,0.743042,-0.580505
1480628824334151,0.134583,-0.304565,0.743042,-0.580505
1480628824356710,0.134399,-0.304443,0.743103,-0.580505
1480628824384786,0.134094,-0.304321,0.743225,-0.580566
1480628824393810,0.133911,-0.30426,0.743225,-0.580688
1480628824416369,0.133911,-0.30426,0.743164,-0.580688
1480628824438930,0.133911,-0.30426,0.743225,-0.580688
1480628824453970,0.134094,-0.304382,0.743103,-0.580627
1480628824476530,0.134094,-0.304382,0.743103,-0.580627
1480628824497586,0.134094,-0.304382,0.743103,-0.580627
1480628824514129,0.134033,-0.304321,0.743103,-0.580688
1480628824536690,0.134033,-0.304321,0.743164,-0.580688
1480628824565266,0.134033,-0.304321,0.743164,-0.580688
1480628824573788,0.133911,-0.304199,0.743164,-0.580688
1480628824603868,0.13385,-0.304077,0.743225,-0.58075
1480628824618908,0.133728,-0.304016,0.743225,-0.58075
1480628824633948,0.133728,-0.304016,0.743225,-0.58075
1480628824656515,0.133728,-0.304016,0.743225,-0.58075
1480628824685085,0.133728,-0.304016,0.743225,-0.58075
1480628824694109,0.133667,-0.304016,0.743225,-0.58075
1480628824716668,0.133667,-0.303955,0.743286,-0.58075
1480628824738727,0.133667,-0.303955,0.743286,-0.58075
1480628824759783,0.133667,-0.303955,0.743286,-0.58075
1480628824776327,0.133667,-0.303955,0.743286,-0.58075
1480628824799389,0.133667,-0.303955,0.743286,-0.58075
1480628824813927,0.133545,-0.303772,0.743347,-0.580811
1480628824835986,0.133545,-0.303772,0.743347,-0.580811
1480628824859047,0.133545,-0.303772,0.743347,-0.580811
1480628824881608,0.133545,-0.303772,0.743347,-0.580811
1480628824897149,0.133545,-0.303772,0.743347,-0.580811
1480628824919207,0.133545,-0.303772,0.743347,-0.580811
1480628824941266,0.133545,-0.303772,0.743347,-0.580811
1480628824956306,0.133545,-0.303711,0.743347,-0.580811
1480628824978866,0.133484,-0.303711,0.743347,-0.580811
1480628824993405,0.133484,-0.303711,0.743347,-0.580811
1480628825016466,0.133484,-0.303711,0.743347,-0.580811
1480628825039026,0.133545,-0.303711,0.743347,-0.580811
1480628825054067,0.133545,-0.303711,0.743347,-0.580811
1480628825077127,0.133545,-0.303772,0.743347,-0.580811
1480628825105202,0.133484,-0.303589,0.743469,-0.58075
1480628825120245,0.133423,-0.303528,0.743469,-0.580811
1480628825136791,0.133423,-0.303528,0.743469,-0.580811
1480628825158844,0.133423,-0.303528,0.743469,-0.580811
1480628825173383,0.133423,-0.303467,0.743469,-0.580811
1480628825196446,0.133362,-0.303467,0.743469,-0.580811
1480628825219007,0.133362,-0.303406,0.743469,-0.580811
1480628825240061,0.133545,-0.303528,0.743408,-0.580811
1480628825256604,0.13385,-0.303833,0.743286,-0.58075
1480628825279164,0.134094,-0.304138,0.743164,-0.580688
1480628825300221,0.134094,-0.304199,0.743164,-0.580688
1480628825316264,0.134094,-0.304199,0.743164,-0.580688
1480628825338823,0.134094,-0.304199,0.743164,-0.580688
1480628825359882,0.134094,-0.304138,0.743164,-0.580688
1480628825383944,0.134094,-0.304138,0.743164,-0.58075
1480628825405505,0.134094,-0.304077,0.743164,-0.58075
1480628825420545,0.134094,-0.304077,0.743164,-0.58075
1480628825436585,0.134033,-0.304077,0.743164,-0.58075
1480628825459143,0.134033,-0.304077,0.743164,-0.58075
1480628825480200,0.134033,-0.304077,0.743164,-0.58075
1480628825496243,0.134033,-0.304077,0.743164,-0.58075
1480628825519304,0.134033,-0.304077,0.743164,-0.58075
1480628825540360,0.134033,-0.304077,0.743164,-0.58075
1480628825556905,0.134033,-0.304077,0.743164,-0.58075
1480628825578962,0.133972,-0.304077,0.743164,-0.58075
1480628825600018,0.133972,-0.304016,0.743164,-0.58075
1480628825616563,0.133972,-0.304016,0.743225,-0.58075
1480628825639122,0.133972,-0.303955,0.743225,-0.58075
1480628825660178,0.133972,-0.303955,0.743225,-0.58075
1480628825683773,0.134033,-0.304138,0.743103,-0.580811
1480628825699815,0.134216,-0.304321,0.742981,-0.580811
1480628825721372,0.134216,-0.304382,0.742981,-0.580811
1480628825736420,0.134216,-0.304382,0.742981,-0.580811
1480628825759474,0.134277,-0.304443,0.74292,-0.580872
1480628825781533,0.134338,-0.304565,0.742798,-0.580872
1480628825796573,0.13446,-0.304565,0.742798,-0.580872
1480628825819133,0.13446,-0.304565,0.742798,-0.580933
1480628825841692,0.13446,-0.304565,0.742798,-0.580933
1480628825855730,0.13446,-0.304565,0.742798,-0.580872
1480628825879292,0.13446,-0.304565,0.742798,-0.580872
1480628825901351,0.13446,-0.304565,0.742798,-0.580872
1480628825915890,0.134521,-0.304626,0.742798,-0.580872
1480628825938951,0.134521,-0.304626,0.742798,-0.580872
1480628825962013,0.134521,-0.304626,0.742737,-0.580872
1480628825976050,0.13446,-0.304626,0.742798,-0.580872
1480628825999111,0.13446,-0.304565,0.742798,-0.580872
1480628826021671,0.13446,-0.304565,0.742798,-0.580933
1480628826035708,0.13446,-0.304504,0.742798,-0.580933
1480628826066290,0.13446,-0.304504,0.742798,-0.580933
1480628826081330,0.134583,-0.304626,0.742737,-0.580872
1480628826095869,0.134827,-0.304749,0.742676,-0.580872
1480628826119432,0.134827,-0.30481,0.742676,-0.580811
1480628826141489,0.134827,-0.30481,0.742676,-0.580811
1480628826162546,0.134888,-0.304871,0.742676,-0.580811
1480628826187112,0.134888,-0.304871,0.742676,-0.580811
1480628826201650,0.134888,-0.304871,0.742676,-0.580811
1480628826222706,0.134888,-0.30481,0.742676,-0.580811
1480628826244765,0.134827,-0.304749,0.742676,-0.580811
1480628826267828,0.134827,-0.304749,0.742676,-0.580872
1480628826282365,0.134827,-0.304749,0.742676,-0.580872
1480628826298909,0.134827,-0.304749,0.742676,-0.580872
1480628826321469,0.134827,-0.304749,0.742676,-0.580811
1480628826343528,0.134827,-0.304749,0.742676,-0.580811
1480628826359069,0.134888,-0.30481,0.742676,-0.580811
1480628826381629,0.134827,-0.30481,0.742676,-0.580811
1480628826410204,0.13501,-0.304932,0.742615,-0.580811
1480628826419732,0.13501,-0.304932,0.742615,-0.580811
1480628826442290,0.13501,-0.304932,0.742615,-0.580811
1480628826463847,0.13501,-0.304871,0.742615,-0.580811
1480628826478889,0.13501,-0.304871,0.742615,-0.580811
1480628826501450,0.13501,-0.304871,0.742615,-0.580811
1480628826523507,0.13501,-0.304871,0.742615,-0.580811
1480628826539047,0.13501,-0.304871,0.742615,-0.580811
1480628826561608,0.135071,-0.304871,0.742615,-0.580811
1480628826582663,0.135071,-0.304932,0.742615,-0.580811
1480628826598706,0.134949,-0.304871,0.742676,-0.580811
1480628826621267,0.134949,-0.30481,0.742676,-0.580811
1480628826643826,0.134949,-0.30481,0.742676,-0.580811
1480628826658365,0.134949,-0.30481,0.742676,-0.580811
1480628826688946,0.134888,-0.304749,0.742676,-0.580811
1480628826703988,0.134888,-0.304749,0.742676,-0.580811
1480628826719528,0.134888,-0.304749,0.742676,-0.580811
1480628826741588,0.134888,-0.304749,0.742676,-0.580811
1480628826764146,0.134949,-0.304749,0.742676,-0.580811
1480628826778184,0.134949,-0.304749,0.742676,-0.580811
1480628826802248,0.134949,-0.30481,0.742676,-0.580811
1480628826823805,0.134949,-0.30481,0.742676,-0.580811
1480628826838346,0.134949,-0.30481,0.742676,-0.580811
1480628826861405,0.134949,-0.30481,0.742676,-0.580811
1480628826883965,0.134888,-0.304749,0.742676,-0.580811
1480628826905022,0.134888,-0.304688,0.742676,-0.580811
1480628826921566,0.134888,-0.304688,0.742676,-0.580811
1480628826944125,0.134888,-0.304688,0.742676,-0.580811
1480628826966687,0.134888,-0.304688,0.742676,-0.580811
1480628826988744,0.134949,-0.304688,0.742676,-0.580811
1480628827003783,0.134949,-0.304749,0.742676,-0.580811
1480628827018323,0.134949,-0.304749,0.742676,-0.580811
1480628827041384,0.134949,-0.304749,0.742676,-0.580811
1480628827063944,0.134888,-0.304749,0.742676,-0.580811
1480628827078482,0.134888,-0.304688,0.742676,-0.580811
1480628827101547,0.134888,-0.304688,0.742676,-0.580872
1480628827124105,0.134827,-0.304626,0.742737,-0.580872
1480628827145160,0.134827,-0.304626,0.742737,-0.580872
1480628827161203,0.134827,-0.304626,0.742737,-0.580872
1480628827184264,0.134888,-0.304688,0.742676,-0.580872
1480628827204819,0.134888,-0.304688,0.742676,-0.580872
1480628827221363,0.134888,-0.304688,0.742676,-0.580811
1480628827243923,0.134888,-0.304688,0.742676,-0.580811
1480628827264979,0.134888,-0.304688,0.742676,-0.580811
1480628827281523,0.134888,-0.304688,0.742676,-0.580872
1480628827304083,0.134827,-0.304688,0.742676,-0.580872
1480628827326642,0.134827,-0.304626,0.742737,-0.580872
1480628827341683,0.134827,-0.304626,0.742737,-0.580872
1480628827363743,0.134827,-0.304626,0.742737,-0.580872
1480628827384800,0.134827,-0.304626,0.742737,-0.580872
1480628827401342,0.134827,-0.304626,0.742737,-0.580872
1480628827423901,0.134827,-0.304688,0.742676,-0.580872
1480628827452479,0.134827,-0.304688,0.742676,-0.580872
1480628827461501,0.134827,-0.304688,0.742676,-0.580872
1480628827492584,0.134827,-0.304688,0.742676,-0.580872
1480628827505121,0.134827,-0.304688,0.742676,-0.580872
1480628827521665,0.134766,-0.304626,0.742737,-0.580872
1480628827544222,0.134766,-0.304626,0.742737,-0.580872
1480628827566281,0.134766,-0.304565,0.742737,-0.580872
1480628827581321,0.134766,-0.304565,0.742737,-0.580872
1480628827603880,0.134766,-0.304626,0.742737,-0.580872
1480628827626441,0.134766,-0.304626,0.742737,-0.580872
1480628827642484,0.134766,-0.304626,0.742676,-0.580872
1480628827664041,0.134766,-0.304626,0.742676,-0.580872
1480628827686602,0.134766,-0.304626,0.742676,-0.580872
1480628827701642,0.134766,-0.304626,0.742737,-0.580872
1480628827724200,0.134766,-0.304626,0.742737,-0.580872
1480628827753781,0.134705,-0.304565,0.742737,-0.580872
1480628827767821,0.134705,-0.304565,0.742737,-0.580933
1480628827783859,0.134888,-0.304688,0.742615,-0.580933
1480628827806420,0.134888,-0.304688,0.742615,-0.580933
1480628827820968,0.134888,-0.304688,0.742615,-0.580933
1480628827843518,0.134888,-0.304688,0.742615,-0.580933
1480628827866579,0.134888,-0.304749,0.742615,-0.580933
1480628827880616,0.134888,-0.304749,0.742615,-0.580933
1480628827904179,0.134888,-0.304749,0.742615,-0.580933
1480628827927240,0.134827,-0.304688,0.742615,-0.580933
1480628827947294,0.134827,-0.304688,0.742615,-0.580933
1480628827964841,0.134827,-0.304688,0.742615,-0.580933
1480628827986400,0.134827,-0.304626,0.742676,-0.580933
1480628828000937,0.134827,-0.304626,0.742676,-0.580933
1480628828023999,0.134827,-0.304626,0.742676,-0.580933
1480628828046558,0.134827,-0.304626,0.742676,-0.580933
1480628828067614,0.134827,-0.304626,0.742676,-0.580933
1480628828097694,0.134827,-0.304626,0.742615,-0.580933
1480628828106718,0.134827,-0.304626,0.742615,-0.580933
1480628828127273,0.134827,-0.304626,0.742676,-0.580933
1480628828144820,0.134766,-0.304626,0.742676,-0.580933
1480628828172393,0.134766,-0.304565,0.742676,-0.580994
1480628828188937,0.134705,-0.304565,0.742676,-0.580994
1480628828204980,0.134705,-0.304565,0.742676,-0.580994
1480628828226537,0.134705,-0.304504,0.742676,-0.580994
1480628828247594,0.134705,-0.304504,0.742676,-0.580994
1480628828264639,0.134705,-0.304565,0.742676,-0.580994
1480628828287700,0.134705,-0.304565,0.742676,-0.580994
1480628828307251,0.134705,-0.304565,0.742676,-0.580994
1480628828324799,0.134705,-0.304565,0.742676,-0.580994
1480628828346356,0.134705,-0.304565,0.742676,-0.580994
1480628828367413,0.134705,-0.304504,0.742676,-0.580994
1480628828383957,0.134644,-0.304504,0.742676,-0.580994
1480628828406516,0.134644,-0.304504,0.742676,-0.580994
1480628828427573,0.134644,-0.304443,0.742676,-0.580994
1480628828450131,0.134644,-0.304443,0.742676,-0.580994
1480628828466676,0.134644,-0.304443,0.742676,-0.580994
1480628828487231,0.134644,-0.304443,0.742676,-0.580994
1480628828503775,0.134644,-0.304504,0.742676,-0.580994
1480628828526335,0.134827,-0.304688,0.742615,-0.580994
1480628828548895,0.134827,-0.304688,0.742615,-0.580994
1480628828563935,0.134827,-0.304626,0.742615,-0.580994
1480628828592510,0.134827,-0.304626,0.742615,-0.580994
1480628828609055,0.134766,-0.304565,0.742615,-0.580994
1480628828624095,0.134766,-0.304565,0.742615,-0.580994
1480628828646655,0.134766,-0.304504,0.742615,-0.580994
1480628828669718,0.134766,-0.304504,0.742615,-0.580994
1480628828683253,0.134766,-0.304504,0.742615,-0.580994
1480628828707333,0.134766,-0.304565,0.742615,-0.580994
1480628828745417,0.134766,-0.304565,0.742615,-0.580994
1480628828749929,0.134766,-0.304565,0.742615,-0.580994
1480628828766474,0.134766,-0.304565,0.742615,-0.580994
1480628828789044,0.134766,-0.304565,0.742615,-0.580994
1480628828803571,0.134766,-0.304565,0.742615,-0.580994
1480628828826635,0.134766,-0.304504,0.742615,-0.581055
1480628828849194,0.134766,-0.304504,0.742676,-0.581055
1480628828863231,0.134888,-0.304565,0.742615,-0.580994
1480628828886293,0.13501,-0.304688,0.742493,-0.581055
1480628828908852,0.13501,-0.304749,0.742493,-0.581055
1480628828929908,0.13501,-0.304749,0.742493,-0.581055
1480628828946452,0.135071,-0.304749,0.742493,-0.580994
1480628828969515,0.135071,-0.304749,0.742493,-0.580994
1480628828983049,0.135071,-0.304749,0.742493,-0.580994
1480628829006612,0.13501,-0.304749,0.742493,-0.581055
1480628829029173,0.13501,-0.304749,0.742493,-0.581055
1480628829050229,0.13501,-0.304749,0.742493,-0.581055
1480628829066776,0.13501,-0.304688,0.742493,-0.581055
1480628829088831,0.13501,-0.304688,0.742493,-0.581055
1480628829117910,0.13501,-0.304688,0.742493,-0.581055
1480628829134954,0.135132,-0.304871,0.742432,-0.581055
1480628829148993,0.135132,-0.304871,0.742432,-0.581055
1480628829170050,0.135132,-0.304932,0.742432,-0.581055
1480628829186594,0.135132,-0.304932,0.742432,-0.581055
1480628829209151,0.135132,-0.304932,0.742432,-0.581055
1480628829230208,0.135132,-0.304871,0.742432,-0.581055
1480628829246250,0.135132,-0.304871,0.742432,-0.581055
1480628829269313,0.135132,-0.304871,0.742432,-0.581055
1480628829290367,0.135132,-0.30481,0.742432,-0.581055
1480628829306410,0.135254,-0.304993,0.74231,-0.581055
1480628829328970,0.135254,-0.304993,0.74231,-0.581055
1480628829350026,0.135254,-0.304993,0.74231,-0.581055
1480628829366068,0.135254,-0.305054,0.74231,-0.581055
1480628829389130,0.135254,-0.305054,0.74231,-0.581055
1480628829410186,0.135254,-0.305054,0.74231,-0.581055
1480628829426228,0.135254,-0.305054,0.74231,-0.581055
1480628829456309,0.135254,-0.305054,0.74231,-0.581055
1480628829471348,0.135254,-0.304993,0.74231,-0.581055
1480628829486890,0.135254,-0.304993,0.74231,-0.581055
1480628829508948,0.135254,-0.304993,0.74231,-0.581055
1480628829532012,0.135254,-0.304993,0.74231,-0.581055
1480628829546550,0.135254,-0.304993,0.74231,-0.581055
1480628829569111,0.135254,-0.304993,0.74231,-0.581055
1480628829592170,0.135254,-0.305054,0.74231,-0.581055
1480628829612224,0.135254,-0.305054,0.74231,-0.581055
1480628829629269,0.135254,-0.305054,0.74231,-0.581055
1480628829651329,0.135254,-0.305054,0.74231,-0.581055
1480628829665866,0.135254,-0.304993,0.74231,-0.581055
1480628829688927,0.135254,-0.304993,0.74231,-0.581055
1480628829711487,0.135254,-0.304993,0.74231,-0.581055
1480628829726026,0.135254,-0.304932,0.74231,-0.581055
1480628829749087,0.135254,-0.304932,0.74231,-0.581055
1480628829771647,0.135254,-0.304993,0.74231,-0.581055
1480628829785685,0.135254,-0.304993,0.74231,-0.581055
1480628829809247,0.135254,-0.305054,0.74231,-0.581055
1480628829832310,0.135254,-0.305054,0.74231,-0.581055
1480628829846346,0.135254,-0.305054,0.74231,-0.581055
1480628829876426,0.135254,-0.304993,0.74231,-0.581055
1480628829891466,0.135254,-0.304993,0.74231,-0.581055
1480628829906005,0.135254,-0.304932,0.742371,-0.581055
1480628829929066,0.135254,-0.304932,0.742371,-0.581055
1480628829951627,0.135254,-0.304932,0.742371,-0.581055
1480628829972682,0.135254,-0.304932,0.742371,-0.581055
1480628829988725,0.135315,-0.304932,0.742371,-0.581055
1480628830017303,0.135315,-0.304993,0.742371,-0.581055
1480628830033845,0.135315,-0.304993,0.74231,-0.581055
1480628830048885,0.135315,-0.304993,0.74231,-0.581055
1480628830071445,0.135254,-0.304993,0.74231,-0.581055
1480628830094005,0.135254,-0.304932,0.742371,-0.581055
1480628830108544,0.135254,-0.304932,0.742371,-0.581055
1480628830131605,0.135254,-0.304871,0.742371,-0.581055
1480628830153669,0.135254,-0.304871,0.742371,-0.581055
1480628830175221,0.135254,-0.304871,0.742371,-0.581055
1480628830192266,0.135315,-0.304871,0.742371,-0.581055
1480628830212320,0.135315,-0.304932,0.742371,-0.581055
1480628830228864,0.135315,-0.304932,0.742371,-0.581055
1480628830251425,0.135315,-0.304932,0.742371,-0.581055
1480628830272981,0.135315,-0.304932,0.742371,-0.581055
1480628830289024,0.135315,-0.304932,0.742371,-0.581055
1480628830312588,0.135254,-0.304932,0.742371,-0.581055
1480628830332640,0.135254,-0.304871,0.742371,-0.581055
1480628830350188,0.135254,-0.304871,0.742371,-0.581055
1480628830371243,0.135254,-0.30481,0.742371,-0.581055
1480628830392299,0.135254,-0.30481,0.742371,-0.581055
1480628830408843,0.135254,-0.304871,0.742371,-0.581055
1480628830431403,0.135315,-0.304871,0.742371,-0.581055
1480628830453963,0.135315,-0.304871,0.742371,-0.581055
1480628830469504,0.135315,-0.304932,0.742371,-0.581055
1480628830492565,0.135315,-0.304932,0.742371,-0.581055
1480628830514625,0.135315,-0.304871,0.742371,-0.581055
1480628830529163,0.135254,-0.304871,0.742371,-0.581055
1480628830551725,0.135254,-0.304871,0.742371,-0.581055
1480628830573782,0.135254,-0.30481,0.742371,-0.581055
1480628830588821,0.135254,-0.30481,0.742371,-0.581116
1480628830611382,0.135254,-0.30481,0.742371,-0.581116
1480628830633942,0.135254,-0.30481,0.742371,-0.581055
1480628830648480,0.135254,-0.30481,0.742371,-0.581055
1480628830671541,0.135254,-0.304871,0.742371,-0.581055
1480628830694101,0.135254,-0.304871,0.742371,-0.581055
1480628830708139,0.135254,-0.304871,0.742371,-0.581055
1480628830731703,0.135254,-0.30481,0.742371,-0.581055
1480628830753764,0.135254,-0.30481,0.742371,-0.581116
1480628830768299,0.135193,-0.304749,0.742432,-0.581116
1480628830791360,0.135193,-0.304749,0.742432,-0.581116
1480628830814422,0.135193,-0.304749,0.742432,-0.581116
1480628830834977,0.135193,-0.304749,0.742432,-0.581116
1480628830851521,0.135254,-0.304749,0.742432,-0.581116
1480628830874080,0.135193,-0.30481,0.742371,-0.581116
1480628830888119,0.135193,-0.30481,0.742371,-0.581116
1480628830912182,0.135193,-0.30481,0.742371,-0.581116
1480628830933740,0.135193,-0.30481,0.742371,-0.581116
1480628830954799,0.135193,-0.30481,0.742371,-0.581116
1480628830984876,0.135193,-0.304749,0.742371,-0.581116
1480628830993900,0.135132,-0.304749,0.742432,-0.581116
1480628831014955,0.135132,-0.304749,0.742432,-0.581116
1480628831032000,0.135132,-0.304749,0.742432,-0.581116
1480628831060090,0.135132,-0.304749,0.742432,-0.581116
