timestamp,roll,pitch,yaw
1480628787058979,-0.658733,0.108899,-1.86719
1480628787073519,-0.658733,0.108899,-1.86719
1480628787096580,-0.658849,0.10897,-1.86725
1480628787119140,-0.658849,0.10897,-1.86725
1480628787140697,-0.658821,0.108989,-1.8671
1480628787156740,-0.658821,0.108989,-1.8671
1480628787179300,-0.658821,0.108989,-1.8671
1480628787193338,-0.658771,0.109062,-1.86726
1480628787223919,-0.658654,0.108991,-1.8672
1480628787238959,-0.658654,0.108991,-1.8672
1480628787267535,-0.65815,0.109235,-1.86724
1480628787277062,-0.658034,0.109164,-1.86718
1480628787305134,-0.65815,0.109235,-1.86724
1480628787320676,-0.65815,0.109235,-1.86724
1480628787336720,-0.65815,0.109235,-1.86724
1480628787359280,-0.658071,0.109327,-1.86725
1480628787387855,-0.658071,0.109327,-1.86725
1480628787396879,-0.658086,0.109362,-1.86723
1480628787418937,-0.657891,0.109384,-1.86717
1480628787439993,-0.657866,0.109077,-1.86749
1480628787456539,-0.6581,0.108711,-1.86767
1480628787479098,-0.658554,0.108541,-1.86779
1480628787500154,-0.658554,0.108541,-1.86779
1480628787517701,-0.658554,0.108541,-1.86779
1480628787539258,-0.658671,0.108612,-1.86785
1480628787560320,-0.658643,0.10863,-1.8677
1480628787576859,-0.658643,0.10863,-1.8677
1480628787598916,-0.658592,0.108704,-1.86786
1480628787620975,-0.658476,0.108633,-1.8678
1480628787636516,-0.658359,0.108562,-1.86774
1480628787665092,-0.658359,0.108562,-1.86774
1480628787680133,-0.658295,0.10869,-1.86772
1480628787696676,-0.658179,0.108619,-1.86766
1480628787725255,-0.658295,0.10869,-1.86772
1480628787741796,-0.658295,0.10869,-1.86772
1480628787758346,-0.658359,0.108562,-1.86774
1480628787778895,-0.658281,0.108654,-1.86775
1480628787801455,-0.658295,0.10869,-1.86772
1480628787816495,-0.658295,0.10869,-1.86772
1480628787839055,-0.658179,0.108619,-1.86766
1480628787861616,-0.658179,0.108619,-1.86766
1480628787876657,-0.657984,0.108641,-1.86761
1480628787899717,-0.658091,0.10853,-1.86775
1480628787921776,-0.657613,0.108483,-1.86774
1480628787942832,-0.657613,0.108483,-1.86774
1480628787959376,-0.657729,0.108554,-1.8678
1480628787982437,-0.657729,0.108554,-1.8678
1480628787995973,-0.657729,0.108554,-1.8678
1480628788019034,-0.657534,0.108575,-1.86775
1480628788047611,-0.657534,0.108575,-1.86775
1480628788056132,-0.657418,0.108505,-1.86769
1480628788086714,-0.657446,0.108486,-1.86784
1480628788101754,-0.65751,0.108359,-1.86786
1480628788115791,-0.658093,0.108023,-1.8678
1480628788138853,-0.658751,0.108013,-1.8679
1480628788161413,-0.658751,0.108013,-1.8679
1480628788183471,-0.659242,0.107915,-1.8683
1480628788199514,-0.659654,0.10791,-1.86871
1480628788221574,-0.659963,0.107779,-1.86925
1480628788242630,-0.660606,0.107643,-1.86957
1480628788260177,-0.661393,0.107558,-1.87012
1480628788281733,-0.662515,0.107559,-1.87109
1480628788302288,-0.665645,0.107977,-1.87315
1480628788319333,-0.672003,0.109665,-1.87702
1480628788341894,-0.682241,0.113927,-1.88185
1480628788362448,-0.69613,0.120392,-1.88778
1480628788378992,-0.711282,0.131195,-1.89359
1480628788402053,-0.724908,0.142466,-1.90024
1480628788422607,-0.73888,0.154951,-1.90515
1480628788438651,-0.753011,0.16806,-1.9094
1480628788475749,-0.764175,0.181408,-1.91275
1480628788489786,-0.772253,0.193794,-1.91568
1480628788499815,-0.778463,0.204754,-1.91837
1480628788522373,-0.783166,0.215252,-1.92132
1480628788542427,-0.788129,0.224511,-1.92484
1480628788558470,-0.793243,0.23256,-1.92821
1480628788582032,-0.798293,0.240146,-1.93065
1480628788602586,-0.80273,0.247496,-1.93338
1480628788618629,-0.807256,0.253429,-1.93615
1480628788641691,-0.812371,0.257593,-1.93859
1480628788664753,-0.814449,0.260734,-1.93993
1480628788678290,-0.816673,0.264214,-1.94058
1480628788701850,-0.81497,0.268294,-1.93963
1480628788726416,-0.80835,0.272516,-1.93957
1480628788744965,-0.802368,0.277411,-1.94032
1480628788776552,-0.803114,0.282455,-1.94159
1480628788784069,-0.813014,0.285906,-1.945
1480628788805126,-0.82569,0.287661,-1.95008
1480628788822672,-0.837622,0.289574,-1.95525
1480628788844233,-0.84594,0.291626,-1.95984
1480628788865788,-0.853712,0.293763,-1.96472
1480628788889349,-0.861734,0.296409,-1.96913
1480628788904389,-0.870291,0.299456,-1.97315
1480628788925446,-0.873468,0.302984,-1.97509
1480628788941488,-0.871833,0.306724,-1.9773
1480628788972070,-0.870148,0.311221,-1.98036
1480628788985104,-0.872203,0.315597,-1.98409
1480628789001648,-0.875896,0.320084,-1.98756
1480628789031729,-0.880413,0.325192,-1.99113
1480628789045264,-0.883986,0.329972,-1.99396
1480628789061808,-0.887317,0.333914,-1.99707
1480628789083867,-0.891486,0.337397,-2.00045
1480628789098405,-0.897712,0.341061,-2.00355
1480628789121467,-0.90503,0.344138,-2.00584
1480628789144030,-0.911309,0.346395,-2.00729
1480628789166587,-0.913792,0.348475,-2.00691
1480628789187644,-0.914199,0.350614,-2.00605
1480628789203686,-0.913273,0.352832,-2.00491
1480628789225243,-0.912124,0.35379,-2.00399
1480628789249309,-0.911084,0.355917,-2.00254
1480628789263845,-0.910858,0.35787,-1.99966
1480628789285403,-0.91109,0.358769,-1.99569
1480628789301450,-0.908733,0.359137,-1.9911
1480628789324507,-0.901788,0.360012,-1.98599
1480628789346065,-0.892828,0.360553,-1.98025
1480628789361105,-0.88436,0.36061,-1.97423
1480628789390182,-0.877069,0.360303,-1.96814
1480628789405221,-0.871031,0.359924,-1.96165
1480628789420764,-0.86632,0.357451,-1.95603
1480628789445328,-0.859895,0.357811,-1.95078
1480628789465382,-0.855426,0.355335,-1.94626
1480628789482929,-0.853599,0.353273,-1.94247
1480628789503984,-0.852698,0.352038,-1.93951
1480628789527047,-0.85122,0.350737,-1.93735
1480628789542588,-0.851418,0.349969,-1.9359
1480628789564144,-0.852568,0.351706,-1.93449
1480628789586704,-0.85471,0.353219,-1.93377
1480628789608263,-0.855342,0.353722,-1.9331
1480628789624305,-0.856019,0.354657,-1.93254
1480628789646864,-0.857063,0.356325,-1.93153
1480628789661404,-0.857055,0.358602,-1.93107
1480628789683964,-0.856264,0.361963,-1.93134
1480628789723068,-0.856361,0.365973,-1.93212
1480628789727580,-0.85722,0.370824,-1.9338
1480628789744123,-0.859676,0.377635,-1.93689
1480628789767185,-0.865269,0.384571,-1.94196
1480628789789243,-0.874235,0.391201,-1.9484
1480628789805286,-0.885337,0.396761,-1.95658
1480628789826847,-0.899251,0.402195,-1.96643
1480628789847900,-0.91381,0.407945,-1.976
1480628789864945,-0.926026,0.41046,-1.98583
1480628789886502,-0.931905,0.40964,-1.99582
1480628789915078,-0.936524,0.408855,-2.0064
1480628789924103,-0.944103,0.409823,-2.01662
1480628789947165,-0.955454,0.412232,-2.02485
1480628789967719,-0.970298,0.413766,-2.03191
1480628789984262,-0.981919,0.41364,-2.03762
1480628790006823,-0.988026,0.414534,-2.04184
1480628790035398,-0.988693,0.415838,-2.04522
1480628790043921,-0.987886,0.416878,-2.04834
1480628790066482,-0.990731,0.418693,-2.05106
1480628790088039,-0.995965,0.420933,-2.05412
1480628790111602,-1.00071,0.422768,-2.05699
1480628790126643,-1.00616,0.425261,-2.06031
1480628790147697,-1.01247,0.426994,-2.06421
1480628790164241,-1.01567,0.427987,-2.06773
1480628790194321,-1.01871,0.428016,-2.07031
1480628790207857,-1.02224,0.427696,-2.07207
1480628790223900,-1.02398,0.426426,-2.07344
1480628790247464,-1.02315,0.425415,-2.07417
1480628790275035,-1.02139,0.42419,-2.07475
1480628790284060,-1.01867,0.424048,-2.07555
1480628790306620,-1.01832,0.425352,-2.07579
1480628790327676,-1.02031,0.425874,-2.07628
1480628790344220,-1.02048,0.427097,-2.07608
1480628790366780,-1.01794,0.428642,-2.07526
1480628790387838,-1.01374,0.429541,-2.07535
1480628790404380,-1.01067,0.430929,-2.07613
1480628790426440,-1.01034,0.432847,-2.07663
1480628790448998,-1.01144,0.434363,-2.0773
1480628790471558,-1.01198,0.435647,-2.07806
1480628790487099,-1.01047,0.437129,-2.07882
1480628790507654,-1.00846,0.43829,-2.08019
1480628790530215,-1.0088,0.439618,-2.0823
1480628790547260,-1.01188,0.441617,-2.08461
1480628790575335,-1.01576,0.443473,-2.08671
1480628790584359,-1.01849,0.445005,-2.089
1480628790607922,-1.01991,0.44635,-2.09123
1480628790628977,-1.02184,0.447818,-2.09333
1480628790643516,-1.02574,0.449048,-2.0952
1480628790666584,-1.02986,0.449955,-2.09603
1480628790689137,-1.03217,0.449575,-2.09635
1480628790703676,-1.0325,0.448527,-2.09614
1480628790726742,-1.03087,0.446949,-2.09531
1480628790749298,-1.02967,0.44436,-2.09472
1480628790770353,-1.03206,0.442343,-2.09335
1480628790786397,-1.03642,0.44162,-2.09123
1480628790808957,-1.03749,0.440117,-2.08958
1480628790831517,-1.0352,0.439166,-2.08847
1480628790846557,-1.03329,0.438606,-2.08745
1480628790875133,-1.03317,0.43844,-2.08588
1480628790883654,-1.03446,0.43864,-2.08473
1480628790912732,-1.03481,0.438011,-2.08437
1480628790929276,-1.03389,0.437856,-2.08395
1480628790943317,-1.03274,0.437859,-2.08304
1480628790966375,-1.03148,0.438179,-2.08144
1480628790988935,-1.02899,0.437101,-2.07959
1480628791009993,-1.02369,0.435365,-2.07706
1480628791026537,-1.0177,0.433373,-2.07428
1480628791056615,-1.01378,0.43146,-2.07145
1480628791077672,-1.01203,0.429173,-2.06768
1480628791086695,-1.00828,0.425422,-2.06427
1480628791109765,-1.00191,0.421902,-2.06113
1480628791130311,-0.995968,0.418821,-2.05841
1480628791146856,-0.993472,0.416063,-2.05599
1480628791168913,-0.992691,0.411651,-2.05346
1480628791191474,-0.990136,0.407803,-2.05224
1480628791206515,-0.987845,0.406936,-2.05137
1480628791229074,-0.986484,0.406416,-2.05022
1480628791251134,-0.986812,0.405194,-2.04884
1480628791267176,-0.985316,0.404058,-2.04731
1480628791289234,-0.98214,0.402619,-2.04614
1480628791310293,-0.980083,0.400661,-2.04557
1480628791326836,-0.97926,0.398125,-2.04477
1480628791356412,-0.979791,0.395235,-2.04417
1480628791369948,-0.979219,0.392743,-2.04409
1480628791387495,-0.978022,0.390712,-2.04406
1480628791409061,-0.978016,0.388854,-2.04381
1480628791430610,-0.977957,0.386944,-2.04282
1480628791448157,-0.975944,0.385378,-2.0419
1480628791470215,-0.973504,0.384062,-2.04158
1480628791491774,-0.97274,0.383517,-2.04163
1480628791506812,-0.9744,0.382895,-2.04122
1480628791528873,-0.975472,0.381452,-2.04012
1480628791551432,-0.973972,0.380137,-2.03863
1480628791566471,-0.970973,0.379302,-2.03694
1480628791589031,-0.96755,0.37765,-2.03504
1480628791611591,-0.965068,0.375288,-2.03337
1480628791626134,-0.962204,0.373548,-2.03205
1480628791664231,-0.960102,0.372037,-2.03166
1480628791671751,-0.960212,0.371139,-2.03167
1480628791686291,-0.961089,0.37027,-2.03287
1480628791709352,-0.960473,0.368705,-2.03449
1480628791731411,-0.958972,0.367257,-2.03701
1480628791752466,-0.95894,0.367184,-2.03994
1480628791776533,-0.96096,0.366997,-2.04385
1480628791791572,-0.962052,0.365368,-2.04855
1480628791806112,-0.964169,0.364689,-2.05329
1480628791829170,-0.969807,0.364888,-2.05812
1480628791859753,-0.978686,0.365081,-2.06238
1480628791872786,-0.986658,0.363794,-2.06624
1480628791888829,-0.989307,0.36296,-2.06921
1480628791917406,-0.990238,0.363115,-2.07202
1480628791939965,-0.993232,0.363647,-2.07456
1480628791948989,-0.997707,0.364599,-2.07621
1480628791971549,-1.00275,0.365842,-2.07771
1480628791992605,-1.00679,0.366716,-2.07932
1480628792009653,-1.00919,0.367961,-2.08132
1480628792031717,-1.01089,0.369233,-2.08301
1480628792052765,-1.01303,0.370455,-2.08452
1480628792068810,-1.01577,0.370818,-2.08603
1480628792091871,-1.0184,0.370692,-2.08773
1480628792112423,-1.01946,0.370639,-2.08916
1480628792136487,-1.02015,0.370609,-2.0907
1480628792151528,-1.0214,0.370805,-2.09212
1480628792173088,-1.02283,0.370989,-2.0935
1480628792189128,-1.02383,0.371429,-2.0948
1480628792219208,-1.02486,0.372052,-2.09632
1480628792232744,-1.02708,0.373101,-2.09821
1480628792249789,-1.02965,0.373729,-2.10004
1480628792271848,-1.03232,0.374447,-2.10207
1480628792292909,-1.03494,0.374912,-2.10393
1480628792309452,-1.03681,0.375241,-2.10577
1480628792332008,-1.03842,0.375881,-2.10744
1480628792352564,-1.04016,0.375854,-2.10872
1480628792369107,-1.04182,0.375735,-2.10982
1480628792391668,-1.04257,0.375937,-2.11122
1480628792414728,-1.04314,0.37622,-2.11229
1480628792429267,-1.0449,0.376255,-2.11321
1480628792451826,-1.04669,0.375811,-2.11356
1480628792473885,-1.04684,0.37581,-2.11372
1480628792497448,-1.04652,0.376017,-2.11404
1480628792517505,-1.04709,0.375425,-2.11427
1480628792534045,-1.04754,0.375229,-2.1143
1480628792549085,-1.04758,0.375216,-2.11443
1480628792571646,-1.04747,0.37506,-2.11429
1480628792594206,-1.04741,0.375151,-2.11432
1480628792615264,-1.04682,0.375075,-2.11387
1480628792637822,-1.04681,0.374882,-2.11345
1480628792653865,-1.0458,0.374585,-2.1126
1480628792668404,-1.04464,0.374286,-2.11192
1480628792691465,-1.04387,0.374222,-2.11152
1480628792721544,-1.04368,0.374514,-2.11094
1480628792728563,-1.04351,0.374323,-2.11003
1480628792752126,-1.04311,0.373963,-2.10895
1480628792780200,-1.04245,0.373588,-2.10802
1480628792788222,-1.0409,0.371979,-2.10669
1480628792811784,-1.03937,0.369426,-2.10556
1480628792834345,-1.03748,0.366493,-2.10438
1480628792848382,-1.03552,0.363468,-2.10303
1480628792871443,-1.03508,0.360192,-2.10162
1480628792894006,-1.03769,0.35648,-2.10036
1480628792909049,-1.04157,0.35304,-2.09861
1480628792932104,-1.04516,0.35042,-2.09655
1480628792954163,-1.04724,0.347652,-2.09442
1480628792975219,-1.04696,0.345561,-2.09237
1480628792999283,-1.04444,0.344084,-2.08996
1480628793013822,-1.04244,0.342072,-2.08686
1480628793035379,-1.04064,0.339851,-2.08364
1480628793051423,-1.0374,0.33803,-2.08052
1480628793073982,-1.03172,0.336045,-2.07687
1480628793102559,-1.02586,0.333877,-2.07276
1480628793111582,-1.02036,0.331896,-2.0682
1480628793134142,-1.01277,0.329918,-2.06364
1480628793155200,-1.00391,0.328317,-2.05938
1480628793170739,-0.995134,0.326293,-2.05502
1480628793194302,-0.98645,0.32377,-2.05108
1480628793215358,-0.977557,0.321529,-2.04736
1480628793230899,-0.969739,0.319949,-2.04444
1480628793253961,-0.965356,0.31832,-2.04344
1480628793259477,-0.963742,0.318016,-2.04371
1480628793283539,-0.966075,0.318221,-2.04469
1480628793298579,-0.970753,0.318498,-2.04544
1480628793327157,-0.97467,0.317989,-2.04647
1480628793342196,-0.976286,0.317516,-2.04777
1480628793359743,-0.976189,0.316454,-2.04864
1480628793379294,-0.976799,0.314199,-2.04913
1480628793410878,-0.978263,0.311985,-2.0487
1480628793416895,-0.979407,0.309972,-2.0476
1480628793439454,-0.979108,0.308617,-2.04665
1480628793470537,-0.977665,0.307725,-2.04607
1480628793477055,-0.976439,0.30726,-2.04578
1480628793499614,-0.975846,0.306927,-2.04511
1480628793524682,-0.976257,0.306829,-2.04418
1480628793537214,-0.976155,0.306172,-2.04277
1480628793559776,-0.974698,0.305227,-2.04146
1480628793581833,-0.971907,0.304181,-2.04011
1480628793607903,-0.969057,0.303224,-2.0388
1480628793619433,-0.967069,0.301916,-2.03775
1480628793645001,-0.966329,0.300873,-2.03658
1480628793658538,-0.965772,0.299951,-2.03559
1480628793687113,-0.964387,0.299359,-2.03482
1480628793702153,-0.96298,0.298971,-2.0341
1480628793718195,-0.962806,0.298338,-2.03343
1480628793746772,-0.962319,0.297325,-2.03242
1480628793761812,-0.961151,0.296325,-2.03179
1480628793778356,-0.959014,0.295718,-2.03118
1480628793800917,-0.957672,0.295749,-2.03094
1480628793823476,-0.957638,0.295254,-2.03064
1480628793838517,-0.957899,0.294891,-2.03054
1480628793859572,-0.958095,0.294619,-2.03046
1480628793884639,-0.957744,0.294124,-2.03009
1480628793898174,-0.956678,0.293089,-2.02951
1480628793919230,-0.955535,0.292335,-2.02904
1480628793942297,-0.953334,0.292139,-2.02844
1480628793966357,-0.951809,0.291928,-2.02779
1480628793979392,-0.951007,0.291611,-2.02773
1480628794001951,-0.949543,0.292202,-2.02826
1480628794026017,-0.948068,0.29344,-2.02951
1480628794047071,-0.947002,0.295413,-2.03219
1480628794062111,-0.947545,0.298857,-2.03658
1480628794079657,-0.949828,0.302442,-2.04239
1480628794099711,-0.953811,0.305405,-2.04922
1480628794121769,-0.960055,0.308388,-2.05648
1480628794144330,-0.969177,0.311638,-2.06392
1480628794162879,-0.979092,0.314081,-2.07062
1480628794181930,-0.988447,0.314794,-2.07615
1480628794204489,-0.99597,0.314907,-2.0808
1480628794221033,-1.00028,0.31488,-2.08487
1480628794245098,-1.00165,0.315259,-2.08803
1480628794274175,-1.00275,0.315433,-2.08985
1480628794281194,-1.0035,0.316155,-2.0905
1480628794304756,-1.00377,0.316762,-2.09002
1480628794327317,-1.0033,0.317618,-2.08917
1480628794339348,-1.00216,0.318507,-2.08802
1480628794361908,-1.0007,0.319264,-2.08733
1480628794385471,-0.999035,0.319786,-2.08721
1480628794399508,-0.997542,0.321082,-2.08712
1480628794422068,-0.998135,0.322528,-2.08744
1480628794444629,-0.999458,0.324252,-2.08752
1480628794462175,-1.00041,0.325613,-2.08777
1480628794482229,-1.00071,0.326731,-2.08781
1480628794504287,-1.00004,0.327412,-2.08749
1480628794522335,-0.998899,0.32705,-2.08713
1480628794541887,-0.997555,0.326513,-2.08663
1480628794564447,-0.996272,0.326147,-2.08613
1480628794579487,-0.995623,0.325902,-2.08559
1480628794612575,-0.995623,0.325902,-2.08559
1480628794632628,-0.995675,0.325748,-2.08561
1480628794642660,-0.995776,0.325966,-2.08569
1480628794662207,-0.996205,0.325913,-2.08517
1480628794684767,-0.996429,0.325685,-2.0845
1480628794699306,-0.99615,0.325215,-2.08344
1480628794721865,-0.995444,0.324798,-2.08257
1480628794744427,-0.995766,0.324202,-2.08164
1480628794759468,-0.99863,0.323897,-2.0808
1480628794782026,-1.00235,0.32428,-2.08002
1480628794804586,-1.00631,0.324967,-2.07931
1480628794827146,-1.00824,0.325532,-2.07841
1480628794842188,-1.00921,0.325918,-2.0775
1480628794864246,-1.00967,0.326323,-2.07656
1480628794886805,-1.00986,0.325999,-2.07519
1480628794901844,-1.01096,0.325423,-2.07379
1480628794924405,-1.01292,0.324429,-2.07237
1480628794940949,-1.01459,0.323691,-2.07103
1480628794962006,-1.01592,0.322896,-2.06997
1480628794992590,-1.0173,0.321626,-2.06893
1480628795001109,-1.01862,0.320913,-2.0677
1480628795022164,-1.02002,0.32051,-2.06573
1480628795044726,-1.01964,0.319546,-2.06315
1480628795060767,-1.01733,0.318797,-2.05992
1480628795089343,-1.01332,0.318352,-2.05636
1480628795108395,-1.00901,0.318029,-2.0523
1480628795120928,-1.00482,0.317529,-2.04808
1480628795141984,-1.00023,0.317248,-2.0436
1480628795164544,-0.995638,0.316886,-2.0395
1480628795187104,-0.991842,0.316455,-2.03577
1480628795202146,-0.988537,0.315883,-2.03249
1480628795224704,-0.986118,0.315201,-2.02995
1480628795240746,-0.983707,0.314641,-2.02766
1480628795269323,-0.981308,0.313937,-2.02592
1480628795284362,-0.979537,0.312786,-2.02477
1480628795302411,-0.978732,0.311511,-2.02363
1480628795321962,-0.97835,0.309947,-2.02217
1480628795352043,-0.977767,0.308282,-2.02008
1480628795362571,-0.975531,0.306882,-2.01781
1480628795385130,-0.971763,0.30563,-2.01557
1480628795412203,-0.967902,0.304348,-2.01335
1480628795422229,-0.963854,0.30333,-2.01122
1480628795442285,-0.961088,0.302703,-2.00935
1480628795464341,-0.960495,0.30193,-2.00759
1480628795482389,-0.960191,0.300853,-2.00613
1480628795501943,-0.958179,0.300174,-2.00526
1480628795524501,-0.95621,0.2998,-2.0046
1480628795550070,-0.955327,0.299315,-2.00441
1480628795562103,-0.95628,0.298439,-2.00411
1480628795584661,-0.956975,0.29703,-2.0038
1480628795606720,-0.955429,0.295848,-2.00375
1480628795629280,-0.954498,0.294616,-2.00423
1480628795644320,-0.955367,0.293389,-2.00438
1480628795662368,-0.956008,0.292698,-2.00419
1480628795681920,-0.955984,0.292204,-2.00389
1480628795707488,-0.954944,0.292165,-2.00334
1480628795722528,-0.952734,0.292264,-2.00271
1480628795742081,-0.950651,0.292125,-2.00208
1480628795764641,-0.949387,0.292239,-2.00125
1480628795782186,-0.947415,0.292373,-2.00033
1480628795801739,-0.94517,0.291915,-1.99979
1480628795828310,-0.943748,0.291387,-1.99984
1480628795846859,-0.943646,0.291359,-1.99984
1480628795863403,-0.944591,0.291566,-2.00024
1480628795885963,-0.943353,0.29248,-2.00209
1480628795910027,-0.940177,0.294661,-2.00493
1480628795923562,-0.941158,0.296433,-2.00789
1480628795944625,-0.945834,0.297897,-2.01056
1480628795967180,-0.951869,0.300473,-2.01407
1480628795983222,-0.957481,0.302964,-2.01788
1480628796004277,-0.960108,0.303178,-2.02265
1480628796035360,-0.962544,0.303976,-2.02749
1480628796043382,-0.967547,0.306439,-2.03141
1480628796071959,-0.974317,0.308453,-2.03459
1480628796086997,-0.979238,0.309219,-2.03746
1480628796105046,-0.981284,0.310238,-2.04008
1480628796140642,-0.98266,0.311978,-2.04266
1480628796147158,-0.985286,0.313614,-2.04411
1480628796164705,-0.989002,0.314752,-2.045
1480628796187266,-0.990879,0.315535,-2.04579
1480628796207318,-0.990381,0.31644,-2.04654
1480628796223360,-0.990162,0.317232,-2.04733
1480628796247424,-0.991569,0.317626,-2.04796
1480628796266976,-0.993838,0.318192,-2.04824
1480628796285025,-0.995056,0.31841,-2.0484
1480628796304577,-0.995208,0.318477,-2.0485
1480628796329643,-0.99508,0.318009,-2.04858
1480628796344683,-0.994367,0.317457,-2.04847
1480628796364235,-0.993877,0.317005,-2.04867
1480628796386796,-0.993877,0.317005,-2.04867
1480628796409355,-0.995158,0.317133,-2.0488
1480628796424395,-0.995996,0.317181,-2.04887
1480628796446955,-0.996385,0.317412,-2.04891
1480628796466006,-0.996242,0.317407,-2.04877
1480628796484556,-0.996242,0.317407,-2.04877
1480628796507116,-0.996756,0.317134,-2.04877
1480628796526170,-0.997531,0.316948,-2.04889
1480628796544716,-0.998346,0.31675,-2.0488
1480628796566775,-0.998955,0.316637,-2.0486
1480628796584822,-0.999175,0.316294,-2.04836
1480628796604374,-0.998565,0.315962,-2.04801
1480628796626934,-0.998565,0.315962,-2.04801
1480628796644983,-0.999174,0.315526,-2.04782
1480628796664535,-0.999585,0.314912,-2.0475
1480628796691105,-1.00073,0.314126,-2.04748
1480628796709659,-1.00179,0.313004,-2.04682
1480628796740737,-1.00259,0.311857,-2.04599
1480628796754273,-1.00264,0.31114,-2.04522
1480628796764802,-1.00333,0.310682,-2.04464
1480628796784353,-1.00538,0.309944,-2.04417
1480628796806913,-1.00707,0.309343,-2.04374
1480628796824961,-1.00793,0.308959,-2.04293
1480628796847521,-1.00818,0.308423,-2.0423
1480628796867072,-1.00786,0.307337,-2.04169
1480628796889633,-1.00795,0.306551,-2.04075
1480628796907681,-1.00801,0.30566,-2.03945
1480628796934251,-1.00798,0.304407,-2.03861
1480628796944780,-1.00772,0.303372,-2.03776
1480628796965835,-1.0078,0.302465,-2.03692
1480628796986891,-1.00885,0.301873,-2.03632
1480628797004940,-1.00943,0.301425,-2.03527
1480628797025998,-1.00889,0.30121,-2.03432
1480628797047052,-1.00807,0.301246,-2.03311
1480628797065601,-1.00719,0.300724,-2.03195
1480628797086155,-1.00641,0.300425,-2.03056
1480628797107213,-1.00552,0.299717,-2.02922
1480628797125272,-1.00447,0.298699,-2.02763
1480628797147819,-1.00307,0.29761,-2.02632
1480628797166870,-1.00113,0.296534,-2.02518
1480628797186422,-0.999856,0.295705,-2.02437
1480628797215003,-0.99945,0.295041,-2.02399
1480628797227030,-0.999996,0.294644,-2.02387
1480628797245580,-1.00097,0.294202,-2.02391
1480628797275159,-1.00153,0.29372,-2.02429
1480628797294711,-1.00168,0.29308,-2.02446
1480628797309250,-1.00208,0.292347,-2.02455
1480628797327298,-1.00237,0.29153,-2.02467
1480628797346849,-1.00284,0.290893,-2.02493
1480628797376929,-1.00325,0.29022,-2.02498
1480628797387457,-1.00359,0.289576,-2.0251
1480628797410017,-1.00344,0.289364,-2.02554
1480628797431073,-1.00356,0.28898,-2.02606
1480628797447618,-1.004,0.288537,-2.0267
1480628797467169,-1.00497,0.288072,-2.0275
1480628797489730,-1.00647,0.287723,-2.02824
1480628797511788,-1.00655,0.287297,-2.02867
1480628797526828,-1.00556,0.28702,-2.02937
1480628797550893,-1.00435,0.286629,-2.03021
1480628797581473,-1.00487,0.286156,-2.03079
1480628797586988,-1.00624,0.285807,-2.03106
1480628797617069,-1.00709,0.285402,-2.03136
1480628797632107,-1.00724,0.285468,-2.03146
1480628797648652,-1.00603,0.285362,-2.03155
1480628797676727,-1.00463,0.285261,-2.0317
1480628797687258,-1.00364,0.285193,-2.03182
1480628797706807,-1.00364,0.285193,-2.03182
1480628797729367,-1.00373,0.284789,-2.03149
1480628797747917,-1.00376,0.28477,-2.03162
1480628797769976,-1.00381,0.284437,-2.03144
1480628797790031,-1.00428,0.284142,-2.03091
1480628797807574,-1.00494,0.284027,-2.03051
1480628797828631,-1.00372,0.284265,-2.02982
1480628797852695,-1.0013,0.284251,-2.02976
1480628797867236,-0.999751,0.28479,-2.02973
1480628797888290,-0.999865,0.285578,-2.02962
1480628797909346,-1.00075,0.286189,-2.02962
1480628797931906,-1.00037,0.286462,-2.02976
1480628797948450,-0.99943,0.286744,-2.0304
1480628797969506,-0.998891,0.286748,-2.03102
1480628797987554,-0.999251,0.286915,-2.03142
1480628798008611,-1.00046,0.286999,-2.0321
1480628798029665,-1.00132,0.286831,-2.03287
1480628798047714,-1.00114,0.286619,-2.03395
1480628798068769,-1.0018,0.286897,-2.03532
1480628798106371,-1.00344,0.287239,-2.03657
1480628798108879,-1.00585,0.287663,-2.03795
1480628798129933,-1.0079,0.288096,-2.03945
1480628798149485,-1.0093,0.288146,-2.04084
1480628798167533,-1.01111,0.287902,-2.04223
1480628798190096,-1.0133,0.287445,-2.04376
1480628798209646,-1.01537,0.28664,-2.04529
1480628798227191,-1.0171,0.285975,-2.04684
1480628798249752,-1.0195,0.285486,-2.04844
1480628798269303,-1.02229,0.284902,-2.0501
1480628798288354,-1.02519,0.284539,-2.05152
1480628798309911,-1.02762,0.283728,-2.05281
1480628798329463,-1.02923,0.28318,-2.05382
1480628798353527,-1.03107,0.282605,-2.0549
1480628798370071,-1.03342,0.282019,-2.05601
1480628798389623,-1.03528,0.281574,-2.05669
1480628798407671,-1.03675,0.280838,-2.05736
1480628798429730,-1.03775,0.279718,-2.05786
1480628798449783,-1.03837,0.278814,-2.05822
1480628798471841,-1.0389,0.278079,-2.05845
1480628798489891,-1.03934,0.277333,-2.05833
1480628798509442,-1.04087,0.276479,-2.05824
1480628798527490,-1.04172,0.275714,-2.05781
1480628798557570,-1.04157,0.275056,-2.05802
1480628798569603,-1.04076,0.274294,-2.05781
1480628798587651,-1.04063,0.273218,-2.05715
1480628798609709,-1.04049,0.271551,-2.0556
1480628798629260,-1.03879,0.269106,-2.05369
1480628798647310,-1.0356,0.266644,-2.05229
1480628798669869,-1.03257,0.265539,-2.05212
1480628798689422,-1.03228,0.266376,-2.05306
1480628798707470,-1.03477,0.267184,-2.0546
1480628798730029,-1.03891,0.268415,-2.05646
1480628798751085,-1.04274,0.270086,-2.05848
1480628798780666,-1.04451,0.270907,-2.06027
1480628798789688,-1.0454,0.270783,-2.06219
1480628798810744,-1.04544,0.270061,-2.06357
1480628798833304,-1.04486,0.268827,-2.06472
1480628798855863,-1.04413,0.267746,-2.0652
1480628798871405,-1.04407,0.266701,-2.06474
1480628798909006,-1.04409,0.266272,-2.06419
1480628798911512,-1.04359,0.265854,-2.06361
1480628798932568,-1.04392,0.265359,-2.06318
1480628798959641,-1.04357,0.264943,-2.06275
1480628798969667,-1.0436,0.264923,-2.06287
1480628798990723,-1.04319,0.264454,-2.06268
1480628799011779,-1.04322,0.263883,-2.06234
1480628799030830,-1.04348,0.262976,-2.06175
1480628799050883,-1.04306,0.261979,-2.06064
1480628799074950,-1.04251,0.260156,-2.05922
1480628799089987,-1.04104,0.257993,-2.05783
1480628799112547,-1.03873,0.256833,-2.05703
1480628799132099,-1.03615,0.256366,-2.05738
1480628799154659,-1.03317,0.257872,-2.0585
1480628799172205,-1.03257,0.258925,-2.0603
1480628799192261,-1.0346,0.260258,-2.06252
1480628799214319,-1.0361,0.262171,-2.06507
1480628799239886,-1.0382,0.263518,-2.06785
1480628799253422,-1.04156,0.263701,-2.07101
1480628799269965,-1.04373,0.264768,-2.07357
1480628799298543,-1.04404,0.265791,-2.07529
1480628799319598,-1.0437,0.264619,-2.07583
1480628799330126,-1.04255,0.26337,-2.07537
1480628799352185,-1.03954,0.262752,-2.07477
1480628799371736,-1.03463,0.262453,-2.07426
1480628799389786,-1.02672,0.263308,-2.07396
1480628799412344,-1.02171,0.263167,-2.07431
1480628799431897,-1.02109,0.262283,-2.07383
1480628799457465,-1.02116,0.261895,-2.07304
1480628799472504,-1.01895,0.261207,-2.07282
1480628799492058,-1.01348,0.261008,-2.07335
1480628799518128,-1.00771,0.261386,-2.07396
1480628799532163,-1.006,0.261443,-2.07463
1480628799551716,-1.00767,0.261702,-2.07492
1480628799575779,-1.00961,0.262247,-2.07474
1480628799599843,-1.01024,0.262229,-2.07522
1480628799611875,-1.00836,0.262039,-2.0756
1480628799630926,-1.00567,0.261551,-2.07591
1480628799660003,-1.00389,0.261397,-2.07584
1480628799672034,-1.00299,0.26113,-2.07584
1480628799690083,-1.00245,0.260838,-2.07605
1480628799712142,-1.00231,0.260775,-2.07596
1480628799733198,-1.00255,0.260534,-2.07641
1480628799750745,-1.00292,0.260372,-2.07683
1480628799772301,-1.00298,0.260086,-2.07706
1480628799794866,-1.00285,0.25962,-2.07749
1480628799809902,-1.00218,0.259189,-2.07777
1480628799832963,-1.00094,0.258807,-2.07812
1480628799853519,-0.999713,0.25829,-2.07868
1480628799878084,-0.999855,0.257832,-2.07939
1480628799905155,-1.00077,0.257504,-2.07984
1480628799913176,-1.00143,0.257032,-2.08022
1480628799929720,-1.00118,0.256672,-2.08088
1480628799952282,-1.00016,0.256585,-2.08128
1480628799973338,-0.9997,0.256574,-2.08185
1480628799989881,-0.999669,0.256593,-2.08172
1480628800024980,-1.00029,0.256515,-2.08225
1480628800033497,-1.00062,0.256426,-2.08282
1480628800050041,-1.00042,0.255998,-2.083
1480628800073102,-1.00008,0.255621,-2.08332
1480628800094660,-0.999535,0.254953,-2.08359
1480628800110703,-0.999387,0.25489,-2.0835
1480628800132260,-0.99907,0.254758,-2.08397
1480628800155323,-0.998572,0.254903,-2.0842
1480628800175376,-0.999336,0.255208,-2.0848
1480628800192422,-1.00008,0.255268,-2.08524
1480628800213977,-1.00013,0.25562,-2.08576
1480628800235034,-1.00098,0.256022,-2.0862
1480628800251579,-1.00247,0.255961,-2.08657
1480628800274138,-1.00222,0.256184,-2.08723
1480628800295194,-1.00155,0.25672,-2.08746
1480628800311739,-1.00251,0.257212,-2.0874
1480628800334297,-1.00328,0.257213,-2.0869
1480628800355353,-1.0034,0.257172,-2.0863
1480628800372398,-1.00177,0.257551,-2.08577
1480628800393956,-1.00045,0.258058,-2.0851
1480628800415012,-1.00025,0.258666,-2.08438
1480628800432057,-1.00159,0.259201,-2.08383
1480628800454120,-1.00289,0.260326,-2.08315
1480628800475173,-1.00385,0.261483,-2.08194
1480628800491717,-1.00434,0.262265,-2.08059
1480628800513775,-1.00386,0.262885,-2.0788
1480628800535332,-1.00258,0.26345,-2.0771
1480628800551877,-1.00068,0.263835,-2.07518
1480628800573935,-0.999062,0.263782,-2.07298
1480628800602510,-0.997893,0.264056,-2.07053
1480628800611535,-0.995915,0.264673,-2.06764
1480628800634095,-0.992243,0.265739,-2.06425
1480628800655151,-0.987738,0.266762,-2.06037
1480628800671193,-0.983085,0.267465,-2.05592
1480628800694759,-0.977465,0.267865,-2.05038
1480628800716815,-0.969516,0.2673,-2.04382
1480628800737369,-0.959348,0.265899,-2.03719
1480628800753915,-0.9468,0.264619,-2.03018
1480628800774973,-0.934498,0.263972,-2.02352
1480628800791012,-0.924329,0.26458,-2.01702
1480628800820089,-0.91707,0.265626,-2.01092
1480628800851673,-0.912042,0.266765,-2.00533
1480628800853679,-0.906536,0.267347,-2.00086
1480628800874236,-0.899212,0.26853,-1.99784
1480628800904315,-0.893081,0.269863,-1.99586
1480628800911332,-0.889109,0.270417,-1.99409
1480628800933893,-0.887075,0.270513,-1.99278
1480628800954948,-0.885853,0.270972,-1.99158
1480628800971492,-0.883681,0.270996,-1.99018
1480628800994053,-0.880887,0.270758,-1.98887
1480628801016613,-0.876934,0.270148,-1.98636
1480628801031653,-0.873223,0.267582,-1.98464
1480628801054212,-0.867941,0.266066,-1.98238
1480628801076773,-0.863185,0.263914,-1.98057
1480628801092314,-0.858825,0.262705,-1.97806
1480628801114874,-0.854768,0.261446,-1.97566
1480628801137433,-0.851375,0.261235,-1.97365
1480628801150971,-0.848909,0.260901,-1.9716
1480628801174031,-0.84684,0.260416,-1.96976
1480628801196591,-0.844639,0.259498,-1.96826
1480628801211633,-0.843099,0.258157,-1.96762
1480628801234191,-0.841219,0.25666,-1.96737
1480628801265274,-0.839455,0.255383,-1.96741
1480628801272292,-0.838818,0.254881,-1.96726
1480628801293850,-0.838842,0.254923,-1.96688
1480628801316410,-0.839288,0.255162,-1.96643
1480628801330948,-0.840274,0.255315,-1.96593
1480628801354010,-0.840754,0.254734,-1.96528
1480628801384091,-0.840329,0.254066,-1.96452
1480628801391122,-0.838965,0.253412,-1.96388
1480628801414171,-0.837967,0.252737,-1.96358
1480628801436730,-0.838033,0.252259,-1.9631
1480628801457787,-0.838695,0.251973,-1.96246
1480628801473828,-0.839578,0.25149,-1.9618
1480628801496388,-0.840057,0.251161,-1.96128
1480628801517445,-0.839742,0.250964,-1.96093
1480628801534490,-0.838988,0.250936,-1.96057
1480628801559557,-0.838439,0.251079,-1.9601
1480628801577622,-0.838432,0.250945,-1.95977
1480628801600165,-0.838329,0.250473,-1.95936
1480628801625234,-0.838144,0.250043,-1.95901
1480628801638266,-0.838096,0.249682,-1.95874
1480628801654308,-0.838562,0.249194,-1.9588
1480628801676367,-0.839224,0.248634,-1.95897
1480628801704943,-0.83961,0.248187,-1.95908
1480628801713967,-0.839745,0.248256,-1.95917
1480628801736527,-0.839756,0.248307,-1.95913
1480628801757587,-0.839855,0.247897,-1.95917
1480628801774628,-0.839753,0.247259,-1.95901
1480628801798192,-0.839995,0.246115,-1.95879
1480628801817745,-0.839751,0.24478,-1.9583
1480628801834288,-0.838526,0.244057,-1.95742
1480628801856347,-0.836823,0.243276,-1.95662
1480628801901967,-0.834804,0.242547,-1.95559
1480628801904474,-0.833147,0.24199,-1.95472
1480628801916507,-0.832073,0.241576,-1.95373
1480628801939567,-0.831042,0.240728,-1.953
1480628801961626,-0.829872,0.239868,-1.95249
1480628801985691,-0.828203,0.239016,-1.95188
1480628801999227,-0.826626,0.238199,-1.95125
1480628802020283,-0.825072,0.237975,-1.95045
1480628802043344,-0.823835,0.237561,-1.94955
1480628802066405,-0.823076,0.237206,-1.94857
1480628802073424,-0.822185,0.23678,-1.94751
1480628802097487,-0.82141,0.236132,-1.94679
1480628802119546,-0.820126,0.235441,-1.946
1480628802133584,-0.818887,0.234481,-1.94523
1480628802158150,-0.817804,0.233086,-1.94431
1480628802179205,-0.816829,0.231283,-1.94344
1480628802193242,-0.815382,0.22882,-1.94247
1480628802222824,-0.813267,0.226126,-1.94171
1480628802238864,-0.810319,0.223447,-1.94102
1480628802253403,-0.805604,0.221449,-1.9402
1480628802276464,-0.798347,0.220361,-1.93889
1480628802299024,-0.791453,0.220097,-1.93739
1480628802321584,-0.78706,0.22019,-1.93558
1480628802336624,-0.784985,0.220104,-1.93367
1480628802359189,-0.784235,0.219998,-1.93179
1480628802373222,-0.783642,0.219059,-1.93023
1480628802396784,-0.782612,0.217887,-1.92915
1480628802424862,-0.780704,0.216998,-1.92811
1480628802439899,-0.777698,0.216423,-1.9274
1480628802456443,-0.775034,0.216327,-1.92689
1480628802487025,-0.773278,0.216316,-1.92658
1480628802509083,-0.771984,0.21651,-1.92651
1480628802517104,-0.771059,0.217014,-1.92704
1480628802539666,-0.770935,0.217664,-1.92816
1480628802560219,-0.771333,0.218141,-1.92976
1480628802576765,-0.771968,0.218667,-1.93158
1480628802599322,-0.773234,0.219687,-1.93364
1480628802620380,-0.775312,0.220463,-1.93621
1480628802637424,-0.777473,0.221083,-1.93846
1480628802658981,-0.779411,0.221545,-1.94069
1480628802680038,-0.781618,0.221997,-1.94277
1480628802712623,-0.783846,0.222432,-1.94451
1480628802726662,-0.785592,0.222968,-1.9456
1480628802741702,-0.78632,0.223449,-1.94633
1480628802764262,-0.786343,0.224069,-1.9467
1480628802793339,-0.786106,0.224708,-1.94665
1480628802799856,-0.786106,0.224708,-1.94665
1480628802816902,-0.785831,0.225123,-1.94668
1480628802838960,-0.785279,0.225269,-1.94657
1480628802860016,-0.785279,0.225269,-1.94657
1480628802876561,-0.785148,0.2252,-1.94649
1480628802900125,-0.785076,0.225292,-1.94651
1480628802921179,-0.785087,0.225338,-1.94647
1480628802937221,-0.784956,0.225269,-1.94639
1480628802959280,-0.784956,0.225269,-1.94639
1480628802988859,-0.784379,0.224938,-1.94625
1480628802996379,-0.78384,0.224531,-1.94594
1480628803019441,-0.783623,0.224123,-1.94581
1480628803041500,-0.783261,0.223516,-1.94561
1480628803070075,-0.782697,0.222931,-1.94535
1480628803079099,-0.782302,0.22234,-1.94501
1480628803107676,-0.781824,0.22141,-1.94462
1480628803116197,-0.780805,0.220516,-1.94433
1480628803145274,-0.779378,0.219429,-1.94415
1480628803161819,-0.777702,0.218549,-1.94386
1480628803175857,-0.776402,0.217339,-1.94347
1480628803198918,-0.775701,0.216254,-1.94308
1480628803228998,-0.774951,0.215199,-1.94288
1480628803236017,-0.774356,0.214391,-1.94271
1480628803260583,-0.773464,0.21352,-1.94256
1480628803297681,-0.771975,0.212525,-1.94241
1480628803303195,-0.770351,0.212059,-1.94234
1480628803325254,-0.769441,0.211588,-1.94262
1480628803349318,-0.769315,0.211021,-1.94324
1480628803365361,-0.769634,0.210822,-1.94418
1480628803379399,-0.770415,0.210824,-1.94537
1480628803401456,-0.771639,0.210702,-1.94651
1480628803422515,-0.772982,0.210601,-1.94776
1480628803439057,-0.773985,0.210563,-1.94867
1480628803461617,-0.774356,0.210331,-1.94942
1480628803491698,-0.774453,0.210416,-1.94935
1480628803514257,-0.774453,0.210416,-1.94935
1480628803521777,-0.773932,0.210055,-1.94902
1480628803544839,-0.773062,0.209864,-1.94811
1480628803558878,-0.771554,0.209287,-1.94677
1480628803588956,-0.769583,0.208403,-1.94492
1480628803602491,-0.767473,0.207228,-1.943
1480628803619036,-0.764774,0.205972,-1.94058
1480628803649116,-0.761403,0.204592,-1.9377
1480628803662653,-0.757979,0.203148,-1.93452
1480628803679196,-0.754177,0.201591,-1.93092
1480628803701756,-0.749861,0.199478,-1.92707
1480628803738856,-0.744474,0.197287,-1.92302
1480628803741363,-0.738181,0.195301,-1.91875
1480628803761414,-0.731319,0.193123,-1.91458
1480628803782971,-0.724395,0.190836,-1.91053
1480628803798513,-0.717858,0.188459,-1.90653
1480628803822076,-0.712428,0.186372,-1.90254
1480628803850151,-0.707765,0.184019,-1.89894
1480628803874218,-0.703308,0.181692,-1.89594
1480628803881734,-0.698778,0.179741,-1.89306
1480628803904294,-0.694941,0.178143,-1.89052
1480628803926856,-0.691875,0.176844,-1.8878
1480628803941393,-0.689266,0.175705,-1.88546
1480628803963954,-0.68691,0.174468,-1.88351
1480628803986515,-0.684553,0.173093,-1.88181
1480628804001554,-0.682156,0.171791,-1.88029
1480628804024116,-0.680074,0.170403,-1.87913
1480628804038150,-0.678511,0.169184,-1.87813
1480628804069232,-0.676983,0.16823,-1.87719
1480628804091294,-0.675682,0.167478,-1.87671
1480628804099314,-0.675577,0.167206,-1.87637
1480628804121884,-0.676245,0.166814,-1.87628
1480628804143932,-0.677281,0.166446,-1.87632
1480628804158471,-0.677711,0.166056,-1.87655
1480628804181533,-0.677171,0.165666,-1.87651
1480628804211612,-0.676067,0.165414,-1.87625
1480628804219132,-0.675523,0.165117,-1.876
1480628804241692,-0.675221,0.164724,-1.87565
1480628804264252,-0.675162,0.164236,-1.87519
1480628804278289,-0.675162,0.164236,-1.87519
1480628804301350,-0.675162,0.164236,-1.87519
1480628804323914,-0.675462,0.164484,-1.87509
1480628804346471,-0.676414,0.16454,-1.87517
1480628804361511,-0.677247,0.164525,-1.87519
1480628804384072,-0.677717,0.164534,-1.87525
1480628804405128,-0.67764,0.164626,-1.87526
1480628804421674,-0.677533,0.164593,-1.87516
1480628804444231,-0.677457,0.164685,-1.87518
1480628804465287,-0.677472,0.164485,-1.8749
1480628804481330,-0.677667,0.16432,-1.87451
1480628804503890,-0.678242,0.164076,-1.87425
1480628804524948,-0.678242,0.164076,-1.87425
1480628804541490,-0.678678,0.164196,-1.87395
1480628804564551,-0.679387,0.164204,-1.87369
1480628804585106,-0.679766,0.163981,-1.87338
1480628804601650,-0.679953,0.163543,-1.87326
1480628804624211,-0.679989,0.162909,-1.87297
1480628804646769,-0.679919,0.162383,-1.87253
1480628804661810,-0.679906,0.162203,-1.87261
1480628804683868,-0.679906,0.162203,-1.87261
1480628804704924,-0.679786,0.162132,-1.87254
1480628804727484,-0.679906,0.162203,-1.87261
1480628804744028,-0.679406,0.16221,-1.8724
1480628804765084,-0.679406,0.16221,-1.8724
1480628804781629,-0.679089,0.162017,-1.87232
1480628804804189,-0.67829,0.161776,-1.87221
1480628804826749,-0.67829,0.161776,-1.87221
1480628804840791,-0.678106,0.161835,-1.87212
1480628804872871,-0.678106,0.161835,-1.87212
1480628804886407,-0.677986,0.161763,-1.87205
1480628804901448,-0.67791,0.161855,-1.87207
1480628804925014,-0.678213,0.161724,-1.87177
1480628804946568,-0.678332,0.161795,-1.87183
1480628804961106,-0.678332,0.161795,-1.87183
1480628804984168,-0.678332,0.161795,-1.87183
1480628805006728,-0.678332,0.161795,-1.87183
1480628805020765,-0.678332,0.161795,-1.87183
1480628805043826,-0.678256,0.161887,-1.87185
1480628805066387,-0.678256,0.161887,-1.87185
1480628805080925,-0.678149,0.161854,-1.87175
1480628805103986,-0.677559,0.161772,-1.87162
1480628805126546,-0.677559,0.161772,-1.87162
1480628805149607,-0.677559,0.161772,-1.87162
1480628805164647,-0.677559,0.161772,-1.87162
1480628805186706,-0.677559,0.161772,-1.87162
1480628805207764,-0.677679,0.161844,-1.87169
1480628805224307,-0.677679,0.161844,-1.87169
1480628805247869,-0.677679,0.161844,-1.87169
1480628805267420,-0.677482,0.161864,-1.87164
1480628805291487,-0.677482,0.161864,-1.87164
1480628805306525,-0.677482,0.161864,-1.87164
1480628805327581,-0.677376,0.161831,-1.87154
1480628805344125,-0.677363,0.161792,-1.87157
1480628805374206,-0.677363,0.161792,-1.87157
1480628805387741,-0.677482,0.161864,-1.87164
1480628805404285,-0.677559,0.161772,-1.87162
1480628805426344,-0.677559,0.161772,-1.87162
1480628805447401,-0.677559,0.161772,-1.87162
1480628805463944,-0.677559,0.161772,-1.87162
1480628805486508,-0.677439,0.161701,-1.87156
1480628805507559,-0.67747,0.161684,-1.87171
1480628805525106,-0.677273,0.161704,-1.87165
1480628805546664,-0.677286,0.161743,-1.87162
1480628805567720,-0.677286,0.161743,-1.87162
1480628805584765,-0.677273,0.161704,-1.87165
1480628805606824,-0.67735,0.161612,-1.87164
1480628805627378,-0.67735,0.161612,-1.87164
1480628805643923,-0.67735,0.161612,-1.87164
1480628805672499,-0.67747,0.161684,-1.87171
1480628805687539,-0.67735,0.161612,-1.87164
1480628805704083,-0.677273,0.161704,-1.87165
1480628805726643,-0.677273,0.161704,-1.87165
1480628805749204,-0.677166,0.161671,-1.87156
1480628805764243,-0.677047,0.161599,-1.87149
1480628805786302,-0.677077,0.161583,-1.87164
1480628805815379,-0.677077,0.161583,-1.87164
1480628805823904,-0.677047,0.161599,-1.87149
1480628805846461,-0.677166,0.161671,-1.87156
1480628805876541,-0.677166,0.161671,-1.87156
1480628805897598,-0.677166,0.161671,-1.87156
1480628805906622,-0.677047,0.161599,-1.87149
1480628805929182,-0.677077,0.161583,-1.87164
1480628805943218,-0.676957,0.161511,-1.87157
1480628805966781,-0.676957,0.161511,-1.87157
1480628805989343,-0.67688,0.161603,-1.87158
1480628806003378,-0.676957,0.161511,-1.87157
1480628806026941,-0.676957,0.161511,-1.87157
1480628806049000,-0.676957,0.161511,-1.87157
1480628806063538,-0.676957,0.161511,-1.87157
1480628806086600,-0.676957,0.161511,-1.87157
1480628806109662,-0.676957,0.161511,-1.87157
1480628806130217,-0.676957,0.161511,-1.87157
1480628806152777,-0.676837,0.161439,-1.8715
1480628806174835,-0.676671,0.161443,-1.8716
1480628806184362,-0.676671,0.161443,-1.8716
1480628806206419,-0.676551,0.161371,-1.87153
1480628806228979,-0.676551,0.161371,-1.87153
1480628806250035,-0.676628,0.161279,-1.87152
1480628806266579,-0.676747,0.161351,-1.87159
1480628806289139,-0.676747,0.161351,-1.87159
1480628806310195,-0.676747,0.161351,-1.87159
1480628806326739,-0.676747,0.161351,-1.87159
1480628806349299,-0.676628,0.161279,-1.87152
1480628806370355,-0.676431,0.161299,-1.87146
1480628806386398,-0.676355,0.16125,-1.87152
1480628806408957,-0.676355,0.16125,-1.87152
1480628806431016,-0.676235,0.161178,-1.87145
1480628806452575,-0.676235,0.161178,-1.87145
1480628806469118,-0.676355,0.16125,-1.87152
1480628806490175,-0.676355,0.16125,-1.87152
1480628806506720,-0.676235,0.161178,-1.87145
1480628806529278,-0.676235,0.161178,-1.87145
1480628806550335,-0.676235,0.161178,-1.87145
1480628806567379,-0.676115,0.161106,-1.87138
1480628806588937,-0.676039,0.161198,-1.8714
1480628806609992,-0.675949,0.16111,-1.87148
1480628806626036,-0.675949,0.16111,-1.87148
1480628806649096,-0.675829,0.161038,-1.87141
1480628806677672,-0.675829,0.161038,-1.87141
1480628806686697,-0.675829,0.161038,-1.87141
1480628806709257,-0.675829,0.161038,-1.87141
1480628806731315,-0.675949,0.16111,-1.87148
1480628806746857,-0.675949,0.16111,-1.87148
1480628806769417,-0.675829,0.161038,-1.87141
1480628806791476,-0.675723,0.161005,-1.87132
1480628806807017,-0.675526,0.161025,-1.87126
1480628806829075,-0.675526,0.161025,-1.87126
1480628806851636,-0.675556,0.161008,-1.87141
1480628806865673,-0.675437,0.160936,-1.87134
1480628806889236,-0.675437,0.160936,-1.87134
1480628806911294,-0.675633,0.160916,-1.8714
1480628806927337,-0.675603,0.160933,-1.87125
1480628806948894,-0.675603,0.160933,-1.87125
1480628806971455,-0.674967,0.160927,-1.87129
1480628806985995,-0.674848,0.160855,-1.87122
1480628807009556,-0.674771,0.160947,-1.87123
1480628807031615,-0.674651,0.160875,-1.87116
1480628807046154,-0.674545,0.160842,-1.87107
1480628807069715,-0.674805,0.160692,-1.87114
1480628807091273,-0.674805,0.160692,-1.87114
1480628807106816,-0.674924,0.160763,-1.87121
1480628807128873,-0.674924,0.160763,-1.87121
1480628807151435,-0.674805,0.160692,-1.87114
1480628807172489,-0.67527,0.160795,-1.87099
1480628807189033,-0.67527,0.160795,-1.87099
1480628807211593,-0.67527,0.160795,-1.87099
1480628807234654,-0.675104,0.160798,-1.87109
1480628807262730,-0.674984,0.160727,-1.87102
1480628807271754,-0.674865,0.160655,-1.87095
1480628807292809,-0.674865,0.160655,-1.87095
1480628807309854,-0.674865,0.160655,-1.87095
1480628807331412,-0.674865,0.160655,-1.87095
1480628807352469,-0.674865,0.160655,-1.87095
1480628807369012,-0.674941,0.160563,-1.87094
1480628807397588,-0.674941,0.160563,-1.87094
1480628807412628,-0.674865,0.160655,-1.87095
1480628807429172,-0.674745,0.160583,-1.87088
1480628807459253,-0.674775,0.160567,-1.87103
1480628807472788,-0.674779,0.160328,-1.87079
1480628807488831,-0.674809,0.160312,-1.87094
1480628807512394,-0.67469,0.16024,-1.87087
1480628807532447,-0.674809,0.160312,-1.87094
1480628807549492,-0.674809,0.160312,-1.87094
1480628807571551,-0.674779,0.160328,-1.87079
1480628807592608,-0.674809,0.160312,-1.87094
1480628807609150,-0.674809,0.160312,-1.87094
1480628807631209,-0.674809,0.160312,-1.87094
1480628807653769,-0.674703,0.160278,-1.87085
1480628807668810,-0.674583,0.160207,-1.87078
1480628807692373,-0.674583,0.160207,-1.87078
1480628807713930,-0.674583,0.160207,-1.87078
1480628807730474,-0.674464,0.160135,-1.87071
1480628807751530,-0.674464,0.160135,-1.87071
1480628807774090,-0.674464,0.160135,-1.87071
1480628807789634,-0.674583,0.160207,-1.87078
1480628807811690,-0.674583,0.160207,-1.87078
1480628807848789,-0.67457,0.160168,-1.87081
1480628807851295,-0.674494,0.160118,-1.87086
1480628807871850,-0.674374,0.160047,-1.8708
1480628807893909,-0.674374,0.160047,-1.8708
1480628807908447,-0.674255,0.159975,-1.87073
1480628807931508,-0.674255,0.159975,-1.87073
1480628807954572,-0.674331,0.159883,-1.87072
1480628807968607,-0.674331,0.159883,-1.87072
1480628807991670,-0.674331,0.159883,-1.87072
1480628808014229,-0.674438,0.159917,-1.87081
1480628808028266,-0.674438,0.159917,-1.87081
1480628808058847,-0.674515,0.159825,-1.8708
1480628808073887,-0.674395,0.159753,-1.87073
1480628808096448,-0.674395,0.159753,-1.87073
1480628808111487,-0.674229,0.159757,-1.87083
1480628808134046,-0.674242,0.159795,-1.8708
1480628808155104,-0.674122,0.159723,-1.87073
1480628808171648,-0.674122,0.159723,-1.87073
1480628808194208,-0.674306,0.159665,-1.87082
1480628808215767,-0.674306,0.159665,-1.87082
1480628808231807,-0.674306,0.159665,-1.87082
1480628808259882,-0.674306,0.159665,-1.87082
1480628808274922,-0.674383,0.159573,-1.87081
1480628808291466,-0.674306,0.159665,-1.87082
1480628808314026,-0.674186,0.159593,-1.87075
1480628808335082,-0.674067,0.159522,-1.87068
1480628808351627,-0.67408,0.15956,-1.87065
1480628808374186,-0.67411,0.159543,-1.87081
1480628808395242,-0.67411,0.159543,-1.87081
1480628808411284,-0.674097,0.159505,-1.87084
1480628808435348,-0.674174,0.159413,-1.87082
1480628808455402,-0.674144,0.15943,-1.87067
1480628808471445,-0.674067,0.159522,-1.87068
1480628808495009,-0.674097,0.159505,-1.87084
1480628808515061,-0.673977,0.159433,-1.87077
1480628808531610,-0.67399,0.159472,-1.87074
1480628808560186,-0.673871,0.1594,-1.87067
1480628808576730,-0.673871,0.1594,-1.87067
1480628808591269,-0.673751,0.159328,-1.8706
1480628808622852,-0.673751,0.159328,-1.8706
1480628808636890,-0.673751,0.159328,-1.8706
1480628808652431,-0.673751,0.159328,-1.8706
1480628808673988,-0.673751,0.159328,-1.8706
1480628808696549,-0.673751,0.159328,-1.8706
1480628808711087,-0.673781,0.159312,-1.87076
1480628808734149,-0.673662,0.15924,-1.87069
1480628808756712,-0.673542,0.159168,-1.87062
1480628808770747,-0.673542,0.159168,-1.87062
1480628808793807,-0.673542,0.159168,-1.87062
1480628808816367,-0.673423,0.159097,-1.87055
1480628808830907,-0.673423,0.159097,-1.87055
1480628808869009,-0.673619,0.159077,-1.87061
1480628808877029,-0.673359,0.159227,-1.87054
1480628808891068,-0.673479,0.159298,-1.8706
1480628808921649,-0.673359,0.159227,-1.87054
1480628808944210,-0.673282,0.159318,-1.87055
1480628808950726,-0.673163,0.159247,-1.87048
1480628808973787,-0.673163,0.159247,-1.87048
1480628808996347,-0.673073,0.159158,-1.87057
1480628809010885,-0.673073,0.159158,-1.87057
1480628809033946,-0.673073,0.159158,-1.87057
1480628809056509,-0.673073,0.159158,-1.87057
1480628809077562,-0.673073,0.159158,-1.87057
1480628809095109,-0.67315,0.159067,-1.87055
1480628809116667,-0.67327,0.159138,-1.87062
1480628809145242,-0.67315,0.159067,-1.87055
1480628809154267,-0.673073,0.159158,-1.87057
1480628809176326,-0.672954,0.159087,-1.8705
1480628809197382,-0.672967,0.159125,-1.87047
1480628809213926,-0.672848,0.159053,-1.8704
1480628809236986,-0.672848,0.159053,-1.8704
1480628809259045,-0.672848,0.159053,-1.8704
1480628809274085,-0.672878,0.159036,-1.87056
1480628809297147,-0.672865,0.158998,-1.87058
1480628809317702,-0.672758,0.158965,-1.87049
1480628809334245,-0.672865,0.158998,-1.87058
1480628809357308,-0.672758,0.158965,-1.87049
1480628809377861,-0.672758,0.158965,-1.87049
1480628809393905,-0.672639,0.158893,-1.87042
1480628809417467,-0.672639,0.158893,-1.87042
1480628809437520,-0.67252,0.158821,-1.87035
1480628809454064,-0.67252,0.158821,-1.87035
1480628809476624,-0.67255,0.158805,-1.87051
1480628809497680,-0.67252,0.158821,-1.87035
1480628809514228,-0.67252,0.158821,-1.87035
1480628809536283,-0.67252,0.158821,-1.87035
1480628809558843,-0.67252,0.158821,-1.87035
1480628809573884,-0.67243,0.158733,-1.87044
1480628809596443,-0.67243,0.158733,-1.87044
1480628809619026,-0.672311,0.158661,-1.87037
1480628809634043,-0.672311,0.158661,-1.87037
1480628809656605,-0.672115,0.158681,-1.87031
1480628809679163,-0.672115,0.158681,-1.87031
1480628809694203,-0.672115,0.158681,-1.87031
1480628809716763,-0.672192,0.15859,-1.8703
1480628809739324,-0.672192,0.15859,-1.8703
1480628809759878,-0.672192,0.15859,-1.8703
1480628809783942,-0.672192,0.15859,-1.8703
1480628809798982,-0.672115,0.158681,-1.87031
1480628809814523,-0.672025,0.158593,-1.8704
1480628809836582,-0.671919,0.15856,-1.8703
1480628809859644,-0.671919,0.15856,-1.8703
1480628809873179,-0.6718,0.158488,-1.87024
1480628809896742,-0.6718,0.158488,-1.87024
1480628809925322,-0.6718,0.158488,-1.87024
1480628809933339,-0.6718,0.158488,-1.87024
1480628809956402,-0.6718,0.158488,-1.87024
1480628809978960,-0.6718,0.158488,-1.87024
1480628810000517,-0.6718,0.158488,-1.87024
1480628810017063,-0.6718,0.158488,-1.87024
1480628810039123,-0.67171,0.1584,-1.87032
1480628810060177,-0.671591,0.158328,-1.87025
1480628810076720,-0.671472,0.158256,-1.87019
1480628810099281,-0.671472,0.158256,-1.87019
1480628810120337,-0.671395,0.158348,-1.8702
1480628810136881,-0.671395,0.158348,-1.8702
1480628810158940,-0.671395,0.158348,-1.8702
1480628810180496,-0.671395,0.158348,-1.8702
1480628810196539,-0.671472,0.158256,-1.87019
1480628810219100,-0.671305,0.15826,-1.87028
1480628810240156,-0.671305,0.15826,-1.87028
1480628810256702,-0.671305,0.15826,-1.87028
1480628810279260,-0.670598,0.158106,-1.87009
1480628810307334,-0.670509,0.158018,-1.87018
1480628810316358,-0.670509,0.158018,-1.87018
1480628810339421,-0.670403,0.157984,-1.87008
1480628810367494,-0.670403,0.157984,-1.87008
1480628810376518,-0.670522,0.158056,-1.87015
1480628810399078,-0.670509,0.158018,-1.87018
1480628810422140,-0.670509,0.158018,-1.87018
1480628810436679,-0.670509,0.158018,-1.87018
1480628810459240,-0.670522,0.158056,-1.87015
1480628810481798,-0.670403,0.157984,-1.87008
1480628810496337,-0.670284,0.157913,-1.87002
1480628810518900,-0.670207,0.158004,-1.87003
1480628810541457,-0.670207,0.158004,-1.87003
1480628810556499,-0.670207,0.158004,-1.87003
1480628810579559,-0.670207,0.158004,-1.87003
1480628810602118,-0.670088,0.157933,-1.86996
1480628810617158,-0.670207,0.158004,-1.87003
1480628810639718,-0.670207,0.158004,-1.87003
1480628810662278,-0.670207,0.158004,-1.87003
1480628810675815,-0.670118,0.157916,-1.87011
1480628810698876,-0.670118,0.157916,-1.87011
1480628810721436,-0.669922,0.157936,-1.87006
1480628810735974,-0.669922,0.157936,-1.87006
1480628810759036,-0.669802,0.157864,-1.86999
1480628810781596,-0.669922,0.157936,-1.87006
1480628810796135,-0.669998,0.157844,-1.87005
1480628810819304,-0.669998,0.157844,-1.87005
1480628810842258,-0.669998,0.157844,-1.87005
1480628810855794,-0.669998,0.157844,-1.87005
1480628810878854,-0.669922,0.157936,-1.87006
1480628810901414,-0.669815,0.157902,-1.86996
1480628810923974,-0.669696,0.157831,-1.8699
1480628810939016,-0.669696,0.157831,-1.8699
1480628810962077,-0.669726,0.157814,-1.87005
1480628810982631,-0.669726,0.157814,-1.87005
1480628810999177,-0.669726,0.157814,-1.87005
1480628811023240,-0.669696,0.157831,-1.8699
1480628811042791,-0.669696,0.157831,-1.8699
1480628811058835,-0.669815,0.157902,-1.86996
1480628811081393,-0.669696,0.157831,-1.8699
1480628811102450,-0.669726,0.157814,-1.87005
1480628811118994,-0.669726,0.157814,-1.87005
1480628811147569,-0.669607,0.157742,-1.86998
1480628811164113,-0.669607,0.157742,-1.86998
1480628811179154,-0.669488,0.157671,-1.86991
1480628811201713,-0.669488,0.157671,-1.86991
1480628811222773,-0.669488,0.157671,-1.86991
1480628811239319,-0.669607,0.157742,-1.86998
1480628811261372,-0.669684,0.157651,-1.86997
1480628811282428,-0.669607,0.157742,-1.86998
1480628811299975,-0.669607,0.157742,-1.86998
1480628811322033,-0.669488,0.157671,-1.86991
1480628811342588,-0.669488,0.157671,-1.86991
1480628811359133,-0.669398,0.157582,-1.87
1480628811381692,-0.669398,0.157582,-1.87
1480628811403250,-0.669279,0.157511,-1.86993
1480628811418792,-0.669279,0.157511,-1.86993
1480628811441351,-0.669398,0.157582,-1.87
1480628811463911,-0.669398,0.157582,-1.87
1480628811478952,-0.669369,0.157599,-1.86985
1480628811501511,-0.669488,0.157671,-1.86991
1480628811524071,-0.669369,0.157599,-1.86985
1480628811545127,-0.669398,0.157582,-1.87
1480628811561671,-0.669398,0.157582,-1.87
1480628811591250,-0.669279,0.157511,-1.86993
1480628811605287,-0.669279,0.157511,-1.86993
1480628811621330,-0.66916,0.157439,-1.86986
1480628811644892,-0.669279,0.157511,-1.86993
1480628811658429,-0.669279,0.157511,-1.86993
1480628811682994,-0.669279,0.157511,-1.86993
1480628811704552,-0.669356,0.157419,-1.86992
1480628811718590,-0.669475,0.157491,-1.86999
1480628811741650,-0.669356,0.157419,-1.86992
1480628811764211,-0.669356,0.157419,-1.86992
1480628811778248,-0.669356,0.157419,-1.86992
1480628811807325,-0.669237,0.157347,-1.86985
1480628811831389,-0.66916,0.157439,-1.86986
1480628811838408,-0.669237,0.157347,-1.86985
1480628811861469,-0.669237,0.157347,-1.86985
1480628811884531,-0.669237,0.157347,-1.86985
1480628811898567,-0.669356,0.157419,-1.86992
1480628811923134,-0.669356,0.157419,-1.86992
1480628811951710,-0.669356,0.157419,-1.86992
1480628811965245,-0.669356,0.157419,-1.86992
1480628811981290,-0.669237,0.157347,-1.86985
1480628812003847,-0.669237,0.157347,-1.86985
1480628812024904,-0.669148,0.157259,-1.86994
1480628812041949,-0.669148,0.157259,-1.86994
1480628812064007,-0.669148,0.157259,-1.86994
1480628812085065,-0.669148,0.157259,-1.86994
1480628812102109,-0.669225,0.157167,-1.86993
1480628812124168,-0.669314,0.157255,-1.86984
1480628812145225,-0.669267,0.157331,-1.87001
1480628812161266,-0.669344,0.157239,-1.87
1480628812184328,-0.669148,0.157259,-1.86994
1480628812204883,-0.669148,0.157259,-1.86994
1480628812221427,-0.669029,0.157187,-1.86987
1480628812250004,-0.669029,0.157187,-1.86987
1480628812265543,-0.66891,0.157116,-1.8698
1480628812281586,-0.66891,0.157116,-1.8698
1480628812304149,-0.669106,0.157095,-1.86986
1480628812325203,-0.669106,0.157095,-1.86986
1480628812341747,-0.669106,0.157095,-1.86986
1480628812363805,-0.669106,0.157095,-1.86986
1480628812386369,-0.669106,0.157095,-1.86986
1480628812401405,-0.668986,0.157024,-1.86979
1480628812424467,-0.668986,0.157024,-1.86979
1480628812448030,-0.669016,0.157007,-1.86995
1480628812475101,-0.668897,0.156935,-1.86988
1480628812484125,-0.668897,0.156935,-1.86988
1480628812506685,-0.668897,0.156935,-1.86988
1480628812520724,-0.668897,0.156935,-1.86988
1480628812549800,-0.668897,0.156935,-1.86988
1480628812566344,-0.668986,0.157024,-1.86979
1480628812580891,-0.668986,0.157024,-1.86979
1480628812603944,-0.668986,0.157024,-1.86979
1480628812634025,-0.669016,0.157007,-1.86995
1480628812648061,-0.668897,0.156935,-1.86988
1480628812664104,-0.668897,0.156935,-1.86988
1480628812686664,-0.668701,0.156956,-1.86982
1480628812700702,-0.668778,0.156864,-1.86981
1480628812724264,-0.668897,0.156935,-1.86988
1480628812753844,-0.668897,0.156935,-1.86988
1480628812760861,-0.668897,0.156935,-1.86988
1480628812785427,-0.668897,0.156935,-1.86988
1480628812806483,-0.668897,0.156935,-1.86988
1480628812821022,-0.668778,0.156864,-1.86981
1480628812844083,-0.668778,0.156864,-1.86981
1480628812866643,-0.668778,0.156864,-1.86981
1480628812887699,-0.668612,0.156867,-1.86991
1480628812904244,-0.668612,0.156867,-1.86991
1480628812926302,-0.668689,0.156775,-1.8699
1480628812947358,-0.668659,0.156792,-1.86974
1480628812963902,-0.668387,0.156762,-1.86975
1480628812986464,-0.66831,0.156854,-1.86976
1480628813007518,-0.66831,0.156854,-1.86976
1480628813024063,-0.668191,0.156782,-1.86969
1480628813046622,-0.668191,0.156782,-1.86969
1480628813067677,-0.668221,0.156765,-1.86985
1480628813084222,-0.668102,0.156694,-1.86978
1480628813106280,-0.668102,0.156694,-1.86978
1480628813127838,-0.667983,0.156622,-1.86971
1480628813145886,-0.667983,0.156622,-1.86971
1480628813166440,-0.667983,0.156622,-1.86971
1480628813196019,-0.667983,0.156622,-1.86971
1480628813204041,-0.668102,0.156694,-1.86978
1480628813227102,-0.668102,0.156694,-1.86978
1480628813247656,-0.668102,0.156694,-1.86978
1480628813264702,-0.668102,0.156694,-1.86978
1480628813286261,-0.667983,0.156622,-1.86971
1480628813307817,-0.667864,0.15655,-1.86964
1480628813323860,-0.667864,0.15655,-1.86964
1480628813352936,-0.667864,0.15655,-1.86964
1480628813368979,-0.667864,0.15655,-1.86964
1480628813392543,-0.667983,0.156622,-1.86971
1480628813406579,-0.667983,0.156622,-1.86971
1480628813429139,-0.667983,0.156622,-1.86971
1480628813443177,-0.667983,0.156622,-1.86971
1480628813473757,-0.667983,0.156622,-1.86971
1480628813489302,-0.667787,0.156642,-1.86965
1480628813503337,-0.667817,0.156625,-1.86981
1480628813533918,-0.667711,0.156592,-1.86971
1480628813564499,-0.667711,0.156592,-1.86971
1480628813570014,-0.667711,0.156592,-1.86971
1480628813586559,-0.667711,0.156592,-1.86971
1480628813617641,-0.667698,0.156554,-1.86974
1480628813623659,-0.667698,0.156554,-1.86974
1480628813646718,-0.667817,0.156625,-1.86981
1480628813669278,-0.66783,0.156663,-1.86978
1480628813683316,-0.667711,0.156592,-1.86971
1480628813707379,-0.667634,0.156683,-1.86972
1480628813728937,-0.667634,0.156683,-1.86972
1480628813751998,-0.667515,0.156612,-1.86966
1480628813766538,-0.667515,0.156612,-1.86966
1480628813789100,-0.667396,0.15654,-1.86959
1480628813810153,-0.667515,0.156612,-1.86966
1480628813826697,-0.667515,0.156612,-1.86966
1480628813848755,-0.667515,0.156612,-1.86966
1480628813870313,-0.667515,0.156612,-1.86966
1480628813886858,-0.667515,0.156612,-1.86966
1480628813908915,-0.667515,0.156612,-1.86966
1480628813929972,-0.667396,0.15654,-1.86959
1480628813946516,-0.667396,0.15654,-1.86959
1480628813969076,-0.667319,0.156632,-1.8696
1480628813990132,-0.66723,0.156543,-1.86969
1480628814006676,-0.66723,0.156543,-1.86969
1480628814029236,-0.667396,0.15654,-1.86959
1480628814057813,-0.667396,0.15654,-1.86959
1480628814066334,-0.667941,0.156458,-1.86963
1480628814088898,-0.667941,0.156458,-1.86963
1480628814111454,-0.667941,0.156458,-1.86963
1480628814126494,-0.667941,0.156458,-1.86963
1480628814149054,-0.667851,0.15637,-1.86972
1480628814170110,-0.667954,0.156496,-1.8696
1480628814186654,-0.667835,0.156425,-1.86954
1480628814215231,-0.667835,0.156425,-1.86954
1480628814230270,-0.667835,0.156425,-1.86954
1480628814246313,-0.667912,0.156333,-1.86953
1480628814268874,-0.667899,0.156295,-1.86955
1480628814291433,-0.668018,0.156367,-1.86962
1480628814306473,-0.668018,0.156367,-1.86962
1480628814329033,-0.667912,0.156333,-1.86953
1480628814352097,-0.667912,0.156333,-1.86953
1480628814366634,-0.668155,0.156238,-1.86942
1480628814389194,-0.668184,0.156221,-1.86957
1480628814411753,-0.668065,0.156149,-1.8695
1480628814425791,-0.668065,0.156149,-1.8695
1480628814448852,-0.668065,0.156149,-1.8695
1480628814471413,-0.668052,0.156111,-1.86953
1480628814494974,-0.668129,0.15602,-1.86952
1480628814496479,-0.668248,0.156091,-1.86959
1480628814514528,-0.668219,0.156108,-1.86943
1480628814537087,-0.668219,0.156108,-1.86943
1480628814560650,-0.668248,0.156091,-1.86959
1480628814581705,-0.668129,0.15602,-1.86952
1480628814596745,-0.668129,0.15602,-1.86952
1480628814614794,-0.668023,0.155986,-1.86943
1480628814635849,-0.66801,0.155948,-1.86945
1480628814656907,-0.668129,0.15602,-1.86952
1480628814673449,-0.668129,0.15602,-1.86952
1480628814694505,-0.668325,0.156,-1.86958
1480628814717066,-0.668325,0.156,-1.86958
1480628814733610,-0.668295,0.156016,-1.86942
1480628814755671,-0.668325,0.156,-1.86958
1480628814776725,-0.668325,0.156,-1.86958
1480628814793269,-0.668129,0.15602,-1.86952
1480628814814324,-0.66801,0.155948,-1.86945
1480628814839893,-0.668087,0.155856,-1.86944
1480628814860949,-0.668087,0.155856,-1.86944
1480628814875988,-0.668206,0.155928,-1.86951
1480628814897044,-0.668206,0.155928,-1.86951
1480628814915092,-0.668206,0.155928,-1.86951
1480628814934644,-0.668206,0.155928,-1.86951
1480628814956703,-0.668206,0.155928,-1.86951
1480628814974751,-0.668206,0.155928,-1.86951
1480628815001823,-0.668087,0.155856,-1.86944
1480628815016864,-0.668087,0.155856,-1.86944
1480628815039423,-0.668087,0.155856,-1.86944
1480628815055971,-0.667968,0.155785,-1.86937
1480628815084544,-0.668087,0.155856,-1.86944
1480628815099583,-0.668087,0.155856,-1.86944
1480628815117130,-0.668164,0.155765,-1.86943
1480628815139690,-0.668087,0.155856,-1.86944
1480628815159744,-0.668087,0.155856,-1.86944
1480628815174282,-0.668087,0.155856,-1.86944
1480628815196842,-0.668087,0.155856,-1.86944
1480628815220907,-0.668087,0.155856,-1.86944
1480628815234443,-0.667998,0.155768,-1.86953
1480628815257003,-0.667998,0.155768,-1.86953
1480628815282570,-0.667998,0.155768,-1.86953
1480628815298112,-0.667998,0.155768,-1.86953
1480628815316661,-0.667998,0.155768,-1.86953
1480628815339221,-0.668075,0.155676,-1.86952
1480628815361781,-0.668075,0.155676,-1.86952
1480628815376821,-0.668164,0.155765,-1.86943
1480628815399380,-0.668075,0.155676,-1.86952
1480628815421943,-0.668075,0.155676,-1.86952
1480628815436981,-0.667879,0.155696,-1.86946
1480628815459541,-0.667879,0.155696,-1.86946
1480628815474581,-0.66776,0.155625,-1.86939
1480628815497141,-0.66776,0.155625,-1.86939
1480628815536244,-0.66776,0.155625,-1.86939
1480628815539253,-0.667956,0.155605,-1.86945
1480628815556799,-0.667956,0.155605,-1.86945
1480628815579359,-0.667636,0.155791,-1.86957
1480628815594400,-0.667636,0.155791,-1.86957
1480628815616960,-0.667636,0.155791,-1.86957
1480628815639519,-0.667517,0.15572,-1.8695
1480628815662081,-0.667517,0.15572,-1.8695
1480628815677119,-0.667334,0.155778,-1.86942
1480628815699178,-0.667334,0.155778,-1.86942
1480628815714218,-0.667334,0.155778,-1.86942
1480628815736779,-0.667334,0.155778,-1.86942
1480628815759338,-0.667453,0.155849,-1.86949
1480628815775883,-0.667517,0.15572,-1.8695
1480628815804458,-0.667517,0.15572,-1.8695
1480628815819500,-0.66744,0.155812,-1.86951
1480628815836545,-0.66744,0.155812,-1.86951
1480628815857100,-0.667453,0.155849,-1.86949
1480628815879157,-0.667334,0.155778,-1.86942
1480628815895701,-0.667334,0.155778,-1.86942
1480628815916758,-0.667334,0.155778,-1.86942
1480628815939317,-0.667334,0.155778,-1.86942
1480628815955863,-0.667334,0.155778,-1.86942
1480628815976917,-0.667321,0.15574,-1.86945
1480628815999477,-0.66744,0.155812,-1.86951
1480628816016021,-0.667517,0.15572,-1.8695
1480628816037078,-0.667334,0.155778,-1.86942
1480628816059637,-0.667334,0.155778,-1.86942
1480628816075680,-0.66662,0.155352,-1.86952
1480628816096736,-0.666531,0.155263,-1.8696
1480628816119800,-0.666531,0.155263,-1.8696
1480628816144864,-0.666531,0.155263,-1.8696
1480628816156897,-0.666531,0.155263,-1.8696
1480628816179456,-0.666531,0.155263,-1.8696
1480628816197505,-0.666531,0.155263,-1.8696
1480628816218561,-0.666531,0.155263,-1.8696
1480628816248139,-0.66665,0.155335,-1.86967
1480628816257163,-0.666169,0.155287,-1.86964
1480628816279723,-0.66605,0.155215,-1.86958
1480628816299274,-0.66605,0.155215,-1.86958
1480628816317324,-0.665944,0.155181,-1.86948
1480628816336876,-0.665974,0.155165,-1.86964
1480628816359435,-0.665897,0.155257,-1.86965
1480628816383499,-0.665974,0.155165,-1.86964
1480628816397537,-0.665974,0.155165,-1.86964
1480628816419594,-0.665974,0.155165,-1.86964
1480628816441654,-0.665974,0.155165,-1.86964
1480628816456696,-0.665944,0.155181,-1.86948
1480628816479754,-0.665867,0.155273,-1.86949
1480628816497302,-0.665897,0.155257,-1.86965
1480628816516855,-0.665778,0.155185,-1.86958
1480628816539414,-0.665778,0.155185,-1.86958
1480628816561973,-0.665778,0.155185,-1.86958
1480628816577014,-0.665778,0.155185,-1.86958
1480628816601086,-0.665778,0.155185,-1.86958
1480628816623137,-0.665778,0.155185,-1.86958
1480628816639680,-0.665778,0.155185,-1.86958
1480628816659232,-0.665897,0.155257,-1.86965
1480628816698838,-0.665778,0.155185,-1.86958
1480628816702347,-0.665778,0.155185,-1.86958
1480628816722402,-0.665778,0.155185,-1.86958
1480628816750992,-0.665778,0.155185,-1.86958
1480628816756993,-0.665659,0.155113,-1.86951
1480628816779552,-0.665659,0.155113,-1.86951
1480628816802113,-0.665659,0.155113,-1.86951
1480628816818156,-0.665659,0.155113,-1.86951
1480628816839211,-0.665659,0.155113,-1.86951
1480628816863276,-0.666217,0.155069,-1.86953
1480628816878317,-0.666217,0.155069,-1.86953
1480628816899372,-0.666217,0.155069,-1.86953
1480628816921934,-0.666217,0.155069,-1.86953
1480628816939979,-0.666021,0.15509,-1.86947
1480628816959531,-0.666021,0.15509,-1.86947
1480628816982092,-0.665902,0.155018,-1.8694
1480628816999638,-0.666264,0.154994,-1.86936
1480628817019191,-0.666822,0.154951,-1.86938
1480628817042252,-0.666822,0.154951,-1.86938
1480628817058295,-0.666941,0.155022,-1.86944
1480628817079350,-0.666941,0.155022,-1.86944
1480628817101911,-0.666911,0.155039,-1.86929
1480628817119960,-0.666911,0.155039,-1.86929
1480628817139510,-0.666911,0.155039,-1.86929
1480628817164577,-0.666822,0.154951,-1.86938
1480628817180118,-0.666822,0.154951,-1.86938
1480628817199169,-0.666822,0.154951,-1.86938
1480628817225739,-0.666822,0.154951,-1.86938
1480628817247799,-0.666822,0.154951,-1.86938
1480628817267351,-0.666822,0.154951,-1.86938
1480628817281889,-0.666822,0.154951,-1.86938
1480628817299937,-0.666822,0.154951,-1.86938
1480628817319489,-0.666822,0.154951,-1.86938
1480628817342049,-0.666822,0.154951,-1.86938
1480628817360097,-0.666822,0.154951,-1.86938
1480628817386668,-0.666822,0.154951,-1.86938
1480628817401707,-0.666703,0.154879,-1.86931
1480628817419762,-0.666703,0.154879,-1.86931
1480628817440812,-0.666703,0.154879,-1.86931
1480628817464875,-0.666703,0.154879,-1.86931
1480628817479916,-0.666703,0.154879,-1.86931
1480628817501473,-0.666886,0.154821,-1.86939
1480628817522030,-0.666886,0.154821,-1.86939
1480628817539574,-0.666886,0.154821,-1.86939
1480628817559627,-0.666886,0.154821,-1.86939
1480628817583190,-0.666886,0.154821,-1.86939
1480628817602242,-0.666767,0.154749,-1.86932
1480628817619287,-0.66678,0.154787,-1.8693
1480628817643353,-0.666703,0.154879,-1.86931
1480628817659894,-0.666703,0.154879,-1.86931
1480628817680951,-0.66678,0.154787,-1.8693
1480628817702007,-0.666886,0.154821,-1.86939
1480628817720055,-0.666886,0.154821,-1.86939
1480628817740610,-0.666886,0.154821,-1.86939
1480628817761666,-0.666886,0.154821,-1.86939
1480628817779714,-0.666886,0.154821,-1.86939
1480628817800779,-0.666703,0.154879,-1.86931
1480628817823329,-0.666703,0.154879,-1.86931
1480628817839874,-0.666703,0.154879,-1.86931
1480628817860929,-0.666584,0.154807,-1.86924
1480628817881986,-0.666584,0.154807,-1.86924
1480628817900535,-0.666584,0.154807,-1.86924
1480628817922594,-0.666703,0.154879,-1.86931
1480628817941644,-0.66678,0.154787,-1.8693
1480628817959692,-0.66678,0.154787,-1.8693
1480628817980750,-0.66678,0.154787,-1.8693
1480628818001804,-0.666703,0.154879,-1.86931
1480628818024365,-0.666703,0.154879,-1.86931
1480628818040908,-0.666584,0.154807,-1.86924
1480628818061964,-0.666584,0.154807,-1.86924
1480628818084525,-0.666614,0.154791,-1.8694
1480628818102573,-0.666614,0.154791,-1.8694
1480628818122128,-0.666584,0.154807,-1.86924
1480628818144183,-0.666584,0.154807,-1.86924
1480628818166743,-0.666661,0.154716,-1.86923
1480628818181783,-0.66678,0.154787,-1.8693
1480628818204344,-0.66678,0.154787,-1.8693
1480628818222392,-0.666661,0.154716,-1.86923
1480628818241943,-0.666584,0.154807,-1.86924
1480628818264503,-0.666614,0.154791,-1.8694
1480628818282551,-0.666495,0.154719,-1.86933
1480628818303607,-0.666495,0.154719,-1.86933
1480628818324162,-0.666495,0.154719,-1.86933
1480628818342209,-0.666495,0.154719,-1.86933
1480628818361762,-0.666495,0.154719,-1.86933
1480628818384322,-0.666495,0.154719,-1.86933
1480628818403373,-0.666614,0.154791,-1.8694
1480628818424930,-0.666614,0.154791,-1.8694
1480628818444481,-0.666495,0.154719,-1.86933
1480628818462531,-0.666495,0.154719,-1.86933
1480628818482082,-0.666376,0.154647,-1.86926
1480628818504644,-0.666376,0.154647,-1.86926
1480628818522189,-0.666376,0.154647,-1.86926
1480628818541741,-0.666376,0.154647,-1.86926
1480628818564301,-0.666376,0.154647,-1.86926
1480628818582352,-0.666495,0.154719,-1.86933
1480628818601900,-0.666495,0.154719,-1.86933
1480628818624462,-0.666495,0.154719,-1.86933
1480628818642509,-0.666376,0.154647,-1.86926
1480628818662061,-0.666376,0.154647,-1.86926
1480628818684621,-0.666299,0.154739,-1.86927
1480628818702168,-0.666299,0.154739,-1.86927
1480628818723226,-0.666376,0.154647,-1.86926
1480628818744279,-0.666257,0.154576,-1.86919
1480628818762327,-0.666257,0.154576,-1.86919
1480628818783384,-0.666376,0.154647,-1.86926
1480628818804441,-0.666376,0.154647,-1.86926
1480628818830007,-0.666376,0.154647,-1.86926
1480628818858082,-0.666376,0.154647,-1.86926
1480628818864599,-0.666376,0.154647,-1.86926
1480628818887160,-0.666376,0.154647,-1.86926
1480628818910723,-0.666257,0.154576,-1.86919
1480628818924264,-0.666287,0.154559,-1.86935
1480628818942306,-0.666168,0.154487,-1.86928
1480628818972386,-0.666168,0.154487,-1.86928
1480628818984419,-0.666168,0.154487,-1.86928
1480628819002466,-0.666287,0.154559,-1.86935
1480628819025530,-0.666287,0.154559,-1.86935
1480628819044579,-0.666738,0.154624,-1.86922
1480628819062126,-0.666649,0.154535,-1.86931
1480628819084686,-0.666649,0.154535,-1.86931
1480628819104741,-0.666649,0.154535,-1.86931
1480628819134317,-0.666453,0.154556,-1.86925
1480628819152365,-0.666334,0.154484,-1.86918
1480628819164397,-0.666334,0.154484,-1.86918
1480628819186960,-0.666334,0.154484,-1.86918
1480628819221552,-0.666334,0.154484,-1.86918
1480628819226563,-0.666334,0.154484,-1.86918
1480628819242608,-0.666334,0.154484,-1.86918
1480628819264664,-0.666453,0.154556,-1.86925
1480628819284217,-0.666334,0.154484,-1.86918
1480628819302264,-0.666334,0.154484,-1.86918
1480628819330840,-0.666216,0.154412,-1.86912
1480628819344377,-0.666168,0.154487,-1.86928
1480628819362925,-0.666063,0.154453,-1.86919
1480628819384985,-0.666383,0.154266,-1.86907
1480628819404535,-0.666369,0.154229,-1.86909
1480628819422085,-0.666369,0.154229,-1.86909
1480628819445145,-0.666383,0.154266,-1.86907
1480628819471716,-0.666383,0.154266,-1.86907
1480628819486755,-0.666654,0.154297,-1.86906
1480628819504802,-0.666654,0.154297,-1.86906
1480628819524354,-0.666565,0.154209,-1.86915
1480628819546915,-0.666565,0.154209,-1.86915
1480628819565464,-0.666447,0.154137,-1.86908
1480628819584515,-0.666447,0.154137,-1.86908
1480628819607075,-0.666447,0.154137,-1.86908
1480628819624622,-0.666447,0.154137,-1.86908
1480628819645678,-0.666447,0.154137,-1.86908
1480628819674254,-0.666447,0.154137,-1.86908
1480628819684782,-0.666565,0.154209,-1.86915
1480628819705837,-0.666565,0.154209,-1.86915
1480628819726893,-0.666383,0.154266,-1.86907
1480628819744942,-0.666745,0.154243,-1.86902
1480628819773517,-0.666626,0.154171,-1.86896
1480628819787054,-0.666626,0.154171,-1.86896
1480628819805102,-0.666507,0.1541,-1.86889
1480628819825657,-0.66643,0.154191,-1.8689
1480628819848217,-0.66643,0.154191,-1.8689
1480628819864761,-0.666507,0.1541,-1.86889
1480628819885817,-0.666626,0.154171,-1.86896
1480628819906873,-0.666549,0.154263,-1.86897
1480628819929432,-0.666549,0.154263,-1.86897
1480628819947480,-0.666549,0.154263,-1.86897
1480628819967036,-0.66643,0.154191,-1.8689
1480628819985082,-0.66643,0.154191,-1.8689
1480628820008142,-0.666324,0.154157,-1.86881
1480628820026692,-0.666507,0.1541,-1.86889
1480628820050756,-0.666507,0.1541,-1.86889
1480628820067299,-0.666507,0.1541,-1.86889
1480628820086853,-0.666507,0.1541,-1.86889
1480628820109411,-0.666626,0.154171,-1.86896
1480628820131973,-0.666626,0.154171,-1.86896
1480628820147012,-0.666609,0.154226,-1.86878
1480628820164559,-0.666609,0.154226,-1.86878
1480628820187622,-0.666882,0.154114,-1.86882
1480628820215695,-0.666993,0.153909,-1.86867
1480628820224719,-0.667023,0.153893,-1.86883
1480628820248782,-0.667023,0.153893,-1.86883
1480628820274349,-0.666993,0.153909,-1.86867
1480628820296910,-0.666993,0.153909,-1.86867
1480628820308441,-0.66767,0.153938,-1.86875
1480628820329999,-0.66767,0.153938,-1.86875
1480628820344536,-0.66767,0.153938,-1.86875
1480628820367598,-0.667593,0.154029,-1.86876
1480628820388655,-0.667878,0.154098,-1.86873
1480628820426254,-0.667759,0.154026,-1.86867
1480628820428761,-0.667759,0.154026,-1.86867
1480628820446809,-0.66764,0.153954,-1.8686
1480628820472376,-0.66764,0.153954,-1.8686
1480628820487421,-0.66764,0.153954,-1.8686
1480628820506975,-0.66764,0.153954,-1.8686
1480628820525017,-0.667759,0.154026,-1.86867
1480628820547577,-0.667759,0.154026,-1.86867
1480628820574649,-0.667759,0.154026,-1.86867
1480628820589187,-0.667759,0.154026,-1.86867
1480628820607236,-0.667759,0.154026,-1.86867
1480628820628291,-0.66764,0.153954,-1.8686
1480628820644836,-0.66764,0.153954,-1.8686
1480628820667395,-0.667576,0.154084,-1.86858
1480628820688453,-0.667576,0.154084,-1.86858
1480628820717028,-0.667654,0.153992,-1.86857
1480628820727556,-0.66764,0.153954,-1.8686
1480628820748615,-0.66764,0.153954,-1.8686
1480628820766158,-0.66764,0.153954,-1.8686
1480628820787717,-0.667759,0.154026,-1.86867
1480628820808270,-0.66764,0.153954,-1.8686
1480628820824816,-0.66764,0.153954,-1.8686
1480628820854898,-0.667521,0.153883,-1.86853
1480628820869433,-0.667564,0.153904,-1.86866
1480628820884975,-0.667564,0.153904,-1.86866
1480628820907535,-0.667279,0.153835,-1.86869
1480628820935609,-0.667279,0.153835,-1.86869
1480628820949145,-0.66725,0.153852,-1.86854
1480628820967193,-0.66725,0.153852,-1.86854
1480628820990757,-0.667355,0.153886,-1.86863
1480628821009305,-0.667368,0.153924,-1.8686
1480628821027354,-0.667291,0.154016,-1.86861
1480628821049913,-0.667173,0.153944,-1.86855
1480628821069466,-0.667202,0.153927,-1.8687
1480628821087517,-0.667084,0.153855,-1.86863
1480628821109572,-0.667084,0.153855,-1.86863
1480628821129625,-0.667084,0.153855,-1.86863
1480628821147172,-0.667084,0.153855,-1.86863
1480628821169732,-0.667202,0.153927,-1.8687
1480628821189284,-0.667202,0.153927,-1.8687
1480628821207333,-0.667202,0.153927,-1.8687
1480628821230895,-0.667202,0.153927,-1.8687
1480628821249444,-0.667084,0.153855,-1.86863
1480628821267492,-0.667084,0.153855,-1.86863
1480628821294565,-0.666965,0.153784,-1.86857
1480628821316623,-0.666965,0.153784,-1.86857
1480628821327652,-0.666965,0.153784,-1.86857
1480628821349209,-0.666965,0.153784,-1.86857
1480628821370770,-0.667084,0.153855,-1.86863
1480628821386810,-0.667084,0.153855,-1.86863
1480628821408868,-0.667202,0.153927,-1.8687
1480628821430425,-0.667202,0.153927,-1.8687
1480628821446469,-0.667084,0.153855,-1.86863
1480628821469029,-0.667084,0.153855,-1.86863
1480628821490085,-0.667084,0.153855,-1.86863
1480628821506628,-0.666888,0.153876,-1.86858
1480628821529188,-0.666888,0.153876,-1.86858
1480628821550245,-0.666888,0.153876,-1.86858
1480628821566287,-0.666888,0.153876,-1.86858
1480628821589349,-0.666888,0.153876,-1.86858
1480628821609903,-0.666888,0.153876,-1.86858
1480628821633967,-0.666888,0.153876,-1.86858
1480628821649007,-0.666888,0.153876,-1.86858
1480628821672069,-0.666888,0.153876,-1.86858
1480628821692625,-0.666888,0.153876,-1.86858
1480628821709167,-0.666888,0.153876,-1.86858
1480628821730223,-0.666888,0.153876,-1.86858
1480628821746266,-0.666782,0.153842,-1.86848
1480628821769328,-0.666782,0.153842,-1.86848
1480628821797404,-0.667067,0.15391,-1.86845
1480628821806425,-0.667263,0.15389,-1.86851
1480628821828986,-0.667186,0.153982,-1.86852
1480628821859066,-0.667186,0.153982,-1.86852
1480628821866587,-0.667186,0.153982,-1.86852
1480628821889147,-0.667186,0.153982,-1.86852
1480628821911706,-0.667067,0.15391,-1.86845
1480628821926746,-0.66699,0.154002,-1.86846
1480628821948805,-0.66699,0.154002,-1.86846
1480628821971364,-0.666871,0.15393,-1.8684
1480628821986955,-0.666871,0.15393,-1.8684
1480628822008965,-0.66699,0.154002,-1.86846
1480628822032527,-0.66699,0.154002,-1.86846
1480628822046063,-0.66699,0.154002,-1.86846
1480628822069626,-0.667067,0.15391,-1.86845
1480628822091685,-0.667067,0.15391,-1.86845
1480628822105723,-0.666871,0.15393,-1.8684
1480628822128783,-0.666871,0.15393,-1.8684
1480628822151344,-0.666795,0.153879,-1.86846
1480628822165883,-0.666795,0.153879,-1.86846
1480628822188945,-0.666599,0.153899,-1.8684
1480628822211505,-0.666599,0.153899,-1.8684
1480628822226042,-0.666718,0.153971,-1.86847
1480628822249103,-0.666718,0.153971,-1.86847
1480628822271663,-0.666688,0.153988,-1.86831
1480628822285702,-0.666718,0.153971,-1.86847
1480628822308762,-0.666641,0.154063,-1.86848
1480628822331323,-0.666641,0.154063,-1.86848
1480628822352380,-0.666522,0.153991,-1.86841
1480628822374939,-0.666404,0.153919,-1.86834
1480628822391483,-0.666404,0.153919,-1.86834
1480628822414042,-0.666404,0.153919,-1.86834
1480628822429082,-0.666404,0.153919,-1.86834
1480628822465679,-0.666404,0.153919,-1.86834
1480628822472698,-0.666404,0.153919,-1.86834
1480628822496261,-0.666404,0.153919,-1.86834
1480628822511802,-0.666522,0.153991,-1.86841
1480628822532357,-0.66634,0.154049,-1.86833
1480628822548901,-0.66634,0.154049,-1.86833
1480628822571462,-0.666221,0.153977,-1.86826
1480628822592517,-0.666221,0.153977,-1.86826
1480628822609062,-0.666055,0.153981,-1.86836
1480628822631622,-0.666174,0.154052,-1.86843
1480628822652679,-0.666144,0.154069,-1.86827
1480628822670225,-0.666144,0.154069,-1.86827
1480628822691280,-0.666221,0.153977,-1.86826
1480628822712335,-0.666144,0.154069,-1.86827
1480628822743920,-0.666144,0.154069,-1.86827
1480628822752443,-0.666144,0.154069,-1.86827
1480628822774501,-0.666055,0.153981,-1.86836
1480628822789041,-0.666055,0.153981,-1.86836
1480628822811600,-0.665872,0.154038,-1.86828
1480628822834161,-0.665872,0.154038,-1.86828
1480628822849701,-0.665872,0.154038,-1.86828
1480628822871259,-0.665859,0.154001,-1.8683
1480628822902843,-0.665859,0.154001,-1.8683
1480628822909861,-0.665978,0.154072,-1.86837
1480628822931920,-0.665978,0.154072,-1.86837
1480628822953980,-0.665978,0.154072,-1.86837
1480628822968519,-0.665872,0.154038,-1.86828
1480628822992582,-0.665872,0.154038,-1.86828
1480628823021659,-0.665753,0.153967,-1.86821
1480628823028177,-0.665753,0.153967,-1.86821
1480628823051740,-0.665753,0.153967,-1.86821
1480628823073797,-0.665753,0.153967,-1.86821
1480628823096360,-0.665753,0.153967,-1.86821
1480628823111399,-0.665872,0.154038,-1.86828
1480628823134460,-0.665872,0.154038,-1.86828
1480628823150001,-0.665872,0.154038,-1.86828
1480628823172059,-0.665872,0.154038,-1.86828
1480628823194118,-0.665795,0.15413,-1.86829
1480628823208656,-0.665795,0.15413,-1.86829
1480628823232219,-0.665676,0.154058,-1.86822
1480628823253777,-0.665676,0.154058,-1.86822
1480628823268315,-0.665676,0.154058,-1.86822
1480628823298896,-0.665676,0.154058,-1.86822
1480628823313936,-0.665872,0.154038,-1.86828
1480628823335996,-0.665587,0.15397,-1.86831
1480628823351538,-0.665558,0.153987,-1.86815
1480628823374097,-0.665676,0.154058,-1.86822
1480628823395152,-0.665676,0.154058,-1.86822
1480628823411696,-0.665587,0.15397,-1.86831
1480628823440272,-0.665587,0.15397,-1.86831
1480628823454811,-0.665392,0.15399,-1.86825
1480628823471355,-0.665469,0.153898,-1.86824
1480628823495420,-0.665469,0.153898,-1.86824
1480628823514972,-0.665469,0.153898,-1.86824
1480628823531516,-0.665587,0.15397,-1.86831
1480628823554076,-0.665587,0.15397,-1.86831
1480628823576636,-0.665558,0.153987,-1.86815
1480628823599195,-0.665558,0.153987,-1.86815
1480628823613736,-0.665587,0.15397,-1.86831
1480628823635294,-0.665587,0.15397,-1.86831
1480628823651337,-0.665392,0.15399,-1.86825
1480628823673897,-0.665392,0.15399,-1.86825
1480628823694950,-0.665273,0.153918,-1.86818
1480628823711498,-0.66535,0.153827,-1.86817
1480628823734555,-0.66535,0.153827,-1.86817
1480628823755173,-0.665469,0.153898,-1.86824
1480628823771654,-0.665469,0.153898,-1.86824
1480628823801735,-0.665587,0.15397,-1.86831
1480628823832817,-0.665469,0.153898,-1.86824
1480628823837333,-0.665392,0.15399,-1.86825
1480628823854378,-0.665273,0.153918,-1.86818
1480628823883953,-0.665286,0.153956,-1.86816
1480628823891473,-0.665167,0.153884,-1.86809
1480628823914034,-0.66509,0.153976,-1.8681
1480628823936595,-0.665167,0.153884,-1.86809
1480628823950630,-0.665167,0.153884,-1.86809
1480628823974193,-0.665286,0.153956,-1.86816
1480628823996251,-0.665286,0.153956,-1.86816
1480628824018813,-0.665286,0.153956,-1.86816
1480628824033852,-0.665286,0.153956,-1.86816
1480628824056412,-0.665209,0.154048,-1.86817
1480628824077468,-0.665286,0.153956,-1.86816
1480628824095014,-0.665167,0.153884,-1.86809
1480628824116571,-0.665167,0.153884,-1.86809
1480628824131613,-0.665167,0.153884,-1.86809
1480628824154174,-0.665286,0.153956,-1.86816
1480628824176731,-0.665286,0.153956,-1.86816
1480628824190770,-0.665148,0.154085,-1.86836
1480628824213832,-0.664828,0.154272,-1.86848
1480628824236391,-0.664182,0.154227,-1.86855
1480628824257448,-0.664182,0.154227,-1.86855
1480628824273990,-0.663999,0.154285,-1.86847
1480628824296550,-0.663999,0.154285,-1.86847
1480628824326631,-0.663881,0.154213,-1.8684
1480628824334151,-0.663881,0.154213,-1.8684
1480628824356710,-0.663442,0.154329,-1.86846
1480628824384786,-0.662893,0.154649,-1.86866
1480628824393810,-0.662569,0.154928,-1.86857
1480628824416369,-0.66254,0.154944,-1.86842
1480628824438930,-0.662569,0.154928,-1.86857
1480628824453970,-0.662965,0.154791,-1.86839
1480628824476530,-0.662965,0.154791,-1.86839
1480628824497586,-0.662965,0.154791,-1.86839
1480628824514129,-0.662782,0.154849,-1.86831
1480628824536690,-0.662812,0.154832,-1.86846
1480628824565266,-0.662812,0.154832,-1.86846
1480628824573788,-0.662421,0.154872,-1.86835
1480628824603868,-0.662149,0.154842,-1.86836
1480628824618908,-0.661877,0.154954,-1.86831
1480628824633948,-0.661877,0.154954,-1.86831
1480628824656515,-0.661877,0.154954,-1.86831
1480628824685085,-0.661877,0.154954,-1.86831
1480628824694109,-0.6618,0.155046,-1.86832
1480628824716668,-0.661711,0.154957,-1.86841
1480628824738727,-0.661711,0.154957,-1.86841
1480628824759783,-0.661711,0.154957,-1.86841
1480628824776327,-0.661711,0.154957,-1.86841
1480628824799389,-0.661711,0.154957,-1.86841
1480628824813927,-0.661244,0.154947,-1.86836
1480628824835986,-0.661244,0.154947,-1.86836
1480628824859047,-0.661244,0.154947,-1.86836
1480628824881608,-0.661244,0.154947,-1.86836
1480628824897149,-0.661244,0.154947,-1.86836
1480628824919207,-0.661244,0.154947,-1.86836
1480628824941266,-0.661244,0.154947,-1.86836
1480628824956306,-0.661126,0.154875,-1.86829
1480628824978866,-0.661049,0.154967,-1.8683
1480628824993405,-0.661049,0.154967,-1.8683
1480628825016466,-0.661049,0.154967,-1.8683
1480628825039026,-0.661126,0.154875,-1.86829
1480628825054067,-0.661126,0.154875,-1.86829
1480628825077127,-0.661244,0.154947,-1.86836
1480628825105202,-0.660858,0.154753,-1.86851
1480628825120245,-0.660675,0.15481,-1.86842
1480628825136791,-0.660675,0.15481,-1.86842
1480628825158844,-0.660675,0.15481,-1.86842
1480628825173383,-0.660557,0.154739,-1.86836
1480628825196446,-0.66048,0.154831,-1.86837
1480628825219007,-0.660361,0.154759,-1.8683
1480628825240061,-0.6608,0.154643,-1.86825
1480628825256604,-0.661705,0.154538,-1.86824
1480628825279164,-0.662533,0.154525,-1.86825
1480628825300221,-0.662652,0.154597,-1.86832
1480628825316264,-0.662652,0.154597,-1.86832
1480628825338823,-0.662652,0.154597,-1.86832
1480628825359882,-0.662533,0.154525,-1.86825
1480628825383944,-0.662546,0.154563,-1.86822
1480628825405505,-0.662428,0.154491,-1.86816
1480628825420545,-0.662428,0.154491,-1.86816
1480628825436585,-0.662351,0.154583,-1.86817
1480628825459143,-0.662351,0.154583,-1.86817
1480628825480200,-0.662351,0.154583,-1.86817
1480628825496243,-0.662351,0.154583,-1.86817
1480628825519304,-0.662351,0.154583,-1.86817
1480628825540360,-0.662351,0.154583,-1.86817
1480628825556905,-0.662351,0.154583,-1.86817
1480628825578962,-0.662274,0.154675,-1.86818
1480628825600018,-0.662155,0.154603,-1.86811
1480628825616563,-0.662185,0.154586,-1.86827
1480628825639122,-0.662066,0.154515,-1.8682
1480628825660178,-0.662066,0.154515,-1.8682
1480628825683773,-0.662453,0.154709,-1.86805
1480628825699815,-0.66298,0.154682,-1.86791
1480628825721372,-0.663099,0.154754,-1.86798
1480628825736420,-0.663099,0.154754,-1.86798
1480628825759474,-0.663278,0.154788,-1.86785
1480628825781533,-0.663533,0.154873,-1.86767
1480628825796573,-0.663687,0.154689,-1.86765
1480628825819133,-0.6637,0.154727,-1.86762
1480628825841692,-0.6637,0.154727,-1.86762
1480628825855730,-0.663687,0.154689,-1.86765
1480628825879292,-0.663687,0.154689,-1.86765
1480628825901351,-0.663687,0.154689,-1.86765
1480628825915890,-0.663882,0.154669,-1.8677
1480628825938951,-0.663882,0.154669,-1.8677
1480628825962013,-0.663853,0.154686,-1.86755
1480628825976050,-0.663805,0.154761,-1.86771
1480628825999111,-0.663687,0.154689,-1.86765
1480628826021671,-0.6637,0.154727,-1.86762
1480628826035708,-0.663581,0.154655,-1.86755
1480628826066290,-0.663581,0.154655,-1.86755
1480628826081330,-0.66393,0.154594,-1.86754
1480628826095869,-0.664446,0.154387,-1.86747
1480628826119432,-0.664551,0.154421,-1.86757
1480628826141489,-0.664551,0.154421,-1.86757
1480628826162546,-0.664747,0.154401,-1.86762
1480628826187112,-0.664747,0.154401,-1.86762
1480628826201650,-0.664747,0.154401,-1.86762
1480628826222706,-0.664628,0.154329,-1.86756
1480628826244765,-0.664432,0.154349,-1.8675
1480628826267828,-0.664446,0.154387,-1.86747
1480628826282365,-0.664446,0.154387,-1.86747
1480628826298909,-0.664446,0.154387,-1.86747
1480628826321469,-0.664432,0.154349,-1.8675
1480628826343528,-0.664432,0.154349,-1.8675
1480628826359069,-0.664628,0.154329,-1.86756
1480628826381629,-0.664551,0.154421,-1.86757
1480628826410204,-0.66499,0.154306,-1.86751
1480628826419732,-0.66499,0.154306,-1.86751
1480628826442290,-0.66499,0.154306,-1.86751
1480628826463847,-0.664871,0.154234,-1.86745
1480628826478889,-0.664871,0.154234,-1.86745
1480628826501450,-0.664871,0.154234,-1.86745
1480628826523507,-0.664871,0.154234,-1.86745
1480628826539047,-0.664871,0.154234,-1.86745
1480628826561608,-0.664948,0.154143,-1.86744
1480628826582663,-0.665067,0.154214,-1.8675
1480628826598706,-0.664824,0.154309,-1.86761
1480628826621267,-0.664705,0.154238,-1.86755
1480628826643826,-0.664705,0.154238,-1.86755
1480628826658365,-0.664705,0.154238,-1.86755
1480628826688946,-0.66451,0.154258,-1.86749
1480628826703988,-0.66451,0.154258,-1.86749
1480628826719528,-0.66451,0.154258,-1.86749
1480628826741588,-0.66451,0.154258,-1.86749
1480628826764146,-0.664587,0.154166,-1.86748
1480628826778184,-0.664587,0.154166,-1.86748
1480628826802248,-0.664705,0.154238,-1.86755
1480628826823805,-0.664705,0.154238,-1.86755
1480628826838346,-0.664705,0.154238,-1.86755
1480628826861405,-0.664705,0.154238,-1.86755
1480628826883965,-0.66451,0.154258,-1.86749
1480628826905022,-0.664391,0.154186,-1.86742
1480628826921566,-0.664391,0.154186,-1.86742
1480628826944125,-0.664391,0.154186,-1.86742
1480628826966687,-0.664391,0.154186,-1.86742
1480628826988744,-0.664468,0.154094,-1.86741
1480628827003783,-0.664587,0.154166,-1.86748
1480628827018323,-0.664587,0.154166,-1.86748
1480628827041384,-0.664587,0.154166,-1.86748
1480628827063944,-0.66451,0.154258,-1.86749
1480628827078482,-0.664391,0.154186,-1.86742
1480628827101547,-0.664404,0.154224,-1.8674
1480628827124105,-0.664238,0.154227,-1.86749
1480628827145160,-0.664238,0.154227,-1.86749
1480628827161203,-0.664238,0.154227,-1.86749
1480628827184264,-0.664404,0.154224,-1.8674
1480628827204819,-0.664404,0.154224,-1.8674
1480628827221363,-0.664391,0.154186,-1.86742
1480628827243923,-0.664391,0.154186,-1.86742
1480628827264979,-0.664391,0.154186,-1.86742
1480628827281523,-0.664404,0.154224,-1.8674
1480628827304083,-0.664327,0.154315,-1.86741
1480628827326642,-0.664238,0.154227,-1.86749
1480628827341683,-0.664238,0.154227,-1.86749
1480628827363743,-0.664238,0.154227,-1.86749
1480628827384800,-0.664238,0.154227,-1.86749
1480628827401342,-0.664238,0.154227,-1.86749
1480628827423901,-0.664327,0.154315,-1.86741
1480628827452479,-0.664327,0.154315,-1.86741
1480628827461501,-0.664327,0.154315,-1.86741
1480628827492584,-0.664327,0.154315,-1.86741
1480628827505121,-0.664327,0.154315,-1.86741
1480628827521665,-0.664161,0.154319,-1.8675
1480628827544222,-0.664161,0.154319,-1.8675
1480628827566281,-0.664042,0.154247,-1.86744
1480628827581321,-0.664042,0.154247,-1.86744
1480628827603880,-0.664161,0.154319,-1.8675
1480628827626441,-0.664161,0.154319,-1.8675
1480628827642484,-0.664131,0.154335,-1.86735
1480628827664041,-0.664131,0.154335,-1.86735
1480628827686602,-0.664131,0.154335,-1.86735
1480628827701642,-0.664161,0.154319,-1.8675
1480628827724200,-0.664161,0.154319,-1.8675
1480628827753781,-0.663965,0.154339,-1.86745
1480628827767821,-0.663978,0.154376,-1.86742
1480628827783859,-0.664387,0.154278,-1.86721
1480628827806420,-0.664387,0.154278,-1.86721
1480628827820968,-0.664387,0.154278,-1.86721
1480628827843518,-0.664387,0.154278,-1.86721
1480628827866579,-0.664506,0.15435,-1.86728
1480628827880616,-0.664506,0.15435,-1.86728
1480628827904179,-0.664506,0.15435,-1.86728
1480628827927240,-0.66431,0.15437,-1.86722
1480628827947294,-0.66431,0.15437,-1.86722
1480628827964841,-0.66431,0.15437,-1.86722
1480628827986400,-0.664221,0.154281,-1.86731
1480628828000937,-0.664221,0.154281,-1.86731
1480628828023999,-0.664221,0.154281,-1.86731
1480628828046558,-0.664221,0.154281,-1.86731
1480628828067614,-0.664221,0.154281,-1.86731
1480628828097694,-0.664192,0.154298,-1.86716
1480628828106718,-0.664192,0.154298,-1.86716
1480628828127273,-0.664221,0.154281,-1.86731
1480628828144820,-0.664144,0.154373,-1.86732
1480628828172393,-0.664039,0.154339,-1.86723
1480628828188937,-0.663962,0.154431,-1.86724
1480628828204980,-0.663962,0.154431,-1.86724
1480628828226537,-0.663843,0.154359,-1.86717
1480628828247594,-0.663843,0.154359,-1.86717
1480628828264639,-0.663962,0.154431,-1.86724
1480628828287700,-0.663962,0.154431,-1.86724
1480628828307251,-0.663962,0.154431,-1.86724
1480628828324799,-0.663962,0.154431,-1.86724
1480628828346356,-0.663962,0.154431,-1.86724
1480628828367413,-0.663843,0.154359,-1.86717
1480628828383957,-0.663766,0.154451,-1.86718
1480628828406516,-0.663766,0.154451,-1.86718
1480628828427573,-0.663648,0.154379,-1.86712
1480628828450131,-0.663648,0.154379,-1.86712
1480628828466676,-0.663648,0.154379,-1.86712
1480628828487231,-0.663648,0.154379,-1.86712
1480628828503775,-0.663766,0.154451,-1.86718
1480628828526335,-0.664324,0.154407,-1.8672
1480628828548895,-0.664324,0.154407,-1.8672
1480628828563935,-0.664205,0.154336,-1.86713
1480628828592510,-0.664205,0.154336,-1.86713
1480628828609055,-0.664009,0.154355,-1.86707
1480628828624095,-0.664009,0.154355,-1.86707
1480628828646655,-0.663891,0.154284,-1.86701
1480628828669718,-0.663891,0.154284,-1.86701
1480628828683253,-0.663891,0.154284,-1.86701
1480628828707333,-0.664009,0.154355,-1.86707
1480628828745417,-0.664009,0.154355,-1.86707
1480628828749929,-0.664009,0.154355,-1.86707
1480628828766474,-0.664009,0.154355,-1.86707
1480628828789044,-0.664009,0.154355,-1.86707
1480628828803571,-0.664009,0.154355,-1.86707
1480628828826635,-0.663904,0.154321,-1.86698
1480628828849194,-0.663933,0.154305,-1.86714
1480628828863231,-0.664163,0.154172,-1.86705
1480628828886293,-0.664509,0.154203,-1.86683
1480628828908852,-0.664627,0.154275,-1.8669
1480628828929908,-0.664627,0.154275,-1.8669
1480628828946452,-0.664691,0.154145,-1.86691
1480628828969515,-0.664691,0.154145,-1.86691
1480628828983049,-0.664691,0.154145,-1.86691
1480628829006612,-0.664627,0.154275,-1.8669
1480628829029173,-0.664627,0.154275,-1.8669
1480628829050229,-0.664627,0.154275,-1.8669
1480628829066776,-0.664509,0.154203,-1.86683
1480628829088831,-0.664509,0.154203,-1.86683
1480628829117910,-0.664509,0.154203,-1.86683
1480628829134954,-0.664989,0.154252,-1.86685
1480628829148993,-0.664989,0.154252,-1.86685
1480628829170050,-0.665108,0.154323,-1.86692
1480628829186594,-0.665108,0.154323,-1.86692
1480628829209151,-0.665108,0.154323,-1.86692
1480628829230208,-0.664989,0.154252,-1.86685
1480628829246250,-0.664989,0.154252,-1.86685
1480628829269313,-0.664989,0.154252,-1.86685
1480628829290367,-0.66487,0.15418,-1.86679
1480628829306410,-0.665321,0.154245,-1.86666
1480628829328970,-0.665321,0.154245,-1.86666
1480628829350026,-0.665321,0.154245,-1.86666
1480628829366068,-0.66544,0.154317,-1.86672
1480628829389130,-0.66544,0.154317,-1.86672
1480628829410186,-0.66544,0.154317,-1.86672
1480628829426228,-0.66544,0.154317,-1.86672
1480628829456309,-0.66544,0.154317,-1.86672
1480628829471348,-0.665321,0.154245,-1.86666
1480628829486890,-0.665321,0.154245,-1.86666
1480628829508948,-0.665321,0.154245,-1.86666
1480628829532012,-0.665321,0.154245,-1.86666
1480628829546550,-0.665321,0.154245,-1.86666
1480628829569111,-0.665321,0.154245,-1.86666
1480628829592170,-0.66544,0.154317,-1.86672
1480628829612224,-0.66544,0.154317,-1.86672
1480628829629269,-0.66544,0.154317,-1.86672
1480628829651329,-0.66544,0.154317,-1.86672
1480628829665866,-0.665321,0.154245,-1.86666
1480628829688927,-0.665321,0.154245,-1.86666
1480628829711487,-0.665321,0.154245,-1.86666
1480628829726026,-0.665203,0.154173,-1.86659
1480628829749087,-0.665203,0.154173,-1.86659
1480628829771647,-0.665321,0.154245,-1.86666
1480628829785685,-0.665321,0.154245,-1.86666
1480628829809247,-0.66544,0.154317,-1.86672
1480628829832310,-0.66544,0.154317,-1.86672
1480628829846346,-0.66544,0.154317,-1.86672
1480628829876426,-0.665321,0.154245,-1.86666
1480628829891466,-0.665321,0.154245,-1.86666
1480628829906005,-0.665232,0.154157,-1.86675
1480628829929066,-0.665232,0.154157,-1.86675
1480628829951627,-0.665232,0.154157,-1.86675
1480628829972682,-0.665232,0.154157,-1.86675
1480628829988725,-0.665309,0.154065,-1.86673
1480628830017303,-0.665428,0.154137,-1.8668
1480628830033845,-0.665398,0.154154,-1.86665
1480628830048885,-0.665398,0.154154,-1.86665
1480628830071445,-0.665321,0.154245,-1.86666
1480628830094005,-0.665232,0.154157,-1.86675
1480628830108544,-0.665232,0.154157,-1.86675
1480628830131605,-0.665114,0.154085,-1.86668
1480628830153669,-0.665114,0.154085,-1.86668
1480628830175221,-0.665114,0.154085,-1.86668
1480628830192266,-0.665191,0.153993,-1.86667
1480628830212320,-0.665309,0.154065,-1.86673
1480628830228864,-0.665309,0.154065,-1.86673
1480628830251425,-0.665309,0.154065,-1.86673
1480628830272981,-0.665309,0.154065,-1.86673
1480628830289024,-0.665309,0.154065,-1.86673
1480628830312588,-0.665232,0.154157,-1.86675
1480628830332640,-0.665114,0.154085,-1.86668
1480628830350188,-0.665114,0.154085,-1.86668
1480628830371243,-0.664995,0.154013,-1.86661
1480628830392299,-0.664995,0.154013,-1.86661
1480628830408843,-0.665114,0.154085,-1.86668
1480628830431403,-0.665191,0.153993,-1.86667
1480628830453963,-0.665191,0.153993,-1.86667
1480628830469504,-0.665309,0.154065,-1.86673
1480628830492565,-0.665309,0.154065,-1.86673
1480628830514625,-0.665191,0.153993,-1.86667
1480628830529163,-0.665114,0.154085,-1.86668
1480628830551725,-0.665114,0.154085,-1.86668
1480628830573782,-0.664995,0.154013,-1.86661
1480628830588821,-0.665008,0.154051,-1.86658
1480628830611382,-0.665008,0.154051,-1.86658
1480628830633942,-0.664995,0.154013,-1.86661
1480628830648480,-0.664995,0.154013,-1.86661
1480628830671541,-0.665114,0.154085,-1.86668
1480628830694101,-0.665114,0.154085,-1.86668
1480628830708139,-0.665114,0.154085,-1.86668
1480628830731703,-0.664995,0.154013,-1.86661
1480628830753764,-0.665008,0.154051,-1.86658
1480628830768299,-0.664842,0.154054,-1.86668
1480628830791360,-0.664842,0.154054,-1.86668
1480628830814422,-0.664842,0.154054,-1.86668
1480628830834977,-0.664842,0.154054,-1.86668
1480628830851521,-0.664919,0.153962,-1.86667
1480628830874080,-0.664931,0.154143,-1.86659
1480628830888119,-0.664931,0.154143,-1.86659
1480628830912182,-0.664931,0.154143,-1.86659
1480628830933740,-0.664931,0.154143,-1.86659
1480628830954799,-0.664931,0.154143,-1.86659
1480628830984876,-0.664812,0.154071,-1.86653
1480628830993900,-0.664765,0.154146,-1.86669
1480628831014955,-0.664765,0.154146,-1.86669
1480628831032000,-0.664765,0.154146,-1.86669
1480628831060090,-0.664765,0.154146,-1.86669
1480628831075115,-0.664735,0.154162,-1.86654
1480628831099179,-0.664931,0.154143,-1.86659
1480628831114720,-0.664854,0.154234,-1.86661
1480628831143296,-0.664854,0.154234,-1.86661
1480628831151819,-0.664854,0.154234,-1.86661
1480628831173878,-0.664854,0.154234,-1.86661
1480628831194935,-0.664735,0.154162,-1.86654
1480628831211478,-0.664765,0.154146,-1.86669
1480628831234041,-0.664765,0.154146,-1.86669
1480628831254593,-0.664688,0.154237,-1.8667
1480628831272640,-0.664765,0.154146,-1.86669
1480628831293697,-0.664735,0.154162,-1.86654
1480628831314752,-0.664854,0.154234,-1.86661
1480628831331297,-0.664854,0.154234,-1.86661
1480628831353857,-0.664854,0.154234,-1.86661
1480628831376416,-0.664854,0.154234,-1.86661
1480628831391457,-0.664658,0.154254,-1.86655
1480628831413516,-0.664671,0.154292,-1.86652
1480628831437078,-0.664701,0.154275,-1.86668
1480628831453122,-0.664582,0.154203,-1.86661
1480628831474177,-0.664582,0.154203,-1.86661
1480628831496236,-0.664701,0.154275,-1.86668
1480628831510774,-0.664671,0.154292,-1.86652
1480628831541355,-0.664777,0.154326,-1.86662
1480628831556396,-0.664777,0.154326,-1.86662
1480628831570934,-0.664671,0.154292,-1.86652
1480628831593997,-0.664671,0.154292,-1.86652
1480628831622573,-0.664624,0.154367,-1.86669
1480628831630593,-0.664505,0.154295,-1.86662
1480628831654157,-0.664505,0.154295,-1.86662
1480628831676214,-0.664505,0.154295,-1.86662
1480628831698774,-0.664505,0.154295,-1.86662
1480628831713815,-0.664505,0.154295,-1.86662
1480628831737377,-0.664505,0.154295,-1.86662
1480628831750914,-0.664594,0.154383,-1.86653
1480628831775980,-0.664594,0.154383,-1.86653
1480628831796534,-0.664594,0.154383,-1.86653
1480628831819096,-0.664505,0.154295,-1.86662
1480628831834135,-0.664505,0.154295,-1.86662
1480628831856695,-0.66431,0.154315,-1.86657
1480628831877249,-0.66431,0.154315,-1.86657
1480628831901815,-0.664387,0.154223,-1.86655
1480628831917356,-0.664387,0.154223,-1.86655
1480628831937409,-0.664505,0.154295,-1.86662
1480628831959969,-0.664428,0.154387,-1.86663
1480628831976513,-0.664428,0.154387,-1.86663
1480628831997569,-0.664505,0.154295,-1.86662
1480628832014114,-0.664505,0.154295,-1.86662
1480628832044194,-0.664428,0.154387,-1.86663
1480628832057729,-0.664428,0.154387,-1.86663
1480628832074774,-0.66431,0.154315,-1.86657
1480628832096332,-0.66431,0.154315,-1.86657
1480628832117389,-0.66431,0.154315,-1.86657
1480628832133932,-0.66431,0.154315,-1.86657
1480628832156492,-0.664428,0.154387,-1.86663
1480628832179052,-0.664428,0.154387,-1.86663
1480628832194094,-0.665075,0.154432,-1.86656
1480628832216652,-0.665193,0.154504,-1.86663
1480628832238711,-0.665116,0.154596,-1.86664
1480628832254252,-0.664998,0.154524,-1.86657
1480628832276311,-0.664998,0.154524,-1.86657
1480628832297367,-0.664998,0.154524,-1.86657
1480628832313911,-0.664998,0.154524,-1.86657
1480628832336972,-0.664998,0.154524,-1.86657
1480628832359031,-0.665075,0.154432,-1.86656
1480628832374071,-0.665075,0.154432,-1.86656
1480628832396631,-0.665193,0.154504,-1.86663
1480628832425207,-0.665193,0.154504,-1.86663
1480628832433229,-0.665193,0.154504,-1.86663
1480628832456290,-0.665193,0.154504,-1.86663
1480628832486370,-0.664998,0.154524,-1.86657
1480628832501410,-0.664998,0.154524,-1.86657
1480628832517453,-0.664998,0.154524,-1.86657
1480628832539010,-0.664879,0.154452,-1.8665
1480628832554052,-0.664998,0.154524,-1.86657
1480628832576610,-0.665075,0.154432,-1.86656
1480628832599170,-0.665193,0.154504,-1.86663
1480628832613207,-0.665151,0.154483,-1.8665
1480628832636268,-0.665269,0.154555,-1.86657
1480628832659330,-0.665891,0.154382,-1.8666
1480628832673367,-0.665772,0.154311,-1.86653
1480628832704450,-0.665334,0.154283,-1.86663
1480628832735534,-0.665152,0.15434,-1.86655
1480628832740044,-0.665152,0.15434,-1.86655
1480628832764108,-0.665139,0.154303,-1.86657
1480628832795193,-0.665216,0.154211,-1.86656
1480628832800206,-0.665216,0.154211,-1.86656
1480628832816247,-0.665305,0.1543,-1.86648
1480628832839811,-0.665423,0.154371,-1.86654
1480628832859863,-0.665423,0.154371,-1.86654
1480628832876409,-0.665423,0.154371,-1.86654
1480628832898967,-0.665305,0.1543,-1.86648
1480628832920025,-0.665305,0.1543,-1.86648
1480628832936568,-0.665334,0.154283,-1.86663
1480628832959127,-0.665216,0.154211,-1.86656
1480628832980184,-0.665216,0.154211,-1.86656
1480628832996226,-0.665334,0.154283,-1.86663
1480628833018786,-0.665305,0.1543,-1.86648
1480628833039842,-0.665305,0.1543,-1.86648
1480628833056386,-0.665423,0.154371,-1.86654
1480628833079448,-0.665423,0.154371,-1.86654
1480628833100005,-0.665423,0.154371,-1.86654
1480628833116547,-0.665305,0.1543,-1.86648
1480628833139607,-0.665305,0.1543,-1.86648
1480628833167683,-0.665334,0.154283,-1.86663
1480628833176205,-0.665334,0.154283,-1.86663
1480628833198765,-0.665334,0.154283,-1.86663
1480628833220326,-0.665891,0.154382,-1.8666
1480628833236365,-0.66601,0.154454,-1.86666
1480628833258925,-0.66601,0.154454,-1.86666
1480628833281485,-0.666128,0.154526,-1.86673
1480628833296525,-0.666205,0.154434,-1.86672
1480628833319588,-0.666128,0.154526,-1.86673
1480628833341645,-0.66601,0.154454,-1.86666
1480628833356187,-0.66601,0.154454,-1.86666
1480628833379746,-0.66601,0.154454,-1.86666
1480628833402307,-0.66601,0.154454,-1.86666
1480628833416846,-0.66601,0.154454,-1.86666
1480628833438903,-0.666128,0.154526,-1.86673
1480628833461464,-0.666192,0.154397,-1.86675
1480628833482522,-0.666311,0.154468,-1.86681
1480628833499064,-0.666311,0.154468,-1.86681
1480628833521624,-0.666311,0.154468,-1.86681
1480628833535661,-0.666311,0.154468,-1.86681
1480628833573764,-0.666128,0.154526,-1.86673
1480628833581283,-0.666128,0.154526,-1.86673
1480628833595821,-0.666128,0.154526,-1.86673
1480628833618883,-0.666128,0.154526,-1.86673
1480628833641443,-0.666192,0.154397,-1.86675
1480628833655981,-0.666192,0.154397,-1.86675
1480628833679042,-0.666192,0.154397,-1.86675
1480628833701606,-0.666311,0.154468,-1.86681
1480628833715640,-0.666311,0.154468,-1.86681
1480628833738701,-0.666311,0.154468,-1.86681
1480628833761261,-0.666192,0.154397,-1.86675
1480628833789837,-0.666128,0.154526,-1.86673
1480628833799362,-0.66601,0.154454,-1.86666
1480628833821421,-0.66601,0.154454,-1.86666
1480628833842979,-0.66601,0.154454,-1.86666
1480628833859022,-0.666128,0.154526,-1.86673
1480628833881581,-0.666128,0.154526,-1.86673
1480628833903140,-0.666128,0.154526,-1.86673
1480628833919182,-0.666311,0.154468,-1.86681
1480628833941239,-0.666234,0.15456,-1.86682
1480628833962296,-0.666204,0.154577,-1.86667
1480628833978840,-0.666247,0.154598,-1.8668
1480628834001400,-0.665465,0.154535,-1.86662
1480628834022456,-0.665388,0.154627,-1.86663
1480628834039000,-0.665269,0.154555,-1.86657
1480628834069082,-0.665465,0.154535,-1.86662
1480628834082616,-0.665465,0.154535,-1.86662
1480628834099160,-0.665465,0.154535,-1.86662
1480628834121219,-0.665584,0.154607,-1.86669
1480628834142274,-0.665584,0.154607,-1.86669
1480628834158819,-0.665584,0.154607,-1.86669
1480628834181379,-0.665584,0.154607,-1.86669
1480628834202434,-0.665388,0.154627,-1.86663
1480628834218980,-0.665388,0.154627,-1.86663
1480628834241539,-0.665388,0.154627,-1.86663
1480628834264100,-0.665388,0.154627,-1.86663
1480628834285156,-0.665388,0.154627,-1.86663
1480628834301700,-0.665388,0.154627,-1.86663
1480628834323758,-0.665507,0.154698,-1.8667
1480628834346317,-0.665584,0.154607,-1.86669
1480628834376398,-0.665584,0.154607,-1.86669
1480628834383918,-0.665584,0.154607,-1.86669
1480628834398458,-0.665507,0.154698,-1.8667
1480628834427535,-0.665388,0.154627,-1.86663
1480628834444078,-0.665388,0.154627,-1.86663
1480628834458115,-0.665269,0.154555,-1.86657
1480628834481678,-0.665269,0.154555,-1.86657
1480628834503736,-0.665388,0.154627,-1.86663
1480628834518275,-0.665465,0.154535,-1.86662
1480628834541838,-0.665465,0.154535,-1.86662
1480628834563897,-0.665584,0.154607,-1.86669
1480628834578436,-0.665584,0.154607,-1.86669
1480628834601498,-0.665584,0.154607,-1.86669
1480628834624057,-0.665507,0.154698,-1.8667
1480628834638596,-0.665388,0.154627,-1.86663
1480628834661155,-0.665388,0.154627,-1.86663
1480628834684217,-0.665269,0.154555,-1.86657
1480628834698254,-0.665269,0.154555,-1.86657
1480628834721315,-0.665269,0.154555,-1.86657
1480628834758415,-0.665388,0.154627,-1.86663
1480628834764931,-0.665388,0.154627,-1.86663
1480628834781476,-0.665388,0.154627,-1.86663
1480628834804036,-0.665388,0.154627,-1.86663
1480628834825092,-0.665388,0.154627,-1.86663
1480628834841635,-0.665269,0.154555,-1.86657
1480628834870211,-0.665269,0.154555,-1.86657
1480628834892271,-0.665269,0.154555,-1.86657
1480628834901300,-0.66518,0.154466,-1.86665
1480628834923854,-0.665103,0.154558,-1.86666
1480628834944910,-0.665192,0.154647,-1.86658
1480628834962056,-0.665269,0.154555,-1.86657
1480628834984014,-0.665311,0.154718,-1.86664
1480628835005571,-0.665311,0.154718,-1.86664
1480628835021614,-0.665311,0.154718,-1.86664
1480628835043672,-0.665324,0.154756,-1.86662
1480628835066234,-0.665205,0.154684,-1.86655
1480628835081273,-0.665128,0.154776,-1.86656
1480628835103833,-0.665039,0.154687,-1.86665
1480628835124888,-0.665116,0.154596,-1.86664
1480628835147449,-0.665116,0.154596,-1.86664
1480628835164495,-0.665116,0.154596,-1.86664
1480628835192570,-0.665087,0.154612,-1.86648
1480628835201596,-0.665958,0.154764,-1.86657
1480628835224154,-0.665958,0.154764,-1.86657
1480628835246212,-0.665958,0.154764,-1.86657
1480628835261252,-0.665958,0.154764,-1.86657
1480628835289828,-0.665958,0.154764,-1.86657
1480628835307375,-0.665852,0.15473,-1.86648
1480628835320911,-0.665775,0.154821,-1.86649
1480628835343972,-0.665775,0.154821,-1.86649
1480628835374052,-0.665775,0.154821,-1.86649
1480628835395108,-0.665839,0.154692,-1.8665
1480628835404633,-0.665958,0.154764,-1.86657
1480628835426190,-0.666076,0.154836,-1.86664
1480628835449252,-0.666076,0.154836,-1.86664
1480628835469807,-0.666076,0.154836,-1.86664
1480628835486852,-0.666076,0.154836,-1.86664
1480628835500889,-0.665894,0.154893,-1.86656
1480628835523952,-0.665894,0.154893,-1.86656
1480628835546511,-0.665894,0.154893,-1.86656
1480628835560548,-0.665894,0.154893,-1.86656
1480628835584613,-0.665958,0.154764,-1.86657
1480628835606671,-0.666076,0.154836,-1.86664
1480628835622212,-0.666076,0.154836,-1.86664
1480628835652293,-0.666076,0.154836,-1.86664
1480628835673849,-0.666047,0.154852,-1.86648
1480628835688890,-0.66597,0.154944,-1.86649
1480628835690395,-0.665999,0.154927,-1.86665
1480628835709444,-0.666012,0.154965,-1.86662
1480628835732004,-0.665894,0.154893,-1.86656
1480628835749551,-0.665894,0.154893,-1.86656
1480628835769605,-0.665894,0.154893,-1.86656
1480628835791663,-0.665958,0.154764,-1.86657
1480628835814223,-0.666076,0.154836,-1.86664
1480628835829263,-0.666076,0.154836,-1.86664
1480628835851823,-0.666047,0.154852,-1.86648
1480628835874383,-0.666165,0.154924,-1.86655
1480628835889424,-0.666165,0.154924,-1.86655
1480628835911983,-0.666165,0.154924,-1.86655
1480628835943066,-0.666047,0.154852,-1.86648
1480628835949085,-0.666076,0.154836,-1.86664
1480628835971642,-0.666076,0.154836,-1.86664
1480628835994204,-0.666076,0.154836,-1.86664
1480628836009242,-0.666165,0.154924,-1.86655
1480628836031802,-0.666165,0.154924,-1.86655
1480628836054362,-0.666165,0.154924,-1.86655
1480628836069402,-0.666284,0.154996,-1.86662
1480628836091962,-0.666284,0.154996,-1.86662
1480628836114525,-0.666284,0.154996,-1.86662
1480628836145605,-0.666165,0.154924,-1.86655
1480628836151621,-0.666165,0.154924,-1.86655
1480628836174180,-0.666047,0.154852,-1.86648
1480628836189226,-0.666047,0.154852,-1.86648
1480628836211780,-0.666165,0.154924,-1.86655
1480628836234341,-0.666242,0.154832,-1.86654
1480628836249381,-0.666361,0.154904,-1.86661
1480628836271941,-0.666361,0.154904,-1.86661
1480628836303023,-0.666361,0.154904,-1.86661
1480628836309039,-0.666361,0.154904,-1.86661
1480628836331599,-0.666361,0.154904,-1.86661
1480628836357168,-0.666361,0.154904,-1.86661
1480628836369199,-0.666165,0.154924,-1.86655
1480628836391760,-0.666242,0.154832,-1.86654
1480628836423344,-0.666242,0.154832,-1.86654
1480628836429359,-0.666361,0.154904,-1.86661
1480628836453424,-0.666361,0.154904,-1.86661
1480628836474479,-0.66648,0.154976,-1.86667
1480628836489520,-0.66648,0.154976,-1.86667
1480628836511579,-0.66645,0.154993,-1.86652
1480628836534140,-0.66648,0.154976,-1.86667
1480628836557200,-0.66648,0.154976,-1.86667
1480628836571738,-0.66648,0.154976,-1.86667
1480628836594299,-0.666403,0.155068,-1.86669
1480628836612346,-0.666284,0.154996,-1.86662
1480628836631900,-0.666284,0.154996,-1.86662
1480628836654461,-0.666361,0.154904,-1.86661
1480628836679525,-0.66648,0.154976,-1.86667
1480628836692059,-0.667155,0.155147,-1.86671
1480628836714117,-0.667155,0.155147,-1.86671
1480628836732668,-0.667155,0.155147,-1.86671
1480628836751718,-0.667155,0.155147,-1.86671
1480628836774277,-0.667155,0.155147,-1.86671
1480628836790822,-0.667037,0.155075,-1.86664
1480628836813382,-0.667037,0.155075,-1.86664
1480628836834439,-0.667037,0.155075,-1.86664
1480628836850982,-0.667037,0.155075,-1.86664
1480628836872037,-0.667037,0.155075,-1.86664
1480628836894096,-0.667037,0.155075,-1.86664
1480628836910640,-0.667155,0.155147,-1.86671
1480628836932197,-0.667155,0.155147,-1.86671
1480628836957264,-0.667155,0.155147,-1.86671
1480628836978320,-0.667155,0.155147,-1.86671
1480628836991856,-0.66696,0.155167,-1.86665
1480628837014415,-0.666841,0.155095,-1.86658
1480628837030960,-0.66687,0.155079,-1.86674
1480628837052016,-0.66687,0.155079,-1.86674
1480628837074074,-0.66687,0.155079,-1.86674
1480628837092123,-0.666841,0.155095,-1.86658
1480628837111674,-0.666841,0.155095,-1.86658
1480628837134741,-0.667037,0.155075,-1.86664
1480628837152787,-0.66696,0.155167,-1.86665
1480628837174842,-0.66696,0.155167,-1.86665
1480628837201915,-0.66696,0.155167,-1.86665
1480628837225478,-0.666841,0.155095,-1.86658
1480628837232998,-0.66687,0.155079,-1.86674
1480628837257062,-0.666675,0.155099,-1.86668
1480628837276613,-0.666675,0.155099,-1.86668
1480628837291654,-0.666675,0.155099,-1.86668
1480628837314214,-0.666752,0.155007,-1.86667
1480628837339781,-0.66687,0.155079,-1.86674
1480628837351814,-0.666841,0.155095,-1.86658
1480628837374374,-0.666841,0.155095,-1.86658
1480628837396934,-0.666764,0.155187,-1.86659
1480628837411974,-0.666793,0.15517,-1.86675
1480628837434538,-0.666688,0.155136,-1.86666
1480628837457093,-0.666688,0.155136,-1.86666
1480628837471632,-0.666688,0.155136,-1.86666
1480628837502214,-0.666688,0.155136,-1.86666
1480628837517256,-0.666688,0.155136,-1.86666
1480628837531793,-0.666688,0.155136,-1.86666
1480628837554353,-0.666807,0.155208,-1.86672
1480628837584936,-0.666777,0.155225,-1.86657
1480628837594961,-0.666777,0.155225,-1.86657
1480628837614513,-0.666807,0.155208,-1.86672
1480628837638075,-0.666688,0.155136,-1.86666
1480628837651611,-0.666611,0.155228,-1.86667
1480628837674170,-0.666492,0.155156,-1.8666
1480628837696731,-0.666492,0.155156,-1.8666
1480628837714278,-0.666611,0.155228,-1.86667
1480628837734332,-0.666611,0.155228,-1.86667
1480628837759900,-0.666611,0.155228,-1.86667
1480628837773937,-0.666611,0.155228,-1.86667
1480628837794493,-0.666729,0.1553,-1.86673
1480628837817051,-0.6667,0.155316,-1.86658
1480628837834600,-0.6667,0.155316,-1.86658
1480628837854158,-0.666611,0.155228,-1.86667
1480628837876709,-0.666611,0.155228,-1.86667
1480628837899275,-0.666534,0.15532,-1.86668
1480628837921830,-0.666415,0.155248,-1.86661
1480628837936869,-0.666415,0.155248,-1.86661
1480628837954919,-0.666492,0.155156,-1.8666
1480628837974470,-0.666611,0.155228,-1.86667
1480628837999537,-0.666611,0.155228,-1.86667
1480628838015580,-0.666611,0.155228,-1.86667
1480628838034131,-0.666534,0.15532,-1.86668
1480628838059697,-0.666534,0.15532,-1.86668
1480628838074736,-0.666415,0.155248,-1.86661
1480628838094288,-0.666428,0.155286,-1.86658
1480628838118354,-0.666428,0.155286,-1.86658
1480628838135398,-0.666428,0.155286,-1.86658
1480628838154450,-0.666428,0.155286,-1.86658
1480628838177009,-0.666428,0.155286,-1.86658
1480628838194556,-0.666534,0.15532,-1.86668
1480628838214108,-0.666534,0.15532,-1.86668
1480628838244187,-0.666534,0.15532,-1.86668
1480628838254717,-0.666534,0.15532,-1.86668
1480628838274268,-0.66647,0.155449,-1.86666
1480628838298332,-0.666351,0.155377,-1.86659
1480628838314875,-0.666351,0.155377,-1.86659
1480628838334429,-0.666351,0.155377,-1.86659
1480628838364508,-0.666351,0.155377,-1.86659
1480628838375537,-0.666351,0.155377,-1.86659
1480628838401609,-0.666534,0.15532,-1.86668
1480628838418151,-0.666534,0.15532,-1.86668
1480628838435196,-0.666534,0.15532,-1.86668
1480628838454247,-0.666534,0.15532,-1.86668
1480628838476806,-0.666504,0.155336,-1.86652
1480628838495356,-0.666534,0.15532,-1.86668
1480628838514407,-0.666547,0.155357,-1.86665
1480628838536966,-0.66647,0.155449,-1.86666
1480628838562033,-0.666351,0.155377,-1.86659
1480628838574065,-0.666896,0.155297,-1.86664
1480628838596625,-0.666896,0.155297,-1.86664
1480628838620690,-0.667014,0.155368,-1.8667
1480628838645758,-0.666985,0.155385,-1.86655
1480628838656785,-0.667103,0.155457,-1.86662
1480628838674834,-0.667103,0.155457,-1.86662
1480628838695889,-0.666985,0.155385,-1.86655
1480628838716945,-0.666985,0.155385,-1.86655
1480628838739505,-0.666896,0.155297,-1.86664
1480628838755550,-0.666896,0.155297,-1.86664
1480628838776609,-0.666896,0.155297,-1.86664
1480628838799165,-0.666896,0.155297,-1.86664
1480628838815709,-0.666985,0.155385,-1.86655
1480628838836767,-0.666985,0.155385,-1.86655
1480628838859324,-0.667103,0.155457,-1.86662
1480628838875867,-0.667181,0.155365,-1.86661
1480628838896924,-0.667181,0.155365,-1.86661
1480628838919484,-0.667103,0.155457,-1.86662
1480628838935526,-0.667103,0.155457,-1.86662
1480628838956583,-0.667103,0.155457,-1.86662
1480628838979143,-0.667062,0.155293,-1.86654
1480628839004712,-0.667062,0.155293,-1.86654
1480628839016743,-0.667062,0.155293,-1.86654
1480628839039303,-0.667167,0.155327,-1.86663
1480628839063367,-0.667286,0.155399,-1.8667
1480628839084424,-0.667363,0.155308,-1.86669
1480628839117010,-0.667363,0.155308,-1.86669
1480628839119520,-0.667482,0.155379,-1.86676
1480628839138065,-0.667286,0.155399,-1.8667
1480628839166641,-0.667286,0.155399,-1.8667
1480628839177171,-0.667167,0.155327,-1.86663
1480628839196721,-0.667245,0.155236,-1.86662
1480628839219282,-0.667245,0.155236,-1.86662
1480628839237330,-0.667245,0.155236,-1.86662
1480628839259889,-0.667363,0.155308,-1.86669
1480628839279441,-0.667363,0.155308,-1.86669
1480628839296989,-0.667482,0.155379,-1.86676
1480628839317044,-0.667482,0.155379,-1.86676
1480628839339601,-0.667482,0.155379,-1.86676
1480628839357148,-0.667482,0.155379,-1.86676
1480628839376701,-0.667363,0.155308,-1.86669
1480628839399260,-0.667363,0.155308,-1.86669
1480628839417310,-0.667363,0.155308,-1.86669
1480628839436860,-0.667363,0.155308,-1.86669
1480628839466944,-0.667452,0.155396,-1.8666
1480628839484490,-0.667571,0.155468,-1.86667
1480628839498524,-0.667648,0.155376,-1.86666
1480628839519080,-0.667767,0.155448,-1.86673
1480628839537127,-0.667648,0.155376,-1.86666
1480628839556681,-0.667571,0.155468,-1.86667
1480628839580744,-0.667571,0.155468,-1.86667
1480628839597287,-0.667571,0.155468,-1.86667
1480628839618345,-0.667452,0.155396,-1.8666
1480628839639901,-0.667452,0.155396,-1.8666
1480628839664968,-0.667571,0.155468,-1.86667
1480628839678507,-0.667571,0.155468,-1.86667
1480628839699560,-0.667648,0.155376,-1.86666
1480628839717107,-0.667754,0.15541,-1.86675
1480628839738162,-0.667754,0.15541,-1.86675
1480628839759218,-0.667754,0.15541,-1.86675
1480628839777267,-0.667767,0.155448,-1.86673
1480628839805842,-0.667571,0.155468,-1.86667
1480628839819379,-0.667571,0.155468,-1.86667
1480628839837426,-0.667571,0.155468,-1.86667
1480628839866004,-0.667648,0.155376,-1.86666
1480628839879538,-0.66753,0.155304,-1.86659
1480628839897085,-0.667635,0.155338,-1.86668
1480628839919645,-0.667635,0.155338,-1.86668
1480628839946717,-0.667754,0.15541,-1.86675
1480628839957245,-0.667754,0.15541,-1.86675
1480628839979805,-0.667754,0.15541,-1.86675
1480628839999359,-0.667635,0.155338,-1.86668
1480628840017405,-0.667648,0.155376,-1.86666
1480628840039463,-0.667648,0.155376,-1.86666
1480628840059517,-0.66753,0.155304,-1.86659
1480628840077064,-0.667635,0.155338,-1.86668
1480628840099624,-0.667635,0.155338,-1.86668
1480628840119175,-0.667754,0.15541,-1.86675
1480628840137724,-0.667754,0.15541,-1.86675
1480628840159784,-0.667831,0.155319,-1.86674
1480628840179335,-0.667831,0.155319,-1.86674
1480628840197885,-0.667754,0.15541,-1.86675
1480628840225961,-0.667635,0.155338,-1.86668
1480628840239495,-0.667635,0.155338,-1.86668
1480628840262055,-0.667559,0.155288,-1.86674
1480628840280104,-0.66753,0.155304,-1.86659
1480628840299155,-0.667648,0.155376,-1.86666
1480628840321715,-0.667635,0.155338,-1.86668
1480628840339762,-0.667712,0.155247,-1.86667
1480628840360819,-0.667712,0.155247,-1.86667
1480628840381876,-0.667831,0.155319,-1.86674
1480628840399922,-0.667831,0.155319,-1.86674
1480628840419475,-0.667712,0.155247,-1.86667
1480628840442034,-0.667635,0.155338,-1.86668
1480628840459581,-0.66753,0.155304,-1.86659
1480628840487158,-0.667559,0.155288,-1.86674
1480628840519241,-0.667559,0.155288,-1.86674
1480628840521748,-0.667559,0.155288,-1.86674
1480628840540798,-0.667516,0.155267,-1.86662
1480628840561853,-0.667712,0.155247,-1.86667
1480628840579902,-0.667712,0.155247,-1.86667
1480628840602462,-0.667712,0.155247,-1.86667
1480628840622014,-0.667635,0.155338,-1.86668
1480628840639560,-0.667635,0.155338,-1.86668
1480628840660616,-0.66753,0.155304,-1.86659
1480628840681672,-0.667559,0.155288,-1.86674
1480628840699720,-0.667482,0.155379,-1.86676
1480628840721279,-0.667482,0.155379,-1.86676
1480628840741832,-0.667482,0.155379,-1.86676
1480628840759880,-0.667482,0.155379,-1.86676
1480628840782441,-0.667452,0.155396,-1.8666
1480628840802994,-0.667571,0.155468,-1.86667
1480628840819539,-0.667571,0.155468,-1.86667
1480628840842101,-0.667571,0.155468,-1.86667
1480628840861651,-0.667452,0.155396,-1.8666
1480628840879699,-0.667482,0.155379,-1.86676
1480628840902259,-0.667286,0.155399,-1.8667
1480628840922314,-0.667286,0.155399,-1.8667
1480628840939858,-0.667405,0.155471,-1.86677
