timestamp,x,y,z
1480605880713574,0.330566,-0.936523,-0.177246
1480605880728113,0.333984,-0.910645,-0.17334
1480605880750674,0.312988,-0.953613,-0.166016
1480605880770729,0.314941,-0.976563,-0.164551
1480605880794290,0.320801,-0.967285,-0.163086
1480605880815345,0.318359,-0.945801,-0.158203
1480605880830386,0.32959,-0.929199,-0.163086
1480605880863474,0.333496,-0.9375,-0.15625
1480605880870995,0.32373,-0.937012,-0.154785
1480605880893554,0.327637,-0.956543,-0.155762
1480605880908092,0.324219,-0.961426,-0.164063
1480605880931154,0.319336,-0.956543,-0.168457
1480605880951708,0.316406,-0.941895,-0.171387
1480605880974269,0.317383,-0.942871,-0.164063
1480605880990812,0.319824,-0.955078,-0.159668
1480605881010364,0.321289,-0.956543,-0.165039
1480605881043452,0.322754,-0.955566,-0.163574
1480605881050973,0.32373,-0.936523,-0.161621
1480605881070528,0.327637,-0.928711,-0.16748
1480605881093084,0.326172,-0.938965,-0.165527
1480605881118151,0.330078,-0.960938,-0.160156
1480605881131687,0.327148,-0.958984,-0.164551
1480605881160264,0.321289,-0.946777,-0.164063
1480605881178311,0.309082,-0.947266,-0.170898
1480605881191847,0.328613,-0.927734,-0.141602
1480605881212903,0.340332,-0.923828,-0.150879
1480605881230951,0.321289,-0.96875,-0.166992
1480605881267047,0.309082,-0.978027,-0.165039
1480605881273063,0.322754,-0.921875,-0.169434
1480605881291111,0.319824,-0.915527,-0.182617
1480605881319687,0.311523,-0.945801,-0.190918
1480605881333223,0.294922,-0.95459,-0.188477
1480605881350770,0.303711,-0.956543,-0.191406
1480605881371826,0.317383,-0.953125,-0.212891
1480605881417447,0.327637,-0.958984,-0.210449
1480605881419959,0.321777,-0.93457,-0.209961
1480605881438002,0.318848,-0.937012,-0.206055
1480605881453042,0.318848,-0.949707,-0.200684
1480605881471091,0.301758,-0.950684,-0.192383
1480605881494151,0.311035,-0.939941,-0.187988
1480605881512701,0.318359,-0.935547,-0.189453
1480605881530748,0.317383,-0.949707,-0.18457
1480605881553310,0.306641,-0.948242,-0.185059
1480605881580882,0.300781,-0.959961,-0.195801
1480605881590908,0.311035,-0.946777,-0.18457
1480605881613469,0.330078,-0.923828,-0.188477
1480605881633021,0.343262,-0.939453,-0.182129
1480605881651069,0.340332,-0.94043,-0.174316
1480605881673128,0.334961,-0.944336,-0.181641
1480605881696189,0.333984,-0.95459,-0.174316
1480605881711730,0.327148,-0.939453,-0.17627
1480605881740808,0.32959,-0.92627,-0.174805
1480605881752840,0.321289,-0.933105,-0.178711
1480605881782920,0.319336,-0.956055,-0.184082
1480605881793448,0.317383,-0.959961,-0.181641
1480605881813000,0.317383,-0.943359,-0.171875
1480605881831048,0.323242,-0.932617,-0.183105
1480605881876167,0.328125,-0.929688,-0.183594
1480605881880680,0.330078,-0.938477,-0.169922
1480605881895720,0.32373,-0.943848,-0.177734
1480605881919283,0.319824,-0.949219,-0.183594
1480605881932818,0.329102,-0.940918,-0.186035
1480605881952372,0.331055,-0.926758,-0.193848
1480605881973427,0.327148,-0.947754,-0.192383
1480605881995486,0.323242,-0.944824,-0.192871
1480605882018547,0.329102,-0.952148,-0.184082
1480605882038099,0.320313,-0.943359,-0.178223
1480605882060659,0.328613,-0.927734,-0.180176
1480605882070690,0.331055,-0.930176,-0.182617
1480605882093246,0.322754,-0.950684,-0.185547
1480605882114301,0.318848,-0.955078,-0.181641
1480605882131851,0.319336,-0.952148,-0.175781
1480605882153406,0.32373,-0.935547,-0.172363
1480605882174963,0.325684,-0.929199,-0.175293
1480605882204541,0.328613,-0.938965,-0.175781
1480605882213574,0.327637,-0.952637,-0.174805
1480605882235624,0.326172,-0.954102,-0.172363
1480605882251165,0.328125,-0.942871,-0.177246
1480605882273725,0.331055,-0.932617,-0.168457
1480605882294281,0.331543,-0.931641,-0.171387
1480605882310824,0.328125,-0.942871,-0.174805
1480605882337897,0.323242,-0.953613,-0.174316
1480605882354440,0.322754,-0.956055,-0.173828
1480605882370984,0.324219,-0.942871,-0.174805
1480605882393545,0.327148,-0.935547,-0.174805
1480605882422120,0.324219,-0.936035,-0.17627
1480605882431145,0.330078,-0.955566,-0.178711
1480605882453203,0.340332,-0.937988,-0.159668
1480605882483283,0.329102,-0.930176,-0.177246
1480605882495315,0.314941,-0.958496,-0.173828
1480605882513363,0.328613,-0.939453,-0.180176
1480605882535923,0.325684,-0.937988,-0.183105
1480605882555478,0.306152,-0.943848,-0.182617
1480605882573523,0.313965,-0.953125,-0.187988
1480605882595581,0.32666,-0.953613,-0.178711
1480605882615634,0.322266,-0.935059,-0.190918
1480605882633182,0.32666,-0.943359,-0.190918
1480605882656243,0.320313,-0.959961,-0.185059
1480605882682813,0.304199,-0.953613,-0.191406
1480605882693342,0.312012,-0.944824,-0.187012
1480605882715903,0.330566,-0.929199,-0.183594
1480605882735454,0.31543,-0.940918,-0.171875
1480605882761022,0.316895,-0.942871,-0.188477
1480605882776062,0.339355,-0.953125,-0.186035
1480605882796116,0.333984,-0.944336,-0.194824
1480605882813163,0.319336,-0.940918,-0.1875
1480605882835721,0.32373,-0.926758,-0.179688
1480605882856275,0.330566,-0.942383,-0.18457
1480605882872318,0.324707,-0.958008,-0.192383
1480605882894878,0.321777,-0.951172,-0.194336
1480605882916435,0.323242,-0.943848,-0.192871
1480605882939998,0.321289,-0.931641,-0.180664
1480605882955038,0.333984,-0.931641,-0.181641
1480605882976094,0.329102,-0.943359,-0.179199
1480605882992639,0.317871,-0.953613,-0.177734
1480605883029237,0.317383,-0.954102,-0.182129
1480605883036257,0.320801,-0.948242,-0.179688
1480605883052799,0.318359,-0.939453,-0.179199
1480605883074858,0.329102,-0.938477,-0.182617
1480605883095913,0.328613,-0.954102,-0.175293
1480605883125993,0.321777,-0.953613,-0.18457
1480605883136522,0.32373,-0.947266,-0.176758
1480605883156073,0.330078,-0.928223,-0.166504
1480605883173118,0.333496,-0.922852,-0.167969
1480605883195177,0.340332,-0.937988,-0.173828
1480605883217736,0.3125,-0.941406,-0.178223
1480605883232776,0.310059,-0.962402,-0.200195
1480605883261352,0.318848,-0.962402,-0.20752
1480605883276392,0.32373,-0.941895,-0.194336
1480605883292937,0.323242,-0.921387,-0.181152
1480605883314995,0.321289,-0.94043,-0.172363
1480605883336052,0.320313,-0.95459,-0.166504
1480605883366134,0.314941,-0.947754,-0.185547
1480605883382675,0.32666,-0.941406,-0.18457
1480605883403731,0.322754,-0.936035,-0.199707
1480605883412756,0.320313,-0.948242,-0.188477
1480605883434816,0.32373,-0.95752,-0.201172
1480605883457374,0.330566,-0.971191,-0.165527
1480605883473417,0.324219,-0.916016,-0.163086
1480605883494974,0.318359,-0.92627,-0.190918
1480605883518037,0.333008,-0.970703,-0.191895
1480605883532073,0.319824,-0.940918,-0.187988
1480605883555636,0.310059,-0.950684,-0.182129
1480605883594740,0.30957,-0.946777,-0.185059
1480605883598751,0.324219,-0.933105,-0.19043
1480605883629833,0.331055,-0.930176,-0.190918
1480605883638861,0.331543,-0.942383,-0.187012
1480605883675455,0.32666,-0.955078,-0.175781
1480605883677961,0.312988,-0.950195,-0.173828
1480605883697514,0.313965,-0.945313,-0.176758
1480605883727593,0.31543,-0.9375,-0.174316
1480605883735114,0.321289,-0.942871,-0.17627
1480605883764692,0.325195,-0.956055,-0.179199
1480605883774218,0.316406,-0.961914,-0.179199
1480605883795274,0.314453,-0.945313,-0.170898
1480605883817833,0.325195,-0.931641,-0.170898
1480605883831924,0.328125,-0.930664,-0.176758
1480605883868468,0.32373,-0.942871,-0.175781
1480605883877492,0.325195,-0.958008,-0.179688
1480605883915593,0.31543,-0.95752,-0.180664
1480605883920607,0.321289,-0.945801,-0.179199
1480605883960714,0.324707,-0.933105,-0.174805
1480605883963244,0.327637,-0.932129,-0.172363
1480605884007338,0.331055,-0.946289,-0.173828
1480605884011849,0.322754,-0.953125,-0.172363
1480605884018868,0.31543,-0.949707,-0.17334
1480605884041930,0.321289,-0.936523,-0.180176
1480605884057972,0.32666,-0.936035,-0.176758
1480605884078527,0.325195,-0.942871,-0.180664
1480605884095071,0.322754,-0.951172,-0.172363
1480605884118634,0.319824,-0.95459,-0.181641
1480605884146207,0.318359,-0.946777,-0.174805
1480605884155230,0.325195,-0.930664,-0.17334
1480605884201354,0.324219,-0.9375,-0.179199
1480605884215892,0.321777,-0.944336,-0.178223
1480605884218399,0.321777,-0.95166,-0.174316
1480605884237952,0.318359,-0.958496,-0.175781
1480605884283070,0.317383,-0.940918,-0.174805
1480605884285578,0.325684,-0.930176,-0.171875
1480605884297108,0.324707,-0.939453,-0.175293
1480605884328692,0.325684,-0.958984,-0.177246
1480605884335210,0.318359,-0.958496,-0.174805
1480605884357770,0.321777,-0.945313,-0.17334
1480605884380831,0.318848,-0.933105,-0.169922
1480605884402892,0.324707,-0.939453,-0.17334
1480605884418431,0.316406,-0.951172,-0.167969
1480605884454527,0.322266,-0.95459,-0.171875
1480605884461044,0.322266,-0.949707,-0.169434
1480605884477589,0.32373,-0.938477,-0.174316
1480605884517194,0.325684,-0.933594,-0.169922
1480605884521205,0.327637,-0.944824,-0.171875
1480605884561311,0.319824,-0.954102,-0.170898
1480605884566326,0.316895,-0.955078,-0.171387
1480605884580863,0.319336,-0.949219,-0.168945
1480605884597408,0.322266,-0.935059,-0.169434
1480605884619967,0.319824,-0.942383,-0.177246
1480605884635007,0.320801,-0.946289,-0.169434
1480605884659071,0.317383,-0.958008,-0.172852
1480605884680127,0.318359,-0.95166,-0.169434
1480605884694165,0.321289,-0.943359,-0.178223
1480605884717727,0.328125,-0.931641,-0.167969
1480605884747807,0.319824,-0.938965,-0.174805
1480605884754325,0.319824,-0.958984,-0.176758
1480605884793931,0.316895,-0.956055,-0.172363
1480605884799946,0.320313,-0.949219,-0.17041
1480605884822506,0.318848,-0.9375,-0.171875
1480605884837546,0.318848,-0.933594,-0.166992
1480605884860106,0.319336,-0.943848,-0.165039
1480605884881162,0.30957,-0.959473,-0.17627
1480605884897205,0.316895,-0.961426,-0.174316
1480605884919765,0.322754,-0.924316,-0.16748
1480605884941322,0.318359,-0.93457,-0.172852
1480605884958368,0.331055,-0.95752,-0.169922
1480605884979925,0.308594,-0.963867,-0.181641
1480605885000981,0.31543,-0.974121,-0.179199
1480605885023541,0.3125,-0.940918,-0.187012
1480605885071168,0.32666,-0.942871,-0.155762
1480605885078186,0.319824,-0.908691,-0.156738
1480605885080693,0.324219,-0.951172,-0.156738
1480605885100245,0.31543,-0.949707,-0.183594
1480605885121301,0.326172,-0.971191,-0.183594
1480605885138346,0.324707,-0.936523,-0.171387
1480605885159904,0.327637,-0.932129,-0.172852
1480605885180960,0.316895,-0.942871,-0.175781
1480605885197505,0.318848,-0.963867,-0.17334
1480605885220064,0.316895,-0.962402,-0.178711
1480605885241119,0.315918,-0.952148,-0.175781
1480605885258667,0.329102,-0.931641,-0.169434
1480605885303286,0.321289,-0.930664,-0.170898
1480605885306294,0.325684,-0.936035,-0.166016
1480605885324843,0.317383,-0.952637,-0.171387
1480605885339886,0.31543,-0.957031,-0.17041
1480605885369963,0.320801,-0.946777,-0.177246
1480605885383499,0.32373,-0.932617,-0.169922
1480605885400043,0.325684,-0.937012,-0.168945
1480605885423104,0.322754,-0.950684,-0.166992
1480605885437141,0.319824,-0.959961,-0.17041
1480605885466219,0.31543,-0.947754,-0.171875
1480605885482762,0.320801,-0.938965,-0.175293
1480605885496802,0.324219,-0.935547,-0.17041
1480605885528384,0.317871,-0.943359,-0.17041
1480605885542422,0.312988,-0.952637,-0.174316
1480605885573504,0.316895,-0.959961,-0.172852
1480605885580523,0.320313,-0.946777,-0.171387
1480605885617621,0.321289,-0.932129,-0.17041
1480605885620129,0.32373,-0.93457,-0.172363
1480605885640181,0.320313,-0.95166,-0.171875
1480605885662742,0.31543,-0.962402,-0.173828
1480605885683797,0.314453,-0.949707,-0.169922
1480605885699841,0.328613,-0.9375,-0.173828
1480605885722400,0.327148,-0.932617,-0.178711
1480605885736939,0.320313,-0.948242,-0.171875
1480605885760001,0.322754,-0.955078,-0.179199
1480605885782059,0.318848,-0.956055,-0.168457
1480605885812640,0.317871,-0.946289,-0.174805
1480605885820160,0.322266,-0.933105,-0.17627
1480605885849237,0.321777,-0.939453,-0.179688
1480605885863776,0.319824,-0.952148,-0.175781
1480605885880822,0.317383,-0.956055,-0.179199
1480605885902381,0.318848,-0.949219,-0.178711
1480605885930956,0.319824,-0.936523,-0.17334
1480605885940982,0.326172,-0.935547,-0.178711
1480605885970059,0.32373,-0.946289,-0.175781
1480605885983595,0.318359,-0.953125,-0.174316
1480605886000139,0.319824,-0.948242,-0.171387
1480605886023703,0.322266,-0.944824,-0.178223
1480605886044256,0.330566,-0.937988,-0.171387
1480605886066316,0.328613,-0.944336,-0.179199
1480605886088374,0.327637,-0.95166,-0.182617
1480605886112438,0.316895,-0.955566,-0.176758
1480605886127478,0.316406,-0.951172,-0.177734
1480605886143520,0.321289,-0.935059,-0.178711
1480605886163575,0.326172,-0.931641,-0.178223
1480605886179617,0.327637,-0.936523,-0.172363
1480605886202680,0.325195,-0.949707,-0.179199
1480605886225238,0.324219,-0.958984,-0.182129
1480605886246294,0.325684,-0.943359,-0.17627
1480605886262336,0.328613,-0.927734,-0.178711
1480605886284897,0.327637,-0.934082,-0.177734
1480605886299937,0.32666,-0.949219,-0.183105
1480605886323499,0.320801,-0.959473,-0.179688
1480605886368118,0.320313,-0.950684,-0.177246
1480605886370624,0.325195,-0.939453,-0.171875
1480605886396193,0.324219,-0.931152,-0.184082
1480605886405217,0.327148,-0.93457,-0.183594
1480605886419255,0.321289,-0.947266,-0.175781
1480605886442315,0.321777,-0.956543,-0.180176
1480605886465378,0.317871,-0.94873,-0.177734
1480605886494955,0.331055,-0.932129,-0.179199
1480605886502478,0.328125,-0.934082,-0.181152
1480605886525036,0.331055,-0.947754,-0.177734
1480605886540075,0.323242,-0.950195,-0.178223
1480605886562637,0.322266,-0.948242,-0.176758
1480605886592715,0.325684,-0.938965,-0.180664
1480605886599233,0.322754,-0.930176,-0.182617
1480605886645355,0.324219,-0.941406,-0.176758
1480605886647863,0.327148,-0.954102,-0.176758
1480605886665913,0.321289,-0.95752,-0.179199
1480605886682454,0.323242,-0.941895,-0.179199
1480605886705014,0.32959,-0.935547,-0.179199
1480605886735095,0.328613,-0.936523,-0.178711
1480605886743617,0.328613,-0.945313,-0.175293
1480605886765174,0.321289,-0.959961,-0.177734
1480605886786230,0.319824,-0.95166,-0.179688
1480605886802774,0.325195,-0.930664,-0.181641
1480605886824833,0.331055,-0.929688,-0.184082
1480605886870454,0.331055,-0.938965,-0.180664
1480605886872961,0.327148,-0.956055,-0.177734
1480605886923098,0.321289,-0.961914,-0.177734
1480605886925602,0.311035,-0.944336,-0.175781
1480605886931117,0.319824,-0.933105,-0.177246
1480605886951169,0.317383,-0.935059,-0.17334
1480605886967713,0.324219,-0.94873,-0.180176
1480605886988268,0.325684,-0.946777,-0.181152
1480605887005313,0.32373,-0.94873,-0.175293
1480605887026369,0.328125,-0.937988,-0.172852
1480605887049932,0.33252,-0.932129,-0.182129
1480605887064973,0.325195,-0.929688,-0.17334
1480605887103074,0.320801,-0.953125,-0.18457
1480605887105580,0.319336,-0.957031,-0.175781
1480605887148695,0.320313,-0.948242,-0.178711
1480605887153708,0.322754,-0.935059,-0.178223
1480605887163233,0.325684,-0.931152,-0.181152
1480605887185292,0.322266,-0.943359,-0.17041
1480605887207351,0.317383,-0.95752,-0.174316
1480605887222391,0.317383,-0.953125,-0.177734
1480605887244951,0.318359,-0.942871,-0.170898
1480605887267511,0.325684,-0.930664,-0.170898
1480605887282049,0.32666,-0.942383,-0.179688
1480605887305612,0.321289,-0.949707,-0.180176
1480605887327671,0.322266,-0.953613,-0.176758
1480605887341708,0.322754,-0.945801,-0.166504
1480605887378807,0.322266,-0.9375,-0.173828
1480605887387329,0.329102,-0.936523,-0.166504
1480605887425431,0.327637,-0.950195,-0.171387
1480605887427938,0.321289,-0.953613,-0.17041
1480605887454006,0.321289,-0.951172,-0.181641
1480605887479074,0.320801,-0.942383,-0.177734
1480605887485592,0.328613,-0.9375,-0.173828
1480605887515170,0.327637,-0.936035,-0.175293
1480605887521687,0.321777,-0.948242,-0.172363
1480605887545249,0.318848,-0.956543,-0.17627
1480605887567308,0.319824,-0.951172,-0.171387
1480605887588364,0.320801,-0.939453,-0.169434
1480605887605409,0.324707,-0.925293,-0.171875
1480605887649025,0.327637,-0.94043,-0.175293
1480605887657549,0.320801,-0.959473,-0.180664
1480605887665069,0.319824,-0.959473,-0.174316
1480605887701666,0.320801,-0.945313,-0.175781
1480605887708686,0.324219,-0.939941,-0.177734
1480605887725729,0.322266,-0.940918,-0.173828
1480605887747287,0.318848,-0.949219,-0.172363
1480605887768344,0.320801,-0.950195,-0.168945
1480605887798423,0.321777,-0.946289,-0.174805
1480605887807449,0.329102,-0.936035,-0.175293
1480605887828503,0.330566,-0.933594,-0.182129
1480605887845048,0.327148,-0.942383,-0.173828
1480605887883148,0.321289,-0.94873,-0.173828
1480605887891671,0.319824,-0.957031,-0.178711
1480605887936290,0.319336,-0.945313,-0.17627
1480605887941805,0.324219,-0.935059,-0.165527
1480605887955842,0.327148,-0.937012,-0.168945
1480605887979906,0.319824,-0.954102,-0.171387
1480605887987426,0.313965,-0.959473,-0.169922
1480605888026530,0.318359,-0.95459,-0.178711
1480605888031042,0.321777,-0.932129,-0.170898
1480605888047085,0.322266,-0.94043,-0.175781
1480605888076162,0.327148,-0.947266,-0.171875
1480605888085689,0.325195,-0.953125,-0.17334
1480605888107746,0.316895,-0.956543,-0.174805
1480605888131810,0.326172,-0.945801,-0.171387
1480605888145346,0.329102,-0.927246,-0.169434
1480605888167908,0.328613,-0.937012,-0.17334
1480605888213027,0.324707,-0.946777,-0.174805
1480605888215534,0.320313,-0.955566,-0.174316
1480605888258647,0.317871,-0.957031,-0.174805
1480605888265666,0.322266,-0.936523,-0.175293
1480605888268173,0.329102,-0.937988,-0.175293
1480605888288727,0.323242,-0.943359,-0.174316
1480605888310285,0.321289,-0.953613,-0.17334
1480605888333347,0.319824,-0.959473,-0.16748
1480605888354904,0.322754,-0.945801,-0.17334
1480605888386488,0.324219,-0.938477,-0.173828
1480605888390999,0.327148,-0.940918,-0.175293
1480605888408045,0.32373,-0.947754,-0.181152
1480605888446146,0.317871,-0.956055,-0.171875
1480605888451160,0.318359,-0.949707,-0.170898
1480605888491266,0.318848,-0.946289,-0.17627
1480605888496280,0.32373,-0.931641,-0.170898
1480605888529368,0.323242,-0.929199,-0.169434
1480605888533378,0.325684,-0.957031,-0.17041
1480605888566468,0.325684,-0.963867,-0.171387
1480605888570979,0.320801,-0.951172,-0.175781
1480605888587522,0.32373,-0.935059,-0.171387
1480605888610083,0.323242,-0.938477,-0.177734
1480605888632643,0.317871,-0.94873,-0.16748
1480605888648184,0.30957,-0.958496,-0.171387
1480605888677762,0.310547,-0.951172,-0.169922
1480605888691299,0.327637,-0.942871,-0.168945
1480605888720878,0.330078,-0.931641,-0.175781
1480605888729902,0.323242,-0.938477,-0.171875
1480605888769007,0.32959,-0.95459,-0.174805
1480605888773518,0.314941,-0.961914,-0.172852
1480605888797582,0.314941,-0.946777,-0.176758
1480605888811117,0.322266,-0.939941,-0.175293
1480605888841197,0.313477,-0.941406,-0.174316
1480605888850221,0.327637,-0.95166,-0.165527
1480605888871278,0.328613,-0.95752,-0.165527
1480605888887821,0.309082,-0.946289,-0.171875
1480605888909882,0.316406,-0.947754,-0.173828
1480605888930937,0.328125,-0.941895,-0.179199
1480605888955501,0.325684,-0.942871,-0.177246
1480605889001123,0.311523,-0.956055,-0.176758
1480605889008143,0.314453,-0.959961,-0.169434
1480605889011651,0.314941,-0.949707,-0.169922
1480605889030701,0.324707,-0.933594,-0.169434
1480605889051257,0.329102,-0.935059,-0.168457
1480605889067298,0.322266,-0.947754,-0.166504
1480605889090360,0.323242,-0.955078,-0.167969
1480605889112419,0.322754,-0.956055,-0.168457
1480605889134979,0.325195,-0.940918,-0.173828
1480605889150018,0.327148,-0.935547,-0.173828
1480605889174584,0.328125,-0.942383,-0.169922
1480605889188624,0.324707,-0.946777,-0.169434
1480605889210179,0.317383,-0.954102,-0.167969
1480605889232739,0.320313,-0.945313,-0.170898
1480605889246777,0.328125,-0.937012,-0.16748
1480605889277358,0.326172,-0.931641,-0.172852
1480605889298413,0.327148,-0.944336,-0.175781
1480605889321475,0.321289,-0.960449,-0.167969
1480605889333006,0.319336,-0.960938,-0.166016
1480605889360078,0.32373,-0.945313,-0.166504
1480605889367097,0.328613,-0.933105,-0.168457
1480605889390158,0.328613,-0.9375,-0.16748
1480605889420239,0.325684,-0.957031,-0.168945
1480605889433773,0.317383,-0.958496,-0.171387
1480605889465359,0.319336,-0.942383,-0.166016
1480605889472378,0.328125,-0.934082,-0.171387
1480605889493432,0.334473,-0.938477,-0.169434
1480605889510979,0.327637,-0.950684,-0.17334
1480605889533039,0.323242,-0.961914,-0.165527
1480605889555101,0.320313,-0.964355,-0.165527
1480605889576153,0.314941,-0.944336,-0.163574
1480605889592195,0.321777,-0.933594,-0.166504
1480605889613757,0.328125,-0.936035,-0.169434
1480605889630297,0.325195,-0.946289,-0.171875
1480605889652356,0.323242,-0.952637,-0.165527
1480605889674915,0.321777,-0.947754,-0.169434
1480605889697476,0.32666,-0.941895,-0.16748
1480605889712516,0.33252,-0.935547,-0.166504
1480605889741091,0.327148,-0.939453,-0.165527
1480605889750116,0.324707,-0.956055,-0.166992
1480605889772677,0.319336,-0.959473,-0.163574
1480605889793731,0.323242,-0.947266,-0.17041
1480605889810275,0.324707,-0.935059,-0.17041
1480605889833337,0.329102,-0.933594,-0.17334
1480605889853892,0.322266,-0.950684,-0.165039
1480605889869935,0.318359,-0.95752,-0.166992
1480605889892495,0.320801,-0.951172,-0.165527
1480605889913550,0.32373,-0.941895,-0.172363
1480605889937617,0.325195,-0.94043,-0.172363
1480605889975715,0.322754,-0.938965,-0.169922
1480605889978222,0.319336,-0.956543,-0.169922
1480605890021338,0.318359,-0.95752,-0.16748
1480605890026351,0.322266,-0.950195,-0.165039
1480605890042393,0.325195,-0.93457,-0.162598
1480605890064953,0.325195,-0.938965,-0.166992
1480605890072476,0.325195,-0.95166,-0.169922
1480605890095033,0.319336,-0.959473,-0.174316
1480605890110073,0.319824,-0.953613,-0.164551
1480605890140154,0.322266,-0.940918,-0.168945
1480605890155195,0.327637,-0.936523,-0.165527
1480605890169233,0.320313,-0.942383,-0.168457
1480605890192292,0.321289,-0.954102,-0.168457
1480605890215854,0.316406,-0.95459,-0.175293
1480605890230394,0.320313,-0.941406,-0.169434
1480605890252953,0.324707,-0.936523,-0.171387
1480605890276014,0.328613,-0.936523,-0.173828
1480605890297573,0.321777,-0.945801,-0.165527
1480605890312612,0.32373,-0.958984,-0.172852
1480605890341187,0.32373,-0.955566,-0.170898
1480605890349210,0.32666,-0.943848,-0.168457
1480605890372772,0.325195,-0.926758,-0.165527
1480605890394831,0.330566,-0.933594,-0.17041
1480605890423407,0.324707,-0.956055,-0.17627
1480605890432431,0.319336,-0.963867,-0.17334
1480605890454995,0.317871,-0.955566,-0.171387
1480605890469531,0.32373,-0.9375,-0.172363
1480605890492590,0.320313,-0.935059,-0.172363
1480605890515653,0.318848,-0.947266,-0.164551
1480605890537714,0.323242,-0.953613,-0.17041
1480605890552751,0.322266,-0.948242,-0.166992
1480605890575812,0.328125,-0.936523,-0.173828
1480605890603388,0.333496,-0.931641,-0.175781
1480605890619932,0.333984,-0.944336,-0.175293
1480605890635975,0.325684,-0.953613,-0.174316
1480605890663560,0.321289,-0.951172,-0.172852
1480605890672570,0.324707,-0.950684,-0.171387
1480605890695130,0.323242,-0.936523,-0.175781
1480605890716185,0.32666,-0.935059,-0.17627
1480605890746766,0.322754,-0.942383,-0.171387
1480605890754792,0.320313,-0.958984,-0.174805
1480605890776847,0.31543,-0.953125,-0.175293
1480605890805924,0.323242,-0.941895,-0.172363
1480605890814948,0.327148,-0.931152,-0.172852
1480605890836506,0.324219,-0.936035,-0.174805
1480605890853050,0.320801,-0.952148,-0.180664
1480605890875610,0.320801,-0.963379,-0.174805
1480605890897669,0.320313,-0.950684,-0.175293
1480605890920228,0.32666,-0.932617,-0.17334
1480605890941284,0.334473,-0.932617,-0.173828
1480605890955823,0.327637,-0.942871,-0.17334
1480605890972368,0.322754,-0.953613,-0.171875
1480605890994927,0.320313,-0.953125,-0.177246
1480605891017488,0.321289,-0.938477,-0.175781
1480605891040047,0.324707,-0.935059,-0.173828
1480605891063109,0.32959,-0.939453,-0.181152
1480605891086672,0.328125,-0.947266,-0.177246
1480605891092687,0.323242,-0.955078,-0.174316
1480605891114746,0.325195,-0.947266,-0.173828
1480605891137809,0.327148,-0.932617,-0.174805
1480605891151844,0.32666,-0.929688,-0.175293
1480605891175407,0.326172,-0.947266,-0.182129
1480605891203984,0.32373,-0.961426,-0.175293
1480605891218522,0.322266,-0.951172,-0.178223
1480605891236570,0.324219,-0.935547,-0.171387
1480605891258127,0.331055,-0.929688,-0.177734
1480605891272167,0.333496,-0.937988,-0.179199
1480605891295226,0.325684,-0.956055,-0.171875
1480605891317285,0.323242,-0.958984,-0.175293
1480605891331824,0.317871,-0.947754,-0.17334
1480605891356389,0.318848,-0.937988,-0.173828
1480605891377445,0.329102,-0.931641,-0.172363
1480605891406021,0.329102,-0.937012,-0.173828
1480605891416047,0.327637,-0.953613,-0.174805
1480605891437609,0.323242,-0.956543,-0.180176
1480605891458661,0.324219,-0.947754,-0.180176
1480605891475706,0.324219,-0.933105,-0.172852
1480605891497767,0.331055,-0.929688,-0.176758
1480605891519827,0.331055,-0.955566,-0.17627
1480605891542383,0.321777,-0.959961,-0.176758
1480605891557424,0.322754,-0.949707,-0.169922
1480605891578479,0.32666,-0.941406,-0.17334
1480605891595024,0.325684,-0.930664,-0.172363
1480605891617584,0.325684,-0.94043,-0.171387
1480605891640143,0.319336,-0.951172,-0.177246
1480605891655184,0.318848,-0.955566,-0.171387
1480605891685265,0.32373,-0.946777,-0.177734
1480605891698298,0.328613,-0.936523,-0.176758
1480605891714842,0.332031,-0.94043,-0.180176
1480605891737405,0.324707,-0.953125,-0.174805
1480605891758460,0.320313,-0.958008,-0.167969
1480605891775002,0.320313,-0.949219,-0.174316
1480605891797563,0.32373,-0.939941,-0.172363
1480605891820123,0.329102,-0.936523,-0.174316
1480605891842181,0.322754,-0.941406,-0.17627
1480605891857722,0.321777,-0.955566,-0.171875
1480605891879280,0.320801,-0.955078,-0.169434
1480605891894821,0.318359,-0.949219,-0.173828
1480605891917883,0.324707,-0.931152,-0.173828
1480605891946459,0.327637,-0.930664,-0.165527
1480605891964005,0.324707,-0.94873,-0.169922
1480605891978042,0.325684,-0.959473,-0.165527
1480605892007621,0.321289,-0.954102,-0.172363
1480605892015141,0.318848,-0.936035,-0.16748
1480605892052742,0.324219,-0.927734,-0.175293
1480605892059760,0.327637,-0.939941,-0.174805
1480605892074299,0.32666,-0.958008,-0.17334
1480605892097862,0.319336,-0.961914,-0.172852
1480605892127440,0.320313,-0.951172,-0.172852
1480605892143984,0.318848,-0.9375,-0.165527
1480605892157520,0.321289,-0.938477,-0.171875
1480605892195120,0.324219,-0.942383,-0.167969
1480605892197125,0.321777,-0.953125,-0.170898
1480605892217680,0.32373,-0.950195,-0.17041
1480605892240240,0.326172,-0.933594,-0.173828
1480605892254278,0.330078,-0.9375,-0.180176
1480605892284859,0.32959,-0.946777,-0.16748
1480605892305915,0.319824,-0.950684,-0.171387
1480605892314439,0.321289,-0.958008,-0.169434
1480605892337500,0.324707,-0.94873,-0.171875
1480605892375600,0.325195,-0.936035,-0.171875
1480605892381115,0.328125,-0.939453,-0.17334
1480605892398164,0.321777,-0.946289,-0.169434
1480605892420220,0.317871,-0.95459,-0.17041
1480605892441275,0.318359,-0.956055,-0.171387
1480605892472358,0.318848,-0.940918,-0.166016
1480605892480379,0.325195,-0.932617,-0.168457
1480605892517979,0.325195,-0.938477,-0.172363
1480605892520487,0.324707,-0.956543,-0.172852
1480605892540038,0.32373,-0.959961,-0.165527
1480605892563099,0.32373,-0.946289,-0.171387
1480605892578140,0.326172,-0.935547,-0.165527
1480605892607216,0.329102,-0.93457,-0.17041
1480605892620754,0.323242,-0.944824,-0.174805
1480605892637800,0.321289,-0.95752,-0.166016
1480605892659857,0.319336,-0.95752,-0.167969
1480605892682416,0.321777,-0.941895,-0.169922
1480605892697458,0.327148,-0.936035,-0.168945
1480605892728038,0.325684,-0.937012,-0.17041
1480605892754608,0.322754,-0.950684,-0.170898
1480605892758117,0.315918,-0.95752,-0.172363
1480605892795718,0.315918,-0.950684,-0.170898
1480605892801232,0.325684,-0.9375,-0.17041
1480605892817275,0.329102,-0.9375,-0.166992
1480605892840336,0.328613,-0.944336,-0.170898
1480605892869917,0.323242,-0.95459,-0.165039
1480605892877435,0.324707,-0.951172,-0.169434
1480605892900998,0.32959,-0.942383,-0.175781
1480605892930076,0.330078,-0.939453,-0.175781
1480605892937599,0.325684,-0.945801,-0.17334
1480605892961158,0.322266,-0.955566,-0.163574
1480605892982715,0.317871,-0.960938,-0.166016
1480605892997756,0.315918,-0.952148,-0.169434
1480605893027334,0.322754,-0.933594,-0.162598
1480605893042374,0.32666,-0.929688,-0.163574
1480605893072454,0.328125,-0.939453,-0.167969
1480605893079974,0.325195,-0.954102,-0.17334
1480605893102535,0.320313,-0.95752,-0.174805
1480605893117575,0.324707,-0.945801,-0.169434
1480605893147654,0.325195,-0.93457,-0.16748
1480605893162694,0.331543,-0.938477,-0.16748
1480605893176733,0.32373,-0.949707,-0.166504
1480605893199794,0.322266,-0.958984,-0.165039
1480605893222354,0.316406,-0.953125,-0.165527
1480605893236893,0.321289,-0.938965,-0.17334
1480605893259952,0.324219,-0.933594,-0.174316
1480605893282513,0.32666,-0.942383,-0.17041
1480605893305074,0.322266,-0.958008,-0.169922
1480605893326128,0.322266,-0.958496,-0.17334
1480605893350194,0.316895,-0.953125,-0.176758
1480605893372255,0.322266,-0.937012,-0.172852
1480605893394812,0.329102,-0.937988,-0.171387
1480605893402337,0.330078,-0.949707,-0.168457
1480605893440434,0.322754,-0.955078,-0.16748
1480605893442939,0.320313,-0.949707,-0.166992
1480605893462993,0.324219,-0.936523,-0.165527
1480605893483548,0.327148,-0.936035,-0.16748
1480605893500092,0.328613,-0.940918,-0.173828
1480605893523153,0.322754,-0.953613,-0.168457
1480605893543710,0.324707,-0.958496,-0.175781
1480605893560753,0.322754,-0.945313,-0.168457
1480605893582812,0.325195,-0.937012,-0.167969
1480605893603369,0.325195,-0.937988,-0.164551
1480605893627932,0.322754,-0.946777,-0.17041
1480605893673052,0.320313,-0.959961,-0.169922
1480605893675558,0.321777,-0.952637,-0.163574
1480605893681574,0.325195,-0.937012,-0.17041
1480605893718172,0.328125,-0.936523,-0.164551
1480605893724187,0.325684,-0.947266,-0.164063
1480605893747249,0.320313,-0.951172,-0.167969
1480605893762791,0.325195,-0.952637,-0.161133
1480605893784849,0.328125,-0.946777,-0.164551
1480605893799889,0.32959,-0.939453,-0.169434
1480605893822450,0.331055,-0.940918,-0.168945
1480605893860551,0.328613,-0.951172,-0.173828
1480605893864061,0.31543,-0.958496,-0.16748
1480605893882609,0.316406,-0.95459,-0.164551
1480605893905169,0.324707,-0.940918,-0.161621
1480605893920211,0.333008,-0.928223,-0.16748
1480605893949788,0.327637,-0.939941,-0.17041
1480605893979869,0.32373,-0.947266,-0.171875
1480605893996412,0.32373,-0.962891,-0.168945
1480605894002432,0.32373,-0.952637,-0.16748
1480605894024988,0.325195,-0.930176,-0.166504
1480605894039530,0.328125,-0.936035,-0.167969
1480605894068604,0.325684,-0.949219,-0.16748
1480605894085148,0.320801,-0.958008,-0.163574
1480605894099186,0.320801,-0.961426,-0.166504
1480605894123250,0.320313,-0.944824,-0.172852
1480605894145308,0.32666,-0.931641,-0.16748
1480605894159345,0.324219,-0.939453,-0.170898
1480605894182406,0.324219,-0.954102,-0.166016
1480605894229030,0.320801,-0.963867,-0.16748
1480605894233543,0.319824,-0.949707,-0.174805
1480605894273149,0.322754,-0.936035,-0.172363
1480605894276658,0.326172,-0.936035,-0.16748
1480605894286186,0.32959,-0.943359,-0.166504
1480605894302732,0.321289,-0.961914,-0.169922
1480605894325287,0.319824,-0.955566,-0.166504
1480605894346342,0.321289,-0.946777,-0.165527
1480605894362887,0.32666,-0.935059,-0.170898
1480605894384949,0.32959,-0.937012,-0.163086
1480605894415025,0.324219,-0.947754,-0.163086
1480605894437586,0.322754,-0.958496,-0.162109
1480605894459143,0.324219,-0.950195,-0.167969
1480605894466161,0.322754,-0.939453,-0.165527
1480605894506270,0.325195,-0.936523,-0.173828
1480605894511282,0.320801,-0.944336,-0.168945
1480605894527324,0.324219,-0.956543,-0.166992
1480605894549884,0.318848,-0.956543,-0.16748
1480605894570944,0.32373,-0.946777,-0.166992
1480605894585982,0.32666,-0.937012,-0.168945
1480605894602526,0.327148,-0.943848,-0.165527
1480605894625085,0.32373,-0.947266,-0.164551
1480605894646140,0.318848,-0.956055,-0.158203
1480605894664190,0.322754,-0.952148,-0.165527
1480605894693266,0.325684,-0.942383,-0.166992
1480605894706802,0.330566,-0.941895,-0.166504
1480605894737383,0.326172,-0.947754,-0.167969
1480605894744904,0.317871,-0.952637,-0.166016
1480605894784007,0.312988,-0.954102,-0.163574
1480605894788519,0.319824,-0.945313,-0.15625
1480605894828626,0.327148,-0.933105,-0.15918
1480605894833640,0.328125,-0.930176,-0.168457
1480605894842664,0.327637,-0.945801,-0.164063
1480605894871240,0.323242,-0.95752,-0.172363
1480605894894802,0.321289,-0.956543,-0.166504
1480605894901822,0.324707,-0.938965,-0.169434
1480605894924882,0.330078,-0.932617,-0.166016
1480605894947442,0.332031,-0.946289,-0.164063
1480605894970003,0.319336,-0.955078,-0.165039
1480605894985042,0.315918,-0.960938,-0.16748
1480605895015623,0.316406,-0.947754,-0.165527
1480605895021639,0.32373,-0.935059,-0.161133
1480605895046205,0.324219,-0.937012,-0.165527
1480605895068766,0.322266,-0.950684,-0.167969
1480605895088818,0.320313,-0.964355,-0.16748
1480605895104861,0.318359,-0.952637,-0.166992
1480605895134943,0.321777,-0.941406,-0.174316
1480605895141960,0.325684,-0.934082,-0.16748
1480605895165021,0.32666,-0.939453,-0.16748
1480605895187581,0.325684,-0.95166,-0.166016
1480605895201623,0.322754,-0.958008,-0.162598
1480605895225181,0.320801,-0.950195,-0.16748
1480605895247741,0.323242,-0.936523,-0.169434
1480605895268298,0.327637,-0.937988,-0.163574
1480605895292359,0.325195,-0.94873,-0.168945
1480605895338984,0.323242,-0.954102,-0.166016
1480605895345501,0.323242,-0.954102,-0.162109
1480605895348009,0.327148,-0.943359,-0.166504
1480605895381598,0.327148,-0.937012,-0.163086
1480605895388617,0.326172,-0.943359,-0.17041
1480605895405161,0.322754,-0.95459,-0.160156
1480605895427720,0.322754,-0.960938,-0.169434
1480605895448776,0.320313,-0.946777,-0.169922
1480605895472339,0.326172,-0.931641,-0.166504
1480605895487378,0.32666,-0.93457,-0.166504
1480605895525480,0.32666,-0.949707,-0.17041
1480605895527987,0.318359,-0.963867,-0.166016
1480605895556062,0.323242,-0.95166,-0.154785
1480605895572606,0.323242,-0.934082,-0.169922
1480605895599678,0.330078,-0.935547,-0.166992
1480605895616221,0.331055,-0.947266,-0.166016
1480605895628253,0.32373,-0.960938,-0.168945
1480605895644798,0.31543,-0.959961,-0.16748
1480605895667862,0.3125,-0.947754,-0.163574
1480605895689919,0.318848,-0.937012,-0.163086
1480605895705459,0.327148,-0.934082,-0.165527
1480605895727016,0.328613,-0.940918,-0.168457
1480605895750079,0.321777,-0.959473,-0.165527
1480605895765117,0.324707,-0.955078,-0.167969
1480605895802717,0.324219,-0.945313,-0.165039
1480605895810739,0.328613,-0.938477,-0.17041
1480605895825278,0.327148,-0.9375,-0.163574
1480605895848840,0.327637,-0.955078,-0.168457
1480605895877417,0.321289,-0.958008,-0.168945
1480605895884436,0.322266,-0.944824,-0.16748
1480605895915016,0.324707,-0.940918,-0.162598
1480605895938578,0.323242,-0.934082,-0.16748
1480605895944094,0.321777,-0.947754,-0.172363
1480605895967657,0.320801,-0.95459,-0.164551
1480605895989715,0.319336,-0.95459,-0.169922
1480605896004253,0.32373,-0.947754,-0.17627
1480605896027816,0.324219,-0.938477,-0.172852
1480605896081458,0.328125,-0.939453,-0.16748
1480605896087976,0.325195,-0.949219,-0.162109
1480605896090484,0.319824,-0.959961,-0.166504
1480605896126078,0.322754,-0.949219,-0.167969
1480605896131092,0.328613,-0.935059,-0.165039
1480605896153651,0.32959,-0.931641,-0.161621
1480605896170195,0.327148,-0.945801,-0.169434
1480605896192755,0.326172,-0.953613,-0.16748
1480605896208798,0.319824,-0.95752,-0.171875
1480605896237376,0.322266,-0.944336,-0.165527
1480605896250911,0.323242,-0.930664,-0.172852
1480605896267455,0.327637,-0.938965,-0.165039
1480605896290014,0.32373,-0.951172,-0.17334
1480605896311070,0.320801,-0.961914,-0.169922
1480605896349673,0.321289,-0.95166,-0.169434
1480605896357694,0.327637,-0.944336,-0.163574
1480605896370729,0.322754,-0.937012,-0.166016
1480605896388777,0.327637,-0.944336,-0.174316
1480605896409833,0.321289,-0.961426,-0.16748
1480605896430889,0.318848,-0.95752,-0.162109
1480605896447432,0.321777,-0.938965,-0.166504
1480605896476510,0.324219,-0.933594,-0.165527
1480605896491048,0.333008,-0.943848,-0.166992
1480605896513609,0.321777,-0.958008,-0.168457
1480605896537673,0.319336,-0.96582,-0.169922
1480605896558729,0.31543,-0.952637,-0.162598
1480605896583796,0.321289,-0.9375,-0.167969
1480605896589811,0.321289,-0.937012,-0.169922
1480605896610867,0.32666,-0.94043,-0.165527
1480605896636937,0.32373,-0.951172,-0.167969
1480605896657993,0.321777,-0.957031,-0.161621
1480605896663008,0.321777,-0.949219,-0.165527
1480605896678046,0.328613,-0.938965,-0.169434
1480605896700607,0.327148,-0.934082,-0.167969
1480605896715646,0.32959,-0.949707,-0.165527
1480605896737704,0.322754,-0.960449,-0.166504
1480605896760265,0.319336,-0.949707,-0.165527
1480605896775304,0.324707,-0.936523,-0.162598
1480605896797866,0.324219,-0.933594,-0.165527
1480605896812905,0.322754,-0.943359,-0.170898
1480605896835465,0.320313,-0.953613,-0.165527
1480605896858025,0.319336,-0.960938,-0.169922
1480605896872564,0.324707,-0.946777,-0.164063
1480605896911668,0.325684,-0.938477,-0.174805
1480605896917684,0.326172,-0.938477,-0.167969
1480605896952275,0.324707,-0.943359,-0.174805
1480605896956788,0.318848,-0.960449,-0.164551
1480605896977844,0.320801,-0.951172,-0.163086
1480605897000406,0.325195,-0.9375,-0.160645
1480605897022963,0.329102,-0.934082,-0.177734
1480605897046025,0.327148,-0.941406,-0.166016
1480605897054548,0.325684,-0.950684,-0.173828
1480605897092148,0.322754,-0.95459,-0.171387
1480605897097662,0.321777,-0.949219,-0.177734
1480605897137769,0.32959,-0.933105,-0.169922
1480605897142783,0.328613,-0.935059,-0.166992
1480605897157822,0.327148,-0.95166,-0.16748
1480605897191914,0.318359,-0.956055,-0.172363
1480605897202943,0.321777,-0.954102,-0.176758
1480605897237033,0.321289,-0.942383,-0.180664
1480605897242047,0.325684,-0.935547,-0.175293
1480605897256585,0.327148,-0.945313,-0.171875
1480605897281150,0.319336,-0.953613,-0.17041
1480605897300201,0.320313,-0.95166,-0.17041
1480605897325770,0.320801,-0.941895,-0.171875
1480605897337801,0.330078,-0.938965,-0.175781
1480605897370889,0.333008,-0.942383,-0.172852
1480605897375401,0.32373,-0.949707,-0.173828
1480605897415508,0.317383,-0.958496,-0.168457
1480605897419018,0.320313,-0.952148,-0.17334
1480605897444084,0.322266,-0.937012,-0.169922
1480605897468148,0.326172,-0.925781,-0.173828
1480605897475668,0.332031,-0.937988,-0.176758
1480605897495220,0.328125,-0.952637,-0.180664
1480605897517780,0.324707,-0.953613,-0.176758
1480605897536329,0.321289,-0.952148,-0.176758
1480605897555380,0.325195,-0.933105,-0.170898
1480605897577941,0.335449,-0.929199,-0.177246
1480605897600503,0.325684,-0.945313,-0.183105
1480605897615540,0.322266,-0.960449,-0.178711
1480605897648127,0.321289,-0.95459,-0.171875
1480605897669685,0.322754,-0.940918,-0.179199
1480605897684223,0.328125,-0.933594,-0.175293
1480605897697759,0.325684,-0.943359,-0.172852
1480605897721823,0.320313,-0.947754,-0.180176
1480605897736863,0.321289,-0.956055,-0.17334
1480605897757919,0.317871,-0.954102,-0.180176
1480605897780479,0.324707,-0.939453,-0.177734
1480605897795519,0.326172,-0.927734,-0.174316
1480605897818079,0.32666,-0.943848,-0.177734
1480605897840137,0.324707,-0.952148,-0.177246
1480605897857685,0.325195,-0.953125,-0.178223
1480605897879243,0.325684,-0.94043,-0.175781
1480605897917345,0.328125,-0.931152,-0.184082
1480605897919850,0.326172,-0.937988,-0.177246
1480605897970486,0.324219,-0.94873,-0.177734
1480605897972991,0.321777,-0.959473,-0.178223
1480605897978506,0.324707,-0.94873,-0.178711
1480605898006580,0.326172,-0.936035,-0.178711
1480605898020116,0.33252,-0.928223,-0.182617
1480605898035157,0.327637,-0.942871,-0.182617
1480605898057718,0.32373,-0.95166,-0.178223
1480605898089300,0.316406,-0.948242,-0.180664
1480605898095317,0.323242,-0.942383,-0.176758
1480605898117877,0.324707,-0.932129,-0.182129
1480605898150464,0.333984,-0.941895,-0.18457
1480605898156981,0.330078,-0.95166,-0.182617
1480605898205610,0.319336,-0.958984,-0.174805
1480605898210122,0.321777,-0.949707,-0.176758
1480605898222655,0.32373,-0.932617,-0.179199
1480605898245217,0.329102,-0.927734,-0.178223
1480605898260256,0.331055,-0.935059,-0.180664
1480605898291839,0.328613,-0.952148,-0.181152
1480605898297856,0.322754,-0.952637,-0.181641
1480605898338463,0.325684,-0.944336,-0.180176
1480605898340970,0.325684,-0.932617,-0.175781
1480605898358015,0.326172,-0.925781,-0.173828
1480605898383585,0.333496,-0.951172,-0.18457
1480605898396618,0.318359,-0.960449,-0.182129
1480605898436725,0.322754,-0.951172,-0.179688
1480605898440234,0.325684,-0.935547,-0.181641
1480605898481344,0.327148,-0.928223,-0.180664
1480605898485354,0.324707,-0.936523,-0.177734
1480605898503402,0.322266,-0.952148,-0.176758
1480605898522955,0.319336,-0.95166,-0.180176
1480605898537994,0.320801,-0.945313,-0.175781
1480605898560555,0.328613,-0.936523,-0.175293
1480605898578101,0.331055,-0.932129,-0.182129
1480605898605173,0.32666,-0.943359,-0.172363
1480605898620213,0.324707,-0.951172,-0.177246
1480605898639264,0.315918,-0.949219,-0.166992
1480605898657813,0.328125,-0.936523,-0.182617
1480605898680373,0.327637,-0.93457,-0.170898
1480605898705941,0.327637,-0.94043,-0.178223
1480605898717973,0.324219,-0.95166,-0.180664
1480605898742538,0.320801,-0.953125,-0.17627
1480605898758080,0.325684,-0.941406,-0.177246
1480605898777632,0.324707,-0.933105,-0.172852
1480605898800195,0.325195,-0.930664,-0.175293
1480605898818239,0.321777,-0.94043,-0.178711
1480605898845318,0.325195,-0.953125,-0.179199
1480605898860351,0.327637,-0.953125,-0.182617
1480605898879403,0.325684,-0.94873,-0.178223
1480605898897952,0.32959,-0.939453,-0.179688
1480605898923019,0.321289,-0.939941,-0.181152
1480605898945579,0.32373,-0.950684,-0.164551
1480605898989697,0.319824,-0.950684,-0.169434
1480605898992203,0.329102,-0.945801,-0.17627
1480605898998219,0.331543,-0.933594,-0.179199
1480605899019275,0.333984,-0.934082,-0.174805
1480605899040331,0.328613,-0.945801,-0.178223
1480605899058880,0.326172,-0.959961,-0.171387
1480605899077931,0.321777,-0.946777,-0.170898
1480605899100495,0.323242,-0.93457,-0.173828
1480605899123051,0.325684,-0.933105,-0.179688
1480605899139093,0.325684,-0.937012,-0.178223
1480605899167670,0.324707,-0.95166,-0.183105
1480605899182710,0.321289,-0.959473,-0.17334
1480605899199253,0.321777,-0.94873,-0.177246
1480605899220309,0.328125,-0.936035,-0.176758
1480605899242871,0.327148,-0.932617,-0.17334
1480605899259414,0.324707,-0.943848,-0.171875
1480605899280470,0.321777,-0.957031,-0.172852
1480605899303030,0.322754,-0.959473,-0.174805
1480605899320075,0.331543,-0.942383,-0.173828
1480605899340630,0.333008,-0.932617,-0.176758
1480605899362689,0.333496,-0.934082,-0.175293
1480605899379232,0.321777,-0.952148,-0.17627
1480605899400292,0.318848,-0.955078,-0.177246
1480605899422850,0.322266,-0.947266,-0.17334
1480605899439392,0.32666,-0.931641,-0.172852
1480605899460448,0.329102,-0.929199,-0.178711
1480605899491029,0.329102,-0.941406,-0.179688
1480605899499552,0.322266,-0.958984,-0.177246
1480605899524118,0.318848,-0.955078,-0.175781
1480605899545675,0.324219,-0.93457,-0.171387
1480605899560715,0.328613,-0.926758,-0.174316
1480605899583281,0.333496,-0.940918,-0.180664
1480605899610347,0.329102,-0.956055,-0.174805
1480605899626895,0.321777,-0.962891,-0.179688
1480605899640427,0.319336,-0.946777,-0.177734
1480605899662988,0.317383,-0.932617,-0.16748
1480605899680534,0.325195,-0.928223,-0.174805
1480605899700598,0.331055,-0.937988,-0.172852
1480605899722646,0.325684,-0.95166,-0.181152
1480605899740694,0.327148,-0.95166,-0.181152
1480605899761751,0.32666,-0.942383,-0.180176
1480605899782806,0.33252,-0.934082,-0.176758
1480605899801355,0.328125,-0.932617,-0.172363
1480605899820406,0.325684,-0.942871,-0.174805
1480605899846475,0.327637,-0.952637,-0.177734
1480605899861014,0.325684,-0.951172,-0.176758
1480605899880566,0.329102,-0.939941,-0.174316
1480605899913154,0.328613,-0.937988,-0.175781
1480605899925186,0.326172,-0.939941,-0.174316
1480605899940225,0.321289,-0.951172,-0.172363
1480605899962785,0.320801,-0.955078,-0.174316
1480605899980833,0.322754,-0.944824,-0.17334
1480605900000385,0.324219,-0.935547,-0.179199
1480605900039990,0.325684,-0.938477,-0.171875
1480605900042496,0.325195,-0.954102,-0.176758
1480605900060544,0.325684,-0.958008,-0.17627
1480605900090123,0.320801,-0.950195,-0.17334
1480605900100663,0.326172,-0.941895,-0.171875
1480605900123212,0.327148,-0.93457,-0.163086
1480605900145772,0.32373,-0.935547,-0.167969
1480605900160812,0.321777,-0.953613,-0.177246
1480605900181868,0.324707,-0.957031,-0.174805
1480605900202923,0.328125,-0.944824,-0.169922
1480605900221473,0.332031,-0.939453,-0.175781
1480605900242529,0.330566,-0.936523,-0.178223
1480605900263085,0.325684,-0.946289,-0.177246
1480605900286647,0.322266,-0.953125,-0.179199
1480605900315724,0.318359,-0.949219,-0.176758
1480605900326252,0.324219,-0.94043,-0.175781
1480605900340790,0.32959,-0.934082,-0.174316
1480605900367862,0.32959,-0.938477,-0.176758
1480605900382902,0.32373,-0.955078,-0.172852
1480605900400954,0.320801,-0.954102,-0.169922
1480605900421505,0.32666,-0.947266,-0.168457
1480605900443062,0.330566,-0.938477,-0.170898
1480605900465123,0.327637,-0.933105,-0.17334
1480605900489185,0.326172,-0.937012,-0.169434
1480605900502721,0.324219,-0.955078,-0.171875
1480605900525282,0.322266,-0.958984,-0.16748
1480605900550849,0.323242,-0.949219,-0.175293
1480605900562880,0.327637,-0.937012,-0.178711
1480605900585441,0.320801,-0.94043,-0.174316
1480605900603489,0.318359,-0.94873,-0.166016
1480605900630060,0.320801,-0.954102,-0.169922
1480605900647105,0.32666,-0.948242,-0.17041
1480605900663148,0.332031,-0.933594,-0.173828
1480605900686209,0.333984,-0.932129,-0.179199
1480605900705260,0.326172,-0.947754,-0.175781
1480605900723308,0.320801,-0.958984,-0.17627
1480605900742860,0.323242,-0.954102,-0.174805
1480605900765423,0.324219,-0.935547,-0.171875
1480605900783468,0.327637,-0.931152,-0.170898
1480605900803020,0.32666,-0.938965,-0.170898
1480605900833100,0.327637,-0.950195,-0.170898
1480605900843127,0.319824,-0.960449,-0.169434
1480605900870198,0.321777,-0.950684,-0.172363
1480605900885239,0.326172,-0.93457,-0.168945
1480605900907799,0.330566,-0.931641,-0.16748
1480605900922838,0.32373,-0.943848,-0.172363
1480605900952918,0.32666,-0.960449,-0.17627
1480605900963447,0.321777,-0.958496,-0.174805
1480605900999546,0.32373,-0.945801,-0.169434
1480605901006562,0.32959,-0.935547,-0.167969
1480605901025111,0.329102,-0.938965,-0.172852
1480605901042659,0.327148,-0.953613,-0.172852
1480605901074241,0.320313,-0.959961,-0.164551
1480605901090785,0.321777,-0.95166,-0.17041
1480605901119362,0.322754,-0.941406,-0.167969
1480605901125879,0.32959,-0.93457,-0.17334
1480605901143426,0.328613,-0.940918,-0.174805
1480605901164482,0.325195,-0.95752,-0.170898
1480605901186541,0.324219,-0.956055,-0.165039
1480605901203084,0.323242,-0.948242,-0.172852
1480605901231661,0.326172,-0.935059,-0.168457
1480605901245196,0.327148,-0.936523,-0.165527
1480605901263245,0.330566,-0.95166,-0.17334
1480605901300346,0.324219,-0.963379,-0.176758
1480605901305357,0.319336,-0.953125,-0.172852
1480605901335937,0.324219,-0.937012,-0.171387
1480605901344961,0.330566,-0.932617,-0.16748
1480605901365517,0.33252,-0.944336,-0.170898
1480605901389081,0.323242,-0.959473,-0.167969
1480605901405623,0.317383,-0.954102,-0.17041
1480605901432696,0.318848,-0.937012,-0.16748
1480605901443223,0.330078,-0.930176,-0.168945
1480605901481827,0.334961,-0.939453,-0.17334
1480605901486839,0.328125,-0.955566,-0.173828
1480605901503383,0.323242,-0.961426,-0.175293
1480605901525943,0.324707,-0.959473,-0.173828
1480605901545495,0.315918,-0.941895,-0.167969
1480605901570562,0.324219,-0.932617,-0.17041
1480605901585603,0.331543,-0.937988,-0.166992
1480605901622700,0.330078,-0.949707,-0.169922
1480605901627714,0.325195,-0.953125,-0.17041
1480605901651778,0.325684,-0.946777,-0.172852
1480605901675842,0.328125,-0.942383,-0.177734
1480605901683362,0.32959,-0.935547,-0.172363
1480605901713442,0.325195,-0.945313,-0.169434
1480605901725474,0.321289,-0.95459,-0.162598
1480605901744525,0.321777,-0.95459,-0.168945
1480605901765587,0.328613,-0.943359,-0.168457
1480605901792653,0.327637,-0.933105,-0.171387
1480605901807693,0.327148,-0.942383,-0.166504
1480605901825741,0.321777,-0.951172,-0.17041
1480605901852814,0.324707,-0.955078,-0.168457
1480605901863342,0.32373,-0.950684,-0.17041
1480605901908961,0.325195,-0.938965,-0.170898
1480605901923000,0.330078,-0.939941,-0.171875
1480605901945559,0.32666,-0.945801,-0.170898
1480605901950072,0.319336,-0.958008,-0.166504
1480605901965111,0.318848,-0.955078,-0.166992
1480605901987672,0.32373,-0.941406,-0.166016
1480605902005720,0.326172,-0.933105,-0.172852
1480605902034297,0.33252,-0.944824,-0.165527
1480605902043320,0.32666,-0.951172,-0.170898
1480605902066383,0.322266,-0.959473,-0.165527
1480605902086936,0.324219,-0.950684,-0.172363
1480605902102979,0.32666,-0.936035,-0.166016
1480605902126039,0.330078,-0.937012,-0.169922
1480605902146594,0.323242,-0.942383,-0.168457
1480605902178178,0.318848,-0.958984,-0.163086
1480605902185698,0.321289,-0.956543,-0.169434
1480605902222296,0.325195,-0.943359,-0.166016
1480605902227810,0.327637,-0.93457,-0.175781
1480605902245859,0.327148,-0.941406,-0.168457
1480605902268419,0.324219,-0.95166,-0.165039
1480605902287970,0.32373,-0.956055,-0.165527
1480605902313037,0.327148,-0.953125,-0.174316
1480605902326573,0.326172,-0.940918,-0.164551
1480605902364675,0.32666,-0.93457,-0.161621
1480605902367187,0.32373,-0.939941,-0.165039
1480605902412301,0.322266,-0.958496,-0.167969
1480605902416813,0.324707,-0.956543,-0.172852
1480605902425837,0.327637,-0.948242,-0.166992
1480605902455917,0.32959,-0.9375,-0.169922
1480605902467999,0.328125,-0.939941,-0.169922
1480605902500536,0.323242,-0.949707,-0.165039
1480605902508059,0.322266,-0.956543,-0.156738
1480605902547160,0.322266,-0.944824,-0.165039
1480605902557688,0.32959,-0.933105,-0.17041
1480605902575737,0.331055,-0.932129,-0.170898
1480605902590777,0.329102,-0.943848,-0.164551
1480605902606818,0.318848,-0.963379,-0.168457
1480605902642914,0.318848,-0.960938,-0.163086
1480605902647929,0.324219,-0.942383,-0.168945
1480605902689538,0.331055,-0.93457,-0.164551
1480605902694051,0.331055,-0.939941,-0.164063
1480605902708091,0.326172,-0.951172,-0.168457
1480605902731651,0.323242,-0.958496,-0.164551
1480605902748195,0.320313,-0.950684,-0.164063
1480605902771256,0.322266,-0.935059,-0.161133
1480605902785795,0.32666,-0.933594,-0.168945
1480605902808355,0.325684,-0.945313,-0.171875
1480605902827907,0.318848,-0.958496,-0.169922
1480605902851971,0.316406,-0.956055,-0.167969
1480605902868515,0.328125,-0.947266,-0.168457
1480605902895086,0.328125,-0.936035,-0.169434
1480605902913135,0.330566,-0.939941,-0.162109
1480605902928174,0.32959,-0.948242,-0.163086
1480605902955245,0.317383,-0.95752,-0.162598
1480605902965774,0.320313,-0.955078,-0.166504
1480605902988335,0.331543,-0.939453,-0.169922
1480605903011896,0.327637,-0.933594,-0.169922
1480605903026936,0.330566,-0.94043,-0.167969
1480605903047993,0.330078,-0.95459,-0.163086
1480605903069049,0.324219,-0.956055,-0.163086
1480605903100633,0.320313,-0.947266,-0.168457
1480605903108153,0.323242,-0.930664,-0.16748
1480605903129711,0.324219,-0.936523,-0.16748
1480605903146255,0.327148,-0.952148,-0.164063
1480605903172825,0.321777,-0.959473,-0.165527
1480605903189870,0.321289,-0.956543,-0.163574
1480605903205912,0.326172,-0.944824,-0.161621
1480605903241508,0.330566,-0.932617,-0.164551
1480605903248527,0.330078,-0.943359,-0.172852
1480605903265072,0.328613,-0.953613,-0.15918
1480605903288633,0.321777,-0.956055,-0.161621
1480605903310691,0.319824,-0.943848,-0.16748
1480605903332752,0.327148,-0.931641,-0.168457
1480605903347289,0.328613,-0.944336,-0.16748
1480605903377368,0.326172,-0.955566,-0.166504
1480605903390905,0.321777,-0.962891,-0.163574
1480605903432519,0.321289,-0.956543,-0.161621
1480605903436026,0.318848,-0.943359,-0.166504
1480605903451064,0.321777,-0.93457,-0.160645
1480605903467609,0.331543,-0.93457,-0.166016
1480605903489667,0.32373,-0.953125,-0.17041
1480605903513230,0.327637,-0.955566,-0.169922
1480605903528271,0.320313,-0.950195,-0.164551
1480605903565369,0.33252,-0.94043,-0.17041
1480605903570884,0.330566,-0.933594,-0.162109
1480605903587428,0.328125,-0.943848,-0.168457
1480605903609987,0.323242,-0.955078,-0.161133
1480605903639065,0.325195,-0.955078,-0.163086
1480605903664633,0.32373,-0.942383,-0.161621
1480605903669646,0.332031,-0.9375,-0.160645
1480605903699729,0.325684,-0.941406,-0.160156
1480605903707748,0.324707,-0.954102,-0.164063
1480605903730810,0.319824,-0.958496,-0.163086
1480605903750863,0.319824,-0.952637,-0.165527
1480605903767406,0.324219,-0.942871,-0.170898
1480605903797488,0.32959,-0.937988,-0.17041
1480605903811024,0.329102,-0.945801,-0.164551
1480605903842606,0.323242,-0.957031,-0.168945
1480605903850127,0.321289,-0.953613,-0.164551
1480605903871182,0.32959,-0.941406,-0.161133
1480605903887226,0.330566,-0.935059,-0.164551
1480605903940367,0.327637,-0.943359,-0.162109
1480605903942874,0.330078,-0.952148,-0.16748
1480605903949393,0.32373,-0.958496,-0.165039
1480605903977465,0.317871,-0.95459,-0.164063
1480605903991001,0.326172,-0.938477,-0.166016
1480605904024089,0.331055,-0.935059,-0.164551
1480605904030106,0.324219,-0.946289,-0.162109
1480605904052164,0.325195,-0.960938,-0.163086
1480605904075225,0.321289,-0.958008,-0.16748
1480605904090767,0.321777,-0.945313,-0.167969
1480605904118341,0.329102,-0.937988,-0.166992
1480605904127364,0.328613,-0.937012,-0.16748
1480605904149924,0.322266,-0.94873,-0.166016
1480605904170980,0.321777,-0.958496,-0.169922
1480605904218608,0.321289,-0.95166,-0.171387
1480605904224121,0.330566,-0.944824,-0.162598
1480605904238660,0.328125,-0.931152,-0.165039
1480605904262222,0.327637,-0.936523,-0.163086
1480605904269745,0.326172,-0.953125,-0.166016
1480605904307844,0.32666,-0.962891,-0.164063
1480605904310352,0.32373,-0.950195,-0.165039
1480605904329903,0.325195,-0.938965,-0.161621
1480605904352964,0.328125,-0.936035,-0.166504
1480605904367503,0.319824,-0.949219,-0.166992
1480605904405604,0.318359,-0.958984,-0.160645
1480605904412623,0.323242,-0.947754,-0.165039
1480605904426661,0.32959,-0.937012,-0.166016
1480605904449722,0.331055,-0.93457,-0.166504
1480605904488826,0.328613,-0.942871,-0.164063
1480605904493338,0.327148,-0.958984,-0.168457
1480605904540463,0.322266,-0.954102,-0.165527
1480605904542970,0.32373,-0.946289,-0.169434
1480605904547983,0.327637,-0.9375,-0.16748
1480605904583579,0.328613,-0.939453,-0.171875
1480605904592603,0.325684,-0.948242,-0.17041
1480605904606639,0.318848,-0.955566,-0.164551
1480605904630202,0.31543,-0.949707,-0.167969
1480605904652260,0.326172,-0.940918,-0.17041
1480605904675824,0.329102,-0.931152,-0.168945
1480605904689860,0.325195,-0.939941,-0.173828
1480605904720441,0.320313,-0.956055,-0.169434
1480605904727963,0.319336,-0.960938,-0.170898
1480605904773082,0.322754,-0.949707,-0.168945
1480605904775589,0.331543,-0.931152,-0.168457
1480605904793637,0.335449,-0.933594,-0.175293
1480605904817199,0.327637,-0.947266,-0.166504
1480605904832242,0.322754,-0.952148,-0.161621
1480605904854800,0.317871,-0.95459,-0.166992
1480605904869839,0.325195,-0.939941,-0.17041
1480605904892399,0.32959,-0.937012,-0.175293
1480605904913455,0.329102,-0.943359,-0.168457
1480605904929999,0.327148,-0.953125,-0.17334
1480605904953061,0.322266,-0.957031,-0.166016
1480605904973114,0.320801,-0.947266,-0.173828
1480605904997680,0.325684,-0.935059,-0.171875
1480605905012721,0.33252,-0.93457,-0.168457
1480605905050320,0.328613,-0.944824,-0.174316
1480605905052826,0.324707,-0.956543,-0.171387
1480605905072394,0.325195,-0.954102,-0.168945
1480605905093450,0.325195,-0.943359,-0.171387
1480605905109994,0.330566,-0.937988,-0.170898
1480605905140575,0.32959,-0.935547,-0.169434
1480605905153610,0.325684,-0.947266,-0.168945
1480605905169151,0.323242,-0.951172,-0.169922
1480605905192212,0.324707,-0.950684,-0.173828
1480605905222293,0.328125,-0.939941,-0.168457
1480605905230826,0.331543,-0.938477,-0.169434
1480605905282953,0.326172,-0.942871,-0.166504
1480605905285460,0.319336,-0.952148,-0.172852
1480605905291477,0.314453,-0.956543,-0.166992
1480605905327572,0.319824,-0.943848,-0.17041
1480605905335594,0.32959,-0.931152,-0.171387
1480605905363670,0.330566,-0.9375,-0.168945
1480605905372192,0.330566,-0.946289,-0.175781
1480605905394755,0.328613,-0.958496,-0.175293
1480605905409290,0.325195,-0.947266,-0.17334
1480605905438367,0.32666,-0.933105,-0.175293
1480605905455914,0.332031,-0.935059,-0.174316
1480605905469450,0.328125,-0.947754,-0.173828
1480605905500533,0.324219,-0.952637,-0.170898
1480605905515072,0.323242,-0.955078,-0.16748
1480605905529109,0.319336,-0.949219,-0.172852
1480605905559690,0.32959,-0.928711,-0.170898
1480605905574731,0.330566,-0.936523,-0.17041
1480605905595786,0.324219,-0.951172,-0.172363
1480605905612330,0.322754,-0.958496,-0.166992
1480605905634891,0.325195,-0.952148,-0.17334
1480605905649438,0.328613,-0.9375,-0.175293
1480605905672991,0.333008,-0.933594,-0.171875
1480605905695051,0.332031,-0.939453,-0.168945
1480605905717611,0.322266,-0.956055,-0.17041
1480605905732651,0.322754,-0.954102,-0.171387
1480605905754709,0.325195,-0.944336,-0.172363
1480605905793813,0.328613,-0.939453,-0.172363
1480605905798829,0.335938,-0.937012,-0.172852
1480605905838933,0.328613,-0.949707,-0.174805
1480605905843445,0.324219,-0.956055,-0.164063
1480605905860491,0.32666,-0.949219,-0.171875
1480605905884053,0.327148,-0.937012,-0.17041
1480605905903605,0.328613,-0.930176,-0.169434
1480605905912629,0.32959,-0.939941,-0.172852
1480605905934688,0.322754,-0.956055,-0.17627
1480605905956747,0.320801,-0.955078,-0.175293
1480605905972789,0.321289,-0.946777,-0.166992
1480605905994848,0.328125,-0.924805,-0.174316
1480605906017408,0.332031,-0.92627,-0.174316
1480605906032451,0.33252,-0.946289,-0.17041
1480605906071050,0.328125,-0.964844,-0.174316
1480605906076064,0.321289,-0.959961,-0.175293
1480605906108149,0.319824,-0.941406,-0.171875
1480605906114666,0.328125,-0.933594,-0.165527
1480605906136725,0.321289,-0.937012,-0.166992
1480605906159786,0.321777,-0.944824,-0.17334
1480605906174827,0.328613,-0.950684,-0.169434
1480605906197387,0.328125,-0.950195,-0.177734
1480605906212427,0.330566,-0.933105,-0.17627
1480605906234987,0.333496,-0.936523,-0.172363
1480605906257547,0.326172,-0.945313,-0.172852
1480605906271584,0.321289,-0.950684,-0.168457
1480605906295149,0.325684,-0.957031,-0.165039
1480605906347787,0.325684,-0.941895,-0.169434
1480605906350293,0.329102,-0.932129,-0.168945
1480605906356811,0.32666,-0.943359,-0.17334
1480605906393909,0.322266,-0.956055,-0.163574
1480605906398422,0.320801,-0.955566,-0.174316
1480605906438026,0.32373,-0.947754,-0.172852
1480605906440534,0.327637,-0.933105,-0.168457
1480605906458582,0.331055,-0.936035,-0.169922
1480605906475125,0.324219,-0.944336,-0.166504
1480605906497185,0.326172,-0.959473,-0.171387
1480605906527264,0.322266,-0.955078,-0.171387
1480605906534784,0.328613,-0.94043,-0.166504
1480605906557845,0.334473,-0.930664,-0.171387
1480605906578902,0.328613,-0.938965,-0.168945
1480605906600960,0.326172,-0.954102,-0.172363
1480605906625024,0.320801,-0.958984,-0.162598
1480605906639061,0.322754,-0.947754,-0.169434
1480605906655105,0.330566,-0.938477,-0.175781
1480605906677665,0.331055,-0.931152,-0.168945
1480605906715267,0.327148,-0.943359,-0.173828
1480605906717773,0.320801,-0.952637,-0.17041
1480605906737323,0.319824,-0.956055,-0.168457
1480605906758378,0.326172,-0.940918,-0.171875
1480605906780939,0.331055,-0.936035,-0.173828
1480605906797484,0.329102,-0.929688,-0.163086
1480605906818539,0.327637,-0.945313,-0.166016
1480605906850123,0.32373,-0.957031,-0.174805
1480605906857643,0.325684,-0.957031,-0.170898
1480605906887723,0.327148,-0.945801,-0.172852
1480605906903766,0.330566,-0.935059,-0.172363
1480605906925825,0.32373,-0.936523,-0.170898
1480605906938358,0.319824,-0.952637,-0.164063
1480605906954902,0.319336,-0.955078,-0.161621
1480605906977963,0.327148,-0.9375,-0.16748
1480605906999019,0.333008,-0.93457,-0.174805
1480605907022582,0.334961,-0.936523,-0.167969
1480605907037621,0.327637,-0.95459,-0.171387
1480605907066702,0.328613,-0.960449,-0.165039
1480605907076225,0.322266,-0.950195,-0.166504
1480605907127361,0.330566,-0.934082,-0.17041
1480605907136886,0.330566,-0.932129,-0.170898
1480605907148419,0.326172,-0.943359,-0.168457
1480605907182010,0.326172,-0.960449,-0.171875
1480605907187021,0.317871,-0.95459,-0.17041
1480605907195542,0.317871,-0.946777,-0.169434
1480605907217601,0.328613,-0.932129,-0.170898
1480605907247180,0.32959,-0.9375,-0.17041
1480605907254198,0.324707,-0.953613,-0.17041
1480605907277260,0.320801,-0.962402,-0.168457
1480605907305835,0.320801,-0.955566,-0.169922
1480605907315365,0.327637,-0.937012,-0.164551
1480605907337922,0.333496,-0.934082,-0.165039
1480605907359979,0.330566,-0.937988,-0.167969
1480605907405601,0.324707,-0.952148,-0.169922
1480605907408609,0.322754,-0.956543,-0.164063
1480605907442700,0.321777,-0.944824,-0.163086
1480605907445206,0.328613,-0.936035,-0.166992
1480605907457238,0.328613,-0.938965,-0.174316
1480605907480301,0.327637,-0.949707,-0.168457
1480605907494838,0.322266,-0.958984,-0.166016
1480605907517399,0.320801,-0.95459,-0.166504
1480605907539958,0.328613,-0.942383,-0.168945
1480605907553995,0.327148,-0.938965,-0.162109
1480605907585079,0.327637,-0.934082,-0.167969
1480605907600121,0.322754,-0.947266,-0.164551
1480605907620673,0.319336,-0.956543,-0.168457
1480605907638721,0.327637,-0.950684,-0.17041
1480605907667297,0.327148,-0.94043,-0.168945
1480605907682337,0.328125,-0.935059,-0.16748
1480605907720438,0.323242,-0.94873,-0.162598
1480605907722945,0.322266,-0.960449,-0.164063
1480605907749015,0.321777,-0.949707,-0.161133
1480605907757537,0.32666,-0.936035,-0.161621
1480605907780601,0.333008,-0.933594,-0.172363
1480605907802657,0.330566,-0.94043,-0.171387
1480605907818198,0.329102,-0.958496,-0.173828
1480605907847777,0.322754,-0.960449,-0.168457
1480605907860813,0.320801,-0.941406,-0.166504
1480605907905932,0.330566,-0.93457,-0.165527
1480605907916961,0.331543,-0.933594,-0.165039
1480605907922477,0.327637,-0.946289,-0.166504
1480605907961078,0.320801,-0.956543,-0.169922
1480605907966092,0.320801,-0.962402,-0.164551
1480605907982139,0.323242,-0.941406,-0.163574
1480605907997176,0.329102,-0.934082,-0.167969
1480605908019735,0.331055,-0.944824,-0.166992
1480605908041794,0.326172,-0.955078,-0.166016
1480605908057836,0.320801,-0.958496,-0.159668
1480605908080396,0.327637,-0.951172,-0.166016
1480605908102455,0.32666,-0.936523,-0.156738
1480605908125015,0.331055,-0.930176,-0.165039
1480605908140054,0.330078,-0.940918,-0.165527
1480605908193697,0.321777,-0.952637,-0.161133
1480605908200215,0.324707,-0.962402,-0.168945
1480605908202721,0.326172,-0.948242,-0.161133
1480605908237313,0.330566,-0.930664,-0.166016
1480605908239820,0.32959,-0.94043,-0.164063
1480605908290456,0.32373,-0.951172,-0.15918
1480605908292962,0.324219,-0.960449,-0.164063
1480605908303991,0.323242,-0.950684,-0.168457
1480605908320033,0.324707,-0.937012,-0.163574
1480605908342594,0.328613,-0.932129,-0.165527
1480605908356632,0.325195,-0.943848,-0.16748
1480605908379692,0.322754,-0.955566,-0.163086
1480605908402255,0.318848,-0.958496,-0.166016
1480605908416791,0.326172,-0.947266,-0.17334
1480605908453389,0.327637,-0.937988,-0.161621
1480605908469933,0.330078,-0.935059,-0.164063
1480605908476951,0.326172,-0.944336,-0.165039
1480605908500013,0.328613,-0.962402,-0.162598
1480605908522573,0.324219,-0.958496,-0.166016
1480605908543629,0.327148,-0.943359,-0.15918
1480605908559672,0.329102,-0.938965,-0.161621
1480605908582235,0.319336,-0.942383,-0.162109
1480605908603287,0.32373,-0.961914,-0.162109
1480605908619831,0.321289,-0.956543,-0.158691
1480605908642892,0.328125,-0.945801,-0.157715
1480605908663448,0.331543,-0.933105,-0.161133
1480605908703052,0.330566,-0.937012,-0.164551
1480605908705559,0.328613,-0.955078,-0.168945
1480605908724610,0.32373,-0.958984,-0.163086
1480605908749175,0.320801,-0.950684,-0.155762
1480605908769730,0.330078,-0.933594,-0.157227
1480605908783266,0.33252,-0.935059,-0.161621
1480605908799810,0.328125,-0.942871,-0.166504
1480605908822372,0.327637,-0.957031,-0.160156
1480605908844930,0.320313,-0.957031,-0.161133
1480605908860973,0.321777,-0.943359,-0.161621
1480605908882531,0.329102,-0.934082,-0.161133
1480605908912610,0.326172,-0.936523,-0.163574
1480605908920130,0.324219,-0.952148,-0.166504
1480605908980290,0.322266,-0.958008,-0.165527
1480605908982797,0.319336,-0.955566,-0.163086
1480605909025410,0.330078,-0.932129,-0.162109
1480605909027917,0.333008,-0.939941,-0.168457
1480605909047973,0.319824,-0.951172,-0.169434
1480605909062509,0.32373,-0.955078,-0.157715
1480605909086072,0.32373,-0.952637,-0.15918
1480605909107629,0.332031,-0.936523,-0.166504
1480605909122168,0.327637,-0.933594,-0.164063
1480605909152247,0.330566,-0.946777,-0.163086
1480605909161272,0.321289,-0.958984,-0.160156
1480605909189847,0.317871,-0.955566,-0.163086
1480605909205390,0.322266,-0.946777,-0.166992
1480605909242989,0.330566,-0.933594,-0.159668
1480605909246499,0.32666,-0.938477,-0.162598
1480605909272569,0.326172,-0.955566,-0.15918
1480605909280589,0.324219,-0.960449,-0.160156
1480605909302146,0.325195,-0.948242,-0.161621
1480605909332229,0.325195,-0.938477,-0.164551
1480605909362808,0.330078,-0.937012,-0.163086
1480605909371331,0.328125,-0.953125,-0.163086
1480605909384867,0.322754,-0.957031,-0.162109
1480605909414445,0.324219,-0.95166,-0.163574
1480605909423970,0.32666,-0.939453,-0.164551
1480605909445529,0.335449,-0.93457,-0.162598
1480605909467587,0.326172,-0.945313,-0.165527
1480605909482627,0.319824,-0.955078,-0.166016
1480605909510701,0.321777,-0.960938,-0.158691
1480605909526242,0.317871,-0.94873,-0.157715
1480605909542285,0.321777,-0.936523,-0.162598
1480605909573369,0.330566,-0.932617,-0.159668
1480605909585902,0.331055,-0.938965,-0.162598
1480605909601944,0.322754,-0.95752,-0.168457
1480605909625005,0.325684,-0.960938,-0.165527
1480605909646564,0.324707,-0.947266,-0.158691
1480605909662606,0.33252,-0.933594,-0.166504
1480605909693187,0.330078,-0.935059,-0.163574
1480605909714747,0.330078,-0.952148,-0.162598
1480605909724270,0.323242,-0.959473,-0.160645
1480605909750840,0.32373,-0.954102,-0.157227
1480605909767384,0.327637,-0.937012,-0.165527
1480605909789944,0.328125,-0.933105,-0.163574
1480605909804483,0.32666,-0.942383,-0.159668
1480605909833570,0.319336,-0.955078,-0.164063
1480605909843086,0.318848,-0.959961,-0.165039
1480605909865149,0.319824,-0.952637,-0.164551
1480605909886200,0.327148,-0.939453,-0.166016
1480605909902243,0.335938,-0.936523,-0.161133
1480605909925304,0.32373,-0.950195,-0.163086
1480605909953378,0.324219,-0.959961,-0.161621
1480605909962403,0.324707,-0.953125,-0.163574
1480605909984963,0.324707,-0.943848,-0.162598
1480605910008528,0.333008,-0.933105,-0.153809
1480605910025572,0.326172,-0.946289,-0.161133
1480605910045123,0.324707,-0.954102,-0.163086
1480605910067684,0.320801,-0.958008,-0.161621
1480605910081724,0.32373,-0.945313,-0.163574
1480605910104783,0.328613,-0.937012,-0.165039
1480605910128845,0.325684,-0.938965,-0.166504
1480605910141881,0.324219,-0.949707,-0.157715
1480605910171961,0.320313,-0.958008,-0.163574
1480605910187502,0.320313,-0.955566,-0.156738
1480605910210062,0.325684,-0.937012,-0.163086
1480605910226105,0.330566,-0.938477,-0.167969
1480605910256184,0.32666,-0.941406,-0.165039
1480605910268217,0.319824,-0.954102,-0.155762
1480605910292281,0.325195,-0.958008,-0.157227
1480605910308325,0.329102,-0.950684,-0.15625
1480605910345422,0.327148,-0.934082,-0.166992
1480605910347928,0.32373,-0.931152,-0.159668
1480605910382522,0.327148,-0.942871,-0.164551
1480605910389038,0.325195,-0.960938,-0.164063
1480605910405081,0.321777,-0.958984,-0.161133
1480605910427640,0.324219,-0.947266,-0.163086
1480605910448699,0.330078,-0.938477,-0.163086
1480605910472259,0.324707,-0.943848,-0.158691
1480605910493315,0.32373,-0.952148,-0.157715
1480605910515875,0.323242,-0.955078,-0.159668
1480605910530916,0.329102,-0.946289,-0.157715
1480605910554980,0.33252,-0.935059,-0.159668
1480605910585561,0.32959,-0.933594,-0.165527
1480605910588569,0.328125,-0.955566,-0.15918
1480605910608125,0.324707,-0.959961,-0.15918
1480605910635699,0.322266,-0.953125,-0.152832
1480605910644723,0.33252,-0.941895,-0.161133
1480605910667784,0.328613,-0.9375,-0.159668
1480605910688339,0.32666,-0.941406,-0.160156
1480605910704883,0.325195,-0.955078,-0.161133
1480605910727444,0.316895,-0.95752,-0.155273
1480605910748501,0.324707,-0.94873,-0.163086
1480605910765044,0.325195,-0.938965,-0.161621
1480605910787603,0.325195,-0.936035,-0.164551
1480605910808660,0.324707,-0.949219,-0.164551
1480605910824701,0.320313,-0.95752,-0.163086
1480605910847261,0.32373,-0.952637,-0.15918
1480605910875837,0.32666,-0.943359,-0.15918
1480605910884861,0.32959,-0.938477,-0.159668
1480605910907422,0.333496,-0.937988,-0.164063
1480605910929982,0.325684,-0.954102,-0.158203
1480605910944520,0.322266,-0.956543,-0.164063
1480605910967582,0.320801,-0.953613,-0.165039
1480605910997160,0.328125,-0.938477,-0.162598
1480605911004679,0.332031,-0.935059,-0.16748
1480605911027240,0.327637,-0.950195,-0.159668
1480605911049801,0.322754,-0.956543,-0.163086
1480605911064339,0.319336,-0.95459,-0.161133
1480605911087902,0.327637,-0.944824,-0.165527
1480605911109960,0.327148,-0.934082,-0.164063
1480605911123997,0.330566,-0.939453,-0.164551
1480605911157085,0.330078,-0.955078,-0.163574
1480605911177641,0.321777,-0.960449,-0.164551
1480605911185160,0.32666,-0.949219,-0.156738
1480605911207220,0.327637,-0.94043,-0.156738
1480605911231283,0.333984,-0.933105,-0.161133
1480605911244318,0.328125,-0.947266,-0.162598
1480605911267378,0.322266,-0.95166,-0.164551
1480605911289938,0.320313,-0.946777,-0.164063
1480605911303977,0.326172,-0.947266,-0.163574
1480605911327539,0.331543,-0.946289,-0.157227
1480605911349597,0.331543,-0.946289,-0.161133
1480605911364137,0.325684,-0.95459,-0.165039
1480605911387198,0.317383,-0.95459,-0.161621
1480605911427805,0.318848,-0.951172,-0.158691
1480605911430815,0.325684,-0.933105,-0.161133
1480605911447358,0.331055,-0.930176,-0.158203
1480605911477939,0.330566,-0.943359,-0.161621
1480605911491475,0.327148,-0.955078,-0.163086
1480605911507518,0.321777,-0.962402,-0.166992
1480605911530580,0.320801,-0.95166,-0.161133
1480605911551635,0.331055,-0.935547,-0.162109
1480605911567176,0.333008,-0.935547,-0.162598
1480605911590740,0.326172,-0.952637,-0.158691
1480605911618313,0.319824,-0.958984,-0.162109
1480605911642878,0.321289,-0.955078,-0.154785
1480605911653406,0.325684,-0.938477,-0.157227
1480605911670952,0.329102,-0.935059,-0.162598
1480605911687997,0.328125,-0.941895,-0.160645
1480605911710056,0.326172,-0.959961,-0.162109
1480605911732618,0.319824,-0.964355,-0.158691
1480605911754677,0.318359,-0.950684,-0.163086
1480605911771219,0.327148,-0.936523,-0.161621
1480605911798296,0.331543,-0.932129,-0.164551
1480605911807315,0.324219,-0.947266,-0.158203
1480605911829876,0.32666,-0.95752,-0.158691
1480605911852436,0.325684,-0.954102,-0.157715
1480605911875497,0.326172,-0.943848,-0.156738
1480605911890536,0.328125,-0.9375,-0.161621
1480605911918112,0.327637,-0.940918,-0.163574
1480605911928639,0.324219,-0.950195,-0.163574
1480605911957214,0.320313,-0.957031,-0.160645
1480605911972256,0.318848,-0.954102,-0.164063
1480605911987294,0.327637,-0.941406,-0.161133
1480605912015872,0.326172,-0.93457,-0.161621
1480605912032414,0.324707,-0.946777,-0.152832
1480605912054974,0.325684,-0.957031,-0.164063
1480605912070014,0.324707,-0.956055,-0.164551
1480605912092575,0.325195,-0.948242,-0.163086
1480605912106611,0.333984,-0.935059,-0.160156
1480605912129674,0.327148,-0.937988,-0.161621
1480605912158249,0.325195,-0.95459,-0.162109
1480605912174291,0.322266,-0.965332,-0.161133
1480605912189834,0.321289,-0.953613,-0.162109
1480605912212393,0.323242,-0.931152,-0.158691
1480605912226932,0.328613,-0.929688,-0.15918
1480605912249993,0.332031,-0.950195,-0.164063
1480605912272552,0.32373,-0.969238,-0.161621
1480605912286590,0.322266,-0.964844,-0.161621
1480605912309652,0.320801,-0.942871,-0.159668
1480605912332214,0.321777,-0.934082,-0.153809
1480605912353769,0.327148,-0.937988,-0.159668
1480605912375828,0.327148,-0.947266,-0.164551
1480605912399892,0.323242,-0.961426,-0.163086
1480605912413428,0.324707,-0.950195,-0.162598
1480605912437995,0.327637,-0.94043,-0.169434
1480605912452534,0.333496,-0.936035,-0.159668
1480605912474089,0.33252,-0.940918,-0.162598
1480605912497658,0.327148,-0.956055,-0.163574
1480605912512191,0.329102,-0.964844,-0.154785
1480605912533246,0.318359,-0.948242,-0.162109
1480605912549791,0.327148,-0.9375,-0.15332
1480605912578367,0.331543,-0.938477,-0.160645
1480605912593407,0.325195,-0.947754,-0.162598
1480605912609951,0.322266,-0.956543,-0.162598
1480605912632514,0.321777,-0.955566,-0.157227
1480605912654067,0.321289,-0.945313,-0.158203
1480605912669609,0.330078,-0.939941,-0.161133
1480605912692169,0.328125,-0.943848,-0.164063
1480605912713226,0.325195,-0.953125,-0.162109
1480605912729771,0.325684,-0.95752,-0.160645
1480605912752329,0.326172,-0.947754,-0.166016
1480605912773386,0.328125,-0.936035,-0.163574
1480605912804969,0.328125,-0.932617,-0.157715
1480605912819007,0.328613,-0.946289,-0.158203
1480605912841065,0.321777,-0.958496,-0.162598
1480605912850090,0.322754,-0.954102,-0.161621
1480605912872148,0.327148,-0.942871,-0.162109
1480605912895711,0.328613,-0.935547,-0.158203
1480605912909748,0.328613,-0.940918,-0.166992
1480605912932308,0.32373,-0.95459,-0.158203
1480605912954868,0.323242,-0.958984,-0.158691
1480605912975928,0.321777,-0.953613,-0.155762
1480605912992468,0.32959,-0.935547,-0.156738
1480605913015029,0.331055,-0.93457,-0.158203
1480605913044607,0.32666,-0.949219,-0.15918
1480605913052127,0.325195,-0.961426,-0.163574
1480605913091231,0.321289,-0.959961,-0.163086
1480605913095743,0.321289,-0.938965,-0.160645
1480605913112287,0.331543,-0.929199,-0.165039
1480605913134848,0.330566,-0.940918,-0.165039
1480605913164930,0.325684,-0.956055,-0.161133
1480605913178463,0.320801,-0.964844,-0.166016
1480605913195007,0.321777,-0.95752,-0.166992
1480605913226090,0.325684,-0.9375,-0.159668
1480605913232609,0.328125,-0.93457,-0.162598
1480605913269706,0.328125,-0.942871,-0.15625
1480605913284746,0.32373,-0.95459,-0.164063
1480605913292266,0.327148,-0.953613,-0.160156
1480605913315330,0.328613,-0.946777,-0.163086
1480605913335883,0.333496,-0.937012,-0.17334
1480605913375989,0.333008,-0.936523,-0.164551
1480605913381009,0.328125,-0.945801,-0.160645
1480605913396042,0.324219,-0.958984,-0.163086
1480605913418601,0.32373,-0.954102,-0.160156
1480605913436148,0.324219,-0.934082,-0.161133
1480605913455701,0.328613,-0.931152,-0.162598
1480605913472245,0.331543,-0.944824,-0.163574
1480605913510848,0.32666,-0.95166,-0.165039
1480605913515861,0.324219,-0.957031,-0.156738
1480605913532408,0.325684,-0.945313,-0.164063
1480605913554965,0.326172,-0.938965,-0.15918
1480605913591562,0.327637,-0.943848,-0.166992
1480605913600085,0.324219,-0.953613,-0.166504
1480605913614623,0.329102,-0.960938,-0.168945
1480605913635679,0.328613,-0.950684,-0.166016
1480605913653226,0.330078,-0.936035,-0.166016
1480605913682303,0.32959,-0.930176,-0.172852
1480605913697344,0.331055,-0.944824,-0.172363
1480605913742964,0.324707,-0.956055,-0.166016
1480605913745471,0.320313,-0.957031,-0.162598
1480605913757002,0.325195,-0.947266,-0.168945
1480605913772544,0.330566,-0.936035,-0.161133
1480605913795613,0.330566,-0.935547,-0.166016
1480605913817162,0.323242,-0.942871,-0.165527
1480605913832205,0.323242,-0.959473,-0.168457
1480605913854763,0.321289,-0.949707,-0.168945
1480605913877322,0.327148,-0.943359,-0.166504
1480605913891861,0.329102,-0.93457,-0.161621
1480605913928960,0.328125,-0.94043,-0.175781
1480605913937482,0.32959,-0.954102,-0.167969
1480605913975583,0.322266,-0.964355,-0.166992
1480605913977590,0.326172,-0.942383,-0.166992
1480605914021204,0.328125,-0.925781,-0.167969
1480605914025727,0.331055,-0.934082,-0.166504
1480605914035744,0.33252,-0.951172,-0.171875
1480605914057301,0.321777,-0.959473,-0.172852
1480605914071839,0.323242,-0.955078,-0.162598
1480605914094901,0.322754,-0.936523,-0.169922
1480605914117962,0.324219,-0.933105,-0.162598
1480605914138517,0.324707,-0.939941,-0.167969
1480605914155061,0.328613,-0.952148,-0.168945
1480605914178122,0.329102,-0.950684,-0.166992
1480605914206197,0.327637,-0.945313,-0.179199
1480605914216224,0.329102,-0.936035,-0.17334
1480605914243296,0.331055,-0.933594,-0.165527
1480605914258337,0.324707,-0.935059,-0.167969
1480605914298945,0.325684,-0.958008,-0.169434
1480605914303456,0.325684,-0.957031,-0.17334
1480605914318495,0.325195,-0.944336,-0.168457
1480605914342560,0.32959,-0.931641,-0.172852
1480605914357600,0.327637,-0.937012,-0.165527
1480605914385675,0.320801,-0.951172,-0.170898
1480605914394699,0.322266,-0.956055,-0.16748
1480605914417258,0.323242,-0.947754,-0.168945
1480605914438315,0.325195,-0.937988,-0.184082
1480605914462880,0.330078,-0.938477,-0.169434
1480605914484939,0.326172,-0.946289,-0.16748
1480605914530561,0.326172,-0.956055,-0.174805
1480605914533069,0.327148,-0.95166,-0.169434
1480605914538581,0.327637,-0.9375,-0.172363
1480605914575178,0.32959,-0.935059,-0.171387
1480605914577685,0.331055,-0.937988,-0.17627
1480605914597238,0.324707,-0.952637,-0.169922
1480605914618294,0.321777,-0.95752,-0.174805
1480605914634837,0.322266,-0.950684,-0.17041
1480605914657899,0.32666,-0.9375,-0.172363
1480605914680461,0.333008,-0.932129,-0.172363
1480605914694997,0.332031,-0.938965,-0.171875
1480605914717561,0.323242,-0.956543,-0.165039
1480605914764183,0.323242,-0.955078,-0.17041
1480605914768192,0.328125,-0.941406,-0.174316
1480605914807798,0.328125,-0.932617,-0.168945
1480605914811306,0.328613,-0.930664,-0.162598
1480605914816320,0.32666,-0.947266,-0.163574
1480605914844989,0.328125,-0.956055,-0.171387
1480605914860532,0.332031,-0.959961,-0.170898
1480605914874066,0.332031,-0.943359,-0.172363
1480605914898634,0.324707,-0.936035,-0.169434
1480605914919688,0.32666,-0.939453,-0.162109
1480605914934728,0.315918,-0.952637,-0.164063
1480605914957287,0.319336,-0.951172,-0.167969
1480605914985864,0.327637,-0.939941,-0.166504
1480605914994386,0.333984,-0.929688,-0.175781
1480605915032992,0.335449,-0.932617,-0.171875
1480605915040008,0.328613,-0.948242,-0.173828
1480605915076104,0.328125,-0.955566,-0.167969
1480605915086632,0.32373,-0.943359,-0.167969
1480605915107186,0.332031,-0.939941,-0.169922
1480605915114207,0.330566,-0.930664,-0.172363
1480605915137267,0.326172,-0.943848,-0.175293
1480605915159827,0.323242,-0.95752,-0.174316
1480605915180889,0.318848,-0.959961,-0.174316
1480605915197427,0.322754,-0.945801,-0.166016
1480605915220989,0.327148,-0.936523,-0.169434
1480605915248563,0.326172,-0.935059,-0.169434
1480605915272125,0.323242,-0.949707,-0.165039
1480605915279645,0.325684,-0.958496,-0.169922
1480605915317747,0.321289,-0.955078,-0.166992
1480605915323261,0.329102,-0.939941,-0.164063
1480605915340808,0.333496,-0.928711,-0.168457
1480605915364371,0.333496,-0.939941,-0.169922
1480605915376905,0.32666,-0.951172,-0.169434
1480605915408488,0.323242,-0.953613,-0.17041
1480605915421021,0.327148,-0.945801,-0.168457
1480605915453107,0.327148,-0.936035,-0.169922
1480605915459625,0.33252,-0.939941,-0.178711
1480605915488200,0.327148,-0.94873,-0.168945
1480605915497727,0.325684,-0.960449,-0.172852
1480605915541843,0.321777,-0.953613,-0.175293
1480605915549864,0.328125,-0.940918,-0.165039
1480605915557384,0.335449,-0.938477,-0.166016
1480605915595492,0.326172,-0.943848,-0.168457
1480605915601002,0.321777,-0.949707,-0.168945
1480605915617043,0.321289,-0.950684,-0.166504
1480605915641107,0.325195,-0.941895,-0.163574
1480605915662163,0.333496,-0.94043,-0.162598
1480605915677203,0.333496,-0.945801,-0.166504
1480605915699768,0.32666,-0.952637,-0.169922
1480605915723326,0.321289,-0.956055,-0.166504
1480605915737363,0.319336,-0.953125,-0.169922
1480605915760425,0.318359,-0.938477,-0.164063
1480605915782984,0.333496,-0.927734,-0.162598
1480605915803037,0.333984,-0.936035,-0.171387
1480605915827102,0.324707,-0.953613,-0.172363
1480605915850665,0.32666,-0.958008,-0.168457
1480605915872222,0.320313,-0.952148,-0.159668
1480605915880245,0.33252,-0.935059,-0.168457
1480605915909822,0.332031,-0.931152,-0.17334
1480605915923358,0.330566,-0.940918,-0.169434
1480605915939902,0.320801,-0.959961,-0.162598
1480605915962462,0.323242,-0.956055,-0.166992
1480605915976500,0.321777,-0.942383,-0.163086
1480605916000062,0.330566,-0.932617,-0.16748
1480605916022124,0.330566,-0.937012,-0.167969
1480605916060222,0.323242,-0.949219,-0.168945
1480605916062728,0.321289,-0.956543,-0.168457
1480605916095817,0.318359,-0.956055,-0.162598
1480605916106345,0.325684,-0.942871,-0.163086
1480605916134921,0.331543,-0.9375,-0.163086
1480605916142441,0.328613,-0.945801,-0.164063
1480605916163498,0.322754,-0.95752,-0.165039
1480605916180545,0.324219,-0.956543,-0.161621
1480605916202601,0.326172,-0.946289,-0.165039
1480605916223156,0.325684,-0.938965,-0.163574
1480605916239701,0.329102,-0.938477,-0.163574
1480605916262260,0.326172,-0.952148,-0.168457
1480605916283315,0.321777,-0.958008,-0.17041
1480605916299859,0.327148,-0.950195,-0.160156
1480605916336457,0.327148,-0.94043,-0.165039
1480605916343475,0.32959,-0.935059,-0.164551
1480605916359518,0.333984,-0.942871,-0.159668
1480605916392606,0.324707,-0.958008,-0.164063
1480605916403134,0.321289,-0.956543,-0.164063
1480605916427198,0.325195,-0.944824,-0.165039
1480605916442238,0.327637,-0.939941,-0.166504
1480605916463296,0.330078,-0.941406,-0.159668
1480605916479839,0.324219,-0.949219,-0.161133
1480605916502398,0.326172,-0.95166,-0.163574
1480605916523956,0.325195,-0.952637,-0.163086
1480605916540500,0.329102,-0.944824,-0.163574
1480605916562559,0.329102,-0.939941,-0.15918
1480605916615700,0.326172,-0.944824,-0.166504
1480605916619712,0.321777,-0.956543,-0.160156
1480605916623721,0.318848,-0.958008,-0.158203
1480605916661823,0.321289,-0.945801,-0.158203
1480605916665836,0.330566,-0.931152,-0.156738
1480605916696415,0.334473,-0.931641,-0.160645
1480605916706442,0.331055,-0.942383,-0.163086
1480605916725994,0.324707,-0.957031,-0.167969
1480605916742537,0.320801,-0.960938,-0.161621
1480605916773118,0.325684,-0.942383,-0.164063
1480605916779136,0.32666,-0.929199,-0.166992
1480605916802196,0.331055,-0.94043,-0.157715
1480605916839796,0.32959,-0.95752,-0.163086
1480605916842303,0.322754,-0.961426,-0.163086
1480605916869375,0.32666,-0.954102,-0.160156
1480605916893940,0.328125,-0.94043,-0.166016
1480605916898953,0.32666,-0.931641,-0.16748
1480605916931541,0.327148,-0.945313,-0.167969
1480605916952094,0.32666,-0.955078,-0.169434
1480605916959114,0.319336,-0.958008,-0.158691
1480605916982677,0.322266,-0.944336,-0.162109
1480605917006239,0.328125,-0.938477,-0.163086
1480605917010249,0.33252,-0.9375,-0.166016
1480605917028297,0.32666,-0.952637,-0.162598
1480605917049354,0.322266,-0.954102,-0.164551
1480605917072416,0.321289,-0.952148,-0.165527
1480605917087956,0.32666,-0.937988,-0.157227
1480605917118036,0.32959,-0.937012,-0.161133
1480605917160650,0.32666,-0.944824,-0.164551
1480605917171679,0.325684,-0.95752,-0.165039
1480605917176692,0.320801,-0.958984,-0.158203
1480605917193236,0.32666,-0.94873,-0.161621
1480605917212788,0.331543,-0.936523,-0.16748
1480605917235357,0.326172,-0.939941,-0.160645
1480605917257909,0.325195,-0.953125,-0.161133
1480605917272948,0.32373,-0.955566,-0.166016
1480605917304031,0.316895,-0.95459,-0.156738
1480605917310047,0.329102,-0.939941,-0.155762
1480605917332607,0.33252,-0.9375,-0.161133
1480605917347650,0.327637,-0.947266,-0.170898
1480605917370708,0.325684,-0.956543,-0.160645
1480605917395775,0.325195,-0.956055,-0.167969
1480605917407807,0.331055,-0.951172,-0.158203
1480605917437887,0.323242,-0.941406,-0.162598
1480605917452927,0.329102,-0.932617,-0.159668
1480605917467968,0.324219,-0.942383,-0.159668
1480605917491531,0.325195,-0.958008,-0.163086
1480605917516096,0.326172,-0.961914,-0.162598
1480605917535146,0.325684,-0.946777,-0.160156
1480605917550187,0.328125,-0.938477,-0.162598
1480605917572746,0.325195,-0.94043,-0.165527
1480605917587786,0.319336,-0.95752,-0.159668
1480605917610345,0.319336,-0.955078,-0.156738
1480605917634410,0.324219,-0.945313,-0.166504
1480605917673514,0.327148,-0.935059,-0.166016
1480605917677526,0.336426,-0.934082,-0.165039
1480605917718132,0.327637,-0.952148,-0.164551
1480605917720138,0.325195,-0.963379,-0.163086
1480605917730166,0.321777,-0.95459,-0.159668
1480605917755732,0.327148,-0.937988,-0.160645
1480605917775285,0.331055,-0.9375,-0.157715
1480605917790325,0.328125,-0.941406,-0.164063
1480605917812886,0.32666,-0.952637,-0.166992
1480605917827925,0.320801,-0.962402,-0.160645
1480605917849983,0.318848,-0.945313,-0.155762
1480605917883071,0.326172,-0.932129,-0.158203
1480605917887583,0.325195,-0.937012,-0.170898
1480605917910143,0.325195,-0.948242,-0.16748
1480605917949749,0.318848,-0.960938,-0.163086
1480605917952256,0.320313,-0.95752,-0.163574
1480605917970304,0.325684,-0.941895,-0.159668
1480605917992863,0.32959,-0.935547,-0.161621
1480605918010410,0.333008,-0.936035,-0.164063
1480605918030466,0.327637,-0.955078,-0.165527
1480605918052522,0.320313,-0.958496,-0.158691
1480605918070570,0.321289,-0.955078,-0.164551
1480605918091627,0.327637,-0.9375,-0.158691
1480605918112683,0.329102,-0.936035,-0.161133
1480605918129226,0.331543,-0.941406,-0.162109
1480605918157802,0.325195,-0.958008,-0.15918
1480605918182368,0.320801,-0.957031,-0.165527
1480605918189387,0.325195,-0.943359,-0.160156
1480605918228491,0.328125,-0.937012,-0.166992
1480605918233003,0.332031,-0.936523,-0.160645
1480605918249046,0.324219,-0.95166,-0.157227
1480605918277621,0.321777,-0.958496,-0.161621
1480605918292661,0.324707,-0.958008,-0.162598
1480605918316725,0.326172,-0.941406,-0.157715
1480605918330261,0.326172,-0.933594,-0.157227
1480605918352822,0.331543,-0.940918,-0.166992
1480605918370869,0.320313,-0.958496,-0.161133
1480605918393931,0.32373,-0.957031,-0.15918
1480605918412982,0.331543,-0.949707,-0.160645
1480605918436544,0.330078,-0.934082,-0.164063
1480605918457600,0.331543,-0.929199,-0.161133
1480605918505228,0.329102,-0.952637,-0.162109
1480605918507733,0.324707,-0.962402,-0.158691
1480605918513251,0.318848,-0.962891,-0.15625
1480605918532800,0.325195,-0.949219,-0.160645
1480605918550848,0.322754,-0.93457,-0.162598
1480605918570400,0.327637,-0.941406,-0.165527
1480605918599979,0.323242,-0.958984,-0.164551
1480605918611008,0.32666,-0.958496,-0.164063
1480605918630059,0.327637,-0.948242,-0.164551
1480605918652619,0.327637,-0.93457,-0.163086
1480605918685706,0.329102,-0.936035,-0.165039
1480605918691723,0.333008,-0.95166,-0.163574
1480605918712780,0.32666,-0.959473,-0.157227
1480605918735340,0.324707,-0.95166,-0.15918
1480605918750379,0.32666,-0.943848,-0.166992
1480605918783467,0.32373,-0.934082,-0.166016
1480605918794997,0.32959,-0.941895,-0.160645
1480605918817557,0.32373,-0.95459,-0.162598
1480605918834103,0.320313,-0.961914,-0.161621
1480605918864182,0.322266,-0.949219,-0.15918
1480605918870197,0.327637,-0.932617,-0.161621
1480605918900278,0.331055,-0.935059,-0.162598
1480605918926850,0.322754,-0.950684,-0.164063
1480605918931862,0.320313,-0.960449,-0.163086
1480605918968960,0.318359,-0.955078,-0.162598
1480605918974978,0.324707,-0.944824,-0.163086
1480605918998038,0.330566,-0.9375,-0.15918
1480605919016086,0.331543,-0.938477,-0.164551
1480605919050677,0.326172,-0.948242,-0.161133
1480605919060705,0.318848,-0.956543,-0.160156
1480605919072736,0.32373,-0.955078,-0.163574
1480605919095296,0.326172,-0.938477,-0.16748
1480605919111843,0.328125,-0.937012,-0.165527
1480605919135403,0.331543,-0.941895,-0.162109
1480605919157964,0.326172,-0.957031,-0.171387
1480605919187542,0.322266,-0.956543,-0.168945
1480605919201579,0.324707,-0.945801,-0.160645
1480605919215115,0.324707,-0.935547,-0.164551
1480605919241686,0.330078,-0.936035,-0.166992
1480605919252715,0.32666,-0.956055,-0.165527
1480605919275274,0.320313,-0.956055,-0.16748
1480605919291819,0.324707,-0.952148,-0.163574
1480605919323403,0.325684,-0.939941,-0.164551
1480605919336939,0.328613,-0.937988,-0.171875
1480605919351979,0.327637,-0.947266,-0.16748
1480605919372534,0.322754,-0.947266,-0.160156
1480605919395096,0.320313,-0.950684,-0.160645
1480605919411638,0.328613,-0.949219,-0.159668
1480605919435702,0.33252,-0.937988,-0.17041
1480605919455254,0.329102,-0.943848,-0.166016
1480605919481323,0.327637,-0.950684,-0.166504
1480605919492854,0.320313,-0.954102,-0.164063
1480605919515414,0.322754,-0.950195,-0.166016
1480605919532962,0.324707,-0.936523,-0.16748
1480605919560032,0.329102,-0.92627,-0.162109
1480605919575072,0.33252,-0.9375,-0.17041
1480605919593120,0.32373,-0.95166,-0.165527
1480605919612673,0.327148,-0.961914,-0.164551
1480605919636736,0.324707,-0.949707,-0.162598
1480605919653280,0.327637,-0.933594,-0.165039
1480605919673334,0.332031,-0.933105,-0.166992
1480605919696897,0.326172,-0.952637,-0.165039
1480605919713441,0.319824,-0.956543,-0.167969
1480605919736502,0.319824,-0.95166,-0.169922
1480605919758060,0.326172,-0.941895,-0.168457
1480605919777612,0.326172,-0.935547,-0.169434
1480605919800172,0.32959,-0.94043,-0.171875
1480605919815212,0.321777,-0.953613,-0.169434
1480605919833260,0.321289,-0.956543,-0.166504
1480605919852811,0.323242,-0.947754,-0.171387
1480605919875372,0.327148,-0.937988,-0.17334
1480605919892918,0.330566,-0.938477,-0.171875
1480605919913475,0.330078,-0.944336,-0.165039
1480605919952075,0.327148,-0.953613,-0.162109
1480605919960097,0.324219,-0.950195,-0.168945
1480605919972631,0.326172,-0.943359,-0.168945
1480605919995192,0.330078,-0.930176,-0.169434
1480605920013741,0.327148,-0.936523,-0.172852
1480605920035799,0.328613,-0.954102,-0.174316
1480605920056854,0.320313,-0.955566,-0.170898
1480605920080419,0.32373,-0.947754,-0.165039
1480605920108993,0.32959,-0.9375,-0.169922
1480605920116514,0.331543,-0.931641,-0.175293
1480605920133057,0.331055,-0.945313,-0.171387
1480605920161634,0.32373,-0.950195,-0.165039
1480605920175169,0.322266,-0.952148,-0.174316
1480605920193217,0.329102,-0.941895,-0.173828
1480605920214775,0.328125,-0.936523,-0.16748
1480605920242849,0.330566,-0.933105,-0.173828
1480605920267415,0.325195,-0.944336,-0.169922
1480605920273932,0.324219,-0.954102,-0.168945
1480605920311532,0.330078,-0.95459,-0.172363
1480605920317548,0.333496,-0.941406,-0.175293
1480605920336097,0.327148,-0.938965,-0.173828
1480605920355148,0.325684,-0.944336,-0.169434
1480605920377708,0.317871,-0.953125,-0.166504
1480605920395757,0.322754,-0.95752,-0.164063
1480605920422827,0.325684,-0.942871,-0.172363
1480605920437868,0.333008,-0.936523,-0.178223
1480605920455416,0.333008,-0.935059,-0.186035
1480605920482487,0.330566,-0.949707,-0.173828
1480605920498030,0.322266,-0.959961,-0.170898
1480605920520087,0.324219,-0.947266,-0.170898
1480605920535127,0.326172,-0.93457,-0.166016
1480605920557687,0.330078,-0.937012,-0.16748
1480605920588769,0.330078,-0.943359,-0.175293
1480605920595289,0.324707,-0.954102,-0.172363
1480605920619351,0.321777,-0.958496,-0.175781
1480605920637903,0.323242,-0.949707,-0.169922
1480605920656450,0.324707,-0.936035,-0.172363
1480605920677505,0.32959,-0.928223,-0.172363
1480605920695554,0.32373,-0.946777,-0.169434
1480605920715106,0.319336,-0.960938,-0.17041
1480605920737666,0.321777,-0.955566,-0.175293
1480605920756716,0.328613,-0.941406,-0.17334
1480605920775265,0.333496,-0.928711,-0.172852
1480605920797827,0.330078,-0.94043,-0.166504
1480605920822892,0.328613,-0.950684,-0.165039
1480605920836930,0.321289,-0.955078,-0.175293
1480605920865508,0.323242,-0.94873,-0.169922
1480605920875533,0.330566,-0.936523,-0.169922
1480605920896590,0.332031,-0.932129,-0.169922
1480605920917645,0.328613,-0.943848,-0.17627
1480605920936696,0.318848,-0.954102,-0.174316
1480605920955244,0.324707,-0.953125,-0.166016
1480605920977806,0.32666,-0.938477,-0.166504
1480605920995853,0.32959,-0.935547,-0.17334
1480605921016407,0.330078,-0.938477,-0.172852
1480605921037464,0.324219,-0.958984,-0.168457
1480605921055512,0.319824,-0.957031,-0.166016
1480605921077068,0.322266,-0.945801,-0.165527
1480605921097624,0.331055,-0.935059,-0.162109
1480605921115672,0.339355,-0.940918,-0.168945
1480605921144247,0.331543,-0.95752,-0.17627
1480605921157783,0.319336,-0.958008,-0.16748
1480605921188866,0.318359,-0.95459,-0.166016
1480605921196888,0.325684,-0.9375,-0.165527
1480605921217943,0.330078,-0.929688,-0.169434
1480605921235490,0.331543,-0.932129,-0.171387
1480605921258050,0.332031,-0.95166,-0.166016
1480605921279109,0.323242,-0.959473,-0.168457
1480605921303171,0.327637,-0.952637,-0.175781
1480605921318210,0.32959,-0.940918,-0.162109
1480605921337766,0.330078,-0.92334,-0.165039
1480605921355810,0.332031,-0.939453,-0.172363
1480605921378371,0.324219,-0.95752,-0.166504
1480605921397927,0.319824,-0.956543,-0.163574
1480605921424994,0.324219,-0.947754,-0.166992
1480605921460087,0.326172,-0.935059,-0.168945
1480605921466605,0.326172,-0.936035,-0.166992
1480605921475629,0.324707,-0.951172,-0.173828
1480605921507213,0.323242,-0.962402,-0.171387
1480605921519245,0.32373,-0.952637,-0.168945
1480605921550829,0.323242,-0.937012,-0.169922
1480605921558349,0.331543,-0.930664,-0.167969
1480605921577399,0.328613,-0.940918,-0.166992
1480605921599962,0.324707,-0.95459,-0.164551
1480605921618007,0.325195,-0.955078,-0.170898
1480605921639064,0.327148,-0.940918,-0.165527
1480605921656109,0.33252,-0.935059,-0.172363
1480605921679174,0.331055,-0.9375,-0.160645
1480605921700728,0.32959,-0.951172,-0.165527
1480605921715769,0.322754,-0.95752,-0.16748
1480605921745347,0.324707,-0.959961,-0.16748
1480605921757879,0.327148,-0.943359,-0.167969
1480605921782946,0.332031,-0.935059,-0.164551
1480605921797989,0.328613,-0.9375,-0.161621
1480605921817538,0.325684,-0.954102,-0.164063
1480605921840099,0.322754,-0.958984,-0.167969
1480605921858146,0.321777,-0.956543,-0.166504
1480605921880708,0.325195,-0.934082,-0.164551
1480605921900259,0.327637,-0.929688,-0.163574
1480605921918307,0.330078,-0.943359,-0.160156
1480605921937860,0.327637,-0.960938,-0.166504
1480605921960418,0.320801,-0.959473,-0.166992
1480605921979471,0.32959,-0.947754,-0.16748
1480605922000526,0.326172,-0.937988,-0.166504
1480605922024088,0.322754,-0.936035,-0.166016
1480605922045647,0.326172,-0.950684,-0.167969
1480605922059182,0.326172,-0.95166,-0.162109
1480605922080239,0.323242,-0.950195,-0.163086
1480605922104301,0.32666,-0.933105,-0.167969
1480605922119342,0.330078,-0.935547,-0.171387
1480605922140398,0.333008,-0.945313,-0.165039
1480605922158946,0.324707,-0.955566,-0.163574
1480605922179510,0.321777,-0.953125,-0.164551
1480605922207576,0.32666,-0.943359,-0.163086
1480605922233144,0.327148,-0.936523,-0.161133
1480605922239160,0.328613,-0.940918,-0.169434
1480605922260216,0.328613,-0.956543,-0.166016
1480605922279269,0.321777,-0.958984,-0.162598
1480605922300825,0.322266,-0.94873,-0.165527
1480605922321880,0.330078,-0.939941,-0.162109
1480605922338926,0.333984,-0.936035,-0.160156
1480605922360483,0.326172,-0.949707,-0.166016
1480605922380039,0.322266,-0.959961,-0.166504
1480605922398083,0.324707,-0.958008,-0.165527
1480605922421144,0.322754,-0.943848,-0.163086
1480605922440195,0.330078,-0.93457,-0.163574
1480605922462757,0.328125,-0.938965,-0.160156
1480605922481304,0.329102,-0.949707,-0.161621
1480605922500355,0.321289,-0.957031,-0.162109
1480605922517902,0.322754,-0.955566,-0.157715
1480605922540462,0.327148,-0.941406,-0.168457
1480605922560013,0.333984,-0.938965,-0.163086
1480605922578563,0.328613,-0.943359,-0.160645
1480605922602127,0.322754,-0.952148,-0.165039
1480605922623182,0.324219,-0.958496,-0.166992
1480605922639224,0.325684,-0.947754,-0.160645
1480605922666798,0.330078,-0.937988,-0.166016
1480605922680336,0.328125,-0.936523,-0.166016
1480605922698884,0.325684,-0.949219,-0.164063
1480605922720440,0.324707,-0.960449,-0.163574
1480605922747512,0.324219,-0.956543,-0.166504
1480605922764057,0.320313,-0.937988,-0.163086
1480605922788120,0.333496,-0.925781,-0.163086
1480605922807673,0.333984,-0.943359,-0.165527
1480605922818201,0.324219,-0.959961,-0.161133
1480605922855299,0.326172,-0.963379,-0.162109
1480605922860314,0.325195,-0.953125,-0.164063
1480605922877860,0.326172,-0.942383,-0.164063
1480605922900420,0.328613,-0.93457,-0.157227
1480605922929000,0.327148,-0.944336,-0.158203
1480605922945540,0.32373,-0.95459,-0.15918
1480605922960579,0.325195,-0.957031,-0.160645
1480605922981636,0.326172,-0.941406,-0.166016
1480605922998180,0.333984,-0.937988,-0.164063
1480605923020739,0.331543,-0.940918,-0.160645
1480605923041796,0.325195,-0.95459,-0.15918
1480605923087417,0.320801,-0.960449,-0.164551
1480605923089423,0.320313,-0.95166,-0.158691
1480605923108974,0.325195,-0.937988,-0.15918
1480605923117998,0.327148,-0.936035,-0.163086
1480605923140558,0.324219,-0.947266,-0.163086
1480605923167631,0.320801,-0.955566,-0.158203
1480605923178159,0.324219,-0.957031,-0.162109
1480605923222276,0.325684,-0.943848,-0.158203
1480605923225284,0.331055,-0.9375,-0.15918
1480605923244336,0.330078,-0.946289,-0.165039
1480605923267897,0.326172,-0.949219,-0.16748
1480605923282937,0.324707,-0.95752,-0.158203
1480605923303993,0.322754,-0.955078,-0.159668
1480605923320537,0.32666,-0.935547,-0.15625
1480605923343097,0.332031,-0.936523,-0.155762
1480605923362651,0.331055,-0.946777,-0.160645
1480605923409775,0.324219,-0.959473,-0.157715
1480605923411279,0.322266,-0.957031,-0.163574
1480605923422809,0.326172,-0.946289,-0.163086
1480605923455396,0.327637,-0.93457,-0.160645
1480605923462916,0.329102,-0.94043,-0.163086
1480605923482968,0.329102,-0.952148,-0.166016
1480605923500516,0.325195,-0.959473,-0.159668
1480605923523076,0.320801,-0.958008,-0.166504
1480605923542628,0.32959,-0.938477,-0.160645
1480605923565188,0.330566,-0.933594,-0.162598
1480605923598778,0.330078,-0.939941,-0.160156
1480605923602790,0.322754,-0.956055,-0.156738
1480605923642393,0.323242,-0.95752,-0.16748
1480605923647908,0.327148,-0.953125,-0.165039
1480605923688014,0.328125,-0.94043,-0.152344
1480605923690020,0.33252,-0.93457,-0.160645
1480605923733134,0.326172,-0.941406,-0.155762
1480605923735140,0.324707,-0.956055,-0.162109
1480605923741157,0.328613,-0.962891,-0.163086
1480605923777754,0.328125,-0.952637,-0.165527
1480605923783268,0.330078,-0.937988,-0.169434
1480605923799812,0.326172,-0.944336,-0.160645
1480605923830394,0.320801,-0.952637,-0.157227
1480605923842926,0.319824,-0.959473,-0.160156
1480605923860976,0.322266,-0.946289,-0.159668
1480605923883034,0.32666,-0.937012,-0.163086
1480605923903588,0.333496,-0.931641,-0.160156
1480605923921135,0.328125,-0.946289,-0.165039
1480605923942191,0.325684,-0.962402,-0.160156
1480605923964751,0.324707,-0.95459,-0.160645
1480605924011375,0.327637,-0.944824,-0.158691
1480605924016390,0.330566,-0.93457,-0.159668
1480605924023908,0.328613,-0.943848,-0.167969
1480605924039951,0.32666,-0.953125,-0.166504
1480605924062513,0.322754,-0.964355,-0.162598
1480605924083566,0.322754,-0.953125,-0.15625
1480605924107130,0.325195,-0.9375,-0.162109
1480605924122175,0.329102,-0.93457,-0.166992
1480605924150746,0.324707,-0.945313,-0.162109
1480605924173306,0.322754,-0.960938,-0.162109
1480605924182329,0.319336,-0.961914,-0.163574
1480605924204892,0.325684,-0.946289,-0.161133
1480605924242991,0.332031,-0.935059,-0.162598
1480605924246502,0.33252,-0.935059,-0.163574
1480605924287610,0.328125,-0.952637,-0.164551
1480605924290117,0.324219,-0.960449,-0.15918
1480605924303151,0.321289,-0.953125,-0.160645
1480605924325210,0.325195,-0.939453,-0.158691
1480605924339247,0.330566,-0.93457,-0.162109
1480605924362310,0.329102,-0.946777,-0.167969
1480605924384869,0.324707,-0.958008,-0.160156
1480605924407429,0.323242,-0.961426,-0.159668
1480605924422469,0.324219,-0.949219,-0.161133
1480605924451546,0.327148,-0.934082,-0.166504
1480605924473103,0.324219,-0.936523,-0.163086
1480605924482127,0.32666,-0.947754,-0.163086
1480605924519728,0.324219,-0.958984,-0.15625
1480605924522234,0.320801,-0.953613,-0.165039
1480605924557327,0.32373,-0.939941,-0.163086
1480605924564848,0.333496,-0.936035,-0.161133
1480605924586405,0.334961,-0.943359,-0.167969
1480605924602447,0.327637,-0.956543,-0.164063
1480605924625007,0.320313,-0.95166,-0.157715
1480605924639045,0.324219,-0.938477,-0.163086
1480605924662114,0.330566,-0.938965,-0.164551
1480605924685668,0.327637,-0.9375,-0.167969
1480605924705722,0.325684,-0.95459,-0.167969
1480605924723269,0.318848,-0.95459,-0.17041
1480605924750841,0.321777,-0.955078,-0.160645
1480605924765382,0.325684,-0.943848,-0.165039
1480605924799472,0.331055,-0.935059,-0.165039
1480605924804986,0.33252,-0.94043,-0.169434
1480605924844592,0.330566,-0.951172,-0.166504
1480605924849104,0.32959,-0.956055,-0.161133
1480605924864645,0.327148,-0.950195,-0.17334
1480605924885701,0.32959,-0.9375,-0.164551
1480605924902245,0.328613,-0.925293,-0.16748
1480605924924805,0.32959,-0.946777,-0.160645
1480605924945865,0.325684,-0.959961,-0.167969
1480605924962405,0.318359,-0.958496,-0.166992
1480605924985471,0.324219,-0.946777,-0.166504
1480605925006021,0.328125,-0.933105,-0.167969
1480605925022064,0.325195,-0.936523,-0.168945
1480605925065681,0.324707,-0.952637,-0.160645
1480605925076709,0.320313,-0.955566,-0.164063
1480605925082224,0.319824,-0.949219,-0.171875
1480605925120827,0.324219,-0.939941,-0.170898
1480605925125839,0.330078,-0.933594,-0.172363
1480605925143386,0.330078,-0.946777,-0.166504
1480605925165446,0.325684,-0.957031,-0.17041
1480605925195026,0.324707,-0.952148,-0.168945
1480605925210565,0.327148,-0.941895,-0.167969
1480605925225605,0.326172,-0.935547,-0.166504
1480605925263707,0.325684,-0.938477,-0.165527
1480605925268218,0.324219,-0.947754,-0.16748
1480605925284762,0.319336,-0.956543,-0.162109
1480605925307323,0.324219,-0.952148,-0.170898
1480605925345428,0.32959,-0.941406,-0.171387
1480605925347930,0.332031,-0.936523,-0.168457
1480605925367483,0.332031,-0.943359,-0.17041
1480605925389541,0.32373,-0.951172,-0.167969
1480605925404582,0.320801,-0.95752,-0.168945
1480605925434661,0.321777,-0.946289,-0.17334
1480605925441681,0.33252,-0.936035,-0.167969
1480605925473264,0.333984,-0.938477,-0.167969
1480605925487305,0.328613,-0.952637,-0.169434
1480605925501338,0.322266,-0.949707,-0.171387
1480605925538939,0.327148,-0.947754,-0.171387
1480605925547461,0.328613,-0.938965,-0.172363
1480605925569520,0.330566,-0.936035,-0.174805
1480605925584560,0.330566,-0.945801,-0.179199
1480605925607120,0.322754,-0.957031,-0.174316
1480605925629680,0.323242,-0.953613,-0.166504
1480605925644720,0.318848,-0.942871,-0.168457
1480605925667281,0.322754,-0.933105,-0.168945
1480605925687835,0.330078,-0.932617,-0.172363
1480605925706885,0.327637,-0.945801,-0.172852
1480605925728449,0.32373,-0.955078,-0.175293
1480605925747996,0.32373,-0.956543,-0.182129
1480605925773062,0.330566,-0.941406,-0.174805
1480605925794619,0.33252,-0.92627,-0.169922
1480605925817179,0.334473,-0.935547,-0.175293
1480605925825201,0.332031,-0.953125,-0.170898
1480605925847760,0.319824,-0.956543,-0.178223
1480605925868315,0.32373,-0.95166,-0.174805
1480605925884859,0.328613,-0.932617,-0.173828
1480605925907420,0.33252,-0.931641,-0.165527
1480605925929979,0.327148,-0.9375,-0.170898
1480605925946027,0.328613,-0.956543,-0.172852
1480605925974599,0.321289,-0.955566,-0.171387
1480605925988134,0.326172,-0.945801,-0.174316
1480605926004678,0.330566,-0.936523,-0.174805
1480605926027238,0.334473,-0.937988,-0.178711
1480605926049798,0.32959,-0.946777,-0.178223
1480605926064337,0.327637,-0.95459,-0.165039
1480605926096423,0.323242,-0.949707,-0.167969
1480605926126502,0.325195,-0.935547,-0.168945
1480605926138534,0.330566,-0.932129,-0.175293
1480605926147056,0.331543,-0.939453,-0.174316
1480605926170118,0.327148,-0.95166,-0.179199
1480605926184656,0.328125,-0.958496,-0.174805
1480605926207217,0.323242,-0.942871,-0.177246
1480605926229777,0.330078,-0.931152,-0.175781
1480605926252337,0.325684,-0.935059,-0.175293
1480605926267377,0.325684,-0.95459,-0.177246
1480605926289938,0.324219,-0.95752,-0.169434
1480605926303975,0.322754,-0.947754,-0.164551
1480605926327538,0.325684,-0.931152,-0.171875
1480605926373660,0.331543,-0.935059,-0.175293
1480605926378679,0.331055,-0.943848,-0.175781
1480605926402236,0.328125,-0.961426,-0.173828
1480605926409756,0.321777,-0.95752,-0.17334
1480605926424294,0.324707,-0.942383,-0.164063
1480605926447356,0.328613,-0.931641,-0.169922
1480605926470417,0.329102,-0.931641,-0.163086
1480605926483953,0.330566,-0.943848,-0.17334
1480605926507014,0.328125,-0.956055,-0.171875
1480605926544617,0.330078,-0.953613,-0.173828
1480605926547121,0.32959,-0.938477,-0.172852
1480605926567174,0.33252,-0.933105,-0.172363
1480605926605277,0.32959,-0.931641,-0.168457
1480605926650396,0.327637,-0.953613,-0.174805
1480605926652902,0.323242,-0.95752,-0.17334
1480605926663430,0.325195,-0.948242,-0.17334
1480605926670449,0.330566,-0.937012,-0.168457
1480605926687495,0.330078,-0.936035,-0.172852
1480605926717074,0.32666,-0.944824,-0.174805
1480605926730609,0.324707,-0.957031,-0.165527
1480605926747154,0.321777,-0.95459,-0.171387
1480605926769713,0.32666,-0.939941,-0.176758
1480605926792774,0.332031,-0.936523,-0.17334
1480605926807314,0.334473,-0.937988,-0.172852
1480605926830877,0.327148,-0.945313,-0.175293
1480605926850428,0.325195,-0.95752,-0.171387
1480605926881008,0.326172,-0.947754,-0.170898
1480605926928136,0.326172,-0.937012,-0.17334
1480605926930641,0.332031,-0.935059,-0.168457
1480605926951196,0.325195,-0.95166,-0.171387
1480605926970748,0.321289,-0.953125,-0.171387
1480605926986791,0.330566,-0.946289,-0.169922
1480605927009852,0.332031,-0.936035,-0.168945
1480605927030407,0.330566,-0.936035,-0.168457
1480605927047452,0.324707,-0.940918,-0.171875
1480605927069511,0.326172,-0.949707,-0.171875
1480605927092071,0.32666,-0.953125,-0.170898
1480605927108113,0.329102,-0.944336,-0.172363
1480605927161256,0.329102,-0.945313,-0.173828
1480605927167270,0.325684,-0.944824,-0.168457
1480605927169777,0.324219,-0.950684,-0.165039
1480605927204871,0.320801,-0.952637,-0.16748
1480605927212391,0.327637,-0.942383,-0.16748
1480605927227431,0.331543,-0.933594,-0.171387
1480605927250492,0.331543,-0.931641,-0.167969
1480605927272050,0.332031,-0.947266,-0.171875
1480605927286587,0.326172,-0.962891,-0.166992
1480605927317169,0.32666,-0.951172,-0.164063
1480605927333213,0.330566,-0.933105,-0.164063
1480605927346749,0.33252,-0.936035,-0.170898
1480605927376828,0.331055,-0.943359,-0.171875
1480605927392370,0.328125,-0.959473,-0.171875
1480605927438492,0.322266,-0.958984,-0.164551
1480605927443505,0.325195,-0.945801,-0.168457
1480605927452028,0.32666,-0.932129,-0.166504
1480605927467068,0.32959,-0.931641,-0.172852
1480605927489629,0.327148,-0.950684,-0.173828
1480605927520210,0.321289,-0.95752,-0.168945
1480605927533246,0.324219,-0.957031,-0.165039
1480605927549788,0.328613,-0.939941,-0.168457
1480605927573352,0.33252,-0.932617,-0.165527
1480605927593404,0.329102,-0.936523,-0.164551
1480605927617469,0.327148,-0.952148,-0.164063
1480605927662589,0.323242,-0.958984,-0.169922
1480605927665095,0.326172,-0.950195,-0.166992
1480605927671111,0.333008,-0.938477,-0.161133
1480605927692167,0.333984,-0.929688,-0.164551
1480605927716232,0.331543,-0.943359,-0.166992
1480605927730770,0.323242,-0.95752,-0.169434
1480605927752828,0.32373,-0.955566,-0.171387
1480605927772882,0.324707,-0.946777,-0.166992
1480605927806973,0.328613,-0.926758,-0.161133
1480605927812487,0.326172,-0.933594,-0.165039
1480605927850087,0.32666,-0.947754,-0.166992
1480605927852594,0.319336,-0.956543,-0.168945
1480605927873149,0.328125,-0.958496,-0.166504
1480605927894711,0.325684,-0.940918,-0.16748
1480605927941330,0.326172,-0.939453,-0.166504
1480605927946344,0.32373,-0.947266,-0.157227
1480605927953362,0.320313,-0.955566,-0.164063
1480605927992968,0.32373,-0.952637,-0.160645
1480605927995475,0.327637,-0.94043,-0.170898
1480605928021042,0.331543,-0.932129,-0.161133
1480605928039592,0.333984,-0.94043,-0.16748
1480605928058141,0.331543,-0.95752,-0.167969
1480605928082204,0.325684,-0.959473,-0.168457
1480605928089725,0.320801,-0.951172,-0.161133
1480605928112786,0.330078,-0.936035,-0.157715
1480605928134852,0.328613,-0.935059,-0.157715
1480605928148882,0.327148,-0.939941,-0.162598
1480605928173949,0.321289,-0.958008,-0.168457
1480605928218567,0.325195,-0.958496,-0.166016
1480605928223079,0.325684,-0.944824,-0.156738
1480605928256168,0.327148,-0.935059,-0.162598
1480605928269704,0.329102,-0.939453,-0.168945
1480605928272210,0.32373,-0.949219,-0.162598
1480605928300786,0.320313,-0.95752,-0.166992
1480605928315828,0.320801,-0.956055,-0.163574
1480605928329364,0.327637,-0.942383,-0.160645
1480605928352925,0.334961,-0.9375,-0.161621
1480605928374483,0.333984,-0.942383,-0.158691
1480605928389523,0.325195,-0.953613,-0.158203
1480605928412084,0.323242,-0.959961,-0.160645
1480605928442164,0.321777,-0.949219,-0.168457
1480605928449182,0.325684,-0.938965,-0.165039
1480605928472243,0.334473,-0.933594,-0.161621
1480605928495305,0.33252,-0.945313,-0.161133
1480605928515858,0.324707,-0.955566,-0.163574
1480605928540424,0.32373,-0.955078,-0.15918
1480605928554963,0.325684,-0.942871,-0.156738
1480605928584542,0.331055,-0.935059,-0.168945
1480605928592062,0.334473,-0.937988,-0.15625
1480605928631166,0.32959,-0.953125,-0.164551
1480605928635683,0.320801,-0.956055,-0.166016
1480605928652221,0.324219,-0.95166,-0.158203
1480605928675283,0.328125,-0.939453,-0.163574
1480605928703357,0.328125,-0.936035,-0.15918
1480605928727422,0.326172,-0.947754,-0.161133
1480605928734941,0.324219,-0.95752,-0.160645
1480605928773043,0.327148,-0.965332,-0.162109
1480605928775048,0.325684,-0.945801,-0.159668
1480605928794602,0.325195,-0.924805,-0.162109
1480605928832702,0.329102,-0.937012,-0.158203
1480605928835209,0.329102,-0.954102,-0.164551
1480605928862782,0.322754,-0.961914,-0.161133
1480605928875816,0.325195,-0.953613,-0.162109
1480605928892861,0.328125,-0.941406,-0.167969
1480605928914921,0.322754,-0.940918,-0.164063
1480605928936980,0.326172,-0.946777,-0.158203
1480605928960541,0.32373,-0.960449,-0.159668
1480605929005160,0.325684,-0.956055,-0.155762
1480605929007667,0.324219,-0.939941,-0.15918
1480605929014685,0.331543,-0.934082,-0.163574
1480605929042259,0.335938,-0.936035,-0.160645
1480605929057299,0.323242,-0.958496,-0.160645
1480605929071336,0.320313,-0.960449,-0.159668
1480605929094899,0.322754,-0.952637,-0.158691
1480605929117960,0.328613,-0.940918,-0.158203
1480605929131498,0.334961,-0.936035,-0.160156
1480605929154557,0.334961,-0.943848,-0.161133
1480605929183133,0.323242,-0.954102,-0.158691
1480605929191658,0.322754,-0.958008,-0.163574
1480605929225748,0.321289,-0.942871,-0.160645
1480605929237278,0.324707,-0.936523,-0.166992
1480605929251317,0.327148,-0.939453,-0.16748
1480605929274878,0.321289,-0.953125,-0.160645
1480605929303454,0.322266,-0.961914,-0.165039
1480605929319497,0.327637,-0.952148,-0.166504
1480605929334537,0.329102,-0.941895,-0.163086
1480605929373641,0.332031,-0.932617,-0.166504
1480605929378655,0.328125,-0.937988,-0.15918
1480605929394703,0.32373,-0.955566,-0.163086
1480605929417257,0.320313,-0.961426,-0.161133
1480605929445833,0.322754,-0.953613,-0.163574
1480605929455359,0.328613,-0.938965,-0.166016
1480605929477417,0.334473,-0.9375,-0.161621
1480605929497972,0.326172,-0.948242,-0.164063
1480605929514516,0.323242,-0.956055,-0.164063
1480605929537075,0.317383,-0.953125,-0.158203
1480605929558131,0.324707,-0.945801,-0.159668
1480605929574676,0.327637,-0.937988,-0.164063
1480605929598238,0.326172,-0.936035,-0.161621
1480605929618291,0.321777,-0.952637,-0.161133
1480605929649875,0.322754,-0.961914,-0.163086
1480605929657395,0.325684,-0.952148,-0.162598
1480605929685972,0.328125,-0.94043,-0.163574
1480605929694999,0.331055,-0.937012,-0.166504
1480605929733598,0.325195,-0.947266,-0.161133
1480605929739615,0.324219,-0.950195,-0.15625
1480605929754654,0.323242,-0.94873,-0.162109
1480605929784735,0.33252,-0.946289,-0.164063
1480605929798273,0.331543,-0.943848,-0.166016
1480605929814815,0.331543,-0.942871,-0.163574
1480605929837877,0.324219,-0.958008,-0.162109
1480605929858430,0.318359,-0.965332,-0.164063
1480605929874473,0.318848,-0.955566,-0.158203
1480605929897033,0.329102,-0.935547,-0.155273
1480605929920094,0.331543,-0.929199,-0.162598
1480605929934633,0.331055,-0.939453,-0.164063
1480605929957694,0.324219,-0.953613,-0.159668
1480605929979753,0.324707,-0.958984,-0.166992
1480605929994794,0.325684,-0.955078,-0.167969
1480605930017353,0.329102,-0.933105,-0.168457
1480605930040414,0.330078,-0.936035,-0.163574
1480605930061473,0.325195,-0.949219,-0.166016
1480605930077516,0.320313,-0.958984,-0.158203
1480605930107092,0.322266,-0.956055,-0.159668
1480605930114110,0.323242,-0.940918,-0.163086
1480605930137172,0.325684,-0.933105,-0.15918
1480605930159732,0.324219,-0.941406,-0.164063
1480605930174270,0.323242,-0.958496,-0.162598
1480605930199337,0.318848,-0.959473,-0.158691
1480605930219892,0.324707,-0.95166,-0.165527
1480605930242452,0.324707,-0.93457,-0.160645
1480605930256991,0.32959,-0.937988,-0.160156
1480605930287070,0.327148,-0.947754,-0.164063
1480605930294093,0.323242,-0.957031,-0.158203
1480605930317151,0.324219,-0.955566,-0.159668
1480605930340715,0.317871,-0.945313,-0.163086
1480605930354249,0.328613,-0.938477,-0.163574
1480605930383327,0.330566,-0.945313,-0.163086
1480605930399871,0.327148,-0.951172,-0.163574
1480605930428447,0.321289,-0.958496,-0.161133
1480605930437471,0.320801,-0.950684,-0.166504
1480605930473065,0.328613,-0.937012,-0.162109
1480605930483593,0.330566,-0.932129,-0.162598
1480605930497131,0.327148,-0.947266,-0.161621
1480605930519689,0.321777,-0.959961,-0.164551
1480605930540745,0.321777,-0.963867,-0.159668
1480605930556788,0.322754,-0.948242,-0.158691
1480605930579850,0.333008,-0.9375,-0.161621
1480605930602410,0.329102,-0.936523,-0.161621
1480605930617450,0.325195,-0.952637,-0.167969
1480605930639508,0.321777,-0.966309,-0.155273
1480605930660565,0.320801,-0.950195,-0.162109
1480605930677109,0.324707,-0.931152,-0.148926
1480605930707188,0.33252,-0.930664,-0.157227
1480605930720724,0.327148,-0.947266,-0.166992
1480605930737269,0.327148,-0.964355,-0.164063
1480605930760330,0.324219,-0.969238,-0.16748
1480605930780884,0.324707,-0.950684,-0.162598
1480605930797429,0.326172,-0.928711,-0.162109
1480605930819487,0.328125,-0.929199,-0.161621
1480605930848063,0.327148,-0.942871,-0.159668
1480605930857087,0.323242,-0.95459,-0.165527
1480605930879647,0.322266,-0.957031,-0.161621
1480605930902208,0.32666,-0.942871,-0.164063
1480605930917247,0.333984,-0.937012,-0.16748
1480605930939807,0.32959,-0.938477,-0.160645
1480605930969887,0.329102,-0.952148,-0.159668
1480605930992447,0.322754,-0.962402,-0.155273
1480605930999967,0.321289,-0.949219,-0.159668
1480605931030049,0.322754,-0.939941,-0.158691
1480605931036565,0.32666,-0.939453,-0.165527
1480605931059626,0.320801,-0.945801,-0.169922
1480605931082186,0.322754,-0.953125,-0.160156
1480605931096725,0.321289,-0.951172,-0.160156
1480605931127307,0.324707,-0.942383,-0.15918
1480605931142347,0.327637,-0.931641,-0.16748
1480605931163904,0.329102,-0.939453,-0.166504
1480605931179947,0.324219,-0.955078,-0.17041
1480605931202004,0.324707,-0.958984,-0.167969
1480605931216543,0.32373,-0.946289,-0.162109
1480605931240107,0.327637,-0.93457,-0.161621
1480605931262666,0.32959,-0.9375,-0.168945
1480605931276703,0.327637,-0.946777,-0.161133
1480605931314805,0.322754,-0.957031,-0.167969
1480605931322326,0.320313,-0.955078,-0.171875
1480605931350908,0.326172,-0.944824,-0.164063
1480605931367444,0.330078,-0.935547,-0.166016
1480605931390005,0.33252,-0.932129,-0.167969
1480605931403040,0.328125,-0.950195,-0.169922
1480605931419584,0.320801,-0.955566,-0.166504
1480605931442644,0.319336,-0.95459,-0.168945
1480605931464202,0.328125,-0.941406,-0.17041
1480605931479743,0.331055,-0.936035,-0.170898
1480605931502304,0.32666,-0.940918,-0.168457
1480605931523360,0.319336,-0.94873,-0.171387
1480605931539904,0.324707,-0.95752,-0.170898
1480605931562965,0.32373,-0.948242,-0.167969
1480605931593045,0.322754,-0.92627,-0.161621
1480605931599562,0.335938,-0.932129,-0.167969
1480605931622122,0.329102,-0.94873,-0.170898
1480605931643178,0.323242,-0.963379,-0.168945
1480605931659724,0.324707,-0.958496,-0.169434
1480605931689802,0.324219,-0.937012,-0.166992
1480605931710859,0.327148,-0.935059,-0.16748
1480605931727402,0.321289,-0.938965,-0.16748
1480605931743949,0.32373,-0.951172,-0.167969
1480605931764501,0.328613,-0.953125,-0.169434
1480605931779542,0.326172,-0.94873,-0.176758
1480605931802101,0.335449,-0.935059,-0.171875
1480605931832229,0.335938,-0.936035,-0.169434
1480605931840704,0.329102,-0.941406,-0.177734
1480605931862762,0.322266,-0.951172,-0.166992
1480605931884821,0.324707,-0.958008,-0.175781
1480605931907381,0.325684,-0.94873,-0.170898
1480605931922421,0.330566,-0.933105,-0.171875
1480605931944480,0.32666,-0.937988,-0.17041
1480605931959019,0.325684,-0.947754,-0.16748
1480605931988096,0.32373,-0.957031,-0.172852
1480605932004640,0.322754,-0.95166,-0.169922
1480605932019178,0.325684,-0.934082,-0.169922
1480605932042240,0.327148,-0.932617,-0.172852
1480605932065301,0.327148,-0.952637,-0.168945
1480605932102901,0.325195,-0.956055,-0.174316
1480605932105408,0.327637,-0.953125,-0.170898
1480605932125461,0.327148,-0.942383,-0.17627
1480605932140504,0.331543,-0.930664,-0.166992
1480605932162059,0.331055,-0.936035,-0.166992
1480605932192640,0.321777,-0.953125,-0.170898
1480605932199157,0.322266,-0.955078,-0.177246
1480605932222720,0.320313,-0.945801,-0.172363
1480605932246784,0.328125,-0.939941,-0.178223
1480605932258816,0.330566,-0.933105,-0.17334
1480605932282378,0.327637,-0.943359,-0.172363
1480605932304938,0.322266,-0.949219,-0.174316
1480605932333515,0.328613,-0.953125,-0.171875
1480605932342037,0.32373,-0.949219,-0.177246
1480605932370613,0.327637,-0.937012,-0.172363
1480605932388160,0.328613,-0.932617,-0.171875
1480605932418240,0.328125,-0.939941,-0.167969
1480605932424757,0.328613,-0.956055,-0.171387
1480605932445818,0.32373,-0.956543,-0.171387
1480605932462357,0.328613,-0.944336,-0.178223
1480605932484918,0.331055,-0.93457,-0.17627
1480605932505973,0.324707,-0.941895,-0.168945
1480605932522016,0.318848,-0.95459,-0.169434
1480605932546080,0.318359,-0.95459,-0.168945
1480605932565633,0.322754,-0.942871,-0.169922
1480605932582176,0.333008,-0.933105,-0.178223
1480605932604736,0.330078,-0.9375,-0.180664
1480605932625292,0.32959,-0.945313,-0.183105
1480605932642336,0.327148,-0.958496,-0.172852
1480605932664898,0.320313,-0.950684,-0.17041
1480605932702998,0.328613,-0.9375,-0.171387
1480605932705003,0.330566,-0.939941,-0.178223
1480605932724555,0.327637,-0.937988,-0.174805
1480605932747115,0.323242,-0.95166,-0.171875
1480605932762155,0.321289,-0.95752,-0.174805
1480605932784715,0.322266,-0.949219,-0.169922
1480605932807277,0.327637,-0.934082,-0.172363
1480605932822316,0.327148,-0.935059,-0.172852
1480605932846380,0.325684,-0.944824,-0.172363
1480605932867436,0.32373,-0.956543,-0.17334
1480605932881473,0.320313,-0.958008,-0.171387
1480605932912054,0.324219,-0.944824,-0.17334
1480605932927595,0.333008,-0.928223,-0.169434
1480605932948150,0.331543,-0.937012,-0.172852
1480605932972214,0.325195,-0.948242,-0.171387
1480605932987254,0.324707,-0.958984,-0.173828
1480605933002294,0.320801,-0.950684,-0.174805
1480605933024854,0.322266,-0.936523,-0.17334
1480605933048416,0.330566,-0.929688,-0.174805
1480605933061451,0.328125,-0.937988,-0.175781
1480605933084512,0.325195,-0.953613,-0.177734
1480605933122615,0.32373,-0.959473,-0.183594
1480605933125121,0.322266,-0.945313,-0.169922
1480605933144673,0.327148,-0.929688,-0.172363
1480605933168236,0.329102,-0.928223,-0.168945
1480605933181772,0.333496,-0.945313,-0.174316
1480605933210849,0.327148,-0.959473,-0.179688
1480605933227393,0.32373,-0.960449,-0.183105
1480605933255969,0.323242,-0.943359,-0.182129
1480605933264555,0.32666,-0.931641,-0.175781
1480605933294571,0.327148,-0.933105,-0.169922
1480605933308108,0.324219,-0.950684,-0.165039
1480605933324651,0.323242,-0.954102,-0.171387
1480605933347211,0.325195,-0.948242,-0.180176
1480605933391831,0.330566,-0.935059,-0.172363
1480605933399852,0.32959,-0.93457,-0.178223
1480605933407873,0.333496,-0.947754,-0.171875
