timestamp,emg1,emg2,emg3,emg4,emg5,emg6,emg7,emg8
1480605880726610,-2,0,0,0,0,-1,-1,-2
1480605880726610,-1,0,0,2,0,0,-1,0
1480605880727612,-1,-1,-2,0,0,-1,-1,0
1480605880727612,0,1,-1,0,-1,-2,0,0
1480605880749169,-1,-1,-1,-2,-2,0,-1,1
1480605880749169,0,0,-1,-1,-1,0,-2,0
1480605880750173,-1,-2,-1,1,-3,-3,-2,-3
1480605880750173,0,-1,0,0,0,-1,0,-3
1480605880763708,-1,-1,1,1,-2,0,-3,0
1480605880763708,0,-1,-1,-1,-3,-1,0,1
1480605880765212,1,0,0,-2,-2,-2,-1,0
1480605880765212,-2,1,-1,-1,0,-2,1,1
1480605880785768,-1,-1,-2,1,-1,-2,0,-2
1480605880785768,1,-1,1,-1,1,-1,-1,-1
1480605880793788,1,1,-1,-1,-1,0,0,-2
1480605880793788,-1,1,0,-1,-2,0,0,-1
1480605880809830,0,0,-2,0,1,-1,0,0
1480605880809830,-2,2,-3,0,-1,-1,-1,-1
1480605880810333,-2,-1,-2,0,1,-1,-1,0
1480605880810333,-2,-1,-1,0,-2,-1,-1,-1
1480605880823368,-1,-1,0,1,0,-1,0,0
1480605880823368,0,-1,-1,-1,1,-3,0,-1
1480605880824370,-2,-1,1,-2,0,1,-2,-2
1480605880824370,0,-1,-1,-2,0,0,-1,0
1480605880861970,0,-2,0,-2,-1,1,2,0
1480605880861970,0,-2,-1,-1,-2,-1,0,-1
1480605880862471,-1,-1,-2,-1,1,0,-1,0
1480605880862471,-2,-1,-1,0,0,0,-1,-1
1480605880869489,-1,-1,-2,-2,-2,0,-1,-1
1480605880869489,1,2,1,1,0,0,0,0
1480605880869991,0,-2,0,1,-1,0,-1,0
1480605880869991,-1,-1,-1,-1,0,0,-2,-1
1480605880891548,0,0,0,0,0,-1,-2,-1
1480605880891548,-2,-2,0,1,-2,0,0,-1
1480605880892551,0,-1,1,0,1,-1,0,0
1480605880892551,1,0,-2,1,-1,-1,1,-1
1480605880906588,1,-2,1,-2,0,0,-1,0
1480605880906588,0,-2,0,0,-1,0,-1,0
1480605880907591,-1,-1,1,-2,0,0,0,-1
1480605880907591,-1,0,0,-1,-1,-1,1,-1
1480605880929649,-1,1,-2,0,1,-2,1,2
1480605880929649,-2,1,0,-1,-3,0,-1,0
1480605880930652,2,0,-1,0,-3,0,-1,0
1480605880930652,0,1,0,-3,-1,0,-1,0
1480605880944188,-1,-1,0,0,-1,0,-1,-1
1480605880944188,1,0,-2,1,1,0,0,-1
1480605880951207,-1,-1,-2,-3,-2,-1,0,-1
1480605880951207,-3,-1,0,-1,-1,-2,0,1
1480605880965745,1,1,1,1,-1,-1,-1,-1
1480605880965745,-1,-1,-3,-2,-2,-2,0,-1
1480605880973768,0,0,0,0,-1,-1,0,-1
1480605880973768,1,-2,0,-1,-1,-3,-2,1
1480605880989310,0,0,1,0,-1,-1,0,1
1480605880989310,0,0,-1,-2,1,0,2,-2
1480605880990311,0,0,0,0,-2,-4,-1,0
1480605880990311,1,-1,-2,0,2,0,-3,0
1480605881003848,-1,-1,-1,1,-1,1,-1,-3
1480605881003848,0,-2,0,-1,-2,0,-2,0
1480605881004349,-1,-1,-1,-1,0,-1,-2,-2
1480605881004349,0,0,0,1,-4,0,2,0
1480605881041949,0,0,-1,0,-1,-1,0,1
1480605881041949,0,0,-1,-1,-1,0,-1,-1
1480605881042450,-1,-1,-1,-2,-1,0,0,2
1480605881042450,-1,-1,-1,-1,1,-1,-1,0
1480605881049469,-2,0,-2,-2,-1,-1,-1,-1
1480605881049469,1,-1,-2,-3,1,-4,-1,1
1480605881049970,-1,-2,1,-1,-1,1,1,0
1480605881049970,1,-1,-1,-1,-1,1,-1,-1
1480605881063506,-1,-1,0,-3,-2,-1,2,-1
1480605881063506,0,-3,-1,1,-1,-2,1,-1
1480605881064508,-1,-1,0,-1,-1,-1,2,0
1480605881064508,-1,-1,-1,-2,-1,-1,0,0
1480605881086568,-1,0,-1,0,1,-2,-1,-2
1480605881086568,-2,0,0,-1,1,2,-2,-1
1480605881087570,-2,1,-1,2,2,1,1,0
1480605881087570,0,0,-3,-2,-4,0,-2,-2
1480605881116646,0,-2,0,-1,-1,0,0,1
1480605881116646,-2,-1,0,-1,-3,-3,-1,-1
1480605881117650,0,0,-2,0,-1,-1,-1,-3
1480605881117650,-2,0,0,0,0,0,1,1
1480605881123165,0,1,0,0,1,-1,0,-1
1480605881123165,-2,2,-2,-1,-1,0,0,-1
1480605881131186,-1,0,-1,0,-3,-2,-1,-1
1480605881131186,1,-1,0,1,1,-2,1,-1
1480605881146225,2,-1,-2,-1,0,-1,-1,-2
1480605881146225,-1,0,1,-1,-1,-1,1,1
1480605881146727,0,0,-2,0,-1,-3,-2,1
1480605881146727,-1,-2,0,1,0,1,0,-1
1480605881176808,1,-1,-2,-3,0,1,0,2
1480605881176808,-2,-3,-2,0,-4,-2,-3,-1
1480605881177309,0,0,-2,-3,-3,0,1,0
1480605881177309,1,0,2,-1,4,-1,-2,-2
1480605881182824,0,-1,0,0,-4,-2,1,1
1480605881182824,-2,-2,1,0,1,-2,-1,-2
1480605881190844,-2,-3,-7,-2,-3,1,-1,0
1480605881190844,0,0,0,0,-1,-1,0,1
1480605881205885,-3,-2,0,-3,-2,-3,-2,-2
1480605881205885,0,2,1,0,3,0,2,-1
1480605881206887,-1,-1,0,1,2,-1,0,1
1480605881206887,-1,0,2,-2,-1,1,0,1
1480605881229447,1,-1,0,1,-1,-1,-3,1
1480605881229447,1,0,-2,-1,-2,0,-1,2
1480605881229949,0,-1,1,0,-1,1,0,0
1480605881229949,-1,0,-1,-3,-3,-3,0,0
1480605881252007,-1,-1,-1,-2,-2,-1,-1,0
1480605881252007,-2,-1,3,4,-1,-1,-1,-2
1480605881253011,0,-3,-13,-9,-2,1,2,0
1480605881253011,-1,-1,-3,-1,0,-2,-1,-1
1480605881267548,-2,1,0,0,0,1,-1,-1
1480605881267548,1,0,0,1,0,0,-2,0
1480605881268551,-1,1,3,5,2,-2,-2,-2
1480605881268551,-1,-3,-4,-2,-5,-1,-2,-1
1480605881289106,-2,-1,-3,-3,0,0,1,-1
1480605881289106,-2,-2,-1,1,0,2,-1,0
1480605881290109,0,-1,4,-2,-2,0,-2,0
1480605881290109,0,-1,0,2,1,1,0,-1
1480605881311165,-2,-1,2,2,0,-1,-3,1
1480605881311165,0,0,-3,-3,-1,-1,1,0
1480605881318684,0,1,2,-1,-1,-2,0,-1
1480605881318684,0,0,0,2,1,0,0,-1
1480605881326204,0,0,0,2,1,1,0,1
1480605881326204,1,0,-1,-1,-2,-1,-2,0
1480605881326706,0,0,0,0,0,-1,-3,-1
1480605881326706,-1,1,0,0,-1,-2,0,-1
1480605881349266,0,1,1,1,-1,0,1,1
1480605881349266,0,0,-2,-3,0,1,1,-1
1480605881350271,1,0,3,1,-1,0,0,0
1480605881350271,1,1,0,0,0,1,2,0
1480605881362802,-1,0,-3,-3,-1,-3,-1,-3
1480605881362802,2,-1,-1,-1,-4,-3,0,-1
1480605881371324,-3,-1,3,1,2,-1,-1,-2
1480605881371324,-1,0,-2,0,0,1,0,-2
1480605881402407,-2,1,1,0,0,0,-2,-1
1480605881402407,0,-1,-1,0,0,-1,-2,-1
1480605881402909,0,1,-2,-1,1,0,-3,0
1480605881402909,-1,-2,0,-1,-3,-2,-2,-1
1480605881418450,0,0,0,1,-1,0,0,-1
1480605881418450,-1,-1,-2,-1,-1,-1,0,0
1480605881418951,-1,-2,0,-2,0,-1,0,0
1480605881418951,1,-1,-1,0,0,-2,-2,0
1480605881422962,-1,-2,-2,-1,-1,-1,1,-1
1480605881422962,0,-1,1,0,-2,1,1,1
1480605881430983,0,-1,-2,1,0,-1,0,0
1480605881430983,1,1,1,-1,-1,-2,-1,1
1480605881446023,0,0,0,-1,0,1,-1,0
1480605881446023,-2,1,-1,0,-2,-1,-1,1
1480605881447027,-1,0,0,2,-2,-1,0,-1
1480605881447027,-3,-2,1,1,-1,1,0,0
1480605881469086,1,-1,-2,0,-1,-1,2,0
1480605881469086,1,0,1,0,1,0,1,0
1480605881470091,-1,-2,-5,-4,-2,-2,0,-1
1480605881470091,-1,1,0,-1,-2,1,0,0
1480605881491645,-2,-1,2,-2,0,0,-1,-3
1480605881491645,0,-1,-2,-1,0,-1,-1,-1
1480605881492647,1,0,2,0,0,0,1,1
1480605881492647,-1,-1,-1,-1,0,-1,0,-2
1480605881506183,-1,-1,-1,-1,0,-1,-1,-1
1480605881506183,-1,-1,-1,-1,0,-2,-1,0
1480605881506685,-1,0,0,-1,-2,0,-1,-1
1480605881506685,-1,-3,-2,0,1,-3,0,0
1480605881529245,-1,-1,0,1,-3,-1,0,1
1480605881529245,-1,-1,-3,-1,0,1,-1,-2
1480605881530248,1,1,-1,1,1,1,0,1
1480605881530248,0,-1,0,-1,-1,0,-1,-2
1480605881551804,1,1,0,-1,-2,0,-1,-1
1480605881551804,-2,0,-1,0,-2,0,-1,-1
1480605881552807,-1,-1,-3,1,1,-2,0,1
1480605881552807,0,1,-3,-1,-1,-1,0,-2
1480605881566344,-1,-1,1,-3,0,-1,0,0
1480605881566344,0,-1,-1,-2,0,0,-1,-2
1480605881573864,-2,0,-1,0,-1,0,-1,0
1480605881573864,0,-1,-1,0,1,1,0,1
1480605881589404,-1,0,-2,-2,0,-1,0,0
1480605881589404,-1,0,-1,0,0,-1,0,0
1480605881589906,-1,0,-1,0,0,0,-2,-2
1480605881589906,0,-1,1,1,-1,-2,-1,-1
1480605881611965,-1,-2,-1,-1,1,0,-1,-1
1480605881611965,0,0,0,-2,-2,-1,-1,1
1480605881612466,-1,0,1,-1,0,-2,0,-1
1480605881612466,-1,0,0,0,0,1,-2,0
1480605881626002,-2,0,0,0,-1,-1,0,-2
1480605881626002,-1,-1,-1,1,1,0,0,-1
1480605881627005,-1,-1,-2,-2,0,0,-1,-1
1480605881627005,-2,0,-2,-2,-1,-1,-1,-1
1480605881649063,0,-2,-1,0,-2,-1,-2,-1
1480605881649063,0,2,0,-1,0,-2,-1,1
1480605881650066,-1,0,0,0,-2,-2,0,-2
1480605881650066,1,0,-2,-1,1,-1,1,-1
1480605881671624,-1,0,-2,3,-2,0,-1,-1
1480605881671624,0,0,1,0,-2,0,0,-1
1480605881672626,1,-1,1,-1,-1,0,0,-1
1480605881672626,-2,0,0,0,-1,0,-1,-1
1480605881694685,-3,-2,-2,-1,-1,-1,1,-1
1480605881694685,-1,-3,0,-1,0,0,-1,1
1480605881695688,-1,-1,-1,-2,0,1,-2,-1
1480605881695688,-1,-1,-1,-2,-2,-2,-1,-1
1480605881709725,0,2,1,0,2,-1,-1,0
1480605881709725,-1,-1,-3,-2,0,1,0,-2
1480605881710728,1,0,-1,-1,-1,-1,-2,0
1480605881710728,0,0,0,-1,-2,-1,0,1
1480605881739303,1,0,-1,-3,-1,-1,0,-2
1480605881739303,-2,0,1,-2,-1,0,1,0
1480605881740306,-2,0,0,0,0,-2,-1,0
1480605881740306,0,-2,-1,0,0,0,0,0
1480605881745821,-1,-2,-1,1,1,-2,0,0
1480605881745821,1,0,0,0,-1,0,-1,0
1480605881746824,0,-3,0,0,0,-1,1,0
1480605881746824,0,0,-3,0,1,-1,-2,-3
1480605881768883,1,0,-1,-1,1,-3,-1,-1
1480605881768883,0,0,-1,-1,1,0,-2,-1
1480605881770892,0,0,-1,-2,0,0,-2,-1
1480605881770892,0,-2,1,-1,-2,0,1,1
1480605881791944,-1,-1,-2,-1,0,1,0,0
1480605881791944,-1,-1,-1,1,1,-1,0,-2
1480605881792445,0,0,0,3,-2,-1,0,1
1480605881792445,-1,-1,-1,-3,-3,0,-2,-1
1480605881805981,-2,0,-1,-3,-3,-2,-1,0
1480605881805981,-2,0,0,-3,-1,-1,1,-1
1480605881806984,0,0,0,0,0,0,0,-1
1480605881806984,0,0,0,1,0,-1,-2,1
1480605881829042,0,0,2,-1,-4,-1,-1,1
1480605881829042,-1,-2,-2,-3,-1,0,-1,0
1480605881830045,-2,0,1,0,1,-2,0,-1
1480605881830045,0,1,0,0,-1,0,0,-2
1480605881851603,1,0,-3,-3,-1,-2,0,1
1480605881851603,1,0,-2,-5,-2,-1,0,0
1480605881875666,-1,2,1,-1,-4,0,0,1
1480605881875666,-1,0,1,2,3,0,-1,-2
1480605881877171,-2,-2,-1,1,1,2,2,-1
1480605881877171,-1,0,-1,1,0,-2,-1,-1
1480605881878173,-1,0,2,-2,0,-2,-2,-1
1480605881878173,-2,-2,0,3,-1,-1,0,-1
1480605881889704,1,-1,-2,-3,-5,0,-2,-2
1480605881889704,-1,-1,1,3,-2,1,3,0
1480605881890706,0,-1,-1,-1,0,0,-1,0
1480605881890706,0,-1,-2,-1,-1,-1,0,1
1480605881911261,-2,-1,0,-1,0,-2,0,-1
1480605881911261,-1,-1,0,0,-1,-1,-1,0
1480605881918781,-1,0,-2,0,-1,1,-1,0
1480605881918781,-1,-2,-1,-3,-1,-1,0,-1
1480605881925800,0,-1,-3,0,1,0,0,0
1480605881925800,1,-1,-1,1,-2,2,0,0
1480605881926802,0,-1,-1,1,-1,0,0,-2
1480605881926802,-1,0,-2,-3,-2,1,-2,-1
1480605881949864,0,1,1,0,2,1,0,0
1480605881949864,0,-1,-1,0,0,-1,-1,-2
1480605881951869,0,-2,-1,-1,-3,-1,-1,0
1480605881951869,-1,-2,-2,-2,-1,-2,0,-1
1480605881971922,0,-3,-2,-1,-1,-1,-2,0
1480605881971922,-2,-1,-1,0,-1,-1,-2,-1
1480605881972424,-1,0,-2,-1,0,0,1,0
1480605881972424,-1,0,-2,-2,-1,0,0,-1
1480605881985960,-1,0,-1,1,0,1,-1,-1
1480605881985960,1,-2,0,-1,0,-2,-1,0
1480605881993480,-1,-1,-1,-2,-2,0,0,-2
1480605881993480,-1,-1,0,0,-1,0,-1,0
1480605882016541,-1,0,0,-1,0,-1,1,0
1480605882016541,-1,-1,-2,-1,0,0,-1,-1
1480605882017544,0,0,-2,0,1,-1,1,2
1480605882017544,-1,-2,-2,1,-2,-1,1,0
1480605882032082,-1,-1,-2,1,-2,0,0,0
1480605882032082,0,-1,0,-2,1,-1,-2,-1
1480605882033085,0,-2,-2,-3,-1,-1,-2,0
1480605882033085,0,0,-1,0,-1,0,0,-1
1480605882054643,0,1,1,2,0,0,-1,0
1480605882054643,-2,-2,-1,0,-1,-2,-1,0
1480605882055645,-1,-2,-1,1,0,-1,-1,2
1480605882055645,0,0,0,-1,-1,0,-2,0
1480605882069183,1,-1,-1,-1,-1,0,-1,-2
1480605882069183,0,0,-2,1,-1,0,1,0
1480605882070187,0,-2,2,0,-2,0,0,-2
1480605882070187,0,1,-1,0,-1,-1,0,2
1480605882091741,0,-2,0,-4,0,0,0,1
1480605882091741,-2,0,0,0,0,-2,-1,0
1480605882092744,-1,-1,0,-2,1,0,0,-2
1480605882092744,1,-1,-1,-1,1,0,0,-1
1480605882105277,0,0,1,-1,-1,-1,0,0
1480605882105277,-1,2,-1,-2,0,-1,-1,0
1480605882113800,0,1,-1,0,-2,0,0,1
1480605882113800,-1,-1,-1,-2,-1,0,-2,-2
1480605882130344,0,0,0,0,-1,-3,-2,0
1480605882130344,-1,-1,-2,0,-1,0,-1,0
1480605882130846,-1,0,-3,0,-1,-1,0,0
1480605882130846,-1,-1,-1,0,0,0,-1,2
1480605882151901,0,1,-1,1,-1,-1,1,-1
1480605882151901,1,-1,0,0,0,1,-1,-2
1480605882152403,0,-1,-1,-2,-1,0,0,-2
1480605882152403,0,-2,0,-1,-2,1,0,1
1480605882165437,-1,-1,-1,0,0,-2,0,0
1480605882165437,0,-1,0,-1,-3,-1,0,0
1480605882174461,0,-2,-2,-1,-2,-1,0,-2
1480605882174461,-1,-1,-2,-1,0,-3,0,0
1480605882188499,-1,0,-1,1,0,-1,0,0
1480605882188499,1,-2,0,0,-1,1,-1,-1
1480605882203539,0,-1,1,0,-1,0,-1,-3
1480605882203539,-1,0,0,1,0,-1,0,0
1480605882211560,-2,1,-1,-1,-2,-1,0,0
1480605882211560,-1,-1,0,1,0,0,0,0
1480605882212564,-1,-1,-1,-1,1,0,0,2
1480605882212564,-1,-1,-2,-1,0,-2,0,0
1480605882226098,0,-1,-2,0,1,0,-2,-1
1480605882226098,-2,-1,-1,0,-1,-1,-1,0
1480605882234621,0,0,-1,0,-2,0,1,-1
1480605882234621,0,0,1,-1,0,1,0,-2
1480605882249662,0,0,0,-1,1,1,0,-1
1480605882249662,-1,-1,-1,-1,0,-2,-1,-2
1480605882250664,-1,0,-1,-1,-1,-1,-1,-1
1480605882250664,-2,-2,0,-1,0,-2,0,-1
1480605882271720,-2,-1,0,-2,-2,1,1,-1
1480605882271720,-1,-1,0,-3,-1,-1,-1,-1
1480605882272723,0,0,-1,0,-2,-1,-2,0
1480605882272723,0,1,0,-1,-1,0,-1,0
1480605882285257,0,-4,-3,1,-2,1,-1,0
1480605882285257,0,0,-3,-1,0,0,0,0
1480605882293779,-2,0,1,-2,0,-2,-2,2
1480605882293779,1,0,-1,0,-4,0,-1,-2
1480605882309320,-1,-1,1,-1,0,0,0,1
1480605882309320,1,0,0,0,-1,0,1,-1
1480605882310324,-1,0,1,-1,0,-1,0,0
1480605882310324,0,-1,-1,-2,0,0,-1,-1
1480605882331881,-1,0,-2,0,-1,-2,0,0
1480605882331881,-2,0,0,0,1,1,1,-1
1480605882332883,0,0,0,-1,-3,0,-1,-1
1480605882332883,-1,-2,-1,0,-1,-2,-1,0
1480605882345416,1,-2,-1,1,0,0,-1,-1
1480605882345416,-1,-1,-1,0,0,0,-1,2
1480605882353438,-2,-1,-1,1,-1,-4,-1,0
1480605882353438,1,-1,2,-2,-1,0,0,-1
1480605882369480,-1,1,-1,-2,-2,-2,-2,-3
1480605882369480,0,1,-1,-1,0,0,1,0
1480605882369984,-1,-2,-1,1,1,1,-1,1
1480605882369984,-2,-1,-1,-2,-1,-1,0,0
1480605882392041,0,-1,-2,-3,1,-1,0,-1
1480605882392041,-1,-1,1,2,0,-2,-1,2
1480605882392542,-1,0,-2,0,0,-1,1,-1
1480605882392542,0,1,0,1,-1,1,0,1
1480605882413597,-2,-1,0,1,-1,2,-1,-1
1480605882413597,-1,-1,-2,-2,-2,-2,-1,-2
1480605882421118,1,-1,-1,0,1,1,1,-1
1480605882421118,-1,1,0,2,-3,1,-2,-2
1480605882429138,-1,0,3,1,-1,-5,-3,-3
1480605882429138,1,0,1,3,-2,0,0,0
1480605882430143,0,0,-1,0,-1,0,0,0
1480605882430143,0,0,-2,-1,1,-3,-1,0
1480605882451699,1,0,4,1,0,-1,1,0
1480605882451699,0,-1,-3,-2,-1,0,0,-1
1480605882452702,1,-1,1,-2,-1,-1,1,-2
1480605882452702,0,0,-4,2,-1,1,0,1
1480605882481785,-1,0,-2,-2,-2,1,-1,-1
1480605882481785,-2,0,0,0,-2,-2,-2,-2
1480605882482782,0,-2,-2,-2,-1,0,-2,0
1480605882482782,0,-1,0,-2,1,0,1,-2
1480605882488297,0,0,0,0,3,0,1,1
1480605882488297,0,0,-1,-3,-2,-1,-1,0
1480605882489299,0,1,0,2,2,0,-2,-1
1480605882489299,-3,-3,4,0,-1,-4,-1,-1
1480605882511859,-1,-1,0,1,0,0,0,-1
1480605882511859,-1,-1,-4,-1,-2,0,-1,-2
1480605882512360,-2,-1,-4,1,-2,-2,-1,0
1480605882512360,0,0,-2,-2,-1,-1,-2,-1
1480605882534419,0,-1,-2,0,1,1,1,0
1480605882534419,-2,-1,1,0,0,-2,-1,-2
1480605882534921,1,0,3,3,3,3,2,2
1480605882534921,-1,-1,0,-2,-2,0,1,0
1480605882548456,1,-2,-3,-2,-2,-1,-1,-1
1480605882548456,0,-1,0,-1,1,2,0,1
1480605882549459,0,0,-3,-2,0,1,0,-3
1480605882549459,-2,-1,-2,2,1,-2,-2,-2
1480605882571518,-1,-2,-2,0,-1,-3,0,0
1480605882571518,0,-1,-1,-2,0,0,1,0
1480605882572520,-2,-2,0,0,-2,-1,0,-1
1480605882572520,-1,-2,-3,-4,-3,-2,0,0
1480605882594579,-1,0,-1,-2,-5,-2,0,-1
1480605882594579,0,-1,-2,2,2,0,0,0
1480605882596083,-1,-1,1,-5,-2,-2,-2,-1
1480605882596083,1,0,0,1,2,1,-1,-1
1480605882608616,-1,2,-1,3,0,-3,-1,1
1480605882608616,-1,-2,3,-3,-1,1,-2,-1
1480605882609619,-2,-1,-1,-1,0,0,1,2
1480605882609619,-1,-1,-2,-1,0,-1,0,-1
1480605882631678,1,-1,-1,-1,1,-1,0,-2
1480605882631678,0,1,0,-1,0,-2,-1,0
1480605882632680,-2,-3,-1,-1,-3,-2,-1,-2
1480605882632680,0,0,0,-1,2,-2,0,-1
1480605882654740,-1,-1,0,0,0,1,0,1
1480605882654740,-1,-2,-1,1,-2,-2,-1,1
1480605882655741,0,-2,0,0,-1,0,0,0
1480605882655741,0,-1,0,-2,-2,-1,1,1
1480605882668776,-2,0,-1,0,-1,0,0,0
1480605882668776,-1,1,-2,-2,-1,-1,0,0
1480605882669278,-1,1,0,0,-1,1,-1,0
1480605882669278,0,0,1,1,-1,0,0,0
1480605882691837,-1,-2,-1,-2,-1,-1,-1,-2
1480605882691837,1,-2,0,1,3,0,-1,0
1480605882692840,-2,1,0,1,-1,-2,-1,-1
1480605882692840,0,-2,-3,-3,-2,-2,-1,-3
1480605882714399,-2,0,1,-1,1,0,0,0
1480605882714399,-1,-3,0,0,-2,1,-1,-1
1480605882714899,1,-3,0,-2,2,0,0,-2
1480605882714899,-1,-1,-2,0,-1,0,0,0
1480605882728435,0,-2,-2,-2,-1,-2,1,-1
1480605882728435,-1,-1,0,1,-2,0,1,0
1480605882729439,-1,0,0,-3,-2,-1,0,-1
1480605882729439,-1,0,-1,0,1,0,0,-1
1480605882759518,-1,-1,0,-1,0,0,0,0
1480605882759518,-1,-1,1,1,-1,-1,-2,0
1480605882760019,0,0,0,-2,0,-2,0,-1
1480605882760019,0,-1,1,0,-1,2,0,-1
1480605882774056,-2,0,-1,-1,-1,0,-1,0
1480605882774056,-2,-2,-2,-1,-1,1,1,1
1480605882775059,1,-2,-1,0,1,-2,-1,-1
1480605882775059,0,0,-1,-1,-1,0,-1,0
1480605882788095,0,-1,-2,-2,-2,-1,0,-2
1480605882788095,0,-1,-1,-2,-1,-1,0,0
1480605882797119,-2,-3,-1,1,-4,-2,-1,0
1480605882797119,-2,-1,0,0,0,-2,0,-1
1480605882811656,1,0,1,1,0,-1,-1,0
1480605882811656,0,0,1,-2,0,-1,0,0
1480605882812660,0,0,0,0,-1,1,0,0
1480605882812660,-2,0,0,-1,0,0,-1,0
1480605882834216,-1,-1,-1,1,-1,0,-1,0
1480605882834216,1,-1,-1,-1,0,-2,-1,0
1480605882835220,-1,1,-1,0,-2,0,1,1
1480605882835220,1,0,-1,0,0,-1,0,1
1480605882847752,-1,0,-1,-1,-1,2,0,0
1480605882847752,-1,-1,0,1,-2,-1,1,-2
1480605882856777,0,0,-2,-1,0,-2,-1,-1
1480605882856777,-1,1,0,-1,0,-1,-2,-2
1480605882871820,-1,-2,-2,-1,0,-1,-1,1
1480605882871820,-1,1,-3,-1,-2,-2,0,-1
1480605882873321,-2,-1,0,3,0,-2,-2,-1
1480605882873321,-2,-2,-1,2,-1,0,0,-1
1480605882894376,2,0,1,0,-2,-1,1,1
1480605882894376,-1,-2,1,-2,-2,0,0,0
1480605882895881,0,-1,0,-3,1,-1,-1,1
1480605882895881,-1,-1,-2,0,0,-1,-1,2
1480605882907913,-2,-2,0,-1,-2,1,0,0
1480605882907913,-1,-1,-2,0,-1,-1,0,-1
1480605882917940,0,-1,-2,0,1,0,0,-1
1480605882917940,2,-1,-1,0,-2,0,0,-1
1480605882938995,0,0,-3,-2,-1,-2,-2,-2
1480605882938995,-1,0,-2,-2,1,2,0,-1
1480605882941000,0,1,0,0,0,0,0,-1
1480605882941000,-1,-1,-2,-1,-1,0,1,-1
1480605882954035,-2,0,0,0,-1,-1,-1,-1
1480605882954035,-2,-1,-2,-1,-1,1,-2,0
1480605882956040,1,-2,-1,-1,0,0,0,0
1480605882956040,-1,0,2,-1,0,0,0,1
1480605882968073,1,0,1,-1,-1,-1,1,0
1480605882968073,1,-2,-2,-1,-1,-2,-2,-1
1480605882977096,-1,1,0,-2,-2,-1,0,-1
1480605882977096,-1,-1,-1,-1,-2,-2,0,0
1480605882991635,0,-1,0,-1,2,0,0,0
1480605882991635,-1,1,0,1,-1,-3,0,-2
1480605882993139,0,0,-1,0,-1,-1,0,0
1480605882993139,1,-1,-2,0,-1,0,0,-2
1480605883020713,-1,-1,-2,-1,-2,-1,-2,0
1480605883020713,-1,-2,1,0,-1,-1,-1,-1
1480605883030239,-1,-1,0,-1,-1,1,-1,-1
1480605883030239,0,0,-1,0,-3,-1,0,0
1480605883030740,-1,-1,-2,-1,-1,1,-1,-1
1480605883030740,0,-1,-2,-1,-3,-1,-1,0
1480605883037257,-2,-1,1,0,0,1,0,1
1480605883037257,0,-2,-1,0,0,-2,-1,0
1480605883051795,0,-1,-1,0,2,-1,-1,0
1480605883051795,0,0,-1,-1,-1,0,0,-1
1480605883053299,-1,0,-1,-2,-2,-2,0,1
1480605883053299,-1,-1,-2,-2,-1,-3,-1,0
1480605883074355,1,0,1,1,0,0,1,-1
1480605883074355,-2,-1,-2,-3,-3,-2,0,-2
1480605883075859,-2,-2,-3,0,-2,0,-1,-3
1480605883075859,1,2,-2,-1,0,2,0,0
1480605883087891,-1,-2,-1,-3,-4,-3,0,-1
1480605883087891,-1,1,3,1,0,1,1,0
1480605883102937,0,-1,-2,-2,1,1,-1,-1
1480605883102937,0,2,-1,0,1,0,0,-1
1480605883110953,0,1,0,1,1,3,0,1
1480605883110953,0,-1,3,2,0,-1,-1,-2
1480605883126995,0,1,0,-2,-2,-2,-1,0
1480605883126995,1,-1,2,1,1,0,0,1
1480605883134516,-1,1,-3,-2,1,-1,-1,0
1480605883134516,-1,-2,-4,-2,-2,-3,-4,-1
1480605883148552,1,-1,-1,-1,0,2,1,0
1480605883148552,-2,-1,-1,-3,-2,-3,-2,-2
1480605883149555,-2,-3,-2,0,-3,-3,0,-4
1480605883149555,1,1,-1,1,1,-2,-2,1
1480605883157075,-1,-1,-2,2,2,1,-1,-2
1480605883157075,-2,0,-2,-3,-2,-3,-3,-2
1480605883172115,0,0,1,2,3,-1,0,0
1480605883172115,-1,-2,-2,0,3,2,0,-2
1480605883174121,1,0,2,1,-3,-3,-1,-1
1480605883174121,0,0,2,1,3,0,0,-2
1480605883194174,0,0,-2,-1,-3,-1,-1,0
1480605883194174,1,2,0,-1,2,-1,2,2
1480605883195678,-1,0,-1,1,0,-2,-1,0
1480605883195678,-1,-3,0,-2,-5,-1,0,-1
1480605883216734,-2,-4,0,-2,-1,-1,-3,-3
1480605883216734,-1,0,0,-1,-3,-2,-1,0
1480605883218238,-1,1,0,-1,-3,-2,0,-1
1480605883218238,-1,-1,-2,-2,3,2,1,0
1480605883231774,1,0,1,0,0,0,0,0
1480605883231774,-2,-1,1,0,-1,-1,-1,0
1480605883233279,-1,-1,-3,-1,1,-2,-1,-1
1480605883233279,-1,-1,-2,1,1,0,2,0
1480605883253334,0,1,0,0,-1,1,-1,1
1480605883253334,-1,0,0,2,-1,-1,-1,0
1480605883261854,-1,-1,0,-2,-2,-3,-1,-1
1480605883261854,-1,-2,-5,-3,-3,-1,-1,0
1480605883267871,-1,-2,-2,-4,-4,-5,-2,-3
1480605883267871,0,-2,-4,-1,1,0,1,0
1480605883282911,0,-1,2,-3,-2,0,-1,-1
1480605883282911,2,0,2,3,-2,1,0,1
1480605883291934,0,1,0,1,2,2,-2,-1
1480605883291934,-1,-2,0,-6,-2,-1,-1,1
1480605883305470,0,-1,-2,1,4,1,-2,-1
1480605883305470,0,-1,4,1,2,0,-1,0
1480605883314493,-1,-1,-4,-2,-1,-1,0,1
1480605883314493,-1,2,0,1,0,0,0,0
1480605883315998,-1,-1,1,0,-1,1,0,-1
1480605883315998,-1,-1,0,-1,1,-2,-1,0
1480605883328030,-1,0,0,4,1,-1,2,0
1480605883328030,-1,0,0,-1,-3,1,1,-1
1480605883337057,-2,0,-3,-1,-1,1,1,0
1480605883337057,-2,-3,-2,-1,0,1,0,-2
1480605883350590,1,0,0,-3,-2,-1,0,0
1480605883350590,0,0,-2,0,-2,-1,-1,0
1480605883366633,-1,-1,-1,-1,-1,-2,-1,0
1480605883366633,-2,-1,-1,-2,-2,0,-2,0
1480605883381673,1,-1,0,0,-1,-1,0,1
1480605883381673,0,-1,1,-1,2,0,0,-1
1480605883383177,-3,-1,-3,0,-3,-1,-2,-1
1480605883383177,-1,0,-2,0,-1,-2,0,0
1480605883395712,-2,-1,-1,-2,-2,-2,-1,1
1480605883395712,0,-1,-1,2,0,-1,-3,0
1480605883404233,1,-3,-3,0,-1,-1,1,0
1480605883404233,-1,0,2,0,-1,0,0,-1
1480605883411753,-1,-1,0,-2,-1,0,1,-1
1480605883411753,0,0,-2,-1,0,-2,0,0
1480605883413257,1,-1,0,-2,0,-2,0,0
1480605883413257,0,1,0,1,1,0,0,0
1480605883433811,-1,-2,-3,-1,-1,0,1,1
1480605883433811,0,0,-2,0,0,1,-2,-1
1480605883440832,0,1,-4,-1,-2,0,0,0
1480605883440832,1,0,0,-2,-2,-1,-1,-1
1480605883456873,0,-1,-1,-1,1,-3,-1,-1
1480605883456873,-2,-2,-1,-2,0,-1,0,-1
1480605883458379,-1,-1,-3,-3,-3,1,0,-1
1480605883458379,0,-1,3,3,0,-1,-1,-1
1480605883471913,-1,-3,-1,-3,0,2,-1,0
1480605883471913,0,-1,-1,-1,-2,1,1,0
1480605883474420,0,-1,1,2,3,0,0,0
1480605883474420,1,-1,-1,-2,0,0,-1,-2
1480605883494472,0,0,1,-1,0,-1,-3,-2
1480605883494472,0,0,-1,-3,1,-1,0,-3
1480605883495977,-1,-2,0,0,1,2,0,0
1480605883495977,0,-3,-2,-6,-5,-2,-1,0
1480605883517033,-1,-2,0,1,0,-1,0,-1
1480605883517033,-2,-1,-1,0,0,0,2,-1
1480605883519038,1,-1,1,-2,-1,-2,-1,0
1480605883519038,-1,0,-3,0,0,1,0,1
1480605883531072,-1,0,-2,0,-2,-1,-1,-1
1480605883531072,1,-1,-1,-2,-2,-2,-2,1
1480605883538090,0,1,-1,1,-1,-1,0,-1
1480605883538090,-2,-1,-1,-1,0,0,-1,-2
1480605883555134,-1,0,-1,-1,-2,0,-1,0
1480605883555134,-1,-1,1,1,0,0,-1,0
1480605883556638,-2,-2,1,-1,0,0,-1,0
1480605883556638,2,-1,-1,0,1,-1,-1,0
1480605883593236,-1,0,0,0,0,-1,0,1
1480605883593236,-1,-1,-2,1,0,-2,-1,0
1480605883595742,-2,-2,0,-1,-1,-1,-1,-1
1480605883595742,-1,-2,-1,1,-1,1,0,-1
1480605883596746,-3,-2,-2,-1,-2,0,1,-1
1480605883596746,0,-1,-1,0,-3,-2,-1,1
1480605883599252,0,1,-1,0,-1,0,-1,-1
1480605883599252,1,0,-1,-1,0,-3,-2,0
1480605883628830,2,0,1,0,-1,-1,-1,-1
1480605883628830,-1,0,-1,-3,-1,-2,-1,-3
1480605883637354,-2,-1,-3,-2,0,-1,-1,-1
1480605883637354,-1,0,-2,-1,-1,0,-1,0
1480605883638357,0,-1,-1,0,-2,-2,-1,1
1480605883638357,1,0,0,0,-1,0,0,1
1480605883639861,1,-1,0,0,-2,-1,0,-1
1480605883639861,0,0,-1,-1,-1,0,0,0
1480605883658409,2,1,-2,-1,0,0,0,0
1480605883658409,-1,-2,-1,-2,0,1,-1,-1
1480605883675956,-1,0,0,0,1,-1,-1,-1
1480605883675956,-1,0,-2,0,-1,-2,0,0
1480605883676959,-1,0,1,-4,-1,0,0,0
1480605883676959,-1,-1,-1,1,0,0,1,0
1480605883680468,-1,-1,0,-2,1,-1,0,-2
1480605883680468,-1,-1,0,0,-2,-2,2,0
1480605883697013,-2,0,-2,-2,-2,-1,-1,-2
1480605883697013,0,-1,0,0,-1,-1,0,-1
1480605883698517,-1,0,0,-1,-1,-1,-1,1
1480605883698517,0,-2,1,0,-2,0,-1,0
1480605883726591,0,0,-1,-1,1,1,-1,-1
1480605883726591,-2,-2,-1,-1,-2,-1,-1,-1
1480605883728596,0,0,2,0,1,-1,-1,1
1480605883728596,0,0,0,-3,-1,-1,0,-1
1480605883734110,0,-1,0,0,0,0,1,0
1480605883734110,0,-1,0,-2,0,0,-3,-1
1480605883736116,1,-1,-2,0,-3,0,-1,0
1480605883736116,-2,-2,-1,0,1,0,-1,0
1480605883764191,1,-2,1,1,0,-1,0,-1
1480605883764191,-1,1,0,0,0,-1,0,-1
1480605883772214,-1,1,0,0,-2,-1,-1,-1
1480605883772214,-1,1,0,-3,-1,-1,0,1
1480605883773215,-2,-1,0,-1,1,-1,-2,-1
1480605883773215,-1,0,-1,0,-2,-1,1,1
1480605883777726,1,0,-2,-3,0,1,1,0
1480605883777726,-1,0,-2,-4,-1,-1,0,-2
1480605883794270,-1,0,0,0,-2,1,0,1
1480605883794270,0,-3,-2,-2,-3,-1,0,1
1480605883795775,-1,-1,-4,-1,0,0,-1,-1
1480605883795775,0,-1,-2,-1,0,-2,-2,0
1480605883816831,0,-3,0,-2,0,-1,-2,1
1480605883816831,0,0,-3,-1,1,0,0,0
1480605883819338,0,0,2,0,-3,-2,0,-1
1480605883819338,-1,-1,-1,0,0,0,1,-1
1480605883830870,-1,0,-2,-1,-1,0,0,-1
1480605883830870,-1,0,1,-2,0,0,1,1
1480605883837890,-2,-1,0,0,-1,-1,0,1
1480605883837890,1,0,1,2,-2,0,-1,-1
1480605883853431,0,-1,-3,-1,-1,0,-3,0
1480605883853431,-1,-1,-2,-1,-1,-1,0,-2
1480605883869471,0,-1,-1,-1,0,-1,-1,1
1480605883869471,-1,1,0,1,0,-1,0,-1
1480605883876991,-2,-1,-1,-1,1,0,1,-1
1480605883876991,0,1,1,-1,-1,-1,-1,-1
1480605883878495,0,-1,0,-2,-1,1,-1,0
1480605883878495,-1,-2,0,-1,-2,-1,-2,-1
1480605883890527,1,1,0,-2,-2,0,0,0
1480605883890527,0,-1,-2,-2,-1,0,-2,0
1480605883917599,0,0,0,1,-2,-1,-1,-1
1480605883917599,0,0,-1,-1,0,-2,0,1
1480605883919104,-2,-2,0,0,-1,-2,1,2
1480605883919104,-2,-1,0,-1,0,-1,-1,0
1480605883921108,-1,-2,0,0,0,-1,-2,-1
1480605883921108,-1,-1,-1,0,0,0,-1,-2
1480605883935648,1,0,-1,-2,-1,0,-1,0
1480605883935648,-1,0,0,1,-3,-1,-1,-1
1480605883961216,-2,0,0,0,0,1,1,0
1480605883961216,0,-1,1,1,1,-1,0,-2
1480605883962217,0,1,0,-2,0,-2,-1,-1
1480605883962217,0,-1,-1,-2,-1,1,-3,-1
1480605883965225,1,-3,-2,0,-2,-1,0,0
1480605883965225,0,-2,-1,-1,-1,-2,1,-1
1480605884005332,-1,-1,1,1,-2,-1,-1,-2
1480605884005332,1,-1,-1,0,0,-1,-2,-1
1480605884008341,-2,-1,-1,-1,-2,-1,0,-3
1480605884008341,0,0,2,0,0,0,0,0
1480605884008841,-1,-2,-1,-2,-1,-2,0,-2
1480605884008841,-1,0,-1,0,-3,-2,1,1
1480605884012351,0,1,0,-1,-1,-2,-1,1
1480605884012351,-2,-1,-1,-2,1,0,0,-1
1480605884013353,0,1,0,-1,-1,1,-1,0
1480605884013353,1,-1,1,0,-1,0,-1,0
1480605884025385,-2,-1,-1,0,0,-2,-1,-2
1480605884025385,-1,-1,-2,-2,-2,-1,-2,-1
1480605884033908,-2,-1,0,-1,0,-1,-1,0
1480605884033908,0,0,-2,-2,2,0,0,-1
1480605884042431,1,0,-1,-2,-2,-1,-1,2
1480605884042431,0,0,0,1,0,0,0,-2
1480605884056970,-1,-1,-1,2,0,0,0,0
1480605884056970,1,1,-1,-1,0,0,-1,-2
1480605884058974,-2,-1,-1,2,0,-1,1,-2
1480605884058974,0,1,-1,-2,-3,-2,-2,-2
1480605884070506,0,-1,-1,0,0,-1,0,-1
1480605884070506,-1,-1,-1,0,-1,-1,-1,1
1480605884079529,0,0,-1,0,0,0,-1,0
1480605884079529,0,-1,1,-1,-1,0,-1,1
1480605884094068,-1,0,-1,-2,-1,-1,-1,0
1480605884094068,0,-1,0,0,0,-1,1,-1
1480605884096074,0,0,1,-2,-1,-1,1,-1
1480605884096074,0,-1,-2,-2,1,-1,0,-1
1480605884116629,0,0,-1,0,1,-2,0,-1
1480605884116629,-1,-1,1,0,0,-3,0,0
1480605884119135,-1,1,-1,-2,-1,-1,-1,-3
1480605884119135,-1,-1,-1,0,-1,-1,0,0
1480605884130165,1,1,-2,1,0,0,-2,-2
1480605884130165,-2,-1,0,-1,-1,-2,0,-2
1480605884146708,0,0,0,-1,1,-2,-1,-1
1480605884146708,-2,0,-1,-1,-1,0,-1,-1
1480605884154228,-1,-3,-1,-2,-1,-1,-1,1
1480605884154228,-1,0,-2,0,0,0,-1,0
1480605884155732,1,-2,-1,0,-1,-2,-1,2
1480605884155732,-1,-2,-2,1,-3,-1,-1,0
1480605884200351,-1,0,2,0,-1,0,0,1
1480605884200351,2,0,0,-1,-1,1,-1,1
1480605884202356,0,0,-1,-1,1,0,-1,-2
1480605884202356,1,0,0,1,2,-1,0,0
1480605884202860,-2,-2,-1,0,0,0,-3,-2
1480605884202860,-1,0,2,-1,-2,2,0,-1
1480605884216397,-2,0,-1,2,-2,0,-1,1
1480605884216397,-2,-1,-1,-2,-3,0,-1,0
1480605884217396,0,1,1,-1,-3,0,0,0
1480605884217396,-2,0,-3,2,1,0,-1,-1
1480605884220405,1,-2,-2,-1,2,0,-2,0
1480605884220405,0,0,-1,-1,-2,-1,1,-1
1480605884237450,1,0,-1,2,-3,0,0,2
1480605884237450,-2,0,0,1,-1,-1,-1,0
1480605884238955,-2,-2,-1,0,-4,-2,-1,-4
1480605884238955,0,0,-1,0,-1,0,0,0
1480605884266026,-2,-1,-1,-1,-1,-2,1,-2
1480605884266026,-2,-1,-1,-3,1,-1,-2,0
1480605884284073,0,-1,0,0,1,0,0,0
1480605884284073,0,0,-1,-2,1,-1,-1,-1
1480605884284574,0,1,1,1,-1,1,-1,0
1480605884284574,-1,-2,-1,-1,-1,-3,0,-1
1480605884288084,0,0,0,-1,-2,1,0,0
1480605884288084,-2,0,0,-2,0,0,0,0
1480605884296607,-2,-1,0,-1,0,0,-1,-1
1480605884296607,0,-1,-1,0,-1,-1,0,-1
1480605884303626,0,-2,-2,-2,-1,2,0,-1
1480605884303626,-1,-2,-1,0,-2,-2,0,1
1480605884326687,-2,-2,-2,-2,1,-1,-1,0
1480605884326687,0,0,1,-1,-2,1,0,0
1480605884330198,-1,-1,-1,-1,0,-1,0,0
1480605884330198,0,-1,0,0,-1,-1,-1,-2
1480605884334208,0,0,0,0,1,-2,0,0
1480605884334208,-1,-1,-2,-1,0,0,-1,0
1480605884335711,0,-1,1,-1,-1,0,0,-1
1480605884335711,-2,0,0,0,-1,0,-2,0
1480605884357268,1,-1,-1,0,0,-1,1,0
1480605884357268,-1,-1,-1,-2,0,-1,-1,0
1480605884358772,0,0,0,0,-1,1,-1,0
1480605884358772,1,0,0,0,0,-1,0,0
1480605884379831,-1,0,-2,-1,0,-2,-1,-1
1480605884379831,-3,-1,0,-1,-2,0,-1,-1
1480605884381332,-1,-1,-1,0,-1,-2,-1,0
1480605884381332,0,-1,-1,-1,-1,-1,-2,-1
1480605884401889,1,0,0,-1,-2,-2,1,0
1480605884401889,1,-1,-2,-2,-1,-1,0,-1
1480605884403391,-1,-2,0,0,-1,-2,0,-1
1480605884403391,-1,0,0,0,-2,0,1,-1
1480605884417428,1,0,0,0,0,-1,0,-1
1480605884417428,-1,-1,-1,0,1,0,-1,-1
1480605884418933,1,0,1,0,0,-1,1,1
1480605884418933,-1,1,-1,-1,0,0,0,2
1480605884446506,-2,-1,0,-1,-3,0,-1,-1
1480605884446506,-1,-2,-3,0,-1,-1,-1,-1
1480605884455530,0,0,-1,-1,-1,1,0,-2
1480605884455530,0,-2,-2,-2,0,0,0,-1
1480605884456532,-2,1,-2,0,2,0,-1,0
1480605884456532,-2,-1,0,-1,-2,-2,-1,2
1480605884468063,-1,1,-2,-1,-1,-3,-1,-1
1480605884468063,-2,0,-1,-1,-1,-2,0,1
1480605884476590,-1,-2,0,1,0,1,3,1
1480605884476590,2,0,0,0,-1,0,-1,0
1480605884478591,-2,-2,-2,-1,-3,-1,0,-1
1480605884478591,0,0,0,-2,-1,-1,0,-1
1480605884516191,0,0,-1,-1,-1,-1,1,1
1480605884516191,0,-1,-1,0,0,-2,-1,0
1480605884518197,0,0,-1,0,-3,-1,-3,-2
1480605884518197,0,-1,-2,-7,0,-1,0,-2
1480605884518699,-1,-1,-1,-7,-3,-1,-3,-2
1480605884518699,0,0,0,-4,1,-1,-1,0
1480605884521706,-2,-2,0,-1,-1,-2,-2,0
1480605884521706,-2,-2,0,3,-1,-2,0,0
1480605884560809,-1,0,-1,1,0,1,-1,-1
1480605884560809,-1,1,0,1,-1,-2,-1,-2
1480605884562314,0,1,-1,1,1,0,-2,0
1480605884562314,0,1,0,0,1,0,0,-1
1480605884563316,0,-3,-1,-1,0,-1,-1,-2
1480605884563316,1,-1,-1,0,-1,-1,-1,-2
1480605884566826,0,1,1,0,1,0,1,0
1480605884566826,1,-1,0,1,0,0,-2,-1
1480605884573343,0,0,-1,-1,-1,-1,-2,-1
1480605884573343,0,-1,-1,0,2,0,1,-1
1480605884581866,0,0,0,0,0,-1,0,0
1480605884581866,-1,-2,0,-1,0,1,0,-2
1480605884596908,-2,0,0,0,-1,-1,0,0
1480605884596908,-1,1,-1,-1,-2,0,0,0
1480605884598413,0,0,-1,-1,-2,1,0,0
1480605884598413,1,0,-1,0,-2,3,0,2
1480605884619468,0,-2,-1,-1,-1,0,0,0
1480605884619468,-2,0,1,-1,0,0,0,-3
1480605884620970,-2,0,-3,-1,-2,-1,0,-1
1480605884620970,0,0,-2,-1,-1,0,-2,0
1480605884634004,-1,-1,-1,0,-1,-1,-1,-1
1480605884634004,0,-1,-1,0,-1,0,0,1
1480605884640522,0,-1,-1,-2,-1,-1,-2,0
1480605884640522,-2,-1,-1,0,-1,1,-1,-2
1480605884657567,2,1,2,-1,0,1,1,3
1480605884657567,0,-2,1,-1,-1,0,-1,-1
1480605884660074,-1,0,-1,-1,0,0,0,-3
1480605884660074,0,0,-2,0,-1,-2,-1,-1
1480605884679125,1,1,1,-2,0,0,1,-1
1480605884679125,0,-2,-1,0,0,-1,0,-1
1480605884680629,-1,-1,1,-2,0,0,0,0
1480605884680629,0,0,0,0,0,0,0,0
1480605884693663,-1,-2,-1,-1,0,1,-3,-3
1480605884693663,-1,-1,-1,-2,-2,0,-3,1
1480605884700181,1,0,1,0,-2,0,0,0
1480605884700181,-1,-1,-1,1,0,-1,0,0
1480605884716724,-3,-3,-1,0,-1,-2,0,-2
1480605884716724,0,2,1,-2,0,1,2,0
1480605884718229,0,0,-1,-3,-1,-2,-1,0
1480605884718229,-1,0,-1,1,-1,0,-1,0
1480605884746804,1,2,0,-1,0,-1,-1,0
1480605884746804,0,0,-1,0,0,-1,0,-1
1480605884748308,-1,1,-1,1,0,-1,0,1
1480605884748308,2,1,-1,1,-1,-1,2,1
1480605884753323,-1,-2,0,-3,-1,-2,0,-2
1480605884753323,-1,0,-2,1,-2,-1,-1,-2
1480605884792426,-1,0,-1,0,1,-2,-2,0
1480605884792426,-3,-2,-1,0,0,0,0,-2
1480605884793429,0,-1,-2,0,1,0,-1,-2
1480605884793429,-1,1,1,-2,-1,-2,-1,0
1480605884794933,-1,-2,-4,-2,-2,0,0,-2
1480605884794933,0,-2,-1,-2,-1,-1,-3,-1
1480605884799444,0,0,-3,1,0,1,0,0
1480605884799444,0,-1,-1,-2,-1,-1,-1,-2
1480605884801952,-1,0,0,0,0,0,0,-1
1480605884801952,-1,0,-1,-3,0,-1,0,0
1480605884821503,0,-2,-2,1,-1,-1,-1,2
1480605884821503,-1,0,-2,0,0,-1,-1,0
1480605884828020,1,0,1,1,1,1,0,-1
1480605884828020,-3,0,0,-2,-2,0,-1,0
1480605884836545,0,1,0,0,0,-1,-1,-1
1480605884836545,1,0,0,1,2,0,0,1
1480605884838549,0,-1,-1,-3,-4,-2,-2,0
1480605884838549,1,-2,0,-1,0,0,0,-1
1480605884859103,-2,-1,1,0,-2,-1,-1,0
1480605884859103,-1,-2,-2,-2,-1,1,0,-1
1480605884861110,0,-1,-2,-1,-1,0,1,-1
1480605884861110,1,0,-1,-1,-2,-2,0,-1
1480605884872639,-1,-1,-1,-2,-1,0,-1,0
1480605884872639,1,-2,1,-1,-1,0,-1,0
1480605884881663,1,-1,1,2,-1,-2,-2,-1
1480605884881663,-1,-1,-1,0,-2,-2,-2,-2
1480605884896704,-1,-1,-1,0,-3,-1,0,1
1480605884896704,-2,-1,-2,-1,0,-3,0,-2
1480605884902721,-4,-2,-1,-3,-1,-1,-1,-2
1480605884902721,2,2,1,2,1,1,0,3
1480605884919265,-3,-2,-1,-1,0,-1,-1,-3
1480605884919265,-1,-2,-1,2,-1,0,-1,0
1480605884925279,0,-3,-1,0,0,0,0,0
1480605884925279,-1,-3,-1,-1,-2,-3,-2,-2
1480605884932800,0,0,-1,-1,0,0,0,0
1480605884932800,1,1,-1,0,1,1,0,0
1480605884941824,0,1,0,-2,-1,-1,-1,1
1480605884941824,-2,-1,1,-1,-2,2,0,0
1480605884957364,1,0,0,2,0,0,1,-1
1480605884957364,-3,-3,-2,-3,-2,-1,-1,-2
1480605884958868,-1,-2,-2,1,-1,-2,0,-1
1480605884958868,-2,-1,-3,-3,0,-2,0,-1
1480605884979424,-1,-1,-1,-1,-4,-3,-1,-1
1480605884979424,1,0,2,0,0,1,0,1
1480605884980927,-1,1,-1,0,-2,0,-1,0
1480605884980927,-1,0,0,-1,-1,0,-1,-1
1480605884992959,-1,-1,1,-2,1,-1,-2,-1
1480605884992959,0,-1,0,0,-3,-3,0,0
1480605885001984,0,-1,-2,1,1,0,0,1
1480605885001984,-1,-1,-2,1,-1,0,-1,1
1480605885016021,0,0,-1,0,-1,-1,0,0
1480605885016021,-1,-1,-1,-2,0,-2,0,0
1480605885025546,-2,0,-1,-2,-2,-1,0,-1
1480605885025546,-1,0,-2,-2,-1,-2,0,-1
1480605885070666,0,0,-1,-2,0,0,-1,0
1480605885070666,0,-1,0,-1,-2,0,-2,1
1480605885072170,-1,-2,1,1,1,0,0,-1
1480605885072170,-1,-3,0,0,-1,-2,-1,-2
1480605885073212,-1,0,0,-2,-2,-3,1,-3
1480605885073212,-2,0,-1,0,-1,-1,0,-1
1480605885078688,0,0,-1,0,-2,-2,0,1
1480605885078688,1,-1,0,0,0,1,0,-1
1480605885079694,1,-2,0,0,-2,0,-2,0
1480605885079694,-1,-1,-1,-2,-1,-1,-1,-2
1480605885082698,-1,1,0,-2,-2,0,0,0
1480605885082698,-2,-1,-2,-1,0,0,-1,-2
1480605885099242,-1,-1,-1,1,2,0,0,0
1480605885099242,-2,-2,-3,0,-2,-1,0,-2
1480605885100746,1,1,-1,0,0,0,-2,0
1480605885100746,0,-1,0,0,-1,0,-1,-1
1480605885112778,-1,0,-1,-1,-1,0,0,-1
1480605885112778,0,-1,1,-1,0,0,1,-1
1480605885121802,-1,0,1,1,1,0,0,-2
1480605885121802,-1,1,-3,-1,0,-2,-1,-1
1480605885137344,-1,0,0,-1,1,0,-1,-1
1480605885137344,-2,-1,-1,-1,-2,0,0,0
1480605885138848,1,0,0,-3,-2,-2,-1,0
1480605885138848,-1,-2,1,1,1,1,0,0
1480605885159402,-2,-1,-2,-3,-3,0,-1,1
1480605885159402,1,1,0,1,0,0,-1,1
1480605885160906,-1,-2,-2,1,0,0,-1,-1
1480605885160906,-2,-2,-1,1,-1,-1,-1,-1
1480605885172938,1,-1,-2,-1,-1,-2,-1,0
1480605885172938,-1,-1,0,0,-2,-1,0,-1
1480605885181962,-1,-1,-2,-2,0,0,-2,-2
1480605885181962,0,-1,-1,-1,-2,-1,1,0
1480605885196503,0,-1,0,1,-1,0,-2,0
1480605885196503,0,0,-1,-2,0,-1,-3,1
1480605885198506,0,0,0,-1,0,0,0,0
1480605885198506,0,-2,1,-2,-2,-1,-1,-1
1480605885219064,0,0,1,1,-1,-3,2,0
1480605885219064,-1,0,-1,-2,-1,0,0,0
1480605885221066,-1,-2,1,-1,-1,0,1,1
1480605885221066,-1,0,1,-2,-2,-2,-1,1
1480605885233099,1,-2,1,1,1,1,1,0
1480605885233099,0,0,1,0,-2,-1,-1,0
1480605885241620,1,-1,-2,-1,0,-1,0,0
1480605885241620,-1,0,-4,0,-1,1,-1,-2
1480605885256662,0,0,-1,-2,0,0,1,0
1480605885256662,-1,-1,-1,0,1,0,0,-2
1480605885260170,0,-3,-1,-1,-1,-1,-3,-2
1480605885260170,0,0,0,-1,0,-2,0,-1
1480605885293259,1,-1,0,-1,-1,0,-1,-1
1480605885293259,-3,0,-2,1,-1,-2,0,-1
1480605885304790,-1,-2,-1,1,-1,0,-1,-2
1480605885304790,-1,-1,1,0,-1,0,0,1
1480605885305792,-2,-1,-2,0,0,-1,0,-2
1480605885305792,0,1,0,-1,-1,-1,0,-1
1480605885307796,0,0,1,-2,0,-1,-1,-1
1480605885307796,-1,-1,-2,0,1,0,1,0
1480605885323839,0,1,-2,-2,-1,-2,-2,-1
1480605885323839,0,-1,-1,-1,-1,0,1,1
1480605885330859,-1,0,-2,-2,0,0,0,-1
1480605885330859,-1,0,0,0,-2,0,-1,0
1480605885339381,0,-1,0,0,-1,-1,-1,0
1480605885339381,0,-1,1,-1,-1,-1,-1,-1
1480605885340885,-1,0,-1,1,0,0,0,-1
1480605885340885,0,-1,-1,-1,0,-1,0,1
1480605885369462,-3,-1,1,-1,-2,-1,1,-1
1480605885369462,0,0,1,0,-1,0,-2,-1
1480605885370965,0,0,0,-1,-2,-1,0,0
1480605885370965,0,-1,-2,-2,-1,-2,-1,-3
1480605885375477,-2,-2,-1,0,0,1,0,-1
1480605885375477,-2,-2,0,0,0,-1,-1,-1
1480605885384501,-1,1,0,0,1,-1,-1,0
1480605885384501,0,-1,-1,0,0,-1,0,-2
1480605885399542,0,0,0,-1,0,0,-1,1
1480605885399542,-2,0,-1,0,-2,-2,0,-1
1480605885401046,0,-1,-1,0,-1,-2,-1,-1
1480605885401046,-1,-1,-1,0,-1,0,-1,1
1480605885422602,-2,0,-1,0,1,0,0,-1
1480605885422602,1,0,-1,-1,0,-1,0,0
1480605885424106,0,0,-2,-1,-1,0,-1,0
1480605885424106,1,1,1,-1,-2,-2,0,0
1480605885436141,0,0,-1,-1,-1,-3,-1,-2
1480605885436141,0,0,-1,-1,2,0,0,-1
1480605885442656,-1,-1,-1,0,-1,-3,-1,2
1480605885442656,-1,-3,0,0,1,-1,-1,0
1480605885458197,0,1,-1,-2,-2,-1,-2,1
1480605885458197,-1,-2,0,0,-3,0,-2,-1
1480605885466720,0,-1,0,0,-2,-1,0,0
1480605885466720,0,0,-1,-1,1,1,0,0
1480605885481759,-1,-2,0,-1,-2,0,0,1
1480605885481759,-1,-1,-1,0,0,-1,0,0
1480605885483263,0,-2,-2,-1,0,-1,1,0
1480605885483263,0,-1,-2,-1,-3,-1,-2,-1
1480605885496300,0,0,0,-1,-2,-3,-1,-1
1480605885496300,1,-1,-1,-1,1,0,0,1
1480605885502820,-1,0,0,-3,-2,-1,0,0
1480605885502820,-1,0,0,1,-3,-1,1,0
1480605885526379,0,-2,0,-1,0,0,-1,-1
1480605885526379,0,-1,0,-1,-1,0,-1,-1
1480605885532896,0,-2,1,-1,-2,0,0,-1
1480605885532896,1,0,0,-1,1,0,-1,2
1480605885541922,-1,-2,0,0,-2,-1,0,-1
1480605885541922,1,-1,0,2,-1,-1,-1,-1
1480605885543424,0,0,-1,-1,1,1,0,-2
1480605885543424,0,0,2,-1,1,1,-1,-2
1480605885572502,0,-1,1,0,0,0,-1,1
1480605885572502,-1,-2,0,-2,-1,0,0,-2
1480605885574005,-1,0,-1,0,0,-2,-2,0
1480605885574005,-1,-2,0,0,-2,1,1,-1
1480605885580021,1,-1,-2,-3,0,0,-1,0
1480605885580021,-2,1,-1,-2,1,0,-2,0
1480605885581525,0,0,0,0,-3,-1,1,0
1480605885581525,0,-1,-3,0,0,0,0,-1
1480605885609098,0,-1,0,1,1,1,-2,0
1480605885609098,-1,0,-2,0,-1,-1,0,-2
1480605885618624,-2,0,1,-2,-1,-2,0,-2
1480605885618624,-2,0,-2,-2,0,-1,0,0
1480605885619127,1,-1,-2,0,0,1,1,-2
1480605885619127,0,-2,0,-1,1,-1,-1,0
1480605885623136,-1,-1,-1,0,0,0,-1,1
1480605885623136,0,-1,0,-1,0,-1,1,0
1480605885639179,0,0,0,-1,-2,0,-1,-1
1480605885639179,-1,-1,-2,0,-2,-2,0,0
1480605885640683,-1,-1,-2,-1,0,0,0,0
1480605885640683,-1,-3,0,-2,-1,-1,-1,-1
1480605885661738,-1,1,0,0,-1,1,0,0
1480605885661738,0,-1,0,-2,1,1,0,1
1480605885663244,0,0,1,0,-3,-3,-1,1
1480605885663244,0,0,-1,0,0,-1,-1,-1
1480605885675275,-1,-2,-3,-1,0,-1,-1,0
1480605885675275,0,-1,1,-1,-1,-2,1,-1
1480605885684299,1,-1,0,-1,0,-1,-1,-2
1480605885684299,-2,0,-1,-1,0,0,-1,2
1480605885699338,-1,-2,0,0,2,0,0,-1
1480605885699338,-2,0,-1,0,-2,1,1,0
1480605885700843,-1,-1,-2,0,0,0,-1,-1
1480605885700843,1,0,0,1,-3,-1,-1,-2
1480605885721899,0,-1,0,-2,-2,0,-1,1
1480605885721899,1,-1,0,0,-1,0,-1,-1
1480605885723404,0,-1,-1,-1,1,0,0,0
1480605885723404,-1,0,-2,0,0,1,-1,-1
1480605885735938,-1,-1,-2,-1,0,-1,1,-2
1480605885735938,1,-1,-1,0,0,-1,-1,0
1480605885742954,1,-2,0,0,0,-1,0,-1
1480605885742954,-1,-1,1,-1,0,-2,0,-1
1480605885759499,-1,0,0,0,-1,0,-2,-1
1480605885759499,0,-2,0,-1,-1,0,-2,0
1480605885761003,0,-1,-1,0,-1,1,-1,-1
1480605885761003,-3,-1,-2,-3,0,2,-1,1
1480605885781558,0,1,-1,0,0,0,1,0
1480605885781558,0,-1,-2,0,0,-1,-1,-1
1480605885795595,-1,-1,0,-1,1,-1,-2,0
1480605885795595,2,-1,-1,0,0,-2,-1,0
1480605885811638,-3,0,0,-1,0,-1,0,0
1480605885811638,0,1,-1,1,-2,-2,-1,0
1480605885813142,-1,1,-1,-1,-1,-1,-1,0
1480605885813142,-2,0,-1,0,-4,-2,0,-1
1480605885819161,-1,-3,0,-1,0,1,-1,1
1480605885819161,-2,0,-1,1,-1,0,0,-2
1480605885820662,1,-3,-1,2,-1,1,1,0
1480605885820662,0,1,1,0,1,0,-1,1
1480605885840716,-1,-1,0,0,-1,-3,1,0
1480605885840716,-2,-1,-2,-1,-1,0,0,0
1480605885850240,-1,0,-1,-2,0,-1,-1,-1
1480605885850240,0,0,-1,1,-2,2,-1,-1
1480605885855254,-1,0,0,-1,0,0,0,-1
1480605885855254,0,-1,1,-1,0,-1,-1,-2
1480605885864278,0,-1,1,-1,0,-3,1,-3
1480605885864278,0,-4,-1,-1,0,-1,0,0
1480605885879819,0,0,-3,-2,-2,0,0,-2
1480605885879819,0,0,-2,-1,-1,-1,-1,0
1480605885881323,-1,0,0,1,-1,1,0,1
1480605885881323,-1,0,0,1,-1,0,-2,0
1480605885901878,1,-1,0,-1,-1,0,-1,-1
1480605885901878,1,0,-1,-1,2,0,0,-1
1480605885903382,-1,1,0,-2,-1,-1,-1,-2
1480605885903382,-1,0,-1,-1,-2,-2,0,-1
1480605885915413,1,0,0,1,-1,-1,-2,-2
1480605885915413,0,-1,-1,-2,-1,2,0,-1
1480605885931958,-1,-1,0,-1,0,0,-2,0
1480605885931958,2,-1,0,-1,-1,-2,1,-1
1480605885939479,0,-1,-2,1,0,-1,0,0
1480605885939479,-1,-1,0,-1,0,1,-2,-1
1480605885941984,-2,0,-2,-1,1,0,0,0
1480605885941984,-1,-1,-2,-1,1,-2,0,-1
1480605885969057,-1,0,-1,1,-4,1,-1,1
1480605885969057,-1,0,0,-1,-2,-1,0,-1
1480605885971061,0,-2,1,-1,-1,1,-1,0
1480605885971061,0,-1,0,0,-1,-1,-1,0
1480605885975574,0,1,0,-1,0,-1,0,-1
1480605885975574,0,-1,-2,1,0,0,0,-1
1480605885984598,-1,0,-2,-1,0,-1,-2,-1
1480605885984598,0,0,0,-1,0,0,0,-1
1480605885999138,-1,-3,-2,-1,-1,-1,-2,-1
1480605885999138,0,-1,-1,1,-2,-1,-1,-1
1480605886000640,0,0,-1,-1,-2,0,1,0
1480605886000640,0,0,0,0,0,1,0,-2
1480605886021696,-2,1,-1,-2,1,-3,-1,0
1480605886021696,0,-2,-1,0,0,-1,-1,-1
1480605886024203,1,-1,-2,0,-3,1,-1,-1
1480605886024203,-2,0,1,0,0,-2,-2,-1
1480605886035233,-2,-1,0,-2,-2,-1,0,-1
1480605886035233,0,0,0,-3,-1,0,-1,1
1480605886045260,-2,0,-1,0,-1,1,0,-1
1480605886045260,-1,-2,-1,-2,0,0,-1,-2
1480605886058795,-1,-1,0,0,-3,-1,-1,-1
1480605886058795,-1,1,-2,-1,0,-1,-1,1
1480605886066816,1,-1,-2,-1,-3,-1,1,-1
1480605886066816,0,0,-1,-1,-1,-1,0,0
1480605886080853,2,-1,0,1,0,-1,-2,1
1480605886080853,-1,-2,-2,-2,-3,-2,-1,1
1480605886089376,-2,0,0,0,-2,1,-2,0
1480605886089376,0,-1,-2,-1,-1,-1,0,0
1480605886111937,-1,1,-1,1,0,2,-1,-2
1480605886111937,0,1,0,1,0,2,0,0
1480605886113440,0,-3,-3,1,1,-1,0,0
1480605886113440,-2,0,0,-1,-1,-1,-1,0
1480605886126475,-2,-2,0,-1,-1,2,0,0
1480605886126475,-2,0,0,-2,-1,-3,-1,0
1480605886128480,-1,-2,0,-1,0,0,-1,0
1480605886128480,0,1,0,0,0,-1,-2,0
1480605886142016,1,-2,1,-1,0,-1,-1,-2
1480605886142016,1,-1,1,1,-1,0,-2,-1
1480605886144522,-1,-1,0,-1,-1,-1,-1,-1
1480605886144522,-1,0,0,0,-1,-1,-1,1
1480605886155553,-1,0,-1,-1,0,-2,-1,-1
1480605886155553,-2,-2,-1,1,0,0,0,-1
1480605886164577,-1,-2,1,-2,1,-2,0,0
1480605886164577,-1,-1,-1,-1,0,1,-1,0
1480605886178614,0,0,0,0,-1,-2,0,0
1480605886178614,0,-1,-1,-1,-2,-3,-1,-3
1480605886185634,0,1,-1,0,-1,-1,1,-1
1480605886185634,-1,-1,-1,1,0,0,-1,-1
1480605886201675,-2,1,-1,-1,0,0,2,0
1480605886201675,-1,-1,-2,-1,-1,-2,-1,-1
1480605886203188,-1,0,1,-1,-2,0,-1,-1
1480605886203188,-1,-2,-2,-1,-2,-2,2,-2
1480605886224235,0,0,-2,1,2,-2,-1,-1
1480605886224235,-1,-1,-1,-4,0,0,-1,0
1480605886225739,-1,0,0,-1,-1,-2,0,1
1480605886225739,1,0,0,-1,0,-1,-1,0
1480605886238273,-1,-1,-1,2,-1,1,0,1
1480605886238273,-1,-1,-1,0,0,0,0,-1
1480605886246795,0,0,-1,-1,0,-1,0,-2
1480605886246795,-1,0,1,1,-1,1,0,-1
1480605886261835,0,0,0,0,-1,-1,-1,-1
1480605886261835,-2,0,0,1,0,-1,1,1
1480605886263339,0,0,-2,-1,-1,0,0,0
1480605886263339,0,-1,-2,-3,0,-1,-1,0
1480605886284394,-1,-1,-2,-2,-1,-1,-1,-1
1480605886284394,0,1,-1,1,-1,0,-1,0
1480605886285901,1,1,0,-1,0,-2,0,-3
1480605886285901,-2,0,-1,-2,-3,-2,-2,-1
1480605886299436,-1,-2,-2,-1,0,1,-3,0
1480605886299436,0,0,0,-1,0,1,-1,0
1480605886300939,-1,-1,-1,0,-1,-2,0,1
1480605886300939,0,-1,-1,0,-1,-2,-1,2
1480605886322497,-1,0,-1,0,-2,-1,0,0
1480605886322497,0,-1,1,0,0,-1,0,-1
1480605886324001,0,0,0,1,0,0,-1,-1
1480605886324001,0,1,-1,-2,-3,0,0,-2
1480605886351072,-2,-1,1,-1,-2,0,0,1
1480605886351072,0,-1,1,-1,1,-1,-1,0
1480605886369122,0,-1,-1,0,-1,0,-1,0
1480605886369122,-2,-2,-1,0,-1,0,-3,-1
1480605886369624,-1,0,1,-1,1,-1,-1,-1
1480605886369624,-1,-1,-2,0,-2,-2,-1,0
1480605886372630,-1,-1,-1,-1,0,-2,-1,1
1480605886372630,0,0,-2,1,0,-1,0,-1
1480605886380652,1,1,-1,0,-2,-1,-1,-1
1480605886380652,-1,0,-2,-2,-2,0,1,-1
1480605886396694,0,0,0,1,-2,-1,0,-2
1480605886396694,-2,0,1,-2,0,-1,-1,0
1480605886404214,0,-1,-2,-2,-1,-1,0,-1
1480605886404214,1,-1,-1,-1,1,0,-2,-1
1480605886405718,-2,1,0,0,-3,-2,-1,-1
1480605886405718,-1,0,-1,0,2,-2,-2,0
1480605886418753,-1,0,-1,-2,-1,-2,-2,-1
1480605886418753,-2,0,-1,-1,0,0,1,-1
1480605886425270,-1,-1,0,-2,0,0,0,-2
1480605886425270,0,-1,0,0,-2,0,1,0
1480605886441814,0,1,0,-1,-2,0,-2,-1
1480605886441814,1,-1,0,1,-1,1,0,-1
1480605886443320,-1,-2,-3,0,-2,0,-1,1
1480605886443320,-1,0,0,-1,-1,0,0,-1
1480605886464374,2,0,-2,-1,-1,0,0,-2
1480605886464374,-1,-1,-2,-1,1,-2,0,-1
1480605886465878,0,-1,0,0,2,-1,-1,0
1480605886465878,-1,0,-2,-1,-1,1,0,-1
1480605886494454,-2,-1,0,-1,-2,0,-2,-1
1480605886494454,-1,-1,-2,-2,-1,0,0,-1
1480605886495958,-1,0,0,0,1,0,0,-1
1480605886495958,0,-1,-1,1,1,-1,1,-1
1480605886501976,-2,-2,-3,0,-1,-2,0,0
1480605886501976,0,1,1,0,-2,-2,1,-1
1480605886503478,0,-1,0,0,0,-1,-1,0
1480605886503478,-1,-1,0,0,-2,-1,0,1
1480605886524039,-1,-2,1,-2,-1,0,-1,-1
1480605886524039,-2,-1,1,0,0,-2,-2,-1
1480605886530551,0,-1,-1,-1,-1,0,0,0
1480605886530551,1,-1,1,-1,-2,-1,0,-2
1480605886539073,2,-1,-1,0,0,-2,0,0
1480605886539073,0,-2,-3,-2,0,0,-2,-1
1480605886545590,0,-1,-1,0,-1,-1,0,-1
1480605886545590,-1,-1,0,0,1,-1,0,-1
1480605886561634,0,0,0,1,1,0,0,0
1480605886561634,-2,1,0,-1,0,-2,0,0
1480605886563639,0,0,-2,-2,-2,-1,-1,-1
1480605886563639,0,0,0,-2,-1,-2,0,0
1480605886591713,0,0,0,0,-1,0,0,1
1480605886591713,-2,0,0,1,0,1,-3,0
1480605886593217,-2,0,1,-1,0,1,-1,-1
1480605886593217,-2,-1,-1,-1,-2,0,-2,0
1480605886598732,-2,0,-2,-1,0,-1,0,0
1480605886598732,0,-1,1,0,0,1,-2,1
1480605886605249,-1,0,-2,1,-3,-1,0,0
1480605886605249,-1,1,-1,-1,-2,0,-1,-1
1480605886635832,0,1,0,-1,0,0,-1,0
1480605886635832,2,-1,-1,-1,-1,-1,0,0
1480605886646358,0,-1,-1,-3,-1,0,-2,0
1480605886646358,0,-3,-2,-1,-1,0,-1,1
1480605886647361,0,0,-1,0,0,-2,-2,-1
1480605886647361,-1,-1,-1,0,1,0,1,1
1480605886650369,-2,-1,-1,0,-1,0,-1,1
1480605886650369,0,-1,0,1,-1,-1,-1,0
1480605886658892,-1,-2,-1,-1,1,1,0,0
1480605886658892,0,-2,0,-2,-2,-1,-1,-1
1480605886666913,0,-1,-1,1,-1,-1,-1,0
1480605886666913,-1,1,-1,-2,0,0,0,0
1480605886681953,0,0,1,0,-1,0,0,0
1480605886681953,1,-1,0,0,0,-2,0,0
1480605886683456,0,-1,-2,0,0,-2,0,0
1480605886683456,-2,-1,1,-1,0,-1,-1,-2
1480605886704011,-1,-2,-2,-1,-2,0,0,0
1480605886704011,0,0,-1,-4,-2,-1,0,-1
1480605886706017,1,-2,0,-2,1,-1,-1,-2
1480605886706017,0,0,-1,1,2,0,0,0
1480605886734092,0,0,0,1,-1,0,-1,-2
1480605886734092,0,-1,0,-1,-1,0,-1,-2
1480605886736099,0,-2,0,-3,-1,-1,-1,0
1480605886736099,-1,-1,0,0,0,0,-1,0
1480605886742614,-3,-3,0,-1,0,-3,1,0
1480605886742614,-1,-1,-3,0,-1,-2,0,-1
1480605886744118,0,1,1,-4,0,-1,0,-1
1480605886744118,0,0,-1,0,-2,-1,0,-2
1480605886764173,1,-1,0,-1,1,-1,-1,-2
1480605886764173,-2,0,-1,2,-1,1,-1,-3
1480605886765676,-1,0,-1,-1,-1,-1,-1,-2
1480605886765676,-1,-1,0,-1,-2,-2,-1,0
1480605886778209,0,0,0,0,0,-1,1,-1
1480605886778209,-1,-1,-2,1,-1,-2,1,0
1480605886786732,1,0,-1,0,1,2,0,0
1480605886786732,-1,1,-2,-1,-3,1,1,1
1480605886801771,-1,-3,-1,0,1,0,-1,0
1480605886801771,-1,0,-1,-1,-2,0,-1,-1
1480605886803276,0,0,-1,0,-2,1,-1,-1
1480605886803276,0,0,1,0,0,-2,-1,1
1480605886824332,-1,0,1,0,0,-1,0,0
1480605886824332,-1,1,-1,0,-1,0,0,-1
1480605886825836,-2,-1,-1,-1,0,-1,-1,0
1480605886825836,0,0,0,1,0,-1,0,-1
1480605886837868,-2,1,0,0,-1,-2,-2,1
1480605886837868,0,-2,-1,-1,2,0,-1,1
1480605886871457,-2,-2,-1,1,-1,-2,-1,-1
1480605886871457,0,1,-1,-1,-2,1,2,-2
1480605886871959,0,2,0,0,-1,0,1,-2
1480605886871959,-1,0,0,0,-2,0,-2,-1
1480605886875467,0,0,0,1,-1,-2,-1,0
1480605886875467,-2,-2,-2,-1,1,-1,0,-1
1480605886898529,-1,0,-2,-1,0,-1,-1,-2
1480605886898529,-1,0,1,1,0,-2,0,-1
1480605886924097,-1,-1,-2,0,0,-1,0,0
1480605886924097,-1,-2,0,-1,0,0,-2,-2
1480605886924598,-1,-3,-1,-2,-1,-1,0,0
1480605886924598,0,-2,-1,-1,0,-1,-1,1
1480605886929110,0,1,1,-1,-2,1,-1,-2
1480605886929110,-1,0,0,-1,-2,0,-1,-2
1480605886930114,0,-1,-1,-3,-1,-2,-2,-3
1480605886930114,-1,-1,1,-1,0,0,-1,1
1480605886943649,-1,1,-1,-1,-1,-1,0,1
1480605886943649,0,-1,0,-2,0,-1,0,-1
1480605886952175,-1,0,0,0,0,-1,-1,-1
1480605886952175,0,-1,0,1,0,-2,0,-1
1480605886966710,-2,-1,-1,1,-1,-1,-2,-1
1480605886966710,0,-1,-3,-1,0,0,-1,0
1480605886968215,-2,-2,-2,-2,1,0,-1,3
1480605886968215,-1,-1,-1,-1,0,-1,-2,0
1480605886980747,1,-2,-2,-1,-3,0,-1,-1
1480605886980747,-1,1,0,-1,-2,0,1,0
1480605886995286,1,1,-1,0,1,-2,0,-2
1480605886995286,-2,-1,-1,0,0,0,-2,-1
1480605887004311,1,-2,0,0,1,-1,-1,-2
1480605887004311,-1,-2,-1,-1,0,-1,-2,-1
1480605887005815,-1,-2,2,-1,-2,-1,2,0
1480605887005815,-1,-1,-1,-2,-2,-1,2,1
1480605887017846,-1,0,-2,-3,0,-1,-1,0
1480605887017846,0,0,-1,-1,-1,-1,0,-1
1480605887032887,-1,-1,-1,-2,-2,-1,0,-1
1480605887032887,1,0,-1,-1,-2,0,-1,-1
1480605887049431,-1,0,0,0,0,0,2,1
1480605887049431,1,0,-3,0,0,-1,0,0
1480605887050935,0,-2,-1,-1,0,0,-1,-1
1480605887050935,-2,-1,1,-1,0,0,0,0
1480605887064471,0,1,1,0,1,-1,-1,1
1480605887064471,0,0,0,-1,0,0,-2,0
1480605887065975,0,0,-1,-1,-2,0,-1,-1
1480605887065975,-1,-2,0,-2,-2,-2,-1,0
1480605887078006,0,-3,-1,-1,-2,-1,0,-1
1480605887078006,0,-1,1,1,-2,-2,2,-1
1480605887104076,0,0,0,-1,0,0,-2,-2
1480605887104076,0,-1,-1,-1,1,0,1,0
1480605887104578,-1,-1,-2,-3,-3,1,-1,-2
1480605887104578,0,-1,-1,-1,-2,-3,0,-1
1480605887108087,0,1,-1,-1,-3,-1,0,0
1480605887108087,-2,0,0,-1,2,-1,-1,0
1480605887148193,0,0,0,0,0,-2,0,0
1480605887148193,-1,-1,-2,-1,-3,-1,0,1
1480605887149697,0,-2,-2,1,1,-1,-1,0
1480605887149697,-1,0,-2,-2,1,-1,0,-1
1480605887150700,0,0,-2,-1,1,0,-1,-2
1480605887150700,0,-1,-1,-1,0,-1,-1,-2
1480605887154209,-1,0,0,-2,-2,-2,0,1
1480605887154209,-1,-2,-3,1,-2,-2,-1,0
1480605887162231,0,-1,-1,-1,-1,-2,1,-1
1480605887162231,-1,1,-1,0,-1,1,0,1
1480605887164236,-1,-1,0,0,0,-1,-1,-2
1480605887164236,-1,-2,-2,-1,0,0,1,-2
1480605887184290,-1,-1,0,1,-1,-1,0,2
1480605887184290,0,-1,-1,0,-1,0,1,-1
1480605887185798,-1,0,0,-1,-1,-2,0,0
1480605887185798,1,0,0,2,-1,0,-2,-1
1480605887206849,0,-1,-1,0,0,-1,0,1
1480605887206849,-1,-1,-1,-1,-1,0,0,1
1480605887208353,0,-1,-1,-2,1,0,1,0
1480605887208353,1,0,0,-1,0,0,0,-1
1480605887221892,-1,0,-1,-2,0,-3,-1,-2
1480605887221892,-1,-1,-1,-1,0,-1,0,-2
1480605887223394,1,-1,0,-1,-1,-1,0,0
1480605887223394,-1,0,1,0,0,0,-1,-1
1480605887244449,-1,-1,1,1,-2,0,-1,-1
1480605887244449,0,-1,-1,0,-2,0,-1,-1
1480605887245953,-2,0,-1,-2,-2,-1,-1,0
1480605887245953,-1,-1,-1,-1,-2,-2,0,0
1480605887266508,-2,-1,-1,0,1,-1,-1,0
1480605887266508,0,-2,0,0,2,0,-2,-1
1480605887268514,1,-1,-2,0,0,-2,-1,-1
1480605887268514,-1,0,0,-1,0,0,-2,0
1480605887281046,-1,0,-1,-1,-1,0,0,-1
1480605887281046,-1,-2,0,1,-2,0,-1,0
1480605887288067,-2,0,-1,-1,1,0,-1,0
1480605887288067,1,-2,-1,-2,-2,-1,-1,0
1480605887305111,2,0,1,0,1,-1,0,1
1480605887305111,0,0,-1,-1,1,0,0,-3
1480605887306615,-1,-1,-1,0,-1,0,0,-1
1480605887306615,-2,-2,0,0,-2,0,0,-1
1480605887326668,0,0,0,-2,-2,-2,0,0
1480605887326668,0,0,0,-1,-2,2,0,-1
1480605887328172,0,1,-2,0,0,0,0,-1
1480605887328172,0,1,-1,0,0,0,0,1
1480605887341206,-1,-1,-3,-2,-1,2,-3,-1
1480605887341206,0,-2,-1,-1,0,-2,-1,2
1480605887347725,2,-2,0,1,0,1,-1,0
1480605887347725,-1,-2,-1,0,1,0,-1,0
1480605887370786,0,0,2,-1,0,-2,-1,-2
1480605887370786,-2,1,-1,1,0,-2,0,-2
1480605887379309,2,-1,-2,-1,0,-1,0,-2
1480605887379309,-1,0,-2,-1,1,-2,-2,-1
1480605887386828,0,1,0,0,-1,0,0,1
1480605887386828,0,0,0,-3,-1,-2,0,-2
1480605887388332,-1,2,1,1,0,1,0,0
1480605887388332,0,0,-2,-1,1,-2,0,-2
1480605887408385,1,-1,-3,0,1,1,0,-1
1480605887408385,-2,-1,-2,-1,-1,-2,1,1
1480605887426433,-2,-1,0,-1,-2,0,-2,-2
1480605887426433,-1,-2,1,0,0,0,0,0
1480605887426935,0,-1,1,1,2,-2,-2,-1
1480605887426935,0,0,-1,-1,-2,1,-1,-2
1480605887430446,-1,-2,-1,-1,0,0,0,1
1480605887430446,-1,-1,0,1,-2,0,-2,-1
1480605887446486,-1,-1,-1,-1,-3,-1,0,0
1480605887446486,-1,-1,1,0,0,0,-1,-1
1480605887477569,0,1,-1,-1,-2,-1,-2,0
1480605887477569,0,1,0,0,-1,-1,0,0
1480605887478071,0,-1,-1,-1,-1,0,0,-1
1480605887478071,0,1,-1,-1,1,0,-1,3
1480605887480076,-2,1,0,1,-1,0,0,0
1480605887480076,-1,0,0,-2,0,-1,1,-2
1480605887484590,-1,1,-1,0,-2,1,0,-1
1480605887484590,0,0,-1,-1,-2,0,0,1
1480605887490605,-1,-1,2,-1,-1,-3,-1,1
1480605887490605,0,-1,0,-1,-1,2,-1,0
1480605887514167,-2,-2,-1,0,-1,-2,0,1
1480605887514167,-1,0,-2,0,-1,-1,0,-1
1480605887515671,0,-2,-1,-3,-2,0,0,-1
1480605887515671,1,1,1,0,0,-2,-1,-1
1480605887521188,-1,0,0,0,0,-2,-1,0
1480605887521188,0,0,-1,0,0,-1,-1,1
1480605887527703,0,-1,-2,0,0,-2,-2,0
1480605887527703,0,0,-2,0,-1,-1,-2,-1
1480605887544247,1,-1,0,-1,0,-2,-1,-1
1480605887544247,0,-2,0,-1,1,0,-1,-1
1480605887545751,-1,0,0,0,0,0,0,-1
1480605887545751,-1,0,0,1,-2,-1,0,-2
1480605887566807,0,-1,-1,-2,-1,0,-2,0
1480605887566807,1,-2,-1,-1,-1,-1,-1,-3
1480605887568312,-1,-1,0,-1,-1,-1,1,0
1480605887568312,-1,-1,0,-1,1,-1,0,0
1480605887580844,-4,-3,0,-1,-3,-1,0,0
1480605887580844,0,0,0,-1,-1,0,0,0
1480605887589367,1,-2,-2,1,-1,0,1,-2
1480605887589367,-1,-1,-2,-1,0,1,-1,0
1480605887604908,0,0,-1,1,0,1,-2,-2
1480605887604908,1,0,0,-2,2,1,-2,-1
1480605887606412,-1,-1,-3,0,0,-2,-3,0
1480605887606412,1,1,-1,-1,-3,-2,-1,-2
1480605887633986,-2,0,-1,1,-1,0,0,0
1480605887633986,0,1,0,0,-2,-3,0,0
1480605887650028,0,-2,0,-1,-2,0,0,0
1480605887650028,0,-1,0,-2,0,0,-1,0
1480605887656546,0,2,0,-1,0,0,0,0
1480605887656546,0,-1,0,2,-2,-1,-1,1
1480605887658551,1,0,-1,-1,-1,0,-1,0
1480605887658551,-1,-1,-1,0,-1,-1,-1,0
1480605887664066,0,0,-1,-1,-2,0,0,0
1480605887664066,0,-1,0,-1,2,-2,0,0
1480605887666071,-2,0,-1,-1,-2,-1,1,0
1480605887666071,-1,0,-1,0,-2,-1,0,-1
1480605887693143,0,0,-2,0,-1,-1,0,-3
1480605887693143,-1,-1,-2,-1,-1,0,0,-1
1480605887702670,-1,-2,0,-1,1,0,1,-2
1480605887702670,-2,1,2,-2,0,1,-1,1
1480605887703170,1,-1,-1,-1,0,-1,-1,0
1480605887703170,0,-1,0,0,-1,0,-1,1
1480605887709689,0,2,0,1,1,-2,0,0
1480605887709689,1,-2,0,0,0,0,1,-1
1480605887724727,0,0,0,1,1,0,0,-1
1480605887724727,0,-1,-1,-2,0,-2,-1,-2
1480605887726231,-1,-1,0,0,-1,-2,-2,-1
1480605887726231,0,-2,-1,0,-2,1,1,-1
1480605887746786,0,0,0,0,-2,2,0,0
1480605887746786,0,0,0,0,0,-1,-1,-1
1480605887748290,0,-1,-2,-2,-1,0,-2,-1
1480605887748290,0,-1,-2,0,2,0,-1,-1
1480605887760322,-1,-2,-2,-2,-1,-2,-1,-1
1480605887760322,-1,-2,0,0,-1,0,0,1
1480605887792409,2,0,-1,1,0,-1,-1,-2
1480605887792409,1,0,0,-1,-4,0,-1,-1
1480605887793410,-1,0,-1,-1,1,0,-1,-1
1480605887793410,-2,0,0,0,-1,-1,0,0
1480605887799426,-1,0,0,0,1,0,1,1
1480605887799426,-1,-1,-1,0,0,-3,1,0
1480605887806946,-1,0,0,-1,0,-1,-1,-1
1480605887806946,0,-1,-1,-2,-2,0,0,-1
1480605887808450,0,0,0,0,-1,-1,-1,-1
1480605887808450,0,-1,-2,0,0,-2,-1,-1
1480605887820983,-2,-1,-2,0,-2,-1,1,-1
1480605887820983,-1,-1,-1,0,0,-1,-1,-2
1480605887829506,-1,0,-1,-1,0,0,1,1
1480605887829506,0,0,-1,0,0,-2,-2,0
1480605887844045,-1,-1,0,-1,1,-1,-2,-2
1480605887844045,-2,-2,0,0,0,1,0,-1
1480605887846050,-1,-1,-1,1,0,-1,-1,-2
1480605887846050,-2,0,0,-3,-2,0,0,-1
1480605887882145,0,1,-1,-2,0,-1,1,0
1480605887882145,0,-1,-2,-1,-1,-1,2,-1
1480605887889666,0,-2,1,1,-2,0,0,0
1480605887889666,-1,-2,0,-1,1,-1,-2,0
1480605887890669,-2,-1,-1,0,0,0,-1,-2
1480605887890669,0,1,-2,-1,-1,-1,-3,0
1480605887892172,0,0,-3,-2,-1,-1,0,0
1480605887892172,-1,-1,0,0,0,-2,0,-1
1480605887935793,0,0,0,-1,-3,0,-1,1
1480605887935793,-1,0,-2,-2,-1,-1,-1,-3
1480605887937293,0,-1,-1,-1,1,0,-1,0
1480605887937293,-1,-1,0,0,-2,-1,-2,0
1480605887937794,-1,0,-3,0,1,-1,-1,0
1480605887937794,-1,-3,0,0,0,-1,0,0
1480605887942306,-1,0,1,-2,-2,0,-1,-2
1480605887942306,1,0,-1,-3,1,0,2,-2
1480605887943309,0,-1,1,-1,-2,0,-2,0
1480605887943309,0,1,0,-1,0,-2,-2,0
1480605887956845,-1,0,-1,0,-2,0,0,-1
1480605887956845,-2,0,-1,0,0,-2,-1,0
1480605887979406,-5,-2,-2,0,-1,2,1,0
1480605887979406,-1,1,-2,0,0,-1,0,-2
1480605887980909,5,3,-1,-1,0,0,-1,0
1480605887980909,4,1,-2,-1,1,1,-1,1
1480605887986925,-12,-6,-3,-1,-1,-2,0,-1
1480605887986925,3,-1,0,-1,1,0,-2,1
1480605887988429,8,1,0,-1,0,-1,0,0
1480605887988429,-1,-1,-1,-1,-1,-1,-1,-1
1480605888025527,0,-1,-1,0,0,0,-1,-1
1480605888025527,-5,-2,1,-1,-1,2,0,-1
1480605888027031,-3,-1,-3,0,-1,-1,-1,0
1480605888027031,-6,-2,0,-1,1,0,0,0
1480605888028034,11,5,1,-1,-1,-1,0,-2
1480605888028034,-15,-4,-1,0,-3,-1,0,1
1480605888032045,3,0,0,-1,0,-3,-1,-1
1480605888032045,15,4,-2,0,-3,0,0,-1
1480605888046583,-15,-6,-2,-1,2,-2,-1,0
1480605888046583,11,3,-1,-2,-1,-1,0,-2
1480605888053100,-7,-1,0,-1,0,-2,-2,0
1480605888053100,-10,-3,-2,-1,-2,1,1,0
1480605888060621,5,1,1,-2,0,-1,-1,1
1480605888060621,-12,-6,-2,-2,-1,-1,-1,0
1480605888076663,12,3,-1,0,1,1,0,-1
1480605888076663,-2,0,-3,-2,0,0,-2,0
1480605888084686,2,2,-1,0,0,0,1,-2
1480605888084686,-2,-1,1,0,1,1,1,-1
1480605888086690,-5,-5,-2,-1,-1,-1,-1,-1
1480605888086690,-1,-1,0,-1,-1,-1,-2,0
1480605888106743,3,1,-1,0,0,-2,0,-1
1480605888106743,2,1,-2,0,-1,0,-1,1
1480605888108247,-18,-6,-2,-1,-2,0,0,0
1480605888108247,20,6,0,0,0,-1,0,1
1480605888129805,-4,-3,0,-1,-2,0,-1,0
1480605888129805,5,1,-1,-2,-2,-2,0,0
1480605888133314,-3,-2,-2,0,0,-2,0,0
1480605888133314,-9,-4,0,0,-1,0,0,-1
1480605888144845,2,0,0,0,-3,-1,1,-2
1480605888144845,2,0,-2,0,1,1,-1,-1
1480605888146350,1,-1,-1,-3,-1,0,-2,0
1480605888146350,-5,-3,-1,1,-2,-1,0,-1
1480605888166903,5,0,-2,-1,-1,-1,0,-3
1480605888166903,-1,-1,-2,0,-1,0,0,-1
1480605888168910,-2,0,0,-1,0,0,-1,-1
1480605888168910,-2,0,-1,0,0,-1,-1,0
1480605888195981,0,0,-1,-3,0,0,-2,0
1480605888195981,0,-2,0,0,0,-1,0,0
1480605888214030,-1,1,-1,1,-1,1,1,-1
1480605888214030,-1,0,1,0,-2,-1,-2,0
1480605888214530,2,0,-1,0,-2,-1,0,0
1480605888214530,-1,-1,-2,-2,-2,-2,-1,-1
1480605888218040,3,1,-1,-1,1,-2,-1,0
1480605888218040,-7,-4,-2,0,-1,-3,0,-2
1480605888258147,-1,-2,0,1,0,-1,-1,2
1480605888258147,4,1,2,-1,-1,0,1,0
1480605888260653,-2,-1,-1,0,-1,0,-1,-1
1480605888260653,-3,-1,-1,-1,0,-1,0,-1
1480605888261655,0,1,1,1,-1,-1,0,-1
1480605888261655,0,-1,1,0,0,-1,-2,0
1480605888266167,0,-1,1,-1,0,-1,-1,-2
1480605888266167,0,1,0,-2,0,1,0,0
1480605888267170,2,0,-1,-1,0,0,0,0
1480605888267170,-4,0,-2,0,-2,0,-1,-1
1480605888287223,-12,-3,-1,-1,0,-1,1,-1
1480605888287223,18,5,1,0,1,1,-1,0
1480605888288226,-4,-2,-2,-1,-2,-2,-1,0
1480605888288226,-2,0,0,1,0,-1,-1,1
1480605888289730,11,0,-1,-1,-2,-1,-2,-1
1480605888289730,-7,-3,0,1,0,0,0,-1
1480605888309783,-2,-2,-3,0,2,-1,1,-1
1480605888309783,0,1,-1,-3,-2,-1,0,-1
1480605888311288,-1,-2,-1,1,-1,-1,-2,0
1480605888311288,-3,-2,-2,-2,0,-3,1,-2
1480605888332344,4,2,0,0,-1,0,-3,-1
1480605888332344,-4,-1,0,-2,-1,-1,0,0
1480605888333848,0,1,-1,-1,-1,0,0,0
1480605888333848,-1,1,-2,0,-4,0,0,0
1480605888354402,-5,-1,-1,-2,-1,-1,0,0
1480605888354402,4,0,-1,0,-2,1,0,0
1480605888355906,1,0,1,-1,0,0,0,-1
1480605888355906,-1,-3,-2,0,0,0,0,0
1480605888385485,-1,1,0,-1,0,0,0,0
1480605888385485,1,0,-1,1,-2,0,-1,0
1480605888386989,0,0,-1,-1,-2,0,0,0
1480605888386989,-4,-3,-2,-2,0,-1,-2,-3
1480605888387992,-1,-1,0,-2,-1,-1,-1,0
1480605888387992,2,-1,-1,0,-1,-2,-1,0
1480605888392002,-3,-2,0,-2,-1,0,0,1
1480605888392002,-2,-1,1,0,-1,0,0,0
1480605888407042,1,-2,-1,1,0,-1,0,-2
1480605888407042,-10,-4,-3,-2,-1,1,-2,-1
1480605888420579,13,4,2,0,0,0,0,0
1480605888420579,-4,-1,-1,-1,-1,0,-1,0
1480605888445645,2,1,-1,0,-2,1,-1,0
1480605888445645,-6,-2,0,1,1,0,-2,-1
1480605888447149,-3,-1,-2,0,0,-1,0,1
1480605888447149,-1,-1,1,-1,-1,-1,-1,-2
1480605888448152,-3,-2,1,-1,-1,-3,-1,0
1480605888448152,3,2,0,-1,1,-2,1,-1
1480605888452165,-10,-3,-2,-2,-1,0,-1,-1
1480605888452165,13,2,-1,-1,-1,-2,-1,-1
1480605888490765,-4,0,-1,0,-1,0,-1,-1
1480605888490765,3,0,-1,0,0,1,-1,-1
1480605888492269,2,0,-1,0,1,0,0,1
1480605888492269,-10,-2,0,-1,-1,-1,0,-1
1480605888492770,1,0,-2,-3,0,-2,0,-2
1480605888492770,6,0,0,0,-1,-2,0,-1
1480605888497785,-18,-4,0,1,-1,-2,0,-1
1480605888497785,16,5,1,0,-1,0,0,2
1480605888528365,-1,-3,-2,-1,0,0,0,0
1480605888528365,2,-1,0,0,-1,0,0,0
1480605888530371,-3,-2,-2,-2,0,-1,-1,-1
1480605888530371,-6,-1,0,0,0,-1,0,0
1480605888530872,3,2,1,0,1,1,-1,1
1480605888530872,-2,-2,-3,-2,-2,-1,0,1
1480605888534381,4,1,-1,1,0,0,0,-1
1480605888534381,-2,-5,-1,0,1,0,1,-2
1480605888565465,-1,0,1,2,-1,-1,0,-2
1480605888565465,-4,0,1,0,-1,-1,0,0
1480605888566969,4,0,0,0,-2,-1,-3,-2
1480605888566969,-3,-4,-3,-1,-1,-1,-1,0
1480605888567971,0,-1,-1,-1,0,-1,0,1
1480605888567971,1,2,0,-2,0,-1,0,-1
1480605888572984,2,0,-1,-3,0,-1,1,1
1480605888572984,-18,-6,-1,-1,-1,-1,-1,-1
1480605888586520,18,5,-1,0,-2,0,-2,-2
1480605888586520,-1,0,-2,0,-1,-2,-2,-1
1480605888588525,0,0,-1,1,-3,1,0,1
1480605888588525,-3,-1,0,-1,2,-1,0,0
1480605888609080,-7,-2,0,-2,-1,1,0,-1
1480605888609080,1,0,0,0,-1,-2,0,-2
1480605888610584,2,-1,0,-2,0,-1,1,0
1480605888610584,0,0,-1,-2,-2,-2,-1,0
1480605888631640,-18,-5,-1,0,-1,1,1,-2
1480605888631640,21,6,-1,-1,0,0,-1,1
1480605888633145,-4,-4,0,-1,0,-1,-1,-1
1480605888633145,4,1,-4,-1,-1,-2,-1,-1
1480605888646679,-1,-1,-1,0,-1,-2,0,-1
1480605888646679,-8,-3,-3,-2,-1,1,0,0
1480605888652696,2,1,-2,0,1,1,1,0
1480605888652696,2,1,0,1,1,1,-1,-1
1480605888676760,-1,-2,0,-1,0,-1,0,1
1480605888676760,-4,-1,-1,-2,-1,-1,1,0
1480605888678264,4,1,0,0,-1,0,-1,-1
1480605888678264,-2,-1,1,0,-1,1,-1,-1
1480605888682775,1,0,0,-2,1,-1,-1,1
1480605888682775,-1,-2,0,2,-2,1,1,0
1480605888691800,-2,0,-2,1,-1,-3,0,0
1480605888691800,-2,-2,-1,0,0,0,-1,-2
1480605888705837,2,-1,-1,-1,-2,-2,-1,0
1480605888705837,-2,-2,-1,-1,1,0,-1,-2
1480605888721879,-3,-1,-2,0,-2,1,1,-1
1480605888721879,0,-1,-2,0,-1,-1,0,1
1480605888729400,2,1,0,-2,1,-1,-1,-1
1480605888729400,-3,-2,0,-2,0,-1,-2,0
1480605888730904,2,0,-1,-1,-1,-1,1,-2
1480605888730904,1,1,-1,-2,0,1,1,-2
1480605888768003,-16,-7,0,-1,-1,2,0,-2
1480605888768003,18,3,0,1,-2,-1,-2,0
1480605888769507,-3,-2,0,-1,-1,0,-1,0
1480605888769507,1,1,-1,-2,-1,-1,-1,0
1480605888770509,0,-1,-3,0,-1,-2,-1,0
1480605888770509,-7,-2,-2,-1,-1,0,1,-2
1480605888774520,0,-2,-2,-2,0,-1,-1,0
1480605888774520,1,0,0,0,-1,-1,-1,2
1480605888796579,1,-1,-3,0,-1,-1,-2,-1
1480605888796579,-3,0,0,-1,1,0,-1,-1
1480605888798585,2,1,1,-2,1,1,-1,-1
1480605888798585,-3,-1,-1,1,-2,0,0,-1
1480605888803097,6,0,1,-1,-1,-2,-2,0
1480605888803097,-5,1,-2,0,-1,-1,0,1
1480605888812120,-1,-1,-1,-1,-2,-2,0,0
1480605888812120,1,-2,-1,-2,1,0,0,-1
1480605888825656,0,3,-1,1,0,-1,1,-3
1480605888825656,-2,0,0,0,-1,-1,0,1
1480605888842200,-2,-1,-2,-2,-2,0,-2,-1
1480605888842200,2,1,-2,-2,-1,-1,-1,0
1480605888849218,4,1,0,0,-1,1,0,2
1480605888849218,-3,-2,-1,-2,-2,1,-1,-2
1480605888850723,2,-1,-2,2,-1,0,0,-1
1480605888850723,-4,-2,1,0,-1,-1,1,0
1480605888863256,0,-2,0,-2,-1,-1,0,-1
1480605888863256,1,0,0,-2,0,-2,0,0
1480605888871779,-2,-1,-3,0,0,-1,0,0
1480605888871779,1,1,-3,-1,0,0,-2,0
1480605888887320,-1,-1,-2,0,0,-1,0,0
1480605888887320,-3,0,0,0,1,-1,0,-2
1480605888892834,1,0,1,-2,1,-2,0,-1
1480605888892834,-1,-1,-1,0,-1,0,0,-1
1480605888909381,2,1,0,-2,-1,-1,0,0
1480605888909381,-2,-2,-1,0,-1,0,0,1
1480605888910883,-2,-1,1,1,0,-2,0,1
1480605888910883,2,-2,1,-2,1,-1,0,-1
1480605888922915,-2,-1,0,-1,0,0,-1,-1
1480605888922915,0,0,-2,-1,0,0,-2,0
1480605888931939,-1,-1,0,-2,1,1,1,1
1480605888931939,-1,0,0,-1,-2,1,0,0
1480605888954499,1,-2,1,2,-2,0,0,-2
1480605888954499,-2,0,-1,0,0,0,1,0
1480605888960514,1,0,-1,0,1,-1,-1,1
1480605888960514,-2,-1,0,-2,0,0,-1,-1
1480605889000622,0,1,-2,-1,-1,-2,0,-1
1480605889000622,-2,0,-2,-2,0,-1,-1,-1
1480605889002126,-1,0,0,-2,0,0,-1,-1
1480605889002126,0,-2,1,1,0,-2,-1,-2
1480605889003129,0,-2,-2,-1,-1,2,0,0
1480605889003129,1,-1,-1,0,-1,-1,-1,1
1480605889008644,2,0,0,0,-1,1,1,-2
1480605889008644,-1,0,-2,-1,0,-1,0,-1
1480605889009646,0,-3,-2,-2,1,-2,-2,0
1480605889009646,0,0,1,-2,0,-2,0,-2
1480605889020174,0,-1,-1,1,0,0,-3,0
1480605889020174,0,-2,0,-1,-1,-1,-2,0
1480605889029698,0,-1,-1,1,-2,0,0,-1
1480605889029698,-1,-1,-1,0,-1,-1,1,-1
1480605889032206,0,-1,-1,0,-3,-1,-2,0
1480605889032206,-4,-3,-1,-2,0,-1,0,-1
1480605889042733,5,3,0,-1,0,0,0,-2
1480605889042733,1,1,0,-3,-1,-1,1,0
1480605889051758,-2,-2,-2,1,-2,-2,0,-1
1480605889051758,1,1,0,-1,-2,0,-1,0
1480605889066797,-5,-1,0,-1,-2,-2,-2,-1
1480605889066797,-1,-1,0,-2,2,-1,-1,-3
1480605889068301,2,-1,0,0,1,-1,1,-1
1480605889068301,-3,-3,-3,-1,0,-2,0,0
1480605889089358,0,2,-1,-1,1,0,0,-2
1480605889089358,0,-3,0,1,-1,0,-1,-1
1480605889091364,-2,-2,0,-2,-1,0,-3,-1
1480605889091364,1,1,0,0,0,0,-2,-1
1480605889111917,-2,0,-1,0,0,-2,0,0
1480605889111917,-1,1,-1,1,0,-1,-2,-1
1480605889113421,-3,0,0,-1,-2,1,-1,0
1480605889113421,3,-2,0,0,-2,-1,-1,-1
1480605889133976,0,1,-1,-2,-1,-1,-1,-1
1480605889133976,-2,-1,-1,0,0,1,-1,0
1480605889135983,-1,1,0,1,0,-2,0,0
1480605889135983,-1,-2,-1,-1,0,1,0,0
1480605889149016,-2,-3,1,0,-1,0,0,0
1480605889149016,0,0,-1,-2,-2,0,-1,-1
1480605889151022,1,0,0,-1,0,-1,-1,-2
1480605889151022,-1,1,0,1,-1,-2,0,1
1480605889173080,-1,-2,0,0,-2,0,1,-1
1480605889173080,0,-2,-1,-2,-2,-1,0,1
1480605889186617,1,-1,-1,1,-1,-1,0,0
1480605889186617,-2,-1,-2,1,0,0,0,0
1480605889187620,-3,-2,-1,0,0,0,0,0
1480605889187620,7,1,-1,-1,-2,0,-1,1
1480605889192632,-3,0,-2,-2,0,0,-1,-1
1480605889192632,0,0,1,0,-1,-1,0,-1
1480605889209176,-5,-1,-1,0,-1,0,-2,-1
1480605889209176,-1,-2,-3,0,0,0,0,-2
1480605889210680,2,0,0,-1,0,0,1,-2
1480605889210680,-3,-1,0,0,-1,0,0,0
1480605889231737,4,1,1,-3,-2,0,0,1
1480605889231737,-2,-1,0,1,-1,-1,-1,1
1480605889233241,0,-2,0,-3,-1,0,1,-1
1480605889233241,1,-1,-1,-2,0,-1,0,1
1480605889245773,0,-1,-1,0,0,0,0,-1
1480605889245773,0,-1,0,2,-1,-3,0,-1
1480605889252793,-3,0,0,2,-1,0,0,-1
1480605889252793,1,1,-2,-1,0,0,0,-1
1480605889276856,2,1,-3,0,-1,-1,-1,-2
1480605889276856,-4,-1,-1,-1,-2,0,-2,-1
1480605889278360,1,-2,-2,0,-1,-1,1,0
1480605889278360,0,-1,2,-2,-1,0,-1,-1
1480605889290893,0,-1,-1,-2,-1,0,-1,2
1480605889290893,-2,-1,-1,-1,-1,0,-1,-1
1480605889299417,-1,1,0,-1,1,-1,-2,-1
1480605889299417,1,-2,-3,2,-1,-1,-2,-1
1480605889305934,-1,-1,1,-1,0,0,0,1
1480605889305934,-1,-2,0,-1,1,0,1,-1
1480605889329998,1,0,-1,-2,0,-3,-1,0
1480605889329998,-1,-1,-1,1,-1,-1,1,-1
1480605889331502,0,-1,0,0,1,0,1,-1
1480605889331502,-1,-1,-2,-2,-2,-2,-1,0
1480605889333006,1,0,0,0,0,0,-2,0
1480605889333006,-1,0,-2,-4,-1,-1,-1,-2
1480605889359075,-1,-1,-1,-2,-2,-1,-1,-1
1480605889359075,-1,0,2,-2,1,-1,1,-3
1480605889361080,-1,-2,-1,1,-1,-1,-2,0
1480605889361080,0,0,1,0,-1,0,-1,0
1480605889366128,0,-1,0,0,1,0,-2,0
1480605889366128,0,-2,0,0,-2,1,-1,-1
1480605889373112,0,1,-2,0,-3,-2,0,-1
1480605889373112,0,-1,1,0,-1,-1,-1,-2
1480605889389155,0,-2,-1,2,0,-2,-2,-2
1480605889389155,-1,0,-1,0,0,-1,-1,0
1480605889390659,0,0,1,-2,-1,1,-1,-1
1480605889390659,0,-1,0,0,0,-1,-1,0
1480605889419242,-2,-1,-1,-1,-3,-1,-1,-1
1480605889419242,0,-2,-3,-1,-1,-2,0,-1
1480605889420741,-1,-1,0,0,-1,-1,-2,0
1480605889420741,2,1,-3,-2,0,0,-3,-1
1480605889426253,1,-1,0,0,-1,0,-2,0
1480605889426253,-1,-1,-1,-2,1,0,0,0
1480605889434276,-1,-1,-2,-1,-2,-2,2,0
1480605889434276,-1,0,0,1,-1,-1,-1,0
1480605889464356,0,-1,-1,-1,0,-2,-1,1
1480605889464356,1,0,0,2,0,1,-1,-1
1480605889466863,0,-1,-1,-3,-1,-1,-1,-1
1480605889466863,-2,0,-1,-1,-2,-1,0,0
1480605889471878,-1,0,0,-2,-1,0,0,-1
1480605889471878,-2,-1,-1,2,0,-2,-1,-1
1480605889473379,-1,-1,-2,1,-1,0,0,0
1480605889473379,0,-1,0,0,0,0,-1,-1
1480605889486920,1,-1,0,1,1,0,-2,-1
1480605889486920,-2,0,0,-2,-1,0,-1,-2
1480605889500451,-1,-1,-1,0,0,-1,-3,1
1480605889500451,-2,1,-2,1,-1,-2,0,0
1480605889509475,-2,-2,-2,-1,0,0,1,-1
1480605889509475,-1,-2,-1,0,1,-3,-1,-1
1480605889511981,0,-2,-1,1,-2,0,-2,-1
1480605889511981,-1,-2,0,0,-1,0,-1,1
1480605889532038,-1,0,-1,0,-1,-1,-2,0
1480605889532038,0,1,-1,-1,-1,1,-1,1
1480605889534040,0,-1,0,-2,0,-2,0,1
1480605889534040,-1,-1,0,-3,-3,0,-1,-1
1480605889554095,-1,-1,-1,-1,-1,0,0,0
1480605889554095,0,1,-1,0,-1,-2,-2,0
1480605889555598,0,0,-2,-1,0,0,1,-1
1480605889555598,-1,-1,1,0,2,1,-1,-1
1480605889568134,-2,1,0,-1,-1,-2,0,0
1480605889568134,1,1,1,0,-1,-1,1,-1
1480605889576654,-2,-1,-2,0,0,-1,-1,-1
1480605889576654,-1,1,0,-1,0,-1,0,0
1480605889591694,-1,-1,-1,-2,0,-2,-1,-1
1480605889591694,-1,-2,0,-1,0,1,0,-1
1480605889597711,-1,0,1,-1,-1,0,-1,-1
1480605889597711,1,0,-2,0,-1,0,-1,-2
1480605889605746,-1,-1,-2,0,0,0,0,0
1480605889605746,1,1,-1,-1,-1,0,0,1
1480605889614254,-2,-1,-1,0,0,0,-1,0
1480605889614254,1,-1,-1,-1,0,1,-1,0
1480605889629797,0,2,0,-1,-1,1,0,0
1480605889629797,0,-2,-1,-2,-2,-1,-1,-1
1480605889631300,0,-1,0,-1,0,0,-1,2
1480605889631300,-1,1,0,1,-1,-2,0,-2
1480605889651854,-1,-1,0,1,1,-1,0,-1
1480605889651854,0,0,-1,1,0,0,-1,0
1480605889653359,-1,0,0,0,1,0,0,-2
1480605889653359,0,-2,-1,-2,-2,-1,-2,0
1480605889674414,2,0,0,-2,-2,-2,-1,0
1480605889674414,-3,-1,-1,-1,-3,1,-1,-2
1480605889675918,1,-1,-1,-1,-1,-2,-2,-1
1480605889675918,0,1,-1,-2,2,-1,1,-1
1480605889696974,0,0,0,0,0,0,0,-1
1480605889696974,0,-1,0,-1,0,-2,-1,-1
1480605889698478,0,0,-1,0,-1,1,1,0
1480605889698478,-1,-1,-1,-1,-1,0,0,0
1480605889711512,0,-1,0,-1,-2,0,0,0
1480605889711512,1,-1,1,1,-1,1,0,2
1480605889713518,-2,0,-2,-1,0,-1,0,0
1480605889713518,1,-1,-1,-2,1,-1,0,0
1480605889726052,-1,-2,-2,-1,-1,0,-1,-1
1480605889726052,-1,-1,0,-1,0,-1,0,-1
1480605889742094,-1,-2,0,0,-3,-1,0,-1
1480605889742094,-1,1,0,0,-2,-1,1,-1
1480605889749113,-3,-1,-2,-3,0,-1,0,1
1480605889749113,0,0,-2,-1,0,-1,-1,-1
1480605889750617,0,-1,0,-1,0,0,-2,0
1480605889750617,-1,-1,0,-1,0,-3,-1,-1
1480605889771673,0,-1,0,1,0,0,0,-1
1480605889771673,-1,-1,-2,-2,-1,-2,1,0
1480605889773180,-2,-1,-1,0,-1,0,0,-2
1480605889773180,0,-1,-1,0,-2,0,-1,-1
1480605889785209,0,0,-1,-1,0,-1,-1,-1
1480605889785209,0,-1,-1,-1,-1,0,1,0
1480605889794233,2,1,0,1,-1,-1,0,0
1480605889794233,-1,-1,-1,-1,-1,-1,2,0
1480605889809273,0,-1,0,0,0,-2,0,0
1480605889809273,1,-1,-1,0,0,-1,0,-2
1480605889810778,-1,-2,-1,-1,-2,-1,-2,1
1480605889810778,-2,-1,-1,0,-1,0,0,1
1480605889832335,-1,-1,-1,-1,-1,-1,0,0
1480605889832335,0,0,-1,2,-1,-1,-1,-1
1480605889834339,1,1,-2,-3,-1,-1,-1,0
1480605889834339,0,-1,0,-1,0,-1,-1,-1
1480605889845369,-2,-1,-1,0,-1,-1,-1,-1
1480605889845369,-1,0,-1,-2,-1,0,-1,-1
1480605889855397,1,-1,1,-1,1,-1,-1,-2
1480605889855397,0,0,-1,2,-1,0,-1,0
1480605889869435,0,0,1,-1,-1,0,0,-2
1480605889869435,-1,-3,0,-1,-1,1,0,0
1480605889870938,0,0,0,-2,1,1,0,-2
1480605889870938,-1,-3,1,-1,1,0,-1,0
1480605889891492,-2,0,0,-1,-2,0,-2,-1
1480605889891492,0,0,-1,0,0,-2,-1,-2
1480605889893497,-1,0,0,-1,2,0,1,0
1480605889893497,-1,0,-1,-1,-1,-1,-1,-3
1480605889905529,-1,-1,-2,0,-2,-1,0,0
1480605889905529,1,-1,0,-2,0,0,0,0
1480605889914552,-1,-2,-1,1,-2,-2,0,0
1480605889914552,-2,0,-3,0,-1,-1,-2,0
1480605889936613,1,-1,1,-1,0,-2,1,-2
1480605889936613,0,0,0,-2,0,0,0,-1
1480605889938116,0,-1,-1,-1,-2,-1,0,-1
1480605889938116,0,-1,-1,-1,-1,1,-2,0
1480605889959171,0,-1,0,1,0,-2,-1,0
1480605889959171,-1,0,-2,0,-1,0,0,-1
1480605889976217,-1,0,-1,0,-1,0,-1,-1
1480605889976217,1,-1,-2,-1,0,0,-2,0
1480605889977220,0,-1,-1,-1,1,-1,0,0
1480605889977220,-1,-1,0,-1,0,-1,0,0
1480605889980228,-1,0,-1,2,0,-2,-1,-2
1480605889980228,-1,1,0,-2,1,-2,2,-1
1480605890020336,0,1,-1,-1,-1,-1,-2,0
1480605890020336,-1,-1,-2,0,-1,0,-1,0
1480605890022341,0,1,0,-1,0,0,0,0
1480605890022341,-1,0,0,-1,-1,0,0,-1
1480605890022841,1,-2,-1,1,-2,-1,-1,-1
1480605890022841,-1,1,-1,1,-1,-1,0,-1
1480605890026852,-1,-3,-1,-2,-2,0,1,0
1480605890026852,0,0,0,-1,0,-1,0,0
1480605890041892,-2,0,-1,-2,-1,1,1,0
1480605890041892,-1,0,-1,-3,0,2,-2,-1
1480605890043395,0,-2,0,0,-1,-1,0,0
1480605890043395,0,-3,0,2,-1,-4,1,0
1480605890064452,-1,-1,-1,-3,-1,-1,0,0
1480605890064452,0,-1,-1,-2,0,-2,-2,-1
1480605890065956,0,0,-2,-2,1,1,0,0
1480605890065956,0,0,0,1,-1,0,0,1
1480605890071974,-1,0,1,1,-2,-1,0,-1
1480605890071974,1,-2,-1,-1,1,-1,1,1
1480605890073479,1,0,-1,-1,-1,-1,0,0
1480605890073479,-1,0,-1,-1,-3,0,-1,-3
1480605890094030,-1,-1,-2,0,-1,2,-2,-2
1480605890094030,0,0,0,-1,-4,-2,0,1
1480605890096036,-1,0,1,0,1,-2,-1,0
1480605890096036,1,-2,-1,-1,-1,0,0,0
1480605890109070,0,0,-1,0,0,0,0,-1
1480605890109070,-2,-2,-1,-1,1,-1,1,0
1480605890111076,0,-1,-1,-2,-2,-1,0,-1
1480605890111076,-1,-1,1,0,-2,-1,1,1
1480605890139150,-1,0,-1,-1,0,0,-1,-1
1480605890139150,-1,0,-2,1,-1,-1,-2,-1
1480605890140655,-1,1,0,-2,-2,-1,-2,-2
1480605890140655,-1,-1,-1,-2,-1,0,-1,0
1480605890154191,0,-2,-2,-1,0,-1,-1,-1
1480605890154191,-1,1,0,0,-1,-2,-1,0
1480605890155694,-1,-3,0,0,0,-1,-1,0
1480605890155694,0,-2,-2,0,-1,0,1,-2
1480605890168729,0,0,0,-1,-2,-2,-2,-2
1480605890168729,0,-1,1,0,-1,-1,-1,0
1480605890175246,-1,0,-2,1,-1,1,0,0
1480605890175246,1,1,-1,0,-1,-1,-2,-2
1480605890191289,0,-1,-1,-1,1,-1,1,0
1480605890191289,-1,-1,0,-2,0,-1,-2,-2
1480605890197806,-2,0,1,1,-2,1,0,-1
1480605890197806,-1,-1,0,-1,0,0,-1,-2
1480605890214851,-1,-1,0,0,-1,-2,1,0
1480605890214851,1,-1,-1,0,-1,-1,0,0
1480605890216355,-1,0,-2,-2,-1,-1,1,-1
1480605890216355,-1,0,-2,-2,0,0,-2,-1
1480605890228390,1,-1,0,0,-2,1,-1,-2
1480605890228390,-1,0,0,0,-1,0,-2,-2
1480605890235407,-1,0,-3,-1,1,0,0,-1
1480605890235407,-1,-2,0,-1,2,-1,0,-2
1480605890252452,-2,-2,-1,-1,-1,1,-1,-1
1480605890252452,0,-3,-1,-1,-1,0,0,-1
1480605890253957,0,-1,0,1,-2,-1,-2,-1
1480605890253957,-2,0,0,-1,0,0,0,-1
1480605890275011,0,0,0,0,0,0,1,1
1480605890275011,0,0,0,-1,-1,1,1,-2
1480605890280526,0,-2,-1,-2,-1,-1,0,0
1480605890280526,0,-1,-2,-2,-1,-2,0,0
1480605890296569,-3,-1,-1,0,-1,-1,0,0
1480605890296569,1,-1,0,-1,-1,-2,0,-1
1480605890298575,2,-1,-1,0,1,-1,-1,-1
1480605890298575,0,0,-1,0,0,0,-1,1
1480605890311610,0,-1,-1,-2,-1,1,-1,1
1480605890311610,0,1,-2,-2,1,-1,-1,0
1480605890313113,0,0,1,-1,-1,0,0,0
1480605890313113,-1,0,0,1,0,1,-1,0
1480605890334170,-1,0,0,-1,-1,-2,-1,0
1480605890334170,-1,-1,-1,0,-1,-2,0,-1
1480605890341689,-1,-1,-2,1,-3,-1,0,-1
1480605890341689,0,-1,-2,1,0,-1,-2,-1
1480605890348708,0,-1,0,0,0,0,-2,-2
1480605890348708,0,0,-1,0,-2,-1,-1,0
1480605890362744,-1,0,1,-1,0,-1,-1,-1
1480605890362744,0,-2,1,0,-1,1,0,-2
1480605890371772,0,0,-1,0,0,1,1,-1
1480605890371772,0,-2,0,-2,0,-1,-1,0
1480605890373273,0,0,0,-1,-1,-1,0,0
1480605890373273,-2,0,-1,-2,-1,-2,-2,0
1480605890394329,0,0,-1,0,0,-1,-1,-1
1480605890394329,-1,1,0,-1,0,0,0,0
1480605890395834,0,0,0,-1,0,1,0,0
1480605890395834,1,-2,0,-1,-2,-2,2,-1
1480605890408868,0,-1,0,0,0,-2,0,-1
1480605890408868,-2,-1,-1,-1,1,-1,-1,-1
1480605890424410,-1,-3,0,0,-2,0,-1,-1
1480605890424410,-2,0,-1,0,-2,-1,-1,0
1480605890431929,0,0,-1,0,-2,-2,0,-1
1480605890431929,0,-1,-2,1,-1,0,0,-1
1480605890433433,0,-1,-1,-2,0,-2,-1,0
1480605890433433,-1,-1,-2,-1,-1,-1,-1,0
1480605890454492,1,-3,-1,-1,-2,0,0,0
1480605890454492,0,0,0,-1,1,0,-2,-1
1480605890455993,-1,0,1,-1,-1,-1,-2,-1
1480605890455993,-2,0,-3,0,-1,-1,0,-2
1480605890468527,-3,0,0,-1,1,0,0,-2
1480605890468527,-1,-1,1,-2,-3,-1,0,-1
1480605890475545,-1,-2,-1,0,0,0,0,-1
1480605890475545,1,-2,-1,0,1,1,-2,1
1480605890491587,-1,1,-2,0,-1,0,0,2
1480605890491587,0,0,0,-1,-2,0,-1,1
1480605890493092,1,1,0,0,-2,-1,0,-1
1480605890493092,0,-2,1,0,1,-1,-1,-1
1480605890514649,-1,-2,-1,-1,-2,-2,-2,-3
1480605890514649,-1,0,-1,-1,-2,1,-1,0
1480605890516154,-2,-2,-1,-1,1,-3,-1,0
1480605890516154,0,1,-1,1,0,-2,-1,0
1480605890536709,0,-1,-1,-1,-1,0,-1,-1
1480605890536709,-2,-1,0,0,-2,-1,-1,-1
1480605890538212,-1,-1,-1,0,0,0,0,-1
1480605890538212,-1,-1,0,-2,0,-2,-1,0
1480605890551749,0,-1,-1,-2,0,-1,1,-1
1480605890551749,0,-1,-2,-1,-2,-2,-1,-2
1480605890553253,-1,0,-2,0,-2,-1,0,-1
1480605890553253,0,1,-1,-3,-1,-1,0,0
1480605890574809,-2,1,2,0,0,-1,0,1
1480605890574809,0,0,0,1,0,-1,-2,0
1480605890576313,-2,0,1,0,-1,0,0,-1
1480605890576313,0,-1,-1,0,0,0,1,-1
1480605890596873,0,-1,0,0,-2,-2,-1,-1
1480605890596873,-1,-1,-2,-3,0,0,-1,-2
1480605890604389,-1,1,0,0,0,-1,-2,1
1480605890604389,-1,-1,-2,0,-2,0,0,-2
1480605890619428,0,-2,1,-2,0,1,1,0
1480605890619428,-1,0,1,0,-2,0,1,0
1480605890620933,0,0,-1,0,-1,-1,-1,-2
1480605890620933,0,0,0,-2,-1,0,0,0
1480605890634970,-1,0,-1,1,0,-2,-1,1
1480605890634970,-1,-1,0,0,1,0,0,-3
1480605890636474,-1,-2,0,-1,-1,0,0,0
1480605890636474,-1,-1,-1,0,-3,-1,0,-1
1480605890648004,0,-1,-1,-1,-2,0,-1,1
1480605890648004,0,-1,0,1,-1,1,0,1
1480605890664551,1,-1,-1,-1,0,-1,-1,1
1480605890664551,-1,1,-1,0,0,-1,-1,-2
1480605890671569,0,-1,-1,0,-1,-1,-1,-1
1480605890671569,0,0,-1,-1,-1,-2,0,-2
1480605890673572,1,0,0,0,0,-1,1,0
1480605890673572,-1,0,0,-2,-2,1,0,0
1480605890694128,-1,0,0,-1,0,-2,0,-1
1480605890694128,-2,-1,-2,0,-1,-2,0,0
1480605890695634,0,0,0,-1,0,2,-1,-1
1480605890695634,-2,-1,0,-1,-1,-1,-1,0
1480605890707662,-1,-1,0,-1,0,0,-1,0
1480605890707662,0,-2,-1,0,-1,0,0,-1
1480605890716687,-1,0,-2,-1,0,-1,1,-2
1480605890716687,-1,-1,1,0,0,0,-2,-1
1480605890731726,-1,-1,-3,1,0,0,-1,-1
1480605890731726,-1,0,-1,-1,0,-2,-2,1
1480605890747769,0,0,-1,0,0,0,-2,-1
1480605890747769,-1,-1,0,0,-1,-1,-1,-1
1480605890754287,-1,1,0,-1,-1,0,-1,1
1480605890754287,-1,-1,1,-1,1,-1,0,1
1480605890755792,-1,0,-1,0,-1,0,-1,-3
1480605890755792,1,-2,0,0,-1,0,1,-1
1480605890767824,-1,0,-1,-1,0,1,-2,-1
1480605890767824,-1,0,-1,-1,-1,0,-2,-2
1480605890777348,1,0,1,-2,-3,-2,-2,0
1480605890777348,1,-2,0,-1,0,-1,0,-1
1480605890791386,1,-1,-1,0,-1,0,0,0
1480605890791386,1,1,0,0,2,0,0,-2
1480605890806927,-1,-2,0,1,-1,-1,-1,0
1480605890806927,1,0,-1,-1,-2,-1,1,0
1480605890814447,-1,-1,0,0,-3,-2,0,0
1480605890814447,-1,0,0,0,-1,0,1,-1
1480605890815950,0,-1,-3,0,0,-1,-1,-1
1480605890815950,-1,2,0,0,0,-1,-2,-1
1480605890827982,-2,0,0,-1,-1,0,1,0
1480605890827982,0,-2,-1,1,-1,-1,0,-1
1480605890837511,-1,0,-1,1,-2,-1,0,0
1480605890837511,-1,0,0,-1,-1,-2,-1,2
1480605890852047,-2,0,0,1,-1,-2,-1,-1
1480605890852047,0,0,-1,-2,1,-1,-1,-1
1480605890853554,-2,0,0,-4,-1,0,0,1
1480605890853554,1,-2,-1,0,0,-1,-1,1
1480605890875108,0,1,0,-1,2,-1,1,0
1480605890875108,-1,0,1,1,-1,0,0,-1
1480605890876613,-1,1,0,-1,-1,0,-1,-1
1480605890876613,-2,-1,-1,1,-1,-1,-1,-1
1480605890896666,-1,-1,1,-2,1,-1,0,0
1480605890896666,0,-1,-1,-2,-1,-2,0,0
1480605890898170,-1,-2,-1,-2,-1,-1,0,0
1480605890898170,-2,-1,-1,-1,-1,0,0,-1
1480605890919227,0,-1,-2,0,0,-2,0,-2
1480605890919227,-1,-2,-1,-1,-1,-1,0,-1
1480605890920731,-1,0,1,0,-2,-1,2,-1
1480605890920731,0,0,-1,-2,0,-1,-1,-1
1480605890933263,1,-1,-2,-2,0,0,-1,-1
1480605890933263,-1,-1,-1,-2,-2,-2,-1,1
1480605890941786,0,-1,-1,-2,-1,-2,-2,-2
1480605890941786,0,0,-1,1,-1,-1,0,-1
1480605890947802,-2,0,2,0,-1,0,1,0
1480605890947802,0,-2,2,0,-1,0,0,-1
1480605890962842,-2,-2,0,1,0,0,-1,0
1480605890962842,-1,-1,0,-2,-1,1,0,-1
1480605890971866,-1,0,0,-2,-2,-1,-3,0
1480605890971866,0,0,0,-1,-1,1,-1,0
1480605890973370,0,-1,-1,-1,1,-1,-1,0
1480605890973370,-1,0,-1,0,-1,0,0,-1
1480605890993925,0,0,-1,0,0,-1,0,1
1480605890993925,0,-2,-2,0,-2,-1,1,1
1480605890995930,0,-3,-2,-1,0,1,-2,0
1480605890995930,0,1,0,0,0,-1,-1,-1
1480605891016484,1,-1,-2,0,-2,-1,-1,0
1480605891016484,-1,1,1,-1,0,-1,0,-1
1480605891031023,-1,-1,0,1,0,-1,-1,0
1480605891031023,-1,-1,1,0,1,-2,-1,0
1480605891039045,0,-1,-2,-1,0,0,0,-2
1480605891039045,0,1,0,0,-1,0,-1,0
1480605891040548,0,-1,-2,-1,-1,-1,1,-1
1480605891040548,-1,0,0,0,-1,0,-1,0
1480605891062105,-1,-2,1,-1,-2,1,-3,1
1480605891062105,1,0,-2,-1,1,0,0,-2
1480605891084666,0,-2,-1,0,-2,0,1,-1
1480605891084666,0,0,-2,-1,-2,-2,1,1
1480605891085668,-1,-1,-1,-1,-1,-2,0,0
1480605891085668,-2,0,-1,-1,0,0,-3,1
1480605891087185,-1,-1,0,-1,0,1,-1,0
1480605891087185,-1,-1,0,-1,-1,0,-2,0
1480605891091685,-1,-2,0,0,0,-1,2,-2
1480605891091685,-1,-2,-1,0,1,-2,0,1
1480605891093188,1,0,-1,-1,1,-2,-1,-2
1480605891093188,0,-1,-1,-2,-1,-1,-1,0
1480605891114244,-2,0,-1,0,-1,0,-2,0
1480605891114244,-1,0,-1,2,-1,-1,-1,1
1480605891128281,-1,0,-1,0,0,0,1,0
1480605891128281,-2,-2,-1,-1,-1,0,1,-1
1480605891136806,0,-1,0,-1,-1,0,-1,-1
1480605891136806,-1,-2,1,0,0,1,-1,-2
1480605891138308,0,1,0,0,-1,0,-1,-1
1480605891138308,0,-1,0,0,-2,-1,-1,-1
1480605891150841,2,-1,-1,-1,0,-2,2,-1
1480605891150841,-2,-1,0,1,-2,-1,1,0
1480605891157860,0,-1,1,-2,-1,-2,0,-1
1480605891157860,-1,-2,0,-2,0,0,0,-1
1480605891174905,-2,1,0,2,-1,2,0,0
1480605891174905,-1,-1,-1,-1,0,0,0,-1
1480605891176410,-1,1,-1,1,-1,0,-1,0
1480605891176410,0,-2,-2,0,0,-1,1,-1
1480605891195962,-1,0,-1,-1,-2,-1,-2,-1
1480605891195962,-2,-1,1,-2,-1,0,0,-1
1480605891211503,-1,-2,-1,-1,-1,0,-2,0
1480605891211503,-1,0,-3,-1,-4,0,0,-1
1480605891212004,0,-1,1,-1,0,-1,0,-1
1480605891212004,0,0,-1,-1,1,-2,0,1
1480605891219525,0,0,-2,-1,0,-1,-1,-1
1480605891219525,1,-1,-1,-1,2,-1,-1,-2
1480605891234565,1,-1,-2,-2,-1,0,1,0
1480605891234565,0,-1,0,-1,-1,-2,2,-1
1480605891238075,1,-1,0,-2,-2,-1,1,1
1480605891238075,-1,-1,0,-1,1,0,0,-1
1480605891257124,-1,-1,-2,1,-1,-2,-1,-2
1480605891257124,-1,0,-1,-1,0,1,-1,-1
1480605891259131,1,0,-2,0,0,2,-1,-1
1480605891259131,1,1,-1,-1,0,-1,-2,-1
1480605891271162,-2,-2,1,-2,0,-1,0,0
1480605891271162,-1,-2,-1,0,-1,0,-2,-1
1480605891277679,-1,1,0,0,-1,-1,0,-1
1480605891277679,-2,2,0,-3,-2,0,0,1
1480605891294223,0,0,-1,-1,0,0,1,0
1480605891294223,0,0,-3,-2,-2,0,0,-2
1480605891295727,0,-2,-1,-2,-2,-2,-1,-1
1480605891295727,-1,-1,1,2,0,-1,-1,2
1480605891316783,0,-1,-1,0,-2,1,0,0
1480605891316783,-1,-2,-1,0,-1,0,0,0
1480605891318288,0,-1,1,-1,1,0,-1,-1
1480605891318288,-1,-2,-1,0,-2,0,0,-1
1480605891330821,-1,1,0,0,0,0,-1,0
1480605891330821,-1,-1,0,-1,-2,-1,-1,-1
1480605891337842,-1,-2,-1,-1,0,-1,0,0
1480605891337842,0,-2,-1,-1,0,0,0,-1
1480605891355887,0,-1,0,-1,-1,0,-2,0
1480605891355887,-1,0,-1,-2,0,1,0,0
1480605891360400,-1,-1,-1,0,-1,-1,-2,-1
1480605891360400,0,0,0,0,-1,0,-1,0
1480605891376943,-1,1,-1,0,-1,1,1,-1
1480605891376943,0,1,-1,-1,-1,-1,0,-2
1480605891378447,-2,1,0,0,-1,0,0,-1
1480605891378447,-1,-1,-1,1,-2,-2,0,-2
1480605891399504,-1,-4,-2,0,1,0,-2,-2
1480605891399504,0,-2,-2,0,0,0,0,0
1480605891407023,-1,0,-2,-1,0,1,1,1
1480605891407023,-1,-2,1,-1,0,-1,-1,-1
1480605891414042,-2,-1,1,-2,-1,-2,-2,0
1480605891414042,-1,-1,0,1,-1,0,-2,0
1480605891418053,-1,-2,-1,-1,-1,1,-1,-1
1480605891418053,0,1,-1,1,0,-1,0,-1
1480605891436604,2,0,-2,-1,-3,-2,0,-1
1480605891436604,1,0,1,-3,-1,-1,-1,-2
1480605891451141,0,-2,0,-1,-1,0,0,0
1480605891451141,-1,-1,-1,-2,-1,0,0,0
1480605891451642,-1,0,-1,-1,1,-2,-2,-1
1480605891451642,0,0,-1,0,-1,-1,-1,-1
1480605891459162,0,-1,-2,-1,0,-3,0,-1
1480605891459162,0,-2,1,1,-1,0,-1,0
1480605891475204,0,-3,0,0,0,0,1,-1
1480605891475204,0,-1,0,0,-1,0,-2,-1
1480605891476709,-1,1,0,-1,-1,-1,1,-1
1480605891476709,-1,0,-1,0,-1,-1,1,-1
1480605891496762,0,-1,-1,-1,0,0,-2,1
1480605891496762,-2,0,0,1,-1,-2,-1,0
1480605891498266,1,-1,-1,-2,-1,-1,-1,-1
1480605891498266,1,0,0,-3,0,-2,-1,-1
1480605891519323,0,-2,-2,-2,0,-1,1,-1
1480605891519323,-1,-2,-1,-1,0,0,1,0
1480605891520826,-2,-1,0,1,-1,-1,-1,-1
1480605891520826,0,-2,-2,1,1,1,0,-1
1480605891541882,-1,-1,0,0,-2,-1,0,-1
1480605891541882,0,0,0,-2,-3,-1,1,-1
1480605891543386,0,-2,0,-1,-1,-2,-3,0
1480605891543386,-1,1,-1,-2,-1,1,-1,-2
1480605891556922,-1,1,-1,1,0,-1,0,-1
1480605891556922,-1,1,-1,-1,-1,-1,-1,0
1480605891558426,-1,-1,-2,0,-2,-2,1,0
1480605891558426,-1,-1,1,-1,-2,-2,0,0
1480605891570459,-1,0,-2,-1,-1,0,-2,-1
1480605891570459,-1,0,-1,0,-1,-1,-1,0
1480605891580485,1,-1,-2,-1,0,-1,0,0
1480605891580485,0,-1,-2,-1,1,-1,-3,-2
1480605891594021,0,-1,0,0,2,0,0,-1
1480605891594021,-3,-3,-2,-1,1,-3,-1,-2
1480605891596026,0,-1,1,1,0,-1,-1,-2
1480605891596026,1,-2,-2,1,0,0,1,-1
1480605891616581,-1,-2,0,0,0,-2,-1,-2
1480605891616581,3,-1,-1,0,-1,0,-1,0
1480605891618085,-1,0,-2,-2,2,-1,-1,-1
1480605891618085,-1,-1,0,-1,-2,-1,0,0
1480605891639141,-1,0,0,1,1,0,-2,0
1480605891639141,1,1,0,-2,1,-1,0,-2
1480605891640645,-1,-1,-2,-2,0,0,0,1
1480605891640645,1,1,0,0,-3,0,0,0
1480605891654182,-2,0,-1,-2,-2,0,1,-1
1480605891654182,-1,-1,-2,1,0,-1,0,-1
1480605891655685,-1,-1,0,-2,-2,-1,1,1
1480605891655685,-1,-1,-2,-2,-1,-1,0,0
1480605891684762,0,1,-1,-1,-2,0,0,-1
1480605891684762,0,1,-3,-1,1,-1,-1,0
1480605891686267,0,0,-1,-2,0,0,0,-1
1480605891686267,-2,-1,-2,-1,-1,0,0,0
1480605891690278,-1,-3,-2,0,0,-2,-1,0
1480605891690278,0,-1,-1,0,-3,0,-1,0
1480605891699304,0,-1,1,0,0,1,0,-1
1480605891699304,-1,-2,-1,-1,1,-2,-1,0
1480605891714340,1,0,-2,0,-2,0,-1,0
1480605891714340,0,0,0,-1,1,-1,0,0
1480605891715845,0,0,-1,0,-1,-1,0,0
1480605891715845,-1,-1,0,-1,-1,-1,0,-1
1480605891736902,0,-1,0,-1,0,0,2,-1
1480605891736902,-1,0,-2,0,-1,1,-1,2
1480605891738405,-1,-1,0,0,0,1,-1,-1
1480605891738405,0,0,0,0,0,0,-2,-1
1480605891750437,1,0,-1,0,-1,-3,1,-1
1480605891750437,-3,0,0,-2,-1,0,0,0
1480605891759461,-1,-1,1,0,0,0,-1,0
1480605891759461,-1,-1,-1,0,0,-1,0,-1
1480605891773999,-1,0,-1,-1,2,0,0,0
1480605891773999,0,-1,0,0,-1,0,-1,-3
1480605891776005,2,-1,-2,-1,0,0,-1,-1
1480605891776005,1,0,-1,-2,0,1,-1,-1
1480605891796560,0,-2,-1,0,-1,0,-1,0
1480605891796560,0,-2,-2,-1,-1,-2,0,1
1480605891798064,-2,1,1,0,-1,0,1,0
1480605891798064,0,-2,-1,-1,-2,-1,0,0
1480605891819120,-2,0,-1,0,-2,0,0,1
1480605891819120,-2,1,-1,-3,0,-1,-1,-1
1480605891820624,-2,0,-4,0,0,-1,0,0
1480605891820624,-1,-1,0,-1,0,-1,0,-1
1480605891841679,-1,-1,-1,1,0,0,-2,-2
1480605891841679,-1,-1,-2,-1,-2,0,0,0
1480605891847696,1,-1,-1,-2,-2,0,-2,-1
1480605891847696,0,-1,0,-2,0,1,0,-1
1480605891856720,0,-2,0,-1,-1,-1,-1,0
1480605891856720,-1,-1,1,1,1,-2,1,0
1480605891858224,-1,0,-2,-1,-1,-2,-2,-2
1480605891858224,-1,1,-2,0,1,-1,-2,-1
1480605891870256,0,0,0,-2,-2,-1,0,0
1480605891870256,0,1,-1,0,0,-2,0,-2
1480605891879280,0,-2,1,-1,0,-1,-1,0
1480605891879280,0,-1,0,0,-1,0,-1,0
1480605891894320,-2,0,0,0,1,0,1,0
1480605891894320,-1,-3,-2,-1,0,1,0,0
1480605891895824,-1,0,0,0,-1,-1,-1,-1
1480605891895824,0,-1,-1,0,-2,0,0,-1
1480605891917384,0,-1,1,-1,0,-1,-1,0
1480605891917384,-1,-2,2,0,-1,-1,0,1
1480605891918885,0,-1,0,-2,0,1,0,0
1480605891918885,0,1,1,-1,-1,-3,2,-1
1480605891938440,0,1,-1,-1,-1,0,1,-2
1480605891938440,0,-1,0,0,0,-2,-1,-2
1480605891962500,0,-1,-2,0,-1,-2,0,-1
1480605891962500,1,0,-1,0,-2,0,0,0
1480605891963002,-2,-1,-1,-1,0,0,-1,-2
1480605891963002,1,0,-1,-1,-1,0,-1,0
1480605891965009,-2,0,0,-2,-1,-1,-1,-1
1480605891965009,-2,-2,-2,-1,-1,0,-1,0
1480605891977040,1,-1,0,1,2,-1,-1,0
1480605891977040,0,-2,-1,-1,-2,0,-1,0
1480605891983056,-1,-1,0,1,-1,-1,2,-1
1480605891983056,0,-1,0,-1,-1,-2,0,0
1480605892006619,-1,-1,0,-1,-1,-3,-1,-1
1480605892006619,-2,-1,-1,0,-2,-1,0,1
1480605892008122,0,-2,-1,0,-1,0,0,1
1480605892008122,-2,0,-2,-1,0,-1,-1,0
1480605892014138,-1,0,-1,0,0,0,1,-2
1480605892014138,0,-1,0,-1,1,-1,-1,-2
1480605892015642,0,-1,-1,0,0,0,1,-1
1480605892015642,0,-1,-1,-1,-2,-1,0,0
1480605892051738,-1,0,-2,-2,-1,-1,-3,-1
1480605892051738,0,0,-3,-1,-1,-2,-1,-2
1480605892053244,-1,0,-3,-1,1,1,-1,1
1480605892053244,-1,-2,-1,-2,1,-1,0,-1
1480605892059258,0,0,-1,-2,-1,-1,1,0
1480605892059258,-1,0,1,-1,-1,-2,0,-1
1480605892060763,0,0,0,-1,-1,-3,0,0
1480605892060763,0,-2,-1,1,-1,1,-1,-1
1480605892073798,-1,-1,-1,-2,-1,0,-2,1
1480605892073798,0,0,0,-2,2,-1,0,0
1480605892080315,0,0,1,-1,-2,-1,0,-2
1480605892080315,1,-1,-1,0,0,0,0,-1
1480605892097359,1,-1,-1,0,1,-1,-1,-1
1480605892097359,0,0,-1,-1,-2,0,0,0
1480605892098865,0,2,-1,0,0,0,-1,-1
1480605892098865,-2,0,1,0,-1,0,0,-2
1480605892126938,0,-2,1,-1,-2,-1,-1,0
1480605892126938,1,0,-1,0,0,0,-1,0
1480605892128442,0,-1,-2,0,-2,0,-2,-2
1480605892128442,-3,-2,0,-1,-1,-1,0,-1
1480605892142982,-1,0,-1,1,0,-1,0,-1
1480605892142982,0,-1,0,-2,-1,0,-1,0
1480605892144485,0,-1,0,0,-2,-1,0,-1
1480605892144485,-1,0,-2,-1,1,-1,-1,-1
1480605892157018,0,0,-1,0,0,-1,1,-2
1480605892157018,-1,0,0,-1,-1,-1,1,0
1480605892158522,-2,0,-1,-1,0,0,1,1
1480605892158522,-1,-2,0,1,-1,-2,-2,-2
1480605892185596,0,0,0,2,-1,0,0,0
1480605892185596,0,0,-1,1,0,-1,0,-2
1480605892195621,-1,-2,0,-2,0,0,-1,0
1480605892195621,-1,1,0,0,-1,-1,-1,1
1480605892196624,-1,0,1,-1,0,0,0,-2
1480605892196624,0,-1,-1,1,-1,1,0,0
1480605892200133,-2,1,-1,0,0,-1,-2,0
1480605892200133,1,-2,-2,-2,0,-1,0,-2
1480605892216676,0,0,-2,2,0,-4,-1,0
1480605892216676,-1,-1,-1,-1,-1,-2,-1,-2
1480605892218182,-1,0,-1,1,1,-1,0,0
1480605892218182,-1,-2,-1,0,-1,0,-2,1
1480605892239739,-2,-1,0,-3,-3,1,-1,1
1480605892239739,-1,-1,-1,-2,-1,-2,1,-1
1480605892241243,-2,-2,0,1,-1,-3,1,-1
1480605892241243,0,-1,0,1,0,-1,-1,0
1480605892253776,-2,-1,0,-2,-1,-1,0,1
1480605892253776,-1,-1,-1,-1,-1,0,-2,-2
1480605892260293,1,0,-1,-1,-1,-1,-1,0
1480605892260293,0,0,-1,2,-2,-3,0,1
1480605892284358,0,-1,-1,0,1,-1,1,-1
1480605892284358,-2,0,0,0,0,0,1,-1
1480605892285862,-1,-1,0,-3,-1,0,-1,0
1480605892285862,-1,0,-1,-2,-1,-1,0,-1
1480605892298395,1,1,-1,-1,-1,0,-2,-1
1480605892298395,-1,-1,-1,1,1,-1,-2,-1
1480605892306917,0,-1,-1,1,-1,0,-1,-1
1480605892306917,0,-1,0,-1,-1,0,0,0
1480605892313435,-1,-2,-1,0,-3,0,0,-1
1480605892313435,0,-2,-1,-3,-3,0,-1,0
1480605892327973,-3,-1,-1,0,-1,0,-1,-2
1480605892327973,-1,0,-1,0,1,0,-1,0
1480605892336998,1,-1,-3,-1,-1,0,-1,-1
1480605892336998,0,1,-1,-1,0,0,-1,-2
1480605892338504,0,0,-1,-2,-1,-1,1,1
1480605892338504,0,1,0,-1,0,0,1,-1
1480605892375100,0,-2,-1,-1,1,3,0,-1
1480605892375100,0,0,-1,0,0,1,0,-1
1480605892376603,1,-1,1,0,0,-1,-1,-2
1480605892376603,1,1,0,-1,0,1,0,-1
1480605892378108,-1,-2,-1,0,-1,-1,-1,0
1480605892378108,-1,-2,1,0,-2,0,-2,-1
1480605892381616,1,-1,-2,-1,-1,1,0,1
1480605892381616,0,-1,0,-1,-1,-2,-1,-1
1480605892397157,-1,-1,-1,-2,1,0,0,-2
1480605892397157,-1,0,-1,0,0,-1,-2,0
1480605892399163,0,-1,-2,-1,0,0,0,-1
1480605892399163,1,-3,-2,-1,0,0,-2,-1
1480605892419217,0,1,0,-2,-2,0,-1,0
1480605892419217,1,-1,-1,-1,1,-2,-1,1
1480605892420721,-1,-1,0,0,0,-1,-1,-2
1480605892420721,0,0,-1,0,-1,0,-2,0
1480605892432775,0,-1,0,0,0,-1,0,0
1480605892432775,-2,-1,-3,-1,-1,0,1,-1
1480605892441776,0,-1,0,-1,-2,-1,-1,0
1480605892441776,-1,0,1,-1,-3,-2,0,-2
1480605892471857,0,-1,-1,-1,-1,-1,0,-1
1480605892471857,-1,0,0,-2,0,0,1,-1
1480605892473360,0,-1,-1,-2,0,0,0,-1
1480605892473360,-2,0,0,-2,-1,-1,0,-1
1480605892479376,-1,0,1,0,0,-2,0,0
1480605892479376,-1,0,-1,0,0,-1,1,-1
1480605892485393,0,-2,-1,1,1,-1,-1,2
1480605892485393,-1,-1,-1,-1,2,0,0,-1
1480605892492912,-1,-1,-1,-1,-1,-1,-2,-2
1480605892492912,0,-2,-1,-1,-3,-1,0,0
1480605892518982,-2,-1,2,1,0,0,1,-1
1480605892518982,0,1,-1,-1,-1,-2,-1,0
1480605892519986,-1,-1,-1,0,-4,0,0,1
1480605892519986,-1,0,-1,0,0,0,-1,1
1480605892522992,-1,0,-2,0,-2,0,-1,-2
1480605892522992,-1,-1,0,0,1,-1,1,0
1480605892539037,-1,-2,-1,0,-1,-1,1,1
1480605892539037,0,1,0,1,-1,-1,-1,0
1480605892540539,-1,-1,-1,0,-1,0,0,0
1480605892540539,-1,0,0,-1,-1,2,-1,-1
1480605892562096,0,1,0,0,-1,0,-1,-2
1480605892562096,-1,-2,-1,0,-2,0,0,0
1480605892563600,-1,1,1,-3,0,-2,-2,0
1480605892563600,-1,-1,-1,1,-1,-1,-1,1
1480605892577136,-1,-2,1,-2,-1,0,0,-1
1480605892577136,0,-1,-2,-1,3,-1,-1,-1
1480605892579142,0,0,1,-2,-1,0,0,1
1480605892579142,-1,-2,-1,1,-2,0,-1,0
1480605892606715,-1,-1,-2,0,0,-1,-2,0
1480605892606715,-1,-2,0,-1,-1,1,0,-2
1480605892608219,0,-1,1,0,-3,1,0,1
1480605892608219,0,-1,-2,-1,0,0,1,0
1480605892612731,0,1,0,-1,-1,-1,-1,1
1480605892612731,0,0,-1,-2,0,-1,-1,0
1480605892627772,-1,0,-4,-1,0,-2,0,-1
1480605892627772,-2,-1,-2,-1,-2,0,-2,-2
1480605892636797,-1,1,-1,-1,-1,0,1,0
1480605892636797,-2,-1,0,1,-1,-3,1,0
1480605892638300,-1,1,1,-2,1,0,0,-1
1480605892638300,0,-1,0,-2,0,0,0,0
1480605892659355,0,0,-3,-2,-1,-1,0,0
1480605892659355,-2,0,-2,-2,-1,-1,0,0
1480605892660859,0,-1,-1,-1,-1,0,-1,0
1480605892660859,1,-1,-1,-2,-3,-2,0,-1
1480605892681915,-1,-1,0,-1,1,-2,-1,0
1480605892681915,-1,0,-1,0,-2,0,-1,-2
1480605892683419,-1,0,-3,0,-1,-1,-1,-2
1480605892683419,1,-1,-1,-2,0,0,0,0
1480605892696955,0,0,1,0,-1,0,-1,-2
1480605892696955,0,0,0,0,-2,0,-1,-1
1480605892698459,0,0,0,0,0,-1,0,0
1480605892698459,-2,0,1,0,-2,-2,-1,0
1480605892727035,1,-1,-1,-1,0,-2,-1,0
1480605892727035,-1,0,0,0,-3,0,-1,0
1480605892728539,-1,0,1,-1,0,1,-1,-1
1480605892728539,-1,-1,1,-1,1,0,-1,1
1480605892749093,-1,-2,0,-2,0,1,-1,-2
1480605892749093,0,0,-2,-1,-1,-1,0,-2
1480605892754608,-1,-2,1,-1,-1,0,0,-1
1480605892754608,0,-1,-1,0,-1,-1,0,-1
1480605892757114,-2,0,0,-1,0,-1,-2,-1
1480605892757114,2,-1,1,0,-1,-1,-1,0
1480605892759120,-1,1,0,1,-1,-1,-1,-1
1480605892759120,-1,-1,1,0,0,0,0,-1
1480605892794715,-2,0,0,0,0,-1,1,-1
1480605892794715,0,-2,-1,-3,1,-1,-1,-1
1480605892796721,0,-1,-3,-1,-2,-2,-1,1
1480605892796721,0,-2,0,0,-1,-2,-3,-2
1480605892797222,-1,-1,0,-1,-2,0,-1,0
1480605892797222,-2,0,0,0,-1,-1,-1,3
1480605892801734,0,-1,0,-1,-1,0,-1,-2
1480605892801734,-2,0,-2,0,-2,1,0,-2
1480605892816774,0,-3,-4,-1,0,0,-1,-2
1480605892816774,-2,0,-1,-1,1,0,0,0
1480605892818279,1,-1,0,-3,-1,-1,0,0
1480605892818279,1,1,-1,1,-1,0,2,-1
1480605892839836,0,0,-3,1,0,-1,-1,-1
1480605892839836,0,-1,0,1,-2,0,0,-1
1480605892841340,0,-2,1,-2,-1,-1,0,-1
1480605892841340,-3,0,-1,-2,-1,0,-2,0
1480605892869415,0,0,-1,0,-1,-2,1,0
1480605892869415,0,1,0,0,1,-1,-1,0
1480605892870919,0,0,1,0,0,1,0,-2
1480605892870919,0,0,0,-1,1,-2,-1,0
1480605892876934,-2,-1,0,2,1,0,0,0
1480605892876934,0,-2,-1,-1,-1,-1,0,0
1480605892878437,0,-1,-2,0,0,0,-2,0
1480605892878437,2,0,-3,0,-1,-2,-1,1
1480605892899996,0,0,0,-1,-2,-1,-1,-2
1480605892899996,0,-2,-1,-1,-2,0,0,-2
1480605892901500,-1,-2,-2,0,-1,-1,0,0
1480605892901500,-1,-2,1,-2,1,0,-1,-2
1480605892929073,0,1,0,0,-1,-1,-2,0
1480605892929073,1,-1,-2,-2,-2,-1,0,0
1480605892930577,0,-2,-1,-1,-1,0,-1,-1
1480605892930577,-1,-2,0,1,-1,0,-1,0
1480605892936594,-1,-2,0,-2,-2,-2,-2,-1
1480605892936594,-1,1,-1,-3,0,-1,0,-1
1480605892938097,-1,0,-2,-1,-1,-2,0,1
1480605892938097,-2,1,-2,-1,0,-2,0,-1
1480605892959152,0,-1,0,0,1,0,0,-2
1480605892959152,-2,1,0,0,1,-2,-1,0
1480605892961659,0,0,1,-1,-1,0,-1,0
1480605892961659,1,-2,-1,-2,1,-1,0,1
1480605892981712,1,-1,-1,-1,-1,-2,-1,0
1480605892981712,-1,0,0,-1,-2,-1,0,0
1480605892983217,0,1,-1,0,-3,-1,0,0
1480605892983217,0,-2,-1,-2,-1,1,-1,-1
1480605892997255,-2,-1,-1,-1,0,1,1,-1
1480605892997255,-2,-1,-2,0,-1,0,-1,0
1480605893002769,0,0,0,0,0,0,-1,-1
1480605893002769,-2,0,1,-1,-3,-1,0,-1
1480605893026832,-1,-1,-1,0,1,0,-1,0
1480605893026832,1,-1,1,-1,1,0,-1,-2
1480605893028336,-1,-1,-1,0,1,-1,-1,-1
1480605893028336,-1,-1,-1,1,-1,-1,-1,-1
1480605893041371,0,1,-1,-2,-2,0,1,-1
1480605893041371,-2,-2,-3,0,-2,-2,-2,0
1480605893047890,0,-1,0,-1,-1,-1,0,-1
1480605893047890,1,0,-1,1,2,-2,-1,0
1480605893071953,0,-1,-1,1,0,0,0,-3
1480605893071953,-1,0,0,0,-1,0,-1,0
1480605893073456,0,1,-2,-1,-1,-2,-2,-2
1480605893073456,0,0,-1,0,-1,0,-2,-1
1480605893078971,-1,1,1,0,-2,-1,1,1
1480605893078971,1,0,0,-1,1,0,-1,0
1480605893080977,-3,0,-2,2,-1,1,0,-1
1480605893080977,0,0,-1,-1,0,0,0,0
1480605893101531,-1,0,-1,-1,-1,0,-3,0
1480605893101531,0,-2,1,0,0,1,0,-2
1480605893103538,0,-1,-1,0,0,0,0,0
1480605893103538,-1,0,0,1,-1,0,-1,0
1480605893116571,1,-3,0,-1,-1,-1,0,-1
1480605893116571,0,-1,-1,1,-1,-1,0,1
1480605893123590,-1,-1,1,-2,0,-2,0,-2
1480605893123590,0,-2,-2,-1,-1,-2,0,-2
1480605893146651,-2,-1,-1,0,3,-1,-1,0
1480605893146651,-2,1,-1,-2,-2,0,0,-3
1480605893148155,1,0,-1,0,-2,0,-1,-2
1480605893148155,1,-1,-1,-3,-2,-1,1,-2
1480605893161691,0,0,-1,0,-2,-2,-1,1
1480605893161691,0,1,-2,-2,-1,-1,-1,-2
1480605893163196,1,1,-1,-1,-1,-1,0,0
1480605893163196,-1,0,-2,0,-2,-1,-1,-1
1480605893176230,-1,-2,-1,-1,-1,-1,-1,-1
1480605893176230,1,0,0,-1,1,-1,0,0
1480605893182747,0,-2,0,0,-1,1,0,-2
1480605893182747,0,-1,1,0,-1,1,-1,0
1480605893198790,0,0,-2,0,-2,-1,1,0
1480605893198790,0,-1,-1,0,1,-1,2,0
1480605893205307,-2,1,0,1,0,-2,-2,0
1480605893205307,0,-1,0,-2,0,-1,0,0
1480605893221350,-2,-1,-1,-2,-3,-1,-1,-1
1480605893221350,-1,-1,0,0,-2,-3,0,0
1480605893227867,0,0,-1,-1,2,0,-1,-1
1480605893227867,-1,0,-2,1,0,0,-2,2
1480605893235894,0,-1,-2,1,-1,0,0,0
1480605893235894,0,0,0,-1,-2,-2,-1,0
1480605893242907,-1,-1,0,-1,-2,-1,0,-1
1480605893242907,0,0,0,0,-2,-1,0,-2
1480605893258950,1,0,-1,-1,-1,-1,1,-1
1480605893258950,-1,0,-1,-1,-2,-1,-1,0
1480605893260955,-2,-3,-1,-1,-1,-1,-1,0
1480605893260955,-2,-1,0,-2,-1,-1,1,0
1480605893281509,-2,0,1,-3,-1,2,0,0
1480605893281509,-1,-2,-1,-2,0,-1,-1,-2
1480605893283516,-1,0,-1,-1,0,-3,-1,-2
1480605893283516,-1,1,0,1,-1,0,-1,-1
1480605893304074,-1,-2,-2,0,2,-2,-1,-1
1480605893304074,1,0,0,-1,0,1,1,-1
1480605893306076,0,0,0,-1,-1,0,-1,0
1480605893306076,-1,0,0,0,-1,0,0,0
1480605893318110,0,0,-2,2,-1,-1,-2,-2
1480605893318110,-1,-1,2,-1,0,0,-1,0
1480605893327131,1,0,-2,-1,-1,0,0,1
1480605893327131,-2,-3,1,-3,-1,-1,0,0
1480605893349190,0,0,-1,-1,1,-2,-1,1
1480605893349190,-1,-1,-1,-1,0,-2,0,-1
1480605893350695,-1,0,1,0,-1,-1,1,0
1480605893350695,0,-1,-1,0,0,1,-1,-2
1480605893371249,0,0,1,-1,-1,-1,0,-1
1480605893371249,0,-1,-1,0,-1,1,-1,-1
1480605893378267,0,-1,-3,-1,1,0,-1,0
1480605893378267,-1,0,-2,-1,1,-3,-2,1
1480605893394310,-2,-1,0,-2,-3,0,0,0
1480605893394310,-1,0,-2,0,-1,-1,-3,-1
1480605893395814,-1,0,1,1,0,0,0,0
1480605893395814,1,0,-1,-1,0,0,0,-1
1480605893401835,0,0,-2,-2,-1,-1,2,-1
1480605893401835,0,-2,-1,-1,0,1,0,-1
1480605893403335,-2,-2,-2,-3,-3,-1,-1,0
1480605893403335,-1,-2,-1,-2,0,-1,1,0
1480605893415868,-1,-1,1,-1,0,-2,-1,-2
1480605893415868,-1,1,0,-2,-2,-1,-2,0
1480605893441435,0,-1,-1,-2,-1,-1,-1,0
1480605893441435,-2,-1,0,1,-1,-1,0,-1
1480605893441937,-1,-2,-1,0,1,0,-2,0
1480605893441937,1,1,-1,0,-1,-3,1,-1
1480605893445446,-1,-1,-1,-1,-1,-1,0,-1
1480605893445446,-1,1,-1,-1,-1,0,0,1
1480605893461990,0,0,-1,1,-2,-1,0,-1
1480605893461990,-2,-2,1,1,-1,0,0,0
1480605893463996,-2,0,1,1,-2,0,-1,0
1480605893463996,0,-2,-1,1,-1,-1,-1,-1
1480605893475527,0,-1,0,-1,-1,1,0,0
1480605893475527,0,0,-2,0,0,-1,1,0
1480605893484550,1,-1,-1,-1,-2,0,-1,0
1480605893484550,-1,0,0,-4,0,0,-3,-1
1480605893499089,1,-2,0,1,0,0,-2,0
1480605893499089,-1,-1,-1,0,-2,1,-1,-2
1480605893500594,-1,0,0,-1,1,0,-2,-1
1480605893500594,0,-1,-1,0,-2,1,0,0
1480605893522150,0,-1,-1,1,-1,-2,0,0
1480605893522150,-2,0,0,-2,0,-2,1,-1
1480605893524155,-2,-1,-1,0,0,-1,0,-1
1480605893524155,-1,-1,1,-1,0,0,-1,-3
1480605893535187,-1,-1,-2,-1,1,0,0,-2
1480605893535187,0,-2,-3,-1,-1,-1,0,0
1480605893544209,2,-2,-2,1,-2,-1,0,0
1480605893544209,-2,0,0,-1,-1,-3,-1,1
1480605893559750,-1,-2,2,-3,-2,0,-1,0
1480605893559750,0,0,1,1,1,1,0,-1
1480605893561254,-1,0,0,0,-1,-1,0,-2
1480605893561254,0,0,-2,0,-1,-1,1,0
1480605893582310,-1,-1,-1,-1,0,-2,-1,0
1480605893582310,1,-1,-1,-1,-1,-1,-2,-2
1480605893583815,0,-2,-1,-2,0,-1,1,0
1480605893583815,-1,-1,-1,1,-1,0,0,0
1480605893595345,-1,-2,-2,0,-2,0,-1,0
1480605893595345,0,-2,-2,-1,-2,0,0,0
1480605893604371,-1,1,-1,0,-2,-2,-1,1
1480605893604371,1,0,-2,0,-2,-3,0,0
1480605893626930,0,-1,0,0,-1,1,-1,1
1480605893626930,0,-1,1,1,-2,0,-1,-1
1480605893628934,0,0,0,0,-2,0,1,-2
1480605893628934,0,-1,0,-2,0,-2,-1,-1
1480605893655505,0,0,-2,0,0,-1,0,-1
1480605893655505,-1,0,0,-1,1,-1,1,1
1480605893674054,0,0,-1,-1,0,1,-2,0
1480605893674054,0,1,-1,0,1,-2,0,-1
1480605893674556,0,2,0,-1,-1,0,0,0
1480605893674556,-2,-1,-2,0,-1,-1,-2,-1
1480605893680070,0,1,0,-2,-1,-1,0,-2
1480605893680070,-2,-1,0,0,-1,1,0,-2
1480605893680572,1,-1,0,1,-3,0,0,0
1480605893680572,-2,-1,-1,7,0,-1,-1,-1
1480605893682076,0,-2,-1,3,1,-1,-2,0
1480605893682076,0,-3,-1,1,-1,0,1,0
1480605893717172,-1,-1,-1,-4,-1,-2,0,0
1480605893717172,-1,-1,0,-6,-1,-1,1,-1
1480605893719175,0,-1,-1,-3,-3,1,0,-1
1480605893719175,-1,0,-3,-4,0,0,-1,-1
1480605893719677,-1,0,-2,-2,0,1,-1,0
1480605893719677,0,0,0,-1,0,0,-1,1
1480605893730204,0,-2,-1,-2,0,0,-1,-1
1480605893730204,0,-1,-1,-1,-2,-2,-1,0
1480605893746747,-1,-2,0,-1,-1,-2,-1,-1
1480605893746747,0,0,1,0,-1,-1,0,-1
1480605893748252,1,-2,1,-1,0,-1,0,0
1480605893748252,0,-1,-2,-2,0,0,-1,-1
1480605893761787,-1,-2,-1,0,1,-1,-1,-2
1480605893761787,-1,-1,1,-1,-1,0,0,0
1480605893764296,-2,-3,-1,-1,-1,0,-1,1
1480605893764296,-1,-2,-2,0,-1,-1,-1,0
1480605893784348,1,0,-1,1,-1,0,0,0
1480605893784348,-1,-1,0,-3,1,-1,0,0
1480605893785855,-1,0,-1,-1,-1,-1,-1,-1
1480605893785855,-2,-1,0,1,-3,1,0,0
1480605893798889,-2,1,-1,-2,0,-1,0,-1
1480605893798889,-1,1,-1,-1,0,-1,-1,0
1480605893805404,2,1,-1,1,-1,-2,0,0
1480605893805404,1,0,0,-2,-1,-1,0,0
1480605893821951,-2,-2,1,-1,0,0,-1,0
1480605893821951,0,-1,0,-1,-2,-2,1,-1
1480605893823452,1,0,1,-2,0,-2,-1,-1
1480605893823452,-1,1,0,0,0,-2,-2,-1
1480605893844008,0,1,0,1,-1,-1,0,0
1480605893844008,-1,-1,-2,1,-1,0,-2,1
1480605893861554,0,-1,-1,-1,0,0,1,0
1480605893861554,-1,0,-1,0,0,-2,0,0
1480605893862055,0,-2,0,0,1,-2,0,-1
1480605893862055,0,0,-1,0,-1,-1,0,0
1480605893865564,0,-2,-1,-1,0,1,-1,-2
1480605893865564,-1,-1,0,0,-2,0,-2,0
1480605893881606,-1,0,0,-2,-1,-1,-1,-2
1480605893881606,0,0,0,-1,0,-1,-1,0
1480605893883110,-1,-1,-1,0,0,2,1,0
1480605893883110,-2,-2,-1,-1,1,1,-1,-3
1480605893904168,1,0,-1,-9,-1,0,-1,-2
1480605893904168,0,-1,-1,-5,-1,0,-1,0
1480605893906673,-1,-1,-1,-3,-1,-2,-1,-1
1480605893906673,0,0,0,0,1,0,-1,0
1480605893919208,1,-1,-1,4,-1,-2,0,1
1480605893919208,2,0,-2,0,0,0,-1,-2
1480605893920711,-1,-1,-3,5,0,0,-1,0
1480605893920711,-1,-2,-1,3,-1,-1,0,-2
1480605893949286,-1,0,-2,3,0,1,0,0
1480605893949286,-1,0,0,-2,-1,-1,-2,1
1480605893950791,-3,-1,0,1,-1,0,1,0
1480605893950791,0,-1,-1,0,1,2,-1,-2
1480605893978869,-1,-1,-1,1,0,0,1,0
1480605893978869,-1,-2,0,0,-3,0,1,-1
1480605893994908,-1,0,-2,-1,-2,-1,0,0
1480605893994908,1,0,-1,0,-1,-2,1,0
1480605893995409,-1,0,0,-2,0,-1,-2,0
1480605893995409,-1,-2,1,-1,-1,1,-1,-1
1480605893997415,0,0,0,-1,0,-2,-2,-1
1480605893997415,0,-1,1,-1,0,-1,-1,0
1480605894001926,0,0,-1,0,-3,-2,-1,0
1480605894001926,0,1,-3,-1,0,-3,-1,1
1480605894003433,0,-2,0,-1,-1,0,-1,-1
1480605894003433,1,-1,0,-2,-1,0,1,0
1480605894023985,-1,-2,-1,0,1,-2,0,-1
1480605894023985,-1,-1,-3,0,-1,0,-1,0
1480605894025990,0,-1,0,-2,-2,0,-1,0
1480605894025990,0,1,-1,2,-2,1,-1,-3
1480605894038529,-1,-1,1,0,-2,0,0,-1
1480605894038529,-1,0,1,-1,-1,0,-2,0
1480605894045542,-1,0,-1,1,0,-2,-2,0
1480605894045542,-2,1,0,0,-2,-3,-1,1
1480605894061586,-1,0,-1,-2,1,-1,-1,0
1480605894061586,-1,-2,0,1,-1,-1,0,-1
1480605894069610,-1,1,-1,-1,-1,0,0,-1
1480605894069610,-1,-2,1,-2,-1,0,1,-1
1480605894084146,-1,-1,-1,0,0,0,0,1
1480605894084146,-1,-1,1,0,1,-3,-1,1
1480605894085652,1,-2,1,-1,0,-1,-2,-2
1480605894085652,-1,1,-3,0,0,-2,0,0
1480605894098685,0,-1,-2,0,-2,-2,-1,0
1480605894098685,0,1,-2,0,-2,0,0,-1
1480605894105202,0,-1,0,1,0,0,0,0
1480605894105202,0,-2,-1,-1,1,0,-1,0
1480605894122249,-1,-1,-2,-2,-1,0,-2,0
1480605894122249,-2,0,-1,0,0,0,0,0
1480605894123750,-2,-1,0,0,-2,-1,0,0
1480605894123750,0,-1,-1,0,-1,-1,1,-1
1480605894144305,0,0,0,0,-1,-1,-2,-1
1480605894144305,0,-2,-1,-1,-1,1,-1,-1
1480605894145809,-2,2,-2,-2,0,-1,1,-1
1480605894145809,-1,-2,-1,-1,-1,-1,-1,1
1480605894158343,-1,0,0,-2,0,1,-1,-1
1480605894158343,0,0,-2,-2,-1,-3,-1,-1
1480605894165361,-2,0,-1,-2,0,-1,-1,0
1480605894165361,1,1,-1,-1,-2,0,0,0
1480605894181405,1,0,0,2,-1,-2,-2,0
1480605894181405,1,-1,-1,-1,0,-2,0,-2
1480605894183410,1,-3,0,-1,-1,-1,0,0
1480605894183410,-1,0,-1,-1,-2,-2,-2,-1
1480605894228028,0,-3,-3,-1,0,0,0,1
1480605894228028,-1,-1,0,-2,0,1,-1,-1
1480605894229533,0,0,0,0,-1,0,0,-1
1480605894229533,0,0,-1,0,-1,0,-1,-1
1480605894230535,0,-1,1,1,-1,-2,0,-1
1480605894230535,0,-1,-1,-1,0,-1,1,-1
1480605894235548,0,-2,-1,0,-2,1,-1,-1
1480605894235548,-2,0,-1,0,0,1,0,1
1480605894255602,-1,-1,-2,-2,-1,-2,-1,0
1480605894255602,-1,-2,-1,0,0,-1,1,0
1480605894273650,0,-1,-1,0,0,0,-1,0
1480605894273650,-1,-1,-2,1,-1,0,0,0
1480605894275655,1,-1,-1,-2,0,0,1,0
1480605894275655,-1,1,0,0,0,0,-1,0
1480605894278663,-1,-1,0,-2,-2,-1,-1,-1
1480605894278663,1,0,1,-2,-1,-1,-1,-1
1480605894279164,-1,-1,1,1,1,0,-1,0
1480605894279164,-2,-1,0,1,-1,1,-1,0
1480605894292700,0,-1,-1,0,1,-1,-3,-2
1480605894292700,-1,-2,0,-2,-2,-3,-2,0
1480605894301725,-1,1,-1,-1,-1,-1,0,-2
1480605894301725,0,-3,-1,0,-2,-1,-1,0
1480605894303234,-2,1,-1,-1,-3,0,0,0
1480605894303234,-1,0,-1,-1,-1,0,-1,0
1480605894324785,0,0,-1,-1,0,-1,0,0
1480605894324785,-2,-1,-1,-1,-3,-1,1,-1
1480605894338325,0,-3,-1,-2,-1,-1,1,0
1480605894338325,-1,-1,-1,0,0,-1,0,-3
1480605894339325,-1,-2,-1,0,-1,0,-1,0
1480605894339325,0,0,0,0,0,1,-2,-1
1480605894352861,1,0,-1,1,-1,-1,-1,-1
1480605894352861,-1,0,-1,-1,1,1,0,-1
1480605894362385,-1,0,-1,-1,-1,-1,1,-1
1480605894362385,-1,0,1,-1,-1,0,0,-1
1480605894363889,-1,-1,-2,-1,-1,-1,-1,0
1480605894363889,-1,-2,0,-1,0,-1,-1,0
1480605894383944,-1,-2,-1,0,-2,-2,0,-1
1480605894383944,1,-1,-2,0,-2,-1,-1,-1
1480605894390460,0,0,-1,0,0,-1,0,1
1480605894390460,-1,0,-2,-1,0,1,-3,-2
1480605894414023,-2,-2,0,0,-2,-1,1,-3
1480605894414023,-1,-1,-1,-1,0,-1,0,1
1480605894416028,0,-2,0,2,1,0,1,-1
1480605894416028,0,-1,-1,2,-1,-1,-1,1
1480605894428061,0,0,-1,-2,0,0,-2,0
1480605894428061,-1,-1,-1,-1,-1,-1,0,-1
1480605894438087,0,0,-1,0,0,-1,-2,-1
1480605894438087,0,-1,-1,-3,-1,0,1,1
1480605894443100,1,0,-1,-2,0,0,0,0
1480605894443100,1,-1,-1,-1,0,-1,0,0
1480605894460145,0,-1,0,1,-1,-3,0,-1
1480605894460145,-2,-1,-1,1,0,-3,1,-2
1480605894460647,-2,-1,-1,0,-1,1,-2,-1
1480605894460647,1,-1,1,-1,0,-1,0,1
1480605894466663,0,-1,-1,-2,0,-3,-1,0
1480605894466663,0,0,-2,-1,0,-1,-2,-1
1480605894505267,1,1,-1,1,-1,1,0,-1
1480605894505267,-1,-1,-1,0,1,-1,-1,0
1480605894507275,0,-2,-1,-1,1,1,-1,0
1480605894507275,-2,-1,0,0,-1,-1,0,1
1480605894507773,-2,-1,-2,0,0,1,-1,0
1480605894507773,0,-2,-1,0,-3,-1,0,-3
1480605894511783,-1,1,0,-1,-1,-1,-1,0
1480605894511783,1,-1,1,1,3,-1,1,-1
1480605894526823,-1,-1,1,-2,1,-1,-1,1
1480605894526823,0,0,-2,-2,-2,0,0,0
1480605894528328,0,-1,0,-2,-1,0,0,-1
1480605894528328,0,-1,-1,-1,-3,-1,0,-1
1480605894549383,-2,-1,1,0,-1,-1,-1,-1
1480605894549383,-1,-1,0,0,0,-1,-2,0
1480605894550888,0,0,0,-1,-2,-1,-1,-1
1480605894550888,-1,-1,-1,1,-1,-1,1,0
1480605894563422,1,-2,-1,-1,-1,0,0,-1
1480605894563422,-1,1,-2,-1,-1,1,1,1
1480605894571944,0,0,0,1,-2,1,0,-1
1480605894571944,-1,-1,0,-1,0,-1,-2,-1
1480605894577959,-1,1,-2,0,0,-1,-2,-1
1480605894577959,0,-2,-1,-1,0,0,-1,0
1480605894586985,-1,-2,-1,0,0,1,0,0
1480605894586985,0,0,-1,-1,-1,0,0,-1
1480605894601521,-1,-1,-2,-1,-2,-1,0,-1
1480605894601521,1,0,0,-2,0,-1,-2,0
1480605894603530,-1,-1,0,1,-2,0,-1,-1
1480605894603530,-1,-1,-2,-1,-1,-2,-1,-1
1480605894624082,1,-2,-3,-3,-2,-3,0,0
1480605894624082,0,0,-2,-1,-1,-1,0,0
1480605894625586,-1,0,-2,-2,-1,-1,1,-1
1480605894625586,0,0,1,-1,-1,-1,0,-1
1480605894638120,0,0,2,0,-1,0,0,-1
1480605894638120,-2,-2,0,0,-2,1,0,-1
1480605894646642,0,0,0,-1,1,-2,1,-1
1480605894646642,0,1,0,-1,-1,1,-1,-1
1480605894662685,-1,0,0,0,-1,-1,0,-1
1480605894662685,0,-1,-1,0,-1,-1,0,-1
1480605894665192,-1,-1,-1,-1,1,-1,-1,0
1480605894665192,1,-2,-1,-1,-1,-2,0,-1
1480605894691762,-1,-1,-1,-2,0,1,-1,0
1480605894691762,0,0,0,-1,-3,-2,0,0
1480605894694269,-1,-3,-2,-1,-2,-1,0,-1
1480605894694269,1,1,-1,-1,-1,0,1,-2
1480605894697778,1,-1,0,-2,1,0,-1,-1
1480605894697778,0,-2,-1,-2,-1,-1,0,-2
1480605894707804,-1,1,-2,1,-2,0,-1,2
1480605894707804,-1,-1,-1,1,-1,-2,-3,0
1480605894736882,-1,-2,-1,1,-1,-1,1,-1
1480605894736882,-1,0,-2,0,0,0,0,-2
1480605894739389,0,0,0,-1,-1,1,0,-2
1480605894739389,2,0,0,-1,-1,1,0,-2
1480605894744401,-1,0,-2,0,-2,-1,-1,1
1480605894744401,0,-2,1,-2,0,0,-1,-1
1480605894745906,-1,-1,1,0,-1,0,-2,0
1480605894745906,-1,-2,-1,-1,-1,0,1,1
1480605894783005,-1,-1,-2,-1,0,-1,-2,-1
1480605894783005,-1,1,0,0,0,-1,0,0
1480605894784510,-1,-2,0,-3,-2,-1,0,0
1480605894784510,-1,0,1,-2,-1,0,-1,0
1480605894785512,2,0,0,-1,-1,1,-1,0
1480605894785512,-1,-1,0,1,-1,0,-1,-1
1480605894789522,0,-1,-2,1,0,0,1,-2
1480605894789522,1,-1,-2,-1,-2,0,1,1
1480605894828124,-2,-1,0,-1,0,-2,0,0
1480605894828124,0,-1,-1,0,-1,0,1,-2
1480605894829630,1,0,-2,-1,1,-1,-1,0
1480605894829630,-1,0,-2,-2,0,-2,1,0
1480605894830631,-1,-1,-1,1,-1,-1,0,-2
1480605894830631,1,0,-1,-3,-1,-2,-1,-1
1480605894834141,-1,-1,0,-2,1,-2,-1,-1
1480605894834141,0,-2,0,1,1,0,-1,0
1480605894841661,1,0,0,2,0,0,1,-1
1480605894841661,-1,1,-2,1,1,-1,0,0
1480605894843165,0,1,-2,-2,-2,1,0,0
1480605894843165,-1,0,-1,-1,0,-2,-2,-1
1480605894864221,-1,-3,-1,-2,0,-3,0,0
1480605894864221,0,-1,1,2,1,0,-1,0
1480605894871744,-1,0,0,-1,-1,0,0,0
1480605894871744,0,-1,0,0,1,0,-1,0
1480605894894301,-1,1,0,-1,-1,1,-1,-1
1480605894894301,-2,-1,-1,0,-1,1,0,0
1480605894895805,0,-1,1,-2,-1,-1,-1,-1
1480605894895805,-1,-1,0,0,-3,0,-1,-1
1480605894901320,-1,-1,-1,-2,0,-1,-2,1
1480605894901320,1,-1,-1,1,-1,0,0,0
1480605894907836,-1,0,-1,1,-1,0,-1,0
1480605894907836,-2,-1,-1,-1,0,0,0,-1
1480605894924381,0,-1,-1,-1,-1,0,0,0
1480605894924381,0,0,-1,-1,-2,-1,-1,-1
1480605894925885,-1,0,-1,-1,-1,-1,1,0
1480605894925885,0,-2,-1,1,-2,-1,-1,0
1480605894946439,-1,-1,1,-1,-2,-2,-2,-1
1480605894946439,-2,-1,-1,0,2,0,-2,-1
1480605894948445,0,-1,0,-1,0,0,-1,-1
1480605894948445,-1,-1,-2,0,0,1,0,0
1480605894969000,1,-1,-1,1,-1,-2,-2,-1
1480605894969000,0,0,-2,-1,-2,0,1,0
1480605894971005,0,-1,0,-1,0,-2,0,0
1480605894971005,0,0,0,-1,-1,0,-1,-1
1480605894984542,-1,1,0,0,0,-1,-1,-1
1480605894984542,0,0,-1,-3,-1,-3,-1,0
1480605894986045,-2,1,-2,3,1,1,-1,-2
1480605894986045,-1,-1,-1,0,-1,-1,0,0
1480605895015121,-3,-1,0,-2,0,0,0,-2
1480605895015121,-1,-1,1,-1,0,0,-1,-1
1480605895016627,-1,1,0,0,-2,0,-1,-1
1480605895016627,0,-1,-1,-2,1,0,-1,0
1480605895021137,-1,1,0,-1,-3,-1,-1,0
1480605895021137,0,0,-1,0,-1,-1,0,0
1480605895044701,1,0,-1,1,1,-1,1,-1
1480605895044701,0,-1,0,1,-2,-2,-1,-3
1480605895045202,1,-2,-1,-2,-1,-1,0,0
1480605895045202,-1,-2,0,-1,-2,-2,0,-1
1480605895067261,-1,-3,-1,1,-3,-1,-2,1
1480605895067261,-2,-1,-1,-2,-1,-1,-1,0
1480605895068265,0,0,-2,0,3,-1,0,0
1480605895068265,0,0,-1,-2,0,0,-1,-1
1480605895069768,1,-1,-1,-2,-2,0,-1,0
1480605895069768,1,0,0,0,-2,1,0,1
1480605895081799,0,-1,-2,0,0,0,-1,-2
1480605895081799,0,-1,0,-2,0,2,0,-1
1480605895095336,-1,-1,0,-1,0,-1,0,-2
1480605895095336,-1,0,0,0,-1,0,-1,-2
1480605895104360,-1,-1,1,0,0,0,0,-1
1480605895104360,0,-1,-1,-3,0,-2,0,0
1480605895105864,0,-1,0,-2,0,0,-2,-2
1480605895105864,-1,0,1,0,-1,-1,-1,1
1480605895134442,-1,-2,0,-1,-1,-1,0,0
1480605895134442,0,-2,-1,0,-2,0,0,0
1480605895135943,1,1,-1,0,0,-1,-2,0
1480605895135943,-1,0,-1,-2,0,-1,0,-1
1480605895140959,-1,2,0,0,-2,0,0,-1
1480605895140959,0,0,1,1,0,-1,0,-2
1480605895147975,-1,0,0,-2,0,-2,0,2
1480605895147975,1,-2,-2,-1,0,-1,0,-2
1480605895164018,0,-1,0,0,-1,1,0,0
1480605895164018,-2,-1,-1,1,-3,1,-2,-1
1480605895165523,-1,0,-1,0,-2,-2,1,0
1480605895165523,-1,-1,0,1,0,0,-1,-2
1480605895186578,0,1,0,1,-2,0,2,-1
1480605895186578,0,-1,-2,0,-1,-2,-2,-1
1480605895188083,1,0,1,-1,-2,-2,-1,-1
1480605895188083,0,-1,-1,0,1,0,-1,0
1480605895201120,0,0,-1,1,2,0,1,-1
1480605895201120,0,-1,0,-1,-1,0,-1,-1
1480605895208637,-1,-1,0,-1,0,-1,0,0
1480605895208637,-1,-1,-2,-1,-1,-1,0,-2
1480605895224180,-1,0,0,-1,1,0,-1,0
1480605895224180,0,-1,0,-1,1,-2,0,-1
1480605895225682,0,-3,-1,0,0,0,-1,-1
1480605895225682,0,-1,-2,0,-1,0,-1,-1
1480605895247239,-1,-2,0,-3,0,0,-1,-1
1480605895247239,-1,1,0,1,-1,-3,1,1
1480605895248745,-1,0,-1,-1,0,0,-2,-2
1480605895248745,-1,-1,0,0,0,-2,1,1
1480605895260274,-2,-2,-1,-1,-2,1,1,1
1480605895260274,-2,0,0,-1,1,0,-1,-1
1480605895269298,-1,-1,-1,-1,0,0,0,1
1480605895269298,1,-2,-1,0,-2,-2,-2,0
1480605895291858,-1,-1,0,-1,0,-1,-1,-1
1480605895291858,1,-2,0,-1,-2,1,-1,0
1480605895293362,1,1,-2,1,-1,0,1,-2
1480605895293362,0,0,0,-2,-1,1,0,-1
1480605895337985,-1,-2,-1,-1,0,0,-1,0
1480605895337985,-2,-2,0,-1,0,-2,-2,1
1480605895339485,0,1,-1,0,-1,0,0,0
1480605895339485,-1,1,0,-2,-1,-2,0,1
1480605895340488,0,0,-1,1,-2,-2,0,0
1480605895340488,0,-2,0,0,1,-1,0,0
1480605895346504,-1,0,0,-2,-1,0,0,-2
1480605895346504,0,0,-1,-1,0,-1,0,-2
1480605895347005,0,-1,-1,0,0,-1,-1,0
1480605895347005,-1,-1,-2,0,-3,0,0,0
1480605895357533,-1,-2,-1,1,-1,1,0,-1
1480605895357533,-2,0,-1,-1,-1,-2,-1,1
1480605895374081,-1,0,-1,-1,-1,-1,0,0
1480605895374081,0,-1,0,0,-1,-1,2,-1
1480605895382600,-1,-1,0,-1,1,0,0,-1
1480605895382600,-2,1,-2,-2,0,-1,0,-1
1480605895383102,-1,0,-2,0,-2,0,-3,0
1480605895383102,-1,-2,-1,-1,-1,1,0,-2
1480605895389117,1,0,-1,2,-1,-1,-1,-1
1480605895389117,1,-2,0,0,-1,-1,0,-1
1480605895404157,0,-2,1,-1,0,-2,-2,-2
1480605895404157,1,-1,-1,-1,2,1,-1,1
1480605895405661,-1,-1,0,-1,0,-3,-1,-1
1480605895405661,-1,0,0,-1,-2,0,-1,-1
1480605895427218,-1,0,0,-2,-1,-2,0,0
1480605895427218,-1,-1,-1,-1,0,-1,1,-1
1480605895428722,-3,0,-1,-2,1,0,1,-1
1480605895428722,-1,-1,0,-1,0,0,-2,-2
1480605895440254,0,1,-2,-2,-2,1,-1,-1
1480605895440254,0,0,-3,-2,-1,-1,-2,-1
1480605895449278,0,-2,-2,-2,-3,-1,-1,1
1480605895449278,-2,-2,-1,2,-2,1,0,1
1480605895471838,0,0,-1,0,0,0,0,-1
1480605895471838,-1,0,-1,-1,0,0,-2,0
1480605895473342,1,0,0,2,0,-2,0,0
1480605895473342,-1,-1,-1,-1,-1,0,0,0
1480605895486877,0,-2,-1,-1,0,-2,2,-1
1480605895486877,-1,0,0,-1,0,-1,-2,0
1480605895488381,-2,1,0,-1,-1,-2,-1,0
1480605895488381,1,0,0,-1,0,-1,1,-1
1480605895500423,1,-1,0,0,-1,-2,0,0
1480605895500423,0,0,0,-2,-1,0,-1,-1
1480605895526482,-2,-2,-1,0,-1,1,0,1
1480605895526482,-1,0,0,0,-1,-2,-1,0
1480605895526984,0,0,-1,0,0,0,0,-1
1480605895526984,1,-1,-1,2,-1,0,0,-1
1480605895530494,0,-2,0,-2,-1,0,0,-1
1480605895530494,-1,0,-1,0,0,-2,0,0
1480605895555058,-3,-1,0,1,-3,-1,-1,1
1480605895555058,1,1,0,-1,-1,-1,-1,0
1480605895569597,-2,-1,-1,-2,-1,-1,-1,0
1480605895569597,-1,-2,-1,-1,0,-3,0,-2
1480605895571603,1,-1,0,-1,0,-1,0,0
1480605895571603,0,-2,-2,-1,-1,-1,0,-1
1480605895573107,-1,0,1,0,0,-1,0,-1
1480605895573107,0,-1,-1,-1,-1,0,0,0
1480605895599176,-1,0,-1,0,-1,1,0,-1
1480605895599176,0,-2,0,0,0,-2,-1,0
1480605895614717,1,0,-1,-2,0,-1,0,-1
1480605895614717,-1,0,0,-2,-2,0,0,0
1480605895615721,0,-1,-1,1,-1,-1,-1,-1
1480605895615721,-1,1,0,1,-1,-2,0,0
1480605895617227,0,-1,-3,0,0,0,-1,-1
1480605895617227,0,0,0,0,-2,2,-1,0
1480605895620232,0,-3,-1,-1,-1,1,-2,-1
1480605895620232,0,0,-1,-1,-1,1,-1,0
1480605895635272,0,1,0,0,-1,-1,1,-3
1480605895635272,0,1,0,0,0,0,-1,0
1480605895644296,0,0,-2,-1,1,0,1,-1
1480605895644296,0,-1,0,0,-1,-1,-1,1
1480605895645800,-1,0,-1,1,-1,-1,0,0
1480605895645800,0,2,-1,-1,1,1,-1,-2
1480605895666857,0,1,0,0,-1,-2,-2,0
1480605895666857,-2,-1,-1,0,-1,-1,0,-1
1480605895669363,-1,0,-2,-1,0,0,0,0
1480605895669363,0,-1,0,-2,0,-1,1,1
1480605895689416,0,-2,0,0,-2,-1,-1,0
1480605895689416,1,-3,0,-1,0,-1,0,-1
1480605895690920,0,0,-1,0,-1,1,-2,0
1480605895690920,-1,-1,-2,2,1,0,-1,0
1480605895704458,-3,1,-1,2,-1,-1,0,0
1480605895704458,1,0,-1,-1,-1,-1,0,-2
1480605895705960,-1,0,-1,-1,-1,0,-1,1
1480605895705960,-2,0,1,1,-1,-1,-2,1
1480605895726515,1,-1,-1,-2,-1,-2,-1,-1
1480605895726515,-1,-1,-1,1,-2,0,-2,-1
1480605895740552,1,-3,-1,-1,1,-2,-2,0
1480605895740552,0,-1,-1,-2,-1,-1,0,-2
1480605895749074,0,0,-1,-1,-1,1,-1,0
1480605895749074,0,1,0,-2,0,-1,0,1
1480605895750582,-1,-1,-1,0,-1,0,-1,-1
1480605895750582,0,0,-1,-1,1,-2,-2,-1
1480605895764116,-1,-1,1,-1,0,-1,0,-1
1480605895764116,-1,0,-1,0,-3,-2,0,0
1480605895765619,0,0,-1,-1,-1,-2,0,0
1480605895765619,0,-2,-2,-1,-1,-1,-1,-1
1480605895801715,0,1,-2,-1,-2,-1,1,-1
1480605895801715,-2,-1,0,0,1,1,-1,-1
1480605895803218,-2,0,0,-1,-1,-1,0,-1
1480605895803218,0,-2,-1,1,-3,0,0,0
1480605895809236,-3,-1,-1,0,0,-1,0,-1
1480605895809236,0,-1,0,-1,1,-1,0,0
1480605895811741,-2,-2,-2,0,0,0,0,0
1480605895811741,-2,0,-1,-1,1,-2,0,0
1480605895824777,0,0,0,-1,-1,-1,-1,0
1480605895824777,0,0,-2,0,0,0,1,0
1480605895847336,-1,-1,0,0,0,-1,-2,0
1480605895847336,0,0,-2,1,-1,-1,-2,0
1480605895848339,0,-2,-1,1,-1,-2,-1,0
1480605895848339,-1,-1,-3,1,-2,0,0,1
1480605895849844,0,0,0,0,0,0,-2,-1
1480605895849844,-1,0,1,-2,-2,1,-1,-1
1480605895876916,0,-3,2,-1,-1,0,-2,-1
1480605895876916,0,0,0,-2,0,-3,-1,0
1480605895878419,-3,-1,-1,1,-1,-1,-1,0
1480605895878419,0,-1,0,1,0,-3,1,0
1480605895883432,-2,0,-3,0,1,-1,-1,-1
1480605895883432,-2,0,0,-2,-2,-2,0,-1
1480605895890451,-2,0,-1,0,-1,-1,0,0
1480605895890451,0,0,0,0,0,0,0,-2
1480605895914013,1,-2,0,0,0,0,0,0
1480605895914013,1,1,-2,1,1,0,-2,-1
1480605895916018,0,-1,1,1,-1,0,0,1
1480605895916018,0,0,1,-1,0,0,-2,-1
1480605895936574,-2,2,-2,-1,0,2,0,-2
1480605895936574,-1,-2,-1,-1,-1,0,-1,-1
1480605895939080,0,-1,0,-1,-2,2,0,-2
1480605895939080,1,0,-1,-1,0,-2,0,0
1480605895943592,-2,-2,-1,-1,0,-3,-1,0
1480605895943592,0,1,0,-1,-1,-1,-1,0
1480605895957629,0,0,-1,0,-2,-2,-2,0
1480605895957629,-1,-2,0,1,-3,0,0,0
1480605895966654,2,0,0,0,-1,-2,0,0
1480605895966654,0,-2,-2,0,1,0,0,-1
1480605895968160,-2,-1,0,-1,-1,-1,1,0
1480605895968160,-1,1,-1,0,1,1,-1,-1
1480605895989214,1,-1,-2,-2,-1,-3,2,-1
1480605895989214,-1,-2,-2,-2,-3,1,-1,-1
1480605895990718,-1,-1,-1,-1,-1,-1,0,-1
1480605895990718,-1,0,0,1,1,0,-1,-1
1480605896003251,-2,-2,-1,-1,0,0,0,0
1480605896003251,0,-2,1,-2,1,-2,-1,-2
1480605896010270,1,-3,-2,-1,0,1,0,-1
1480605896010270,-1,0,0,-1,0,-1,-2,0
1480605896027315,-2,0,1,-1,1,0,-1,1
1480605896027315,0,0,-2,0,0,-1,0,-1
1480605896028819,-1,0,0,-2,-2,-1,2,-1
1480605896028819,1,-2,-1,0,-1,0,0,0
1480605896080456,-1,1,-1,0,-1,0,0,-2
1480605896080456,-2,-1,1,0,-2,0,-2,-1
1480605896081960,0,1,0,-2,0,-2,-1,-1
1480605896081960,0,-1,-1,-1,-2,-3,1,0
1480605896083464,0,0,0,-1,-1,-1,1,0
1480605896083464,0,-1,-3,-1,-2,-2,1,0
1480605896088979,0,-1,2,0,0,0,-2,1
1480605896088979,-3,0,-1,-1,0,-1,0,-1
1480605896089480,0,-3,-2,-2,0,0,-1,-1
1480605896089480,-2,1,1,2,0,1,0,0
1480605896100511,0,1,-1,-2,-1,-1,-1,-1
1480605896100511,-1,0,-2,-1,0,1,-1,1
1480605896125576,0,-1,-1,0,-1,0,-1,1
1480605896125576,0,1,-1,-1,-1,0,1,0
1480605896127080,0,-2,-1,0,-1,-1,-1,-1
1480605896127080,0,0,0,-1,0,1,0,0
1480605896128083,1,-1,-2,-1,-1,0,-1,0
1480605896128083,-1,-2,0,-1,-1,1,-1,0
1480605896131593,0,-1,0,2,0,-2,-1,0
1480605896131593,-2,0,-1,0,0,-1,0,0
1480605896145629,1,0,-3,-1,-3,0,-2,0
1480605896145629,0,0,-2,-1,-1,-2,-1,-1
1480605896154152,0,0,-2,0,-2,1,0,0
1480605896154152,0,0,0,-2,-1,-1,0,1
1480605896169694,-2,0,-1,-1,0,-3,0,-1
1480605896169694,0,-1,0,-2,-1,-1,-1,-2
1480605896171198,0,1,-1,-1,-2,-1,-2,-2
1480605896171198,0,-2,-2,-1,0,-1,-1,1
1480605896192253,-1,0,-1,0,-1,0,0,-1
1480605896192253,-2,-1,-1,-1,-1,-1,0,-1
1480605896207293,-1,-1,-1,-2,1,0,-1,-1
1480605896207293,-1,-3,-1,1,-2,-1,-2,-2
1480605896208296,-1,-2,0,0,1,-1,-4,0
1480605896208296,-1,1,-2,0,-2,0,-1,-1
1480605896209801,0,-2,-2,1,-2,0,-2,1
1480605896209801,-1,-2,-1,1,-1,1,1,-2
1480605896236873,-1,-1,-2,0,0,1,0,-1
1480605896236873,-1,0,-1,-1,0,-1,0,0
1480605896238377,0,-1,0,-2,-1,-1,0,1
1480605896238377,1,1,-1,-2,-2,0,-2,-2
1480605896242888,0,-1,1,2,-3,0,-1,-1
1480605896242888,-1,-1,0,0,0,0,0,1
1480605896251912,-2,-1,-1,-2,0,2,0,0
1480605896251912,0,-1,0,0,0,-3,0,-2
1480605896266953,-1,0,-1,-1,-2,0,-1,-1
1480605896266953,-1,0,0,0,1,-1,0,-2
1480605896268456,0,-1,2,0,0,-2,-2,1
1480605896268456,-1,0,-1,-1,1,0,2,0
1480605896289011,1,0,0,-2,-1,-1,1,-1
1480605896289011,0,-1,-1,0,-2,-2,2,-1
1480605896291017,0,0,-1,1,-1,-1,0,0
1480605896291017,-1,-1,-1,-1,-1,-1,0,0
1480605896303049,-1,-2,0,-1,0,-2,0,0
1480605896303049,0,-1,1,1,-1,-2,0,1
1480605896311572,0,-1,-2,-1,1,0,1,-2
1480605896311572,-1,0,0,-1,-2,1,0,0
1480605896340648,0,-1,0,0,0,-1,0,-1
1480605896340648,-2,0,-2,0,-2,0,-3,-1
1480605896350174,-2,0,-2,1,-2,0,1,-3
1480605896350174,1,0,1,-1,-1,-1,-2,1
1480605896356691,-1,-1,-3,2,0,1,0,-3
1480605896356691,0,-2,-1,-2,0,1,1,-1
1480605896358195,1,-1,-1,-1,-1,-1,-2,0
1480605896358195,-2,-1,-1,-2,0,-1,0,-1
1480605896362709,-1,-2,2,0,-1,-2,1,0
1480605896362709,0,0,0,0,-1,-1,0,1
1480605896387273,-1,-2,-1,-2,-1,0,0,0
1480605896387273,0,0,0,0,-1,-2,0,-1
1480605896388276,1,1,-1,1,-3,-2,-1,0
1480605896388276,-1,-1,-1,1,0,0,-1,0
1480605896389779,1,1,0,-2,-1,0,-1,-2
1480605896389779,1,-1,0,-1,-2,-1,-1,-1
1480605896409331,-1,-1,-1,-2,-3,-1,-1,-1
1480605896409331,2,1,1,0,-1,-1,-1,-1
1480605896410842,1,-1,0,1,-1,-2,1,0
1480605896410842,-1,-1,-2,-2,-1,-1,-1,0
1480605896422867,0,0,-1,-1,1,0,-2,-2
1480605896422867,0,-2,-1,-1,0,0,-1,0
1480605896431891,-1,1,-1,0,-1,0,0,0
1480605896431891,0,-1,-1,1,0,0,-1,0
1480605896446430,-1,-1,-1,-2,-2,0,-1,1
1480605896446430,-2,0,-2,-1,0,-2,-1,-2
1480605896448435,-1,0,-1,0,-1,-1,-1,-2
1480605896448435,0,0,0,0,-1,-1,0,-2
1480605896468488,0,-1,0,-1,0,-2,-1,0
1480605896468488,-1,-1,0,1,-1,-2,-1,-1
1480605896477513,-1,-2,-2,-1,-1,0,-1,0
1480605896477513,-1,-1,0,0,0,0,-1,-1
1480605896483027,0,0,0,-1,0,-1,0,-1
1480605896483027,0,0,-1,-1,-1,0,-1,1
1480605896492051,0,0,0,1,0,-2,-1,1
1480605896492051,-1,2,0,-2,0,0,-1,1
1480605896506089,0,0,0,-3,-1,0,0,-1
1480605896506089,-1,0,-2,-2,-1,-1,-1,-1
1480605896520126,-3,-3,0,-2,-1,0,0,-1
1480605896520126,-1,0,-1,-1,-1,-2,0,0
1480605896536670,-1,-1,0,0,-1,-2,0,1
1480605896536670,-1,-1,-2,-1,-3,-2,1,0
1480605896538174,3,1,-3,2,0,-1,0,1
1480605896538174,-1,-3,-3,0,-2,-1,-1,-2
1480605896542686,1,1,-1,-1,1,0,0,1
1480605896542686,0,-2,0,-2,-1,1,0,-1
1480605896582291,-1,0,0,-3,0,1,-1,-1
1480605896582291,0,-1,0,1,0,-1,1,0
1480605896583294,-1,-2,-1,1,0,-2,-1,-1
1480605896583294,-1,0,-1,0,-1,-1,-1,0
1480605896584798,1,-1,0,1,2,-1,-1,0
1480605896584798,-1,0,0,0,-2,0,0,1
1480605896589311,-3,0,1,0,-1,-2,-2,-1
1480605896589311,0,-1,0,-2,-1,-1,0,-1
1480605896590814,0,-1,-1,0,-1,0,1,1
1480605896590814,-1,-1,-3,-1,0,-1,-1,-1
1480605896635433,1,0,0,2,1,0,0,2
1480605896635433,1,0,-2,0,1,-1,-1,-1
1480605896636435,-2,-1,1,-3,-2,-2,0,-1
1480605896636435,-1,-1,0,1,-1,0,0,-2
1480605896637939,0,-2,-2,-2,-3,-1,0,-1
1480605896637939,-2,-1,1,0,0,-1,-2,-1
1480605896640948,-1,0,-2,0,0,0,-2,-1
1480605896640948,0,-1,0,0,0,-1,-3,1
1480605896658494,0,0,-2,-2,0,0,-1,-1
1480605896658494,0,1,-1,-1,-2,0,-1,-1
1480605896659496,-1,0,-1,-1,0,-1,-2,-1
1480605896659496,0,-2,-1,-1,-2,2,1,0
1480605896671530,-1,0,-1,-1,1,0,-2,1
1480605896671530,-1,-2,0,0,0,0,-1,0
1480605896672532,0,-1,0,0,-2,-1,-1,-1
1480605896672532,-1,0,-1,-3,1,-1,-2,-2
1480605896686068,-1,0,0,0,-2,-1,0,-1
1480605896686068,-1,-1,1,0,1,0,1,-2
1480605896686570,1,-3,0,-1,-2,-1,1,-1
1480605896686570,1,1,1,-1,-3,-3,-1,1
1480605896708628,0,0,-1,0,0,0,0,0
1480605896708628,0,0,-1,-2,0,0,0,0
1480605896709130,-1,0,0,-2,0,0,-1,-1
1480605896709130,0,2,0,-2,1,0,-1,0
1480605896731187,-2,0,-1,-1,0,1,-1,0
1480605896731187,0,-3,-1,1,-3,-2,-1,0
1480605896732691,-2,-1,1,-1,-1,-2,-1,1
1480605896732691,0,-2,1,-1,0,-1,0,0
1480605896746227,0,-1,0,-1,0,-1,-2,-1
1480605896746227,0,-2,2,-2,1,1,1,-1
1480605896746728,-1,0,0,0,0,1,-1,-1
1480605896746728,1,0,-4,1,-4,0,0,0
1480605896768287,-2,-1,0,-2,0,-2,-1,0
1480605896768287,-1,0,0,-1,1,-1,-2,-1
1480605896769290,1,0,-1,0,-1,0,0,0
1480605896769290,-1,0,-1,0,0,0,0,-1
1480605896790846,1,-2,0,-2,0,1,0,0
1480605896790846,-2,1,-2,-1,0,0,0,0
1480605896791849,0,0,-1,0,-1,-1,-1,0
1480605896791849,1,0,-2,2,0,-2,0,-1
1480605896805886,0,1,-1,1,-3,-1,-2,0
1480605896805886,-2,-1,1,-1,0,0,0,-3
1480605896806889,1,1,-2,0,0,-1,1,-1
1480605896806889,-2,-1,1,0,0,1,-2,-1
1480605896828447,-2,0,-1,1,-1,-1,1,-1
1480605896828447,-1,-1,-1,0,0,1,-1,1
1480605896829450,-1,0,-1,0,0,-2,-1,-1
1480605896829450,1,-1,0,-2,-1,1,-1,0
1480605896851507,0,0,0,-2,-2,-1,0,0
1480605896851507,0,-1,-1,0,-1,-1,-1,0
1480605896852009,-1,0,-2,-1,-2,-2,0,0
1480605896852009,0,1,-1,1,1,-2,-1,0
1480605896866047,0,-1,-2,0,2,-1,1,0
1480605896866047,2,0,1,0,-1,-1,-1,0
1480605896866548,-1,-2,0,0,-1,0,-1,0
1480605896866548,-1,-1,-1,-1,1,-1,-2,0
