timestamp,roll,pitch,yaw
1480605880713574,-1.74436,-0.324706,-2.73074
1480605880728113,-1.74425,-0.325009,-2.73083
1480605880750674,-1.74487,-0.32499,-2.73067
1480605880770729,-1.7448,-0.324814,-2.73068
1480605880794290,-1.74315,-0.32449,-2.73071
1480605880815345,-1.74169,-0.324442,-2.73101
1480605880830386,-1.74143,-0.325123,-2.7309
1480605880863474,-1.74126,-0.325124,-2.73086
1480605880870995,-1.74058,-0.325377,-2.73093
1480605880893554,-1.74058,-0.325377,-2.73093
1480605880908092,-1.74144,-0.324997,-2.73076
1480605880931154,-1.74251,-0.324357,-2.73077
1480605880951708,-1.74251,-0.324357,-2.73077
1480605880974269,-1.74207,-0.324441,-2.73052
1480605880990812,-1.74067,-0.324579,-2.73039
1480605881010364,-1.74018,-0.324673,-2.7303
1480605881043452,-1.74018,-0.324673,-2.7303
1480605881050973,-1.7403,-0.324562,-2.7299
1480605881070528,-1.74038,-0.324705,-2.72982
1480605881093084,-1.74038,-0.324705,-2.72982
1480605881118151,-1.74038,-0.324705,-2.72982
1480605881131687,-1.7402,-0.324227,-2.73028
1480605881160264,-1.74058,-0.323647,-2.73067
1480605881178311,-1.74338,-0.323466,-2.73104
1480605881191847,-1.74357,-0.323856,-2.73238
1480605881212903,-1.7449,-0.324599,-2.73405
1480605881230951,-1.74871,-0.323948,-2.73574
1480605881267047,-1.75251,-0.322522,-2.73718
1480605881273063,-1.75558,-0.32165,-2.73866
1480605881291111,-1.76145,-0.321017,-2.74054
1480605881319687,-1.76854,-0.320255,-2.74216
1480605881333223,-1.77362,-0.319201,-2.74333
1480605881350770,-1.77592,-0.319196,-2.74433
1480605881371826,-1.77922,-0.320534,-2.74508
1480605881417447,-1.78168,-0.320685,-2.74485
1480605881419959,-1.7811,-0.320142,-2.74429
1480605881438002,-1.77887,-0.31982,-2.74331
1480605881453042,-1.77651,-0.319741,-2.7424
1480605881471091,-1.77447,-0.319294,-2.74174
1480605881494151,-1.77235,-0.31981,-2.74081
1480605881512701,-1.77083,-0.320444,-2.73946
1480605881530748,-1.7684,-0.320707,-2.73813
1480605881553310,-1.76727,-0.320649,-2.73658
1480605881580882,-1.76775,-0.320685,-2.73443
1480605881590908,-1.76674,-0.321807,-2.73229
1480605881613469,-1.76561,-0.323807,-2.73038
1480605881633021,-1.7643,-0.325338,-2.72895
1480605881651069,-1.76183,-0.325855,-2.728
1480605881673128,-1.76045,-0.326114,-2.72697
1480605881696189,-1.75976,-0.326336,-2.7265
1480605881711730,-1.75888,-0.32631,-2.7263
1480605881740808,-1.75806,-0.326085,-2.72624
1480605881752840,-1.75778,-0.32579,-2.72618
1480605881782920,-1.75778,-0.32579,-2.72618
1480605881793448,-1.75816,-0.325908,-2.72629
1480605881813000,-1.75835,-0.32606,-2.72642
1480605881831048,-1.75985,-0.326478,-2.72643
1480605881876167,-1.76122,-0.32692,-2.72629
1480605881880680,-1.76152,-0.327402,-2.7265
1480605881895720,-1.76266,-0.32757,-2.72667
1480605881919283,-1.76398,-0.327391,-2.72654
1480605881932818,-1.76491,-0.327633,-2.72638
1480605881952372,-1.76634,-0.328065,-2.72608
1480605881973427,-1.76682,-0.3282,-2.72551
1480605881995486,-1.76556,-0.328243,-2.72488
1480605882018547,-1.76379,-0.32841,-2.72469
1480605882038099,-1.76242,-0.328476,-2.72438
1480605882060659,-1.76151,-0.328803,-2.72411
1480605882070690,-1.76089,-0.328919,-2.72388
1480605882093246,-1.76004,-0.328635,-2.72381
1480605882114301,-1.75869,-0.328161,-2.72388
1480605882131851,-1.75731,-0.327628,-2.72394
1480605882153406,-1.75646,-0.327564,-2.72409
1480605882174963,-1.75646,-0.327564,-2.72409
1480605882204541,-1.75647,-0.327657,-2.72417
1480605882213574,-1.7563,-0.327658,-2.72412
1480605882235624,-1.75629,-0.327565,-2.72405
1480605882251165,-1.75629,-0.327565,-2.72405
1480605882273725,-1.75628,-0.327691,-2.72419
1480605882294281,-1.75628,-0.327691,-2.72419
1480605882310824,-1.75628,-0.327691,-2.72419
1480605882337897,-1.75628,-0.327691,-2.72419
1480605882354440,-1.75628,-0.327691,-2.72419
1480605882370984,-1.75628,-0.327691,-2.72419
1480605882393545,-1.75611,-0.327692,-2.72415
1480605882422120,-1.75584,-0.327584,-2.72424
1480605882431145,-1.75799,-0.32772,-2.72424
1480605882453203,-1.75767,-0.327712,-2.72503
1480605882483283,-1.7597,-0.327455,-2.72586
1480605882495315,-1.76152,-0.326169,-2.7267
1480605882513363,-1.76177,-0.325552,-2.72787
1480605882535923,-1.76262,-0.324856,-2.72935
1480605882555478,-1.76388,-0.324216,-2.73034
1480605882573523,-1.76582,-0.324241,-2.73074
1480605882595581,-1.76625,-0.324008,-2.73138
1480605882615634,-1.76615,-0.323898,-2.73198
1480605882633182,-1.7664,-0.32376,-2.73219
1480605882656243,-1.7664,-0.32376,-2.73219
1480605882682813,-1.76656,-0.323666,-2.73215
1480605882693342,-1.76559,-0.323873,-2.73144
1480605882715903,-1.76461,-0.325026,-2.73071
1480605882735454,-1.76355,-0.32525,-2.7312
1480605882761022,-1.76467,-0.325554,-2.7311
1480605882776062,-1.76553,-0.32609,-2.73041
1480605882796116,-1.76523,-0.325927,-2.73007
1480605882813163,-1.76494,-0.325631,-2.73002
1480605882835721,-1.76494,-0.325631,-2.73002
1480605882856275,-1.76542,-0.325986,-2.73012
1480605882872318,-1.76542,-0.325986,-2.73012
1480605882894878,-1.76541,-0.325893,-2.73005
1480605882916435,-1.76541,-0.325893,-2.73005
1480605882939998,-1.76465,-0.325967,-2.73012
1480605882955038,-1.76323,-0.32632,-2.7302
1480605882976094,-1.76218,-0.326193,-2.7303
1480605882992639,-1.76145,-0.325789,-2.73029
1480605883029237,-1.76145,-0.325789,-2.73029
1480605883036257,-1.76158,-0.325766,-2.73043
1480605883052799,-1.76152,-0.325683,-2.73052
1480605883074858,-1.7611,-0.326136,-2.73056
1480605883095913,-1.7611,-0.326136,-2.73056
1480605883125993,-1.7607,-0.325862,-2.73083
1480605883136522,-1.76068,-0.325895,-2.7309
1480605883156073,-1.76065,-0.325966,-2.73107
1480605883173118,-1.76103,-0.326303,-2.73186
1480605883195177,-1.76163,-0.326067,-2.733
1480605883217736,-1.76348,-0.325196,-2.73467
1480605883232776,-1.76684,-0.324816,-2.73544
1480605883261352,-1.76843,-0.324567,-2.73506
1480605883276392,-1.7661,-0.323909,-2.735
1480605883292937,-1.7629,-0.323942,-2.73538
1480605883314995,-1.76173,-0.324153,-2.73567
1480605883336052,-1.76196,-0.324047,-2.73594
1480605883366134,-1.76289,-0.323881,-2.73583
1480605883382675,-1.76325,-0.324133,-2.73566
1480605883403731,-1.76425,-0.324556,-2.7355
1480605883412756,-1.76471,-0.324819,-2.73507
1480605883434816,-1.76428,-0.324958,-2.73435
1480605883457374,-1.76188,-0.32504,-2.73423
1480605883473417,-1.76093,-0.324829,-2.73642
1480605883494974,-1.76488,-0.324978,-2.73671
1480605883518037,-1.76603,-0.3249,-2.73614
1480605883532073,-1.7633,-0.324155,-2.73603
1480605883555636,-1.76192,-0.323612,-2.73609
1480605883594740,-1.76252,-0.323634,-2.73558
1480605883598751,-1.76363,-0.324128,-2.73517
1480605883629833,-1.76329,-0.324536,-2.73498
1480605883638861,-1.7623,-0.324807,-2.73486
1480605883675455,-1.76064,-0.324663,-2.73458
1480605883677961,-1.75865,-0.324109,-2.73425
1480605883697514,-1.75749,-0.323784,-2.73399
1480605883727593,-1.75692,-0.323794,-2.73351
1480605883735114,-1.75651,-0.324122,-2.73295
1480605883764692,-1.75612,-0.324323,-2.73272
1480605883774218,-1.75611,-0.32423,-2.73264
1480605883795274,-1.75586,-0.324277,-2.73236
1480605883817833,-1.75585,-0.324785,-2.73192
1480605883831924,-1.75586,-0.324878,-2.732
1480605883868468,-1.75623,-0.324811,-2.73196
1480605883877492,-1.75679,-0.324584,-2.73175
1480605883915593,-1.75726,-0.32434,-2.73176
1480605883920607,-1.75726,-0.32434,-2.73176
1480605883960714,-1.75726,-0.32434,-2.73176
1480605883963244,-1.75686,-0.324666,-2.73167
1480605884007338,-1.75628,-0.3248,-2.7318
1480605884011849,-1.75628,-0.3248,-2.7318
1480605884018868,-1.75622,-0.324718,-2.73188
1480605884041930,-1.75622,-0.324718,-2.73188
1480605884057972,-1.75628,-0.3248,-2.7318
1480605884078527,-1.75628,-0.3248,-2.7318
1480605884095071,-1.75564,-0.324759,-2.73193
1480605884118634,-1.75564,-0.324759,-2.73193
1480605884146207,-1.75558,-0.324676,-2.73202
1480605884155230,-1.75564,-0.324759,-2.73193
1480605884201354,-1.75564,-0.324759,-2.73193
1480605884215892,-1.7552,-0.324651,-2.73199
1480605884218399,-1.7552,-0.324651,-2.73199
1480605884237952,-1.75518,-0.32459,-2.73197
1480605884283070,-1.75511,-0.324508,-2.73206
1480605884285578,-1.75464,-0.324659,-2.73197
1480605884297108,-1.75464,-0.324659,-2.73197
1480605884328692,-1.75464,-0.324659,-2.73197
1480605884335210,-1.75464,-0.324566,-2.7319
1480605884357770,-1.75462,-0.324599,-2.73196
1480605884380831,-1.75462,-0.324599,-2.73196
1480605884402892,-1.75462,-0.324599,-2.73196
1480605884418431,-1.75462,-0.324599,-2.73196
1480605884454527,-1.75412,-0.32469,-2.73186
1480605884461044,-1.75412,-0.32469,-2.73186
1480605884477589,-1.75452,-0.324682,-2.73183
1480605884517194,-1.75472,-0.324709,-2.73182
1480605884521205,-1.75415,-0.324843,-2.73195
1480605884561311,-1.75348,-0.324459,-2.73231
1480605884566326,-1.75347,-0.324366,-2.73224
1480605884580863,-1.75347,-0.324366,-2.73224
1480605884597408,-1.75347,-0.324366,-2.73224
1480605884619967,-1.75347,-0.324366,-2.73224
1480605884635007,-1.75347,-0.324366,-2.73224
1480605884659071,-1.75341,-0.324283,-2.73232
1480605884680127,-1.75339,-0.324223,-2.73231
1480605884694165,-1.7534,-0.32419,-2.73225
1480605884717727,-1.75339,-0.324316,-2.73239
1480605884747807,-1.75356,-0.324219,-2.73282
1480605884754325,-1.75372,-0.323936,-2.7331
1480605884793931,-1.75372,-0.323936,-2.7331
1480605884799946,-1.75366,-0.323853,-2.73318
1480605884822506,-1.7539,-0.32362,-2.73331
1480605884837546,-1.7539,-0.32362,-2.73331
1480605884860106,-1.75387,-0.323682,-2.7339
1480605884881162,-1.75462,-0.323545,-2.73428
1480605884897205,-1.75493,-0.323488,-2.7344
1480605884919765,-1.75482,-0.323821,-2.73502
1480605884941322,-1.75473,-0.323801,-2.73569
1480605884958368,-1.75499,-0.324159,-2.73634
1480605884979925,-1.7556,-0.323737,-2.73583
1480605885000981,-1.75487,-0.323622,-2.73517
1480605885023541,-1.75333,-0.323535,-2.73322
1480605885071168,-1.74933,-0.324048,-2.73281
1480605885078186,-1.74785,-0.324225,-2.73291
1480605885080693,-1.75007,-0.324539,-2.73335
1480605885100245,-1.75241,-0.32471,-2.73334
1480605885121301,-1.75258,-0.324616,-2.7333
1480605885138346,-1.75138,-0.324675,-2.73351
1480605885159904,-1.75138,-0.324675,-2.73351
1480605885180960,-1.75226,-0.32458,-2.73311
1480605885197505,-1.75219,-0.324498,-2.73319
1480605885220064,-1.75219,-0.324498,-2.73319
1480605885241119,-1.75143,-0.324261,-2.73298
1480605885258667,-1.75064,-0.324595,-2.73291
1480605885303286,-1.75064,-0.324688,-2.73299
1480605885306294,-1.75064,-0.324688,-2.73299
1480605885324843,-1.75064,-0.324595,-2.73291
1480605885339886,-1.75057,-0.324512,-2.733
1480605885369963,-1.75057,-0.324512,-2.733
1480605885383499,-1.75018,-0.32452,-2.73303
1480605885400043,-1.7498,-0.324402,-2.73292
1480605885423104,-1.7498,-0.324402,-2.73292
1480605885437141,-1.74979,-0.324435,-2.73299
1480605885466219,-1.74974,-0.324319,-2.73301
1480605885482762,-1.74974,-0.324319,-2.73301
1480605885496802,-1.7498,-0.324402,-2.73292
1480605885528384,-1.74974,-0.324319,-2.73301
1480605885542422,-1.74973,-0.324226,-2.73293
1480605885573504,-1.74973,-0.324226,-2.73293
1480605885580523,-1.74973,-0.324226,-2.73293
1480605885617621,-1.74973,-0.324226,-2.73293
1480605885620129,-1.74973,-0.324226,-2.73293
1480605885640181,-1.75029,-0.324125,-2.73287
1480605885662742,-1.75064,-0.323871,-2.73267
1480605885683797,-1.75064,-0.323871,-2.73267
1480605885699841,-1.75064,-0.323871,-2.73267
1480605885722400,-1.75067,-0.323931,-2.73268
1480605885736939,-1.75066,-0.323839,-2.7326
1480605885760001,-1.75083,-0.323838,-2.73265
1480605885782059,-1.75101,-0.323804,-2.73263
1480605885812640,-1.75146,-0.323786,-2.73243
1480605885820160,-1.75146,-0.323786,-2.73243
1480605885849237,-1.75148,-0.323754,-2.73237
1480605885863776,-1.75165,-0.323753,-2.73241
1480605885880822,-1.75164,-0.32366,-2.73234
1480605885902381,-1.75164,-0.32366,-2.73234
1480605885930956,-1.75164,-0.32366,-2.73234
1480605885940982,-1.75244,-0.32402,-2.73211
1480605885970059,-1.75244,-0.32402,-2.73211
1480605885983595,-1.75243,-0.323927,-2.73204
1480605886000139,-1.75243,-0.323927,-2.73204
1480605886023703,-1.75295,-0.324085,-2.73184
1480605886044256,-1.75345,-0.324596,-2.73157
1480605886066316,-1.75345,-0.324596,-2.73157
1480605886088374,-1.75362,-0.324688,-2.73169
1480605886112438,-1.75362,-0.324595,-2.73162
1480605886127478,-1.75362,-0.324595,-2.73162
1480605886143520,-1.75363,-0.324562,-2.73155
1480605886163575,-1.75363,-0.324562,-2.73155
1480605886179617,-1.75363,-0.324562,-2.73155
1480605886202680,-1.7537,-0.324645,-2.73147
1480605886225238,-1.75363,-0.324562,-2.73155
1480605886246294,-1.7537,-0.324645,-2.73147
1480605886262336,-1.7537,-0.324738,-2.73154
1480605886284897,-1.7537,-0.324738,-2.73154
1480605886299937,-1.75389,-0.324704,-2.73152
1480605886323499,-1.75389,-0.324704,-2.73152
1480605886368118,-1.75389,-0.324704,-2.73152
1480605886370624,-1.75389,-0.324704,-2.73152
1480605886396193,-1.75389,-0.324704,-2.73152
1480605886405217,-1.75397,-0.324754,-2.73137
1480605886419255,-1.75397,-0.324754,-2.73137
1480605886442315,-1.75397,-0.324754,-2.73137
1480605886465378,-1.7539,-0.324671,-2.73145
1480605886494955,-1.75414,-0.324753,-2.73141
1480605886502478,-1.75414,-0.324846,-2.73149
1480605886525036,-1.75414,-0.324846,-2.73149
1480605886540075,-1.75414,-0.324846,-2.73149
1480605886562637,-1.75414,-0.324846,-2.73149
1480605886592715,-1.75416,-0.324813,-2.73142
1480605886599233,-1.75422,-0.324896,-2.73134
1480605886645355,-1.75422,-0.324896,-2.73134
1480605886647863,-1.75422,-0.324896,-2.73134
1480605886665913,-1.75416,-0.324813,-2.73142
1480605886682454,-1.75422,-0.324896,-2.73134
1480605886705014,-1.75424,-0.324863,-2.73127
1480605886735095,-1.75441,-0.324862,-2.73132
1480605886743617,-1.75425,-0.324956,-2.73135
1480605886765174,-1.75441,-0.324862,-2.73132
1480605886786230,-1.75441,-0.324862,-2.73132
1480605886802774,-1.75441,-0.324862,-2.73132
1480605886824833,-1.75448,-0.325038,-2.73131
1480605886870454,-1.7545,-0.325005,-2.73124
1480605886872961,-1.7545,-0.325005,-2.73124
1480605886923098,-1.75394,-0.324505,-2.73167
1480605886925602,-1.7538,-0.323959,-2.73196
1480605886931117,-1.7538,-0.323959,-2.73196
1480605886951169,-1.7538,-0.323959,-2.73196
1480605886967713,-1.75382,-0.323927,-2.73189
1480605886988268,-1.75382,-0.323927,-2.73189
1480605887005313,-1.75382,-0.323927,-2.73189
1480605887026369,-1.75382,-0.323927,-2.73189
1480605887049932,-1.75382,-0.32402,-2.73197
1480605887064973,-1.75389,-0.324102,-2.73188
1480605887103074,-1.75389,-0.324102,-2.73188
1480605887105580,-1.75382,-0.323927,-2.73189
1480605887148695,-1.75383,-0.323894,-2.73183
1480605887153708,-1.7539,-0.323977,-2.73174
1480605887163233,-1.7537,-0.324136,-2.7319
1480605887185292,-1.7537,-0.324136,-2.7319
1480605887207351,-1.75364,-0.324053,-2.73199
1480605887222391,-1.75364,-0.324053,-2.73199
1480605887244951,-1.75363,-0.32396,-2.73191
1480605887267511,-1.75364,-0.324053,-2.73199
1480605887282049,-1.75364,-0.324053,-2.73199
1480605887305612,-1.75364,-0.324053,-2.73199
1480605887327671,-1.75364,-0.324053,-2.73199
1480605887341708,-1.75364,-0.324053,-2.73199
1480605887378807,-1.75364,-0.324053,-2.73199
1480605887387329,-1.75364,-0.324053,-2.73199
1480605887425431,-1.75364,-0.324053,-2.73199
1480605887427938,-1.75345,-0.324087,-2.73201
1480605887454006,-1.75364,-0.324053,-2.73199
1480605887479074,-1.75364,-0.324053,-2.73199
1480605887485592,-1.7537,-0.324136,-2.7319
1480605887515170,-1.7537,-0.324136,-2.7319
1480605887521687,-1.7537,-0.324136,-2.7319
1480605887545249,-1.75364,-0.324053,-2.73199
1480605887567308,-1.75362,-0.324086,-2.73205
1480605887588364,-1.75345,-0.324087,-2.73201
1480605887605409,-1.75345,-0.324087,-2.73201
1480605887649025,-1.75352,-0.32417,-2.73192
1480605887657549,-1.75408,-0.324162,-2.73194
1480605887665069,-1.75401,-0.324079,-2.73202
1480605887701666,-1.75401,-0.324079,-2.73202
1480605887708686,-1.75401,-0.324079,-2.73202
1480605887725729,-1.75401,-0.324079,-2.73202
1480605887747287,-1.75401,-0.324079,-2.73202
1480605887768344,-1.75384,-0.323987,-2.7319
1480605887798423,-1.75384,-0.323987,-2.7319
1480605887807449,-1.75385,-0.32408,-2.73198
1480605887828503,-1.75408,-0.324162,-2.73194
1480605887845048,-1.75391,-0.324162,-2.73189
1480605887883148,-1.75391,-0.324162,-2.73189
1480605887891671,-1.75408,-0.324162,-2.73194
1480605887936290,-1.75408,-0.324162,-2.73194
1480605887941805,-1.75391,-0.324162,-2.73189
1480605887955842,-1.75389,-0.324195,-2.73196
1480605887979906,-1.75389,-0.324195,-2.73196
1480605887987426,-1.75383,-0.324113,-2.73204
1480605888026530,-1.75382,-0.32402,-2.73197
1480605888031042,-1.75382,-0.32402,-2.73197
1480605888047085,-1.75414,-0.324055,-2.73216
1480605888076162,-1.75421,-0.324138,-2.73208
1480605888085689,-1.75414,-0.324055,-2.73216
1480605888107746,-1.75413,-0.323962,-2.73209
1480605888131810,-1.75413,-0.323962,-2.73209
1480605888145346,-1.75421,-0.324138,-2.73208
1480605888167908,-1.75421,-0.324138,-2.73208
1480605888213027,-1.75421,-0.324138,-2.73208
1480605888215534,-1.75421,-0.324138,-2.73208
1480605888258647,-1.75412,-0.324088,-2.73223
1480605888265666,-1.75414,-0.324055,-2.73216
1480605888268173,-1.75421,-0.324138,-2.73208
1480605888288727,-1.75421,-0.324138,-2.73208
1480605888310285,-1.75402,-0.324172,-2.7321
1480605888333347,-1.75396,-0.324089,-2.73218
1480605888354904,-1.75396,-0.324089,-2.73218
1480605888386488,-1.75396,-0.324089,-2.73218
1480605888390999,-1.75396,-0.324089,-2.73218
1480605888408045,-1.75402,-0.324172,-2.7321
1480605888446146,-1.75396,-0.324089,-2.73218
1480605888451160,-1.75396,-0.324089,-2.73218
1480605888491266,-1.75443,-0.323938,-2.73227
1480605888496280,-1.75426,-0.323939,-2.73223
1480605888529368,-1.75426,-0.323939,-2.73223
1480605888533378,-1.75457,-0.323881,-2.73234
1480605888566468,-1.75455,-0.323914,-2.73241
1480605888570979,-1.75455,-0.323914,-2.73241
1480605888587522,-1.75455,-0.323914,-2.73241
1480605888610083,-1.75455,-0.323914,-2.73241
1480605888632643,-1.75455,-0.323914,-2.73241
1480605888648184,-1.75448,-0.323738,-2.73242
1480605888677762,-1.75448,-0.323738,-2.73242
1480605888691299,-1.75452,-0.324174,-2.73227
1480605888720878,-1.75459,-0.324349,-2.73226
1480605888729902,-1.75481,-0.324469,-2.73233
1480605888769007,-1.75481,-0.324469,-2.73233
1480605888773518,-1.75412,-0.323899,-2.73254
1480605888797582,-1.75368,-0.323698,-2.73251
1480605888811117,-1.75368,-0.323698,-2.73251
1480605888841197,-1.75384,-0.323604,-2.73248
1480605888850221,-1.75256,-0.323996,-2.73225
1480605888871278,-1.75153,-0.323962,-2.73242
1480605888887821,-1.75153,-0.323962,-2.73242
1480605888909882,-1.75248,-0.323853,-2.73233
1480605888930937,-1.75248,-0.323946,-2.73241
1480605888955501,-1.75211,-0.324014,-2.73245
1480605889001123,-1.75204,-0.323838,-2.73246
1480605889008143,-1.75147,-0.323879,-2.73251
1480605889011651,-1.75061,-0.324131,-2.73253
1480605889030701,-1.75034,-0.324717,-2.73234
1480605889051257,-1.75026,-0.32527,-2.73213
1480605889067298,-1.75026,-0.32527,-2.73213
1480605889090360,-1.75026,-0.32527,-2.73213
1480605889112419,-1.75009,-0.325271,-2.73209
1480605889134979,-1.75026,-0.32527,-2.73213
1480605889150018,-1.75026,-0.32527,-2.73213
1480605889174584,-1.75009,-0.325271,-2.73209
1480605889188624,-1.74967,-0.325538,-2.73198
1480605889210179,-1.7496,-0.325455,-2.73207
1480605889232739,-1.7496,-0.325455,-2.73207
1480605889246777,-1.7496,-0.325455,-2.73207
1480605889277358,-1.74967,-0.325538,-2.73198
1480605889298413,-1.74967,-0.325631,-2.73206
1480605889321475,-1.7496,-0.325455,-2.73207
1480605889333006,-1.7496,-0.325455,-2.73207
1480605889360078,-1.74959,-0.325488,-2.73213
1480605889367097,-1.74959,-0.325488,-2.73213
1480605889390158,-1.74959,-0.325488,-2.73213
1480605889420239,-1.74959,-0.325488,-2.73213
1480605889433773,-1.74959,-0.325488,-2.73213
1480605889465359,-1.74959,-0.325488,-2.73213
1480605889472378,-1.74959,-0.325488,-2.73213
1480605889493432,-1.74959,-0.325581,-2.73221
1480605889510979,-1.74966,-0.325664,-2.73213
1480605889533039,-1.74942,-0.325489,-2.73209
1480605889555101,-1.7494,-0.325522,-2.73216
1480605889576153,-1.7494,-0.325522,-2.73216
1480605889592195,-1.7494,-0.325522,-2.73216
1480605889613757,-1.7494,-0.325522,-2.73216
1480605889630297,-1.7494,-0.325522,-2.73216
1480605889652356,-1.7494,-0.325522,-2.73216
1480605889674915,-1.7494,-0.325522,-2.73216
1480605889697476,-1.7494,-0.325522,-2.73216
1480605889712516,-1.7494,-0.325522,-2.73216
1480605889741091,-1.74924,-0.325616,-2.73219
1480605889750116,-1.74922,-0.325556,-2.73218
1480605889772677,-1.74922,-0.325556,-2.73218
1480605889793731,-1.74915,-0.325473,-2.73226
1480605889810275,-1.74922,-0.325556,-2.73218
1480605889833337,-1.74922,-0.325649,-2.73225
1480605889853892,-1.74922,-0.325556,-2.73218
1480605889869935,-1.74915,-0.325473,-2.73226
1480605889892495,-1.74915,-0.325473,-2.73226
1480605889913550,-1.74915,-0.325473,-2.73226
1480605889937617,-1.74915,-0.325473,-2.73226
1480605889975715,-1.74915,-0.325473,-2.73226
1480605889978222,-1.74915,-0.325473,-2.73226
1480605890021338,-1.74915,-0.32538,-2.73219
1480605890026351,-1.74913,-0.325413,-2.73225
1480605890042393,-1.74896,-0.325414,-2.73221
1480605890064953,-1.74897,-0.325506,-2.73228
1480605890072476,-1.74897,-0.325506,-2.73228
1480605890095033,-1.74907,-0.32533,-2.73234
1480605890110073,-1.7489,-0.325331,-2.73229
1480605890140154,-1.7489,-0.325331,-2.73229
1480605890155195,-1.7489,-0.325331,-2.73229
1480605890169233,-1.7489,-0.325331,-2.73229
1480605890192292,-1.74888,-0.325363,-2.73236
1480605890215854,-1.74889,-0.325238,-2.73222
1480605890230394,-1.74889,-0.325238,-2.73222
1480605890252953,-1.7489,-0.325331,-2.73229
1480605890276014,-1.7489,-0.325331,-2.73229
1480605890297573,-1.7489,-0.325331,-2.73229
1480605890312612,-1.7489,-0.325331,-2.73229
1480605890341187,-1.74933,-0.325346,-2.73216
1480605890349210,-1.74933,-0.325346,-2.73216
1480605890372772,-1.74934,-0.325439,-2.73224
1480605890394831,-1.74934,-0.325439,-2.73224
1480605890423407,-1.74978,-0.325547,-2.73219
1480605890432431,-1.74971,-0.325371,-2.7322
1480605890454995,-1.74971,-0.325371,-2.7322
1480605890469531,-1.74972,-0.325338,-2.73213
1480605890492590,-1.74972,-0.325338,-2.73213
1480605890515653,-1.74971,-0.325371,-2.7322
1480605890537714,-1.74971,-0.325371,-2.7322
1480605890552751,-1.75004,-0.325471,-2.73194
1480605890575812,-1.75075,-0.325688,-2.73179
1480605890603388,-1.75081,-0.325771,-2.73171
1480605890619932,-1.75082,-0.325864,-2.73178
1480605890635975,-1.75082,-0.325864,-2.73178
1480605890663560,-1.75082,-0.325864,-2.73178
1480605890672570,-1.75082,-0.325864,-2.73178
1480605890695130,-1.75082,-0.325864,-2.73178
1480605890716185,-1.75082,-0.325864,-2.73178
1480605890746766,-1.75082,-0.325864,-2.73178
1480605890754792,-1.75081,-0.325771,-2.73171
1480605890776847,-1.75083,-0.325738,-2.73164
1480605890805924,-1.75083,-0.325738,-2.73164
1480605890814948,-1.75083,-0.325738,-2.73164
1480605890836506,-1.75083,-0.325738,-2.73164
1480605890853050,-1.75145,-0.325719,-2.73149
1480605890875610,-1.75145,-0.325719,-2.73149
1480605890897669,-1.75145,-0.325719,-2.73149
1480605890920228,-1.75146,-0.325686,-2.73143
1480605890941284,-1.75153,-0.325769,-2.73134
1480605890955823,-1.75153,-0.325769,-2.73134
1480605890972368,-1.75153,-0.325769,-2.73134
1480605890994927,-1.75146,-0.325686,-2.73143
1480605891017488,-1.75146,-0.325686,-2.73143
1480605891040047,-1.75153,-0.325769,-2.73134
1480605891063109,-1.7517,-0.325768,-2.73138
1480605891086672,-1.7517,-0.325861,-2.73146
1480605891092687,-1.7517,-0.325768,-2.73138
1480605891114746,-1.7517,-0.325768,-2.73138
1480605891137809,-1.75172,-0.325828,-2.7314
1480605891151844,-1.75172,-0.325828,-2.7314
1480605891175407,-1.75172,-0.325828,-2.7314
1480605891203984,-1.75172,-0.325828,-2.7314
1480605891218522,-1.75172,-0.325828,-2.7314
1480605891236570,-1.75172,-0.325828,-2.7314
1480605891258127,-1.75178,-0.325911,-2.73131
1480605891272167,-1.7518,-0.325878,-2.73125
1480605891295226,-1.7518,-0.325878,-2.73125
1480605891317285,-1.7518,-0.325878,-2.73125
1480605891331824,-1.75197,-0.325877,-2.73129
1480605891356389,-1.75197,-0.325877,-2.73129
1480605891377445,-1.75197,-0.325877,-2.73129
1480605891406021,-1.75197,-0.325877,-2.73129
1480605891416047,-1.75197,-0.325877,-2.73129
1480605891437609,-1.75197,-0.325877,-2.73129
1480605891458661,-1.75197,-0.325877,-2.73129
1480605891475706,-1.75197,-0.325877,-2.73129
1480605891497767,-1.75199,-0.325937,-2.7313
1480605891519827,-1.75206,-0.32602,-2.73121
1480605891542383,-1.75199,-0.325937,-2.7313
1480605891557424,-1.75197,-0.325877,-2.73129
1480605891578479,-1.75198,-0.32597,-2.73136
1480605891595024,-1.75199,-0.325937,-2.7313
1480605891617584,-1.75204,-0.326053,-2.73128
1480605891640143,-1.75199,-0.325937,-2.7313
1480605891655184,-1.75197,-0.325877,-2.73129
1480605891685265,-1.75199,-0.325844,-2.73122
1480605891698298,-1.75199,-0.325844,-2.73122
1480605891714842,-1.75206,-0.32602,-2.73121
1480605891737405,-1.75222,-0.326019,-2.73126
1480605891758460,-1.75199,-0.325844,-2.73122
1480605891775002,-1.75199,-0.325844,-2.73122
1480605891797563,-1.75199,-0.325844,-2.73122
1480605891820123,-1.75199,-0.325844,-2.73122
1480605891842181,-1.75215,-0.325844,-2.73127
1480605891857722,-1.75215,-0.325844,-2.73127
1480605891879280,-1.75199,-0.325844,-2.73122
1480605891894821,-1.75215,-0.325844,-2.73127
1480605891917883,-1.75215,-0.325844,-2.73127
1480605891946459,-1.75199,-0.325844,-2.73122
1480605891964005,-1.75199,-0.325844,-2.73122
1480605891978042,-1.75197,-0.325877,-2.73129
1480605892007621,-1.75197,-0.325877,-2.73129
1480605892015141,-1.75134,-0.32571,-2.73129
1480605892052742,-1.75151,-0.325709,-2.73133
1480605892059760,-1.75151,-0.325709,-2.73133
1480605892074299,-1.75151,-0.325709,-2.73133
1480605892097862,-1.75151,-0.325709,-2.73133
1480605892127440,-1.75151,-0.325709,-2.73133
1480605892143984,-1.75133,-0.325617,-2.73121
1480605892157520,-1.75133,-0.325617,-2.73121
1480605892195120,-1.75127,-0.325534,-2.7313
1480605892197125,-1.75127,-0.325534,-2.7313
1480605892217680,-1.75127,-0.325534,-2.7313
1480605892240240,-1.75127,-0.325534,-2.7313
1480605892254278,-1.75134,-0.32571,-2.73129
1480605892284859,-1.75134,-0.32571,-2.73129
1480605892305915,-1.75134,-0.32571,-2.73129
1480605892314439,-1.75125,-0.325567,-2.73136
1480605892337500,-1.75125,-0.325567,-2.73136
1480605892375600,-1.75126,-0.32566,-2.73144
1480605892381115,-1.75134,-0.32571,-2.73129
1480605892398164,-1.75132,-0.325743,-2.73135
1480605892420220,-1.75125,-0.325567,-2.73136
1480605892441275,-1.75125,-0.325567,-2.73136
1480605892472358,-1.75125,-0.325567,-2.73136
1480605892480379,-1.75125,-0.325567,-2.73136
1480605892517979,-1.75125,-0.325567,-2.73136
1480605892520487,-1.75125,-0.325567,-2.73136
1480605892540038,-1.75125,-0.325567,-2.73136
1480605892563099,-1.75124,-0.3256,-2.73143
1480605892578140,-1.75107,-0.325601,-2.73138
1480605892607216,-1.75107,-0.325601,-2.73138
1480605892620754,-1.75107,-0.325601,-2.73138
1480605892637800,-1.75107,-0.325601,-2.73138
1480605892659857,-1.751,-0.325518,-2.73147
1480605892682416,-1.751,-0.325518,-2.73147
1480605892697458,-1.751,-0.325518,-2.73147
1480605892728038,-1.75107,-0.325601,-2.73138
1480605892754608,-1.751,-0.325518,-2.73147
1480605892758117,-1.751,-0.325425,-2.73139
1480605892795718,-1.75098,-0.325458,-2.73146
1480605892801232,-1.75098,-0.325458,-2.73146
1480605892817275,-1.75098,-0.325458,-2.73146
1480605892840336,-1.75099,-0.325551,-2.73153
1480605892869917,-1.75081,-0.325459,-2.73141
1480605892877435,-1.75081,-0.325459,-2.73141
1480605892900998,-1.75144,-0.325626,-2.73142
1480605892930076,-1.75145,-0.325719,-2.73149
1480605892937599,-1.75145,-0.325719,-2.73149
1480605892961158,-1.75127,-0.325627,-2.73137
1480605892982715,-1.75126,-0.32566,-2.73144
1480605892997756,-1.75119,-0.325577,-2.73152
1480605893027334,-1.75119,-0.325577,-2.73152
1480605893042374,-1.75126,-0.32566,-2.73144
1480605893072454,-1.75126,-0.32566,-2.73144
1480605893079974,-1.75126,-0.32566,-2.73144
1480605893102535,-1.75119,-0.325577,-2.73152
1480605893117575,-1.75119,-0.325577,-2.73152
1480605893147654,-1.75118,-0.32561,-2.73159
1480605893162694,-1.75107,-0.325694,-2.73146
1480605893176733,-1.75107,-0.325694,-2.73146
1480605893199794,-1.75101,-0.325611,-2.73154
1480605893222354,-1.75099,-0.325644,-2.73161
1480605893236893,-1.75099,-0.325644,-2.73161
1480605893259952,-1.75101,-0.325611,-2.73154
1480605893282513,-1.75101,-0.325611,-2.73154
1480605893305074,-1.75099,-0.325644,-2.73161
1480605893326128,-1.75099,-0.325551,-2.73153
1480605893350194,-1.75092,-0.325468,-2.73162
1480605893372255,-1.751,-0.325518,-2.73147
1480605893394812,-1.751,-0.325518,-2.73147
1480605893402337,-1.75099,-0.325551,-2.73153
1480605893440434,-1.75099,-0.325551,-2.73153
1480605893442939,-1.75092,-0.325468,-2.73162
1480605893462993,-1.75075,-0.325469,-2.73157
1480605893483548,-1.75082,-0.325552,-2.73149
1480605893500092,-1.75082,-0.325645,-2.73157
1480605893523153,-1.75082,-0.325552,-2.73149
1480605893543710,-1.75075,-0.325469,-2.73157
1480605893560753,-1.75074,-0.325502,-2.73164
1480605893582812,-1.75074,-0.325502,-2.73164
1480605893603369,-1.75081,-0.325678,-2.73163
1480605893627932,-1.75074,-0.325502,-2.73164
1480605893673052,-1.75074,-0.325502,-2.73164
1480605893675558,-1.75074,-0.325502,-2.73164
1480605893681574,-1.75057,-0.325503,-2.7316
1480605893718172,-1.75055,-0.325536,-2.73166
1480605893724187,-1.75055,-0.325536,-2.73166
1480605893747249,-1.75055,-0.325536,-2.73166
1480605893762791,-1.75054,-0.325569,-2.73173
1480605893784849,-1.75056,-0.325629,-2.73174
1480605893799889,-1.75056,-0.325722,-2.73181
1480605893822450,-1.75056,-0.325722,-2.73181
1480605893860551,-1.75056,-0.325722,-2.73181
1480605893864061,-1.75056,-0.325629,-2.73174
1480605893882609,-1.75049,-0.325546,-2.73182
1480605893905169,-1.75048,-0.325579,-2.73189
1480605893920211,-1.75038,-0.325755,-2.73184
1480605893949788,-1.75038,-0.325755,-2.73184
1480605893979869,-1.75038,-0.325755,-2.73184
1480605893996412,-1.75038,-0.325755,-2.73184
1480605894002432,-1.75037,-0.325663,-2.73176
1480605894024988,-1.75038,-0.325755,-2.73184
1480605894039530,-1.75038,-0.325755,-2.73184
1480605894068604,-1.75036,-0.325788,-2.7319
1480605894085148,-1.75013,-0.325706,-2.73194
1480605894099186,-1.75012,-0.325613,-2.73187
1480605894123250,-1.75012,-0.325613,-2.73187
1480605894145308,-1.75012,-0.325613,-2.73187
1480605894159345,-1.75012,-0.325613,-2.73187
1480605894182406,-1.75012,-0.325613,-2.73187
1480605894229030,-1.75011,-0.325646,-2.73193
1480605894233543,-1.75011,-0.325646,-2.73193
1480605894273149,-1.75012,-0.325613,-2.73187
1480605894276658,-1.75011,-0.325646,-2.73193
1480605894286186,-1.75011,-0.325646,-2.73193
1480605894302732,-1.75011,-0.325646,-2.73193
1480605894325287,-1.75004,-0.325563,-2.73202
1480605894346342,-1.75004,-0.325563,-2.73202
1480605894362887,-1.75004,-0.325563,-2.73202
1480605894384949,-1.74992,-0.32568,-2.73195
1480605894415025,-1.74986,-0.325597,-2.73204
1480605894437586,-1.74986,-0.325597,-2.73204
1480605894459143,-1.74986,-0.325597,-2.73204
1480605894466161,-1.74984,-0.32563,-2.7321
1480605894506270,-1.74986,-0.325597,-2.73204
1480605894511282,-1.74984,-0.32563,-2.7321
1480605894527324,-1.74967,-0.325631,-2.73206
1480605894549884,-1.74967,-0.325538,-2.73198
1480605894570944,-1.74967,-0.325538,-2.73198
1480605894585982,-1.74967,-0.325538,-2.73198
1480605894602526,-1.74967,-0.325631,-2.73206
1480605894625085,-1.74966,-0.325664,-2.73213
1480605894646140,-1.74959,-0.325488,-2.73213
1480605894664190,-1.74942,-0.325489,-2.73209
1480605894693266,-1.74942,-0.325489,-2.73209
1480605894706802,-1.7494,-0.325522,-2.73216
1480605894737383,-1.7494,-0.325522,-2.73216
1480605894744904,-1.7494,-0.325522,-2.73216
1480605894784007,-1.74934,-0.325439,-2.73224
1480605894788519,-1.74915,-0.32538,-2.73219
1480605894828626,-1.74915,-0.325473,-2.73226
1480605894833640,-1.74922,-0.325556,-2.73218
1480605894842664,-1.74922,-0.325556,-2.73218
1480605894871240,-1.74915,-0.325473,-2.73226
1480605894894802,-1.74914,-0.325506,-2.73233
1480605894901822,-1.74914,-0.325506,-2.73233
1480605894924882,-1.74903,-0.32559,-2.7322
1480605894947442,-1.74904,-0.325682,-2.73228
1480605894970003,-1.74897,-0.325506,-2.73228
1480605894985042,-1.74897,-0.325506,-2.73228
1480605895015623,-1.74895,-0.325447,-2.73227
1480605895021639,-1.74895,-0.325539,-2.73235
1480605895046205,-1.74895,-0.325539,-2.73235
1480605895068766,-1.74895,-0.325539,-2.73235
1480605895088818,-1.74888,-0.325363,-2.73236
1480605895104861,-1.74872,-0.325364,-2.73231
1480605895134943,-1.74888,-0.325363,-2.73236
1480605895141960,-1.74888,-0.325363,-2.73236
1480605895165021,-1.74872,-0.325364,-2.73231
1480605895187581,-1.7487,-0.325397,-2.73238
1480605895201623,-1.7487,-0.325397,-2.73238
1480605895225181,-1.7487,-0.325397,-2.73238
1480605895247741,-1.7487,-0.325397,-2.73238
1480605895268298,-1.7487,-0.325397,-2.73238
1480605895292359,-1.7487,-0.325397,-2.73238
1480605895338984,-1.7487,-0.325397,-2.73238
1480605895345501,-1.74851,-0.325431,-2.7324
1480605895348009,-1.74851,-0.325431,-2.7324
1480605895381598,-1.74851,-0.325431,-2.7324
1480605895388617,-1.74851,-0.325431,-2.7324
1480605895405161,-1.74851,-0.325431,-2.7324
1480605895427720,-1.74843,-0.325381,-2.73255
1480605895448776,-1.74843,-0.325381,-2.73255
1480605895472339,-1.74843,-0.325381,-2.73255
1480605895487378,-1.7485,-0.325464,-2.73247
1480605895525480,-1.7485,-0.325464,-2.73247
1480605895527987,-1.74827,-0.325382,-2.73251
1480605895556062,-1.74825,-0.325415,-2.73257
1480605895572606,-1.74827,-0.325382,-2.73251
1480605895599678,-1.74853,-0.325617,-2.73255
1480605895616221,-1.74859,-0.3257,-2.73247
1480605895628253,-1.74853,-0.325617,-2.73255
1480605895644798,-1.74853,-0.325617,-2.73255
1480605895667862,-1.74852,-0.325524,-2.73248
1480605895689919,-1.74846,-0.325441,-2.73256
1480605895705459,-1.7485,-0.325557,-2.73254
1480605895727016,-1.74851,-0.32565,-2.73262
1480605895750079,-1.74844,-0.325474,-2.73263
1480605895765117,-1.74827,-0.325475,-2.73258
1480605895802717,-1.74827,-0.325475,-2.73258
1480605895810739,-1.74834,-0.32565,-2.73258
1480605895825278,-1.74834,-0.32565,-2.73258
1480605895848840,-1.74834,-0.32565,-2.73258
1480605895877417,-1.74828,-0.325567,-2.73266
1480605895884436,-1.74827,-0.325475,-2.73258
1480605895915016,-1.74826,-0.3256,-2.73273
1480605895938578,-1.74826,-0.3256,-2.73273
1480605895944094,-1.74826,-0.3256,-2.73273
1480605895967657,-1.74825,-0.325507,-2.73265
1480605895989715,-1.74825,-0.325507,-2.73265
1480605896004253,-1.74825,-0.325507,-2.73265
1480605896027816,-1.74825,-0.325507,-2.73265
1480605896081458,-1.74825,-0.325507,-2.73265
1480605896087976,-1.74825,-0.325507,-2.73265
1480605896090484,-1.74825,-0.325507,-2.73265
1480605896126078,-1.74825,-0.325507,-2.73265
1480605896131092,-1.74809,-0.325508,-2.73261
1480605896153651,-1.74809,-0.325601,-2.73268
1480605896170195,-1.74808,-0.325634,-2.73275
1480605896192755,-1.74808,-0.325634,-2.73275
1480605896208798,-1.74807,-0.325541,-2.73267
1480605896237376,-1.74807,-0.325541,-2.73267
1480605896250911,-1.74807,-0.325541,-2.73267
1480605896267455,-1.74808,-0.325634,-2.73275
1480605896290014,-1.74808,-0.325634,-2.73275
1480605896311070,-1.74807,-0.325541,-2.73267
1480605896349673,-1.74807,-0.325541,-2.73267
1480605896357694,-1.74807,-0.325541,-2.73267
1480605896370729,-1.74807,-0.325541,-2.73267
1480605896388777,-1.74807,-0.325541,-2.73267
1480605896409833,-1.74807,-0.325541,-2.73267
1480605896430889,-1.74801,-0.325458,-2.73276
1480605896447432,-1.74801,-0.325458,-2.73276
1480605896476510,-1.74801,-0.325458,-2.73276
1480605896491048,-1.74827,-0.325693,-2.7328
1480605896513609,-1.74827,-0.325693,-2.7328
1480605896537673,-1.74827,-0.325693,-2.7328
1480605896558729,-1.7482,-0.325517,-2.73281
1480605896583796,-1.7482,-0.325517,-2.73281
1480605896589811,-1.7482,-0.325517,-2.73281
1480605896610867,-1.7482,-0.32561,-2.73289
1480605896636937,-1.7482,-0.325517,-2.73281
1480605896657993,-1.74801,-0.325551,-2.73283
1480605896663008,-1.74801,-0.325551,-2.73283
1480605896678046,-1.74801,-0.325551,-2.73283
1480605896700607,-1.74802,-0.325644,-2.73291
1480605896715646,-1.74802,-0.325644,-2.73291
1480605896737704,-1.74801,-0.325551,-2.73283
1480605896760265,-1.74801,-0.325551,-2.73283
1480605896775304,-1.748,-0.325584,-2.7329
1480605896797866,-1.748,-0.325677,-2.73297
1480605896812905,-1.748,-0.325677,-2.73297
1480605896835465,-1.748,-0.325584,-2.7329
1480605896858025,-1.74793,-0.325501,-2.73298
1480605896872564,-1.74776,-0.325502,-2.73294
1480605896911668,-1.748,-0.325584,-2.7329
1480605896917684,-1.748,-0.325584,-2.7329
1480605896952275,-1.748,-0.325584,-2.7329
1480605896956788,-1.74793,-0.325501,-2.73298
1480605896977844,-1.74776,-0.325502,-2.73294
1480605897000406,-1.74776,-0.325502,-2.73294
1480605897022963,-1.74783,-0.325585,-2.73285
1480605897046025,-1.74783,-0.325585,-2.73285
1480605897054548,-1.74783,-0.325585,-2.73285
1480605897092148,-1.74783,-0.325585,-2.73285
1480605897097662,-1.748,-0.325584,-2.7329
1480605897137769,-1.74801,-0.325551,-2.73283
1480605897142783,-1.748,-0.325677,-2.73297
1480605897157822,-1.74783,-0.325677,-2.73293
1480605897191914,-1.748,-0.325584,-2.7329
1480605897202943,-1.74801,-0.325551,-2.73283
1480605897237033,-1.74801,-0.325551,-2.73283
1480605897242047,-1.74801,-0.325551,-2.73283
1480605897256585,-1.74801,-0.325551,-2.73283
1480605897281150,-1.74801,-0.325551,-2.73283
1480605897300201,-1.74818,-0.32555,-2.73288
1480605897325770,-1.74869,-0.325616,-2.7326
1480605897337801,-1.74926,-0.325894,-2.73242
1480605897370889,-1.74932,-0.325977,-2.73233
1480605897375401,-1.74932,-0.325977,-2.73233
1480605897415508,-1.74925,-0.325801,-2.73234
1480605897419018,-1.74925,-0.325801,-2.73234
1480605897444084,-1.74925,-0.325801,-2.73234
1480605897468148,-1.74943,-0.325893,-2.73246
1480605897475668,-1.74991,-0.326218,-2.73204
1480605897495220,-1.75009,-0.326185,-2.73202
1480605897517780,-1.75009,-0.326185,-2.73202
1480605897536329,-1.75009,-0.326185,-2.73202
1480605897555380,-1.75009,-0.326185,-2.73202
1480605897577941,-1.7501,-0.326277,-2.7321
1480605897600503,-1.75092,-0.326285,-2.73194
1480605897615540,-1.75092,-0.326285,-2.73194
1480605897648127,-1.75092,-0.326285,-2.73194
1480605897669685,-1.75092,-0.326285,-2.73194
1480605897684223,-1.75092,-0.326285,-2.73194
1480605897697759,-1.75092,-0.326285,-2.73194
1480605897721823,-1.75092,-0.326285,-2.73194
1480605897736863,-1.75092,-0.326192,-2.73186
1480605897757919,-1.7511,-0.326158,-2.73184
1480605897780479,-1.7511,-0.326158,-2.73184
1480605897795519,-1.7511,-0.326158,-2.73184
1480605897818079,-1.75111,-0.326251,-2.73192
1480605897840137,-1.7511,-0.326158,-2.73184
1480605897857685,-1.75112,-0.326125,-2.73177
1480605897879243,-1.75129,-0.326125,-2.73182
1480605897917345,-1.75136,-0.326301,-2.73181
1480605897919850,-1.75136,-0.326301,-2.73181
1480605897970486,-1.75137,-0.326267,-2.73174
1480605897972991,-1.75137,-0.326267,-2.73174
1480605897978506,-1.75137,-0.326175,-2.73167
1480605898006580,-1.75154,-0.326267,-2.73179
1480605898020116,-1.75156,-0.326234,-2.73172
1480605898035157,-1.75162,-0.326317,-2.73164
1480605898057718,-1.75162,-0.326317,-2.73164
1480605898089300,-1.75173,-0.326233,-2.73177
1480605898095317,-1.75174,-0.3262,-2.7317
1480605898117877,-1.75181,-0.326283,-2.73161
1480605898150464,-1.75183,-0.32625,-2.73155
1480605898156981,-1.75199,-0.326249,-2.73159
1480605898205610,-1.75147,-0.325998,-2.73172
1480605898210122,-1.75148,-0.325965,-2.73165
1480605898222655,-1.75148,-0.325965,-2.73165
1480605898245217,-1.75172,-0.326047,-2.73161
1480605898260256,-1.75172,-0.32614,-2.73169
1480605898291839,-1.75174,-0.326107,-2.73162
1480605898297856,-1.75173,-0.326014,-2.73155
1480605898338463,-1.75174,-0.326107,-2.73162
1480605898340970,-1.75153,-0.326081,-2.73163
1480605898358015,-1.75155,-0.326048,-2.73157
1480605898383585,-1.75155,-0.326141,-2.73165
1480605898396618,-1.75155,-0.326048,-2.73157
1480605898436725,-1.75172,-0.326047,-2.73161
1480605898440234,-1.75173,-0.326014,-2.73155
1480605898481344,-1.7518,-0.32619,-2.73154
1480605898485354,-1.7518,-0.32619,-2.73154
1480605898503402,-1.75182,-0.326157,-2.73147
1480605898522955,-1.75198,-0.326063,-2.73144
1480605898537994,-1.75198,-0.326063,-2.73144
1480605898560555,-1.75198,-0.326063,-2.73144
1480605898578101,-1.75199,-0.326156,-2.73152
1480605898605173,-1.75199,-0.326156,-2.73152
1480605898620213,-1.752,-0.326123,-2.73145
1480605898639264,-1.75198,-0.326063,-2.73144
1480605898657813,-1.752,-0.326123,-2.73145
1480605898680373,-1.752,-0.326123,-2.73145
1480605898705941,-1.752,-0.326123,-2.73145
1480605898717973,-1.75217,-0.326122,-2.7315
1480605898742538,-1.75217,-0.326122,-2.7315
1480605898758080,-1.75217,-0.326122,-2.7315
1480605898777632,-1.75224,-0.326205,-2.73141
1480605898800195,-1.75186,-0.32618,-2.73138
1480605898818239,-1.75188,-0.326147,-2.73131
1480605898845318,-1.75188,-0.326147,-2.73131
1480605898860351,-1.75205,-0.326146,-2.73136
1480605898879403,-1.75205,-0.326146,-2.73136
1480605898897952,-1.75163,-0.326098,-2.73142
1480605898923019,-1.75152,-0.325895,-2.73148
1480605898945579,-1.75135,-0.325896,-2.73144
1480605898989697,-1.75135,-0.325896,-2.73144
1480605898992203,-1.75135,-0.325896,-2.73144
1480605898998219,-1.75152,-0.325895,-2.73148
1480605899019275,-1.75159,-0.326071,-2.73147
1480605899040331,-1.75161,-0.326038,-2.73141
1480605899058880,-1.75159,-0.326071,-2.73147
1480605899077931,-1.75089,-0.325821,-2.73156
1480605899100495,-1.75089,-0.325821,-2.73156
1480605899123051,-1.75114,-0.32587,-2.73145
1480605899139093,-1.75114,-0.32587,-2.73145
1480605899167670,-1.75114,-0.32587,-2.73145
1480605899182710,-1.75114,-0.32587,-2.73145
1480605899199253,-1.75116,-0.325837,-2.73138
1480605899220309,-1.75116,-0.325837,-2.73138
1480605899242871,-1.75116,-0.325837,-2.73138
1480605899259414,-1.75116,-0.325837,-2.73138
1480605899280470,-1.75116,-0.325837,-2.73138
1480605899303030,-1.75116,-0.325837,-2.73138
1480605899320075,-1.75116,-0.325837,-2.73138
1480605899340630,-1.75117,-0.32593,-2.73146
1480605899362689,-1.75123,-0.326013,-2.73138
1480605899379232,-1.7514,-0.326012,-2.73142
1480605899400292,-1.75133,-0.325929,-2.7315
1480605899422850,-1.75133,-0.325836,-2.73143
1480605899439392,-1.75142,-0.325979,-2.73135
1480605899460448,-1.75142,-0.325979,-2.73135
1480605899491029,-1.75142,-0.325979,-2.73135
1480605899499552,-1.75142,-0.325979,-2.73135
1480605899524118,-1.75107,-0.325694,-2.73146
1480605899545675,-1.75059,-0.32566,-2.73122
1480605899560715,-1.75076,-0.325752,-2.73134
1480605899583281,-1.7513,-0.326096,-2.73129
1480605899610347,-1.7513,-0.326096,-2.73129
1480605899626895,-1.75131,-0.326063,-2.73122
1480605899640427,-1.75095,-0.325718,-2.73132
1480605899662988,-1.75088,-0.325635,-2.7314
1480605899680534,-1.75095,-0.325718,-2.73132
1480605899700598,-1.75095,-0.325811,-2.7314
1480605899722646,-1.75097,-0.325778,-2.73133
1480605899740694,-1.75097,-0.325778,-2.73133
1480605899761751,-1.75114,-0.325777,-2.73137
1480605899782806,-1.7512,-0.32586,-2.73129
1480605899801355,-1.75065,-0.325962,-2.73135
1480605899820406,-1.7504,-0.325913,-2.73146
1480605899846475,-1.7504,-0.325913,-2.73146
1480605899861014,-1.75039,-0.32582,-2.73138
1480605899880566,-1.75047,-0.325996,-2.73137
1480605899913154,-1.75047,-0.325996,-2.73137
1480605899925186,-1.75047,-0.325996,-2.73137
1480605899940225,-1.75047,-0.325996,-2.73137
1480605899962785,-1.75047,-0.325996,-2.73137
1480605899980833,-1.75048,-0.325963,-2.73131
1480605900000385,-1.75065,-0.325962,-2.73135
1480605900039990,-1.75065,-0.325962,-2.73135
1480605900042496,-1.75065,-0.325962,-2.73135
1480605900060544,-1.75065,-0.325962,-2.73135
1480605900090123,-1.75064,-0.325869,-2.73128
1480605900100663,-1.75065,-0.325962,-2.73135
1480605900123212,-1.75065,-0.325962,-2.73135
1480605900145772,-1.75065,-0.325962,-2.73135
1480605900160812,-1.75065,-0.325962,-2.73135
1480605900181868,-1.75064,-0.325869,-2.73128
1480605900202923,-1.75065,-0.325962,-2.73135
1480605900221473,-1.75065,-0.325962,-2.73135
1480605900242529,-1.75065,-0.325962,-2.73135
1480605900263085,-1.75067,-0.325929,-2.73129
1480605900286647,-1.75067,-0.325929,-2.73129
1480605900315724,-1.75067,-0.325929,-2.73129
1480605900326252,-1.75083,-0.325928,-2.73133
1480605900340790,-1.75083,-0.325928,-2.73133
1480605900367862,-1.7509,-0.326011,-2.73125
1480605900382902,-1.7509,-0.326011,-2.73125
1480605900400954,-1.75083,-0.325928,-2.73133
1480605900421505,-1.75067,-0.325929,-2.73129
1480605900443062,-1.75073,-0.326012,-2.7312
1480605900465123,-1.75036,-0.32608,-2.73125
1480605900489185,-1.75036,-0.32608,-2.73125
1480605900502721,-1.75036,-0.32608,-2.73125
1480605900525282,-1.75036,-0.32608,-2.73125
1480605900550849,-1.75036,-0.32608,-2.73125
1480605900562880,-1.75053,-0.326079,-2.73129
1480605900585441,-1.75053,-0.326079,-2.73129
1480605900603489,-1.75053,-0.326079,-2.73129
1480605900630060,-1.75046,-0.325903,-2.7313
1480605900647105,-1.75029,-0.325904,-2.73125
1480605900663148,-1.75036,-0.32608,-2.73125
1480605900686209,-1.75053,-0.326079,-2.73129
1480605900705260,-1.75055,-0.326046,-2.73122
1480605900723308,-1.75055,-0.326046,-2.73122
1480605900742860,-1.75009,-0.325971,-2.73134
1480605900765423,-1.75009,-0.325971,-2.73134
1480605900783468,-1.75009,-0.325971,-2.73134
1480605900803020,-1.75009,-0.325971,-2.73134
1480605900833100,-1.75009,-0.325971,-2.73134
1480605900843127,-1.75009,-0.325971,-2.73134
1480605900870198,-1.75009,-0.325971,-2.73134
1480605900885239,-1.75009,-0.325971,-2.73134
1480605900907799,-1.75009,-0.325971,-2.73134
1480605900922838,-1.75009,-0.325971,-2.73134
1480605900952918,-1.75009,-0.325971,-2.73134
1480605900963447,-1.75009,-0.325971,-2.73134
1480605900999546,-1.75009,-0.325971,-2.73134
1480605901006562,-1.75009,-0.325971,-2.73134
1480605901025111,-1.7501,-0.326063,-2.73142
1480605901042659,-1.7501,-0.326063,-2.73142
1480605901074241,-1.75009,-0.325971,-2.73134
1480605901090785,-1.75009,-0.325971,-2.73134
1480605901119362,-1.75009,-0.325971,-2.73134
1480605901125879,-1.75009,-0.325971,-2.73134
1480605901143426,-1.7501,-0.326063,-2.73142
1480605901164482,-1.75009,-0.325971,-2.73134
1480605901186541,-1.75007,-0.326004,-2.73141
1480605901203084,-1.75009,-0.325971,-2.73134
1480605901231661,-1.74991,-0.326004,-2.73136
1480605901245196,-1.74991,-0.326097,-2.73144
1480605901263245,-1.74991,-0.326097,-2.73144
1480605901300346,-1.74991,-0.326004,-2.73136
1480605901305357,-1.75007,-0.326004,-2.73141
1480605901335937,-1.75009,-0.325971,-2.73134
1480605901344961,-1.74991,-0.326097,-2.73144
1480605901365517,-1.74991,-0.326097,-2.73144
1480605901389081,-1.74991,-0.326097,-2.73144
1480605901405623,-1.74991,-0.326004,-2.73136
1480605901432696,-1.74991,-0.326004,-2.73136
1480605901443223,-1.75035,-0.326205,-2.73139
1480605901481827,-1.75042,-0.326381,-2.73138
1480605901486839,-1.75042,-0.326381,-2.73138
1480605901503383,-1.75036,-0.326298,-2.73146
1480605901525943,-1.75035,-0.326205,-2.73139
1480605901545495,-1.75035,-0.326205,-2.73139
1480605901570562,-1.75035,-0.326205,-2.73139
1480605901585603,-1.75036,-0.326298,-2.73146
1480605901622700,-1.75019,-0.326299,-2.73142
1480605901627714,-1.75019,-0.326299,-2.73142
1480605901651778,-1.75019,-0.326299,-2.73142
1480605901675842,-1.75036,-0.326298,-2.73146
1480605901683362,-1.75042,-0.326381,-2.73138
1480605901713442,-1.75025,-0.326382,-2.73133
1480605901725474,-1.75019,-0.326299,-2.73142
1480605901744525,-1.75019,-0.326299,-2.73142
1480605901765587,-1.75019,-0.326299,-2.73142
1480605901792653,-1.75019,-0.326299,-2.73142
1480605901807693,-1.75025,-0.326382,-2.73133
1480605901825741,-1.75017,-0.326332,-2.73149
1480605901852814,-1.75017,-0.326332,-2.73149
1480605901863342,-1.75017,-0.326332,-2.73149
1480605901908961,-1.75017,-0.326332,-2.73149
1480605901923000,-1.75017,-0.326332,-2.73149
1480605901945559,-1.75017,-0.326332,-2.73149
1480605901950072,-1.75017,-0.326332,-2.73149
1480605901965111,-1.75,-0.32624,-2.73137
1480605901987672,-1.75,-0.32624,-2.73137
1480605902005720,-1.75,-0.326333,-2.73144
1480605902034297,-1.75,-0.326333,-2.73144
1480605902043320,-1.74999,-0.326366,-2.73151
1480605902066383,-1.74999,-0.326366,-2.73151
1480605902086936,-1.74998,-0.326273,-2.73143
1480605902102979,-1.74999,-0.326366,-2.73151
1480605902126039,-1.74999,-0.326366,-2.73151
1480605902146594,-1.74999,-0.326366,-2.73151
1480605902178178,-1.74982,-0.326367,-2.73146
1480605902185698,-1.74973,-0.326224,-2.73154
1480605902222296,-1.74973,-0.326224,-2.73154
1480605902227810,-1.74974,-0.326317,-2.73161
1480605902245859,-1.7498,-0.3264,-2.73153
1480605902268419,-1.74974,-0.326317,-2.73161
1480605902287970,-1.74973,-0.326224,-2.73154
1480605902313037,-1.74973,-0.326224,-2.73154
1480605902326573,-1.74973,-0.326224,-2.73154
1480605902364675,-1.74972,-0.32635,-2.73168
1480605902367187,-1.74955,-0.326351,-2.73164
1480605902412301,-1.74955,-0.326258,-2.73156
1480605902416813,-1.74955,-0.326258,-2.73156
1480605902425837,-1.74955,-0.326258,-2.73156
1480605902455917,-1.74955,-0.326351,-2.73164
1480605902467999,-1.74955,-0.326351,-2.73164
1480605902500536,-1.74955,-0.326351,-2.73164
1480605902508059,-1.74936,-0.326292,-2.73158
1480605902547160,-1.74936,-0.326292,-2.73158
1480605902557688,-1.74937,-0.326385,-2.73166
1480605902575737,-1.74937,-0.326385,-2.73166
1480605902590777,-1.74937,-0.326385,-2.73166
1480605902606818,-1.74937,-0.326385,-2.73166
1480605902642914,-1.74928,-0.326242,-2.73173
1480605902647929,-1.74928,-0.326242,-2.73173
1480605902689538,-1.74935,-0.326418,-2.73172
1480605902694051,-1.74919,-0.326418,-2.73168
1480605902708091,-1.74919,-0.326418,-2.73168
1480605902731651,-1.7491,-0.326368,-2.73183
1480605902748195,-1.7491,-0.326275,-2.73175
1480605902771256,-1.7491,-0.326275,-2.73175
1480605902785795,-1.7491,-0.326368,-2.73183
1480605902808355,-1.7491,-0.326368,-2.73183
1480605902827907,-1.7491,-0.326275,-2.73175
1480605902851971,-1.7491,-0.326275,-2.73175
1480605902868515,-1.7491,-0.326275,-2.73175
1480605902895086,-1.7491,-0.326275,-2.73175
1480605902913135,-1.74891,-0.326309,-2.73178
1480605902928174,-1.74892,-0.326402,-2.73185
1480605902955245,-1.74891,-0.326309,-2.73178
1480605902965774,-1.74885,-0.326226,-2.73186
1480605902988335,-1.74891,-0.326309,-2.73178
1480605903011896,-1.74891,-0.326309,-2.73178
1480605903026936,-1.74892,-0.326402,-2.73185
1480605903047993,-1.74874,-0.326436,-2.73187
1480605903069049,-1.74874,-0.326436,-2.73187
1480605903100633,-1.74873,-0.326343,-2.7318
1480605903108153,-1.74874,-0.326436,-2.73187
1480605903129711,-1.74874,-0.326436,-2.73187
1480605903146255,-1.74872,-0.326469,-2.73194
1480605903172825,-1.74865,-0.326293,-2.73195
1480605903189870,-1.74848,-0.326294,-2.7319
1480605903205912,-1.74848,-0.326294,-2.7319
1480605903241508,-1.74848,-0.326294,-2.7319
1480605903248527,-1.74849,-0.326387,-2.73198
1480605903265072,-1.74847,-0.32642,-2.73205
1480605903288633,-1.7483,-0.326328,-2.73193
1480605903310691,-1.7483,-0.326328,-2.73193
1480605903332752,-1.7483,-0.326421,-2.732
1480605903347289,-1.7483,-0.326421,-2.732
1480605903377368,-1.7483,-0.326421,-2.732
1480605903390905,-1.74828,-0.326361,-2.73199
1480605903432519,-1.74822,-0.326278,-2.73208
1480605903436026,-1.74822,-0.326278,-2.73208
1480605903451064,-1.7482,-0.326311,-2.73214
1480605903467609,-1.74803,-0.326311,-2.7321
1480605903489667,-1.74803,-0.326311,-2.7321
1480605903513230,-1.74803,-0.326311,-2.7321
1480605903528271,-1.74803,-0.326311,-2.7321
1480605903565369,-1.74803,-0.326311,-2.7321
1480605903570884,-1.7481,-0.326395,-2.73201
1480605903587428,-1.7481,-0.326487,-2.73209
1480605903609987,-1.74803,-0.326311,-2.7321
1480605903639065,-1.74802,-0.326345,-2.73216
1480605903664633,-1.74785,-0.326345,-2.73212
1480605903669646,-1.74785,-0.326438,-2.7322
1480605903699729,-1.74784,-0.326471,-2.73226
1480605903707748,-1.74784,-0.326471,-2.73226
1480605903730810,-1.74766,-0.326379,-2.73214
1480605903750863,-1.74766,-0.326379,-2.73214
1480605903767406,-1.74766,-0.326379,-2.73214
1480605903797488,-1.74766,-0.326379,-2.73214
1480605903811024,-1.74766,-0.326379,-2.73214
1480605903842606,-1.74766,-0.326379,-2.73214
1480605903850127,-1.74758,-0.326329,-2.73229
1480605903871182,-1.74765,-0.326412,-2.73221
1480605903887226,-1.74765,-0.326412,-2.73221
1480605903940367,-1.74748,-0.326506,-2.73224
1480605903942874,-1.74748,-0.326506,-2.73224
1480605903949393,-1.74746,-0.326446,-2.73223
1480605903977465,-1.7474,-0.326363,-2.73231
1480605903991001,-1.7474,-0.326363,-2.73231
1480605904024089,-1.74747,-0.326539,-2.73231
1480605904030106,-1.7474,-0.326456,-2.73239
1480605904052164,-1.74723,-0.326364,-2.73227
1480605904075225,-1.74721,-0.326397,-2.73234
1480605904090767,-1.74721,-0.326397,-2.73234
1480605904118341,-1.74721,-0.326397,-2.73234
1480605904127364,-1.74721,-0.326397,-2.73234
1480605904149924,-1.74721,-0.326397,-2.73234
1480605904170980,-1.74721,-0.326397,-2.73234
1480605904218608,-1.74721,-0.326397,-2.73234
1480605904224121,-1.74721,-0.326397,-2.73234
1480605904238660,-1.74721,-0.326397,-2.73234
1480605904262222,-1.74721,-0.326397,-2.73234
1480605904269745,-1.74765,-0.326505,-2.73228
1480605904307844,-1.74779,-0.326448,-2.73236
1480605904310352,-1.74778,-0.326481,-2.73242
1480605904329903,-1.74778,-0.326481,-2.73242
1480605904352964,-1.74778,-0.326481,-2.73242
1480605904367503,-1.74778,-0.326481,-2.73242
1480605904405604,-1.7476,-0.326389,-2.7323
1480605904412623,-1.74759,-0.326422,-2.73237
1480605904426661,-1.74759,-0.326422,-2.73237
1480605904449722,-1.74759,-0.326514,-2.73244
1480605904488826,-1.74759,-0.326514,-2.73244
1480605904493338,-1.74759,-0.326514,-2.73244
1480605904540463,-1.74759,-0.326514,-2.73244
1480605904542970,-1.74759,-0.326514,-2.73244
1480605904547983,-1.74797,-0.32654,-2.73248
1480605904583579,-1.74803,-0.326623,-2.73239
1480605904592603,-1.74803,-0.326623,-2.73239
1480605904606639,-1.74797,-0.32654,-2.73248
1480605904630202,-1.74796,-0.326447,-2.7324
1480605904652260,-1.74797,-0.32654,-2.73248
1480605904675824,-1.74797,-0.32654,-2.73248
1480605904689860,-1.74797,-0.32654,-2.73248
1480605904720441,-1.74797,-0.32654,-2.73248
1480605904727963,-1.74796,-0.326447,-2.7324
1480605904773082,-1.74796,-0.326447,-2.7324
1480605904775589,-1.74796,-0.326447,-2.7324
1480605904793637,-1.74803,-0.326623,-2.73239
1480605904817199,-1.74803,-0.326623,-2.73239
1480605904832242,-1.74797,-0.32654,-2.73248
1480605904854800,-1.74797,-0.32654,-2.73248
1480605904869839,-1.74797,-0.32654,-2.73248
1480605904892399,-1.74797,-0.32654,-2.73248
1480605904913455,-1.74803,-0.326623,-2.73239
1480605904929999,-1.74803,-0.326623,-2.73239
1480605904953061,-1.74797,-0.32654,-2.73248
1480605904973114,-1.74797,-0.32654,-2.73248
1480605904997680,-1.74797,-0.32654,-2.73248
1480605905012721,-1.74803,-0.326623,-2.73239
1480605905050320,-1.74805,-0.32659,-2.73233
1480605905052826,-1.74805,-0.32659,-2.73233
1480605905072394,-1.74805,-0.32659,-2.73233
1480605905093450,-1.74805,-0.32659,-2.73233
1480605905109994,-1.74805,-0.32659,-2.73233
1480605905140575,-1.74805,-0.326683,-2.7324
1480605905153610,-1.74805,-0.326683,-2.7324
1480605905169151,-1.74805,-0.32659,-2.73233
1480605905192212,-1.7485,-0.326665,-2.73221
1480605905222293,-1.7485,-0.326665,-2.73221
1480605905230826,-1.74851,-0.326758,-2.73229
1480605905282953,-1.74851,-0.326758,-2.73229
1480605905285460,-1.7485,-0.326665,-2.73221
1480605905291477,-1.7485,-0.326665,-2.73221
1480605905327572,-1.7485,-0.326665,-2.73221
1480605905335594,-1.74867,-0.326664,-2.73225
1480605905363670,-1.7485,-0.326665,-2.73221
1480605905372192,-1.74868,-0.326757,-2.73233
1480605905394755,-1.74867,-0.326664,-2.73225
1480605905409290,-1.74867,-0.326664,-2.73225
1480605905438367,-1.74876,-0.326807,-2.73218
1480605905455914,-1.74876,-0.326807,-2.73218
1480605905469450,-1.74876,-0.326807,-2.73218
1480605905500533,-1.74876,-0.326807,-2.73218
1480605905515072,-1.74876,-0.326807,-2.73218
1480605905529109,-1.74875,-0.326714,-2.7321
1480605905559690,-1.74876,-0.326807,-2.73218
1480605905574731,-1.74876,-0.326807,-2.73218
1480605905595786,-1.74876,-0.326807,-2.73218
1480605905612330,-1.74876,-0.326807,-2.73218
1480605905634891,-1.74876,-0.326807,-2.73218
1480605905649438,-1.74876,-0.326807,-2.73218
1480605905672991,-1.74876,-0.326807,-2.73218
1480605905695051,-1.74883,-0.326983,-2.73217
1480605905717611,-1.74876,-0.326807,-2.73218
1480605905732651,-1.74876,-0.326807,-2.73218
1480605905754709,-1.74876,-0.326807,-2.73218
1480605905793813,-1.74876,-0.326807,-2.73218
1480605905798829,-1.74885,-0.32695,-2.7321
1480605905838933,-1.74885,-0.32695,-2.7321
1480605905843445,-1.74883,-0.326983,-2.73217
1480605905860491,-1.74883,-0.326983,-2.73217
1480605905884053,-1.74883,-0.326983,-2.73217
1480605905903605,-1.74883,-0.326983,-2.73217
1480605905912629,-1.74885,-0.32695,-2.7321
1480605905934688,-1.74885,-0.32695,-2.7321
1480605905956747,-1.74901,-0.326949,-2.73215
1480605905972789,-1.74901,-0.326949,-2.73215
1480605905994848,-1.74901,-0.326949,-2.73215
1480605906017408,-1.74908,-0.327032,-2.73206
1480605906032451,-1.74955,-0.327293,-2.7321
1480605906071050,-1.74955,-0.327293,-2.7321
1480605906076064,-1.74954,-0.327201,-2.73202
1480605906108149,-1.74948,-0.327117,-2.73211
1480605906114666,-1.74954,-0.327201,-2.73202
1480605906136725,-1.74954,-0.327201,-2.73202
1480605906159786,-1.74948,-0.327117,-2.73211
1480605906174827,-1.74948,-0.327117,-2.73211
1480605906197387,-1.74954,-0.327201,-2.73202
1480605906212427,-1.74955,-0.327293,-2.7321
1480605906234987,-1.74956,-0.32726,-2.73203
1480605906257547,-1.74956,-0.32726,-2.73203
1480605906271584,-1.74955,-0.327293,-2.7321
1480605906295149,-1.74955,-0.327293,-2.7321
1480605906347787,-1.74955,-0.327293,-2.7321
1480605906350293,-1.74955,-0.327293,-2.7321
1480605906356811,-1.74955,-0.327293,-2.7321
1480605906393909,-1.74955,-0.327293,-2.7321
1480605906398422,-1.74954,-0.327201,-2.73202
1480605906438026,-1.74948,-0.327117,-2.73211
1480605906440534,-1.74954,-0.327201,-2.73202
1480605906458582,-1.74955,-0.327293,-2.7321
1480605906475125,-1.74955,-0.327293,-2.7321
1480605906497185,-1.74955,-0.327293,-2.7321
1480605906527264,-1.74948,-0.327117,-2.73211
1480605906534784,-1.74954,-0.327201,-2.73202
1480605906557845,-1.74955,-0.327293,-2.7321
1480605906578902,-1.74938,-0.327294,-2.73205
1480605906600960,-1.74938,-0.327294,-2.73205
1480605906625024,-1.74936,-0.327327,-2.73212
1480605906639061,-1.74929,-0.327151,-2.73213
1480605906655105,-1.74938,-0.327294,-2.73205
1480605906677665,-1.74938,-0.327294,-2.73205
1480605906715267,-1.74938,-0.327294,-2.73205
1480605906717773,-1.74938,-0.327294,-2.73205
1480605906737323,-1.74938,-0.327294,-2.73205
1480605906758378,-1.74938,-0.327294,-2.73205
1480605906780939,-1.74938,-0.327294,-2.73205
1480605906797484,-1.74906,-0.327478,-2.73208
1480605906818539,-1.74906,-0.327478,-2.73208
1480605906850123,-1.74944,-0.327377,-2.73197
1480605906857643,-1.74944,-0.327377,-2.73197
1480605906887723,-1.74944,-0.327377,-2.73197
1480605906903766,-1.74944,-0.327377,-2.73197
1480605906925825,-1.74944,-0.327377,-2.73197
1480605906938358,-1.74944,-0.327377,-2.73197
1480605906954902,-1.74943,-0.32741,-2.73203
1480605906977963,-1.74943,-0.32741,-2.73203
1480605906999019,-1.74943,-0.32741,-2.73203
1480605907022582,-1.74943,-0.327503,-2.73211
1480605907037621,-1.74943,-0.327503,-2.73211
1480605907066702,-1.74926,-0.327411,-2.73199
1480605907076225,-1.74926,-0.327411,-2.73199
1480605907127361,-1.74927,-0.327504,-2.73207
1480605907136886,-1.74933,-0.327587,-2.73198
1480605907148419,-1.74933,-0.327587,-2.73198
1480605907182010,-1.74927,-0.327504,-2.73207
1480605907187021,-1.74926,-0.327411,-2.73199
1480605907195542,-1.74926,-0.327411,-2.73199
1480605907217601,-1.74926,-0.327411,-2.73199
1480605907247180,-1.74926,-0.327411,-2.73199
1480605907254198,-1.74926,-0.327411,-2.73199
1480605907277260,-1.74926,-0.327411,-2.73199
1480605907305835,-1.74919,-0.327328,-2.73208
1480605907315365,-1.74918,-0.327361,-2.73214
1480605907337922,-1.74924,-0.327444,-2.73206
1480605907359979,-1.74924,-0.327444,-2.73206
1480605907405601,-1.74924,-0.327444,-2.73206
1480605907408609,-1.74918,-0.327361,-2.73214
1480605907442700,-1.74901,-0.327362,-2.7321
1480605907445206,-1.74901,-0.327362,-2.7321
1480605907457238,-1.74908,-0.327445,-2.73201
1480605907480301,-1.74908,-0.327445,-2.73201
1480605907494838,-1.74899,-0.327395,-2.73216
1480605907517399,-1.74899,-0.327395,-2.73216
1480605907539958,-1.74899,-0.327395,-2.73216
1480605907553995,-1.74899,-0.327395,-2.73216
1480605907585079,-1.74899,-0.327395,-2.73216
1480605907600121,-1.74899,-0.327395,-2.73216
1480605907620673,-1.74899,-0.327302,-2.73209
1480605907638721,-1.74897,-0.327335,-2.73215
1480605907667297,-1.74898,-0.327428,-2.73223
1480605907682337,-1.74898,-0.327428,-2.73223
1480605907720438,-1.74881,-0.327429,-2.73218
1480605907722945,-1.74874,-0.327253,-2.73219
1480605907749015,-1.74872,-0.327286,-2.73226
1480605907757537,-1.74872,-0.327286,-2.73226
1480605907780601,-1.74879,-0.327462,-2.73225
1480605907802657,-1.74879,-0.327462,-2.73225
1480605907818198,-1.74879,-0.327462,-2.73225
1480605907847777,-1.74873,-0.327378,-2.73233
1480605907860813,-1.74872,-0.327286,-2.73226
1480605907905932,-1.74856,-0.327379,-2.73229
1480605907916961,-1.74863,-0.327462,-2.73221
1480605907922477,-1.74863,-0.327462,-2.73221
1480605907961078,-1.74856,-0.327379,-2.73229
1480605907966092,-1.74855,-0.327286,-2.73222
1480605907982139,-1.74854,-0.32732,-2.73228
1480605907997176,-1.74854,-0.327412,-2.73236
1480605908019735,-1.74854,-0.327412,-2.73236
1480605908041794,-1.74854,-0.327412,-2.73236
1480605908057836,-1.74837,-0.32732,-2.73224
1480605908080396,-1.74835,-0.327353,-2.7323
1480605908102455,-1.74835,-0.327353,-2.7323
1480605908125015,-1.74836,-0.327446,-2.73238
1480605908140054,-1.74819,-0.327447,-2.73234
1480605908193697,-1.74818,-0.32748,-2.7324
1480605908200215,-1.7481,-0.327304,-2.73241
1480605908202721,-1.7481,-0.327304,-2.73241
1480605908237313,-1.74818,-0.32748,-2.7324
1480605908239820,-1.74818,-0.32748,-2.7324
1480605908290456,-1.74793,-0.327431,-2.73251
1480605908292962,-1.74792,-0.327338,-2.73243
1480605908303991,-1.74792,-0.327338,-2.73243
1480605908320033,-1.74792,-0.327338,-2.73243
1480605908342594,-1.74793,-0.327431,-2.73251
1480605908356632,-1.74793,-0.327431,-2.73251
1480605908379692,-1.7479,-0.327371,-2.7325
1480605908402255,-1.7479,-0.327371,-2.7325
1480605908416791,-1.7479,-0.327371,-2.7325
1480605908453389,-1.7479,-0.327371,-2.7325
1480605908469933,-1.74774,-0.327372,-2.73245
1480605908476951,-1.74774,-0.327372,-2.73245
1480605908500013,-1.74793,-0.327431,-2.73251
1480605908522573,-1.74786,-0.327347,-2.73259
1480605908543629,-1.74784,-0.32738,-2.73266
1480605908559672,-1.74784,-0.32738,-2.73266
1480605908582235,-1.74784,-0.32738,-2.73266
1480605908603287,-1.74765,-0.327321,-2.7326
1480605908619831,-1.74759,-0.327238,-2.73269
1480605908642892,-1.74759,-0.327238,-2.73269
1480605908663448,-1.74748,-0.327448,-2.7327
1480605908703052,-1.74748,-0.327448,-2.7327
1480605908705559,-1.74748,-0.327448,-2.7327
1480605908724610,-1.74741,-0.327365,-2.73279
1480605908749175,-1.74739,-0.327305,-2.73278
1480605908769730,-1.74723,-0.327399,-2.73281
1480605908783266,-1.74723,-0.327399,-2.73281
1480605908799810,-1.74723,-0.327399,-2.73281
1480605908822372,-1.74721,-0.327432,-2.73287
1480605908844930,-1.74721,-0.327432,-2.73287
1480605908860973,-1.74704,-0.32734,-2.73275
1480605908882531,-1.74704,-0.327432,-2.73283
1480605908912610,-1.74703,-0.327465,-2.7329
1480605908920130,-1.74703,-0.327465,-2.7329
1480605908980290,-1.74702,-0.327373,-2.73282
1480605908982797,-1.74696,-0.327289,-2.73291
1480605909025410,-1.74677,-0.327323,-2.73293
1480605909027917,-1.74684,-0.327499,-2.73292
1480605909047973,-1.74679,-0.32729,-2.73286
1480605909062509,-1.74677,-0.327323,-2.73293
1480605909086072,-1.74677,-0.327323,-2.73293
1480605909107629,-1.74677,-0.327323,-2.73293
1480605909122168,-1.74678,-0.327416,-2.733
1480605909152247,-1.74659,-0.32745,-2.73303
1480605909161272,-1.74659,-0.327357,-2.73295
1480605909189847,-1.74659,-0.327357,-2.73295
1480605909205390,-1.74652,-0.327274,-2.73303
1480605909242989,-1.74659,-0.327357,-2.73295
1480605909246499,-1.74657,-0.32739,-2.73301
1480605909272569,-1.74634,-0.327308,-2.73306
1480605909280589,-1.74634,-0.327308,-2.73306
1480605909302146,-1.74632,-0.327341,-2.73312
1480605909332229,-1.74632,-0.327341,-2.73312
1480605909362808,-1.74632,-0.327341,-2.73312
1480605909371331,-1.74632,-0.327341,-2.73312
1480605909384867,-1.74632,-0.327341,-2.73312
1480605909414445,-1.74614,-0.327374,-2.73314
1480605909423970,-1.74614,-0.327374,-2.73314
1480605909445529,-1.74614,-0.327374,-2.73314
1480605909467587,-1.74614,-0.327374,-2.73314
1480605909482627,-1.74614,-0.327374,-2.73314
1480605909510701,-1.74607,-0.327291,-2.73323
1480605909526242,-1.74605,-0.327231,-2.73322
1480605909542285,-1.74605,-0.327231,-2.73322
1480605909573369,-1.74589,-0.327325,-2.73325
1480605909585902,-1.74589,-0.327325,-2.73325
1480605909601944,-1.74589,-0.327325,-2.73325
1480605909625005,-1.74588,-0.327232,-2.73317
1480605909646564,-1.74587,-0.327265,-2.73324
1480605909662606,-1.74587,-0.327358,-2.73332
1480605909693187,-1.74587,-0.327358,-2.73332
1480605909714747,-1.7457,-0.327359,-2.73327
1480605909724270,-1.7457,-0.327359,-2.73327
1480605909750840,-1.74569,-0.327392,-2.73334
1480605909767384,-1.74569,-0.327392,-2.73334
1480605909789944,-1.74569,-0.327392,-2.73334
1480605909804483,-1.74552,-0.327392,-2.7333
1480605909833570,-1.74552,-0.327392,-2.7333
1480605909843086,-1.74545,-0.327216,-2.7333
1480605909865149,-1.74545,-0.327216,-2.7333
1480605909886200,-1.74545,-0.327216,-2.7333
1480605909902243,-1.74544,-0.327342,-2.73345
1480605909925304,-1.74543,-0.327249,-2.73337
1480605909953378,-1.74543,-0.327249,-2.73337
1480605909962403,-1.74543,-0.327249,-2.73337
1480605909984963,-1.74543,-0.327249,-2.73337
1480605910008528,-1.74525,-0.327283,-2.73339
1480605910025572,-1.74525,-0.327283,-2.73339
1480605910045123,-1.74525,-0.327283,-2.73339
1480605910067684,-1.74518,-0.3272,-2.73348
1480605910081724,-1.74517,-0.327233,-2.73354
1480605910104783,-1.74523,-0.327316,-2.73346
1480605910128845,-1.74523,-0.327316,-2.73346
1480605910141881,-1.745,-0.327234,-2.7335
1480605910171961,-1.745,-0.327234,-2.7335
1480605910187502,-1.74499,-0.327141,-2.73342
1480605910210062,-1.74498,-0.327174,-2.73349
1480605910226105,-1.745,-0.327234,-2.7335
1480605910256184,-1.74498,-0.327267,-2.73356
1480605910268217,-1.74498,-0.327174,-2.73349
1480605910292281,-1.74491,-0.327091,-2.73357
1480605910308325,-1.74473,-0.327124,-2.73359
1480605910345422,-1.7448,-0.3273,-2.73359
1480605910347928,-1.7448,-0.3273,-2.73359
1480605910382522,-1.7448,-0.3273,-2.73359
1480605910389038,-1.7451,-0.327149,-2.73363
1480605910405081,-1.74509,-0.327182,-2.73369
1480605910427640,-1.74486,-0.3271,-2.73373
1480605910448699,-1.74492,-0.327183,-2.73365
1480605910472259,-1.74492,-0.327183,-2.73365
1480605910493315,-1.74486,-0.3271,-2.73373
1480605910515875,-1.74484,-0.327133,-2.7338
1480605910530916,-1.74467,-0.327134,-2.73376
1480605910554980,-1.74467,-0.327134,-2.73376
1480605910585561,-1.74474,-0.327217,-2.73367
1480605910588569,-1.74466,-0.327167,-2.73382
1480605910608125,-1.74466,-0.327167,-2.73382
1480605910635699,-1.74449,-0.327167,-2.73378
1480605910644723,-1.74447,-0.3272,-2.73384
1480605910667784,-1.74447,-0.3272,-2.73384
1480605910688339,-1.74448,-0.327293,-2.73392
1480605910704883,-1.74447,-0.3272,-2.73384
1480605910727444,-1.74422,-0.327151,-2.73395
1480605910748501,-1.74422,-0.327151,-2.73395
1480605910765044,-1.74422,-0.327151,-2.73395
1480605910787603,-1.74422,-0.327151,-2.73395
1480605910808660,-1.74422,-0.327151,-2.73395
1480605910824701,-1.74422,-0.327151,-2.73395
1480605910847261,-1.74422,-0.327058,-2.73387
1480605910875837,-1.74421,-0.327184,-2.73402
1480605910884861,-1.74404,-0.327184,-2.73397
1480605910907422,-1.74404,-0.327184,-2.73397
1480605910929982,-1.74404,-0.327184,-2.73397
1480605910944520,-1.74404,-0.327184,-2.73397
1480605910967582,-1.74404,-0.327184,-2.73397
1480605910997160,-1.74404,-0.327184,-2.73397
1480605911004679,-1.74404,-0.327184,-2.73397
1480605911027240,-1.74404,-0.327184,-2.73397
1480605911049801,-1.74402,-0.327217,-2.73404
1480605911064339,-1.74395,-0.327041,-2.73405
1480605911087902,-1.74402,-0.327217,-2.73404
1480605911109960,-1.74402,-0.327217,-2.73404
1480605911123997,-1.74402,-0.327217,-2.73404
1480605911157085,-1.74385,-0.327218,-2.734
1480605911177641,-1.74385,-0.327218,-2.734
1480605911185160,-1.74385,-0.327218,-2.734
1480605911207220,-1.74384,-0.327251,-2.73406
1480605911231283,-1.74384,-0.327251,-2.73406
1480605911244318,-1.74384,-0.327251,-2.73406
1480605911267378,-1.74384,-0.327251,-2.73406
1480605911289938,-1.74384,-0.327251,-2.73406
1480605911303977,-1.74384,-0.327251,-2.73406
1480605911327539,-1.74367,-0.327252,-2.73402
1480605911349597,-1.74365,-0.327285,-2.73408
1480605911364137,-1.74365,-0.327285,-2.73408
1480605911387198,-1.74359,-0.327202,-2.73417
1480605911427805,-1.74359,-0.327202,-2.73417
1480605911430815,-1.74359,-0.327202,-2.73417
1480605911447358,-1.74359,-0.327202,-2.73417
1480605911477939,-1.74342,-0.327202,-2.73412
1480605911491475,-1.74341,-0.327235,-2.73419
1480605911507518,-1.74341,-0.327235,-2.73419
1480605911530580,-1.74341,-0.327235,-2.73419
1480605911551635,-1.74341,-0.327235,-2.73419
1480605911567176,-1.74341,-0.327235,-2.73419
1480605911590740,-1.74341,-0.327235,-2.73419
1480605911618313,-1.74341,-0.327235,-2.73419
1480605911642878,-1.74332,-0.327185,-2.73434
1480605911653406,-1.74316,-0.327186,-2.7343
1480605911670952,-1.74322,-0.327269,-2.73421
1480605911687997,-1.74322,-0.327269,-2.73421
1480605911710056,-1.74322,-0.327269,-2.73421
1480605911732618,-1.74313,-0.327126,-2.73429
1480605911754677,-1.74313,-0.327126,-2.73429
1480605911771219,-1.74313,-0.327126,-2.73429
1480605911798296,-1.74314,-0.327219,-2.73436
1480605911807315,-1.74314,-0.327219,-2.73436
1480605911829876,-1.74297,-0.327127,-2.73424
1480605911852436,-1.74297,-0.327127,-2.73424
1480605911875497,-1.74295,-0.32716,-2.73431
1480605911890536,-1.74296,-0.327252,-2.73438
1480605911918112,-1.74296,-0.327252,-2.73438
1480605911928639,-1.74296,-0.327252,-2.73438
1480605911957214,-1.74295,-0.32716,-2.73431
1480605911972256,-1.74289,-0.327076,-2.73439
1480605911987294,-1.74289,-0.327076,-2.73439
1480605912015872,-1.74295,-0.32716,-2.73431
1480605912032414,-1.7427,-0.32711,-2.73442
1480605912054974,-1.7427,-0.32711,-2.73442
1480605912070014,-1.7427,-0.32711,-2.73442
1480605912092575,-1.7427,-0.32711,-2.73442
1480605912106611,-1.7427,-0.32711,-2.73442
1480605912129674,-1.7427,-0.32711,-2.73442
1480605912158249,-1.7427,-0.32711,-2.73442
1480605912174291,-1.7427,-0.32711,-2.73442
1480605912189834,-1.74269,-0.327143,-2.73448
1480605912212393,-1.74269,-0.327143,-2.73448
1480605912226932,-1.74252,-0.327144,-2.73444
1480605912249993,-1.74252,-0.327144,-2.73444
1480605912272552,-1.74252,-0.327144,-2.73444
1480605912286590,-1.74245,-0.32706,-2.73452
1480605912309652,-1.74245,-0.326968,-2.73445
1480605912332214,-1.74243,-0.327001,-2.73451
1480605912353769,-1.74244,-0.327093,-2.73459
1480605912375828,-1.74244,-0.327093,-2.73459
1480605912399892,-1.74243,-0.327001,-2.73451
1480605912413428,-1.74243,-0.327001,-2.73451
1480605912437995,-1.74243,-0.327001,-2.73451
1480605912452534,-1.74244,-0.327093,-2.73459
1480605912474089,-1.74233,-0.327177,-2.73446
1480605912497658,-1.74233,-0.327177,-2.73446
1480605912512191,-1.74227,-0.327094,-2.73454
1480605912533246,-1.74227,-0.327094,-2.73454
1480605912549791,-1.74225,-0.327127,-2.73461
1480605912578367,-1.74225,-0.327127,-2.73461
1480605912593407,-1.74225,-0.327127,-2.73461
1480605912609951,-1.74225,-0.327127,-2.73461
1480605912632514,-1.74209,-0.327128,-2.73457
1480605912654067,-1.74206,-0.327068,-2.73456
1480605912669609,-1.74207,-0.327161,-2.73463
1480605912692169,-1.74207,-0.327161,-2.73463
1480605912713226,-1.74207,-0.327161,-2.73463
1480605912729771,-1.74207,-0.327161,-2.73463
1480605912752329,-1.74207,-0.327161,-2.73463
1480605912773386,-1.74207,-0.327161,-2.73463
1480605912804969,-1.74207,-0.327161,-2.73463
1480605912819007,-1.74207,-0.327161,-2.73463
1480605912841065,-1.74207,-0.327161,-2.73463
1480605912850090,-1.74207,-0.327161,-2.73463
1480605912872148,-1.74207,-0.327161,-2.73463
1480605912895711,-1.74189,-0.327194,-2.73465
1480605912909748,-1.7419,-0.327161,-2.73459
1480605912932308,-1.74189,-0.327194,-2.73465
1480605912954868,-1.74189,-0.327194,-2.73465
1480605912975928,-1.74182,-0.327018,-2.73466
1480605912992468,-1.74182,-0.327111,-2.73474
1480605913015029,-1.74187,-0.327227,-2.73472
1480605913044607,-1.7417,-0.327228,-2.73468
1480605913052127,-1.74164,-0.327145,-2.73476
1480605913091231,-1.74164,-0.327145,-2.73476
1480605913095743,-1.74163,-0.327052,-2.73469
1480605913112287,-1.74164,-0.327145,-2.73476
1480605913134848,-1.74233,-0.327396,-2.73468
1480605913164930,-1.74209,-0.32722,-2.73464
1480605913178463,-1.74226,-0.32722,-2.73469
1480605913195007,-1.74226,-0.32722,-2.73469
1480605913226090,-1.74226,-0.32722,-2.73469
1480605913232609,-1.74226,-0.32722,-2.73469
1480605913269706,-1.74209,-0.32722,-2.73464
1480605913284746,-1.74209,-0.32722,-2.73464
1480605913292266,-1.74251,-0.327269,-2.73458
1480605913315330,-1.74251,-0.327362,-2.73466
1480605913335883,-1.74253,-0.327329,-2.73459
1480605913375989,-1.74259,-0.327412,-2.73451
1480605913381009,-1.74259,-0.327412,-2.73451
1480605913396042,-1.74241,-0.327446,-2.73453
1480605913418601,-1.74235,-0.327363,-2.73461
1480605913436148,-1.74235,-0.327363,-2.73461
1480605913455701,-1.74241,-0.327446,-2.73453
1480605913472245,-1.74242,-0.327539,-2.7346
1480605913510848,-1.74241,-0.327446,-2.73453
1480605913515861,-1.74241,-0.327446,-2.73453
1480605913532408,-1.74241,-0.327446,-2.73453
1480605913554965,-1.74241,-0.327446,-2.73453
1480605913591562,-1.74241,-0.327446,-2.73453
1480605913600085,-1.74241,-0.327446,-2.73453
1480605913614623,-1.74241,-0.327446,-2.73453
1480605913635679,-1.74241,-0.327446,-2.73453
1480605913653226,-1.74242,-0.327539,-2.7346
1480605913682303,-1.74243,-0.327506,-2.73454
1480605913697344,-1.7426,-0.327505,-2.73458
1480605913742964,-1.7426,-0.327505,-2.73458
1480605913745471,-1.7426,-0.327505,-2.73458
1480605913757002,-1.74259,-0.327412,-2.73451
1480605913772544,-1.7426,-0.327505,-2.73458
1480605913795613,-1.7426,-0.327505,-2.73458
1480605913817162,-1.7426,-0.327505,-2.73458
1480605913832205,-1.7426,-0.327505,-2.73458
1480605913854763,-1.7426,-0.327505,-2.73458
1480605913877322,-1.7426,-0.327505,-2.73458
1480605913891861,-1.7426,-0.327505,-2.73458
1480605913928960,-1.74268,-0.327555,-2.73443
1480605913937482,-1.74268,-0.327555,-2.73443
1480605913975583,-1.74278,-0.327471,-2.73456
1480605913977590,-1.74278,-0.327471,-2.73456
1480605914021204,-1.74285,-0.327555,-2.73448
1480605914025727,-1.74339,-0.327773,-2.73428
1480605914035744,-1.74385,-0.327942,-2.73424
1480605914057301,-1.74385,-0.327942,-2.73424
1480605914071839,-1.74385,-0.327942,-2.73424
1480605914094901,-1.74402,-0.327941,-2.73428
1480605914117962,-1.74402,-0.327941,-2.73428
1480605914138517,-1.74402,-0.327941,-2.73428
1480605914155061,-1.74402,-0.327941,-2.73428
1480605914178122,-1.74402,-0.327941,-2.73428
1480605914206197,-1.74403,-0.327908,-2.73422
1480605914216224,-1.74403,-0.327908,-2.73422
1480605914243296,-1.7441,-0.327991,-2.73413
1480605914258337,-1.7441,-0.327991,-2.73413
1480605914298945,-1.74427,-0.327991,-2.73418
1480605914303456,-1.7442,-0.327907,-2.73426
1480605914318495,-1.74422,-0.327874,-2.7342
1480605914342560,-1.74428,-0.327958,-2.73411
1480605914357600,-1.74429,-0.32805,-2.73419
1480605914385675,-1.74428,-0.327958,-2.73411
1480605914394699,-1.74428,-0.327958,-2.73411
1480605914417258,-1.74422,-0.327874,-2.7342
1480605914438315,-1.74447,-0.327924,-2.73409
1480605914462880,-1.74447,-0.327924,-2.73409
1480605914484939,-1.74447,-0.327924,-2.73409
1480605914530561,-1.74447,-0.327924,-2.73409
1480605914533069,-1.74447,-0.327924,-2.73409
1480605914538581,-1.74465,-0.32789,-2.73407
1480605914575178,-1.74465,-0.32789,-2.73407
1480605914577685,-1.74472,-0.328066,-2.73406
1480605914597238,-1.74473,-0.32794,-2.73392
1480605914618294,-1.74467,-0.327857,-2.734
1480605914634837,-1.74483,-0.327856,-2.73405
1480605914657899,-1.74483,-0.327856,-2.73405
1480605914680461,-1.7449,-0.32794,-2.73396
1480605914694997,-1.74492,-0.327999,-2.73397
1480605914717561,-1.74492,-0.327907,-2.73389
1480605914764183,-1.74492,-0.327907,-2.73389
1480605914768192,-1.74492,-0.327907,-2.73389
1480605914807798,-1.74492,-0.327999,-2.73397
1480605914811306,-1.74461,-0.328058,-2.73385
1480605914816320,-1.74461,-0.328058,-2.73385
1480605914844989,-1.74461,-0.328058,-2.73385
1480605914860532,-1.74461,-0.328058,-2.73385
1480605914874066,-1.74468,-0.328141,-2.73377
1480605914898634,-1.74434,-0.327948,-2.73395
1480605914919688,-1.74434,-0.327948,-2.73395
1480605914934728,-1.74434,-0.327948,-2.73395
1480605914957287,-1.74434,-0.327948,-2.73395
1480605914985864,-1.74434,-0.327948,-2.73395
1480605914994386,-1.74434,-0.327948,-2.73395
1480605915032992,-1.74443,-0.328091,-2.73388
1480605915040008,-1.74443,-0.328091,-2.73388
1480605915076104,-1.74443,-0.328091,-2.73388
1480605915086632,-1.74442,-0.327999,-2.7338
1480605915107186,-1.7446,-0.328091,-2.73392
1480605915114207,-1.74461,-0.328058,-2.73385
1480605915137267,-1.74461,-0.328058,-2.73385
1480605915159827,-1.74461,-0.328058,-2.73385
1480605915180889,-1.74477,-0.327964,-2.73382
1480605915197427,-1.74477,-0.327964,-2.73382
1480605915220989,-1.74479,-0.327931,-2.73376
1480605915248563,-1.74479,-0.327931,-2.73376
1480605915272125,-1.74479,-0.327931,-2.73376
1480605915279645,-1.74479,-0.327931,-2.73376
1480605915317747,-1.74479,-0.327931,-2.73376
1480605915323261,-1.74479,-0.327931,-2.73376
1480605915340808,-1.74479,-0.327931,-2.73376
1480605915364371,-1.7448,-0.328024,-2.73383
1480605915376905,-1.7448,-0.328024,-2.73383
1480605915408488,-1.74479,-0.327931,-2.73376
1480605915421021,-1.7448,-0.328024,-2.73383
1480605915453107,-1.7448,-0.328024,-2.73383
1480605915459625,-1.74505,-0.328073,-2.73372
1480605915488200,-1.74505,-0.328073,-2.73372
1480605915497727,-1.74505,-0.328073,-2.73372
1480605915541843,-1.74504,-0.327981,-2.73365
1480605915549864,-1.74505,-0.328073,-2.73372
1480605915557384,-1.74505,-0.328073,-2.73372
1480605915595492,-1.74505,-0.328073,-2.73372
1480605915601002,-1.7446,-0.327872,-2.7337
1480605915617043,-1.7446,-0.327872,-2.7337
1480605915641107,-1.7446,-0.327872,-2.7337
1480605915662163,-1.7446,-0.327872,-2.7337
1480605915677203,-1.7446,-0.327872,-2.7337
1480605915699768,-1.7446,-0.327872,-2.7337
1480605915723326,-1.74426,-0.327587,-2.73381
1480605915737363,-1.74426,-0.327587,-2.73381
1480605915760425,-1.74426,-0.327587,-2.73381
1480605915782984,-1.74426,-0.327587,-2.73381
1480605915803037,-1.74433,-0.327763,-2.7338
1480605915827102,-1.74432,-0.32767,-2.73372
1480605915850665,-1.74426,-0.327587,-2.73381
1480605915872222,-1.74426,-0.327587,-2.73381
1480605915880245,-1.74426,-0.327587,-2.73381
1480605915909822,-1.74435,-0.32773,-2.73373
1480605915923358,-1.74435,-0.32773,-2.73373
1480605915939902,-1.74435,-0.32773,-2.73373
1480605915962462,-1.74434,-0.327637,-2.73366
1480605915976500,-1.74428,-0.327554,-2.73374
1480605916000062,-1.74435,-0.32773,-2.73373
1480605916022124,-1.74435,-0.32773,-2.73373
1480605916060222,-1.74451,-0.327729,-2.73377
1480605916062728,-1.74451,-0.327637,-2.7337
1480605916095817,-1.74444,-0.327553,-2.73378
1480605916106345,-1.74444,-0.327553,-2.73378
1480605916134921,-1.74428,-0.327554,-2.73374
1480605916142441,-1.74434,-0.327637,-2.73366
1480605916163498,-1.74426,-0.327587,-2.73381
1480605916180545,-1.74426,-0.327587,-2.73381
1480605916202601,-1.74426,-0.327587,-2.73381
1480605916223156,-1.74426,-0.327587,-2.73381
1480605916239701,-1.74426,-0.327587,-2.73381
1480605916262260,-1.74426,-0.327587,-2.73381
1480605916283315,-1.74426,-0.327587,-2.73381
1480605916299859,-1.74426,-0.327587,-2.73381
1480605916336457,-1.74426,-0.327587,-2.73381
1480605916343475,-1.74426,-0.327587,-2.73381
1480605916359518,-1.74426,-0.327587,-2.73381
1480605916392606,-1.74426,-0.327587,-2.73381
1480605916403134,-1.74426,-0.327587,-2.73381
1480605916427198,-1.74426,-0.327587,-2.73381
1480605916442238,-1.74426,-0.327587,-2.73381
1480605916463296,-1.74408,-0.327621,-2.73383
1480605916479839,-1.74369,-0.327629,-2.73386
1480605916502398,-1.74362,-0.327545,-2.73395
1480605916523956,-1.74362,-0.327545,-2.73395
1480605916540500,-1.74362,-0.327545,-2.73395
1480605916562559,-1.74345,-0.327546,-2.7339
1480605916615700,-1.74362,-0.327545,-2.73395
1480605916619712,-1.74345,-0.327546,-2.7339
1480605916623721,-1.74344,-0.327579,-2.73397
1480605916661823,-1.74343,-0.327486,-2.73389
1480605916665836,-1.74344,-0.327579,-2.73397
1480605916696415,-1.74344,-0.327579,-2.73397
1480605916706442,-1.74344,-0.327579,-2.73397
1480605916725994,-1.74344,-0.327579,-2.73397
1480605916742537,-1.74344,-0.327579,-2.73397
1480605916773118,-1.74344,-0.327579,-2.73397
1480605916779136,-1.74344,-0.327579,-2.73397
1480605916802196,-1.74325,-0.327613,-2.73399
1480605916839796,-1.74325,-0.327613,-2.73399
1480605916842303,-1.74325,-0.327613,-2.73399
1480605916869375,-1.74325,-0.327613,-2.73399
1480605916893940,-1.74325,-0.327613,-2.73399
1480605916898953,-1.74325,-0.327613,-2.73399
1480605916931541,-1.74325,-0.327613,-2.73399
1480605916952094,-1.74325,-0.327613,-2.73399
1480605916959114,-1.74325,-0.327613,-2.73399
1480605916982677,-1.74325,-0.327613,-2.73399
1480605917006239,-1.74325,-0.327613,-2.73399
1480605917010249,-1.74325,-0.327613,-2.73399
1480605917028297,-1.74325,-0.327613,-2.73399
1480605917049354,-1.74325,-0.327613,-2.73399
1480605917072416,-1.74319,-0.327529,-2.73408
1480605917087956,-1.74319,-0.327529,-2.73408
1480605917118036,-1.74325,-0.327613,-2.73399
1480605917160650,-1.74325,-0.327613,-2.73399
1480605917171679,-1.74325,-0.327613,-2.73399
1480605917176692,-1.74317,-0.32747,-2.73406
1480605917193236,-1.74317,-0.32747,-2.73406
1480605917212788,-1.74317,-0.327562,-2.73414
1480605917235357,-1.743,-0.327563,-2.7341
1480605917257909,-1.743,-0.327563,-2.7341
1480605917272948,-1.743,-0.327563,-2.7341
1480605917304031,-1.743,-0.32747,-2.73402
1480605917310047,-1.74298,-0.327503,-2.73409
1480605917332607,-1.74299,-0.327596,-2.73416
1480605917347650,-1.74299,-0.327596,-2.73416
1480605917370708,-1.74298,-0.327503,-2.73409
1480605917395775,-1.74298,-0.327503,-2.73409
1480605917407807,-1.74298,-0.327503,-2.73409
1480605917437887,-1.74298,-0.327503,-2.73409
1480605917452927,-1.74299,-0.327596,-2.73416
1480605917467968,-1.74282,-0.327597,-2.73412
1480605917491531,-1.74281,-0.327504,-2.73404
1480605917516096,-1.74273,-0.327454,-2.73419
1480605917535146,-1.74273,-0.327454,-2.73419
1480605917550187,-1.7428,-0.327537,-2.73411
1480605917572746,-1.7428,-0.327537,-2.73411
1480605917587786,-1.74273,-0.327454,-2.73419
1480605917610345,-1.74273,-0.327454,-2.73419
1480605917634410,-1.74273,-0.327454,-2.73419
1480605917673514,-1.74273,-0.327454,-2.73419
1480605917677526,-1.74273,-0.327454,-2.73419
1480605917718132,-1.74273,-0.327454,-2.73419
1480605917720138,-1.74273,-0.327454,-2.73419
1480605917730166,-1.74273,-0.327454,-2.73419
1480605917755732,-1.74273,-0.327454,-2.73419
1480605917775285,-1.74255,-0.327487,-2.73422
1480605917790325,-1.74255,-0.327487,-2.73422
1480605917812886,-1.74255,-0.327487,-2.73422
1480605917827925,-1.74255,-0.327487,-2.73422
1480605917849983,-1.74255,-0.327487,-2.73422
1480605917883071,-1.74255,-0.327487,-2.73422
1480605917887583,-1.74255,-0.327487,-2.73422
1480605917910143,-1.74255,-0.327487,-2.73422
1480605917949749,-1.74248,-0.327311,-2.73422
1480605917952256,-1.74248,-0.327311,-2.73422
1480605917970304,-1.74248,-0.327311,-2.73422
1480605917992863,-1.74248,-0.327311,-2.73422
1480605918010410,-1.74255,-0.327487,-2.73422
1480605918030466,-1.74255,-0.327487,-2.73422
1480605918052522,-1.74248,-0.327311,-2.73422
1480605918070570,-1.74248,-0.327311,-2.73422
1480605918091627,-1.74246,-0.327344,-2.73429
1480605918112683,-1.74246,-0.327344,-2.73429
1480605918129226,-1.74247,-0.327437,-2.73437
1480605918157802,-1.74247,-0.327437,-2.73437
1480605918182368,-1.74246,-0.327344,-2.73429
1480605918189387,-1.74246,-0.327344,-2.73429
1480605918228491,-1.74246,-0.327344,-2.73429
1480605918233003,-1.7423,-0.327438,-2.73432
1480605918249046,-1.7423,-0.327438,-2.73432
1480605918277621,-1.7423,-0.327345,-2.73425
1480605918292661,-1.7423,-0.327345,-2.73425
1480605918316725,-1.74228,-0.327378,-2.73431
1480605918330261,-1.74228,-0.327378,-2.73431
1480605918352822,-1.74229,-0.327471,-2.73439
1480605918370869,-1.74228,-0.327378,-2.73431
1480605918393931,-1.74228,-0.327378,-2.73431
1480605918412982,-1.74228,-0.327378,-2.73431
1480605918436544,-1.74191,-0.327446,-2.73436
1480605918457600,-1.74198,-0.327622,-2.73435
1480605918505228,-1.74181,-0.327623,-2.73431
1480605918507733,-1.74175,-0.327539,-2.73439
1480605918513251,-1.74173,-0.327479,-2.73438
1480605918532800,-1.74173,-0.327479,-2.73438
1480605918550848,-1.74173,-0.327479,-2.73438
1480605918570400,-1.74173,-0.327479,-2.73438
1480605918599979,-1.74173,-0.327479,-2.73438
1480605918611008,-1.74173,-0.327479,-2.73438
1480605918630059,-1.74173,-0.327479,-2.73438
1480605918652619,-1.74173,-0.327479,-2.73438
1480605918685706,-1.74173,-0.327479,-2.73438
1480605918691723,-1.74173,-0.327479,-2.73438
1480605918712780,-1.74173,-0.327479,-2.73438
1480605918735340,-1.74173,-0.327479,-2.73438
1480605918750379,-1.74173,-0.327479,-2.73438
1480605918783467,-1.74173,-0.327479,-2.73438
1480605918794997,-1.74173,-0.327572,-2.73446
1480605918817557,-1.74173,-0.327479,-2.73438
1480605918834103,-1.74173,-0.327479,-2.73438
1480605918864182,-1.74166,-0.327396,-2.73446
1480605918870197,-1.74173,-0.327479,-2.73438
1480605918900278,-1.74173,-0.327479,-2.73438
1480605918926850,-1.74173,-0.327479,-2.73438
1480605918931862,-1.74166,-0.327396,-2.73446
1480605918968960,-1.74166,-0.327303,-2.73439
1480605918974978,-1.74166,-0.327303,-2.73439
1480605918998038,-1.74165,-0.327429,-2.73453
1480605919016086,-1.74173,-0.327479,-2.73438
1480605919050677,-1.74171,-0.327512,-2.73444
1480605919060705,-1.74164,-0.327336,-2.73445
1480605919072736,-1.74164,-0.327336,-2.73445
1480605919095296,-1.74164,-0.327336,-2.73445
1480605919111843,-1.74166,-0.327396,-2.73446
1480605919135403,-1.74173,-0.327479,-2.73438
1480605919157964,-1.74166,-0.327396,-2.73446
1480605919187542,-1.74166,-0.327303,-2.73439
1480605919201579,-1.74166,-0.327303,-2.73439
1480605919215115,-1.74166,-0.327396,-2.73446
1480605919241686,-1.74173,-0.327479,-2.73438
1480605919252715,-1.74173,-0.327479,-2.73438
1480605919275274,-1.74166,-0.327303,-2.73439
1480605919291819,-1.74166,-0.327303,-2.73439
1480605919323403,-1.74166,-0.327303,-2.73439
1480605919336939,-1.74191,-0.327446,-2.73436
1480605919351979,-1.74191,-0.327446,-2.73436
1480605919372534,-1.74191,-0.327353,-2.73428
1480605919395096,-1.74184,-0.32727,-2.73436
1480605919411638,-1.74211,-0.327379,-2.73427
1480605919435702,-1.74235,-0.327554,-2.7343
1480605919455254,-1.74235,-0.327554,-2.7343
1480605919481323,-1.74235,-0.327554,-2.7343
1480605919492854,-1.74235,-0.327554,-2.7343
1480605919515414,-1.74234,-0.327462,-2.73423
1480605919532962,-1.74237,-0.327521,-2.73424
1480605919560032,-1.74237,-0.327521,-2.73424
1480605919575072,-1.74237,-0.327521,-2.73424
1480605919593120,-1.74237,-0.327521,-2.73424
1480605919612673,-1.74237,-0.327521,-2.73424
1480605919636736,-1.74237,-0.327521,-2.73424
1480605919653280,-1.74237,-0.327521,-2.73424
1480605919673334,-1.74237,-0.327521,-2.73424
1480605919696897,-1.74237,-0.327521,-2.73424
1480605919713441,-1.74237,-0.327521,-2.73424
1480605919736502,-1.74237,-0.327521,-2.73424
1480605919758060,-1.74253,-0.32752,-2.73428
1480605919777612,-1.74255,-0.327487,-2.73422
1480605919800172,-1.74255,-0.327487,-2.73422
1480605919815212,-1.74255,-0.327487,-2.73422
1480605919833260,-1.74255,-0.327487,-2.73422
1480605919852811,-1.74271,-0.327394,-2.73418
1480605919875372,-1.74273,-0.327454,-2.73419
1480605919892918,-1.7428,-0.327537,-2.73411
1480605919913475,-1.7428,-0.327537,-2.73411
1480605919952075,-1.7428,-0.327537,-2.73411
1480605919960097,-1.7428,-0.327537,-2.73411
1480605919972631,-1.7428,-0.327537,-2.73411
1480605919995192,-1.74281,-0.327504,-2.73404
1480605920013741,-1.74281,-0.327504,-2.73404
1480605920035799,-1.74298,-0.327503,-2.73409
1480605920056854,-1.743,-0.32747,-2.73402
1480605920080419,-1.743,-0.32747,-2.73402
1480605920108993,-1.743,-0.32747,-2.73402
1480605920116514,-1.74307,-0.327647,-2.73401
1480605920133057,-1.74324,-0.327646,-2.73406
1480605920161634,-1.74324,-0.327646,-2.73406
1480605920175169,-1.74325,-0.32752,-2.73391
1480605920193217,-1.74325,-0.327613,-2.73399
1480605920214775,-1.74325,-0.327613,-2.73399
1480605920242849,-1.74321,-0.32778,-2.73378
1480605920267415,-1.74321,-0.32778,-2.73378
1480605920273932,-1.74331,-0.327604,-2.73383
1480605920311532,-1.74377,-0.327772,-2.73379
1480605920317548,-1.74379,-0.327739,-2.73372
1480605920336097,-1.74377,-0.327772,-2.73379
1480605920355148,-1.74377,-0.327772,-2.73379
1480605920377708,-1.74377,-0.327679,-2.73371
1480605920395757,-1.7437,-0.327596,-2.7338
1480605920422827,-1.7437,-0.327596,-2.7338
1480605920437868,-1.74396,-0.327738,-2.73376
1480605920455416,-1.74396,-0.327738,-2.73376
1480605920482487,-1.74404,-0.327788,-2.73361
1480605920498030,-1.74397,-0.327705,-2.7337
1480605920520087,-1.7437,-0.327503,-2.73372
1480605920535127,-1.7437,-0.327503,-2.73372
1480605920557687,-1.74377,-0.327679,-2.73371
1480605920588769,-1.74395,-0.327645,-2.73369
1480605920595289,-1.74395,-0.327645,-2.73369
1480605920619351,-1.74394,-0.327553,-2.73361
1480605920637903,-1.74394,-0.327553,-2.73361
1480605920656450,-1.74413,-0.327519,-2.73359
1480605920677505,-1.74413,-0.327612,-2.73367
1480605920695554,-1.74413,-0.327612,-2.73367
1480605920715106,-1.74413,-0.327519,-2.73359
1480605920737666,-1.74431,-0.327485,-2.73357
1480605920756716,-1.74431,-0.327485,-2.73357
1480605920775265,-1.74431,-0.327485,-2.73357
1480605920797827,-1.74432,-0.327578,-2.73364
1480605920822892,-1.74432,-0.327578,-2.73364
1480605920836930,-1.74433,-0.327452,-2.7335
1480605920865508,-1.74433,-0.327452,-2.7335
1480605920875533,-1.74433,-0.327545,-2.73358
1480605920896590,-1.7444,-0.327628,-2.73349
1480605920917645,-1.74457,-0.327627,-2.73354
1480605920936696,-1.74458,-0.327594,-2.73347
1480605920955244,-1.74458,-0.327594,-2.73347
1480605920977806,-1.74458,-0.327594,-2.73347
1480605920995853,-1.74458,-0.327594,-2.73347
1480605921016407,-1.74458,-0.327594,-2.73347
1480605921037464,-1.74458,-0.327594,-2.73347
1480605921055512,-1.7443,-0.3273,-2.73341
1480605921077068,-1.7443,-0.3273,-2.73341
1480605921097624,-1.74414,-0.327393,-2.73345
1480605921115672,-1.74414,-0.327393,-2.73345
1480605921144247,-1.74437,-0.327476,-2.73341
1480605921157783,-1.74378,-0.327141,-2.73362
1480605921188866,-1.74344,-0.326763,-2.73365
1480605921196888,-1.74344,-0.326763,-2.73365
1480605921217943,-1.74344,-0.326856,-2.73372
1480605921235490,-1.74352,-0.326906,-2.73357
1480605921258050,-1.74352,-0.326906,-2.73357
1480605921279109,-1.74352,-0.326906,-2.73357
1480605921303171,-1.74352,-0.326906,-2.73357
1480605921318210,-1.74352,-0.326906,-2.73357
1480605921337766,-1.74316,-0.327066,-2.73369
1480605921355810,-1.74316,-0.327066,-2.73369
1480605921378371,-1.74316,-0.327066,-2.73369
1480605921397927,-1.74316,-0.327066,-2.73369
1480605921424994,-1.74333,-0.327066,-2.73374
1480605921460087,-1.74333,-0.327066,-2.73374
1480605921466605,-1.74334,-0.327033,-2.73367
1480605921475629,-1.74334,-0.327033,-2.73367
1480605921507213,-1.74334,-0.327033,-2.73367
1480605921519245,-1.74334,-0.32694,-2.73359
1480605921550829,-1.74334,-0.32694,-2.73359
1480605921558349,-1.74353,-0.326999,-2.73365
1480605921577399,-1.74359,-0.327082,-2.73356
1480605921599962,-1.74359,-0.327082,-2.73356
1480605921618007,-1.74353,-0.326999,-2.73365
1480605921639064,-1.74359,-0.327082,-2.73356
1480605921656109,-1.74359,-0.327082,-2.73356
1480605921679174,-1.7436,-0.327175,-2.73364
1480605921700728,-1.7436,-0.327175,-2.73364
1480605921715769,-1.74359,-0.327082,-2.73356
1480605921745347,-1.74359,-0.327082,-2.73356
1480605921757879,-1.74359,-0.327082,-2.73356
1480605921782946,-1.7436,-0.327175,-2.73364
1480605921797989,-1.7436,-0.327175,-2.73364
1480605921817538,-1.7436,-0.327175,-2.73364
1480605921840099,-1.74359,-0.327082,-2.73356
1480605921858146,-1.74359,-0.327082,-2.73356
1480605921880708,-1.74303,-0.327091,-2.73355
1480605921900259,-1.74304,-0.327184,-2.73363
1480605921918307,-1.74304,-0.327184,-2.73363
1480605921937860,-1.74304,-0.327184,-2.73363
1480605921960418,-1.74303,-0.327091,-2.73355
1480605921979471,-1.74304,-0.327184,-2.73363
1480605922000526,-1.74304,-0.327184,-2.73363
1480605922024088,-1.74306,-0.327151,-2.73356
1480605922045647,-1.74322,-0.32715,-2.73361
1480605922059182,-1.74306,-0.327151,-2.73356
1480605922080239,-1.74304,-0.327184,-2.73363
1480605922104301,-1.74322,-0.32715,-2.73361
1480605922119342,-1.74329,-0.327233,-2.73352
1480605922140398,-1.74329,-0.327233,-2.73352
1480605922158946,-1.74284,-0.327158,-2.73364
1480605922179510,-1.74277,-0.327074,-2.73373
1480605922207576,-1.74277,-0.327074,-2.73373
1480605922233144,-1.7426,-0.327075,-2.73368
1480605922239160,-1.74284,-0.327158,-2.73364
1480605922260216,-1.74284,-0.327158,-2.73364
1480605922279269,-1.74277,-0.327074,-2.73373
1480605922300825,-1.74277,-0.327074,-2.73373
1480605922321880,-1.74277,-0.327074,-2.73373
1480605922338926,-1.74267,-0.327159,-2.7336
1480605922360483,-1.74267,-0.327159,-2.7336
1480605922380039,-1.7426,-0.327075,-2.73368
1480605922398083,-1.7426,-0.327075,-2.73368
1480605922421144,-1.7426,-0.327075,-2.73368
1480605922440195,-1.74267,-0.327159,-2.7336
1480605922462757,-1.74267,-0.327159,-2.7336
1480605922481304,-1.74267,-0.327159,-2.7336
1480605922500355,-1.7426,-0.327075,-2.73368
1480605922517902,-1.74259,-0.327108,-2.73375
1480605922540462,-1.7426,-0.327075,-2.73368
1480605922560013,-1.74265,-0.327192,-2.73366
1480605922578563,-1.74265,-0.327192,-2.73366
1480605922602127,-1.74259,-0.327108,-2.73375
1480605922623182,-1.74259,-0.327108,-2.73375
1480605922639224,-1.74259,-0.327108,-2.73375
1480605922666798,-1.74265,-0.327192,-2.73366
1480605922680336,-1.74265,-0.327192,-2.73366
1480605922698884,-1.74265,-0.327192,-2.73366
1480605922720440,-1.74259,-0.327108,-2.73375
1480605922747512,-1.74259,-0.327108,-2.73375
1480605922764057,-1.74259,-0.327108,-2.73375
1480605922788120,-1.74265,-0.327192,-2.73366
1480605922807673,-1.74266,-0.327284,-2.73374
1480605922818201,-1.74266,-0.327284,-2.73374
1480605922855299,-1.74265,-0.327192,-2.73366
1480605922860314,-1.74259,-0.327108,-2.73375
1480605922877860,-1.74259,-0.327108,-2.73375
1480605922900420,-1.74249,-0.327285,-2.7337
1480605922929000,-1.74249,-0.327285,-2.7337
1480605922945540,-1.7424,-0.327142,-2.73377
1480605922960579,-1.7424,-0.327142,-2.73377
1480605922981636,-1.7424,-0.327142,-2.73377
1480605922998180,-1.74247,-0.327318,-2.73376
1480605923020739,-1.74247,-0.327318,-2.73376
1480605923041796,-1.74247,-0.327318,-2.73376
1480605923087417,-1.74241,-0.327234,-2.73385
1480605923089423,-1.7424,-0.327142,-2.73377
1480605923108974,-1.74223,-0.327143,-2.73373
1480605923117998,-1.74224,-0.327235,-2.7338
1480605923140558,-1.74223,-0.327143,-2.73373
1480605923167631,-1.74222,-0.327176,-2.73379
1480605923178159,-1.74222,-0.327176,-2.73379
1480605923222276,-1.74222,-0.327176,-2.73379
1480605923225284,-1.74222,-0.327176,-2.73379
1480605923244336,-1.74222,-0.327176,-2.73379
1480605923267897,-1.74222,-0.327176,-2.73379
1480605923282937,-1.74222,-0.327176,-2.73379
1480605923303993,-1.74222,-0.327176,-2.73379
1480605923320537,-1.74203,-0.32721,-2.73381
1480605923343097,-1.74204,-0.327302,-2.73389
1480605923362651,-1.74204,-0.327302,-2.73389
1480605923409775,-1.74203,-0.32721,-2.73381
1480605923411279,-1.74197,-0.327126,-2.7339
1480605923422809,-1.74197,-0.327126,-2.7339
1480605923455396,-1.74203,-0.32721,-2.73381
1480605923462916,-1.74204,-0.327302,-2.73389
1480605923482968,-1.74204,-0.327302,-2.73389
1480605923500516,-1.74202,-0.327242,-2.73388
1480605923523076,-1.74195,-0.327159,-2.73396
1480605923542628,-1.74202,-0.327242,-2.73388
1480605923565188,-1.74202,-0.327335,-2.73396
1480605923598778,-1.74186,-0.327336,-2.73391
1480605923602790,-1.74186,-0.327336,-2.73391
1480605923642393,-1.74185,-0.327243,-2.73384
1480605923647908,-1.74179,-0.32716,-2.73392
1480605923688014,-1.74179,-0.327252,-2.734
1480605923690020,-1.74186,-0.327336,-2.73391
1480605923733134,-1.74184,-0.327369,-2.73398
1480605923735140,-1.74184,-0.327369,-2.73398
1480605923741157,-1.74178,-0.327285,-2.73406
1480605923777754,-1.74184,-0.327369,-2.73398
1480605923783268,-1.74184,-0.327369,-2.73398
1480605923799812,-1.74184,-0.327369,-2.73398
1480605923830394,-1.74178,-0.327285,-2.73406
1480605923842926,-1.7416,-0.327194,-2.73394
1480605923860976,-1.7416,-0.327194,-2.73394
1480605923883034,-1.7416,-0.327194,-2.73394
1480605923903588,-1.74161,-0.327286,-2.73402
1480605923921135,-1.74167,-0.32737,-2.73394
1480605923942191,-1.74161,-0.327286,-2.73402
1480605923964751,-1.74161,-0.327286,-2.73402
1480605924011375,-1.74159,-0.327319,-2.73409
1480605924016390,-1.74159,-0.327319,-2.73409
1480605924023908,-1.74166,-0.327403,-2.734
1480605924039951,-1.74167,-0.32737,-2.73394
1480605924062513,-1.74159,-0.327319,-2.73409
1480605924083566,-1.74159,-0.327319,-2.73409
1480605924107130,-1.74159,-0.327319,-2.73409
1480605924122175,-1.74159,-0.327319,-2.73409
1480605924150746,-1.74159,-0.327319,-2.73409
1480605924173306,-1.74159,-0.327319,-2.73409
1480605924182329,-1.74159,-0.327227,-2.73401
1480605924204892,-1.74159,-0.327227,-2.73401
1480605924242991,-1.74159,-0.327227,-2.73401
1480605924246502,-1.74159,-0.327319,-2.73409
1480605924287610,-1.74159,-0.327319,-2.73409
1480605924290117,-1.74159,-0.327319,-2.73409
1480605924303151,-1.74159,-0.327227,-2.73401
1480605924325210,-1.74142,-0.327227,-2.73397
1480605924339247,-1.74142,-0.32732,-2.73404
1480605924362310,-1.74142,-0.32732,-2.73404
1480605924384869,-1.74142,-0.32732,-2.73404
1480605924407429,-1.7414,-0.32726,-2.73403
1480605924422469,-1.7414,-0.32726,-2.73403
1480605924451546,-1.74142,-0.327227,-2.73397
1480605924473103,-1.74142,-0.32732,-2.73404
1480605924482127,-1.74142,-0.32732,-2.73404
1480605924519728,-1.7414,-0.32726,-2.73403
1480605924522234,-1.74134,-0.327177,-2.73412
1480605924557327,-1.74134,-0.327177,-2.73412
1480605924564848,-1.7414,-0.32726,-2.73403
1480605924586405,-1.74193,-0.327604,-2.73398
1480605924602447,-1.74193,-0.327604,-2.73398
1480605924625007,-1.74193,-0.327604,-2.73398
1480605924639045,-1.74193,-0.327604,-2.73398
1480605924662114,-1.74258,-0.327739,-2.73392
1480605924685668,-1.74304,-0.327907,-2.73388
1480605924705722,-1.74304,-0.327907,-2.73388
1480605924723269,-1.74303,-0.327814,-2.7338
1480605924750841,-1.74297,-0.327731,-2.73388
1480605924765382,-1.74297,-0.327731,-2.73388
1480605924799472,-1.74303,-0.327814,-2.7338
1480605924804986,-1.74304,-0.327907,-2.73388
1480605924844592,-1.74304,-0.327907,-2.73388
1480605924849104,-1.74304,-0.327907,-2.73388
1480605924864645,-1.7432,-0.327906,-2.73392
1480605924885701,-1.7432,-0.327906,-2.73392
1480605924902245,-1.7432,-0.327906,-2.73392
1480605924924805,-1.74304,-0.327907,-2.73388
1480605924945865,-1.7432,-0.327906,-2.73392
1480605924962405,-1.7432,-0.327906,-2.73392
1480605924985471,-1.7432,-0.327906,-2.73392
1480605925006021,-1.74322,-0.327873,-2.73385
1480605925022064,-1.74322,-0.327873,-2.73385
1480605925065681,-1.74322,-0.327873,-2.73385
1480605925076709,-1.74321,-0.32778,-2.73378
1480605925082224,-1.74321,-0.32778,-2.73378
1480605925120827,-1.74321,-0.32778,-2.73378
1480605925125839,-1.74338,-0.32778,-2.73382
1480605925143386,-1.74338,-0.32778,-2.73382
1480605925165446,-1.7434,-0.327747,-2.73375
1480605925195026,-1.7434,-0.327747,-2.73375
1480605925210565,-1.7434,-0.327747,-2.73375
1480605925225605,-1.7434,-0.327747,-2.73375
1480605925263707,-1.7434,-0.327747,-2.73375
1480605925268218,-1.7434,-0.327747,-2.73375
1480605925284762,-1.7434,-0.327747,-2.73375
1480605925307323,-1.7434,-0.327747,-2.73375
1480605925345428,-1.74357,-0.327746,-2.7338
1480605925347930,-1.74358,-0.327713,-2.73373
1480605925367483,-1.74365,-0.327889,-2.73372
1480605925389541,-1.74358,-0.327713,-2.73373
1480605925404582,-1.74358,-0.327713,-2.73373
1480605925434661,-1.74421,-0.327569,-2.73344
1480605925441681,-1.74474,-0.327821,-2.73331
1480605925473264,-1.74533,-0.328156,-2.7331
1480605925487305,-1.74533,-0.328156,-2.7331
1480605925501338,-1.74533,-0.328156,-2.7331
1480605925538939,-1.74533,-0.328156,-2.7331
1480605925547461,-1.74622,-0.328339,-2.73293
1480605925569520,-1.74687,-0.328474,-2.73286
1480605925584560,-1.74693,-0.328557,-2.73278
1480605925607120,-1.74687,-0.328474,-2.73286
1480605925629680,-1.74687,-0.328474,-2.73286
1480605925644720,-1.74686,-0.328381,-2.73279
1480605925667281,-1.74686,-0.328381,-2.73279
1480605925687835,-1.74688,-0.328441,-2.7328
1480605925706885,-1.74705,-0.32844,-2.73284
1480605925728449,-1.74704,-0.328347,-2.73277
1480605925747996,-1.74704,-0.328347,-2.73277
1480605925773062,-1.74706,-0.328314,-2.7327
1480605925794619,-1.74689,-0.328724,-2.73257
1480605925817179,-1.7469,-0.328817,-2.73264
1480605925825201,-1.74735,-0.328892,-2.73252
1480605925847760,-1.74735,-0.328892,-2.73252
1480605925868315,-1.74752,-0.328799,-2.73249
1480605925884859,-1.74752,-0.328892,-2.73257
1480605925907420,-1.74752,-0.328892,-2.73257
1480605925929979,-1.74752,-0.328892,-2.73257
1480605925946027,-1.74754,-0.328858,-2.7325
1480605925974599,-1.74754,-0.328858,-2.7325
1480605925988134,-1.74753,-0.328766,-2.73243
1480605926004678,-1.74754,-0.328858,-2.7325
1480605926027238,-1.7476,-0.328942,-2.73242
1480605926049798,-1.74779,-0.328908,-2.73239
1480605926064337,-1.74779,-0.328908,-2.73239
1480605926096423,-1.74771,-0.328858,-2.73255
1480605926126502,-1.74772,-0.328825,-2.73248
1480605926138534,-1.74779,-0.328908,-2.73239
1480605926147056,-1.74779,-0.328908,-2.73239
1480605926170118,-1.74779,-0.328908,-2.73239
1480605926184656,-1.7478,-0.328875,-2.73233
1480605926207217,-1.74797,-0.328874,-2.73237
1480605926229777,-1.74797,-0.328874,-2.73237
1480605926252337,-1.74797,-0.328874,-2.73237
1480605926267377,-1.74799,-0.328841,-2.73231
1480605926289938,-1.74799,-0.328841,-2.73231
1480605926303975,-1.74797,-0.328874,-2.73237
1480605926327538,-1.74799,-0.328841,-2.73231
1480605926373660,-1.74868,-0.329091,-2.73222
1480605926378679,-1.74871,-0.329151,-2.73223
1480605926402236,-1.7487,-0.329058,-2.73216
1480605926409756,-1.7487,-0.329058,-2.73216
1480605926424294,-1.74868,-0.329091,-2.73222
1480605926447356,-1.7487,-0.329058,-2.73216
1480605926470417,-1.74868,-0.329091,-2.73222
1480605926483953,-1.74868,-0.329091,-2.73222
1480605926507014,-1.74868,-0.329091,-2.73222
1480605926544617,-1.7487,-0.329058,-2.73216
1480605926547121,-1.7487,-0.329058,-2.73216
1480605926567174,-1.74871,-0.329151,-2.73223
1480605926605277,-1.74871,-0.329151,-2.73223
1480605926650396,-1.74871,-0.329151,-2.73223
1480605926652902,-1.74871,-0.329151,-2.73223
1480605926663430,-1.74887,-0.329058,-2.7322
1480605926670449,-1.74871,-0.329151,-2.73223
1480605926687495,-1.74887,-0.329151,-2.73228
1480605926717074,-1.74887,-0.329151,-2.73228
1480605926730609,-1.74887,-0.329058,-2.7322
1480605926747154,-1.74887,-0.329058,-2.7322
1480605926769713,-1.74888,-0.329025,-2.73214
1480605926792774,-1.74888,-0.329025,-2.73214
1480605926807314,-1.74895,-0.329201,-2.73213
1480605926830877,-1.74895,-0.329201,-2.73213
1480605926850428,-1.74888,-0.329025,-2.73214
1480605926881008,-1.74888,-0.329025,-2.73214
1480605926928136,-1.74888,-0.329025,-2.73214
1480605926930641,-1.74895,-0.329201,-2.73213
1480605926951196,-1.74895,-0.329201,-2.73213
1480605926970748,-1.74888,-0.329025,-2.73214
1480605926986791,-1.74888,-0.329025,-2.73214
1480605927009852,-1.74895,-0.329201,-2.73213
1480605927030407,-1.74858,-0.329175,-2.73209
1480605927047452,-1.74858,-0.329175,-2.73209
1480605927069511,-1.74858,-0.329175,-2.73209
1480605927092071,-1.74907,-0.329084,-2.73219
1480605927108113,-1.74907,-0.329084,-2.73219
1480605927161256,-1.74914,-0.329167,-2.7321
1480605927167270,-1.74843,-0.328949,-2.73225
1480605927169777,-1.74843,-0.328949,-2.73225
1480605927204871,-1.74843,-0.328949,-2.73225
1480605927212391,-1.74843,-0.328949,-2.73225
1480605927227431,-1.74843,-0.328949,-2.73225
1480605927250492,-1.74843,-0.329042,-2.73233
1480605927272050,-1.74843,-0.329042,-2.73233
1480605927286587,-1.74843,-0.328949,-2.73225
1480605927317169,-1.7478,-0.328875,-2.73233
1480605927333213,-1.74781,-0.328968,-2.73241
1480605927346749,-1.74787,-0.329051,-2.73232
1480605927376828,-1.74787,-0.329051,-2.73232
1480605927392370,-1.74787,-0.329051,-2.73232
1480605927438492,-1.7478,-0.328875,-2.73233
1480605927443505,-1.7478,-0.328875,-2.73233
1480605927452028,-1.7478,-0.328875,-2.73233
1480605927467068,-1.74787,-0.329051,-2.73232
1480605927489629,-1.74787,-0.329051,-2.73232
1480605927520210,-1.7478,-0.328875,-2.73233
1480605927533246,-1.7478,-0.328875,-2.73233
1480605927549788,-1.7478,-0.328875,-2.73233
1480605927573352,-1.7478,-0.328875,-2.73233
1480605927593404,-1.74779,-0.329001,-2.73247
1480605927617469,-1.74779,-0.328908,-2.73239
1480605927662589,-1.74779,-0.328908,-2.73239
1480605927665095,-1.74779,-0.328908,-2.73239
1480605927671111,-1.74779,-0.328908,-2.73239
1480605927692167,-1.74763,-0.329001,-2.73243
1480605927716232,-1.74763,-0.329001,-2.73243
1480605927730770,-1.74763,-0.329001,-2.73243
1480605927752828,-1.74762,-0.328909,-2.73235
1480605927772882,-1.74762,-0.328909,-2.73235
1480605927806973,-1.7476,-0.328942,-2.73242
1480605927812487,-1.74761,-0.329035,-2.73249
1480605927850087,-1.7476,-0.328942,-2.73242
1480605927852594,-1.7476,-0.328942,-2.73242
1480605927873149,-1.74754,-0.328858,-2.7325
1480605927894711,-1.74754,-0.328858,-2.7325
1480605927941330,-1.74754,-0.328858,-2.7325
1480605927946344,-1.74754,-0.328858,-2.7325
1480605927953362,-1.74752,-0.328799,-2.73249
1480605927992968,-1.74735,-0.3288,-2.73245
1480605927995475,-1.74735,-0.3288,-2.73245
1480605928021042,-1.74735,-0.3288,-2.73245
1480605928039592,-1.74735,-0.328892,-2.73252
1480605928058141,-1.74735,-0.328892,-2.73252
1480605928082204,-1.74735,-0.328892,-2.73252
1480605928089725,-1.74727,-0.328749,-2.7326
1480605928112786,-1.74733,-0.328833,-2.73251
1480605928134852,-1.74717,-0.328926,-2.73255
1480605928148882,-1.74715,-0.328959,-2.73261
1480605928173949,-1.74708,-0.328783,-2.73262
1480605928218567,-1.74708,-0.328783,-2.73262
1480605928223079,-1.74708,-0.328783,-2.73262
1480605928256168,-1.74708,-0.328783,-2.73262
1480605928269704,-1.74708,-0.328783,-2.73262
1480605928272210,-1.7469,-0.328817,-2.73264
1480605928300786,-1.74683,-0.328734,-2.73273
1480605928315828,-1.74683,-0.328641,-2.73265
1480605928329364,-1.74683,-0.328641,-2.73265
1480605928352925,-1.74683,-0.328734,-2.73273
1480605928374483,-1.74682,-0.328767,-2.73279
1480605928389523,-1.74665,-0.328768,-2.73275
1480605928412084,-1.74664,-0.328675,-2.73267
1480605928442164,-1.74664,-0.328675,-2.73267
1480605928449182,-1.74663,-0.328708,-2.73274
1480605928472243,-1.74663,-0.328801,-2.73282
1480605928495305,-1.74663,-0.328801,-2.73282
1480605928515858,-1.74646,-0.328801,-2.73277
1480605928540424,-1.74638,-0.328658,-2.73285
1480605928554963,-1.74638,-0.328658,-2.73285
1480605928584542,-1.74638,-0.328658,-2.73285
1480605928592062,-1.74645,-0.328834,-2.73284
1480605928631166,-1.74628,-0.328835,-2.73279
1480605928635683,-1.74619,-0.328692,-2.73287
1480605928652221,-1.74619,-0.328692,-2.73287
1480605928675283,-1.74619,-0.328692,-2.73287
1480605928703357,-1.74619,-0.328692,-2.73287
1480605928727422,-1.74618,-0.328725,-2.73293
1480605928734941,-1.74601,-0.328726,-2.73289
1480605928773043,-1.74594,-0.328643,-2.73298
1480605928775048,-1.74594,-0.328643,-2.73298
1480605928794602,-1.74593,-0.328676,-2.73304
1480605928832702,-1.74593,-0.328676,-2.73304
1480605928835209,-1.74632,-0.328668,-2.73301
1480605928862782,-1.7463,-0.328608,-2.733
1480605928875816,-1.7463,-0.328608,-2.733
1480605928892861,-1.7463,-0.328608,-2.733
1480605928914921,-1.74613,-0.328609,-2.73295
1480605928936980,-1.74613,-0.328609,-2.73295
1480605928960541,-1.74605,-0.328559,-2.7331
1480605929005160,-1.74605,-0.328559,-2.7331
1480605929007667,-1.74586,-0.328592,-2.73313
1480605929014685,-1.74586,-0.328592,-2.73313
1480605929042259,-1.74586,-0.328592,-2.73313
1480605929057299,-1.74586,-0.328592,-2.73313
1480605929071336,-1.74586,-0.328592,-2.73313
1480605929094899,-1.74561,-0.32845,-2.73316
1480605929117960,-1.74561,-0.32845,-2.73316
1480605929131498,-1.74568,-0.328626,-2.73315
1480605929154557,-1.74566,-0.328659,-2.73321
1480605929183133,-1.74543,-0.328577,-2.73326
1480605929191658,-1.74543,-0.328577,-2.73326
1480605929225748,-1.74542,-0.328484,-2.73318
1480605929237278,-1.74542,-0.328484,-2.73318
1480605929251317,-1.74542,-0.328484,-2.73318
1480605929274878,-1.74542,-0.328484,-2.73318
1480605929303454,-1.74534,-0.328434,-2.73333
1480605929319497,-1.74534,-0.328434,-2.73333
1480605929334537,-1.74534,-0.328434,-2.73333
1480605929373641,-1.74541,-0.328517,-2.73324
1480605929378655,-1.74541,-0.328517,-2.73324
1480605929394703,-1.74534,-0.328434,-2.73333
1480605929417257,-1.74534,-0.328434,-2.73333
1480605929445833,-1.74532,-0.328374,-2.73332
1480605929455359,-1.74516,-0.328467,-2.73335
1480605929477417,-1.74516,-0.328467,-2.73335
1480605929497972,-1.74516,-0.328467,-2.73335
1480605929514516,-1.74516,-0.328467,-2.73335
1480605929537075,-1.74509,-0.328291,-2.73336
1480605929558131,-1.74507,-0.328324,-2.73343
1480605929574676,-1.74507,-0.328324,-2.73343
1480605929598238,-1.74507,-0.328324,-2.73343
1480605929618291,-1.74507,-0.328324,-2.73343
1480605929649875,-1.7449,-0.328325,-2.73338
1480605929657395,-1.7449,-0.328325,-2.73338
1480605929685972,-1.7449,-0.328325,-2.73338
1480605929694999,-1.7449,-0.328325,-2.73338
1480605929733598,-1.74489,-0.328358,-2.73345
1480605929739615,-1.74489,-0.328358,-2.73345
1480605929754654,-1.74482,-0.328182,-2.73346
1480605929784735,-1.74526,-0.328383,-2.73348
1480605929798273,-1.74526,-0.328383,-2.73348
1480605929814815,-1.74526,-0.328383,-2.73348
1480605929837877,-1.74509,-0.328384,-2.73344
1480605929858430,-1.74503,-0.328301,-2.73352
1480605929874473,-1.74501,-0.328241,-2.73351
1480605929897033,-1.74501,-0.328241,-2.73351
1480605929920094,-1.74501,-0.328334,-2.73359
1480605929934633,-1.74508,-0.328417,-2.7335
1480605929957694,-1.74484,-0.328334,-2.73354
1480605929979753,-1.74501,-0.328241,-2.73351
1480605929994794,-1.74501,-0.328241,-2.73351
1480605930017353,-1.74501,-0.328334,-2.73359
1480605930040414,-1.74501,-0.328334,-2.73359
1480605930061473,-1.74501,-0.328334,-2.73359
1480605930077516,-1.74482,-0.328275,-2.73353
1480605930107092,-1.74482,-0.328275,-2.73353
1480605930114110,-1.74476,-0.328191,-2.73362
1480605930137172,-1.74476,-0.328191,-2.73362
1480605930159732,-1.74476,-0.328191,-2.73362
1480605930174270,-1.74474,-0.328224,-2.73368
1480605930199337,-1.74474,-0.328132,-2.73361
1480605930219892,-1.74474,-0.328132,-2.73361
1480605930242452,-1.74474,-0.328132,-2.73361
1480605930256991,-1.74457,-0.328132,-2.73356
1480605930287070,-1.74457,-0.328132,-2.73356
1480605930294093,-1.74449,-0.328082,-2.73371
1480605930317151,-1.74449,-0.328082,-2.73371
1480605930340715,-1.74449,-0.328082,-2.73371
1480605930354249,-1.74449,-0.328082,-2.73371
1480605930383327,-1.74449,-0.328082,-2.73371
1480605930399871,-1.74449,-0.328082,-2.73371
1480605930428447,-1.74447,-0.328022,-2.7337
1480605930437471,-1.7444,-0.327939,-2.73379
1480605930473065,-1.74423,-0.32794,-2.73375
1480605930483593,-1.7443,-0.328116,-2.73374
1480605930497131,-1.7443,-0.328116,-2.73374
1480605930519689,-1.74423,-0.32794,-2.73375
1480605930540745,-1.74423,-0.32794,-2.73375
1480605930556788,-1.74422,-0.327973,-2.73381
1480605930579850,-1.74422,-0.327973,-2.73381
1480605930602410,-1.74422,-0.327973,-2.73381
1480605930617450,-1.74422,-0.327973,-2.73381
1480605930639508,-1.74405,-0.327974,-2.73377
1480605930660565,-1.74398,-0.327798,-2.73378
1480605930677109,-1.74397,-0.327923,-2.73392
1480605930707188,-1.74431,-0.328209,-2.73381
1480605930720724,-1.74487,-0.3282,-2.73382
1480605930737269,-1.7447,-0.328201,-2.73378
1480605930760330,-1.74461,-0.328058,-2.73385
1480605930780884,-1.74461,-0.328058,-2.73385
1480605930797429,-1.74461,-0.328058,-2.73385
1480605930819487,-1.74468,-0.328234,-2.73385
1480605930848063,-1.74462,-0.32815,-2.73393
1480605930857087,-1.74498,-0.32799,-2.73381
1480605930879647,-1.74498,-0.32799,-2.73381
1480605930902208,-1.74498,-0.32799,-2.73381
1480605930917247,-1.74498,-0.32799,-2.73381
1480605930939807,-1.74498,-0.32799,-2.73381
1480605930969887,-1.7448,-0.328024,-2.73383
1480605930992447,-1.7448,-0.328024,-2.73383
1480605930999967,-1.74508,-0.327813,-2.73386
1480605931030049,-1.74491,-0.327814,-2.73382
1480605931036565,-1.74491,-0.327814,-2.73382
1480605931059626,-1.74485,-0.327731,-2.7339
1480605931082186,-1.74485,-0.327731,-2.7339
1480605931096725,-1.74483,-0.327764,-2.73397
1480605931127307,-1.7452,-0.327696,-2.73392
1480605931142347,-1.7452,-0.327696,-2.73392
1480605931163904,-1.7452,-0.327696,-2.73392
1480605931179947,-1.7452,-0.327696,-2.73392
1480605931202004,-1.7452,-0.327696,-2.73392
1480605931216543,-1.7452,-0.327696,-2.73392
1480605931240107,-1.74503,-0.327697,-2.73388
1480605931262666,-1.74503,-0.327697,-2.73388
1480605931276703,-1.74503,-0.327697,-2.73388
1480605931314805,-1.74503,-0.327697,-2.73388
1480605931322326,-1.7452,-0.327696,-2.73392
1480605931350908,-1.74503,-0.327697,-2.73388
1480605931367444,-1.74503,-0.327697,-2.73388
1480605931390005,-1.74503,-0.327697,-2.73388
1480605931403040,-1.74503,-0.327697,-2.73388
1480605931419584,-1.7452,-0.327696,-2.73392
1480605931442644,-1.7452,-0.327696,-2.73392
1480605931464202,-1.7452,-0.327696,-2.73392
1480605931479743,-1.7452,-0.327696,-2.73392
1480605931502304,-1.7452,-0.327696,-2.73392
1480605931523360,-1.74521,-0.327663,-2.73386
1480605931539904,-1.74565,-0.327679,-2.73373
1480605931562965,-1.74565,-0.327679,-2.73373
1480605931593045,-1.74565,-0.327679,-2.73373
1480605931599562,-1.74565,-0.327679,-2.73373
1480605931622122,-1.74636,-0.327897,-2.73358
1480605931643178,-1.74636,-0.327897,-2.73358
1480605931659724,-1.74635,-0.327804,-2.7335
1480605931689802,-1.74635,-0.327804,-2.7335
1480605931710859,-1.74636,-0.327897,-2.73358
1480605931727402,-1.74637,-0.327864,-2.73352
1480605931743949,-1.74635,-0.327804,-2.7335
1480605931764501,-1.74681,-0.32788,-2.73339
1480605931779542,-1.74699,-0.327846,-2.73336
1480605931802101,-1.74706,-0.327929,-2.73328
1480605931832229,-1.74689,-0.328023,-2.73331
1480605931840704,-1.74706,-0.328022,-2.73336
1480605931862762,-1.74706,-0.328022,-2.73336
1480605931884821,-1.74762,-0.327795,-2.73315
1480605931907381,-1.74762,-0.327795,-2.73315
1480605931922421,-1.74763,-0.327888,-2.73322
1480605931944480,-1.7477,-0.327971,-2.73314
1480605931959019,-1.74763,-0.327888,-2.73322
1480605931988096,-1.74763,-0.327888,-2.73322
1480605932004640,-1.74762,-0.327795,-2.73315
1480605932019178,-1.74762,-0.327795,-2.73315
1480605932042240,-1.74834,-0.328013,-2.733
1480605932065301,-1.74834,-0.328013,-2.733
1480605932102901,-1.74833,-0.32792,-2.73292
1480605932105408,-1.74833,-0.32792,-2.73292
1480605932125461,-1.74833,-0.32792,-2.73292
1480605932140504,-1.74834,-0.328013,-2.733
1480605932162059,-1.74834,-0.328013,-2.733
1480605932192640,-1.74834,-0.328013,-2.733
1480605932199157,-1.74833,-0.32792,-2.73292
1480605932222720,-1.7485,-0.327919,-2.73297
1480605932246784,-1.74851,-0.327886,-2.7329
1480605932258816,-1.74852,-0.327979,-2.73298
1480605932282378,-1.74852,-0.327979,-2.73298
1480605932304938,-1.74851,-0.327886,-2.7329
1480605932333515,-1.74851,-0.327886,-2.7329
1480605932342037,-1.74851,-0.327886,-2.7329
1480605932370613,-1.7487,-0.327852,-2.73288
1480605932388160,-1.74877,-0.328028,-2.73287
1480605932418240,-1.7486,-0.328029,-2.73283
1480605932424757,-1.7486,-0.328029,-2.73283
1480605932445818,-1.74915,-0.327928,-2.73276
1480605932462357,-1.74932,-0.327927,-2.7328
1480605932484918,-1.74934,-0.327987,-2.73281
1480605932505973,-1.74934,-0.327987,-2.73281
1480605932522016,-1.74932,-0.327927,-2.7328
1480605932546080,-1.74932,-0.327927,-2.7328
1480605932565633,-1.74926,-0.327844,-2.73289
1480605932582176,-1.74934,-0.327894,-2.73274
1480605932604736,-1.74934,-0.327894,-2.73274
1480605932625292,-1.74952,-0.32786,-2.73272
1480605932642336,-1.74952,-0.32786,-2.73272
1480605932664898,-1.74951,-0.327893,-2.73278
1480605932702998,-1.74952,-0.32786,-2.73272
1480605932705003,-1.74952,-0.32786,-2.73272
1480605932724555,-1.74959,-0.327943,-2.73263
1480605932747115,-1.74952,-0.32786,-2.73272
1480605932762155,-1.74952,-0.32786,-2.73272
1480605932784715,-1.74952,-0.32786,-2.73272
1480605932807277,-1.74952,-0.32786,-2.73272
1480605932822316,-1.74952,-0.32786,-2.73272
1480605932846380,-1.74952,-0.32786,-2.73272
1480605932867436,-1.74952,-0.32786,-2.73272
1480605932881473,-1.74969,-0.327766,-2.73268
1480605932912054,-1.74969,-0.327766,-2.73268
1480605932927595,-1.74971,-0.327826,-2.73269
1480605932948150,-1.74971,-0.327826,-2.73269
1480605932972214,-1.74971,-0.327826,-2.73269
1480605932987254,-1.74971,-0.327826,-2.73269
1480605933002294,-1.7497,-0.327733,-2.73262
1480605933024854,-1.7497,-0.327733,-2.73262
1480605933048416,-1.74971,-0.327826,-2.73269
1480605933061451,-1.74971,-0.327826,-2.73269
1480605933084512,-1.74972,-0.327793,-2.73263
1480605933122615,-1.74989,-0.3277,-2.7326
1480605933125121,-1.74989,-0.3277,-2.7326
1480605933144673,-1.74989,-0.3277,-2.7326
1480605933168236,-1.74996,-0.327876,-2.73259
1480605933181772,-1.75042,-0.328044,-2.73255
1480605933210849,-1.75098,-0.328035,-2.73256
1480605933227393,-1.75099,-0.327909,-2.73241
1480605933255969,-1.7509,-0.327767,-2.73249
1480605933264555,-1.7509,-0.327767,-2.73249
1480605933294571,-1.7509,-0.327767,-2.73249
1480605933308108,-1.7509,-0.327767,-2.73249
1480605933324651,-1.7509,-0.327767,-2.73249
1480605933347211,-1.7509,-0.327767,-2.73249
1480605933391831,-1.7509,-0.327767,-2.73249
1480605933399852,-1.7509,-0.327767,-2.73249
1480605933407873,-1.75097,-0.32785,-2.7324
1480605933429932,-1.7509,-0.327767,-2.73249
1480605933444973,-1.7509,-0.327767,-2.73249
1480605933467532,-1.7509,-0.327767,-2.73249
1480605933488086,-1.7509,-0.327767,-2.73249
1480605933504631,-1.75098,-0.327817,-2.73234
1480605933533207,-1.75098,-0.327817,-2.73234
1480605933548247,-1.75092,-0.327733,-2.73242
1480605933565291,-1.75092,-0.327733,-2.73242
1480605933587351,-1.75092,-0.327733,-2.73242
1480605933608407,-1.75109,-0.327733,-2.73247
1480605933624950,-1.75109,-0.327733,-2.73247
1480605933660546,-1.75109,-0.327733,-2.73247
1480605933671073,-1.75108,-0.32764,-2.73239
1480605933684610,-1.7509,-0.327674,-2.73241
1480605933722210,-1.7509,-0.327767,-2.73249
1480605933729729,-1.7509,-0.327767,-2.73249
1480605933744770,-1.7509,-0.327767,-2.73249
1480605933767329,-1.7509,-0.327767,-2.73249
1480605933806935,-1.7509,-0.327674,-2.73241
1480605933810945,-1.7509,-0.327674,-2.73241
1480605933826991,-1.7509,-0.327767,-2.73249
1480605933849548,-1.7509,-0.327767,-2.73249
1480605933870604,-1.75062,-0.327564,-2.73251
1480605933887148,-1.75062,-0.327564,-2.73251
1480605933910215,-1.75083,-0.327498,-2.73242
1480605933955330,-1.75152,-0.327748,-2.73234
1480605933957836,-1.75136,-0.327842,-2.73237
1480605933969868,-1.75136,-0.327842,-2.73237
1480605933999948,-1.75129,-0.327666,-2.73238
1480605934007970,-1.75129,-0.327666,-2.73238
1480605934037047,-1.75127,-0.327699,-2.73245
1480605934044066,-1.75127,-0.327699,-2.73245
1480605934080665,-1.75127,-0.327699,-2.73245
1480605934097709,-1.75127,-0.327699,-2.73245
1480605934105228,-1.75127,-0.327699,-2.73245
1480605934127291,-1.75127,-0.327699,-2.73245
1480605934149847,-1.7509,-0.327767,-2.73249
1480605934172407,-1.7509,-0.327767,-2.73249
1480605934187948,-1.7509,-0.327767,-2.73249
1480605934209506,-1.7509,-0.327767,-2.73249
1480605934232117,-1.7509,-0.327674,-2.73241
1480605934268664,-1.75071,-0.327707,-2.73243
1480605934277186,-1.75071,-0.327707,-2.73243
1480605934290721,-1.75072,-0.3278,-2.73251
1480605934316290,-1.75072,-0.3278,-2.73251
1480605934329827,-1.75065,-0.327624,-2.73252
1480605934358402,-1.75063,-0.327657,-2.73258
1480605934367427,-1.75065,-0.327624,-2.73252
1480605934389486,-1.75065,-0.327624,-2.73252
1480605934410541,-1.75063,-0.327657,-2.73258
1480605934427085,-1.75063,-0.327657,-2.73258
1480605934449644,-1.75046,-0.327658,-2.73254
1480605934470701,-1.75046,-0.327658,-2.73254
1480605934502284,-1.75046,-0.327658,-2.73254
1480605934509807,-1.75046,-0.327658,-2.73254
1480605934546903,-1.75045,-0.327691,-2.73261
1480605934553420,-1.75045,-0.327691,-2.73261
1480605934600044,-1.75045,-0.327691,-2.73261
