timestamp,x,y,z
1480623779863859,-0.3125,0.1875,-0.1875
1480623779881907,-0.4375,0.1875,0
1480623779901461,-0.125,-0.1875,-0.25
1480623779919508,0.3125,-0.25,-0.25
1480623779942071,0.1875,-0.5,-0.3125
1480623779961620,0.125,-0.625,-0.3125
1480623779984180,-0.25,-0.5,-0.3125
1480623780015763,-0.25,-0.4375,-0.125
1480623780021279,0.25,-0.4375,-0.3125
1480623780043838,0.1875,-0.3125,-0.1875
1480623780069407,-0.1875,-0.25,-0.0625
1480623780081438,-0.375,-0.3125,-0.3125
1480623780105503,-0.125,-0.1875,-0.375
1480623780129566,-0.625,-0.1875,-0.1875
1480623780141602,-0.4375,-0.5,-0.25
1480623780164160,-0.0625,-0.5,-0.5625
1480623780182206,0.3125,-0.625,-0.3125
1480623780201257,-0.25,-0.5,0
1480623780231336,-0.25,-0.1875,0.3125
1480623780241867,-0.125,0.25,0.375
1480623780261417,0.0625,0.4375,0.0625
1480623780293006,-0.5625,0.375,-0.0625
1480623780302025,-0.375,0.4375,0.125
1480623780321578,0.0625,0.25,0.125
1480623780346644,-0.0625,0,0.0625
1480623780367700,-0.1875,-0.125,-0.125
1480623780384244,-0.3125,-0.125,-0.1875
1480623780403799,-0.0625,-0.375,-0.1875
1480623780422345,-0.125,-0.4375,0
1480623780442902,0.3125,-0.3125,-0.125
1480623780463955,0.3125,0,-0.0625
1480623780482004,-0.375,-0.1875,-0.125
1480623780503060,-0.5625,-0.0625,-0.0625
1480623780524122,0,0.125,0.0625
1480623780549183,0.1875,-0.0625,-0.1875
1480623780570239,-0.1875,-0.5625,-0.25
1480623780591796,0.0625,-0.75,-0.375
1480623780609343,-0.5,-0.625,-0.375
1480623780631903,-0.1875,-0.75,-0.4375
1480623780651454,0.375,-0.5625,-0.125
1480623780666494,0.25,0.0625,0.125
1480623780684543,-0.25,0.3125,0.3125
1480623780713119,-0.8125,0.6875,0.375
1480623780737685,-1.0625,0.75,0.25
1480623780759242,-0.75,0.5625,0.0625
1480623780763753,0.1875,0.3125,-0.0625
1480623780781802,0.25,0.0625,-0.0625
1480623780804361,0.3125,0,-0.0625
1480623780823914,0.1875,-0.0625,-0.375
1480623780847978,0.0625,-0.1875,-0.6875
1480623780864522,0,-0.3125,-0.5625
1480623780884074,0.25,-0.1875,-0.3125
1480623780903125,0.1875,-0.125,-0.0625
1480623780924182,-0.125,0,0.0625
1480623780943733,-0.3125,-0.375,-0.125
1480623780961781,0.125,-0.3125,-0.375
1480623780992362,0.5625,-0.3125,-0.375
1480623781011412,0.625,-0.5,-0.375
1480623781021941,0.5,-0.5,-0.1875
1480623781052021,0.3125,-0.625,0.1875
1480623781064052,-0.3125,-0.125,-0.375
1480623781089622,0.0625,0.1875,-0.25
1480623781104159,-0.125,0.375,0.4375
1480623781126720,-0.125,0.6875,0.5625
1480623781141762,-0.375,0.6875,0.4375
1480623781164319,-0.5,0.4375,-0.375
1480623781183871,-0.5,-0.0625,-0.3125
1480623781202421,1.0625,-0.1875,-0.375
1480623781228994,1.375,-0.4375,-0.5
1480623781253056,0.5,-0.5,-0.4375
1480623781268096,0,-0.375,-0.3125
1480623781290657,-0.3125,-0.125,0
1480623781304191,-0.375,0.1875,0
1480623781329259,-0.4375,0.375,0
1480623781351818,-0.1875,0.3125,0.0625
1480623781382399,0.6875,0.25,0.0625
1480623781393930,-0.0625,0.3125,-0.375
1480623781404458,-0.375,-0.0625,-0.3125
1480623781441557,0.25,-0.4375,-0.375
1480623781446570,0.8125,-0.6875,-0.5
1480623781464619,0.625,-0.8125,-0.8125
1480623781492694,0.625,-0.9375,-0.6875
1480623781513748,0.5,-0.625,-0.125
1480623781524781,0.25,-0.375,0.0625
1480623781567893,-0.0625,0,0
1480623781576917,0.125,0.4375,0.125
1480623781584438,0.0625,0.625,0.25
1480623781613013,-0.5,0.4375,0.125
1480623781626549,-0.5,0.25,0.0625
1480623781658134,0.1875,0.0625,-0.0625
1480623781674178,0.25,-0.1875,-0.3125
1480623781686207,0.3125,-0.125,-0.1875
1480623781727317,0.75,-0.125,-0.375
1480623781731328,0.625,-0.0625,-0.375
1480623781770933,-0.0625,0.125,-0.1875
1480623781776448,0,0.3125,0
1480623781794497,0.3125,0.25,0.0625
1480623781814048,-0.375,-0.0625,-0.25
1480623781847637,0.1875,-0.5,-0.375
1480623781851647,0.4375,-0.625,-0.1875
1480623781884736,0.375,-1.25,-0.625
1480623781891758,0.625,-1.0625,-0.8125
1480623781906798,0.9375,-0.875,-0.375
1480623781936874,0.625,-0.5,-0.1875
1480623781959438,-0.0625,0,-0.125
1480623781966956,0.0625,0.375,0.25
1480623782004053,-0.25,0.5,0.4375
1480623782006561,-0.5625,0.3125,0.375
1480623782039648,-0.625,0.5,0.4375
1480623782049678,0.125,0.5,0.25
1480623782072737,0.75,0.5,-0.125
1480623782103318,0.5,0.1875,-0.375
1480623782115851,0.125,0.1875,-0.3125
1480623782124374,0.375,0.0625,-0.1875
1480623782147434,-0.0625,-0.0625,0
1480623782166485,-0.375,-0.0625,0.0625
1480623782184535,-0.0625,-0.3125,0.25
1480623782213109,0.0625,-0.625,0.0625
1480623782227648,0.625,-0.875,-0.125
1480623782244192,0.6875,-0.875,-0.25
1480623782266752,1,-0.6875,-0.25
1480623782293829,0.75,-0.75,0
1480623782304368,0.1875,-0.5625,0.1875
1480623782331424,0.1875,-0.3125,0.25
1480623782347968,0,0.0625,0.125
1480623782364512,-0.5625,0,0.3125
1480623782402614,-0.75,-0.0625,0.125
1480623782414145,-0.5,0.125,-0.0625
1480623782424172,0,0,0
1480623782446731,0.25,-0.25,0.125
1480623782467787,0,0,0.125
1480623782490347,0.0625,0.1875,0.125
1480623782507396,-0.5,0,0.125
1480623782528448,-0.75,-0.25,0
1480623782550507,-0.1875,-0.375,-0.0625
1480623782566048,0.0625,-0.625,-0.4375
1480623782604149,0.1875,-0.75,-0.375
1480623782626710,0.25,-0.8125,-0.4375
1480623782629217,0.1875,-0.875,-0.25
1480623782656289,-0.0625,-0.5625,-0.1875
1480623782678347,0.0625,-0.4375,-0.375
1480623782687371,0.0625,-0.25,-0.25
1480623782714446,-0.125,-0.25,0.125
1480623782730987,-0.125,0,0.25
1480623782746027,-0.25,-0.125,0.125
1480623782769088,-0.25,-0.125,-0.0625
1480623782797165,0.0625,-0.0625,-0.25
1480623782806188,0,-0.1875,-0.375
1480623782828750,0,-0.375,-0.25
1480623782849804,0.4375,-0.5625,0
1480623782866848,0,-0.4375,-0.1875
1480623782888406,-0.25,-0.375,-0.75
1480623782910467,0.375,-0.25,-0.5
1480623782932022,0.0625,-0.0625,0
1480623782956087,0.0625,-0.0625,-0.5
1480623782969622,0.3125,-0.3125,-0.6875
1480623782986166,0.75,-0.1875,-0.5625
1480623783008728,0.3125,-0.5625,-0.4375
1480623783029783,1.5,-0.6875,-0.4375
1480623783045828,2.125,-0.4375,-0.6875
1480623783068385,1.1875,-0.25,-0.625
1480623783089441,-0.0625,-0.5625,-0.5
1480623783109495,-0.5625,-0.9375,-0.3125
1480623783136066,0.1875,-1,-0.5625
1480623783150103,0.1875,-0.8125,-0.875
1480623783166145,0.6875,-0.875,-0.6875
1480623783188706,0.25,-0.875,-0.5
1480623783209762,-0.5625,-0.625,-0.125
1480623783233825,-0.3125,-0.375,0.0625
1480623783248864,0.25,-0.125,0.125
1480623783270924,-0.0625,-0.0625,0.0625
1480623783285964,-0.625,-0.125,0
1480623783309027,-0.125,0.0625,0.1875
1480623783331084,0.125,0.3125,0.625
1480623783346124,-0.625,0.5,0.5625
1480623783376706,-0.875,0.3125,0.25
1480623783390242,0.1875,0.25,0.25
1480623783406787,0.625,0.375,0
1480623783435862,0.125,0.375,0.0625
1480623783456919,-0.875,0.25,0.0625
1480623783465943,-0.75,0.1875,0.0625
1480623783502540,0.1875,0.0625,0.1875
1480623783509562,0.8125,0.125,-0.125
1480623783526104,0.5625,0.1875,-0.3125
1480623783548662,0.3125,-0.1875,-0.25
1480623783571223,-0.25,-0.4375,-0.125
1480623783601303,-0.125,-0.625,-0.0625
1480623783608825,0.5,-0.375,0.125
1480623783630882,0.9375,-0.1875,0.0625
1480623783653441,0.5625,-0.0625,0.1875
1480623783676002,-0.5625,0.0625,0
1480623783691042,-0.25,0,0.375
1480623783714103,-0.25,0,0.625
1480623783729644,-1.125,0.25,0.25
1480623783759225,-0.5625,0.0625,0
1480623783765239,0,0.0625,0.4375
1480623783794320,-0.5,-0.1875,-0.125
1480623783825900,-0.25,0.25,-0.375
1480623783828410,0.125,0.5,0.125
1480623783848460,-0.75,0.5625,0.625
1480623783878544,-0.8125,0.3125,0.4375
1480623783885559,-0.375,0.3125,0.6875
1480623783915138,0.125,0.5,0.5
1480623783931681,-0.0625,0.3125,0.125
1480623783969281,-0.5625,0.375,0
1480623783972290,-0.375,0,0.125
1480623783990839,-0.5,-0.1875,0.25
1480623784013399,-0.125,-0.25,0.0625
1480623784028439,0.125,-0.125,-0.0625
1480623784050999,0.125,-0.1875,-0.3125
1480623784072557,-0.25,-0.125,-0.5
1480623784089101,-0.4375,-0.1875,-0.0625
1480623784111159,0,0,0.3125
1480623784133719,0,0.125,0.1875
1480623784156279,-0.375,0,0
1480623784171821,-0.3125,0.0625,0.125
1480623784192379,-0.125,0.0625,0.125
1480623784208922,0.125,-0.0625,0
1480623784238498,0.0625,-0.0625,-0.1875
1480623784269079,0.125,0.0625,-0.125
1480623784272591,0.1875,0.25,0.25
1480623784291140,0.1875,0.3125,0.375
1480623784311712,-0.0625,0.0625,0.3125
1480623784328740,-0.5,-0.25,0
1480623784351298,-0.125,-0.125,-0.1875
1480623784372357,0.875,0,0.0625
1480623784388396,0.1875,0,0.125
1480623784410957,-0.4375,0.1875,0.1875
1480623784433517,-0.0625,0.5,0.5
1480623784448557,-0.125,0.8125,0.625
1480623784473122,-0.75,0.5,0.375
1480623784492173,-0.6875,0.3125,-0.0625
1480623784508719,0.1875,0.125,-0.8125
1480623784531278,0.25,-0.5625,-1.125
1480623784554840,0.625,-1.25,-1.25
1480623784567874,1.125,-1.5625,-0.75
1480623784590935,1.0625,-1.6875,-0.1875
1480623784621516,0.625,-1.5,0.3125
1480623784629036,0,-0.5,0.625
1480623784658616,-0.8125,0.3125,1
1480623784674162,-1.1875,1.1875,1.125
1480623784687693,-0.75,1.375,1
1480623784711256,-0.0625,1.3125,0.4375
1480623784733315,0.0625,0.75,0
1480623784747853,-0.8125,0.125,-0.5
1480623784794978,-0.375,-0.1875,-1.25
1480623784799490,0.5,-0.25,-1.625
1480623784823554,0.625,-0.3125,-1.4375
1480623784831074,0.125,-0.125,-1.0625
1480623784853634,-0.0625,-0.0625,-0.75
1480623784867672,0.4375,0.125,-0.5
1480623784891234,0.25,0.25,-0.1875
1480623784937357,0.0625,0.375,-0.0625
1480623784951394,0.625,0.125,-0.1875
1480623784953901,0.875,-0.0625,-0.125
1480623784981474,0.3125,-0.0625,-0.125
1480623784987992,0.0625,-0.0625,-0.375
1480623785011053,-0.1875,-0.1875,-0.25
1480623785033614,-0.1875,0,-0.3125
1480623785071719,0.125,0.375,-0.6875
1480623785074723,0.0625,0.1875,-0.25
1480623785107309,0.125,0.375,0.0625
1480623785117336,0.3125,0.5625,-0.1875
1480623785130872,0.25,0.625,-0.375
1480623785153432,-0.25,0.4375,-0.1875
1480623785174490,-0.0625,0.4375,-0.3125
1480623785191545,0.125,0.5,-0.375
1480623785219608,-0.3125,0.0625,0
1480623785234648,-0.125,-0.25,-0.1875
1480623785251192,0.625,-0.625,-0.375
1480623785287788,0,-0.6875,-0.1875
1480623785294807,0,-0.5,0
1480623785319374,0.3125,-0.25,-0.125
1480623785348953,0.125,-0.0625,0.25
1480623785354466,0.125,0,0.125
1480623785378543,-0.3125,0,0.3125
1480623785394072,-0.4375,0.125,0.25
1480623785414627,-0.0625,0.0625,0.1875
1480623785432675,0.125,-0.125,0.1875
1480623785453731,-0.0625,0.125,0.0625
1480623785492333,-0.1875,0.0625,0.125
1480623785497348,0.125,0,0.125
1480623785513390,-0.1875,0,-0.25
1480623785543470,-0.3125,-0.1875,-0.1875
1480623785566530,-0.125,-0.3125,-0.1875
1480623785574055,0.375,-0.4375,-0.0625
1480623785602627,0.3125,-0.5,0.0625
1480623785611152,0.0625,-0.5,-0.1875
1480623785633710,0.3125,-0.0625,-0.5625
1480623785656269,0.1875,0.0625,-0.4375
1480623785678328,-0.3125,-0.25,-0.1875
1480623785707908,-0.125,-0.25,-0.125
1480623785715928,-0.125,0.125,0
1480623785730466,-0.375,0.25,0.0625
1480623785768568,-0.25,0.3125,0.125
1480623785792633,0.125,0.1875,-0.125
1480623785797144,0.3125,0,-0.5
1480623785821208,0.25,-0.25,-0.1875
1480623785842264,0.5,-0.3125,0
1480623785857806,0.5625,-0.375,-0.1875
1480623785874868,0.5,-0.5625,-0.125
1480623785895907,1.25,-0.5,-0.125
1480623785934008,1.5,-0.8125,-0.1875
1480623785936515,2.3125,-0.5625,-0.1875
1480623785956582,1.625,-0.125,-0.125
1480623785986147,-0.6875,-0.3125,0.0625
1480623785993667,-1.8125,-0.25,0
1480623786016728,-0.8125,-0.125,-0.0625
1480623786038286,0,0.125,-0.3125
1480623786060847,0.6875,0,-0.625
1480623786098947,0.1875,-0.1875,-0.5
1480623786101454,-0.125,-0.4375,-0.625
1480623786113486,-0.125,-0.4375,-0.1875
1480623786136045,-0.0625,-0.375,-0.1875
1480623786157105,-0.6875,-0.25,0.25
1480623786174149,-1.0625,-0.1875,0.25
1480623786211247,-0.625,0.1875,0.625
1480623786225784,0.0625,0.625,0.625
1480623786234809,-0.1875,0.75,0.125
1480623786263385,-0.6875,0.6875,-0.125
1480623786278425,-1.1875,0.5,-0.125
1480623786293966,-0.625,-0.0625,0.125
1480623786316526,0.1875,-0.125,-0.375
1480623786344601,0.25,-0.3125,-0.375
1480623786353640,-0.125,-0.25,-0.1875
1480623786376185,-0.4375,-0.1875,-0.3125
1480623786398745,-0.375,-0.1875,-0.25
1480623786413284,-0.25,-0.25,-0.25
1480623786435843,0.1875,-0.125,-0.25
1480623786459908,-0.25,-0.125,-0.1875
1480623786488484,-0.4375,-0.1875,-0.0625
1480623786496504,-0.4375,-0.1875,0
1480623786518564,-0.25,-0.3125,-0.125
1480623786541628,0,-0.0625,-0.125
1480623786556666,0.125,0.125,-0.0625
1480623786578723,0,0.4375,0
1480623786592761,-0.375,0.5625,0.125
1480623786624345,-0.75,0.5,0.3125
1480623786646404,-0.125,0.625,0.0625
1480623786654930,-0.25,0.625,-0.375
1480623786677489,-0.1875,0.3125,-0.5625
1480623786704559,0.1875,-0.1875,-0.5625
1480623786713082,0.0625,-0.4375,-0.4375
1480623786736142,-0.1875,-0.375,-0.4375
1480623786764718,-0.125,-0.3125,-0.375
1480623786773743,-0.0625,-0.1875,-0.0625
1480623786796804,-0.25,0.125,-0.0625
1480623786819865,-0.4375,0.3125,-0.125
1480623786841059,-0.8125,0.5625,-0.125
1480623786855964,0.0625,0.25,-0.0625
1480623786901584,0.0625,0.0625,-0.0625
1480623786904090,-1.0625,-0.4375,-0.4375
1480623786931161,1,-0.4375,-0.8125
1480623786938681,1.75,-0.5,-0.6875
1480623786961242,-0.5,-0.625,-0.3125
1480623786983300,-0.5,-0.4375,0.0625
1480623786998341,-0.1875,-0.1875,-0.0625
1480623787019395,-0.3125,-0.0625,0
1480623787043463,-0.1875,0.25,0.125
1480623787058501,-0.1875,0.125,0.1875
1480623787096601,-0.9375,-0.3125,-0.25
1480623787099109,-0.4375,-0.375,-0.3125
1480623787126180,-0.1875,-0.375,-0.0625
1480623787156762,-0.0625,-0.1875,-0.375
1480623787158766,1,-0.25,-0.6875
1480623787178319,1.5625,-0.3125,-0.625
1480623787200879,1.125,-0.1875,-0.5625
1480623787215919,1.9375,-0.3125,-0.375
1480623787238479,4.3125,-1.6875,0.5
1480623787261039,7.4375,-1.5625,0.4375
1480623787283601,7.3125,-0.5,-1.0625
1480623787298638,4.9375,-0.75,-1.4375
1480623787321199,6.9375,-1.4375,-0.75
1480623787336239,10.875,-4.5,-0.75
1480623787358297,9.8125,-10,-0.625
1480623787379353,7.4375,-18.375,2.625
1480623787395397,10.375,-19.375,4.0625
1480623787425978,20.125,-13.6875,3.3125
1480623787441521,18.3125,-5.6875,5.6875
1480623787455556,5.4375,-1,2.3125
1480623787484634,-4.875,-3.1875,-1.125
1480623787501178,-3,-6.0625,-0.9375
1480623787516217,7.625,-5.1875,0.625
1480623787539279,16.8125,-4.5625,0.4375
1480623787560836,19.25,-4.375,0
1480623787575376,15.125,-2,1.3125
1480623787598938,6.3125,1.125,2.625
1480623787620998,-7.875,-0.9375,4.5
1480623787642055,-8.875,-2.9375,1.375
1480623787658598,1.9375,-0.625,-1.3125
1480623787681157,8.0625,1,-2
1480623787703717,6.875,-2.0625,-0.3125
1480623787718756,4.875,-4.6875,-0.8125
1480623787741818,3.5,-4.3125,-0.9375
1480623787763375,0.25,-1.125,-0.3125
1480623787784431,-2.625,1.5,-0.3125
1480623787800975,1.625,0.5,-0.5
1480623787822032,9.375,-0.3125,-0.5625
1480623787846596,19.5,2.3125,-3.75
1480623787875173,21.5625,4.1875,-3.9375
1480623787882692,16.375,3.4375,-1.375
1480623787898735,11.625,3.5,-1.75
1480623787928315,1.9375,7.3125,0.125
1480623787941851,-11.375,9.75,-0.3125
1480623787958395,-15.8125,10.0625,-1.3125
1480623787981455,-19.1875,8.125,-1.5625
1480623788002010,-6.375,6.4375,-3.9375
1480623788018554,-1.875,4.5,-4
1480623788041616,2.5,3.6875,-1.375
1480623788062170,-2.25,2.5,1
1480623788078714,-9.625,1.625,1.0625
1480623788100773,-13.125,3.0625,-1.8125
1480623788122335,-2.4375,2.9375,-8.3125
1480623788139376,9.375,4.0625,-6.0625
1480623788160932,13.75,5.25,-1.1875
1480623788181989,9.8125,9.5,-2.8125
1480623788198533,-9.5625,12.5625,-3.75
1480623788221596,-27.875,10,-1.9375
1480623788242149,-28.9375,4.1875,-1
1480623788257692,-19.125,3.75,4.5
1480623788281253,-13.3125,6.6875,3.75
1480623788302309,-13.25,6.75,-0.875
1480623788317851,-7.6875,8.3125,0.25
1480623788340912,-3.3125,8.4375,4.6875
1480623788369488,-8.5625,9.25,3.6875
1480623788380016,-13.5,7.0625,-2.625
1480623788401072,-9.875,5.25,1.0625
1480623788431151,-6.8125,1.8125,3.125
1480623788438673,-6.4375,-0.6875,1.8125
1480623788461232,1.1875,0.625,-1
1480623788483290,-2.375,0.6875,0.4375
1480623788511868,-3.25,-1.75,0.125
1480623788521893,0.9375,-0.75,1.375
1480623788543454,-1.625,2,-0.25
1480623788566012,-2.9375,1.8125,-1.375
1480623788581051,-5.25,1.75,-0.25
1480623788603611,-11.125,0.375,1.1875
1480623788617648,-11.9375,-0.125,1.6875
1480623788641216,-4.25,-1.875,2.25
1480623788664273,1.875,-1.6875,3.6875
1480623788684826,1.9375,0.3125,1.625
1480623788700870,-0.625,1.4375,-1.625
1480623788723930,2.125,2.3125,-1.625
1480623788737968,3.375,4.3125,-1.875
1480623788761030,3.1875,6.8125,-3.1875
1480623788783589,5.25,7.0625,-3.625
1480623788797627,0.5625,5.375,-2.25
1480623788822192,-4.5625,4.25,-1.6875
1480623788843749,-0.75,4.5,-1.3125
1480623788864304,0.5,4.75,-0.0625
1480623788903910,-0.5625,3.9375,-0.5625
1480623788906416,1.0625,2.3125,-1.1875
1480623788924464,3.3125,1.4375,-1.4375
1480623788941010,-0.125,2.625,-1.5625
1480623788964069,-2.25,4.125,-1.5625
1480623788986629,-3,5.5,-0.9375
1480623789001168,-5.1875,4.9375,-0.125
1480623789023731,-9.3125,4.875,0.8125
1480623789044784,-11.625,6.125,1.0625
1480623789060827,-13.75,7.1875,1.625
1480623789083387,-21.75,5,1.875
1480623789104443,-18.4375,3.5,2.6875
1480623789129008,-11.6875,3.0625,3
1480623789143548,-8.5,1.75,1.375
1480623789164603,-3.5625,0.6875,-0.125
1480623789181148,1.125,0.1875,-0.5625
1480623789203206,6,-0.5,-1
1480623789224762,7.375,-0.8125,-1.625
1480623789241309,6.125,-1.125,-2.0625
1480623789263366,5.375,-0.9375,-1.625
1480623789293445,4.75,-0.8125,-1.1875
1480623789301467,3.625,-1.375,-0.8125
1480623789338566,3.3125,-2.0625,-0.6875
1480623789346086,3.625,-1.9375,-1.1875
1480623789361626,3.0625,-2.125,-1.375
1480623789383686,3.5,-2.125,-1.25
1480623789406247,4.0625,-1.8125,-0.75
1480623789426800,2.9375,-2,-0.3125
1480623789451867,2.375,-2,-0.125
1480623789466405,1,-1.5625,-0.1875
1480623789480443,1.0625,-0.9375,-0.3125
1480623789509521,0.875,-0.625,-0.0625
1480623789525565,0.1875,-0.4375,0.3125
1480623789541607,-0.25,-0.5625,0.375
1480623789563664,-0.6875,-0.6875,0.4375
1480623789592241,0,-1,0.3125
1480623789600262,1.25,-0.875,-0.375
1480623789623326,1.5,-0.8125,-0.9375
1480623789651900,1.8125,-0.625,-0.125
1480623789660423,2,-1.125,0.4375
1480623789683483,1.0625,-1.9375,0.8125
1480623789706044,-0.0625,-1.1875,0.5625
1480623789728603,-0.5,-0.375,-0.375
1480623789743646,-0.9375,-0.25,-0.25
1480623789766203,0.375,-0.0625,0.3125
1480623789788262,1,0.3125,-0.1875
1480623789816838,-0.625,0.25,-0.1875
1480623789831878,-2.8125,-0.625,0.25
1480623789846918,-2.9375,-1.125,0.3125
1480623789870982,-1.25,-0.9375,-0.4375
1480623789886022,0.4375,-0.625,-1.0625
1480623789907581,0.75,-1.9375,-0.875
1480623789923622,-0.1875,-2.75,-0.6875
1480623789946183,-0.1875,-3,-0.8125
1480623789968242,1.25,-2.8125,-0.5
1480623789983281,1.8125,-3.25,-0.4375
1480623790005842,1.9375,-3.3125,-0.8125
1480623790034416,2,-5.25,-0.5625
1480623790043440,2.6875,-7.1875,0.0625
1480623790067011,4.5625,-5.75,0
1480623790087057,3.5625,-3.375,-0.75
1480623790103099,1.75,-1.625,-2.75
1480623790126161,0.9375,-0.6875,-2.3125
1480623790147217,1.875,0.9375,-1.4375
1480623790163761,5.125,2.625,-1.9375
1480623790185820,5.25,3.3125,-2.375
1480623790206878,1.6875,2.8125,-2.125
1480623790222921,-4.625,2.0625,-0.8125
1480623790246481,-6.375,0.8125,-0.25
1480623790268540,-6.25,0.375,-0.1875
1480623790283580,-4,0.25,0
1480623790312164,-3.25,0.4375,-0.0625
1480623790336220,-6.4375,-1,-0.3125
1480623790343740,-5.75,-1.0625,0.875
1480623790365799,-4.75,-0.0625,1.375
1480623790388358,-4.4375,0.375,1.0625
1480623790402897,-3,1.25,1.4375
1480623790425958,-1.0625,1.25,1.4375
1480623790448519,0,2.0625,1.4375
1480623790463058,-0.5,2.6875,2.3125
1480623790486119,-3.8125,2.625,2.375
1480623790508682,-5.375,2.1875,1.625
1480623790531238,-4.8125,2.0625,1.5625
1480623790545778,-5.125,2.1875,1.8125
1480623790568337,-6.1875,2.1875,1.0625
1480623790590897,-4.1875,1.6875,-0.1875
1480623790605938,-4.1875,1.125,-0.3125
1480623790628497,-3.875,0.125,0.25
1480623790649553,-1.5625,-0.25,0.3125
1480623790674624,1.875,-0.375,0
1480623790688661,5.1875,-0.6875,-0.75
1480623790702695,6.0625,-0.3125,-1.5625
1480623790726258,6.375,0.3125,-2.1875
1480623790754333,7.6875,0.75,-1.375
1480623790769372,5.5,0,-0.4375
1480623790785916,-0.5625,-0.375,-0.125
1480623790808476,-2.1875,0.375,0.4375
1480623790829531,-1.8125,0.125,-0.3125
1480623790846577,-1.375,0.0625,-0.5625
1480623790868636,-1.125,-0.0625,-0.375
1480623790889697,-0.875,0,-0.3125
1480623790906237,-0.625,-0.4375,-0.375
1480623790929799,-0.1875,-0.5625,-0.5625
1480623790949350,-1.25,-0.6875,-0.3125
1480623790965895,-1.9375,-0.3125,-0.3125
1480623790996476,-1.1875,-0.125,-0.75
1480623791009513,1.25,0,-0.4375
1480623791033577,1.6875,0.25,0.0625
1480623791048619,-0.5625,-0.3125,-0.25
1480623791069672,-0.875,-0.0625,-0.75
1480623791092230,-0.6875,-0.125,-1.0625
1480623791108775,-1.4375,-0.375,-0.3125
1480623791129329,-2.8125,-1,0.1875
1480623791146375,-2.0625,-0.5,0.125
1480623791168433,-1.0625,-0.5,-0.1875
1480623791190994,-0.0625,-0.6875,-0.25
1480623791206037,0.125,-0.625,-0.625
1480623791228593,0.5625,-0.1875,-0.4375
1480623791258674,-0.3125,-0.4375,-0.375
1480623791265693,-0.25,-0.25,-0.375
1480623791288756,0.5625,0.25,0.1875
1480623791312317,-0.75,0.3125,0.125
1480623791325351,0.1875,0.5,0
1480623791348413,1.125,0.375,0.0625
1480623791370973,1.5625,0.3125,-0.4375
1480623791385511,0.9375,-0.125,-0.6875
1480623791408574,2.1875,-0.125,-0.625
1480623791431133,3.625,-0.1875,-0.6875
1480623791454195,1.125,-0.5625,-0.3125
1480623791482268,-0.625,-0.5625,-0.25
1480623791490791,-3.625,0.125,0.875
1480623791511849,-3,-0.1875,0.375
1480623791534407,-0.1875,-0.4375,-0.25
1480623791556967,2.4375,0.375,-0.0625
1480623791565490,3.1875,1,-0.5
1480623791596573,4.5625,0.125,-0.6875
1480623791611112,3,-0.625,-0.625
1480623791632167,0.25,-0.25,-0.75
1480623791648711,-0.375,0.3125,-0.5625
1480623791671272,0.875,0.6875,0.5625
1480623791691826,0.5625,0.3125,0.625
1480623791708371,-0.25,0.4375,0.4375
1480623791730930,-1.8125,0.0625,0.1875
1480623791761010,-0.5625,-0.125,0.75
1480623791768530,1.5,-0.25,0.25
1480623791791091,0.3125,0.9375,-0.25
1480623791812146,0.375,0.25,-0.875
1480623791828690,-0.5,0,-0.0625
1480623791851752,0.0625,-0.0625,-0.125
1480623791872307,0.125,-0.25,-0.25
1480623791888852,-0.6875,-0.5,0.4375
1480623791911913,0.3125,-0.5625,0.0625
1480623791931965,0.5,-0.375,-0.5
1480623791949011,-0.25,-0.25,-0.1875
1480623791971069,0.6875,-0.5625,-0.125
1480623792009173,0.1875,-0.375,0.125
1480623792011678,-1.4375,-0.625,0.25
1480623792037246,-0.8125,-0.8125,-0.125
1480623792052285,0.4375,-0.9375,0.125
1480623792068327,-0.125,-0.8125,0.0625
1480623792097906,-0.875,-0.0625,0.25
1480623792111947,-1.5625,0.1875,0.5625
1480623792128488,-1,0.0625,1.125
1480623792151049,-1.0625,-0.125,0.5625
1480623792174708,0.25,-0.6875,-0.5625
1480623792188653,1.25,-0.5625,-0.5625
1480623792211209,2.3125,-0.5625,-0.6875
1480623792234269,1.4375,-0.875,-0.625
1480623792249311,0.125,-1.25,-0.6875
1480623792270867,0.4375,-0.375,-0.25
1480623792293426,1.75,0.5,-0.0625
1480623792307965,0.5625,0.375,-0.3125
1480623792331028,0,-0.25,0
1480623792353587,-1,-0.1875,0.25
1480623792367624,-1.3125,0,-0.0625
1480623792391187,-1.5625,-0.625,-0.5625
1480623792413245,-0.5625,-1.25,-0.5625
1480623792427784,-1.1875,-1.125,-0.5
1480623792450846,-0.3125,-1.0625,-0.1875
1480623792473908,0.4375,-0.3125,-0.0625
1480623792487945,-1.375,-0.4375,-0.3125
1480623792511005,-2.6875,-0.8125,-0.625
1480623792533566,-0.6875,-0.8125,-0.1875
1480623792548606,-0.0625,-0.8125,-0.75
1480623792571166,0.5625,-0.3125,-0.75
1480623792593224,-0.1875,-0.1875,-0.5
1480623792607764,-1.125,-0.625,-0.5
1480623792630824,-3.4375,0.3125,0
1480623792653886,-3.625,0.8125,0.0625
1480623792674444,-0.9375,-0.3125,-0.3125
1480623792690984,2.625,-0.4375,-0.1875
1480623792736605,4.1875,-1.125,-0.875
1480623792739114,2.25,-0.5,-0.9375
1480623792751146,-0.4375,0,-1
1480623792779720,-1.5625,0.0625,-1.0625
1480623792794760,0.0625,0,-0.375
1480623792810805,0.9375,-0.3125,0.1875
1480623792833363,-0.0625,-0.375,0.1875
1480623792862441,0.0625,-0.5,-0.3125
1480623792873974,0.125,-0.6875,0
1480623792893524,0.0625,-0.8125,0.4375
1480623792914579,0.375,-0.6875,-0.1875
1480623792931124,-0.0625,-0.75,-0.5625
1480623792961203,1.125,-1.125,-0.3125
1480623792976243,1.125,-1.625,-0.125
1480623792996797,0.625,-1.3125,0.25
1480623793014345,0.9375,-0.875,0.375
1480623793035902,1.5,-1.125,0.375
1480623793050942,1.8125,-0.9375,0.625
1480623793074507,1.0625,-0.3125,0.0625
1480623793096062,-0.875,-0.125,-0.0625
1480623793111104,-1.5625,-0.125,0.125
1480623793133663,-0.9375,-0.375,0.5
1480623793156226,-0.875,-0.25,0.25
1480623793171262,-0.125,0.125,0.1875
1480623793200841,-0.0625,0.125,0.3125
1480623793223902,-0.5,0.1875,0.3125
1480623793231923,-1.25,0.1875,0
1480623793253982,-2,0.5,0.25
1480623793276041,-3,0.4375,0.6875
1480623793290078,-1.5625,0.4375,0.5
1480623793314143,-0.1875,1,1
1480623793336702,-0.125,1.125,0.75
1480623793350239,-0.3125,1.375,0.4375
1480623793374303,-0.4375,0.8125,0.25
1480623793395860,0.4375,0.8125,0
1480623793410399,1.4375,0.5625,-0.375
1480623793448500,2.5625,0.125,-0.9375
1480623793456022,2.5,0.5625,-0.8125
1480623793470559,1.3125,0.0625,-0.125
1480623793494121,-0.6875,-0.1875,0.1875
1480623793516179,-1,-0.3125,-0.5
1480623793530217,-0.75,-0.6875,-0.8125
1480623793553278,0.9375,-0.6875,-0.8125
1480623793575838,1.5625,-0.375,-0.625
1480623793596895,0.4375,-0.125,-0.6875
1480623793613438,-1.375,-0.0625,0
1480623793635998,-1.875,-0.625,0.25
1480623793657055,-1.75,-0.125,0.4375
1480623793673602,-0.125,0.1875,-0.0625
1480623793695657,0.5625,-0.0625,-0.4375
1480623793724734,0.125,0.875,-0.25
1480623793733759,-4.1875,1.6875,0.5
1480623793756820,-6.1875,0.875,0.5625
1480623793776878,-2.25,0,0.625
1480623793793417,1.8125,-0.1875,-0.25
1480623793816479,3.6875,-0.8125,-1.375
1480623793837034,3.375,0.25,-0.25
1480623793854583,-0.875,0.8125,-0.0625
1480623793876185,-3,-0.1875,-0.6875
1480623793897192,-0.75,-0.25,0.625
1480623793919753,0.25,-0.0625,0.5625
1480623793942815,0.9375,0.25,-0.375
1480623793957353,2.0625,0.375,-0.5
1480623793973898,1.25,-0.125,0
1480623794001972,-1.3125,-0.375,0.3125
1480623794017012,-1.625,-0.1875,0.125
1480623794033556,-0.5625,-0.1875,0
1480623794056117,0.25,0.125,-0.0625
1480623794086196,0.375,-0.3125,0
1480623794093716,0.1875,0,0.1875
1480623794116777,0,0.0625,0.125
1480623794138344,-1.5625,-0.25,0.1875
1480623794153376,-1.25,0.125,0.3125
1480623794183455,0.375,0.0625,-0.0625
1480623794198494,0.875,0,-0.5625
1480623794228073,0.625,-0.25,-0.1875
1480623794237602,0.5625,-0.5625,0.0625
1480623794259156,-1.1875,-0.0625,-0.0625
1480623794281215,-1.25,-0.125,-0.1875
1480623794295753,-1.4375,0,0.125
1480623794324329,-0.625,-0.0625,-0.0625
1480623794332859,-0.6875,0,0.25
1480623794361929,-0.375,-0.0625,0.25
1480623794378473,-0.1875,-0.5,0
1480623794393013,-1.125,-0.0625,0.1875
1480623794424095,-1.375,0.25,0.125
1480623794439135,-0.75,0.125,0.0625
1480623794452671,-0.0625,-0.1875,-0.25
1480623794476235,-0.5625,-0.25,-0.5
1480623794505814,-0.8125,-0.3125,-0.3125
1480623794520352,0.375,-0.25,-0.125
1480623794536394,0.3125,0,0.25
1480623794558452,0,0,-0.0625
1480623794581515,-0.5,0.25,-0.0625
1480623794596053,-0.1875,0.1875,0.125
1480623794618612,-0.6875,0.0625,-0.125
1480623794648692,0.3125,0.125,-0.1875
1480623794663231,-0.1875,-0.125,-0.0625
1480623794678272,-0.3125,-0.125,-0.1875
1480623794701333,-0.5625,0.0625,-0.3125
1480623794715872,0.375,0.0625,-0.25
1480623794738432,0.4375,0.1875,-0.4375
1480623794759488,-0.375,0.125,-0.375
1480623794783551,-0.5625,0.1875,-0.5
1480623794798591,-0.125,0.0625,-0.1875
1480623794827167,0.25,-0.0625,-0.125
1480623794836192,-0.125,0.375,-0.1875
1480623794858752,-0.625,0.25,0.125
1480623794879306,-1.375,-0.0625,0.125
1480623794895850,-0.875,-0.375,-0.1875
1480623794925932,0.1875,0.125,-0.5
1480623794939466,0.125,0.1875,-0.4375
1480623794956010,-0.0625,-0.3125,-0.25
1480623794979071,-0.0625,-0.3125,-0.375
1480623795001131,-0.5,-0.1875,-0.125
1480623795016170,-1.625,0,-0.0625
1480623795038731,-1.9375,-0.8125,-0.8125
1480623795061290,-0.9375,-0.6875,-0.4375
1480623795075832,-0.5,-0.4375,-0.25
1480623795098388,-0.9375,0.1875,0.1875
1480623795120950,-1.9375,0.0625,0.0625
1480623795142005,-1.75,-0.125,-0.1875
1480623795164565,0.375,-0.5,0
1480623795181109,-0.0625,0.5,-0.125
1480623795202165,-0.0625,0.3125,-0.6875
1480623795218709,0,-0.0625,0.375
1480623795241269,0.875,0,0.75
1480623795255310,0.1875,0.6875,0.1875
1480623795278368,-0.1875,0.6875,-0.5
1480623795300933,-0.5625,0.5,-0.125
1480623795315466,0.8125,0.0625,-0.125
1480623795339029,0.3125,0.625,-0.1875
1480623795368608,0.5,0,-0.4375
1480623795376129,0.3125,-0.0625,0.0625
1480623795398687,-0.1875,0.125,0.25
1480623795421248,0.375,-0.125,-0.0625
1480623795435286,0.3125,0,0
1480623795458347,0.6875,0.5625,-0.4375
1480623795480906,1.8125,0.3125,-0.125
1480623795501962,0.625,-0.5,0.25
1480623795525524,-0.1875,-0.4375,-0.0625
1480623795541069,0.125,-0.3125,-0.25
1480623795562122,-0.0625,-0.1875,-0.125
1480623795578668,0.4375,0.0625,-0.125
1480623795607243,0.6875,-0.0625,-0.3125
1480623795622283,-0.1875,0.125,-0.0625
1480623795645846,-1,0.3125,0.5
1480623795660886,-0.0625,0.125,0.375
1480623795681941,-0.4375,-0.0625,0.25
1480623795698485,-0.1875,0,0
1480623795722052,-0.375,0.0625,-0.125
1480623795742103,-0.5625,0.125,-0.1875
1480623795758646,-0.4375,-0.125,-0.1875
1480623795781206,-0.4375,-0.3125,-0.125
1480623795801760,-0.5625,-0.125,0
1480623795834848,-0.4375,0.5,-0.0625
1480623795841365,-0.875,0.625,0.0625
1480623795861921,-0.3125,0.5,0.5
1480623795885985,-0.5625,0.125,0.4375
1480623795901024,-0.75,0.125,0.125
1480623795923584,-0.1875,0,-0.1875
1480623795938627,1.625,0,-0.4375
1480623795961184,1.1875,0,-0.6875
1480623795983745,1.0625,0.125,-0.875
1480623795998283,0.3125,-0.125,-0.75
1480623796020845,-0.1875,0,-0.1875
1480623796058445,-0.6875,-0.0625,0.25
1480623796060949,-1.125,-0.875,-0.5625
1480623796081504,-0.5,-0.75,-0.25
1480623796111084,-1,-0.3125,-0.0625
1480623796124796,-2,-0.375,-0.25
1480623796142344,-0.9375,-0.5625,-0.3125
1480623796163399,-0.3125,0.0625,0.375
1480623796177938,-0.8125,0.5,0.1875
1480623796202503,-2.3125,-0.625,-0.4375
1480623796223559,-1.3125,-0.375,0.0625
1480623796238098,-1.0625,0.125,0.1875
1480623796261160,-1.4375,0.4375,0.375
1480623796283218,-0.0625,0.125,0
1480623796305777,0.9375,0.5,-0.125
1480623796335863,-0.1875,-0.3125,-0.4375
1480623796343379,-1.125,-0.4375,-0.25
1480623796357916,0.0625,0.0625,-0.625
1480623796388501,0.375,0.125,-0.75
1480623796403538,1.1875,0.125,0.0625
1480623796424594,0.9375,0.4375,0
1480623796441139,-0.1875,0.0625,-0.4375
1480623796463196,-0.3125,-0.1875,-0.5625
1480623796484252,0.6875,-0.375,-0.375
1480623796500796,0.1875,-0.4375,-0.125
1480623796523357,-0.375,-0.25,0
1480623796544413,0.5625,-0.4375,-0.0625
1480623796560959,0.3125,-0.6875,-0.25
1480623796591036,0,-0.1875,-0.4375
1480623796612092,0.6875,-0.1875,-0.4375
1480623796621120,-0.3125,0.1875,-0.125
1480623796643676,-0.0625,0.1875,-0.1875
1480623796664231,0.75,0.1875,-0.1875
1480623796680776,-0.5,-0.3125,-0.3125
1480623796703335,-0.625,-0.3125,-0.4375
1480623796731912,0.0625,-0.3125,-0.125
1480623796746950,0.5,-0.5625,-0.25
1480623796763495,-0.625,-0.0625,-0.3125
1480623796769009,0.375,-0.0625,-0.1875
1480623796791569,-0.4375,-0.25,0
1480623796807615,-0.75,-0.6875,-0.375
1480623796828668,0.0625,-0.5625,-0.4375
1480623796851228,0.25,-0.5,-0.8125
1480623796866270,-0.3125,-0.4375,-0.5625
1480623796888829,-0.3125,-0.3125,-0.25
1480623796911389,-0.6875,-0.0625,-0.625
1480623796926428,-3.0625,-0.25,-0.625
1480623796948988,-7.4375,-0.3125,-0.8125
1480623796971550,-2.6875,-0.4375,-1.25
1480623796986589,-4.1875,-0.1875,-2.3125
1480623797009151,-0.375,0.75,-2.75
1480623797034216,6.0625,0.5,-1.3125
1480623797046247,5.875,-0.5,-0.625
1480623797068808,2.4375,-0.6875,-1.0625
1480623797091367,-1.5625,-0.75,-1.1875
1480623797109415,5.875,-1.1875,-0.8125
1480623797128967,11.25,-1.1875,-0.5
1480623797159548,9.5625,-0.125,-1.25
1480623797168071,-4.6875,0.375,-1.3125
1480623797188627,-8.1875,1.6875,-2.8125
1480623797219710,-7.0625,1.5,0.3125
1480623797229234,-6,-0.75,2.4375
1480623797248786,-3.4375,-0.875,1.3125
1480623797271347,0.4375,0.1875,-0.8125
1480623797287893,1.4375,0.6875,0
1480623797308946,-0.3125,0.25,1
1480623797331506,-0.6875,0,0.75
1480623797348050,1.1875,-0.125,0.4375
1480623797368605,1.9375,-1.125,0.1875
1480623797391668,1.75,-1.9375,-0.0625
1480623797409213,1,-0.9375,-0.1875
1480623797428765,0.625,-0.125,-0.1875
1480623797451327,-0.5625,0.125,0
1480623797467870,-1.5625,0.6875,0.5625
1480623797488926,-1.4375,0.25,0.5
1480623797511486,2.25,0.125,0.3125
1480623797536552,4.5625,0.375,-0.25
1480623797565127,2.4375,0.25,0.25
1480623797594205,1.125,-0.9375,0.625
1480623797605737,4.375,-2.375,0.5
1480623797610248,7.4375,-2.375,0.25
1480623797632808,7.9375,-1.4375,-0.375
1480623797647848,5.375,-1.0625,-0.75
1480623797684445,0.9375,-1.875,-0.25
1480623797694472,-0.5,-2.5,0.3125
1480623797715533,1.0625,-2.125,0.5
1480623797729065,2.4375,-0.5625,-0.125
1480623797751123,0.5,0.3125,-0.75
1480623797769171,-0.125,0.625,0.0625
1480623797788727,-0.1875,0.875,1.1875
1480623797811283,-1.125,0.6875,0.6875
1480623797829330,-0.75,0.5,0.1875
1480623797848882,0.3125,0.3125,0.375
1480623797871443,1.4375,-0.125,0.125
1480623797894002,0.875,-0.5,-0.5
1480623797909047,0.0625,-0.6875,-0.375
1480623797934110,-0.3125,-0.8125,-0.25
1480623797953661,-0.1875,-0.75,-0.1875
1480623797977727,1,-0.1875,0
1480623797994269,1.25,0.0625,0.25
1480623798013828,0.1875,0.75,0.1875
1480623798028862,-1.75,1.0625,-0.125
1480623798051422,-2.6875,0.4375,0.125
1480623798073983,-1.4375,-0.1875,-0.1875
1480623798089024,0.8125,0.1875,-0.25
1480623798118608,1.6875,0.5625,0.0625
1480623798133640,0.8125,0.3125,0.375
1480623798148680,-1.375,-0.1875,0.125
1480623798171241,-1.9375,-0.5625,-0.1875
1480623798196808,-1.1875,-0.625,-0.125
1480623798208844,-0.0625,-0.375,-0.375
1480623798231400,0.9375,-0.625,-0.8125
1480623798253961,0.625,0,-0.3125
1480623798269000,-0.25,0.4375,-0.375
1480623798307605,-2.0625,-0.1875,-0.3125
1480623798313619,-3.25,-2.25,0.4375
1480623798328660,-1.375,-4.1875,1.3125
1480623798351219,2.375,-3.1875,1.4375
1480623798374282,3.25,-1.5625,1.0625
1480623798388820,-1.9375,-0.625,0.5
1480623798418899,-5.4375,-0.5,0.5
1480623798433939,-5.6875,-0.875,0.6875
1480623798456500,-0.125,-1.8125,0
1480623798473045,6.5625,-1,-0.9375
1480623798504126,9.9375,-0.375,-1.3125
1480623798510142,7.6875,0.25,-1.75
1480623798531198,3.9375,-0.5,-1.6875
1480623798555263,2.4375,-0.875,-1.1875
1480623798570302,2.4375,-2.3125,-1.1875
1480623798591360,4.625,-2.4375,-1.1875
1480623798613918,6.25,-1.5625,-1.75
1480623798630462,4.3125,-0.625,-2
1480623798651518,2.8125,0.1875,-1.375
1480623798674078,0.4375,0.6875,-0.375
1480623798690625,-3.375,-0.5625,-0.875
1480623798711178,-3,-0.6875,-4.5625
1480623798733737,2.75,-1.625,-4.9375
1480623798750283,6.875,-2.3125,-3
1480623798771339,6.125,-1.5625,-3.4375
1480623798793897,0.875,-3.25,-3.4375
1480623798811946,-4.8125,-4.25,-1.1875
1480623798831498,-5.0625,-4.0625,1.625
1480623798854558,-6.25,-3.375,0.75
1480623798871605,-2.875,-4.5625,-0.375
1480623798898675,4,-3.5625,-1.375
1480623798915220,6.3125,-1.75,-0.4375
1480623798932265,4.6875,-0.75,-0.3125
1480623798954324,3.0625,0.0625,-0.5625
1480623798977385,0.5625,0.0625,-0.375
1480623798991927,-1.3125,0,-0.25
1480623799011476,-0.375,0.375,0.1875
1480623799034037,1,1.1875,0.375
1480623799051583,0.5625,0.75,0.125
1480623799078655,-0.75,0.375,0.625
1480623799095199,-0.125,0.5625,1.125
1480623799112244,-0.8125,0.75,0.5625
1480623799138817,-1.0625,0.5625,0.5625
1480623799162878,-1.5625,0.4375,1
1480623799171903,-2.0625,0.6875,0.75
1480623799191458,0,0.3125,0.25
1480623799214016,-1.3125,-0.0625,0.625
1480623799232565,0.25,0,0.8125
1480623799254122,0.6875,0.1875,0.5
1480623799273679,-1.6875,0.1875,0.3125
1480623799291722,-0.1875,0.25,0.3125
1480623799311273,0.375,0.1875,0.1875
1480623799333834,-1.25,0.0625,0.25
1480623799359401,-0.5,0.1875,0.625
1480623799372938,0,0.3125,0.6875
1480623799393994,-1.5,0.5625,0.6875
1480623799424575,-1.0625,0.5625,0.6875
1480623799432597,-1,0.375,0.5
1480623799453653,-1.0625,0.3125,0.375
1480623799476212,-0.625,0.25,0.75
1480623799492756,-0.75,0.8125,0.75
1480623799521335,-1.125,1.125,0.5625
1480623799544393,-2,1.0625,0.8125
1480623799552916,-2.125,0.6875,0.625
1480623799574474,-0.1875,0.5625,-0.0625
1480623799596531,1.0625,1.25,0.1875
1480623799612574,2,1.3125,0.125
1480623799633631,1.1875,0.375,0.3125
1480623799656191,0.6875,0.1875,0.8125
1480623799672736,-0.25,1,0.6875
1480623799693790,1.8125,1.125,0.3125
1480623799716351,2,1.8125,0.3125
1480623799734399,2.4375,0.625,0.8125
1480623799753953,2.3125,0.25,0.75
1480623799776513,2.75,0.4375,-0.375
1480623799815615,1,-0.125,-0.6875
1480623799818122,-0.625,-0.375,-0.9375
1480623799836674,-0.25,-0.125,-0.6875
1480623799858731,1.4375,0,-0.1875
1480623799881289,-0.3125,0.25,-0.625
1480623799896330,-1.25,-0.0625,-1.4375
1480623799920397,-1.75,0.5625,-1.125
1480623799933930,-4.625,-0.125,-0.5625
1480623799956490,-8,-4.6875,0
1480623799975540,-6.75,-5.3125,0.875
1480623800001610,-4.6875,-6.25,0.875
1480623800016148,-1.125,-6.625,-2.0625
1480623800034197,4.9375,-7,-3.5
1480623800061268,10.375,-6.8125,-3.125
1480623800083829,10.875,-5.125,-3.125
1480623800094356,12.5,-5.875,-5.3125
1480623800113909,5.3125,-1.625,-5.5625
1480623800136470,-1.75,-0.5625,-7.5625
1480623800154518,-8.0625,-1.4375,-6.4375
1480623800174069,-1.8125,-3.125,-4.5
1480623800196127,1.8125,-3.8125,-4.625
1480623800214676,4.0625,-4.75,-7.6875
1480623800236738,-2.1875,-6.75,-9.0625
1480623800256287,-3.8125,-7.1875,-5.8125
1480623800275338,-1.25,-8.1875,-2.3125
1480623800293887,6.75,-11.4375,1.75
1480623800316448,15.0625,-13.3125,-1.625
1480623800340512,17.5625,-9.5625,-6.1875
1480623800362570,12.375,-4.625,-6.6875
1480623800376108,1.4375,-2.3125,-1.625
1480623800394154,-2.8125,-3.9375,3.1875
1480623800415210,-4.875,-4.875,1.5625
1480623800436266,-4,-0.875,0.6875
1480623800466847,-0.1875,5,0.4375
1480623800475370,4.6875,7.9375,-0.75
1480623800497930,-0.625,6.9375,2
1480623800514475,-1.125,4.25,2.0625
1480623800535531,-0.25,3.6875,-0.125
1480623800556086,-0.25,3.4375,-1
1480623800575136,2.4375,2.8125,-1.25
1480623800595189,5.9375,2.625,-2.5625
1480623800617749,2.875,1.9375,-1.5
1480623800642314,1.375,0.4375,-0.4375
1480623800662869,2,0.3125,-0.4375
1480623800676407,2.5625,1.9375,-0.875
1480623800694453,2,2.625,-1.25
1480623800717013,0.4375,2.125,-1.1875
1480623800743583,-0.1875,1.625,-0.375
1480623800758624,1.0625,0.5,-0.125
1480623800776674,2.25,0.25,0.4375
1480623800796223,3.0625,0.4375,0.5
1480623800818784,2,0.625,0.25
1480623800836833,1.6875,-0.125,0.4375
1480623800863908,1.25,0.125,0.5
1480623800878944,0.375,0.4375,0.1875
1480623800896490,-0.375,0.5,0
1480623800916543,-1,0.25,0.3125
1480623800939104,-0.9375,0.1875,0.5625
1480623800957653,0.375,0.8125,1.375
1480623800976202,-0.0625,1.25,1.9375
1480623800998763,-0.1875,0.8125,1.5625
1480623801025332,-0.8125,0.5625,1.25
1480623801036366,-1.875,0.4375,1.125
1480623801066443,-0.3125,0.625,0.75
1480623801076971,0.5625,1.5625,0.25
1480623801106550,-1.3125,2.5,0.125
1480623801119083,-3.125,2.125,0.5
1480623801136630,-2.5625,1.125,1.0625
1480623801156181,-0.8125,0.25,0.8125
1480623801195786,-1.4375,0,0.375
1480623801198293,-1.0625,0.6875,0.375
1480623801216342,-0.1875,0.375,0.1875
1480623801255947,-0.875,-0.0625,0.0625
1480623801258453,0.3125,-0.375,0.0625
1480623801276501,0.625,-0.25,0.375
1480623801301569,0.125,-0.4375,0.1875
1480623801321623,0.25,-0.5625,-0.1875
1480623801337665,1.75,0.125,-0.3125
1480623801361728,1.625,0.5,-0.375
1480623801376769,0.0625,0.25,0.0625
1480623801397824,-1.0625,-0.5,0.75
1480623801421888,-0.625,0.3125,1.4375
1480623801436938,-0.75,1.3125,1.125
1480623801465505,0,1.125,0.25
1480623801478539,0.6875,0.8125,-0.1875
1480623801496587,-0.125,0.75,-0.0625
1480623801517643,-1.0625,0.4375,-0.0625
1480623801555746,-2.1875,0.125,-0.75
1480623801558252,-0.6875,0.25,-0.75
1480623801591840,0,0.6875,0.4375
1480623801606381,-1.0625,0.9375,1.0625
1480623801616907,-1.25,0.375,0.6875
1480623801639467,-1.3125,0.5,0.8125
1480623801659019,-0.5625,0.1875,0.9375
1480623801676566,-1.125,0.125,0.4375
1480623801699125,0.25,-0.1875,-0.375
1480623801721686,1.6875,-0.1875,-0.8125
1480623801748758,0.6875,-0.125,-0.3125
1480623801759286,0.625,-0.5,-0.6875
1480623801778837,-0.4375,-0.25,-0.375
1480623801804406,-0.6875,0.1875,0.0625
1480623801835489,-0.125,0.75,0.375
1480623801840502,-0.875,0.9375,0.5625
1480623801857046,-1.4375,1.125,-0.25
1480623801884120,-1.5,1.3125,0
1480623801906179,0.0625,1.375,0.1875
1480623801916705,-0.5,1.9375,0.8125
1480623801939265,-1.375,2.125,1.0625
1480623801958816,-1.4375,1.375,0.5
1480623801976865,-1.625,0.6875,0.5625
1480623801999425,-1.3125,0.375,0.3125
1480623802020485,-0.1875,0.75,-0.3125
1480623802037027,-0.0625,0.3125,-0.6875
1480623802059084,0.1875,-0.5,-0.4375
1480623802078635,-0.125,-0.6875,0
1480623802096683,1.1875,-0.5,0
1480623802119244,0.3125,-0.1875,-0.0625
1480623802163361,-1.25,-0.3125,-0.3125
1480623802165867,-1.25,-0.1875,-0.125
1480623802186927,-0.4375,-0.125,0.25
1480623802198956,0.0625,0.25,-0.125
1480623802216503,-0.1875,0.5,-0.125
1480623802239563,1,0.375,-0.5625
1480623802267639,0.9375,0.5625,-1
1480623802276662,0.75,0.125,0
1480623802305238,0.8125,1.25,0.25
1480623802320283,1.75,1.5625,0.8125
1480623802342838,-0.625,0.875,0.8125
1480623802359383,-1.375,0.4375,0.1875
1480623802380440,0.125,-0.375,0.4375
1480623802418540,-0.25,-0.1875,-0.3125
1480623802421046,-0.625,0.0625,-0.875
1480623802441602,-1.1875,0.25,-0.875
1480623802468673,-0.375,0.6875,-0.625
1480623802479201,0.6875,0.5,0
1480623802506274,1.5,0.3125,0.125
1480623802522817,1.0625,0.25,0.0625
1480623802545377,-1,0.0625,0.0625
1480623802561921,-2.5625,-0.4375,0.5625
1480623802581473,-1.8125,-0.4375,0.6875
1480623802599526,-0.875,0,0.125
1480623802621581,0.5,0.6875,-0.375
1480623802641137,2.4375,0.5,-0.4375
1480623802663692,2.5625,-0.1875,-0.25
1480623802686252,2,-0.125,-0.1875
1480623802718839,1.375,-0.1875,-0.125
1480623802723853,-0.4375,-0.3125,0.0625
1480623802749420,-1.125,0,0.5
1480623802764460,0.125,0.125,0.75
1480623802778999,0.6875,0.375,1
1480623802801559,0.75,0.1875,0.3125
1480623802821613,0.5625,0.875,-0.75
1480623802839159,-1,0.8125,-0.375
1480623802861719,-1.75,0.875,0.1875
1480623802881270,-1,0.5625,0.125
1480623802899820,-0.4375,0.625,-0.125
1480623802921880,-0.625,0.875,0.6875
1480623802941431,-1.625,1.625,1.6875
1480623802966497,0.8125,1.8125,1.5
1480623802997079,-1.0625,1.375,1.125
1480623803003097,-3.25,0.75,0.375
1480623803025153,-3,0.5,0.5
1480623803041699,-0.9375,0.375,1.375
1480623803061752,1.8125,-0.125,0.375
1480623803079298,1.5,0,-0.5625
1480623803101859,-1.375,-0.375,0.6875
1480623803138456,-0.5,-1.375,1.3125
1480623803140962,1.9375,-1.875,1.125
1480623803161516,2.9375,-1.875,1.9375
1480623803190092,1.375,-0.3125,1.9375
1480623803199116,-2.5625,1.25,1.25
1480623803221677,-6.4375,0.9375,1.4375
1480623803242733,-5.5,0.625,1.0625
1480623803259277,-1.25,1.375,1.375
1480623803286350,1.5,1.5625,2.4375
1480623803302895,1.4375,1,2.1875
1480623803319437,-0.5625,0.6875,1.4375
1480623803341997,-3.625,0.4375,1.3125
1480623803378092,-3.4375,0,0.6875
1480623803380599,-1.5,-0.8125,-0.25
1480623803401655,1.0625,-0.875,-0.375
1480623803439758,1.5625,-0.6875,-0.375
1480623803443770,1.4375,-0.875,-1
1480623803467832,0.3125,-1.125,-0.5
1480623803490391,-0.3125,-0.9375,0.5
1480623803499415,-0.6875,-0.6875,0.5
1480623803527489,0.0625,-0.5,0.4375
1480623803544034,0.8125,-0.625,0.875
1480623803564589,0.4375,-0.0625,1.25
1480623803581635,-0.0625,0.0625,0.125
1480623803610711,1.125,-0.4375,-0.125
1480623803624247,1.3125,-1.1875,0.625
1480623803640798,0.5625,-1,1.1875
1480623803663352,-0.5625,-0.375,0.6875
1480623803691927,-2.75,-0.6875,-1
1480623803714487,-2,-0.875,-1.6875
1480623803723512,0.375,-0.6875,-1.1875
1480623803752088,2.4375,-1.0625,-0.8125
1480623803768632,2.25,-0.8125,-0.3125
1480623803783671,1.9375,-0.6875,0.1875
1480623803804226,0.875,-0.5,0.375
1480623803820772,-0.6875,-1.125,0.4375
1480623803843330,-2.5,-1.3125,0.375
1480623803864386,-1.375,-1.375,-0.3125
1480623803880930,-0.0625,-1,-1.0625
1480623803911011,1.125,-0.625,-1.0625
1480623803931564,0.9375,0,-0.4375
1480623803942594,0.75,-0.375,-0.1875
1480623803969671,0.875,-0.6875,-0.0625
1480623803993228,0,-0.6875,1
1480623804000750,-1.8125,-0.1875,2
1480623804023810,-3.375,0.0625,1.5
1480623804044866,-2.9375,0.25,-1.8125
1480623804061410,-3,-0.125,-1.8125
1480623804083970,-2.0625,-1,-0.8125
1480623804104525,1.25,-1.1875,-1.1875
1480623804121070,2.8125,-0.75,-0.625
1480623804143630,0.9375,-0.25,0.0625
1480623804164685,-1.9375,-0.0625,0.4375
1480623804180728,-1.5,-0.3125,0.1875
1480623804218332,-0.9375,-0.25,-0.75
1480623804224349,-0.5625,0.625,-1.25
1480623804246909,-0.0625,0.75,-0.875
1480623804278492,0.25,1.125,-0.1875
1480623804284509,0.375,1.5625,-0.0625
1480623804301053,-0.75,0.9375,-1.1875
1480623804323614,-0.75,0,-1.5
1480623804344669,-0.1875,-0.3125,-0.375
1480623804360712,-0.125,-0.375,-0.375
1480623804383773,-1.4375,-0.625,-1.1875
1480623804404327,-1,-0.625,-0.375
1480623804426887,-0.625,0.0625,0.3125
1480623804443432,-0.6875,0.8125,0
1480623804465490,-1.5625,0.9375,-0.3125
1480623804496072,-1.1875,0.875,0
1480623804503592,-0.875,1.125,0.375
1480623804526653,-2.1875,0.6875,0.375
1480623804541197,-3.6875,0.3125,-0.125
1480623804564253,-4.625,0.6875,-0.375
1480623804585813,-4.375,0.6875,-0.3125
1480623804600850,-5.0625,1.75,0.25
1480623804623410,-5.875,1.5,1.1875
1480623804645971,-6.375,0.25,0.5
1480623804660509,-3.8125,-0.5,-0.0625
1480623804684573,-4.5625,1.25,0.125
1480623804706131,-7.3125,1.625,0.1875
1480623804720171,-7.25,1.1875,-0.1875
1480623804743229,-7.125,0.4375,0
1480623804765790,-4.5,0.125,-0.625
1480623804780328,-2.5625,0.875,-0.8125
1480623804804394,-3.5,1.0625,-1.5625
1480623804826450,-4,1.9375,-1.125
1480623804847006,-8,2.6875,0.125
1480623804863550,-14.5,3.1875,1.3125
1480623804886113,-15.875,2.75,2.5
1480623804900147,-11.3125,4.5625,3.1875
1480623804923208,-8,4,1.5625
1480623804945768,-6.4375,3,-0.375
1480623804966824,-5.4375,2.125,-0.1875
1480623804991389,-1.0625,1.125,0.3125
1480623805005929,1.6875,1.625,0.25
1480623805026984,0.75,0.9375,-1.4375
1480623805051048,1.8125,-1.3125,-3.125
1480623805066088,5.9375,-3,-3.3125
1480623805087144,9.5,-3.0625,-2.625
1480623805103190,7.9375,-5.875,-2.375
1480623805125747,11.375,-9.6875,-3.0625
1480623805147304,21.625,-11.375,-4.75
1480623805163849,25.375,-10.0625,-4
1480623805185908,19.875,-9.9375,-0.8125
1480623805206963,15.125,-12.5,-2.3125
1480623805223507,14.3125,-15.1875,-4.125
1480623805246067,13.5,-15.1875,-5
1480623805268627,7.8125,-7.875,-3.75
1480623805283165,4.25,-1,0.25
1480623805305727,-6.3125,1.125,1.8125
1480623805329289,-6.9375,-0.5625,1.0625
1480623805343326,-3.75,0.375,1.5625
1480623805365885,4,2.6875,0.9375
1480623805386944,6.0625,6.375,-1.9375
1480623805403486,-0.0625,2.8125,-2.5
1480623805432062,-1.0625,0.5,0.4375
1480623805449108,-3.3125,-0.25,2.375
1480623805463646,-6.3125,0.3125,-0.1875
1480623805486209,-4.375,-0.25,-1.3125
1480623805508265,1.0625,1.1875,-1.25
1480623805523304,2.4375,3.0625,-1.4375
1480623805545864,-2.875,2.1875,-0.25
1480623805575945,-6.25,1.3125,-0.25
1480623805582963,-4.875,2.6875,-0.375
1480623805606526,-3.625,3.75,0.0625
1480623805634601,-2.8125,3.1875,-0.5
1480623805642623,0.3125,2.6875,-0.125
1480623805666184,4.3125,2.125,0
1480623805688244,4.3125,0.8125,0.3125
1480623805710803,2.3125,0.1875,-0.5625
1480623805725845,-2.875,-0.6875,-1.1875
1480623805748905,-5,-0.9375,-0.0625
1480623805762941,-6.6875,-0.8125,0.5
1480623805786007,-3.5625,-0.6875,-0.0625
1480623805824606,-0.1875,0.125,-0.8125
1480623805829619,1.375,1.25,-0.25
1480623805846664,0,1.5625,0.125
1480623805868223,-2.0625,0.375,0.5
1480623805882760,-2.875,0.125,0.625
1480623805911837,-1.125,0.625,0.5
1480623805928382,-0.3125,1.125,0
1480623805949438,-1.4375,1.25,0.5
1480623805965983,-1.6875,0.75,1.4375
1480623805988543,-1.625,0.8125,1.4375
1480623806009599,-0.1875,1.4375,0.5
1480623806026142,-0.125,1.8125,0.625
1480623806048201,-1.4375,1.3125,1.1875
1480623806070259,-1.1875,1.375,1.25
1480623806100841,-1.625,1.125,1.375
1480623806108361,-2,0.9375,1.5625
1480623806129418,-1.625,0.75,1.875
1480623806145961,-1.125,0.3125,2.6875
1480623806169026,0.375,0.75,2.75
1480623806191081,-2,2.3125,1.4375
1480623806206121,-4.625,1.8125,1.875
1480623806228180,-3.875,0.6875,1.9375
1480623806249236,-2,1,1.4375
1480623806265779,0,0.75,0.6875
1480623806288339,-2.1875,1.5625,0.6875
1480623806309399,-3.4375,1.1875,1.1875
1480623806326441,-3.1875,0.1875,1
1480623806348500,-1.25,-0.5,0.9375
1480623806378580,0.5625,-0.3125,1
1480623806385098,2.75,0.25,1.125
1480623806409162,5.0625,-0.625,1.1875
1480623806430718,8.625,-0.875,0
1480623806445758,10.5,0.125,-1.5625
1480623806468822,9.6875,0.75,-1.8125
1480623806490879,7.375,1.25,-1.1875
1480623806505919,5.4375,0.125,-0.4375
1480623806528482,-0.0625,1.125,0.1875
1480623806551540,-4.125,1.8125,0.125
1480623806566078,-4.8125,1,1
1480623806594153,0.75,-0.75,1
1480623806610697,4.75,-0.1875,0.8125
1480623806631753,4.75,1.5,1.25
1480623806655317,1.375,2.5625,0.125
1480623806670866,-3.8125,1.25,-0.5
1480623806685396,-4.9375,-0.75,-0.125
1480623806708458,-0.5,-1.5,-0.25
1480623806731018,1.4375,-1.75,-0.0625
1480623806745055,3.5,-1.5625,0.0625
1480623806768618,-0.1875,-0.75,-0.1875
1480623806797193,-0.1875,-2.125,-1.6875
1480623806805215,-0.125,-5,-2.125
1480623806828275,1.1875,-6.6875,-0.4375
1480623806850836,-6.5625,-1.75,1.5625
1480623806873898,-12.25,3.4375,2.0625
1480623806888439,-12.6875,2.875,0.3125
1480623806910996,-1.4375,-0.625,0.3125
1480623806932054,8.375,-1.375,-0.6875
1480623806948596,13.25,0.5625,-3.6875
1480623806971156,10.0625,1.125,-4.6875
1480623806992213,0.9375,-0.3125,-1.75
1480623807008255,-4.625,-1.1875,0.6875
1480623807030815,-6.4375,-0.0625,0.5625
1480623807051871,-8.25,2.1875,0.625
1480623807068415,-6.375,1.3125,1.0625
1480623807096990,-0.3125,0.25,1.625
1480623807112031,4.125,0.875,0.875
1480623807128575,3.625,0.9375,-0.1875
1480623807150634,0.375,0.5,-0.25
1480623807173194,-2.625,0.6875,1.0625
1480623807188235,-1.6875,0.1875,0.6875
1480623807210794,0.6875,-0.5,-0.5625
1480623807231850,-0.1875,-0.4375,0
1480623807248394,-3.8125,0.1875,0.6875
1480623807278474,-5.375,0.75,0.875
1480623807292010,-5.875,1.125,1.125
1480623807309055,-4.8125,1.25,1.5
1480623807331114,-2.8125,1.25,1.75
1480623807353674,-1.3125,1.4375,1.4375
1480623807368213,0.0625,0.5625,0.625
1480623807390772,0.625,-0.0625,0.375
1480623807413333,0.6875,-0.8125,0.375
1480623807428373,1.9375,-2.25,0.375
1480623807451434,3.125,-3.25,0.375
1480623807481514,4.75,-3.6875,0.6875
1480623807488031,4.875,-2.8125,0.875
1480623807519114,2.1875,-1.875,0.4375
1480623807533653,-0.3125,-3.0625,1.125
1480623807548192,-1.4375,-2.375,1.875
1480623807571253,-1.3125,-0.0625,1.5625
1480623807593312,-2.3125,0.375,0.4375
1480623807614367,-3.5,-0.6875,0.1875
1480623807631915,-3.9375,-0.25,1.25
1480623807653471,-2.8125,-0.25,1.5625
1480623807668011,-3.25,-1.1875,0.5625
1480623807691072,-2.875,-1.4375,-1.3125
1480623807713632,-0.1875,-1,-1.3125
1480623807742208,1.4375,0.0625,0.125
1480623807750732,0.75,0.5,0.25
1480623807774293,-1.25,0.125,-0.0625
1480623807794346,-2.75,0.375,1.25
1480623807810890,-2.375,0.5625,0.75
1480623807833450,-2.5,0.5,-0.5
1480623807856011,-1.1875,0.25,0.0625
1480623807871051,0,0.9375,0.4375
1480623807893610,1.125,0.875,0.4375
1480623807914666,1.0625,0,0.875
1480623807938229,0.8125,-0.125,0.4375
1480623807954773,1.3125,1.375,-0.5625
1480623807974326,1.1875,2.375,-0.625
1480623807990870,-0.125,1.25,0.4375
1480623808013429,1.625,-0.3125,0.125
1480623808034486,4.1875,-0.625,-0.5625
1480623808051030,4.9375,-0.625,-0.4375
1480623808074094,2.625,0.3125,-0.1875
1480623808103168,-1.1875,0.75,0.75
1480623808112192,-2.875,-0.25,1.875
1480623808133248,-1.8125,-0.8125,0.8125
1480623808154304,-0.125,-0.1875,-0.5625
1480623808170848,1.3125,0,-0.4375
1480623808199424,1.8125,-0.4375,0
1480623808214464,1,-0.1875,0.3125
1480623808231008,-0.3125,-0.5625,0.375
1480623808253568,-4.75,-0.375,-0.1875
1480623808276128,0.3125,2.1875,-0.375
1480623808290666,6.0625,3.8125,0.9375
1480623808319744,3.6875,1.0625,0.5625
1480623808335792,-3.4375,0.5625,-0.125
1480623808358347,-9.6875,-0.25,-1.25
1480623808374390,-5.625,-2.125,-0.9375
1480623808395948,0.6875,-0.125,-0.25
1480623808411488,-6.5625,1.875,0.1875
1480623808433548,-5.6875,2.875,0.6875
1480623808463626,6.875,1.5,0.0625
1480623808486190,10.9375,-0.6875,1.0625
1480623808493205,8.0625,0.75,-1.1875
1480623808515765,-1.9375,0.5,-2.5625
1480623808530304,-6.0625,-0.6875,0.25
1480623808553867,-10.0625,1.3125,3
1480623808575925,-9.875,2.1875,1.8125
1480623808596981,-3.4375,0,-0.75
1480623808613526,8.4375,-1.875,-0.4375
1480623808636088,10.6875,1.375,-1.8125
1480623808657142,5,0.375,-4.75
1480623808673691,-5.6875,0.25,-1.0625
1480623808695744,-9.625,0.8125,2.9375
1480623808710786,-1.5625,0.25,2.125
1480623808740865,4,-0.625,0.75
1480623808755905,4.875,1,-0.375
1480623808776960,7.5,3,-0.6875
1480623808793504,-7,3.4375,1.125
1480623808831606,-24.25,3.9375,4.5625
1480623808837120,-14,4.6875,6.375
1480623808853164,-7.9375,1.5625,5.375
1480623808875723,0.3125,-3.75,0.0625
1480623808897280,14.75,-1.25,-4.1875
1480623808913324,16.3125,0.125,-4.75
1480623808936386,7.25,-3.375,-1.6875
1480623808956938,-0.5625,-2.25,-1.625
1480623808973985,-2.75,0.6875,-1.4375
1480623808996043,-5.25,-1,1.0625
1480623809017600,1.6875,-3.125,-0.375
1480623809039661,6.875,-1.9375,-1.9375
1480623809055702,4.6875,-1.4375,-1.125
1480623809076757,5,-2.0625,-1.0625
1480623809099318,3.375,-1.0625,-0.25
1480623809122880,0.375,0.3125,-0.9375
1480623809136918,-2.625,2.25,-1.125
1480623809153462,-3,1.375,-0.625
1480623809176523,-1.0625,0.9375,0.125
1480623809197078,-0.0625,1.1875,1.4375
1480623809221143,0.75,1.3125,1.1875
1480623809243201,1.75,0.3125,-0.0625
1480623809258240,1.625,-0.3125,-0.4375
1480623809274785,1.8125,-1.125,0
1480623809295840,3,-1.5,0.3125
1480623809318402,5,-1.9375,0.125
1480623809333943,4.8125,-2.8125,1.25
1480623809362016,2.125,-1.625,3.1875
1480623809378561,1.125,-0.3125,2.75
1480623809393601,-0.1875,0.875,0.6875
1480623809415659,-1.5625,0.3125,0.25
1480623809438221,-1.25,-0.5,1.625
1480623809452760,0.25,0.1875,1.6875
1480623809491360,1.75,0.3125,0.9375
1480623809498881,1.6875,-0.25,1
1480623809519438,1.0625,-0.6875,0.75
1480623809535980,2.4375,-0.9375,-0.0625
1480623809558540,2.875,-0.875,0.1875
1480623809573580,2.125,-0.75,0.875
1480623809596141,0.0625,-0.875,1.25
1480623809618703,-0.75,-1,1.375
1480623809632737,-1.9375,-0.5,1.75
1480623809657302,-1.625,0.0625,1
1480623809686382,-0.75,0.25,0.3125
1480623809706935,0.375,0.0625,0.5625
1480623809715959,0.5,0.625,1
1480623809738520,-1.0625,0.4375,1.4375
1480623809759573,-2.5,0.75,1.375
1480623809776119,-1.5,0.1875,1
1480623809798177,-0.625,0.3125,0.8125
1480623809820738,0.4375,0.8125,-0.1875
1480623809843798,1,1.3125,-0.125
1480623809858337,0.5625,0.75,0.625
1480623809879393,0.9375,0.3125,1.375
1480623809895937,0.1875,0,1
1480623809918500,-0.125,0.0625,0.125
1480623809939555,-0.375,0.625,-0.1875
1480623809963116,-0.625,0.0625,0.375
1480623809978156,0.5,-0.6875,0.1875
1480623809999212,1.1875,-0.5,0.0625
1480623810015756,0.5,0,0.125
1480623810038317,-0.0625,-0.375,0.8125
1480623810066892,0.0625,-0.625,0.75
1480623810075916,0.625,-0.1875,0.1875
1480623810098476,1,0.25,-0.25
1480623810127052,0.9375,-0.125,-0.625
1480623810136578,0.6875,-0.6875,-0.375
1480623810158635,0.875,-0.4375,0.3125
1480623810186711,0,-0.4375,0.4375
1480623810195734,-0.125,-0.5,-0.3125
1480623810218800,0.3125,-0.375,-0.1875
1480623810240856,-0.1875,-0.5,0.125
1480623810255895,-0.25,-0.3125,-0.3125
1480623810278957,-0.6875,-0.5625,-0.3125
1480623810301015,-0.1875,-0.3125,-0.75
1480623810315053,-0.1875,-0.1875,-0.8125
1480623810338615,-0.625,-0.375,-0.6875
1480623810361175,0.75,-0.625,-0.5625
1480623810375212,1.3125,-0.375,-1.0625
1480623810405794,0.1875,-0.375,-1.125
1480623810421335,-0.5625,-0.3125,-0.1875
1480623810441889,-0.375,0.0625,-0.125
1480623810458435,-0.4375,0.125,-0.25
1480623810488514,-0.4375,0.3125,-0.3125
1480623810495031,-0.75,0.4375,-0.5
1480623810518597,-0.9375,0.3125,-0.6875
1480623810540653,-1.5625,0.25,0.375
1480623810555194,-2.25,0.6875,0.125
1480623810578254,-3.375,1,-0.9375
1480623810600812,-2.875,1.25,-1.4375
1480623810615351,-1.3125,1.1875,-0.5625
1480623810638413,-3,1.25,0.5625
1480623810660972,-4.375,1.375,0.5625
1480623810683535,-4.3125,1.8125,-0.25
1480623810698573,-4.5,1,-0.0625
1480623810721133,-2.625,0.5,0
1480623810742188,-0.125,0,-0.5625
1480623810758733,1.1875,-0.0625,-0.25
1480623810780791,1.1875,0,-0.3125
1480623810801850,1.3125,0,-0.625
1480623810818394,0.5625,-0.3125,-0.375
1480623810840953,-0.0625,-0.125,-0.125
1480623810862509,0.3125,0,-0.5625
1480623810879052,0.5625,0.5,-0.5625
1480623810901615,0.25,0.5625,0.0625
1480623810921666,-0.3125,0.25,0.25
1480623810938210,-0.5625,0.125,0.0625
1480623810960769,-1.5,-0.375,-0.125
1480623810981826,-1.6875,-0.625,0
1480623810998370,-0.75,-1,-0.3125
1480623811020930,1.3125,-1.3125,-2
1480623811041986,2.4375,-2.3125,-3.0625
1480623811058530,2.5625,-3.5,-3.125
1480623811081091,0.75,-4.375,-3.625
1480623811102146,-6.4375,-3,-2.1875
1480623811119194,-11.1875,-0.8125,2.125
1480623811148269,-12.6875,-2.125,2.3125
1480623811163810,-4.75,-3.6875,-1
1480623811178349,7.375,-3.6875,-1.8125
1480623811201412,13.625,-1.4375,-2.625
1480623811223468,11.375,0.25,-2.625
1480623811238508,3.625,0.125,-1.25
1480623811261070,-0.625,0.125,0.3125
1480623811284130,-1.9375,0.1875,-0.125
1480623811297666,0.9375,0.8125,-0.1875
1480623811320728,5.1875,1.8125,-0.5
1480623811343291,8.375,3.8125,0.0625
1480623811357826,-0.8125,4.3125,1.5
1480623811382392,-6.5,1.75,2.875
1480623811403447,-2.4375,-0.4375,-0.4375
1480623811417988,-1.375,0.5625,-1.9375
1480623811441049,-4.625,1.375,-0.3125
1480623811463608,-0.25,3.8125,0.875
1480623811477645,12.6875,3.5,1.3125
1480623811507726,-1.0625,2.6875,3.1875
1480623811524269,-2.125,-4.5,0.5625
1480623811538307,-9.25,-1.0625,-1.5625
1480623811560867,-17.5,3.625,0
1480623811583427,-12.125,8.625,2.8125
1480623811597967,10.1875,3.125,2
1480623811621027,3.6875,-5.25,2.5
1480623811643086,2.875,-7.625,-2
1480623811665144,15.5,-4.0625,-7.75
1480623811680685,8,4.9375,-5.1875
1480623811703245,-5.125,12.75,-0.125
1480623811724301,-6.6875,8.1875,5.5625
1480623811740851,-13.25,-2,7
1480623811763405,-7.4375,-4.6875,1.8125
1480623811784461,6.1875,-3.9375,-3.875
1480623811823067,4.6875,-1.625,-5
1480623811833593,3.8125,-2.9375,-2.25
1480623811844622,4.75,-3.25,-0.9375
1480623811868190,-0.0625,-3.1875,-2.3125
1480623811883224,-2.1875,-4.5,-1.25
1480623811904280,-3.1875,-0.375,1.5625
1480623811920824,5.8125,3.875,5
1480623811943886,-2.6875,2.875,5.3125
1480623811964440,-11.375,0.125,-0.125
1480623811996024,-11.75,-1.3125,-2.8125
1480623812003544,-10.9375,-1.375,-2.0625
1480623812024600,-7.6875,1.125,-0.125
1480623812040643,-0.5625,-0.5,-0.8125
1480623812070724,2.625,-1.5625,-1.9375
1480623812093283,4.25,-0.75,-2.4375
1480623812101307,6.125,0.3125,-2.375
1480623812123363,6.75,1.4375,-2
1480623812153444,0.75,0.9375,-1.8125
1480623812160963,-7.125,-0.8125,-1.5625
1480623812184024,-7.6875,-1.75,-0.4375
1480623812206084,-3.375,-1.1875,-0.1875
1480623812220121,0.4375,1,-1.125
1480623812243181,2.9375,2.5,-1.1875
1480623812274266,4.0625,2.0625,-0.875
1480623812280280,2.6875,1.3125,-0.1875
1480623812303342,-3.125,0.625,1.5625
1480623812325902,-4.75,-0.4375,0.6875
1480623812340441,-2.4375,-0.3125,-0.75
1480623812371022,0.3125,0.4375,-0.375
1480623812386062,-0.4375,0.625,0.125
1480623812407122,0,0.875,-0.875
1480623812429678,-0.125,0.5625,-0.8125
1480623812446723,0.3125,-0.4375,-0.25
1480623812460260,-0.5,-0.125,-0.25
1480623812490840,-1.5625,0.6875,0.625
1480623812505882,-2,0.75,1.4375
1480623812520421,-1.9375,0.3125,1.125
1480623812551002,-0.75,-0.0625,0.1875
1480623812572056,0.0625,0,-0.125
1480623812586597,-0.625,0.25,0.5625
1480623812611662,-0.5625,0.0625,0.8125
1480623812625699,-0.1875,0.3125,0.5625
1480623812646755,-1.6875,0.375,0.375
1480623812663300,-1.5,0.375,-0.1875
1480623812685860,-0.625,0.3125,0.625
1480623812706916,0.5625,-0.0625,1.125
1480623812723961,0.25,-0.1875,0.1875
1480623812746020,-0.8125,0.625,-0.125
1480623812767075,-0.75,0.4375,0.3125
1480623812783620,0.4375,0.0625,0
1480623812805679,0.25,0.25,-0.9375
1480623812828238,-0.1875,0.25,-0.6875
1480623812843278,-0.9375,0.0625,-0.3125
1480623812873358,-0.1875,0,-0.6875
1480623812886894,0.125,0.375,-0.8125
1480623812903439,0.1875,0.625,-0.75
1480623812925999,0,0.6875,-0.125
1480623812947555,0.75,0.625,0.1875
1480623812963599,-0.3125,0.8125,-0.4375
1480623812986159,0.0625,1,-0.375
1480623813006714,0,1.125,0.25
1480623813030776,0.0625,1.0625,0.75
1480623813045817,-0.1875,1.375,0.8125
1480623813068379,-1.75,1.5625,1.375
1480623813090937,-5.0625,2.3125,1.4375
1480623813105978,-6.75,3.375,1.625
1480623813128537,-7.1875,1.8125,1.3125
1480623813143577,-12.625,-0.6875,1.9375
1480623813165636,-5.625,-2.625,0.875
1480623813188697,11.375,0.125,-0.625
1480623813210756,18.9375,0.1875,-2.0625
1480623813226798,17.4375,2.625,-2.5625
1480623813255876,4.125,0.6875,-1.1875
1480623813262894,-4.6875,-0.9375,1.25
1480623813285456,-2.375,-2.25,0.3125
1480623813309017,-2.5,-0.6875,-1.625
1480623813330073,-9.1875,1.5625,-0.75
1480623813346116,-6.0625,1.5,2.9375
1480623813368677,10.0625,-0.5625,3.1875
1480623813382713,14.0625,-1.125,1.375
1480623813405775,6.8125,-1.0625,-2.25
1480623813428335,2.1875,-0.875,-3.5625
1480623813442873,0.8125,-0.8125,-1.125
1480623813473962,-0.1875,-0.25,1.3125
1480623813488496,2.4375,0.9375,-0.0625
1480623813502533,6.75,0.1875,-1.3125
1480623813533615,5.375,1,-0.125
1480623813548654,-0.4375,-0.375,-1.1875
1480623813569210,-4.1875,-0.5625,-1.8125
1480623813593273,-5.5625,0.1875,0.3125
1480623813608316,-2.625,-0.6875,-0.8125
1480623813629369,-4.25,1,0.9375
1480623813653936,-4.6875,0.75,1.0625
1480623813668480,-1.125,0.25,0
1480623813707077,3,0.125,-0.375
1480623813712091,3,0.0625,0
1480623813728634,-0.0625,-0.0625,0.25
1480623813756710,-4.625,-0.5625,0.25
1480623813765732,-5.5625,-0.6875,1.25
1480623813788293,-2.4375,-0.25,0.4375
1480623813810852,1.625,1.25,-0.625
1480623813825894,1.5,1.625,-0.9375
1480623813848452,0.375,1.3125,0.9375
1480623813869508,0.6875,1.3125,1.875
1480623813886054,1.6875,1.25,0.625
1480623813908613,-0.125,0.875,-0.125
1480623813929668,-2.75,1.0625,0.9375
1480623813945711,-2,1.75,1.4375
1480623813975792,-7.375,2.0625,0.6875
1480623813991332,-14.125,1.5,1.125
1480623814011887,-6.8125,-1,0.0625
1480623814035951,2.75,-1.5625,-3.0625
1480623814050997,4.875,-0.6875,-2.5625
1480623814066041,6.875,-0.6875,-2.6875
1480623814088591,9.625,-0.3125,-2.8125
1480623814111653,3.5,0.0625,-0.8125
1480623814125690,-3.1875,-1.1875,0.9375
1480623814155770,-1.875,-1.3125,0.8125
1480623814173820,1.1875,-0.875,-0.1875
1480623814185349,4.1875,-1.0625,-0.125
1480623814208410,6.875,-1.0625,1.125
1480623814230468,6.625,-1,1
1480623814245007,2.4375,-1.375,1.3125
1480623814268572,-0.4375,-1.125,0.25
1480623814298650,0.0625,-0.8125,0.375
1480623814305168,1.0625,-0.8125,1
1480623814328228,3.4375,-0.0625,0.1875
1480623814350794,3.1875,0.25,0.3125
1480623814365327,1.0625,-0.0625,1.25
1480623814388390,-0.9375,-0.5625,1.3125
1480623814427493,-0.5,-0.3125,0
1480623814432005,-0.8125,-0.3125,-0.25
1480623814448549,0.25,-0.6875,0.375
1480623814493668,0.6875,-0.8125,0.625
1480623814496175,1.5625,-0.9375,0.5
1480623814508207,0.625,-0.6875,1
1480623814546309,0.375,-0.8125,1.375
1480623814551826,0.625,-1.25,0.625
1480623814568368,1.1875,-1.3125,0.25
1480623814590927,1.375,-1.0625,0.4375
1480623814619504,1.3125,-0.6875,0.5625
1480623814628528,-0.875,-0.25,0.5625
1480623814651092,-1.5625,-0.0625,0.3125
1480623814671642,-1.125,0.125,-0.125
1480623814688690,-0.8125,0.0625,-0.3125
1480623814710746,1.125,-0.25,0.1875
1480623814731804,1.75,-0.125,-0.1875
1480623814761380,0.125,-0.125,-0.5
1480623814773915,-0.9375,-0.3125,0.25
1480623814791963,-0.8125,-0.625,0.5625
1480623814822544,-0.125,-0.4375,-0.625
1480623814831066,0.875,-0.125,-1.1875
1480623814852123,1.4375,0.1875,-0.6875
1480623814868166,0.375,-0.25,0.625
1480623814890724,0.1875,-0.375,0.8125
1480623814911781,-0.3125,0,0.75
1480623814928827,-0.4375,0.1875,1
1480623814950388,0.1875,-0.0625,0.5
1480623814973947,0.625,-0.1875,-0.4375
1480623814988486,-0.1875,0.1875,-0.3125
1480623815011046,-1,-0.125,-0.75
1480623815041126,-0.4375,-0.125,-1.1875
1480623815048144,-0.5,0.0625,-0.1875
1480623815071205,-0.1875,0,0.6875
1480623815093264,-2.4375,1,-0.6875
1480623815107803,-8.6875,2.125,-2.1875
1480623815130865,-14.5625,1,-1.3125
1480623815153925,-17.4375,1.25,-1
1480623815174480,-10.0625,1.125,-1.625
1480623815191525,-9,2,-1.1875
1480623815213584,-7.125,2,-1.5
1480623815227622,-2.8125,3.125,-1.1875
1480623815251687,-2.5625,4.5625,0
1480623815274246,-6.5,3.8125,1.625
1480623815287784,-8.0625,1.75,2.125
1480623815310843,-2.9375,0.3125,1.125
1480623815338918,0.5625,0.25,1
1480623815349446,-0.6875,0.25,1.4375
1480623815371003,-0.625,0.375,-0.0625
1480623815402085,0.0625,1.0625,-0.4375
1480623815422139,-0.25,0.625,-0.3125
1480623815430661,0,0,-0.25
1480623815460741,0.3125,0.0625,1.0625
1480623815474282,1.75,-0.0625,1.1875
1480623815490823,2.875,0,0.375
1480623815513883,2.0625,-0.3125,-0.1875
1480623815534441,-0.1875,-0.4375,1
1480623815551485,-1.625,-0.375,1.5
1480623815574546,0.125,0.5,-0.4375
1480623815596603,1.375,0.75,-0.1875
1480623815610641,-0.3125,0.125,0.9375
1480623815633201,1.625,-1.125,0.8125
1480623815654257,1.75,0.0625,0.875
1480623815670800,-1.9375,2.375,1.25
1480623815693360,-12.875,5.875,4.4375
1480623815714416,-32.5625,2.9375,7.5
1480623815730459,-33.4375,1.3125,0.8125
1480623815761041,-18.5625,0.9375,-1.1875
1480623815774576,-1.875,-0.3125,-3.125
1480623815790619,15.75,2.5625,-6
1480623815813179,8.125,-0.375,-1.875
1480623815834736,-8.1875,-0.3125,2.5
1480623815850783,-5.3125,1.4375,4.75
1480623815880859,-1.4375,1.375,3.4375
1480623815903419,5.0625,0.3125,-0.9375
1480623815910940,13.125,3.625,-3.6875
1480623815934003,10.5625,6.125,-5.5
1480623815956560,-2.875,1.9375,-3.6875
1480623815971099,-1.625,2,3.25
1480623815995163,-1,0.3125,4.0625
1480623816016221,-1.75,-4,1.0625
1480623816036774,5,-6.3125,-1.75
1480623816066857,5.125,-6.1875,-0.5625
1480623816091920,-1.6875,1.875,2.5
1480623816096934,-9.8125,5.8125,5
1480623816113483,-23,1.375,3.625
1480623816143558,-21.9375,-1.5625,-1.5625
1480623816158599,1.375,-1.5625,-6.375
1480623816187175,21.5,-1.875,-4.125
1480623816195697,14.125,-0.0625,0.6875
1480623816216753,-4,2.1875,1.25
1480623816233300,-8.0625,2.4375,2.6875
1480623816255858,-8.875,-1,3.6875
1480623816270395,-8.6875,-2,-1
1480623816293457,6.625,-2.625,-5.5625
1480623816316518,9.25,0.125,-2.875
1480623816331057,2.6875,5.1875,4.25
1480623816368657,-3.5,4.25,6.8125
1480623816383196,-13.625,-1.5,3.4375
1480623816396732,-7.5,-3.0625,0.25
1480623816413276,8.125,-0.5,-1.875
1480623816435836,12.8125,-2.4375,-5.125
1480623816456891,16.375,-5.25,-5
1480623816473937,21.0625,-5.0625,-4.625
1480623816496998,17,1.4375,-1.25
1480623816517054,6.5625,3.3125,1.0625
1480623816534101,-17.9375,0.4375,3.25
1480623816563174,-17.8125,-5.375,0.6875
1480623816593756,-1.6875,-6.5,-1.125
1480623816596262,5.125,-3.75,-2.125
1480623816616316,6.6875,1.75,-1.1875
1480623816646396,8.3125,1.6875,-0.8125
1480623816660935,-3.875,-0.4375,-0.375
1480623816675975,-11.6875,-1.5625,-3
1480623816698535,1.1875,-1.5625,-3.125
1480623816713574,10.3125,-1.8125,-1.1875
1480623816735633,16.5625,0.25,-0.5625
1480623816756689,13.5,2.3125,-1.9375
1480623816773736,3.9375,-0.9375,-2.0625
1480623816796294,1.375,0.0625,2.4375
1480623816817854,4.3125,3.75,6.625
1480623816833394,-12.3125,6.4375,4.375
1480623816862972,-28.8125,1.9375,-1
1480623816878517,-18.8125,-0.875,-2.5625
1480623816893553,1.5625,-1.8125,-3.125
1480623816915612,13.1875,-3.0625,-2.25
1480623816938172,7.875,-3.625,-1.9375
1480623816961234,7.1875,2.625,2.125
1480623816976273,1.1875,3.4375,3.8125
1480623816998332,-18.4375,1.875,-0.125
1480623817012871,-17.8125,-4.5625,-4.8125
1480623817035932,6.6875,-6.8125,-4.8125
1480623817064508,18.5625,-2.125,-2.9375
1480623817073535,12.1875,4.5625,0
1480623817096594,1.5,5.4375,3.5
1480623817148732,-15.8125,1.9375,4.4375
1480623817151242,-23,-2.25,2.9375
1480623817157254,3.5,-5.75,-3.5
1480623817178311,13.375,-0.75,-3
1480623817199367,6.375,8,2.3125
1480623817216412,-3.4375,10.875,5.8125
1480623817238472,-27.125,5.0625,3.375
1480623817267049,-33.25,-2.375,2.5625
1480623817276573,1.25,-10.9375,-3.375
1480623817298631,25.625,-8.6875,-7.5
1480623817320190,28.25,5.1875,-2.5
1480623817341749,6.5,15,4.75
1480623817358289,-28.25,9.3125,4.3125
1480623817380850,-45.75,0.5625,3.0625
1480623817395890,-21.5,-6.75,0.4375
1480623817418450,15.625,-8,-4.8125
1480623817439506,29.5625,-4.875,-5.6875
1480623817456050,16.5,3.875,2.8125
1480623817478610,-1.625,6.125,5.4375
1480623817499666,-17.4375,1.0625,1.375
1480623817515709,-12.0625,-0.625,-0.9375
1480623817546290,13,-3.625,-4.75
1480623817567848,20.25,-5.4375,-5.75
1480623817575868,18.125,-4.75,-1.375
1480623817598930,5.5,-0.25,4
1480623817619484,-2,1.0625,2.5625
1480623817636029,-6.6875,1.8125,0.125
1480623817658087,-3.0625,2.6875,0
1480623817679644,-6.3125,4.75,-0.8125
1480623817695688,-5.5,2.9375,-2.75
1480623817718749,-0.625,-3.25,-3.125
1480623817723762,10.25,-3.1875,-2.9375
1480623817747826,16.1875,-1,-3.8125
1480623817761362,13.4375,-0.375,-2.3125
1480623817783925,0.375,-2,-1.1875
1480623817806484,-7.9375,-2.375,-1.4375
1480623817824028,-8.4375,-2.875,-0.3125
1480623817845085,-1,-2.6875,-0.125
1480623817867645,5.75,-1.1875,-1.5625
1480623817888701,5.9375,-0.625,-3.4375
1480623817903741,4.5625,0.0625,-2.9375
1480623817926301,4.8125,1.6875,-1.25
1480623817942845,2.75,0.6875,-0.0625
1480623817963900,-1.375,-0.875,0.5
1480623817986461,-1.25,-1.375,0.3125
1480623818008520,1.5,-0.375,-1
1480623818023559,2.125,0.125,-1.25
1480623818046119,-2.3125,0.125,-0.1875
1480623818062663,-1.25,0.5,1.1875
1480623818083738,-1.5,1.1875,1.4375
1480623818114301,-2.5,1.5,1.5
1480623818124328,-1.9375,0.125,1.875
1480623818143879,-1.5625,0.375,1.625
1480623818174461,1.3125,0.25,1.4375
1480623818182483,-0.0625,0.0625,1.8125
1480623818203539,0.5,-0.4375,0.8125
1480623818234623,2.4375,-0.75,0.1875
1480623818242643,3.3125,-1.75,0.3125
1480623818263699,6.75,-2.375,-0.0625
1480623818286259,8.5,-2.0625,0.125
1480623818311826,6.25,-1.4375,0.875
1480623818323858,1.4375,-1.5,2.125
1480623818353939,-2.5,-2.5,2.0625
1480623818363965,-3.125,-2.5,2
1480623818384022,1.3125,-2.875,1.5625
1480623818406077,6.5,-2.375,0.5
1480623818422621,7.1875,-0.6875,0.875
1480623818443677,3.3125,0.25,1.25
1480623818474259,-1.75,-0.125,0.875
1480623818482782,-2.75,-0.25,0.1875
1480623818511357,-1.4375,0.25,-0.125
1480623818526397,0,0.1875,0.375
1480623818543945,0.8125,-0.5,0.3125
1480623818566506,0.3125,-0.6875,-0.75
1480623818589064,-1.125,-1.3125,0.25
1480623818604104,-1.625,-1.1875,-0.3125
1480623818623656,-0.125,-0.6875,-1.75
1480623818653735,0.9375,0.125,-0.75
1480623818664264,0.75,-0.4375,-0.0625
1480623818683818,0.75,0.1875,-0.625
1480623818708383,-1.125,-0.1875,0.4375
1480623818728936,-0.8125,0,-0.125
1480623818743475,-0.625,0.375,-1.375
1480623818766540,-0.625,0.5625,-0.8125
1480623818791605,-0.875,0.4375,-0.25
1480623818806643,-1.125,0.8125,-0.875
1480623818826194,-1.75,0.875,-0.375
1480623818848755,-1.8125,0.875,0.4375
1480623818863804,-0.3125,1.3125,0.875
1480623818886356,-0.125,1.5625,0.9375
1480623818917442,-1.25,1.75,0.75
1480623818923955,-1.5,1.4375,0.25
1480623818946515,-2.5,1.0625,0.25
1480623818977597,-1.125,0.9375,0.8125
1480623818983616,-2,0.875,1
1480623819009182,-0.1875,0.625,-0.5
1480623819031741,0.875,0.375,-0.75
1480623819043773,-0.1875,0.3125,0.0625
1480623819066334,0.8125,-0.125,-0.1875
1480623819088895,0.375,-0.3125,-0.25
1480623819106442,0.1875,-0.5625,-0.25
1480623819125992,-0.75,-0.1875,-0.5625
1480623819148553,-0.125,-0.5,-0.3125
1480623819163592,-0.4375,-0.1875,-0.25
1480623819186154,-0.25,0.125,-0.3125
1480623819211720,-2.0625,0.625,-0.875
1480623819231272,-2.3125,2.3125,-1
1480623819246312,-4.9375,4.0625,0.75
1480623819268873,-6.75,2.3125,2
1480623819283916,-16.75,1.5,1.75
1480623819305972,-11.75,-0.4375,-0.5625
1480623819328531,-0.75,-0.75,-2.625
1480623819345075,-5.25,0.1875,0.8125
1480623819366132,-17.75,3.875,0.375
1480623819396712,-3.4375,6.125,-1.0625
1480623819411251,19.5,1.1875,3.4375
1480623819426792,4.9375,0.375,4.8125
1480623819448851,-16.0625,-1.125,-2.75
1480623819481940,-2.6875,-4,-6.5
1480623819487456,15.5,-2.4375,-2.625
1480623819508512,1.375,4.0625,-0.8125
1480623819525055,-4.9375,4.875,0.1875
1480623819546110,-0.125,-0.375,3.125
1480623819568694,-7.5,-2.6875,5.25
1480623819586718,-10,-4.0625,-0.625
1480623819606271,7.75,-6.4375,-6.375
1480623819628830,9.5625,-0.375,-3.25
1480623819645374,3.9375,4.5625,1.125
1480623819666433,1.625,3.75,3.25
1480623819689992,-14.25,2.25,2.75
1480623819706537,-22.4375,-1.8125,1.4375
1480623819729097,1.5625,-2.3125,-2.8125
1480623819766699,9.875,-1.125,-1.1875
1480623819771209,4.25,6.9375,3.75
1480623819789257,3.8125,10,9.25
1480623819808809,-17.8125,4.125,5.6875
1480623819831368,-25.75,-0.6875,0.125
1480623819846408,-3.5,-6.75,-1.875
1480623819876489,9.4375,-4.8125,-1.5
1480623819908072,5.75,5.1875,-0.1875
1480623819910580,-4.9375,11.25,4.1875
1480623819928628,-17.125,2.6875,7.1875
1480623819951188,-20.625,-4.9375,4.0625
1480623819966230,-7.625,-2.25,-1
1480623819988788,18.375,-3.25,-4.0625
1480623820011348,12.625,-2.6875,-3.75
1480623820026388,-0.625,3.875,0.8125
1480623820048949,-8.5625,5.6875,4.9375
1480623820067497,-17.375,1.9375,4.75
1480623820086047,-13.1875,-3.4375,-0.125
1480623820108608,3.1875,-5.3125,-3.25
1480623820126654,5.75,-0.0625,-1.9375
1480623820146207,-4.25,6.5625,2.75
1480623820168767,-15.5625,6.125,7.6875
1480623820191328,-19.9375,0.375,6.4375
1480623820206367,-12.75,-6.5625,-0.9375
1480623820229929,19.6875,-11.375,-6.3125
1480623820252489,24.1875,-4.1875,-6.0625
1480623820274140,6.5,9.3125,-1.625
1480623820288586,-10.6875,9.5,7.6875
1480623820319668,-22,-0.3125,8.75
1480623820329193,-8.9375,-3.875,3.75
1480623820364788,11.625,-3.875,-4.6875
1480623820379326,24.75,-3.5,-11.125
1480623820395369,29.25,-9.875,-12.125
1480623820408905,16.5,-8.125,-5.8125
1480623820432972,5.625,1.0625,-2
1480623820447508,-2.375,3.625,2.4375
1480623820472575,-16.3125,2.0625,3.125
1480623820491124,-7.75,-3.3125,-2.5
1480623820509172,2.8125,-3.5625,-2.9375
1480623820528724,6.1875,1.375,1.4375
1480623820551284,3.5,6.3125,1.8125
1480623820567829,-6.6875,4.4375,2.0625
1480623820596404,-12,0.8125,1
1480623820611444,-5.3125,1,-3.625
1480623820628991,9.25,-3.4375,-9.25
1480623820648543,17.1875,-5.75,-8.375
1480623820671104,15.875,-3.625,-2.6875
1480623820695166,6.6875,2.0625,-0.375
1480623820708706,-4.4375,1.3125,2.25
1480623820731265,-8.1875,1.875,4.375
1480623820749311,-6.875,4.4375,3.875
1480623820768864,-8.8125,6.5625,-0.5
1480623820791422,-7.8125,7.0625,-0.75
1480623820808971,-5,5.25,0.25
1480623820836043,-2.5,-2.25,-3.125
1480623820854090,3.8125,-4.8125,-4.1875
1480623820876650,7.375,-4.8125,0.1875
1480623820896202,6.8125,-2.8125,0.0625
1480623820918762,3.6875,-0.4375,-4.375
1480623820929290,1,-0.1875,-4.0625
1480623820948842,2.375,-0.4375,-2.375
1480623820974912,3.9375,-1,-2.3125
1480623820989951,4.125,0,-1.625
1480623821010005,7.375,0.5625,-0.6875
1480623821031061,7,0.3125,0.1875
1480623821049109,4.3125,0.25,1.1875
1480623821068663,2.1875,1.0625,1.25
1480623821091220,0.8125,1,0.5625
1480623821109770,-0.1875,1.3125,-0.4375
1480623821128821,-3.1875,0.625,-0.5
1480623821167424,-0.5,-1.0625,0.0625
1480623821174944,0.25,-0.75,0.6875
1480623821188480,2.625,-0.1875,0.125
1480623821211040,-0.375,0.0625,-0.3125
1480623821229087,-0.875,-0.6875,-0.25
1480623821250148,0.375,-0.5625,-0.9375
1480623821271199,1.75,-0.6875,-0.625
1480623821289248,2.625,-0.125,0.375
1480623821310304,-0.4375,1.5625,0.875
1480623821331359,-3.875,3.9375,0.625
1480623821353920,-11.25,6.3125,1.8125
1480623821377482,-18.125,4.9375,3.125
1480623821391019,-18.375,1.8125,0.5625
1480623821409102,-8.5625,-1,-1.125
1480623821431627,5,-1.0625,-0.6875
1480623821453183,13.8125,0.125,0.0625
1480623821476746,10.9375,1.125,-0.9375
1480623821498303,3.125,-0.375,-1.0625
1480623821511340,-3.375,-2,0
1480623821529387,-4,-2.75,-0.25
1480623821550444,-1.4375,-2.375,0.0625
1480623821571500,4.0625,-2.5625,0
1480623821589045,8.875,-3.0625,-0.5625
1480623821617622,10.125,-3.3125,-0.1875
1480623821632664,7.8125,-3.3125,1.4375
1480623821653717,1.75,-1.875,2.5625
1480623821672774,-2.375,-1.1875,2.9375
1480623821691317,-6.125,-0.9375,2.625
1480623821713877,-9.0625,0.1875,1.75
1480623821731926,-0.375,-4.0625,-1.5625
1480623821751478,10.25,-3.5625,-4.4375
1480623821782564,6.25,1.125,-2.0625
1480623821796095,-3.9375,0.25,-0.1875
1480623821811136,-6.1875,-2.3125,0.625
1480623821835200,-2.8125,-1,0.6875
1480623821866286,0.3125,1.6875,-0.4375
1480623821871297,4.0625,2.4375,-2.625
1480623821893855,4.875,4.25,-1.625
1480623821911904,3.5625,3.375,1.9375
1480623821931459,-4.75,1.375,1.375
1480623821953514,-3.25,-1.375,-0.5625
1480623821972566,1.8125,-2.625,-0.25
1480623821991115,6.1875,-0.25,1
1480623822013675,4.125,-0.4375,1.3125
1480623822031724,-0.0625,-1.9375,-1.1875
1480623822058795,-3,-2.0625,-0.875
1480623822081355,-5.6875,-0.6875,0.3125
1480623822097899,-1.625,-0.9375,0.25
1480623822111434,2.9375,-1.1875,0.625
1480623822142518,3.4375,-0.625,0.625
1480623822151542,2.625,0.3125,-0.125
1480623822178613,-0.1875,1.0625,0.3125
1480623822193654,-0.875,1,1.0625
1480623822216215,0.3125,-0.25,0.875
1480623822233260,3.25,-0.8125,0.5
1480623822261333,4.875,2.375,1.0625
1480623822291413,3.25,0.6875,1.5
1480623822301440,2.1875,-0.25,1.625
1480623822313472,1.8125,-0.125,0.125
1480623822339041,1.3125,0.1875,-0.625
1480623822358592,2.875,-0.6875,1
1480623822375136,2.4375,-0.4375,1.75
1480623822391681,-0.875,-0.5,1.875
1480623822421760,-2.75,-0.4375,0.9375
1480623822450838,-0.5625,0.1875,0.5625
1480623822453345,0.25,0.25,0.125
1480623822473399,0.75,-0.375,-0.625
1480623822500971,1.375,-0.9375,-1.0625
1480623822511499,0.375,-1.4375,-0.875
1480623822538572,-0.375,-1.5,-0.3125
1480623822553611,0.5,-1.3125,-0.0625
1480623822576171,0.875,-0.5625,0.625
1480623822594219,-0.6875,0.25,1.25
1480623822616779,-0.9375,1.1875,0.9375
1480623822643851,-2.0625,1.875,1.25
1480623822653878,-2.625,1.75,0.9375
1480623822673931,-3.125,1.8125,0.5625
1480623822691477,-2.125,2.4375,0.4375
1480623822721057,-1.625,2.0625,0.375
1480623822733591,-0.5625,1.0625,-0.0625
1480623822751639,-0.125,0.3125,0
1480623822780213,-0.375,0.1875,0
1480623822793751,-0.375,0.25,0
1480623822824330,-1.1875,0.3125,0.25
1480623822833857,-2.0625,0.5,0.4375
1480623822861430,-1.625,0.3125,0.25
1480623822872962,-0.625,0.6875,-0.0625
1480623822894518,0.75,1.0625,-0.3125
1480623822933125,0.875,0.75,-0.4375
1480623822945153,-0.125,0.25,-0.125
1480623822954177,-0.625,0.1875,-0.125
1480623822973730,-0.75,0.3125,-0.3125
1480623823003809,-0.4375,-0.0625,-0.25
1480623823030380,-0.4375,0.25,-0.125
1480623823041409,0.75,0.5625,-0.5625
1480623823058956,0.375,0.5,-0.5625
1480623823074497,-0.1875,0.4375,0.1875
1480623823096555,0.125,0.5,0.3125
1480623823116613,-0.75,0.0625,0.25
1480623823141676,-1.1875,0.375,0.0625
1480623823171755,-0.4375,0.8125,0.0625
1480623823183788,-1.9375,0.375,-0.0625
1480623823206849,-3,-0.1875,-1
1480623823215372,-3.8125,0.375,-1.125
1480623823236428,-4.1875,-0.25,-0.8125
1480623823253975,-3.4375,-0.8125,-0.75
1480623823308120,0,-0.3125,-0.5625
1480623823314636,2.3125,-0.25,-1
1480623823326667,1.6875,0.0625,-1.1875
1480623823341207,-1.5625,0.875,-1
1480623823356246,-1.625,2.0625,-1.8125
1480623823375297,2.125,2.0625,-1.25
1480623823395351,1.125,1.5,0.375
1480623823417911,-1.125,1.125,0.4375
1480623823433955,-1.875,1.25,0.625
1480623823470050,-3.75,0.5625,1.25
1480623823483585,-4.3125,0.25,1.5625
1480623823494113,-3.5625,0,1.5625
1480623823516675,-2.5625,0,0.625
1480623823536226,0.0625,0.5625,-1.0625
1480623823561793,0.1875,1.125,-0.4375
1480623823584353,-1.25,1.4375,0.375
1480623823596385,-1.875,1.1875,0.4375
1480623823613939,-2,1.125,0
1480623823636492,-1.5625,0.5,-0.375
1480623823656044,0,0.3125,0.5625
1480623823674594,0.6875,-0.5,0.3125
1480623823696652,0.9375,0.125,-1.0625
1480623823723724,0.125,-0.125,-0.9375
1480623823757324,-1.1875,-0.375,-0.375
1480623823761324,-1,-0.125,0.3125
1480623823776364,-0.9375,0.1875,-0.125
1480623823802434,0.25,0.375,-0.5625
1480623823830508,0.5625,0.1875,-0.75
1480623823836024,-0.75,0.0625,-0.0625
1480623823854071,-1.125,-0.1875,0.1875
1480623823876631,-1.5,0.3125,0
1480623823896182,-0.8125,0.75,0.125
1480623823914231,-0.3125,0.6875,0.25
1480623823937292,-0.75,0.8125,-0.0625
1480623823973388,-1.25,1,-0.3125
1480623823975393,-2.125,2.3125,0.75
1480623824003970,-2.75,2.1875,1.375
1480623824017514,-4.125,1.8125,1
1480623824038563,-4.9375,-0.8125,0.4375
1480623824062626,-4.3125,-0.8125,1.0625
1480623824077666,-0.0625,-0.6875,0.8125
1480623824094210,1.875,-1.3125,0.375
1480623824117271,0.125,-0.8125,0.875
1480623824137827,-2,-0.5,-0.375
1480623824153869,-3.6875,0.4375,0.4375
1480623824176429,-4,1.0625,0.125
1480623824197485,-5.375,1.25,-0.3125
1480623824214028,-6.25,1.375,2.25
1480623824258647,-6.5,1.375,1.5625
1480623824263662,-3.125,0.0625,-0.3125
1480623824286221,1.625,-0.125,0.0625
1480623824318306,4.125,-1,-0.25
1480623824320812,4.9375,-1.3125,-2.3125
1480623824334351,4.625,-1.75,-2.5625
1480623824356407,4.9375,-1.375,-1.875
1480623824393005,2.75,-0.625,-0.9375
1480623824395511,-2.5,-0.375,0.8125
1480623824416569,-5.375,-0.5625,1.4375
1480623824446647,-4.25,-0.75,1
1480623824483746,-2.3125,-0.1875,-0.0625
1480623824488760,0.625,-0.75,0.0625
1480623824503800,2.375,-1.4375,-1
1480623824520344,3.4375,-0.3125,-1.625
1480623824535885,4.625,0.8125,0
1480623824558945,5.625,1.6875,-0.25
1480623824579501,4.1875,1.1875,-1.375
1480623824596547,-1.9375,2.75,0.5
1480623824618606,-5.9375,0.9375,0.8125
1480623824639661,-5.875,0.0625,1.4375
1480623824655703,-4.75,-0.6875,2.25
1480623824678263,-8.0625,0.5625,2.875
1480623824699322,-4.0625,-0.1875,0.8125
1480623824723384,5.4375,-1.6875,-1.4375
1480623824761485,8.75,-2.4375,-1.1875
1480623824770509,8.625,0.9375,-2.0625
1480623824784546,2.25,-0.5,-2.5625
1480623824804599,-2.6875,-2.0625,-1.0625
1480623824820141,-6.3125,1.3125,2.4375
1480623824835684,-10.5,3.75,1.875
1480623824859245,1.375,4.1875,1.875
1480623824879298,8.25,5.5,4.5625
1480623824895843,-0.875,3.5625,1.4375
1480623824918403,-3.5625,-0.8125,-3.1875
1480623824946978,-5.9375,-3.9375,-3.875
1480623824956002,-4.25,2.75,2.8125
1480623824979064,-10.625,3.875,3.9375
1480623824999119,-3.5625,1.625,1
1480623825015664,-1.5625,-2.75,1.1875
1480623825053261,-1.4375,-3,-2
1480623825062286,9.625,-6.9375,-8.5625
1480623825076323,15.75,-7.375,-8.25
1480623825099386,16.0625,1.9375,-0.25
1480623825120942,0.75,7.6875,2.75
1480623825135981,-8.875,2.6875,2.25
1480623825158040,-16.75,-1.875,2.5
1480623825179096,-12,-3.125,1
1480623825201656,13.1875,-5.5,-5.9375
1480623825218202,16.6875,-4,-3.3125
1480623825239256,9.1875,4.3125,3
1480623825255800,-2.75,6.0625,3.9375
1480623825278361,-20.375,1.5,1.6875
1480623825316463,-27.0625,-2.375,-1.4375
1480623825318969,-10.3125,-1.9375,-3.25
1480623825339524,12.9375,-5.4375,-3.0625
1480623825360578,21.0625,-4.875,-1.1875
1480623825375118,15.9375,2.125,0.125
1480623825398683,-0.625,6.5625,1.4375
1480623825428259,-19.25,2.25,3.4375
1480623825435779,-23.125,-2.9375,2.8125
1480623825458339,-5.5625,-1.75,0
1480623825480899,12.5625,0,-3.0625
1480623825503459,19.25,0.875,-3.0625
1480623825526019,12,2,-1.3125
1480623825541059,-0.375,2.1875,-0.3125
1480623825563117,-9.1875,-0.625,-0.0625
1480623825591693,-3.0625,-1.5,-0.625
1480623825601219,8.4375,-0.6875,-0.625
1480623825615761,11.5,-1.0625,-0.9375
1480623825638318,7.5,-2.4375,-1.75
1480623825667395,5.6875,-2.125,-1.6875
1480623825689454,4.25,-0.3125,-1.0625
1480623825698981,0.5625,0.9375,-0.1875
1480623825737081,0.1875,0.25,-0.375
1480623825742093,2.6875,0.0625,0.3125
1480623825758136,-1.625,-0.125,1.25
1480623825781198,0.0625,-0.5625,1.125
1480623825803257,0.25,-0.6875,0.5
1480623825818798,-1.1875,-0.375,0.1875
1480623825840856,1.4375,-0.0625,0.6875
1480623825864420,2.0625,-0.6875,0.1875
1480623825878456,1.375,-0.625,0.125
1480623825917060,-0.8125,-0.6875,0.75
1480623825923577,-1.75,-0.875,1.125
1480623825945635,-1.0625,-0.75,1.3125
1480623825961177,-0.6875,-0.625,1.125
1480623825983237,-0.25,-0.375,1
1480623825999281,-0.0625,0.375,0.3125
1480623826020836,1.0625,0.4375,0.0625
1480623826042894,-0.4375,0,0.125
1480623826059939,-1,-0.75,-0.125
1480623826080996,0.3125,-1.25,-0.1875
1480623826102053,0.0625,-1,-0.3125
1480623826133134,0.9375,-0.25,-0.5625
1480623826148678,1,-0.3125,-1.1875
1480623826163214,0.625,-0.5,-0.9375
1480623826179257,0.8125,-0.25,0
1480623826201315,1.0625,-0.125,0.125
1480623826223374,0.1875,0.3125,0.1875
1480623826238415,-0.3125,0.1875,0.25
1480623826260974,-0.6875,0.375,0.125
1480623826282034,-0.8125,0.5,0.1875
1480623826298073,-0.1875,0.3125,0.3125
1480623826335674,0.0625,1.25,0.3125
1480623826358735,-0.6875,2.125,0.5625
1480623826361241,-1.875,1.9375,0.75
1480623826386811,-3.6875,1.125,0.0625
1480623826426414,-2.25,1,-1.1875
1480623826428920,0.4375,1,-0.5
1480623826449978,0.5625,1.8125,0.625
1480623826463513,0,1.25,0.125
1480623826478553,-0.0625,0.5625,-0.125
1480623826501113,-0.4375,0,-0.5625
1480623826523172,-0.1875,-0.25,-0.5625
1480623826537711,-0.6875,-0.6875,-0.625
1480623826560771,-0.8125,-0.375,-0.5625
1480623826583834,0.5,-0.375,-0.4375
1480623826613914,0.25,-0.375,-0.125
1480623826621934,-0.0625,-0.5,0.3125
1480623826643493,-0.0625,-0.125,0.75
1480623826666053,0.5,-0.3125,0.25
1480623826682097,-1.1875,-0.0625,-0.125
1480623826703150,-1.25,-0.375,0.125
1480623826717692,-0.9375,-0.4375,-0.0625
1480623826740753,-0.4375,-0.25,-0.125
1480623826763311,-0.4375,-0.5,0
1480623826777849,0.875,-0.625,-0.125
1480623826800911,1.3125,-0.125,-0.25
1480623826823470,0.4375,-0.3125,0.25
1480623826861571,-0.25,-0.75,0.375
1480623826863577,-0.125,-0.6875,0.1875
1480623826892153,-0.875,-0.0625,0.1875
1480623826913210,-2,0.3125,0.125
1480623826926745,-1.5,1.1875,0.375
1480623826943289,-3.5,2.375,1.125
1480623826964345,-2.125,1.625,1.125
1480623826980890,-4.1875,1.6875,0.9375
1480623827003449,-2,-1.8125,-1.125
1480623827026009,-3.5625,-4.875,-2.875
1480623827040549,-15.75,-3.3125,0.875
1480623827064111,-14.8125,5.75,2.9375
1480623827091683,15.5,8.125,5.5
1480623827100708,-5.25,8.25,6.0625
1480623827137306,-34.625,-4.625,-3.1875
1480623827144324,-5.1875,-15.0625,-12.8125
1480623827166886,26.75,-3.125,-4.3125
1480623827190948,30.9375,16.375,2
1480623827204484,-3,19.0625,8.625
1480623827227044,-42.3125,0.75,9.0625
1480623827243087,-44.5625,-20.8125,4.0625
1480623827268154,-14.875,-16.9375,-7.125
1480623827280186,12.875,4.125,-8.25
1480623827303247,13.125,19.25,5.5625
1480623827333329,-7.125,11.5625,14.625
1480623827340350,-22.8125,-1.125,2.75
1480623827369423,-14.75,-0.6875,-4.125
1480623827385968,13.9375,-2.8125,-3.25
1480623827400005,35.125,-3.875,-7.125
1480623827424069,23.875,-2.375,-4.25
1480623827445625,9.0625,0.125,-3.875
1480623827468186,-10.1875,0,-3.8125
1480623827483727,-14.8125,-2.875,-2.25
1480623827505786,-4,-2.9375,-0.375
1480623827520324,0.3125,-1.0625,0.875
1480623827543887,-1.375,-2.5625,-1.375
1480623827573968,4.9375,-5.0625,-2.3125
1480623827579983,8.375,2.125,0.4375
1480623827610565,-4.3125,2,0.8125
1480623827625605,-8.5,0.25,1.75
1480623827648668,2.0625,1.75,3
1480623827663204,4.625,0.375,3.5
1480623827693285,1.9375,-1.0625,-1.125
1480623827700303,4.5,0.5625,-4.625
1480623827723365,9.3125,-3,-3.125
1480623827745926,3.5,-3.75,-1.5
1480623827766479,3.625,-8,-0.75
1480623827783524,12.6875,-0.75,1.4375
1480623827813103,8.1875,14.6875,6.9375
1480623827835664,-15.8125,14.9375,4.0625
1480623827844186,-34.375,4.5,2.625
1480623827865746,-15.8125,-7.8125,0.5625
1480623827886799,21,-13.6875,-7.1875
1480623827903343,35.8125,-2.8125,-2.8125
1480623827925903,18.5625,15.375,5.4375
1480623827946960,-15.8125,13.3125,10.5
1480623827963504,-37.1875,2.8125,2.8125
1480623827987066,-31.25,-4.1875,-0.5625
1480623828023663,18.5625,-11.1875,-7.5625
1480623828026170,31,-5.6875,-7.125
1480623828046224,18.75,13.5,-0.625
1480623828066778,-17.6875,20.4375,8.5625
1480623828090843,-49.125,6.1875,8.3125
1480623828113402,-58.75,-5.5625,2.125
1480623828127439,-7.75,-17.375,-3.8125
1480623828144485,48.5,-23.1875,-11.875
1480623828166042,53.25,-4.5625,-8.0625
1480623828188102,25.5625,16.625,-0.375
1480623828202639,-33.3125,17,7.3125
1480623828226202,-52.375,1.0625,10.4375
1480623828248264,-39.25,0.4375,5.0625
1480623828278341,10.125,-5.125,-6.4375
1480623828285861,39.625,-8.8125,-11.875
1480623828315943,41.6875,-3.125,-5.25
1480623828322458,20.75,6.625,-1.25
1480623828346022,-26.8125,7.6875,-5
1480623828368581,-43.375,5.25,-3.6875
1480623828389136,-33.4375,3.875,0.3125
1480623828405680,-17.0625,4.5,-2.25
1480623828428239,0,0.4375,-5.625
1480623828442778,13.8125,-4.125,-2.5
1480623828465840,21.9375,-3.6875,-1.3125
1480623828488400,11.1875,1.125,-1.4375
1480623828509456,-5.9375,5.8125,0.8125
1480623828526000,-11.9375,5.25,2.6875
1480623828548562,-4.6875,1.9375,-1.125
1480623828569114,2.125,-0.6875,-2.25
1480623828594181,8.9375,-3.3125,-1.3125
1480623828608720,16.3125,-4.4375,-1.5625
1480623828622759,14.625,-3.5,-0.625
1480623828645819,8.875,-1.625,0.875
1480623828668881,0.5625,-0.5,2.4375
1480623828693445,2.25,0.375,0
1480623828722522,2.125,0.1875,-0.75
1480623828727034,1.75,-2.5625,0.9375
1480623828742075,-1.375,-7.625,4.375
1480623828764637,2.125,-2.0625,1.1875
1480623828795219,2.125,-1.5,0.5
1480623828801734,-7.6875,-2.5625,2.125
1480623828826298,0.4375,-0.0625,0.25
1480623828854875,-5.375,0.25,-0.625
1480623828869416,7.5625,0.6875,-0.625
1480623828884955,-2.875,0.6875,4.25
1480623828907014,-0.6875,8.25,1.0625
1480623828923057,-1.8125,0.0625,1.3125
1480623828945616,-2.375,1.0625,1.75
1480623828966672,-0.25,0.5625,0.6875
1480623828997756,2.625,0.1875,0.3125
1480623829011792,3.625,-3.5,2.125
1480623829027333,2.375,2.5,-1.875
1480623829042374,-2.6875,0.75,0.625
1480623829064434,3.8125,-2.5,-0.875
1480623829089499,1.625,4,-0.125
1480623829104539,0.9375,2.125,2.3125
1480623829124091,-0.75,2.8125,1.3125
1480623829146651,-2.6875,1.875,-0.0625
1480623829161690,-2.375,0.9375,-0.5
1480623829184252,-1.75,0.625,0
1480623829207814,0.1875,-0.1875,0.0625
1480623829223355,2.5,-0.1875,0.0625
1480623829244912,3.3125,-0.375,-0.375
1480623829276496,2.375,-0.4375,-1.4375
1480623829282014,1.0625,0.125,-1.4375
1480623829312091,0.875,0.4375,0.0625
1480623829328635,1.1875,0.5,0.5625
1480623829344678,1.375,-0.1875,0.875
1480623829364230,1.125,-0.4375,1.25
1480623829388294,0.3125,0.9375,1.1875
1480623829403334,-2.8125,3.3125,1.0625
1480623829426395,-8.8125,6.1875,1.3125
1480623829446950,-15.25,7.375,2.3125
1480623829463495,-36.5,6.6875,7.6875
1480623829500092,-26.0625,-5.125,0.625
1480623829523655,-12.625,-8.625,-0.9375
1480623829526161,-4.25,-4.0625,5.375
1480623829553734,19.0625,4,2.0625
1480623829566768,23.6875,3.1875,0.4375
1480623829598355,4,2.375,-1.25
1480623829611889,-9.125,3.4375,-1.4375
1480623829628433,-13.4375,-4.5,-2.4375
1480623829659014,0.875,-5.375,-0.625
1480623829674054,2.0625,-1,4.6875
1480623829688093,-0.6875,5.4375,6.3125
1480623829718674,7.0625,5.3125,4.125
1480623829731710,-0.375,1.8125,2.0625
1480623829754268,-5,2.125,-1.625
1480623829777329,-3.0625,-0.6875,-4.0625
1480623829791867,4.125,-7.4375,-3.9375
1480623829831477,10.625,-4.3125,-1.3125
1480623829833980,6.5,3.375,0.875
1480623829853031,-0.1875,3.5625,3.5
1480623829882109,-3.8125,-0.75,2.6875
1480623829892636,0.1875,-1.6875,-0.5625
1480623829911687,4.4375,0.1875,-2.1875
1480623829952795,3.5625,2.25,-0.75
1480623829956806,-1.1875,-1.75,-1.6875
1480623829972348,1.625,-6.5,-2.25
1480623829995910,7.75,-7.4375,-2.25
1480623830010951,20.6875,1.1875,0.5
1480623830033010,12.625,4.5,2.125
1480623830054566,-15.5,0.5625,-0.4375
1480623830078130,-16.625,-2.125,-1.9375
1480623830093669,-0.9375,-1.5,0.3125
1480623830108209,9.6875,1.5625,0.4375
1480623830130774,4.9375,1.3125,-3.5
1480623830162355,3.9375,2.3125,-3.6875
1480623830169873,-0.3125,-0.4375,-3.25
1480623830196946,3.3125,-0.6875,-2.625
1480623830213491,4.75,1.25,-1.8125
1480623830228027,1.25,1.5625,-2.5
1480623830274652,-0.625,1.75,-2.4375
1480623830279163,-2.875,2.75,-1.125
1480623830287687,-1.4375,3,0
1480623830335314,-0.6875,2.4375,-0.8125
1480623830339326,-1.75,2.25,-0.375
1480623830347850,-1.0625,1.4375,0.0625
1480623830385948,0.3125,1.3125,0.4375
1480623830393468,0,1.875,0.6875
1480623830407505,-0.6875,1.9375,-0.125
1480623830431070,-0.75,1.6875,-0.375
1480623830453127,0.5,1.9375,0.125
1480623830468167,1.5625,1.9375,-0.25
1480623830493233,0.625,0.4375,-0.1875
1480623830513288,-1.9375,-0.6875,-0.0625
1480623830534844,-2.1875,-1.25,-0.3125
1480623830550888,-2.5,-1.3125,-0.25
1480623830573950,-2.25,-0.8125,-0.5625
1480623830587486,-0.3125,-0.375,-0.9375
1480623830610546,-1.1875,0.0625,-0.6875
1480623830633106,-0.3125,-0.125,0.4375
1480623830663186,0.625,-0.25,1.3125
1480623830670706,-1.5,0.125,0.625
1480623830694769,-1.5,0.375,-0.1875
1480623830715829,-0.625,0.5,-0.1875
1480623830730866,-0.375,0.8125,0.1875
1480623830753425,-0.1875,0.875,0.9375
1480623830776487,-2.375,1.25,1.125
1480623830798548,-4.125,2.9375,2.25
1480623830829127,-24.125,3.875,6.625
1480623830834142,-40.375,-4.8125,2
1480623830850684,-30.8125,-9.1875,-0.75
1480623830888786,-10.6875,-6.375,5.5
1480623830901827,19.4375,0.75,0.125
1480623830912348,23.875,-0.8125,-2.875
1480623830940925,20,-1.75,-2.9375
1480623830954460,10.125,5.25,-1.6875
1480623830978524,-8.625,2.875,-1.625
1480623830994567,-4.5,-0.4375,-1.4375
1480623831014623,-9.5625,2.9375,3.5625
1480623831030162,-9.375,10.1875,6
1480623831053224,-0.875,6.3125,6.9375
1480623831075785,-0.75,4.3125,5.25
1480623831098845,-13.8125,-1.625,-2.875
1480623831113383,-0.6875,-10.25,-8.4375
1480623831143464,19.25,-13.75,-5.25
1480623831150984,20.5625,0.3125,2.875
1480623831174046,1.3125,9.625,2.875
1480623831195602,-17.4375,3.5,-0.125
1480623831218162,-13.0625,0.75,0.625
1480623831233202,-1.0625,3.0625,0.3125
1480623831255763,3.5,3.625,-3.5
1480623831270301,6.3125,-1.1875,-4.4375
1480623831293863,13,-4.375,-1.5625
1480623831316424,15.875,-3.9375,-3.875
1480623831329960,15.25,-3.125,-5.3125
1480623831353523,17.5,-0.6875,-1.3125
1480623831376584,8,1.5625,0.375
1480623831390119,-4.6875,1.875,-2.9375
1480623831421703,-14.9375,1.375,-2
1480623831441757,-11.875,1.25,1.125
1480623831450281,-3.4375,-0.3125,1.0625
1480623831474344,3.125,-1.0625,-0.1875
1480623831496402,10.375,-0.1875,0.25
1480623831516957,13.4375,-0.25,-0.0625
1480623831535508,7.1875,-1.8125,-1.25
1480623831579625,-0.125,-3,-0.875
1480623831584137,2.3125,-3.1875,-1.375
1480623831593160,3.4375,-2.8125,-3.0625
1480623831623241,1.5,-1.9375,-1.75
1480623831637277,-0.0625,-2.4375,-0.3125
1480623831653320,3.1875,-3.1875,-1.0625
1480623831675879,5.6875,-2.625,-1.125
1480623831698440,2.1875,-1.6875,-0.3125
1480623831721000,-1,-0.25,0.375
1480623831735538,-2.875,0.4375,-0.5625
1480623831757096,-4.8125,-0.5625,1.9375
1480623831773139,-3.0625,-1.75,3.375
1480623831795700,0.0625,-1.125,2.5625
1480623831816755,1.0625,-0.4375,1.5
1480623831833800,-0.0625,-0.5,1.25
1480623831855858,-1.0625,-0.6875,1.375
1480623831884436,-0.6875,-0.125,0.3125
1480623831893459,0.5625,-0.0625,-0.375
1480623831922034,0.9375,-0.0625,0.8125
1480623831936573,1.4375,-0.75,1.25
1480623831953117,0,-0.75,0.3125
1480623831976179,-1.4375,-0.8125,0.4375
1480623831996733,-1.8125,-0.8125,0.5625
1480623832013278,0,-0.75,-0.3125
1480623832036339,0.3125,-0.8125,0.1875
1480623832058398,0,-0.5625,0.8125
1480623832073939,0.125,-0.375,1.1875
1480623832096499,-0.5,-0.0625,1
1480623832125580,-0.4375,-0.125,0.4375
1480623832133096,-0.3125,0.0625,0.125
1480623832163177,-0.375,0.125,-0.3125
1480623832185737,0.375,0.375,-0.4375
1480623832192755,-0.4375,0.6875,0
1480623832215816,-0.75,0.125,-0.1875
1480623832238377,-1.8125,-0.1875,-0.1875
1480623832252414,-0.6875,0.1875,0.75
1480623832275976,-0.5625,0.0625,0.5625
1480623832298537,-0.875,0.3125,-0.25
1480623832312574,-0.8125,0.0625,-0.1875
1480623832336638,-0.875,0.1875,0.125
1480623832359197,0.25,0.5,0.5
1480623832380759,-2.5,0.5625,0.375
1480623832409331,-2.5,0.5625,0.125
1480623832418355,-1.25,1.0625,0.25
1480623832440915,-1.6875,0.625,0.25
1480623832455454,-2.125,-0.1875,0.25
1480623832478515,-0.6875,0,-0.0625
1480623832499571,0.125,0.5625,0.25
1480623832515614,-0.1875,0.25,0.25
1480623832545693,-0.4375,0.125,0.125
1480623832559230,0.0625,0.3125,0
1480623832575775,0.4375,0.3125,0
1480623832604349,0.75,-0.1875,0
1480623832619392,1.5625,0.0625,0.25
1480623832635935,1.25,-0.125,0.125
1480623832681557,1.375,-0.625,0.75
1480623832688073,0.1875,-1.1875,0.4375
1480623832696094,-0.3125,-0.6875,0.3125
1480623832718654,-0.5625,0.0625,0.25
1480623832740713,-1.4375,0.4375,-0.375
1480623832755752,-0.625,0.625,-1.1875
1480623832778312,0,0.8125,-0.125
1480623832806889,-1.3125,0.125,0.5
1480623832830954,-1.375,-0.3125,-0.125
1480623832839476,-0.125,-0.0625,-0.125
1480623832859528,0.25,0.375,0.0625
1480623832883092,-0.8125,0,0.125
1480623832898132,-0.4375,-0.1875,-0.0625
1480623832919187,0.875,0.625,0.3125
1480623832935732,1.25,0.4375,0.3125
1480623832964310,-2.3125,0.0625,1.125
1480623832980351,-5.1875,0.8125,1
1480623832997398,-3.5,0.9375,0.0625
1480623833018451,-4.0625,1.4375,1.0625
1480623833048532,-7.875,-0.625,1.375
1480623833056052,-7.3125,-1.5625,0.375
1480623833084128,-7.3125,-1.5,-0.4375
1480623833108190,-5.8125,-2.25,-0.6875
1480623833115209,-4.6875,-0.3125,0.8125
1480623833138772,-8,-0.5,0.1875
1480623833160830,5.125,-6.1875,-1.5625
1480623833181886,17.25,-0.875,-3.125
1480623833198931,17,4.0625,-2.4375
1480623833228008,10.5625,-0.125,0.6875
1480623833243049,4,-2.3125,1.6875
1480623833274132,0.375,-0.3125,2.25
1480623833281654,-7.5625,-0.4375,-0.8125
1480623833295187,-10.9375,-0.375,-2.625
1480623833324265,-12.4375,2.9375,2.6875
1480623833340809,-4.375,5.0625,5.6875
1480623833355350,1.3125,1.875,3
1480623833385929,8.0625,-3.4375,-2.0625
1480623833400970,13.0625,-3.6875,-1.375
1480623833416009,14.6875,2.5,-0.9375
1480623833451604,3.5,3.4375,2.75
1480623833460628,-4.5625,3.375,1.875
1480623833481684,-4.9375,4.6875,-1.1875
1480623833504248,-3.375,4.25,-0.6875
1480623833520788,4.875,3.375,1.4375
1480623833550868,5,3.125,1.375
1480623833564405,-5.4375,1.4375,-0.75
1480623833581452,-6.6875,-0.5,-3.3125
1480623833602004,-3.625,-1.5,-3.75
1480623833618047,-3.125,-2,-3.875
1480623833640608,8.4375,-11.4375,-4.5625
1480623833663167,-1.1875,-2.8125,-1.5
1480623833678207,-4.375,-4.5625,1.75
1480623833701268,-8.5,-5.4375,2.625
1480623833721823,-5.1875,-5.1875,-1.6875
1480623833738367,-1.0625,0.4375,-2.25
1480623833760926,-1.3125,6.0625,0.0625
1480623833781982,-3.3125,6.9375,-0.25
1480623833798527,-5,3.625,-3.25
1480623833828105,-7,-0.375,-0.75
1480623833841642,-10.1875,-1.75,3.9375
1480623833857684,-8.8125,1.9375,4.5
1480623833880754,-1.4375,7.75,1.4375
1480623833901802,3.375,9.375,-1.1875
1480623833925865,3.5625,4.6875,-0.75
1480623833941407,0.4375,-3.6875,-1.1875
1480623833963467,-3.4375,0.3125,-1.0625
1480623833987029,0.375,-1.375,-1.25
1480623834001066,5.25,-2.9375,-1.0625
1480623834031149,8.8125,-3.3125,-1.125
1480623834039669,7.75,-3.875,-0.625
1480623834061225,5,-4.25,-0.75
1480623834083285,1.5,-4.0625,-1
1480623834105846,-0.8125,-3.25,-0.125
1480623834120884,0.8125,-2.875,1.25
1480623834150964,3,-2.75,1.5
1480623834157481,4.4375,-1.25,0.5625
1480623834181047,2.4375,-0.1875,-0.25
1480623834204105,1.25,0.1875,0.3125
1480623834217641,0.375,-0.625,0.5
1480623834242709,0.5,-1.625,0.375
1480623834270783,2.9375,-2.375,0.3125
1480623834277802,3.0625,-2.375,-0.0625
1480623834300864,2.625,-2.0625,-0.75
1480623834323924,0.75,-0.6875,0.1875
1480623834337460,0.625,-0.6875,0.6875
1480623834360521,1,-0.375,-1.75
1480623834383082,1.4375,0.3125,-1.875
1480623834404138,1.875,0.375,-0.25
1480623834420682,2.75,0.4375,0
1480623834443242,1.125,0.25,-0.0625
1480623834471818,-2.5625,0.5625,0.25
1480623834488362,-1.125,0.625,-0.0625
1480623834502900,1.5625,1.6875,-1.0625
1480623834524458,-1.875,3.8125,-0.25
1480623834548523,-6.125,5.1875,1.1875
1480623834563565,-11.4375,4.875,1.6875
1480623834584116,-14.4375,3.1875,1.4375
1480623834600660,-11.75,3.1875,1
1480623834623221,-5.125,3.75,1.125
1480623834644777,-1.9375,2.5625,1.3125
1480623834660821,-0.75,1.1875,0.9375
1480623834683381,-0.0625,-0.0625,0.25
1480623834704938,0.4375,-0.9375,-0.25
1480623834720479,0.5625,-2.875,-1.6875
1480623834749056,5.1875,-5.75,-5.3125
1480623834771618,8.1875,-7.625,-8.75
1480623834795680,6.75,-7.9375,-9.75
1480623834803200,5.0625,-9.0625,-7.125
1480623834825759,5.125,-8.125,-5.5
1480623834840799,4.625,-5.625,-5
1480623834863364,3.5,-3.75,-3.8125
1480623834885920,2.8125,-2.0625,-1.6875
1480623834900961,2.5,0.25,-0.625
1480623834929034,2.0625,1,-0.5625
1480623834945578,0.5625,0.625,0.125
1480623834960618,-1,1.5625,2.125
1480623834983686,-0.8125,1.875,1.3125
1480623835021279,-1.4375,2.125,2.1875
1480623835026794,-2.5,1.625,3.875
1480623835049355,-1.4375,-0.1875,1.875
1480623835081942,-0.0625,-0.25,0.5
1480623835086954,1.25,0.75,0.9375
1480623835105003,-0.1875,0.5,1.6875
1480623835125557,-1.5625,0.0625,2.25
1480623835146621,-1,-0.8125,1.5625
1480623835164160,1.625,-1.8125,0.3125
1480623835185718,4.125,-1.8125,0.125
1480623835200758,5.3125,-1.625,-0.6875
1480623835223317,1.5,-1.875,-1.0625
1480623835245878,-1,-2.5,0.1875
1480623835266934,-1,-2,0.5
1480623835306539,0.25,-1.25,0.75
1480623835308545,-0.1875,-0.75,1
1480623835335616,0.3125,-0.3125,1.0625
1480623835350656,0,0.0625,1.125
1480623835388757,-0.875,0.1875,0.625
1480623835391265,-0.8125,-0.125,0.75
1480623835404801,1,-0.25,1
1480623835433377,1,0,1
1480623835448418,1.25,0.125,0.5625
1480623835463960,-1.5,-0.125,1.25
1480623835493035,-2.4375,-0.5,0.5
1480623835506571,-2.1875,-0.375,-1.125
1480623835524118,-1.0625,0.6875,-1.4375
1480623835546678,-1,1.625,-1.9375
1480623835583776,-0.125,2.0625,-2.4375
1480623835586283,2.125,1.75,-1.1875
1480623835607339,0.8125,2.375,1.1875
1480623835626890,1.875,3.4375,2.625
1480623835643434,-3.9375,4.75,1.1875
1480623835665494,-9.125,4.5625,-2.625
1480623835686550,-10.4375,1,-1.8125
1480623835710614,-2.9375,-1.0625,0.4375
1480623835725653,4.625,-1.9375,0.25
1480623835746714,5.25,-1.5625,-1.1875
1480623835763757,1.375,-2.5,-1.4375
1480623835785814,-1.8125,-1.8125,-2
1480623835808373,-3.4375,1.0625,-1
1480623835823413,-2.75,0.9375,0.8125
1480623835861013,-3.4375,0.5,3.125
1480623835875552,-4.0625,0.4375,3
1480623835884075,-2.8125,0.625,2.375
1480623835905632,-0.6875,0.1875,2.125
1480623835936214,0.5,0.3125,0.375
1480623835944235,2.5,0.1875,-0.625
1480623835974362,5.5625,-0.4375,-0.125
1480623835988353,5.5625,-1.0625,0.3125
1480623836002389,2.125,-1.0625,0.4375
1480623836025952,0.625,-0.8125,-0.1875
1480623836050518,0.3125,-0.125,-0.8125
1480623836070571,-1.75,0.125,0.125
1480623836086614,-3.6875,0.1875,0.5
1480623836108171,-1.0625,0.5,0.5625
1480623836122710,0.5,0.3125,0.375
1480623836160811,-0.4375,0.125,0.125
1480623836168332,0.125,0.3125,0.1875
1480623836182368,0.125,0.4375,0.5
1480623836213454,-1.3125,0.3125,-0.3125
1480623836236012,-1.875,0.1875,-0.6875
1480623836249547,-1.0625,0.5625,-0.5
1480623836266092,0.1875,1.125,-0.375
1480623836288150,1.0625,1.25,-0.375
1480623836317228,0.4375,1.875,-1.25
1480623836327254,1.9375,2.0625,-1.6875
1480623836348310,1.5,0.8125,-1.375
1480623836376885,-0.4375,0.6875,-1.625
1480623836386411,-1.875,0.75,-1.5
1480623836409474,-1.75,0.9375,-0.4375
1480623836430529,-0.9375,0.375,1
1480623836445570,-1.4375,0.625,0.8125
1480623836474145,-1.0625,1.125,0.375
1480623836490688,-0.25,1.5,-0.0625
1480623836505730,-1,1,1.0625
1480623836528289,-0.9375,0,1.8125
1480623836550849,0.625,-0.375,1.25
1480623836565889,1.4375,-0.8125,0.5625
1480623836603998,-0.25,-1.375,0.6875
1480623836626048,-1.3125,-1.375,0.5
1480623836629058,-1.5625,-1,0.5625
1480623836655628,-1.9375,-0.9375,1.8125
1480623836670668,-1.0625,-1.375,2.25
1480623836693228,-0.0625,-1.3125,1.875
1480623836716289,1.6875,-0.6875,1.5625
1480623836729323,4.1875,-0.25,1.5
1480623836745868,3.3125,0.375,0.375
1480623836768929,-0.625,0.6875,0.5
1480623836790486,-4.0625,0.3125,1.0625
1480623836805527,-3.6875,-0.1875,0.6875
1480623836828087,-1.625,-0.25,0.1875
1480623836850647,2.125,-0.1875,-0.5
1480623836880729,3.625,-0.125,-1.0625
1480623836903287,2.25,-0.25,-0.125
1480623836916822,0.25,-0.9375,-0.375
1480623836931863,-0.4375,-0.6875,-1.375
1480623836954422,-1.25,-0.25,-0.75
1480623836971468,-0.4375,-0.4375,0.0625
1480623836993027,1.25,-0.6875,-0.6875
1480623837014081,1.5625,-0.25,-0.6875
1480623837030625,0.6875,0,-0.1875
1480623837045666,-0.1875,0,0.25
1480623837068226,-1.75,-0.125,0.6875
1480623837128888,-1.6875,-0.3125,1.1875
1480623837131394,-0.8125,0.0625,0.875
1480623837136408,1.375,0.1875,1
1480623837158465,1.5,0.375,0.5
1480623837179523,0.625,0.4375,-0.5
1480623837189047,-1.125,0.25,-0.0625
1480623837210605,-0.9375,0.25,0.875
1480623837225143,-0.4375,-0.5,-0.375
1480623837248706,-0.8125,0.0625,-0.875
1480623837273273,-0.5625,-0.0625,0.125
1480623837291820,-1.125,0.125,-0.4375
1480623837323905,0.1875,0.0625,-0.875
1480623837344460,-0.0625,0.5,-0.5625
1480623837360503,-1.75,1.125,-0.5625
1480623837374039,-1.75,1.8125,-1.5625
1480623837390583,-0.6875,1.75,-0.25
1480623837411639,-0.625,1.875,0.8125
1480623837435703,-1.75,1.5,-0.125
1480623837458263,-3.3125,2.625,-1.3125
1480623837473805,-2.0625,3.8125,-1.1875
1480623837488844,-1.5625,3.9375,-0.1875
1480623837526445,-2.0625,2.9375,-0.25
1480623837531959,-2.4375,2.625,-0.6875
1480623837548001,0.6875,2.4375,-0.5625
1480623837570561,3.8125,2.25,-0.125
1480623837592119,2.4375,0.875,-0.8125
1480623837608161,0.8125,0.6875,0.3125
1480623837631223,-1.25,0.3125,0.3125
1480623837651777,-2.4375,0.4375,-0.8125
1480623837668322,-2.3125,0.3125,0
1480623837690882,-0.0625,0.625,0.4375
1480623837713446,0.6875,0.625,0.0625
1480623837728482,-0.1875,0.5625,0.1875
1480623837750540,-1.1875,0.9375,0.375
1480623837781122,-1.8125,1.25,0.5
1480623837788140,-2,0.5625,0.5625
1480623837811203,-2.125,0.3125,0.625
1480623837833261,-0.0625,0.375,0.5
1480623837847799,0.1875,0.5625,0.375
1480623837878381,-1.0625,0.6875,0.625
1480623837893420,-0.375,0.5,-0.0625
1480623837915981,-0.5,0.6875,-0.5
1480623837930521,-1.375,0.375,-0.375
1480623837953079,-1.75,0.5,-0.25
1480623837967620,-1.6875,0.875,-0.3125
1480623837990680,-1.8125,1,-0.5625
1480623838013243,-1,0.875,0.25
1480623838027778,-0.25,0.625,1.3125
1480623838050840,-0.75,1.125,1.1875
1480623838079415,-1.75,0.6875,0.5
1480623838088440,-2,1.4375,0.375
1480623838110498,-2.75,-0.0625,0.625
1480623838134061,-1.75,-0.6875,1.0625
1480623838155618,1.5625,-0.125,0.5
1480623838178180,1.1875,0,0.125
1480623838193719,-0.5625,-0.1875,-0.125
1480623838215779,-2.125,-0.125,0.75
1480623838230818,-3.125,-0.25,1.375
1480623838267917,-1.625,-0.4375,0.5625
1480623838277943,-0.0625,-0.625,0.9375
1480623838291980,-0.125,-0.5,1.875
1480623838319052,-1,-0.1875,1.6875
1480623838334094,-1.375,-0.0625,0.9375
1480623838358157,-1.8125,0.0625,1
1480623838381219,-0.1875,0.0625,1
1480623838394755,0.75,-0.0625,1.3125
1480623838419320,0.3125,-0.0625,1.125
1480623838434861,-0.8125,-0.1875,0.75
1480623838454413,-1.75,-0.1875,0.625
1480623838470958,-1.25,-0.1875,0.375
1480623838499031,-0.25,0.0625,-0.3125
1480623838514072,0.625,0.125,-0.3125
1480623838553679,0.25,-0.125,-0.0625
1480623838556183,0.375,-0.1875,0.75
1480623838574356,0.0625,-0.25,1
1480623838598296,0.5625,-0.1875,0.5625
1480623838613839,-1.4375,-0.3125,0.9375
1480623838634392,-1.25,-0.375,0.3125
1480623838658456,1.3125,-0.6875,-0.6875
1480623838673998,2.1875,-0.4375,-0.375
1480623838711096,0.375,-0.5,-0.625
1480623838713106,1,-1.125,-2.1875
1480623838717613,1.875,-1,-2.25
1480623838746197,1.375,-1.1875,-1.375
1480623838773262,2.125,-1.3125,-1.25
1480623838777773,2.6875,-1.0625,-1.0625
1480623838798830,2.375,-1.125,-0.6875
1480623838824397,3.1875,-2,-0.9375
1480623838837432,6.125,-2.4375,-1.9375
1480623838858487,7.1875,-3.25,-1.1875
1480623838882554,9.75,-3.3125,-1.8125
1480623838899095,8.8125,-3,-1.375
1480623838926181,3.5625,-3.5625,-1.8125
1480623838941209,3.8125,-5,-2.8125
1480623838957752,7.1875,-4.3125,-2.375
1480623838989336,11.625,-4.125,-3.3125
1480623839000867,11.0625,-2.8125,-3.4375
1480623839024930,6.9375,-2.0625,-3.3125
1480623839041475,3.375,-2.75,-3.0625
1480623839061027,2.875,-3.3125,-1.9375
1480623839077571,7.25,-4.5,-2.5625
1480623839098627,10.1875,-5.0625,-4.1875
1480623839121187,10.5,-5.1875,-5.125
1480623839137731,7.0625,-5.25,-3.6875
1480623839158787,3.375,-9,-1.5625
1480623839189869,0.75,-8.75,-1.75
1480623839203405,0.5,-7.8125,-2.375
1480623839218447,2.75,-5.6875,-2.625
1480623839241006,6.3125,-4.0625,-2.4375
1480623839257550,10.25,-2.75,-3.5625
1480623839278605,11.3125,-2.375,-3.3125
1480623839301165,8.5,-0.625,-1.5625
1480623839317711,-0.375,0.3125,-0.4375
1480623839338766,-7.0625,1.375,-0.25
1480623839369347,-5.625,0.3125,0.125
1480623839377369,-0.125,-0.5,0.5625
1480623839398424,1.0625,4.125,0.5
1480623839420984,-4.8125,8.25,1.0625
1480623839443544,-20.9375,8.25,1.4375
1480623839467609,-28.9375,4,2.75
1480623839481144,-18.5625,1.625,0.1875
1480623839515235,-8.5625,5.1875,-0.4375
1480623839521752,-2.0625,8,0.5625
1480623839541304,-5.6875,7.8125,2.4375
1480623839563867,-0.1875,3,1.375
1480623839578906,1.3125,1.9375,0.5625
1480623839603971,-1.125,0.75,0.3125
1480623839623523,-2.6875,-0.625,-0.625
1480623839646086,0.375,-1.9375,-1.25
1480623839662631,4.125,-2.25,-2
1480623839683684,5.6875,-3.6875,-2.5625
1480623839698723,2.6875,-7.5,-2.25
1480623839721283,11.9375,-13.0625,-2.6875
1480623839744846,19.125,-13.75,-3.75
1480623839767406,20.125,-13.5625,-2.25
1480623839780945,14.9375,-17.6875,2.125
1480623839803502,10.5,-17.875,2.75
1480623839818542,4.875,-12.5,1.5
1480623839841103,-0.5,-7.8125,0.625
1480623839863665,0,-8.6875,0.625
1480623839878702,4.125,-11.125,1.375
1480623839901262,11.625,-12.5625,0.1875
1480623839923822,13.625,-13.375,-3.1875
1480623839938862,13.4375,-11.4375,-4.25
1480623839961422,12.3125,-6.9375,-1.875
1480623839983481,5.625,-0.5625,0.1875
1480623839998521,-4.875,-0.3125,1.375
1480623840022584,-13.25,-0.5625,0.9375
1480623840046651,-15.0625,-0.75,1.3125
1480623840058681,-12.25,6,1.375
1480623840081241,-13.6875,14.625,-0.5625
1480623840103801,-20.4375,13.4375,1.75
1480623840121849,-20,12.875,4.75
1480623840141031,-14.75,13.5,-1.125
1480623840163961,-5.125,11.0625,-1
1480623840180007,3,3.5,3.6875
1480623840202564,11,0.75,3.5625
1480623840223620,9.4375,1,1.75
1480623840240165,5.125,0.75,-0.3125
1480623840268740,2.4375,1.75,-2.4375
1480623840285284,-0.875,2.5625,-1.625
1480623840299822,1.5625,0.8125,1.8125
1480623840321382,4.625,-1.125,2.3125
1480623840343439,5.1875,1.25,0.625
1480623840365998,-0.1875,2.6875,0.5625
1480623840381040,-3.875,3.875,1.5
1480623840411621,-3.75,4.8125,2.3125
1480623840420645,-4.8125,5.625,2.5625
1480623840441198,-5.75,4.6875,1.4375
1480623840463759,-4.375,2.0625,-0.4375
1480623840487823,-0.625,0,0.3125
1480623840501359,3.9375,0.5,0.375
1480623840523417,4.75,1.875,-0.875
1480623840541967,3.25,1.5,-0.0625
1480623840561017,1.5,0.75,0.25
1480623840601124,0.5625,0.5625,0.5625
1480623840609146,-0.3125,0.625,0.8125
1480623840621178,-4.25,-0.9375,1.375
1480623840643737,-2.625,-0.1875,0.6875
1480623840661284,-1.6875,0.5,0.25
1480623840688857,-3.625,0.875,-0.1875
1480623840704900,-2.625,2.1875,-0.375
1480623840721445,0.25,3.1875,-0.4375
1480623840740996,1.8125,2.9375,-0.0625
1480623840765061,0.125,2.4375,0.25
1480623840781604,-1.5,1.9375,-0.4375
1480623840801156,-3.75,2.1875,-0.6875
1480623840823716,-3.6875,3.1875,0.0625
1480623840841764,-4.125,3.625,0.5
1480623840886383,-5.375,3.5625,0.875
1480623840888890,-6.375,4,1.8125
1480623840901423,-5.4375,4.25,2.375
1480623840937518,-6.5625,4.25,1.125
1480623840943534,-7.5625,3.3125,0.25
1480623840961583,-7.25,3,0.4375
1480623840982639,-8.1875,2.25,0.6875
1480623841003695,-9.625,2.1875,0.6875
1480623841050820,-7,2,0.6875
1480623841052826,-4.4375,2,1.4375
1480623841063354,-2.0625,2.125,0.375
1480623841094938,-1.375,1.75,0
1480623841100953,-3.5,1.5,-0.125
1480623841134042,-5.375,1.375,0.1875
1480623841155599,-4.25,1.9375,0.8125
1480623841162621,0.375,1.3125,1.0625
1480623841191194,0.625,1.5625,-0.125
1480623841209743,-1.8125,0.75,-0.5625
1480623841222778,-0.625,1.5,-0.5625
1480623841245340,1.3125,0.125,-0.4375
1480623841265893,2.9375,-1.625,-0.875
1480623841289957,4.9375,-3.3125,-1.5
1480623841321541,6,-2.4375,-1.5
1480623841326052,5.125,-0.8125,-0.4375
1480623841342598,1,-0.4375,-0.3125
1480623841371172,-2.375,-0.875,-0.9375
1480623841386212,-2.875,-0.9375,-0.6875
1480623841410277,-1.875,-0.625,0.0625
1480623841433840,1.3125,-0.375,0.1875
1480623841454395,1.875,0.125,-0.125
1480623841462418,3.1875,-0.75,-0.75
1480623841486480,3.5,0.25,-0.375
1480623841506032,0.875,0.75,0.125
1480623841524580,-2.75,0.5625,0.125
1480623841570202,-3.125,-0.3125,-0.125
1480623841575216,-1.1875,0.1875,0.0625
1480623841600282,-0.5625,0.0625,-0.125
1480623841605297,0.5,0.1875,-0.4375
1480623841625850,0.625,0.5,-0.25
1480623841651418,-0.1875,0.6875,-0.375
1480623841664954,-1.5,0.75,-0.25
1480623841702053,-2.6875,0.8125,0.3125
1480623841710075,-2.0625,1.0625,0.6875
1480623841732634,-2.4375,1.3125,0.1875
1480623841763215,-5.8125,1.4375,0.625
1480623841765722,-4.8125,-0.25,1.125
1480623841791291,0.8125,-0.3125,1.375
1480623841822373,2.625,0.25,0.9375
1480623841846938,4.0625,0.5,-2.0625
1480623841850949,4.1875,-0.3125,-4.5625
1480623841873510,7.75,-2.6875,-4.9375
1480623841884037,14,-5.875,-4.125
1480623841903590,9.3125,-4.8125,-3.25
1480623841926149,2.1875,-3.25,-1.4375
1480623841944198,-1.125,-5.5625,0.4375
1480623841965254,-1.6875,-6,-0.125
1480623841986310,0.125,-5.625,-1.25
1480623842003856,2.875,-3.875,-0.75
1480623842024410,9.125,-2.4375,-1.375
1480623842045970,10.75,-2.5625,-2.4375
1480623842064016,9.875,-3.6875,-3.625
1480623842083569,6.3125,-3.6875,-3.375
1480623842115152,-0.5625,-0.6875,-1.1875
1480623842124176,-7.0625,1.1875,1.5
1480623842175814,-12.0625,1.375,3
1480623842177819,-11.5625,4.0625,4.1875
1480623842189850,-11.8125,3.75,4.875
1480623842204891,-14.125,0.1875,3.1875
1480623842225946,-5.25,-0.5,-0.4375
1480623842244496,7.3125,3.3125,-1.1875
1480623842265051,12.75,5.3125,-0.8125
1480623842289115,8.9375,3.6875,-0.6875
1480623842318192,1.75,1.875,-0.5
1480623842325215,-1.8125,0.75,-0.125
1480623842346268,1.0625,0.3125,-0.25
1480623842368828,3.8125,0.5,-1
1480623842390886,2.9375,0.375,-1.25
1480623842405926,0.75,0.5625,-1.1875
1480623842439015,-0.625,-0.0625,-1
1480623842445031,-0.625,0.0625,-0.5625
1480623842466086,-1.125,-0.375,-0.75
1480623842484134,-0.0625,-0.125,-0.8125
1480623842506695,1.5625,0.625,-0.3125
1480623842526245,0.0625,1.125,0.25
1480623842548805,-1.3125,0.75,0.3125
1480623842566352,-1.625,-0.125,0.125
1480623842593425,-2.8125,0.4375,0.1875
1480623842615985,0.0625,0.125,0.125
1480623842640049,1.5,0.5,0.375
1480623842646064,0.4375,0.75,0.375
1480623842677649,1.5625,0.0625,0.5
1480623842686672,0.125,-0.25,1
1480623842706225,0.0625,-0.5,0.6875
1480623842728786,-0.4375,-0.625,0.6875
1480623842747334,-1.1875,-0.375,-0.125
1480623842765883,-0.125,-0.6875,-0.25
1480623842788443,-0.0625,-0.0625,0.4375
1480623842823035,-0.1875,1.1875,0.75
1480623842827547,-0.25,1.8125,0.5625
1480623842848603,-2.3125,2.1875,0.5625
1480623842874673,-4.3125,1.9375,0.3125
1480623842886203,-3.5625,1.375,0.0625
1480623842911270,-1.375,0.875,-0.25
1480623842931323,-0.75,0.25,-0.25
1480623842953382,-0.25,0,-0.375
1480623842975942,-0.3125,-0.5,0.125
1480623842986471,0.3125,-0.4375,0.5625
1480623843006022,0.1875,-0.4375,0.25
1480623843039110,-1.1875,0,0.1875
1480623843046631,-1.375,0.3125,0
1480623843077211,-1.4375,0.3125,0.0625
1480623843091248,-0.875,-0.5,0.0625
1480623843106797,-0.4375,-0.1875,0.375
1480623843127346,0.6875,0,1
1480623843151409,-0.5625,0.625,0.6875
1480623843173468,-2.0625,0.5625,-0.8125
1480623843187505,-2.8125,0.8125,-0.9375
1480623843225606,-1.9375,0.9375,-0.25
1480623843228113,-2.375,1.4375,-0.5
1480623843263707,-3.875,1.5,-0.8125
1480623843268721,-5,1.3125,-0.625
1480623843286268,-4.6875,0.6875,-0.5625
1480623843314844,-4.125,0.875,-0.375
1480623843328384,-2.1875,0.875,0.375
1480623843353948,-1.1875,0.125,0
1480623843375011,0.4375,-0.75,-0.3125
1480623843396061,1.9375,-1.875,-0.5625
1480623843406589,3,-1.5625,-0.0625
1480623843429148,2.1875,0.5,-0.6875
1480623843448699,-1.0625,1.3125,-1.625
1480623843466246,-3.4375,0.3125,-0.375
1480623843489307,-2.6875,-0.1875,0.375
1480623843508860,0.125,0.6875,0.4375
1480623843553980,0.25,0.5,-0.3125
1480623843565511,-0.75,0.5,-0.4375
1480623843570023,0.375,0.125,-0.8125
1480623843594087,-0.4375,-0.25,-1.1875
1480623843616647,-1.125,-0.625,-1.125
1480623843631686,-0.625,-0.6875,-1.25
1480623843646726,0.125,-0.625,-1.8125
1480623843676305,-0.3125,-0.3125,-1.625
1480623843705383,-0.4375,-0.1875,-0.6875
1480623843707890,-0.4375,-0.125,-0.4375
1480623843728947,-1.5625,-0.125,-0.625
1480623843750001,-0.875,-0.25,-0.25
1480623843766545,0.75,0.375,0.375
1480623843789106,-0.8125,1.3125,0.4375
1480623843816177,-2.1875,1,-0.3125
1480623843841244,-1.875,-0.125,0.375
1480623843853778,-0.4375,-0.6875,0.5
1480623843869821,0.1875,-0.9375,-0.625
1480623843909425,1.3125,-0.9375,-1.1875
1480623843921958,2.3125,-1,-0.1875
1480623843929980,1.9375,-1,0.1875
1480623843946524,-0.375,-0.1875,-0.375
1480623843985127,-0.625,-0.125,-0.625
1480623843996157,0.0625,0.25,-0.25
1480623844018716,0.5,0.5,-0.6875
1480623844033758,-0.1875,0.8125,-0.8125
1480623844051807,0.125,0.4375,-0.4375
1480623844071356,0.1875,0.6875,-0.5625
1480623844096925,-0.4375,0.4375,-0.75
1480623844118983,-0.1875,0,0
1480623844131015,0.8125,0.0625,0.5625
1480623844149564,0.375,-0.375,-0.3125
1480623844187667,-0.3125,-0.625,-1.4375
1480623844209725,-1,-0.5,-1.0625
1480623844221756,-0.1875,0,-0.625
1480623844230280,1.6875,0.375,-0.4375
1480623844253842,1.6875,0.5625,0.0625
1480623844274899,-0.6875,0.125,0
1480623844289938,-1.5625,0.3125,0.3125
1480623844320019,-1.5625,-0.1875,0.25
1480623844336562,-0.5625,-0.8125,-0.4375
1480623844351602,2.0625,-0.5,-0.5
1480623844375666,3.1875,-0.625,-0.1875
1480623844389202,1.3125,-0.5,0.1875
1480623844424796,-1,-0.5625,0.5
1480623844430812,-2.625,-1,1.0625
1480623844486461,-2.8125,-0.75,0.75
1480623844488466,-0.3125,-0.1875,-0.0625
1480623844493980,1.125,0.25,-0.1875
1480623844513532,0.9375,0.4375,0.5625
1480623844539603,0.5,0.4375,0.8125
1480623844551133,-0.1875,0.375,0.75
1480623844569181,-1.8125,-0.125,0.3125
1480623844591741,-1.0625,-0.6875,-0.1875
1480623844613801,2.875,-0.8125,-0.25
1480623844629849,4.5625,-2.125,-0.125
1480623844664942,2.9375,-1.375,-1.0625
1480623844670958,-0.1875,-0.6875,-0.125
1480623844689005,-0.625,-1.625,1.625
1480623844725603,2,-0.8125,2.125
1480623844754179,2.625,-0.1875,2.1875
1480623844765209,-0.1875,0.375,0.75
1480623844773731,3,-0.25,2.875
1480623844777742,4.875,0.375,1.9375
1480623844791278,2.875,1.5,0.625
1480623844816345,-1.375,0.8125,-0.125
1480623844839408,-3.0625,-0.0625,0.25
1480623844867982,-0.5625,-0.75,1.25
1480623844873497,1.6875,-1.0625,1.1875
1480623844891545,2.625,-1.25,0.3125
1480623844918616,2.5,-0.875,-0.375
1480623844951204,2.375,-1.0625,-1.1875
1480623844953710,1.3125,-0.8125,-0.4375
1480623844979779,0.5,-0.75,0.3125
1480623844988803,-0.375,-0.6875,-0.1875
1480623845018884,-0.75,-0.4375,-0.3125
1480623845041443,-1.25,-0.25,-0.3125
1480623845048963,-1.125,-0.3125,0.1875
1480623845072527,-0.625,-0.0625,-0.3125
1480623845094083,-0.6875,-0.1875,-1.0625
1480623845113636,-0.9375,0.125,-0.6875
1480623845132185,-0.8125,0.375,0.375
1480623845152740,-1.4375,0.0625,-0.0625
1480623845168782,-1.9375,0.0625,-0.875
1480623845198863,-0.75,0.1875,-0.875
1480623845229443,0.0625,0.5625,-0.0625
1480623845233456,-1.0625,0.625,0.0625
1480623845259023,-1.625,0.875,-0.125
1480623845273564,-1.875,0.9375,0.1875
1480623845296622,-1.625,0.5,0.1875
1480623845316175,-1,0.625,-0.25
1480623845334222,-1.625,0.8125,-0.6875
1480623845370318,-2.5625,1.25,-0.875
