timestamp,roll,pitch,yaw
1480623779863859,-1.35278,0.133404,-0.689656
1480623779881907,-1.3528,0.133436,-0.689677
1480623779901461,-1.35286,0.133598,-0.689666
1480623779919508,-1.35286,0.133598,-0.689666
1480623779942071,-1.35286,0.133598,-0.689666
1480623779961620,-1.35286,0.133598,-0.689666
1480623779984180,-1.35286,0.133598,-0.689666
1480623780015763,-1.35286,0.133598,-0.689666
1480623780021279,-1.35286,0.133598,-0.689666
1480623780043838,-1.35293,0.13369,-0.689761
1480623780069407,-1.35292,0.13376,-0.689655
1480623780081438,-1.35292,0.13376,-0.689655
1480623780105503,-1.35291,0.133728,-0.689634
1480623780129566,-1.35291,0.133728,-0.689634
1480623780141602,-1.35306,0.1337,-0.689659
1480623780164160,-1.35298,0.13382,-0.689729
1480623780182206,-1.35298,0.13382,-0.689729
1480623780201257,-1.35313,0.133792,-0.689754
1480623780231336,-1.35313,0.133792,-0.689754
1480623780241867,-1.35313,0.133863,-0.689648
1480623780261417,-1.35313,0.133863,-0.689648
1480623780293006,-1.35297,0.13389,-0.689623
1480623780302025,-1.35297,0.13389,-0.689623
1480623780321578,-1.35304,0.133982,-0.689718
1480623780346644,-1.35304,0.133982,-0.689718
1480623780367700,-1.35304,0.133982,-0.689718
1480623780384244,-1.35304,0.133982,-0.689718
1480623780403799,-1.35304,0.134084,-0.689633
1480623780422345,-1.35304,0.134084,-0.689633
1480623780442902,-1.35303,0.134052,-0.689612
1480623780463955,-1.3531,0.134144,-0.689707
1480623780482004,-1.3531,0.134144,-0.689707
1480623780503060,-1.3531,0.134144,-0.689707
1480623780524122,-1.3531,0.134144,-0.689707
1480623780549183,-1.3531,0.134144,-0.689707
1480623780570239,-1.35311,0.134246,-0.689622
1480623780591796,-1.35318,0.134338,-0.689717
1480623780609343,-1.35318,0.134338,-0.689717
1480623780631903,-1.35316,0.134306,-0.689696
1480623780651454,-1.35316,0.134306,-0.689696
1480623780666494,-1.35316,0.134306,-0.689696
1480623780684543,-1.35332,0.134279,-0.689721
1480623780713119,-1.35332,0.134279,-0.689721
1480623780737685,-1.35357,0.134685,-0.689974
1480623780759242,-1.35357,0.134685,-0.689974
1480623780763753,-1.35357,0.134685,-0.689974
1480623780781802,-1.35357,0.134685,-0.689974
1480623780804361,-1.35357,0.134685,-0.689974
1480623780823914,-1.35357,0.134685,-0.689974
1480623780847978,-1.35357,0.134685,-0.689974
1480623780864522,-1.35357,0.134685,-0.689974
1480623780884074,-1.35363,0.134847,-0.689963
1480623780903125,-1.35363,0.134847,-0.689963
1480623780924182,-1.35363,0.134847,-0.689963
1480623780943733,-1.35363,0.134847,-0.689963
1480623780961781,-1.35363,0.134847,-0.689963
1480623780992362,-1.35363,0.134847,-0.689963
1480623781011412,-1.35347,0.134874,-0.689938
1480623781021941,-1.35363,0.134847,-0.689963
1480623781052021,-1.3537,0.134939,-0.690058
1480623781064052,-1.35368,0.134907,-0.690037
1480623781089622,-1.35368,0.134907,-0.690037
1480623781104159,-1.35362,0.134815,-0.689942
1480623781126720,-1.35368,0.134907,-0.690037
1480623781141762,-1.35368,0.134977,-0.689931
1480623781164319,-1.35383,0.134949,-0.689956
1480623781183871,-1.35375,0.135069,-0.690026
1480623781202421,-1.35318,0.134962,-0.68991
1480623781228994,-1.35299,0.134891,-0.689939
1480623781253056,-1.35299,0.134891,-0.689939
1480623781268096,-1.3529,0.134767,-0.689822
1480623781290657,-1.35297,0.134859,-0.689917
1480623781304191,-1.35297,0.134859,-0.689917
1480623781329259,-1.35313,0.134832,-0.689942
1480623781351818,-1.35313,0.134832,-0.689942
1480623781382399,-1.35312,0.134902,-0.689836
1480623781393930,-1.35296,0.134929,-0.689811
1480623781404458,-1.35296,0.134929,-0.689811
1480623781441557,-1.35296,0.134929,-0.689811
1480623781446570,-1.35296,0.134929,-0.689811
1480623781464619,-1.35303,0.135021,-0.689906
1480623781492694,-1.35303,0.135021,-0.689906
1480623781513748,-1.35319,0.134994,-0.689931
1480623781524781,-1.35319,0.134994,-0.689931
1480623781567893,-1.35319,0.134994,-0.689931
1480623781576917,-1.35319,0.134994,-0.689931
1480623781584438,-1.35319,0.134994,-0.689931
1480623781613013,-1.35319,0.134994,-0.689931
1480623781626549,-1.35319,0.134994,-0.689931
1480623781658134,-1.35325,0.135156,-0.68992
1480623781674178,-1.35325,0.135156,-0.68992
1480623781686207,-1.35325,0.135156,-0.68992
1480623781727317,-1.35325,0.135156,-0.68992
1480623781731328,-1.35325,0.135156,-0.68992
1480623781770933,-1.35325,0.135156,-0.68992
1480623781776448,-1.35325,0.135156,-0.68992
1480623781794497,-1.35325,0.135156,-0.68992
1480623781814048,-1.35325,0.135156,-0.68992
1480623781847637,-1.35325,0.135156,-0.68992
1480623781851647,-1.35325,0.135156,-0.68992
1480623781884736,-1.35299,0.13489,-0.689455
1480623781891758,-1.35289,0.134457,-0.689227
1480623781906798,-1.35289,0.134457,-0.689227
1480623781936874,-1.35294,0.134517,-0.689301
1480623781959438,-1.35294,0.134517,-0.689301
1480623781966956,-1.3531,0.134489,-0.689326
1480623782004053,-1.35309,0.13456,-0.68922
1480623782006561,-1.35309,0.13456,-0.68922
1480623782039648,-1.35309,0.13456,-0.68922
1480623782049678,-1.35309,0.13456,-0.68922
1480623782072737,-1.35309,0.13456,-0.68922
1480623782103318,-1.35309,0.13456,-0.68922
1480623782115851,-1.35316,0.134652,-0.689315
1480623782124374,-1.35316,0.134652,-0.689315
1480623782147434,-1.35316,0.134652,-0.689315
1480623782166485,-1.35316,0.134652,-0.689315
1480623782184535,-1.35316,0.134652,-0.689315
1480623782213109,-1.35301,0.134679,-0.68929
1480623782227648,-1.35301,0.134679,-0.68929
1480623782244192,-1.35301,0.134679,-0.68929
1480623782266752,-1.35273,0.134657,-0.689012
1480623782293829,-1.3528,0.134749,-0.689107
1480623782304368,-1.3528,0.134749,-0.689107
1480623782331424,-1.3528,0.134749,-0.689107
1480623782347968,-1.3528,0.134749,-0.689107
1480623782364512,-1.3528,0.134749,-0.689107
1480623782402614,-1.3528,0.134749,-0.689107
1480623782414145,-1.35279,0.134717,-0.689086
1480623782424172,-1.35279,0.134717,-0.689086
1480623782446731,-1.35279,0.134717,-0.689086
1480623782467787,-1.35295,0.134689,-0.68911
1480623782490347,-1.35295,0.134689,-0.68911
1480623782507396,-1.35301,0.134852,-0.689099
1480623782528448,-1.35285,0.134879,-0.689075
1480623782550507,-1.35285,0.134879,-0.689075
1480623782566048,-1.35285,0.134879,-0.689075
1480623782604149,-1.35285,0.134879,-0.689075
1480623782626710,-1.35285,0.134879,-0.689075
1480623782629217,-1.35285,0.134879,-0.689075
1480623782656289,-1.35285,0.134879,-0.689075
1480623782678347,-1.35285,0.134879,-0.689075
1480623782687371,-1.35285,0.134879,-0.689075
1480623782714446,-1.35285,0.134879,-0.689075
1480623782730987,-1.35285,0.134879,-0.689075
1480623782746027,-1.35308,0.134944,-0.689194
1480623782769088,-1.35307,0.135014,-0.689089
1480623782797165,-1.35307,0.135014,-0.689089
1480623782806188,-1.35307,0.135014,-0.689089
1480623782828750,-1.35307,0.135014,-0.689089
1480623782849804,-1.35307,0.135014,-0.689089
1480623782866848,-1.35307,0.135014,-0.689089
1480623782888406,-1.35307,0.135014,-0.689089
1480623782910467,-1.35307,0.135014,-0.689089
1480623782932022,-1.35305,0.134982,-0.689067
1480623782956087,-1.35305,0.134982,-0.689067
1480623782969622,-1.35307,0.135014,-0.689089
1480623782986166,-1.35307,0.135014,-0.689089
1480623783008728,-1.35307,0.135014,-0.689089
1480623783029783,-1.35252,0.134625,-0.688913
1480623783045828,-1.35185,0.134225,-0.688841
1480623783068385,-1.35129,0.134149,-0.688747
1480623783089441,-1.35128,0.134117,-0.688725
1480623783109495,-1.35128,0.134117,-0.688725
1480623783136066,-1.35129,0.134149,-0.688747
1480623783150103,-1.35113,0.134177,-0.688722
1480623783166145,-1.35113,0.134177,-0.688722
1480623783188706,-1.35114,0.134106,-0.688828
1480623783209762,-1.35114,0.134106,-0.688828
1480623783233825,-1.35107,0.134014,-0.688733
1480623783248864,-1.3513,0.134079,-0.688853
1480623783270924,-1.3513,0.134079,-0.688853
1480623783285964,-1.3513,0.134079,-0.688853
1480623783309027,-1.3513,0.134079,-0.688853
1480623783331084,-1.3513,0.134079,-0.688853
1480623783346124,-1.35121,0.133955,-0.688737
1480623783376706,-1.35121,0.133955,-0.688737
1480623783390242,-1.35121,0.133955,-0.688737
1480623783406787,-1.35121,0.133955,-0.688737
1480623783435862,-1.35121,0.133955,-0.688737
1480623783456919,-1.35128,0.134047,-0.688832
1480623783465943,-1.35128,0.134047,-0.688832
1480623783502540,-1.35121,0.133955,-0.688737
1480623783509562,-1.35121,0.133955,-0.688737
1480623783526104,-1.35123,0.133987,-0.688758
1480623783548662,-1.35123,0.133987,-0.688758
1480623783571223,-1.35124,0.133917,-0.688864
1480623783601303,-1.35122,0.133885,-0.688843
1480623783608825,-1.35122,0.133885,-0.688843
1480623783630882,-1.35122,0.133885,-0.688843
1480623783653441,-1.35115,0.133793,-0.688748
1480623783676002,-1.35117,0.133825,-0.688769
1480623783691042,-1.35117,0.133825,-0.688769
1480623783714103,-1.35117,0.133825,-0.688769
1480623783729644,-1.35144,0.134019,-0.688856
1480623783759225,-1.35142,0.133987,-0.688835
1480623783765239,-1.35144,0.134019,-0.688856
1480623783794320,-1.35144,0.134019,-0.688856
1480623783825900,-1.35144,0.134019,-0.688856
1480623783828410,-1.35137,0.133927,-0.688761
1480623783848460,-1.35137,0.133927,-0.688761
1480623783878544,-1.35137,0.133927,-0.688761
1480623783885559,-1.35137,0.133927,-0.688761
1480623783915138,-1.35137,0.133927,-0.688761
1480623783931681,-1.35144,0.134019,-0.688856
1480623783969281,-1.35144,0.134019,-0.688856
1480623783972290,-1.35144,0.134019,-0.688856
1480623783990839,-1.35121,0.133955,-0.688737
1480623784013399,-1.35121,0.133955,-0.688737
1480623784028439,-1.35137,0.133927,-0.688761
1480623784050999,-1.35137,0.133927,-0.688761
1480623784072557,-1.35137,0.133927,-0.688761
1480623784089101,-1.35121,0.133955,-0.688737
1480623784111159,-1.35121,0.133955,-0.688737
1480623784133719,-1.35137,0.133927,-0.688761
1480623784156279,-1.35121,0.133955,-0.688737
1480623784171821,-1.35121,0.133955,-0.688737
1480623784192379,-1.35121,0.133955,-0.688737
1480623784208922,-1.35121,0.133955,-0.688737
1480623784238498,-1.35121,0.133955,-0.688737
1480623784269079,-1.35128,0.134047,-0.688832
1480623784272591,-1.35128,0.134047,-0.688832
1480623784291140,-1.35121,0.133955,-0.688737
1480623784311712,-1.35121,0.133955,-0.688737
1480623784328740,-1.35121,0.133955,-0.688737
1480623784351298,-1.35121,0.133955,-0.688737
1480623784372357,-1.35121,0.133955,-0.688737
1480623784388396,-1.35121,0.133955,-0.688737
1480623784410957,-1.35144,0.134019,-0.688856
1480623784433517,-1.35144,0.134019,-0.688856
1480623784448557,-1.35128,0.134047,-0.688832
1480623784473122,-1.35128,0.134047,-0.688832
1480623784492173,-1.35128,0.134047,-0.688832
1480623784508719,-1.3513,0.134079,-0.688853
1480623784531278,-1.35101,0.133852,-0.688744
1480623784554840,-1.35071,0.133386,-0.688419
1480623784567874,-1.35025,0.133119,-0.687878
1480623784590935,-1.34977,0.13282,-0.687316
1480623784621516,-1.34958,0.132818,-0.686757
1480623784629036,-1.3498,0.132883,-0.686876
1480623784658616,-1.35026,0.133149,-0.686934
1480623784674162,-1.35086,0.133599,-0.687181
1480623784687693,-1.35139,0.13406,-0.687732
1480623784711256,-1.3512,0.13451,-0.688037
1480623784733315,-1.35121,0.134542,-0.688058
1480623784747853,-1.35128,0.134634,-0.688153
1480623784794978,-1.35129,0.13432,-0.688073
1480623784799490,-1.35096,0.133893,-0.688103
1480623784823554,-1.35088,0.133217,-0.688173
1480623784831074,-1.35081,0.132953,-0.688269
1480623784853634,-1.35081,0.132953,-0.688269
1480623784867672,-1.3508,0.133023,-0.688163
1480623784891234,-1.3508,0.133023,-0.688163
1480623784937357,-1.3508,0.133023,-0.688163
1480623784951394,-1.35087,0.133115,-0.688257
1480623784953901,-1.35087,0.133115,-0.688257
1480623784981474,-1.35087,0.133115,-0.688257
1480623784987992,-1.35087,0.133115,-0.688257
1480623785011053,-1.35087,0.133115,-0.688257
1480623785033614,-1.35087,0.133115,-0.688257
1480623785071719,-1.35087,0.133115,-0.688257
1480623785074723,-1.35086,0.133185,-0.688151
1480623785107309,-1.35072,0.133244,-0.688148
1480623785117336,-1.35072,0.133244,-0.688148
1480623785130872,-1.35072,0.133244,-0.688148
1480623785153432,-1.35073,0.133174,-0.688254
1480623785174490,-1.35072,0.133244,-0.688148
1480623785191545,-1.35072,0.133244,-0.688148
1480623785219608,-1.35072,0.133244,-0.688148
1480623785234648,-1.35072,0.133244,-0.688148
1480623785251192,-1.35063,0.133364,-0.688218
1480623785287788,-1.35079,0.133336,-0.688243
1480623785294807,-1.35079,0.133336,-0.688243
1480623785319374,-1.35079,0.133336,-0.688243
1480623785348953,-1.35079,0.133336,-0.688243
1480623785354466,-1.35079,0.133336,-0.688243
1480623785378543,-1.35079,0.133336,-0.688243
1480623785394072,-1.35079,0.133336,-0.688243
1480623785414627,-1.35078,0.133407,-0.688137
1480623785432675,-1.35078,0.133407,-0.688137
1480623785453731,-1.35063,0.133364,-0.688218
1480623785492333,-1.35063,0.133364,-0.688218
1480623785497348,-1.35064,0.133466,-0.688133
1480623785513390,-1.35062,0.133434,-0.688112
1480623785543470,-1.35062,0.133434,-0.688112
1480623785566530,-1.35069,0.133526,-0.688207
1480623785574055,-1.35085,0.133499,-0.688231
1480623785602627,-1.35069,0.133526,-0.688207
1480623785611152,-1.35069,0.133526,-0.688207
1480623785633710,-1.35069,0.133526,-0.688207
1480623785656269,-1.35069,0.133526,-0.688207
1480623785678328,-1.35085,0.133499,-0.688231
1480623785707908,-1.35069,0.133596,-0.688101
1480623785715928,-1.35091,0.133661,-0.68822
1480623785730466,-1.35091,0.133661,-0.68822
1480623785768568,-1.35075,0.133688,-0.688196
1480623785792633,-1.35075,0.133688,-0.688196
1480623785797144,-1.35075,0.133688,-0.688196
1480623785821208,-1.35077,0.13372,-0.688217
1480623785842264,-1.35075,0.133688,-0.688196
1480623785857806,-1.35077,0.13372,-0.688217
1480623785874868,-1.35081,0.133851,-0.688184
1480623785895907,-1.35042,0.133747,-0.688115
1480623785934008,-1.34985,0.133812,-0.687809
1480623785936515,-1.34887,0.133568,-0.687604
1480623785956582,-1.34814,0.133834,-0.687566
1480623785986147,-1.34814,0.133834,-0.687566
1480623785993667,-1.34892,0.133801,-0.687487
1480623786016728,-1.34899,0.133893,-0.687581
1480623786038286,-1.34899,0.133893,-0.687581
1480623786060847,-1.34899,0.133893,-0.687581
1480623786098947,-1.34899,0.133893,-0.687581
1480623786101454,-1.34899,0.133893,-0.687581
1480623786113486,-1.349,0.133925,-0.687603
1480623786136045,-1.34885,0.133952,-0.687578
1480623786157105,-1.34898,0.133963,-0.687475
1480623786174149,-1.34934,0.134038,-0.687492
1480623786211247,-1.34934,0.134038,-0.687492
1480623786225784,-1.34933,0.134006,-0.687471
1480623786234809,-1.34934,0.134038,-0.687492
1480623786263385,-1.34934,0.134038,-0.687492
1480623786278425,-1.3496,0.134131,-0.687664
1480623786293966,-1.34976,0.134103,-0.687688
1480623786316526,-1.3496,0.134131,-0.687664
1480623786344601,-1.3496,0.134131,-0.687664
1480623786353640,-1.3496,0.134131,-0.687664
1480623786376185,-1.3496,0.134131,-0.687664
1480623786398745,-1.3496,0.134131,-0.687664
1480623786413284,-1.3496,0.134131,-0.687664
1480623786435843,-1.3496,0.134131,-0.687664
1480623786459908,-1.3496,0.134131,-0.687664
1480623786488484,-1.3496,0.134201,-0.687558
1480623786496504,-1.34982,0.134266,-0.687677
1480623786518564,-1.34967,0.134293,-0.687652
1480623786541628,-1.34967,0.134293,-0.687652
1480623786556666,-1.34967,0.134293,-0.687652
1480623786578723,-1.34967,0.134293,-0.687652
1480623786592761,-1.34967,0.134293,-0.687652
1480623786624345,-1.34967,0.134293,-0.687652
1480623786646404,-1.34967,0.134293,-0.687652
1480623786654930,-1.34967,0.134293,-0.687652
1480623786677489,-1.34973,0.134455,-0.687641
1480623786704559,-1.34974,0.134487,-0.687662
1480623786713082,-1.34973,0.134455,-0.687641
1480623786736142,-1.34974,0.134487,-0.687662
1480623786764718,-1.34974,0.134487,-0.687662
1480623786773743,-1.34974,0.134487,-0.687662
1480623786796804,-1.34973,0.134455,-0.687641
1480623786819865,-1.34973,0.134455,-0.687641
1480623786841059,-1.34973,0.134455,-0.687641
1480623786855964,-1.34973,0.134455,-0.687641
1480623786901584,-1.34973,0.134455,-0.687641
1480623786904090,-1.34996,0.134276,-0.687575
1480623786931161,-1.34964,0.133951,-0.68752
1480623786938681,-1.34887,0.133741,-0.687413
1480623786961242,-1.3488,0.133648,-0.687319
1480623786983300,-1.34887,0.133741,-0.687413
1480623786998341,-1.34887,0.133741,-0.687413
1480623787019395,-1.34886,0.133811,-0.687307
1480623787043463,-1.34886,0.133811,-0.687307
1480623787058501,-1.34886,0.133811,-0.687307
1480623787096601,-1.3487,0.133838,-0.687283
1480623787099109,-1.34872,0.13387,-0.687304
1480623787126180,-1.3487,0.133838,-0.687283
1480623787156762,-1.34886,0.133811,-0.687307
1480623787158766,-1.3485,0.133735,-0.687291
1480623787178319,-1.34801,0.133751,-0.687292
1480623787200879,-1.34745,0.133573,-0.687284
1480623787215919,-1.34675,0.133455,-0.687272
1480623787238479,-1.34516,0.133316,-0.686606
1480623787261039,-1.34274,0.13346,-0.686057
1480623787283601,-1.34045,0.133032,-0.686058
1480623787298638,-1.339,0.132389,-0.685867
1480623787321199,-1.33664,0.132109,-0.685481
1480623787336239,-1.33251,0.131992,-0.683987
1480623787358297,-1.32831,0.131203,-0.68064
1480623787379353,-1.32484,0.130474,-0.674055
1480623787395397,-1.32041,0.129925,-0.66716
1480623787425978,-1.31244,0.129322,-0.662156
1480623787441521,-1.30567,0.130855,-0.659721
1480623787455556,-1.30356,0.132059,-0.659173
1480623787484634,-1.3053,0.131887,-0.658316
1480623787501178,-1.30665,0.130828,-0.656332
1480623787516217,-1.30411,0.130246,-0.65459
1480623787539279,-1.2982,0.129842,-0.653038
1480623787560836,-1.29119,0.129375,-0.651584
1480623787575376,-1.28544,0.129576,-0.650729
1480623787598938,-1.28289,0.130727,-0.650807
1480623787620998,-1.28562,0.133146,-0.650005
1480623787642055,-1.28881,0.133624,-0.648992
1480623787658598,-1.28826,0.133089,-0.648881
1480623787681157,-1.28522,0.132571,-0.64944
1480623787703717,-1.2824,0.132396,-0.648748
1480623787718756,-1.28024,0.131703,-0.647232
1480623787741818,-1.27879,0.130755,-0.645753
1480623787763375,-1.27892,0.130417,-0.645532
1480623787784431,-1.28048,0.130319,-0.646106
1480623787800975,-1.28082,0.13048,-0.646484
1480623787822032,-1.27815,0.130541,-0.646503
1480623787846596,-1.27178,0.129364,-0.64776
1480623787875173,-1.26418,0.128702,-0.649507
1480623787882692,-1.258,0.12852,-0.650638
1480623787898735,-1.25362,0.128224,-0.652059
1480623787928315,-1.25217,0.128756,-0.654366
1480623787941851,-1.25581,0.129932,-0.657599
1480623787958395,-1.26126,0.131174,-0.660998
1480623787981455,-1.26862,0.131878,-0.663978
1480623788002010,-1.27125,0.131177,-0.666645
1480623788018554,-1.27202,0.130078,-0.668447
1480623788041616,-1.2711,0.129815,-0.66986
1480623788062170,-1.27215,0.130312,-0.670562
1480623788078714,-1.27577,0.131417,-0.671116
1480623788100773,-1.28105,0.131699,-0.672378
1480623788122335,-1.28256,0.129149,-0.67428
1480623788139376,-1.27998,0.126925,-0.676383
1480623788160932,-1.27521,0.127093,-0.678164
1480623788181989,-1.2716,0.127169,-0.681665
1480623788198533,-1.27513,0.127122,-0.68626
1480623788221596,-1.28509,0.127684,-0.68976
1480623788242149,-1.29539,0.127445,-0.69121
1480623788257692,-1.30249,0.129166,-0.692159
1480623788281253,-1.30773,0.131328,-0.694143
1480623788302309,-1.31233,0.131637,-0.696424
1480623788317851,-1.31539,0.131964,-0.699335
1480623788340912,-1.31687,0.134371,-0.701725
1480623788369488,-1.32038,0.136926,-0.704617
1480623788380016,-1.32529,0.136114,-0.707147
1480623788401072,-1.329,0.136898,-0.70891
1480623788431151,-1.33126,0.138072,-0.709332
1480623788438673,-1.33356,0.138913,-0.708855
1480623788461232,-1.33293,0.138724,-0.709134
1480623788483290,-1.33341,0.138948,-0.709318
1480623788511868,-1.33397,0.138969,-0.708564
1480623788521893,-1.33382,0.13927,-0.708261
1480623788543454,-1.33407,0.13965,-0.708977
1480623788566012,-1.33499,0.139312,-0.709686
1480623788581051,-1.33683,0.139285,-0.71031
1480623788603611,-1.34082,0.139814,-0.710363
1480623788617648,-1.34517,0.140554,-0.710227
1480623788641216,-1.34671,0.141054,-0.709387
1480623788664273,-1.34589,0.142173,-0.708522
1480623788684826,-1.34519,0.142857,-0.70851
1480623788700870,-1.34536,0.142345,-0.709133
1480623788723930,-1.34474,0.141987,-0.710085
1480623788737968,-1.34374,0.141672,-0.711761
1480623788761030,-1.34287,0.141344,-0.714287
1480623788783589,-1.34109,0.140708,-0.716899
1480623788797627,-1.34093,0.140488,-0.718955
1480623788822192,-1.34263,0.140074,-0.720541
1480623788843749,-1.34297,0.139888,-0.722152
1480623788864304,-1.34302,0.140109,-0.723818
1480623788903910,-1.34333,0.140446,-0.72519
1480623788906416,-1.34298,0.140354,-0.72613
1480623788924464,-1.34187,0.139956,-0.72671
1480623788941010,-1.34179,0.139637,-0.727743
1480623788964069,-1.34277,0.139464,-0.729273
1480623788986629,-1.34417,0.13949,-0.731279
1480623789001168,-1.34661,0.139892,-0.732993
1480623789023731,-1.35012,0.140531,-0.734636
1480623789044784,-1.35434,0.141236,-0.73677
1480623789060827,-1.3591,0.142242,-0.739053
1480623789083387,-1.36681,0.143413,-0.74061
1480623789104443,-1.37304,0.144705,-0.741564
1480623789129008,-1.377,0.14614,-0.742445
1480623789143548,-1.37998,0.146865,-0.74287
1480623789164603,-1.38055,0.146854,-0.743081
1480623789181148,-1.38,0.146654,-0.743188
1480623789203206,-1.37777,0.146261,-0.743015
1480623789224762,-1.3753,0.14568,-0.742899
1480623789241309,-1.37304,0.144951,-0.742589
1480623789263366,-1.37084,0.144278,-0.74236
1480623789293445,-1.36893,0.143897,-0.742143
1480623789301467,-1.3673,0.143562,-0.741744
1480623789338566,-1.36588,0.143252,-0.740957
1480623789346086,-1.36447,0.142802,-0.740386
1480623789361626,-1.36337,0.142258,-0.739844
1480623789383686,-1.36196,0.141491,-0.73919
1480623789406247,-1.36064,0.141234,-0.738635
1480623789426800,-1.35949,0.141075,-0.737925
1480623789451867,-1.35874,0.140982,-0.737385
1480623789466405,-1.3581,0.140756,-0.736805
1480623789480443,-1.35741,0.140616,-0.736427
1480623789509521,-1.35741,0.140616,-0.736427
1480623789525565,-1.35741,0.140546,-0.736534
1480623789541607,-1.35741,0.140546,-0.736534
1480623789563664,-1.35741,0.140546,-0.736534
1480623789592241,-1.35741,0.140616,-0.736427
1480623789600262,-1.3567,0.140371,-0.736135
1480623789623326,-1.35623,0.139804,-0.735988
1480623789651900,-1.35532,0.139777,-0.735787
1480623789660423,-1.35438,0.139959,-0.735264
1480623789683483,-1.35403,0.140094,-0.734584
1480623789706044,-1.35409,0.140285,-0.734105
1480623789728603,-1.35409,0.140285,-0.734105
1480623789743646,-1.35409,0.140285,-0.734105
1480623789766203,-1.35409,0.140285,-0.734105
1480623789788262,-1.35367,0.140302,-0.734288
1480623789816838,-1.35352,0.140332,-0.734263
1480623789831878,-1.35431,0.140486,-0.734013
1480623789846918,-1.35509,0.140395,-0.733574
1480623789870982,-1.35544,0.140287,-0.733294
1480623789886022,-1.35511,0.140041,-0.733128
1480623789907581,-1.35477,0.139721,-0.73258
1480623789923622,-1.35459,0.139403,-0.731588
1480623789946183,-1.3544,0.138981,-0.730682
1480623789968242,-1.35371,0.138552,-0.729755
1480623789983281,-1.35267,0.138227,-0.728619
1480623790005842,-1.35171,0.137711,-0.727519
1480623790034416,-1.35091,0.137264,-0.725871
1480623790043440,-1.34962,0.136765,-0.723355
1480623790067011,-1.34781,0.136508,-0.721349
1480623790087057,-1.34644,0.136173,-0.720246
1480623790103099,-1.34571,0.135095,-0.719938
1480623790126161,-1.34528,0.134069,-0.719934
1480623790147217,-1.34493,0.133689,-0.720325
1480623790163761,-1.34324,0.133302,-0.721533
1480623790185820,-1.34148,0.132757,-0.722756
1480623790206878,-1.34092,0.132395,-0.7239
1480623790222921,-1.34267,0.132374,-0.72468
1480623790246481,-1.34478,0.132449,-0.725008
1480623790268540,-1.34682,0.132502,-0.725136
1480623790283580,-1.34803,0.132614,-0.725165
1480623790312164,-1.34872,0.132617,-0.725261
1480623790336220,-1.35086,0.132509,-0.72496
1480623790343740,-1.35277,0.132724,-0.724515
1480623790365799,-1.35458,0.133203,-0.724417
1480623790388358,-1.35629,0.133638,-0.724554
1480623790402897,-1.35732,0.134203,-0.724899
1480623790425958,-1.35769,0.134894,-0.725115
1480623790448519,-1.35773,0.13555,-0.725823
1480623790463058,-1.35795,0.136657,-0.72648
1480623790486119,-1.35933,0.137644,-0.727292
1480623790508682,-1.36119,0.138358,-0.727916
1480623790531238,-1.36302,0.139048,-0.72849
1480623790545778,-1.36482,0.139914,-0.729214
1480623790568337,-1.367,0.140567,-0.729899
1480623790590897,-1.36821,0.140645,-0.73041
1480623790605938,-1.36934,0.140597,-0.730802
1480623790628497,-1.37055,0.140778,-0.73074
1480623790649553,-1.37089,0.140883,-0.730633
1480623790674624,-1.37049,0.140791,-0.730558
1480623790688661,-1.36849,0.140589,-0.730311
1480623790702695,-1.36657,0.140233,-0.730461
1480623790726258,-1.36446,0.13971,-0.730726
1480623790754333,-1.36177,0.139232,-0.731149
1480623790769372,-1.35966,0.138954,-0.731121
1480623790785916,-1.35966,0.138954,-0.731121
1480623790808476,-1.36028,0.139178,-0.731209
1480623790829531,-1.36084,0.139241,-0.731307
1480623790846577,-1.36127,0.139052,-0.731318
1480623790868636,-1.36156,0.13896,-0.731347
1480623790889697,-1.36156,0.13896,-0.731347
1480623790906237,-1.36156,0.13896,-0.731347
1480623790929799,-1.36156,0.13896,-0.731347
1480623790949350,-1.36187,0.138726,-0.731099
1480623790965895,-1.3623,0.138641,-0.731025
1480623790996476,-1.36272,0.138452,-0.731035
1480623791009513,-1.36231,0.138256,-0.731047
1480623791033577,-1.36158,0.138433,-0.731093
1480623791048619,-1.36158,0.138433,-0.731093
1480623791069672,-1.36159,0.138467,-0.731115
1480623791092230,-1.36168,0.138173,-0.731234
1480623791108775,-1.36204,0.137997,-0.731063
1480623791129329,-1.36304,0.137937,-0.730725
1480623791146375,-1.36362,0.137893,-0.730569
1480623791168433,-1.36404,0.137878,-0.730388
1480623791190994,-1.36412,0.13797,-0.730486
1480623791206037,-1.36412,0.13797,-0.730486
1480623791228593,-1.36412,0.13797,-0.730486
1480623791258674,-1.36412,0.13797,-0.730486
1480623791265693,-1.36404,0.137878,-0.730388
1480623791288756,-1.36389,0.137908,-0.730363
1480623791312317,-1.36389,0.137908,-0.730363
1480623791325351,-1.36389,0.137908,-0.730363
1480623791348413,-1.36369,0.137984,-0.730667
1480623791370973,-1.36303,0.138007,-0.730619
1480623791385511,-1.3631,0.138098,-0.730716
1480623791408574,-1.36219,0.137896,-0.730705
1480623791431133,-1.36056,0.13759,-0.730679
1480623791454195,-1.35993,0.137435,-0.730484
1480623791482268,-1.35993,0.137435,-0.730484
1480623791490791,-1.36099,0.137678,-0.730412
1480623791511849,-1.36204,0.137888,-0.730319
1480623791534407,-1.36205,0.137818,-0.730426
1480623791556967,-1.36091,0.137799,-0.730484
1480623791565490,-1.35977,0.137921,-0.730818
1480623791596573,-1.35822,0.137637,-0.730998
1480623791611112,-1.35687,0.137345,-0.730767
1480623791632167,-1.35688,0.137378,-0.730788
1480623791648711,-1.35688,0.137378,-0.730788
1480623791671272,-1.35688,0.137378,-0.730788
1480623791691826,-1.35688,0.137378,-0.730788
1480623791708371,-1.35688,0.137378,-0.730788
1480623791730930,-1.35745,0.137545,-0.7308
1480623791761010,-1.35729,0.137574,-0.730775
1480623791768530,-1.35664,0.137701,-0.730643
1480623791791091,-1.3568,0.137672,-0.730668
1480623791812146,-1.35664,0.137701,-0.730643
1480623791828690,-1.3568,0.137672,-0.730668
1480623791851752,-1.35664,0.137701,-0.730643
1480623791872307,-1.35664,0.137701,-0.730643
1480623791888852,-1.35664,0.137701,-0.730643
1480623791911913,-1.35666,0.137735,-0.730665
1480623791931965,-1.35666,0.137735,-0.730665
1480623791949011,-1.3565,0.137764,-0.73064
1480623791971069,-1.35643,0.137673,-0.730543
1480623792009173,-1.35643,0.137673,-0.730543
1480623792011678,-1.35694,0.137782,-0.730479
1480623792037246,-1.35694,0.137782,-0.730479
1480623792052285,-1.35693,0.137852,-0.730372
1480623792068327,-1.35678,0.137881,-0.730347
1480623792097906,-1.35678,0.137811,-0.730454
1480623792111947,-1.35735,0.137978,-0.730466
1480623792128488,-1.35769,0.138399,-0.730439
1480623792151049,-1.35811,0.138698,-0.730341
1480623792174708,-1.35811,0.138698,-0.730341
1480623792188653,-1.35748,0.138474,-0.730254
1480623792211209,-1.35649,0.13825,-0.730041
1480623792234269,-1.35579,0.138003,-0.72975
1480623792249311,-1.35582,0.137613,-0.729435
1480623792270867,-1.3556,0.137551,-0.729313
1480623792293426,-1.35503,0.13763,-0.729492
1480623792307965,-1.3551,0.137721,-0.729589
1480623792331028,-1.3551,0.137721,-0.729589
1480623792353587,-1.35503,0.13763,-0.729492
1480623792367624,-1.35524,0.137728,-0.729485
1480623792391187,-1.35546,0.137614,-0.72931
1480623792413245,-1.35549,0.137224,-0.728994
1480623792427784,-1.3555,0.136836,-0.728529
1480623792450846,-1.35552,0.136831,-0.72819
1480623792473908,-1.35537,0.13686,-0.728165
1480623792487945,-1.35566,0.136838,-0.728086
1480623792511005,-1.35659,0.136617,-0.727757
1480623792533566,-1.35659,0.136617,-0.727757
1480623792548606,-1.35659,0.136617,-0.727757
1480623792571166,-1.3566,0.136547,-0.727864
1480623792593224,-1.3566,0.136547,-0.727864
1480623792607764,-1.35689,0.13628,-0.727595
1480623792630824,-1.35811,0.136322,-0.727738
1480623792653886,-1.35951,0.13657,-0.728129
1480623792674444,-1.35944,0.136479,-0.728032
1480623792690984,-1.35837,0.136408,-0.727914
1480623792736605,-1.35668,0.136182,-0.727602
1480623792739114,-1.35578,0.135766,-0.727426
1480623792751146,-1.35579,0.135697,-0.727534
1480623792779720,-1.3563,0.135318,-0.727579
1480623792794760,-1.35629,0.135285,-0.727557
1480623792810805,-1.35629,0.135285,-0.727557
1480623792833363,-1.3563,0.135318,-0.727579
1480623792862441,-1.3563,0.135318,-0.727579
1480623792873974,-1.3563,0.135318,-0.727579
1480623792893524,-1.3563,0.135318,-0.727579
1480623792914579,-1.35607,0.135256,-0.727457
1480623792931124,-1.3561,0.13522,-0.727586
1480623792961203,-1.35561,0.135175,-0.727204
1480623792976243,-1.35504,0.135107,-0.726619
1480623792996797,-1.35464,0.134941,-0.726167
1480623793014345,-1.35448,0.13497,-0.726142
1480623793035902,-1.354,0.135027,-0.725675
1480623793050942,-1.35308,0.135065,-0.72537
1480623793074507,-1.3525,0.135037,-0.725146
1480623793096062,-1.35252,0.13507,-0.725168
1480623793111104,-1.35286,0.135176,-0.725057
1480623793133663,-1.35293,0.135267,-0.725153
1480623793156226,-1.35293,0.135267,-0.725153
1480623793171262,-1.35293,0.135267,-0.725153
1480623793200841,-1.35293,0.135267,-0.725153
1480623793223902,-1.35286,0.135176,-0.725057
1480623793231923,-1.35322,0.135176,-0.725181
1480623793253982,-1.35378,0.135241,-0.725276
1480623793276041,-1.35482,0.135594,-0.725454
1480623793290078,-1.3553,0.135883,-0.725536
1480623793314143,-1.3555,0.136124,-0.725804
1480623793336702,-1.35548,0.136547,-0.72614
1480623793350239,-1.3556,0.136839,-0.726587
1480623793374303,-1.3556,0.136839,-0.726587
1480623793395860,-1.35554,0.136678,-0.726597
1480623793410399,-1.35496,0.136722,-0.726754
1480623793448500,-1.3539,0.136478,-0.72683
1480623793456022,-1.35299,0.136347,-0.727206
1480623793470559,-1.35241,0.136564,-0.727171
1480623793494121,-1.35241,0.136564,-0.727171
1480623793516179,-1.35241,0.136564,-0.727171
1480623793530217,-1.35241,0.136564,-0.727171
1480623793553278,-1.35242,0.136495,-0.727278
1480623793575838,-1.35157,0.136207,-0.727072
1480623793596895,-1.35158,0.13624,-0.727094
1480623793613438,-1.35213,0.136374,-0.727082
1480623793635998,-1.35278,0.136491,-0.726913
1480623793657055,-1.35333,0.136728,-0.726817
1480623793673602,-1.35333,0.136728,-0.726817
1480623793695657,-1.35326,0.136637,-0.72672
1480623793724734,-1.35327,0.136567,-0.726827
1480623793733759,-1.35459,0.136937,-0.727287
1480623793756820,-1.35677,0.13724,-0.727513
1480623793776878,-1.35755,0.137506,-0.727518
1480623793793417,-1.35654,0.137493,-0.727474
1480623793816479,-1.35509,0.136944,-0.727308
1480623793837034,-1.35361,0.136888,-0.727373
1480623793854583,-1.35361,0.136888,-0.727373
1480623793876185,-1.35447,0.136648,-0.72733
1480623793897192,-1.35447,0.136648,-0.72733
1480623793919753,-1.35447,0.136648,-0.72733
1480623793942815,-1.35446,0.136615,-0.727308
1480623793957353,-1.35362,0.136433,-0.727505
1480623793973898,-1.35297,0.136559,-0.727374
1480623794001972,-1.35326,0.136606,-0.727188
1480623794017012,-1.35376,0.136613,-0.727209
1480623794033556,-1.35376,0.136613,-0.727209
1480623794056117,-1.35376,0.136613,-0.727209
1480623794086196,-1.35376,0.136613,-0.727209
1480623794093716,-1.35376,0.136613,-0.727209
1480623794116777,-1.35376,0.136613,-0.727209
1480623794138344,-1.35396,0.136781,-0.727094
1480623794153376,-1.3541,0.136822,-0.727012
1480623794183455,-1.3541,0.136822,-0.727012
1480623794198494,-1.35395,0.136851,-0.726987
1480623794228073,-1.35396,0.136781,-0.727094
1480623794237602,-1.35396,0.136884,-0.727009
1480623794259156,-1.35447,0.136821,-0.727137
1480623794281215,-1.35475,0.136766,-0.727037
1480623794295753,-1.35516,0.136962,-0.727023
1480623794324329,-1.35516,0.136962,-0.727023
1480623794332859,-1.35516,0.136962,-0.727023
1480623794361929,-1.3551,0.136905,-0.726948
1480623794378473,-1.3551,0.136905,-0.726948
1480623794393013,-1.35552,0.137032,-0.727041
1480623794424095,-1.35593,0.137229,-0.727027
1480623794439135,-1.35593,0.137229,-0.727027
1480623794452671,-1.35577,0.137258,-0.727002
1480623794476235,-1.35577,0.137258,-0.727002
1480623794505814,-1.35579,0.137291,-0.727024
1480623794520352,-1.35579,0.137291,-0.727024
1480623794536394,-1.35579,0.137291,-0.727024
1480623794558452,-1.35579,0.137291,-0.727024
1480623794581515,-1.35579,0.137291,-0.727024
1480623794596053,-1.35579,0.137291,-0.727024
1480623794618612,-1.35579,0.137291,-0.727024
1480623794648692,-1.35563,0.13732,-0.726999
1480623794663231,-1.35563,0.13732,-0.726999
1480623794678272,-1.35565,0.137354,-0.72702
1480623794701333,-1.35565,0.137354,-0.72702
1480623794715872,-1.35565,0.137354,-0.72702
1480623794738432,-1.35565,0.137354,-0.72702
1480623794759488,-1.35565,0.137354,-0.72702
1480623794783551,-1.35565,0.137354,-0.72702
1480623794798591,-1.35565,0.137354,-0.72702
1480623794827167,-1.35565,0.137354,-0.72702
1480623794836192,-1.35549,0.137383,-0.726995
1480623794858752,-1.35565,0.137354,-0.72702
1480623794879306,-1.35606,0.137551,-0.727006
1480623794895850,-1.35606,0.137551,-0.727006
1480623794925932,-1.35606,0.137551,-0.727006
1480623794939466,-1.35606,0.137551,-0.727006
1480623794956010,-1.35606,0.137551,-0.727006
1480623794979071,-1.35592,0.137614,-0.727003
1480623795001131,-1.35585,0.137452,-0.727013
1480623795016170,-1.35642,0.13762,-0.727025
1480623795038731,-1.35686,0.137324,-0.726781
1480623795061290,-1.35686,0.137324,-0.726781
1480623795075832,-1.35686,0.137324,-0.726781
1480623795098388,-1.35686,0.137324,-0.726781
1480623795120950,-1.35735,0.137297,-0.726781
1480623795142005,-1.35785,0.137304,-0.726803
1480623795164565,-1.35785,0.137304,-0.726803
1480623795181109,-1.35778,0.137213,-0.726706
1480623795202165,-1.35785,0.137304,-0.726803
1480623795218709,-1.35785,0.137304,-0.726803
1480623795241269,-1.35785,0.137374,-0.726696
1480623795255310,-1.35785,0.137374,-0.726696
1480623795278368,-1.35785,0.137374,-0.726696
1480623795300933,-1.35785,0.137374,-0.726696
1480623795315466,-1.35785,0.137374,-0.726696
1480623795339029,-1.35771,0.137366,-0.7268
1480623795368608,-1.35771,0.137366,-0.7268
1480623795376129,-1.35771,0.137436,-0.726693
1480623795398687,-1.35771,0.137436,-0.726693
1480623795421248,-1.35771,0.137436,-0.726693
1480623795435286,-1.35771,0.137436,-0.726693
1480623795458347,-1.35755,0.137465,-0.726668
1480623795480906,-1.35678,0.137444,-0.726853
1480623795501962,-1.35678,0.137444,-0.726853
1480623795525524,-1.35678,0.137444,-0.726853
1480623795541069,-1.35678,0.137444,-0.726853
1480623795562122,-1.35662,0.137473,-0.726828
1480623795578668,-1.35664,0.137507,-0.72685
1480623795607243,-1.35664,0.137507,-0.72685
1480623795622283,-1.35664,0.137507,-0.72685
1480623795645846,-1.35657,0.137416,-0.726753
1480623795660886,-1.35641,0.137445,-0.726728
1480623795681941,-1.35648,0.137536,-0.726825
1480623795698485,-1.35648,0.137536,-0.726825
1480623795722052,-1.35649,0.137639,-0.726739
1480623795742103,-1.35649,0.137639,-0.726739
1480623795758646,-1.35649,0.137639,-0.726739
1480623795781206,-1.35633,0.137668,-0.726714
1480623795801760,-1.35649,0.137639,-0.726739
1480623795834848,-1.35633,0.137668,-0.726714
1480623795841365,-1.35633,0.137668,-0.726714
1480623795861921,-1.35633,0.137668,-0.726714
1480623795885985,-1.35633,0.137668,-0.726714
1480623795901024,-1.35635,0.137702,-0.726736
1480623795923584,-1.35635,0.137702,-0.726736
1480623795938627,-1.35549,0.137626,-0.726696
1480623795961184,-1.35493,0.137388,-0.726792
1480623795983745,-1.35452,0.137122,-0.726913
1480623795998283,-1.35451,0.137088,-0.726891
1480623796020845,-1.35452,0.137122,-0.726913
1480623796058445,-1.35452,0.137122,-0.726913
1480623796060949,-1.35489,0.137049,-0.726656
1480623796081504,-1.35489,0.137049,-0.726656
1480623796111084,-1.35489,0.137049,-0.726656
1480623796124796,-1.35546,0.136901,-0.726584
1480623796142344,-1.35546,0.136901,-0.726584
1480623796163399,-1.35546,0.136901,-0.726584
1480623796177938,-1.35545,0.136971,-0.726477
1480623796202503,-1.35602,0.136894,-0.726298
1480623796223559,-1.35645,0.136809,-0.726223
1480623796238098,-1.35665,0.136908,-0.726216
1480623796261160,-1.35714,0.137196,-0.726299
1480623796283218,-1.35714,0.137196,-0.726299
1480623796305777,-1.35714,0.137126,-0.726406
1480623796335863,-1.35714,0.137196,-0.726299
1480623796343379,-1.35744,0.137208,-0.726242
1480623796357916,-1.35743,0.137174,-0.726221
1480623796388501,-1.35744,0.137208,-0.726242
1480623796403538,-1.35701,0.137292,-0.726317
1480623796424594,-1.35701,0.137292,-0.726317
1480623796441139,-1.35685,0.137321,-0.726292
1480623796463196,-1.35685,0.137321,-0.726292
1480623796484252,-1.35685,0.137321,-0.726292
1480623796500796,-1.35685,0.137321,-0.726292
1480623796523357,-1.35685,0.137321,-0.726292
1480623796544413,-1.35685,0.137321,-0.726292
1480623796560959,-1.35685,0.137321,-0.726292
1480623796591036,-1.35687,0.137355,-0.726314
1480623796612092,-1.35664,0.137293,-0.726192
1480623796621120,-1.35664,0.137293,-0.726192
1480623796643676,-1.35664,0.137293,-0.726192
1480623796664231,-1.35664,0.137293,-0.726192
1480623796680776,-1.35664,0.137293,-0.726192
1480623796703335,-1.35666,0.137326,-0.726214
1480623796731912,-1.3565,0.137355,-0.726189
1480623796746950,-1.3565,0.137355,-0.726189
1480623796763495,-1.3565,0.137355,-0.726189
1480623796769009,-1.35651,0.137285,-0.726296
1480623796791569,-1.35651,0.137285,-0.726296
1480623796807615,-1.3565,0.137355,-0.726189
1480623796828668,-1.35636,0.137418,-0.726185
1480623796851228,-1.35652,0.137389,-0.72621
1480623796866270,-1.35636,0.137418,-0.726185
1480623796888829,-1.35637,0.137348,-0.726292
1480623796911389,-1.35629,0.137257,-0.726196
1480623796926428,-1.3573,0.136955,-0.726156
1480623796948988,-1.35981,0.136642,-0.72616
1480623796971550,-1.36084,0.13606,-0.726058
1480623796986589,-1.36257,0.135306,-0.726249
1480623797009151,-1.36253,0.134446,-0.726687
1480623797034216,-1.36013,0.134012,-0.726934
1480623797046247,-1.3578,0.1337,-0.726813
1480623797068808,-1.35675,0.133314,-0.726613
1480623797091367,-1.35743,0.132765,-0.726408
1480623797109415,-1.35518,0.132403,-0.726113
1480623797128967,-1.35093,0.132083,-0.725634
1480623797159548,-1.34755,0.13174,-0.725773
1480623797168071,-1.34885,0.131174,-0.725949
1480623797188627,-1.35153,0.129892,-0.726699
1480623797219710,-1.35399,0.130213,-0.727194
1480623797229234,-1.35613,0.131352,-0.726765
1480623797248786,-1.35739,0.132253,-0.726464
1480623797271347,-1.35739,0.132253,-0.726464
1480623797287893,-1.35674,0.132205,-0.726526
1480623797308946,-1.35694,0.132619,-0.726601
1480623797331506,-1.35701,0.13271,-0.726698
1480623797348050,-1.35656,0.132934,-0.72656
1480623797368605,-1.35579,0.132911,-0.726258
1480623797391668,-1.35475,0.132658,-0.725507
1480623797409213,-1.35413,0.132289,-0.725149
1480623797428765,-1.35413,0.132289,-0.725149
1480623797451327,-1.35413,0.132289,-0.725149
1480623797467870,-1.35462,0.132508,-0.725337
1480623797488926,-1.35516,0.132958,-0.725407
1480623797511486,-1.35423,0.133035,-0.725463
1480623797536552,-1.35261,0.133041,-0.725528
1480623797565127,-1.35168,0.133118,-0.725585
1480623797594205,-1.35126,0.133163,-0.725301
1480623797605737,-1.34962,0.133161,-0.72439
1480623797610248,-1.34667,0.133071,-0.723576
1480623797632808,-1.34366,0.132995,-0.723073
1480623797647848,-1.34132,0.132786,-0.722731
1480623797684445,-1.341,0.132564,-0.722105
1480623797694472,-1.3408,0.132487,-0.721158
1480623797715533,-1.34034,0.132327,-0.720529
1480623797729065,-1.33937,0.132131,-0.720349
1480623797751123,-1.33937,0.132131,-0.720349
1480623797769171,-1.33937,0.132131,-0.720349
1480623797788727,-1.33954,0.132726,-0.720564
1480623797811283,-1.34008,0.133107,-0.720735
1480623797829330,-1.33993,0.133137,-0.720711
1480623797848882,-1.33993,0.133137,-0.720711
1480623797871443,-1.33931,0.133224,-0.720712
1480623797894002,-1.33915,0.133253,-0.720687
1480623797909047,-1.33915,0.133253,-0.720687
1480623797934110,-1.33915,0.133253,-0.720687
1480623797953661,-1.33915,0.133253,-0.720687
1480623797977727,-1.3388,0.133286,-0.720586
1480623797994269,-1.33837,0.133439,-0.720556
1480623798013828,-1.33837,0.133439,-0.720556
1480623798028862,-1.339,0.13346,-0.720958
1480623798051422,-1.33991,0.133494,-0.721151
1480623798073983,-1.34034,0.133409,-0.721073
1480623798089024,-1.34034,0.133409,-0.721073
1480623798118608,-1.33962,0.133516,-0.721231
1480623798133640,-1.33962,0.133516,-0.721231
1480623798148680,-1.34003,0.133816,-0.721126
1480623798171241,-1.34046,0.133731,-0.721049
1480623798196808,-1.34047,0.133588,-0.720775
1480623798208844,-1.34047,0.133588,-0.720775
1480623798231400,-1.34047,0.133588,-0.720775
1480623798253961,-1.34047,0.133588,-0.720775
1480623798269000,-1.34053,0.133749,-0.720763
1480623798307605,-1.34112,0.133635,-0.720711
1480623798313619,-1.34224,0.133824,-0.719961
1480623798328660,-1.34213,0.133826,-0.718285
1480623798351219,-1.34079,0.133966,-0.717106
1480623798374282,-1.33932,0.134172,-0.716413
1480623798388820,-1.3398,0.134319,-0.716217
1480623798418899,-1.34157,0.134462,-0.715978
1480623798433939,-1.34347,0.134614,-0.715636
1480623798456500,-1.3437,0.134529,-0.714996
1480623798473045,-1.34133,0.134113,-0.714794
1480623798504126,-1.33775,0.133724,-0.714841
1480623798510142,-1.33481,0.133181,-0.715
1480623798531198,-1.33344,0.132613,-0.715037
1480623798555263,-1.33235,0.132161,-0.714778
1480623798570302,-1.33124,0.131702,-0.714032
1480623798591360,-1.32946,0.131165,-0.713305
1480623798613918,-1.32706,0.130373,-0.712971
1480623798630462,-1.32527,0.12971,-0.712801
1480623798651518,-1.32426,0.129043,-0.713054
1480623798674078,-1.32426,0.129043,-0.713054
1480623798690625,-1.32523,0.129097,-0.712953
1480623798711178,-1.32665,0.127683,-0.713139
1480623798733737,-1.32564,0.125728,-0.713033
1480623798750283,-1.32298,0.124497,-0.712446
1480623798771339,-1.32081,0.12342,-0.712149
1480623798793897,-1.32008,0.122232,-0.711442
1480623798811946,-1.32099,0.121368,-0.709947
1480623798831498,-1.32214,0.121533,-0.708361
1480623798854558,-1.3242,0.121605,-0.707173
1480623798871605,-1.32511,0.121129,-0.705649
1480623798898675,-1.32365,0.120104,-0.70451
1480623798915220,-1.32145,0.119854,-0.704046
1480623798932265,-1.31992,0.119861,-0.703853
1480623798954324,-1.31886,0.119992,-0.703921
1480623798977385,-1.31886,0.119992,-0.703921
1480623798991927,-1.31914,0.119871,-0.703924
1480623799011476,-1.31914,0.119871,-0.703924
1480623799034037,-1.31864,0.119937,-0.704291
1480623799051583,-1.31864,0.119937,-0.704291
1480623799078655,-1.31864,0.119937,-0.704291
1480623799095199,-1.31874,0.120474,-0.704422
1480623799112244,-1.31859,0.120503,-0.704398
1480623799138817,-1.31892,0.120858,-0.704462
1480623799162878,-1.31945,0.121244,-0.704621
1480623799171903,-1.32012,0.12157,-0.704782
1480623799191458,-1.32012,0.12157,-0.704782
1480623799214016,-1.32054,0.121802,-0.704777
1480623799232565,-1.32053,0.121871,-0.704669
1480623799254122,-1.32053,0.121871,-0.704669
1480623799273679,-1.32114,0.122104,-0.704737
1480623799291722,-1.32116,0.122135,-0.70476
1480623799311273,-1.32116,0.122135,-0.70476
1480623799333834,-1.32129,0.122143,-0.704653
1480623799359401,-1.32129,0.122143,-0.704653
1480623799372938,-1.32136,0.122236,-0.704746
1480623799393994,-1.32189,0.122622,-0.704906
1480623799424575,-1.32227,0.123037,-0.705043
1480623799432597,-1.32226,0.123106,-0.704935
1480623799453653,-1.32274,0.123331,-0.70511
1480623799476212,-1.32274,0.123331,-0.70511
1480623799492756,-1.3226,0.123391,-0.705108
1480623799521335,-1.32284,0.123698,-0.705438
1480623799544393,-1.32345,0.124177,-0.705692
1480623799552916,-1.32417,0.124631,-0.70582
1480623799574474,-1.32417,0.124631,-0.70582
1480623799596531,-1.3238,0.124951,-0.706264
1480623799612574,-1.32314,0.125292,-0.70679
1480623799633631,-1.32264,0.125597,-0.706853
1480623799656191,-1.32264,0.125597,-0.706853
1480623799672736,-1.32254,0.125933,-0.707085
1480623799693790,-1.32181,0.126182,-0.707518
1480623799716351,-1.32114,0.126493,-0.708023
1480623799734399,-1.3204,0.126949,-0.708131
1480623799753953,-1.31962,0.127376,-0.70819
1480623799776513,-1.31855,0.127409,-0.70834
1480623799815615,-1.31808,0.127363,-0.708457
1480623799818122,-1.31801,0.12727,-0.708364
1480623799836674,-1.31801,0.12727,-0.708364
1480623799858731,-1.31766,0.127131,-0.708461
1480623799881289,-1.31773,0.127292,-0.708446
1480623799896330,-1.31809,0.126879,-0.708575
1480623799920397,-1.31874,0.126691,-0.708807
1480623799933930,-1.32,0.126589,-0.708838
1480623799956490,-1.32238,0.126208,-0.707246
1480623799975540,-1.3243,0.126188,-0.705304
1480623800001610,-1.32542,0.126009,-0.703111
1480623800016148,-1.32569,0.124851,-0.700991
1480623800034197,-1.32369,0.123285,-0.698905
1480623800061268,-1.31987,0.121536,-0.696886
1480623800083829,-1.31622,0.120074,-0.69549
1480623800094356,-1.31178,0.118338,-0.693948
1480623800113909,-1.30989,0.116442,-0.693946
1480623800136470,-1.31034,0.113953,-0.694419
1480623800154518,-1.31297,0.111539,-0.694535
1480623800174069,-1.31387,0.109878,-0.693867
1480623800196127,-1.31387,0.108482,-0.693101
1480623800214676,-1.31216,0.106569,-0.692186
1480623800236738,-1.31205,0.103424,-0.690674
1480623800256287,-1.31265,0.100418,-0.688693
1480623800275338,-1.31296,0.0988,-0.686082
1480623800293887,-1.31042,0.0988676,-0.682091
1480623800316448,-1.30452,0.0975551,-0.677764
1480623800340512,-1.29766,0.0940578,-0.675031
1480623800362570,-1.29258,0.0902904,-0.67412
1480623800376108,-1.29218,0.088936,-0.67345
1480623800394154,-1.29364,0.08984,-0.671857
1480623800415210,-1.29565,0.0901682,-0.670154
1480623800436266,-1.29696,0.0897265,-0.669735
1480623800466847,-1.2969,0.0894668,-0.671443
1480623800475370,-1.2954,0.0896592,-0.674184
1480623800497930,-1.29616,0.0915722,-0.676358
1480623800514475,-1.29671,0.0933233,-0.677545
1480623800535531,-1.29667,0.0938118,-0.678869
1480623800556086,-1.2966,0.0939234,-0.680058
1480623800575136,-1.29539,0.093686,-0.681106
1480623800595189,-1.29311,0.0931264,-0.682216
1480623800617749,-1.29228,0.0927494,-0.683113
1480623800642314,-1.29178,0.0926378,-0.683198
1480623800662869,-1.29112,0.0923847,-0.683438
1480623800676407,-1.29038,0.0923705,-0.684162
1480623800694453,-1.28991,0.0924171,-0.685175
1480623800717013,-1.29007,0.0925162,-0.686102
1480623800743583,-1.29021,0.0928865,-0.68659
1480623800758624,-1.29001,0.0930296,-0.68679
1480623800776674,-1.289,0.0932862,-0.686835
1480623800796223,-1.28796,0.0933433,-0.687033
1480623800818784,-1.28723,0.0937572,-0.687278
1480623800836833,-1.2865,0.0940609,-0.687125
1480623800863908,-1.28615,0.0943985,-0.687106
1480623800878944,-1.28599,0.0944283,-0.687083
1480623800896490,-1.28599,0.0944283,-0.687083
1480623800916543,-1.28599,0.0944283,-0.687083
1480623800939104,-1.28599,0.0944283,-0.687083
1480623800957653,-1.28589,0.0947973,-0.687329
1480623800976202,-1.2861,0.0955905,-0.687511
1480623800998763,-1.28614,0.0964812,-0.687562
1480623801025332,-1.28663,0.0972534,-0.687658
1480623801036366,-1.28727,0.0978991,-0.687864
1480623801066443,-1.2872,0.0978057,-0.687775
1480623801076971,-1.28667,0.0981579,-0.688195
1480623801106550,-1.28683,0.0983261,-0.689014
1480623801119083,-1.28802,0.0987489,-0.689706
1480623801136630,-1.28927,0.0992508,-0.690003
1480623801156181,-1.28927,0.0992508,-0.690003
1480623801195786,-1.28974,0.0995775,-0.690075
1480623801198293,-1.29004,0.0998366,-0.690211
1480623801216342,-1.28995,0.100027,-0.690169
1480623801255947,-1.28995,0.100027,-0.690169
1480623801258453,-1.28995,0.100027,-0.690169
1480623801276501,-1.2901,0.0999977,-0.690192
1480623801301569,-1.2901,0.0999977,-0.690192
1480623801321623,-1.2901,0.0999977,-0.690192
1480623801337665,-1.28948,0.0999762,-0.690299
1480623801361728,-1.28878,0.100078,-0.690473
1480623801376769,-1.28862,0.100108,-0.69045
1480623801397824,-1.28882,0.100374,-0.690233
1480623801421888,-1.28864,0.100785,-0.690171
1480623801436938,-1.28896,0.10132,-0.69051
1480623801465505,-1.28905,0.101626,-0.690933
1480623801478539,-1.28904,0.101694,-0.690823
1480623801496587,-1.28904,0.101694,-0.690823
1480623801517643,-1.28921,0.102012,-0.69096
1480623801555746,-1.28984,0.101898,-0.691073
1480623801558252,-1.28984,0.101898,-0.691073
1480623801591840,-1.28984,0.101898,-0.691073
1480623801606381,-1.2903,0.102373,-0.691413
1480623801616907,-1.29053,0.102606,-0.691351
1480623801639467,-1.29105,0.102997,-0.691492
1480623801659019,-1.29105,0.102997,-0.691492
1480623801676566,-1.29142,0.103514,-0.691523
1480623801699125,-1.29142,0.103514,-0.691523
1480623801721686,-1.29074,0.103399,-0.691539
1480623801748758,-1.29054,0.103365,-0.691449
1480623801759286,-1.29054,0.103365,-0.691449
1480623801778837,-1.2907,0.103336,-0.691472
1480623801804406,-1.29068,0.103306,-0.691449
1480623801835489,-1.29068,0.103306,-0.691449
1480623801840502,-1.29074,0.103399,-0.691539
1480623801857046,-1.29112,0.103684,-0.691876
1480623801884120,-1.29171,0.103934,-0.692414
1480623801906179,-1.29161,0.104139,-0.692858
1480623801916705,-1.29162,0.104567,-0.69335
1480623801939265,-1.29204,0.105161,-0.693936
1480623801958816,-1.2924,0.105661,-0.694433
1480623801976865,-1.29306,0.105991,-0.694576
1480623801999425,-1.29339,0.106279,-0.694738
1480623802020485,-1.29339,0.106279,-0.694738
1480623802037027,-1.29323,0.106309,-0.694715
1480623802059084,-1.29323,0.106309,-0.694715
1480623802078635,-1.29325,0.106339,-0.694738
1480623802096683,-1.29269,0.106301,-0.694533
1480623802119244,-1.29269,0.106301,-0.694533
1480623802163361,-1.29325,0.10616,-0.694448
1480623802165867,-1.29389,0.106143,-0.694475
1480623802186927,-1.29395,0.106304,-0.694456
1480623802198956,-1.29388,0.10621,-0.694366
1480623802216503,-1.29395,0.106304,-0.694456
1480623802239563,-1.29332,0.106186,-0.694648
1480623802267639,-1.29325,0.106092,-0.694557
1480623802276662,-1.29332,0.106186,-0.694648
1480623802305238,-1.29316,0.106296,-0.695002
1480623802320283,-1.29269,0.10681,-0.695403
1480623802342838,-1.29269,0.106743,-0.695513
1480623802359383,-1.29309,0.106877,-0.695585
1480623802380440,-1.29309,0.106877,-0.695585
1480623802418540,-1.29296,0.106937,-0.695584
1480623802421046,-1.29296,0.106937,-0.695584
1480623802441602,-1.29338,0.106623,-0.695805
1480623802468673,-1.29338,0.106623,-0.695805
1480623802479201,-1.29338,0.106623,-0.695805
1480623802506274,-1.29282,0.106764,-0.69589
1480623802522817,-1.29231,0.107036,-0.695934
1480623802545377,-1.29224,0.106943,-0.695843
1480623802561921,-1.29293,0.107153,-0.695742
1480623802581473,-1.2934,0.107301,-0.695528
1480623802599526,-1.2934,0.107301,-0.695528
1480623802621581,-1.29342,0.107331,-0.695551
1480623802641137,-1.29242,0.107523,-0.695699
1480623802663692,-1.29145,0.1075,-0.69569
1480623802686252,-1.29069,0.107607,-0.695684
1480623802718839,-1.29,0.107562,-0.695589
1480623802723853,-1.29,0.107562,-0.695589
1480623802749420,-1.29033,0.107603,-0.695571
1480623802764460,-1.29033,0.107603,-0.695571
1480623802778999,-1.29024,0.108138,-0.695622
1480623802801559,-1.29024,0.108138,-0.695622
1480623802821613,-1.29024,0.108138,-0.695622
1480623802839159,-1.29024,0.108138,-0.695622
1480623802861719,-1.29069,0.108269,-0.695871
1480623802881270,-1.29069,0.108269,-0.695871
1480623802899820,-1.29069,0.108269,-0.695871
1480623802921880,-1.29069,0.108269,-0.695871
1480623802941431,-1.29125,0.108968,-0.696263
1480623802966497,-1.29095,0.109868,-0.696694
1480623802997079,-1.29132,0.110466,-0.697105
1480623803003097,-1.29204,0.110956,-0.697231
1480623803025153,-1.29284,0.111225,-0.697377
1480623803041699,-1.29337,0.111712,-0.697436
1480623803061752,-1.29274,0.111828,-0.69732
1480623803079298,-1.29219,0.111655,-0.697333
1480623803101859,-1.29247,0.111701,-0.697137
1480623803138456,-1.29245,0.112167,-0.696525
1480623803140962,-1.29171,0.112457,-0.695857
1480623803161516,-1.29063,0.113187,-0.695105
1480623803190092,-1.28983,0.113879,-0.69473
1480623803199116,-1.29074,0.114306,-0.695036
1480623803221677,-1.29328,0.114837,-0.695298
1480623803242733,-1.29534,0.115109,-0.695375
1480623803259277,-1.29577,0.115523,-0.695678
1480623803286350,-1.29553,0.116681,-0.696006
1480623803302895,-1.29505,0.117743,-0.696175
1480623803319437,-1.29485,0.118371,-0.696273
1480623803341997,-1.29601,0.118878,-0.696235
1480623803378092,-1.29704,0.119063,-0.696233
1480623803380599,-1.29739,0.118956,-0.695949
1480623803401655,-1.29707,0.118766,-0.695696
1480623803439758,-1.29647,0.118598,-0.695528
1480623803443770,-1.29593,0.118276,-0.69527
1480623803467832,-1.2957,0.117964,-0.69495
1480623803490391,-1.2957,0.117964,-0.69495
1480623803499415,-1.2957,0.117964,-0.69495
1480623803527489,-1.29555,0.117993,-0.694926
1480623803544034,-1.29555,0.117993,-0.694926
1480623803564589,-1.29545,0.118596,-0.69487
1480623803581635,-1.29543,0.118565,-0.694847
1480623803610711,-1.29504,0.118529,-0.694685
1480623803624247,-1.29441,0.118563,-0.69419
1480623803640798,-1.29383,0.119072,-0.693748
1480623803663352,-1.29385,0.119103,-0.693771
1480623803691927,-1.29469,0.118941,-0.693604
1480623803714487,-1.2953,0.118134,-0.693509
1480623803723512,-1.29529,0.117473,-0.693319
1480623803752088,-1.29443,0.117109,-0.693078
1480623803768632,-1.29353,0.117028,-0.692886
1480623803783671,-1.29264,0.117046,-0.692609
1480623803804226,-1.29249,0.117075,-0.692585
1480623803820772,-1.29263,0.117347,-0.692194
1480623803843330,-1.29326,0.117384,-0.691629
1480623803864386,-1.29385,0.117194,-0.691192
1480623803880930,-1.29374,0.116722,-0.690961
1480623803911011,-1.29325,0.116295,-0.690946
1480623803931564,-1.29325,0.116295,-0.690946
1480623803942594,-1.29308,0.116391,-0.690813
1480623803969671,-1.29309,0.116324,-0.690922
1480623803993228,-1.29269,0.116421,-0.690543
1480623804000750,-1.29339,0.117215,-0.690258
1480623804023810,-1.29446,0.117946,-0.690199
1480623804044866,-1.2951,0.117419,-0.690332
1480623804061410,-1.29625,0.116869,-0.690603
1480623804083970,-1.29705,0.116645,-0.690368
1480623804104525,-1.29666,0.116361,-0.690025
1480623804121070,-1.29536,0.116046,-0.689845
1480623804143630,-1.29538,0.116076,-0.689868
1480623804164685,-1.29586,0.116157,-0.689766
1480623804180728,-1.29632,0.116208,-0.689642
1480623804218332,-1.29647,0.116179,-0.689665
1480623804224349,-1.29683,0.116018,-0.689977
1480623804246909,-1.29668,0.116047,-0.689953
1480623804278492,-1.29638,0.116148,-0.690414
1480623804284509,-1.2962,0.116474,-0.690926
1480623804301053,-1.29612,0.116363,-0.691299
1480623804323614,-1.29624,0.11579,-0.691377
1480623804344669,-1.29624,0.11579,-0.691377
1480623804360712,-1.29624,0.11579,-0.691377
1480623804383773,-1.29653,0.115455,-0.691221
1480623804404327,-1.29669,0.115426,-0.691244
1480623804426887,-1.29669,0.115426,-0.691244
1480623804443432,-1.29669,0.115426,-0.691244
1480623804465490,-1.29715,0.115489,-0.691606
1480623804496072,-1.29728,0.115578,-0.691875
1480623804503592,-1.29733,0.115819,-0.692234
1480623804526653,-1.29799,0.11615,-0.692383
1480623804541197,-1.29915,0.116179,-0.692469
1480623804564253,-1.30089,0.116178,-0.692872
1480623804585813,-1.30221,0.116079,-0.693069
1480623804600850,-1.30398,0.116455,-0.693616
1480623804623410,-1.30579,0.117028,-0.694017
1480623804645971,-1.30796,0.117181,-0.694039
1480623804660509,-1.3093,0.117033,-0.693884
1480623804684573,-1.31053,0.116987,-0.694261
1480623804706131,-1.31288,0.11722,-0.694735
1480623804720171,-1.31531,0.117299,-0.69512
1480623804743229,-1.31801,0.117427,-0.695317
1480623804765790,-1.31978,0.117277,-0.695462
1480623804780328,-1.32074,0.117348,-0.69584
1480623804804394,-1.32203,0.116878,-0.696385
1480623804826450,-1.32335,0.116683,-0.697162
1480623804847006,-1.32597,0.116836,-0.698005
1480623804863550,-1.33095,0.117522,-0.698932
1480623804886113,-1.33635,0.118577,-0.699655
1480623804900147,-1.34051,0.120072,-0.700971
1480623804923208,-1.34388,0.12126,-0.702258
1480623804945768,-1.34609,0.121378,-0.703291
1480623804966824,-1.3482,0.121376,-0.70418
1480623804991389,-1.34832,0.121457,-0.704454
1480623805005929,-1.34771,0.12185,-0.705052
1480623805026984,-1.34729,0.121689,-0.705429
1480623805051048,-1.34664,0.120769,-0.70512
1480623805066088,-1.34441,0.119483,-0.704456
1480623805087144,-1.34055,0.118392,-0.703558
1480623805103190,-1.33699,0.117616,-0.701715
1480623805125747,-1.33228,0.11589,-0.698573
1480623805147304,-1.32422,0.113281,-0.695101
1480623805163849,-1.31477,0.110847,-0.692009
1480623805185908,-1.30716,0.10982,-0.688721
1480623805206963,-1.30169,0.108612,-0.684737
1480623805223507,-1.29665,0.106159,-0.679966
1480623805246067,-1.29109,0.102927,-0.67543
1480623805268627,-1.28801,0.0997567,-0.673028
1480623805283165,-1.28643,0.0991981,-0.672754
1480623805305727,-1.28901,0.100333,-0.672973
1480623805329289,-1.29217,0.100837,-0.672733
1480623805343326,-1.29438,0.10152,-0.672823
1480623805365885,-1.29332,0.102242,-0.673681
1480623805386944,-1.29127,0.102119,-0.675994
1480623805403486,-1.29124,0.10195,-0.677134
1480623805432062,-1.29185,0.102056,-0.677404
1480623805449108,-1.29244,0.102696,-0.676954
1480623805463646,-1.29411,0.102712,-0.677165
1480623805486209,-1.2951,0.102089,-0.67701
1480623805508265,-1.29474,0.101513,-0.677571
1480623805523304,-1.29413,0.101448,-0.678775
1480623805545864,-1.29528,0.102158,-0.67952
1480623805575945,-1.2978,0.102444,-0.680051
1480623805582963,-1.29964,0.102622,-0.681083
1480623805606526,-1.30099,0.103031,-0.682314
1480623805634601,-1.3019,0.103239,-0.683406
1480623805642623,-1.30172,0.103259,-0.684329
1480623805666184,-1.30009,0.1035,-0.684956
1480623805688244,-1.29823,0.103844,-0.685274
1480623805710803,-1.29718,0.103968,-0.685354
1480623805725845,-1.29797,0.103649,-0.685202
1480623805748905,-1.29974,0.103525,-0.684865
1480623805762941,-1.30202,0.103764,-0.68465
1480623805786007,-1.30321,0.103749,-0.684376
1480623805824606,-1.30321,0.103749,-0.684376
1480623805829619,-1.3027,0.103715,-0.684833
1480623805846664,-1.30302,0.104082,-0.685372
1480623805868223,-1.30381,0.104424,-0.685409
1480623805882760,-1.30496,0.104771,-0.685562
1480623805911837,-1.30506,0.104996,-0.685612
1480623805928382,-1.30505,0.105074,-0.685988
1480623805949438,-1.30544,0.105357,-0.686329
1480623805965983,-1.30622,0.105944,-0.68655
1480623805988543,-1.307,0.106598,-0.686662
1480623806009599,-1.30716,0.106994,-0.68718
1480623806026142,-1.30702,0.107477,-0.687674
1480623806048201,-1.30752,0.108083,-0.687982
1480623806070259,-1.30775,0.108807,-0.688288
1480623806100841,-1.30823,0.109382,-0.688574
1480623806108361,-1.30888,0.110027,-0.688797
1480623806129418,-1.30926,0.110545,-0.688838
1480623806145961,-1.30974,0.111523,-0.688627
1480623806169026,-1.30937,0.11259,-0.688691
1480623806191081,-1.31014,0.113154,-0.689381
1480623806206121,-1.31182,0.114134,-0.689878
1480623806228180,-1.31313,0.115001,-0.689861
1480623806249236,-1.31379,0.115646,-0.690091
1480623806265779,-1.31356,0.115582,-0.689975
1480623806288339,-1.31411,0.115766,-0.690454
1480623806309399,-1.31532,0.116417,-0.690873
1480623806326441,-1.31631,0.116927,-0.6908
1480623806348500,-1.31686,0.11734,-0.690492
1480623806378580,-1.31663,0.117689,-0.690365
1480623806385098,-1.31553,0.118165,-0.690378
1480623806409162,-1.31363,0.118538,-0.690038
1480623806430718,-1.31079,0.118463,-0.689842
1480623806445758,-1.30711,0.117966,-0.690021
1480623806468822,-1.30364,0.117437,-0.690408
1480623806490879,-1.3013,0.117123,-0.690999
1480623806505919,-1.29941,0.117163,-0.691057
1480623806528482,-1.29926,0.117302,-0.691433
1480623806551540,-1.30061,0.117415,-0.691967
1480623806566078,-1.30232,0.117865,-0.692227
1480623806594153,-1.30216,0.118129,-0.6919
1480623806610697,-1.30035,0.118214,-0.691693
1480623806631753,-1.29848,0.118848,-0.692051
1480623806655317,-1.29816,0.119245,-0.693048
1480623806670866,-1.29925,0.11926,-0.693421
1480623806685396,-1.30093,0.119252,-0.693163
1480623806708458,-1.30102,0.119118,-0.692609
1480623806731018,-1.30036,0.119053,-0.692175
1480623806745055,-1.29864,0.118905,-0.691502
1480623806768618,-1.29864,0.118905,-0.691502
1480623806797193,-1.29871,0.118257,-0.691025
1480623806805215,-1.29885,0.117048,-0.689499
1480623806828275,-1.29779,0.116215,-0.687236
1480623806850836,-1.2997,0.116363,-0.686519
1480623806873898,-1.30347,0.117495,-0.687337
1480623806888439,-1.30802,0.117968,-0.688382
1480623806910996,-1.30912,0.118074,-0.688187
1480623806932054,-1.30649,0.117853,-0.687799
1480623806948596,-1.30155,0.116696,-0.688345
1480623806971156,-1.29797,0.115096,-0.689158
1480623806992213,-1.2975,0.114701,-0.689188
1480623807008255,-1.29889,0.11495,-0.688706
1480623807030815,-1.30094,0.115298,-0.688679
1480623807051871,-1.30349,0.115504,-0.689344
1480623807068415,-1.30574,0.116032,-0.689682
1480623807096990,-1.3059,0.116486,-0.689609
1480623807112031,-1.30469,0.116886,-0.689839
1480623807128575,-1.30313,0.117145,-0.69017
1480623807150634,-1.30313,0.117145,-0.69017
1480623807173194,-1.30387,0.117668,-0.690328
1480623807188235,-1.30436,0.118164,-0.69024
1480623807210794,-1.30436,0.118164,-0.69024
1480623807231850,-1.30439,0.118126,-0.69037
1480623807248394,-1.30569,0.118165,-0.690353
1480623807278474,-1.30762,0.118503,-0.690442
1480623807292010,-1.30972,0.119059,-0.690765
1480623807309055,-1.3115,0.119672,-0.691018
1480623807331114,-1.3124,0.12048,-0.691304
1480623807353674,-1.31282,0.121206,-0.691688
1480623807368213,-1.31284,0.121237,-0.691711
1480623807390772,-1.31268,0.121266,-0.691687
1480623807413333,-1.31268,0.121266,-0.691687
1480623807428373,-1.31174,0.121213,-0.690846
1480623807451434,-1.31047,0.120971,-0.689751
1480623807481514,-1.30876,0.121011,-0.688412
1480623807488031,-1.30703,0.121196,-0.687344
1480623807519114,-1.30621,0.121227,-0.686776
1480623807533653,-1.30623,0.121404,-0.685634
1480623807548192,-1.30638,0.121768,-0.684675
1480623807571253,-1.30664,0.1222,-0.684449
1480623807593312,-1.30718,0.122277,-0.68453
1480623807614367,-1.30817,0.122161,-0.684283
1480623807631915,-1.30934,0.122431,-0.684075
1480623807653471,-1.31035,0.123142,-0.68383
1480623807668011,-1.31151,0.123649,-0.683322
1480623807691072,-1.31248,0.123089,-0.683041
1480623807713632,-1.31231,0.122527,-0.682713
1480623807742208,-1.31175,0.122663,-0.682791
1480623807750732,-1.31175,0.122663,-0.682791
1480623807774293,-1.31202,0.122545,-0.682795
1480623807794346,-1.3129,0.12308,-0.682853
1480623807810890,-1.31363,0.123575,-0.682995
1480623807833450,-1.31437,0.123687,-0.683172
1480623807856011,-1.31458,0.123721,-0.683266
1480623807871051,-1.31453,0.123659,-0.683196
1480623807893610,-1.31422,0.123892,-0.683438
1480623807914666,-1.31407,0.124265,-0.68351
1480623807938229,-1.31407,0.124265,-0.68351
1480623807954773,-1.3134,0.124256,-0.683936
1480623807974326,-1.31303,0.124168,-0.684872
1480623807990870,-1.31305,0.124691,-0.685285
1480623808013429,-1.31247,0.124965,-0.685147
1480623808034486,-1.31084,0.124633,-0.684987
1480623808051030,-1.30895,0.124519,-0.684764
1480623808074094,-1.30784,0.124412,-0.684955
1480623808103168,-1.30817,0.124701,-0.685124
1480623808112192,-1.30888,0.125499,-0.684855
1480623808133248,-1.30956,0.125922,-0.684443
1480623808154304,-1.30942,0.125981,-0.684441
1480623808170848,-1.30878,0.125925,-0.684513
1480623808199424,-1.30803,0.125813,-0.684337
1480623808214464,-1.3074,0.125926,-0.684215
1480623808231008,-1.3074,0.125926,-0.684215
1480623808253568,-1.30901,0.125666,-0.684071
1480623808276128,-1.30902,0.12544,-0.684857
1480623808290666,-1.30718,0.126217,-0.686137
1480623808319744,-1.306,0.126991,-0.686505
1480623808335792,-1.3069,0.127143,-0.686597
1480623808358347,-1.31029,0.12667,-0.68671
1480623808374390,-1.31201,0.126309,-0.686036
1480623808395948,-1.31201,0.126309,-0.686036
1480623808411488,-1.31402,0.126409,-0.686619
1480623808433548,-1.31592,0.126775,-0.687541
1480623808463626,-1.31413,0.127043,-0.688122
1480623808486190,-1.31065,0.127806,-0.687879
1480623808493205,-1.30752,0.127413,-0.688144
1480623808515765,-1.308,0.126678,-0.688531
1480623808530304,-1.31006,0.126368,-0.688328
1480623808553867,-1.31312,0.127474,-0.688439
1480623808575925,-1.31631,0.128499,-0.689023
1480623808596981,-1.31757,0.128409,-0.689055
1480623808613526,-1.31457,0.128283,-0.68844
1480623808636088,-1.31067,0.128072,-0.689058
1480623808657142,-1.30865,0.126654,-0.689541
1480623808673691,-1.31053,0.125936,-0.689763
1480623808695744,-1.31375,0.126766,-0.689715
1480623808710786,-1.31432,0.127455,-0.689642
1480623808740865,-1.31312,0.127875,-0.689403
1480623808755905,-1.31208,0.127627,-0.689985
1480623808776960,-1.30967,0.12754,-0.69105
1480623808793504,-1.31182,0.128481,-0.692017
1480623808831606,-1.31954,0.130128,-0.692837
1480623808837120,-1.3241,0.132531,-0.693865
1480623808853164,-1.32697,0.135125,-0.693973
1480623808875723,-1.3265,0.135085,-0.692652
1480623808897280,-1.32141,0.133414,-0.692509
1480623808913324,-1.31576,0.131793,-0.693031
1480623808936386,-1.31335,0.131418,-0.692088
1480623808956938,-1.31323,0.130458,-0.691455
1480623808973985,-1.31356,0.12985,-0.69173
1480623808996043,-1.31506,0.130395,-0.691216
1480623809017600,-1.31462,0.130042,-0.690309
1480623809039661,-1.3119,0.129002,-0.689716
1480623809055702,-1.31019,0.128649,-0.689351
1480623809076757,-1.30858,0.128274,-0.688834
1480623809099318,-1.30747,0.128158,-0.688538
1480623809122880,-1.30747,0.128158,-0.688538
1480623809136918,-1.30841,0.128213,-0.689381
1480623809153462,-1.30952,0.128161,-0.689871
1480623809176523,-1.30993,0.12806,-0.690254
1480623809197078,-1.30997,0.128683,-0.690582
1480623809221143,-1.30969,0.129363,-0.690862
1480623809243201,-1.30897,0.129531,-0.690915
1480623809258240,-1.3083,0.129446,-0.690938
1480623809274785,-1.30754,0.129473,-0.690544
1480623809295840,-1.30642,0.129594,-0.689945
1480623809318402,-1.30441,0.129564,-0.689255
1480623809333943,-1.30243,0.129484,-0.688211
1480623809362016,-1.30149,0.130254,-0.68737
1480623809378561,-1.30094,0.131209,-0.686963
1480623809393601,-1.30109,0.13118,-0.686987
1480623809415659,-1.30168,0.131388,-0.68703
1480623809438221,-1.30229,0.131893,-0.686815
1480623809452760,-1.30219,0.132496,-0.686762
1480623809491360,-1.30139,0.132884,-0.686797
1480623809498881,-1.30047,0.133184,-0.686561
1480623809519438,-1.29982,0.133432,-0.686221
1480623809535980,-1.29887,0.133286,-0.685951
1480623809558540,-1.29777,0.133267,-0.68557
1480623809573580,-1.29685,0.133633,-0.685226
1480623809596141,-1.29689,0.134097,-0.684797
1480623809618703,-1.29707,0.134501,-0.684371
1480623809632737,-1.29783,0.135046,-0.684071
1480623809657302,-1.29828,0.135412,-0.684027
1480623809686382,-1.29828,0.135412,-0.684027
1480623809706935,-1.29821,0.135319,-0.683935
1480623809715959,-1.29811,0.135756,-0.684076
1480623809738520,-1.2982,0.136363,-0.684095
1480623809759573,-1.29915,0.136991,-0.684245
1480623809776119,-1.2996,0.137358,-0.684202
1480623809798177,-1.2996,0.137358,-0.684202
1480623809820738,-1.2996,0.137358,-0.684202
1480623809843798,-1.29902,0.137545,-0.684633
1480623809858337,-1.29902,0.137545,-0.684633
1480623809879393,-1.2987,0.138015,-0.684571
1480623809895937,-1.29866,0.138682,-0.684588
1480623809918500,-1.29866,0.138682,-0.684588
1480623809939555,-1.29866,0.138682,-0.684588
1480623809963116,-1.29868,0.138713,-0.68461
1480623809978156,-1.29868,0.138713,-0.68461
1480623809999212,-1.29806,0.138609,-0.684326
1480623810015756,-1.2979,0.138637,-0.684302
1480623810038317,-1.2979,0.138637,-0.684302
1480623810066892,-1.2979,0.138637,-0.684302
1480623810075916,-1.29797,0.138731,-0.684394
1480623810098476,-1.2976,0.138873,-0.684543
1480623810127052,-1.29761,0.138972,-0.684456
1480623810136578,-1.29739,0.138839,-0.684448
1480623810158635,-1.29739,0.138839,-0.684448
1480623810186711,-1.29739,0.138839,-0.684448
1480623810195734,-1.29739,0.138839,-0.684448
1480623810218800,-1.29739,0.138839,-0.684448
1480623810240856,-1.29745,0.139,-0.684432
1480623810255895,-1.29745,0.139,-0.684432
1480623810278957,-1.29732,0.13906,-0.684429
1480623810301015,-1.29732,0.13906,-0.684429
1480623810315053,-1.29725,0.138966,-0.684337
1480623810338615,-1.29725,0.138966,-0.684337
1480623810361175,-1.29725,0.138966,-0.684337
1480623810375212,-1.29673,0.138753,-0.68447
1480623810405794,-1.29653,0.138403,-0.684303
1480623810421335,-1.2966,0.138497,-0.684395
1480623810441889,-1.2966,0.138497,-0.684395
1480623810458435,-1.2966,0.138497,-0.684395
1480623810488514,-1.29644,0.138525,-0.68437
1480623810495031,-1.29644,0.138525,-0.68437
1480623810518597,-1.29638,0.138363,-0.684387
1480623810540653,-1.29679,0.138599,-0.684381
1480623810555194,-1.29767,0.138967,-0.684635
1480623810578254,-1.2989,0.138927,-0.685022
1480623810600812,-1.29992,0.138519,-0.685677
1480623810615351,-1.30033,0.138421,-0.686061
1480623810638413,-1.30121,0.13872,-0.686425
1480623810660972,-1.30243,0.139062,-0.686779
1480623810683535,-1.30385,0.13927,-0.687424
1480623810698573,-1.30545,0.139401,-0.687739
1480623810721133,-1.3062,0.139512,-0.68792
1480623810742188,-1.3062,0.139512,-0.68792
1480623810758733,-1.30571,0.139498,-0.687905
1480623810780791,-1.30488,0.139441,-0.6879
1480623810801850,-1.30433,0.139265,-0.687901
1480623810818394,-1.30434,0.139197,-0.688009
1480623810840953,-1.30433,0.139265,-0.687901
1480623810862509,-1.30433,0.139265,-0.687901
1480623810879052,-1.30433,0.139265,-0.687901
1480623810901615,-1.30433,0.139265,-0.687901
1480623810921666,-1.30419,0.139324,-0.687899
1480623810938210,-1.30419,0.139324,-0.687899
1480623810960769,-1.30435,0.139049,-0.687741
1480623810981826,-1.30492,0.13901,-0.687579
1480623810998370,-1.30492,0.13901,-0.687579
1480623811020930,-1.30419,0.138269,-0.687249
1480623811041986,-1.30344,0.137182,-0.686798
1480623811058530,-1.30247,0.135882,-0.685936
1480623811081091,-1.30175,0.134252,-0.68477
1480623811102146,-1.30342,0.132683,-0.683953
1480623811119194,-1.30702,0.133333,-0.683404
1480623811148269,-1.3114,0.134189,-0.682473
1480623811163810,-1.31372,0.133581,-0.681484
1480623811178349,-1.31122,0.132653,-0.680413
1480623811201412,-1.30654,0.131613,-0.680145
1480623811223468,-1.30248,0.130825,-0.680438
1480623811238508,-1.30116,0.130582,-0.680621
1480623811261070,-1.30116,0.130582,-0.680621
1480623811284130,-1.30195,0.130443,-0.680767
1480623811297666,-1.30188,0.130349,-0.680675
1480623811320728,-1.29998,0.130292,-0.68129
1480623811343291,-1.2972,0.130592,-0.682689
1480623811357826,-1.29762,0.13183,-0.683942
1480623811382392,-1.3003,0.133429,-0.68429
1480623811403447,-1.30113,0.133586,-0.684205
1480623811417988,-1.30119,0.132685,-0.684491
1480623811441049,-1.30243,0.132577,-0.684983
1480623811463608,-1.30262,0.133233,-0.686199
1480623811477645,-1.29838,0.13376,-0.687276
1480623811507726,-1.29935,0.135642,-0.687925
1480623811524269,-1.30025,0.136368,-0.686377
1480623811538307,-1.3033,0.135704,-0.686241
1480623811560867,-1.30785,0.135007,-0.68723
1480623811583427,-1.31169,0.136343,-0.68988
1480623811597967,-1.30816,0.137667,-0.690681
1480623811621027,-1.30749,0.138814,-0.688775
1480623811643086,-1.30696,0.138195,-0.686508
1480623811665144,-1.30208,0.134948,-0.685902
1480623811680685,-1.29888,0.13241,-0.688004
1480623811703245,-1.29991,0.133069,-0.692225
1480623811724301,-1.30249,0.136359,-0.694509
1480623811740851,-1.30698,0.138988,-0.693231
1480623811763405,-1.30929,0.139418,-0.691458
1480623811784461,-1.30628,0.137658,-0.690361
1480623811823067,-1.30377,0.135587,-0.690161
1480623811833593,-1.30322,0.13477,-0.689503
1480623811844622,-1.30234,0.13456,-0.688569
1480623811868190,-1.3025,0.133643,-0.687752
1480623811883224,-1.30254,0.132559,-0.686287
1480623811904280,-1.30303,0.132494,-0.685923
1480623811920824,-1.3008,0.13427,-0.68671
1480623811943886,-1.30178,0.137048,-0.687255
1480623811964440,-1.30546,0.137382,-0.687301
1480623811996024,-1.30944,0.136339,-0.687031
1480623812003544,-1.31317,0.135349,-0.686864
1480623812024600,-1.31586,0.135702,-0.687247
1480623812040643,-1.31606,0.135805,-0.687235
1480623812070724,-1.31524,0.134804,-0.686974
1480623812093283,-1.31313,0.133661,-0.686831
1480623812101307,-1.31054,0.132614,-0.687076
1480623812123363,-1.30812,0.132131,-0.687656
1480623812153444,-1.308,0.131719,-0.688259
1480623812160963,-1.31081,0.131273,-0.688057
1480623812184024,-1.31378,0.131036,-0.68758
1480623812206084,-1.31506,0.1309,-0.687258
1480623812220121,-1.31478,0.130682,-0.68764
1480623812243181,-1.31393,0.130512,-0.68867
1480623812274266,-1.31238,0.130463,-0.689399
1480623812280280,-1.31117,0.130695,-0.689815
1480623812303342,-1.31209,0.131358,-0.68984
1480623812325902,-1.31377,0.13167,-0.689675
1480623812340441,-1.31461,0.131412,-0.689603
1480623812371022,-1.31462,0.131344,-0.689711
1480623812386062,-1.31461,0.131412,-0.689603
1480623812407122,-1.31461,0.131412,-0.689603
1480623812429678,-1.31463,0.131444,-0.689625
1480623812446723,-1.31448,0.131403,-0.689709
1480623812460260,-1.31448,0.131403,-0.689709
1480623812490840,-1.31495,0.131632,-0.689884
1480623812505882,-1.31552,0.132221,-0.689901
1480623812520421,-1.31626,0.132814,-0.689964
1480623812551002,-1.31612,0.132874,-0.689961
1480623812572056,-1.31605,0.13278,-0.689868
1480623812586597,-1.31606,0.132712,-0.689976
1480623812611662,-1.31606,0.132712,-0.689976
1480623812625699,-1.31606,0.132712,-0.689976
1480623812646755,-1.31674,0.133043,-0.69014
1480623812663300,-1.31728,0.133118,-0.690226
1480623812685860,-1.31728,0.133118,-0.690226
1480623812706916,-1.31718,0.133723,-0.690177
1480623812723961,-1.31718,0.133723,-0.690177
1480623812746020,-1.31712,0.13363,-0.690084
1480623812767075,-1.31696,0.133658,-0.69006
1480623812783620,-1.31703,0.133751,-0.690153
1480623812805679,-1.31703,0.133751,-0.690153
1480623812828238,-1.31703,0.133751,-0.690153
1480623812843278,-1.31704,0.133783,-0.690174
1480623812873358,-1.31704,0.133783,-0.690174
1480623812886894,-1.31704,0.133783,-0.690174
1480623812903439,-1.31704,0.133783,-0.690174
1480623812925999,-1.31704,0.133783,-0.690174
1480623812947555,-1.31689,0.133811,-0.69015
1480623812963599,-1.31689,0.133811,-0.69015
1480623812986159,-1.31696,0.133735,-0.690437
1480623813006714,-1.31706,0.134036,-0.690871
1480623813030776,-1.31711,0.134344,-0.691126
1480623813045817,-1.31699,0.134894,-0.691519
1480623813068379,-1.31737,0.13549,-0.691948
1480623813090937,-1.31913,0.136116,-0.692559
1480623813105978,-1.32158,0.136933,-0.693556
1480623813128537,-1.32394,0.137482,-0.694142
1480623813143577,-1.32794,0.138578,-0.693645
1480623813165636,-1.32987,0.13856,-0.692675
1480623813188697,-1.32629,0.138348,-0.692889
1480623813210756,-1.31999,0.137736,-0.693158
1480623813226798,-1.31344,0.136675,-0.694127
1480623813255876,-1.31185,0.136423,-0.694512
1480623813262894,-1.31377,0.137132,-0.694108
1480623813285456,-1.3149,0.137357,-0.693376
1480623813309017,-1.31551,0.136551,-0.693278
1480623813330073,-1.31847,0.136193,-0.693845
1480623813346116,-1.32058,0.136814,-0.694094
1480623813368677,-1.31729,0.138173,-0.693704
1480623813382713,-1.31215,0.13869,-0.693161
1480623813405775,-1.30946,0.138177,-0.692972
1480623813428335,-1.30852,0.136687,-0.692938
1480623813442873,-1.30821,0.136016,-0.692798
1480623813473962,-1.30853,0.13654,-0.692669
1480623813488496,-1.30775,0.136694,-0.693005
1480623813502533,-1.3054,0.136302,-0.693191
1480623813533615,-1.30337,0.136168,-0.69353
1480623813548654,-1.30326,0.135945,-0.693475
1480623813569210,-1.30453,0.135536,-0.693432
1480623813593273,-1.30646,0.135939,-0.693431
1480623813608316,-1.30705,0.135516,-0.693302
1480623813629369,-1.30848,0.136054,-0.693559
1480623813653936,-1.30999,0.136538,-0.69364
1480623813668480,-1.31011,0.136693,-0.693804
1480623813707077,-1.30879,0.136557,-0.693893
1480623813712091,-1.30752,0.13662,-0.693838
1480623813728634,-1.30752,0.13662,-0.693838
1480623813756710,-1.30935,0.136485,-0.693709
1480623813765732,-1.31157,0.137037,-0.693438
1480623813788293,-1.31259,0.137262,-0.693324
1480623813810852,-1.31224,0.137199,-0.693797
1480623813825894,-1.31174,0.136996,-0.69444
1480623813848452,-1.31172,0.137458,-0.694785
1480623813869508,-1.31131,0.138198,-0.695064
1480623813886054,-1.31044,0.138575,-0.695382
1480623813908613,-1.31029,0.138603,-0.695358
1480623813929668,-1.31113,0.138836,-0.695655
1480623813945711,-1.31176,0.139663,-0.696037
1480623813975792,-1.31437,0.140305,-0.696786
1480623813991332,-1.31944,0.140966,-0.697115
1480623814011887,-1.32217,0.141115,-0.696885
1480623814035951,-1.32093,0.139569,-0.696536
1480623814050997,-1.31932,0.138411,-0.696525
1480623814066041,-1.31685,0.137483,-0.696564
1480623814088591,-1.31326,0.13649,-0.696661
1480623814111653,-1.31204,0.136166,-0.696788
1480623814125690,-1.31284,0.136592,-0.696275
1480623814155770,-1.3137,0.136768,-0.69573
1480623814173820,-1.31307,0.136669,-0.695443
1480623814185349,-1.31128,0.136542,-0.695051
1480623814208410,-1.30852,0.136902,-0.694563
1480623814230468,-1.30588,0.137104,-0.694137
1480623814245007,-1.30495,0.137642,-0.693596
1480623814268572,-1.30496,0.137562,-0.693218
1480623814298650,-1.3051,0.137602,-0.693135
1480623814305168,-1.3048,0.137926,-0.692805
1480623814328228,-1.30354,0.138019,-0.692771
1480623814350794,-1.30223,0.137952,-0.692754
1480623814365327,-1.30178,0.138483,-0.692691
1480623814388390,-1.30204,0.138913,-0.692467
1480623814427493,-1.30204,0.138913,-0.692467
1480623814432005,-1.30203,0.138981,-0.692359
1480623814448549,-1.30203,0.138981,-0.692359
1480623814493668,-1.30203,0.138981,-0.692359
1480623814496175,-1.30133,0.139101,-0.692055
1480623814508207,-1.3007,0.139383,-0.691735
1480623814546309,-1.30034,0.139711,-0.691226
1480623814551826,-1.29992,0.139878,-0.690732
1480623814568368,-1.29944,0.139883,-0.690255
1480623814590927,-1.29903,0.139982,-0.68987
1480623814619504,-1.29858,0.140265,-0.689623
1480623814628528,-1.29858,0.140265,-0.689623
1480623814651092,-1.29906,0.140347,-0.689529
1480623814671642,-1.29927,0.140381,-0.689624
1480623814688690,-1.29927,0.140381,-0.689624
1480623814710746,-1.29857,0.140333,-0.689515
1480623814731804,-1.29796,0.14041,-0.68952
1480623814761380,-1.29796,0.14041,-0.68952
1480623814773915,-1.29796,0.14041,-0.68952
1480623814791963,-1.29802,0.140572,-0.689504
1480623814822544,-1.29802,0.140572,-0.689504
1480623814831066,-1.29769,0.140115,-0.689528
1480623814852123,-1.29715,0.139805,-0.689747
1480623814868166,-1.29715,0.139805,-0.689747
1480623814890724,-1.29715,0.139805,-0.689747
1480623814911781,-1.29715,0.139805,-0.689747
1480623814928827,-1.29733,0.14029,-0.689699
1480623814950388,-1.29718,0.140318,-0.689675
1480623814973947,-1.2972,0.140349,-0.689697
1480623814988486,-1.29719,0.140417,-0.689588
1480623815011046,-1.29703,0.140445,-0.689564
1480623815041126,-1.29715,0.139873,-0.689639
1480623815048144,-1.29715,0.139805,-0.689747
1480623815071205,-1.29715,0.139873,-0.689639
1480623815093264,-1.29835,0.139632,-0.690173
1480623815107803,-1.30169,0.139181,-0.691117
1480623815130865,-1.30672,0.13889,-0.691629
1480623815153925,-1.31266,0.138815,-0.692141
1480623815174480,-1.31575,0.138568,-0.692518
1480623815191525,-1.31903,0.1384,-0.69335
1480623815213584,-1.32164,0.138146,-0.694201
1480623815227622,-1.32275,0.137895,-0.695358
1480623815251687,-1.32389,0.138164,-0.696936
1480623815274246,-1.32619,0.139249,-0.698103
1480623815287784,-1.32901,0.140294,-0.69845
1480623815310843,-1.32968,0.14076,-0.698409
1480623815338918,-1.32917,0.141062,-0.698469
1480623815349446,-1.32913,0.141798,-0.69839
1480623815371003,-1.32913,0.141798,-0.69839
1480623815402085,-1.32905,0.141679,-0.69876
1480623815422139,-1.32906,0.141712,-0.698781
1480623815430661,-1.32906,0.141712,-0.698781
1480623815460741,-1.32912,0.142189,-0.698847
1480623815474282,-1.32814,0.142746,-0.698639
1480623815490823,-1.32693,0.143003,-0.698582
1480623815513883,-1.32611,0.142736,-0.698405
1480623815534441,-1.32625,0.14316,-0.698294
1480623815551485,-1.32691,0.143796,-0.69806
1480623815574546,-1.32691,0.143796,-0.69806
1480623815596603,-1.32639,0.143896,-0.69829
1480623815610641,-1.32641,0.143928,-0.698312
1480623815633201,-1.32539,0.144279,-0.697759
1480623815654257,-1.32434,0.144508,-0.697727
1480623815670800,-1.32451,0.144799,-0.698346
1480623815693360,-1.32909,0.146651,-0.699962
1480623815714416,-1.34084,0.149936,-0.700411
1480623815730459,-1.35302,0.150244,-0.700792
1480623815761041,-1.36049,0.150416,-0.701339
1480623815774576,-1.36156,0.149147,-0.701668
1480623815790619,-1.35595,0.146767,-0.702947
1480623815813179,-1.35263,0.146333,-0.702872
1480623815834736,-1.35531,0.147161,-0.702538
1480623815850783,-1.35656,0.148912,-0.702618
1480623815880859,-1.35739,0.150671,-0.702879
1480623815903419,-1.35568,0.150707,-0.703103
1480623815910940,-1.3514,0.150076,-0.704652
1480623815934003,-1.34782,0.148813,-0.707069
1480623815956560,-1.349,0.147593,-0.708144
1480623815971099,-1.34983,0.148313,-0.708688
1480623815995163,-1.34968,0.149797,-0.708368
1480623816016221,-1.34967,0.149993,-0.706739
1480623816036774,-1.34743,0.148727,-0.704736
1480623816066857,-1.34468,0.147898,-0.702584
1480623816091920,-1.34372,0.148563,-0.702776
1480623816096934,-1.34744,0.151362,-0.70442
1480623816113483,-1.35579,0.153542,-0.704639
1480623816143558,-1.36401,0.153077,-0.704321
1480623816158599,-1.36408,0.150493,-0.704351
1480623816187175,-1.357,0.148315,-0.704088
1480623816195697,-1.3513,0.148493,-0.703973
1480623816216753,-1.3513,0.149328,-0.704337
1480623816233300,-1.35416,0.150508,-0.705012
1480623816255858,-1.35736,0.152385,-0.704425
1480623816270395,-1.36063,0.152444,-0.703873
1480623816293457,-1.35862,0.149996,-0.703435
1480623816316518,-1.35507,0.148389,-0.703622
1480623816331057,-1.35343,0.149496,-0.70507
1480623816368657,-1.35461,0.152689,-0.705968
1480623816383196,-1.35874,0.154253,-0.705152
1480623816396732,-1.36155,0.154084,-0.704071
1480623816413276,-1.35857,0.15362,-0.704081
1480623816435836,-1.35426,0.151874,-0.703701
1480623816456891,-1.34948,0.149791,-0.702406
1480623816473937,-1.34218,0.147441,-0.701158
1480623816496998,-1.33558,0.146445,-0.701594
1480623816517054,-1.33295,0.147536,-0.702515
1480623816534101,-1.3386,0.149124,-0.702373
1480623816563174,-1.34507,0.149022,-0.700536
1480623816593756,-1.34571,0.148088,-0.698389
1480623816596262,-1.34326,0.147034,-0.697308
1480623816616316,-1.34017,0.146528,-0.697917
1480623816646396,-1.33732,0.146639,-0.698464
1480623816660935,-1.33821,0.146925,-0.698363
1480623816675975,-1.34262,0.145631,-0.698068
1480623816698535,-1.34234,0.144396,-0.697792
1480623816713574,-1.33934,0.143794,-0.697388
1480623816735633,-1.33404,0.143761,-0.697609
1480623816756689,-1.32974,0.143491,-0.698642
1480623816773736,-1.32808,0.142754,-0.698459
1480623816796294,-1.32665,0.143117,-0.698089
1480623816817854,-1.32434,0.145604,-0.698748
1480623816833394,-1.32795,0.14819,-0.700451
1480623816862972,-1.33806,0.148861,-0.70116
1480623816878517,-1.34542,0.147714,-0.701232
1480623816893553,-1.34586,0.146209,-0.700994
1480623816915612,-1.34147,0.145028,-0.700116
1480623816938172,-1.33788,0.14401,-0.698999
1480623816961234,-1.3343,0.144676,-0.69957
1480623816976273,-1.33394,0.146975,-0.700465
1480623816998332,-1.33962,0.147704,-0.700947
1480623817012871,-1.34631,0.145874,-0.699912
1480623817035932,-1.34495,0.1433,-0.698159
1480623817064508,-1.33868,0.14156,-0.69765
1480623817073535,-1.33365,0.14153,-0.699106
1480623817096594,-1.33272,0.143559,-0.700561
1480623817148732,-1.33811,0.14569,-0.70091
1480623817151242,-1.34668,0.147058,-0.700015
1480623817157254,-1.34624,0.145357,-0.698482
1480623817178311,-1.34144,0.143697,-0.698382
1480623817199367,-1.33768,0.144729,-0.700798
1480623817216412,-1.33801,0.148003,-0.703863
1480623817238472,-1.34707,0.150222,-0.705158
1480623817267049,-1.35945,0.151652,-0.704269
1480623817276573,-1.35996,0.149748,-0.701092
1480623817298631,-1.35173,0.146131,-0.69878
1480623817320190,-1.34052,0.144341,-0.700526
1480623817341749,-1.33752,0.147311,-0.705097
1480623817358289,-1.34716,0.150471,-0.707842
1480623817380850,-1.3631,0.15217,-0.707826
1480623817395890,-1.37072,0.151958,-0.705525
1480623817418450,-1.36579,0.149628,-0.703276
1480623817439506,-1.35505,0.146685,-0.7019
1480623817456050,-1.34851,0.147716,-0.702998
1480623817478610,-1.34841,0.150455,-0.704526
1480623817499666,-1.35409,0.151769,-0.70471
1480623817515709,-1.35883,0.151002,-0.704663
1480623817546290,-1.35425,0.149095,-0.703734
1480623817567848,-1.34778,0.146804,-0.702491
1480623817575868,-1.34136,0.145578,-0.701003
1480623817598930,-1.33897,0.146882,-0.700543
1480623817619484,-1.33924,0.148186,-0.700711
1480623817636029,-1.34128,0.148337,-0.701231
1480623817658087,-1.3421,0.148403,-0.702073
1480623817679644,-1.34453,0.148839,-0.703785
1480623817695688,-1.34709,0.148445,-0.705035
1480623817718749,-1.3476,0.14713,-0.70432
1480623817723762,-1.3438,0.145464,-0.703412
1480623817747826,-1.33788,0.143785,-0.70338
1480623817761362,-1.33282,0.143374,-0.703374
1480623817783925,-1.33215,0.143074,-0.702734
1480623817806484,-1.33468,0.142316,-0.702044
1480623817824028,-1.33776,0.141873,-0.701149
1480623817845085,-1.33841,0.141778,-0.700329
1480623817867645,-1.33689,0.141083,-0.700058
1480623817888701,-1.33505,0.139969,-0.700307
1480623817903741,-1.33355,0.138966,-0.700447
1480623817926301,-1.33187,0.138595,-0.701187
1480623817942845,-1.33052,0.138744,-0.701321
1480623817963900,-1.33085,0.139023,-0.701014
1480623817986461,-1.33142,0.139223,-0.700556
1480623818008520,-1.33081,0.138989,-0.700477
1480623818023559,-1.33011,0.138705,-0.700661
1480623818046119,-1.33081,0.138749,-0.700777
1480623818062663,-1.33129,0.139044,-0.700852
1480623818083738,-1.33181,0.139714,-0.70108
1480623818114301,-1.33254,0.140347,-0.701513
1480623818124328,-1.33306,0.140941,-0.701363
1480623818143879,-1.33368,0.141592,-0.701437
1480623818174461,-1.33307,0.142153,-0.701352
1480623818182483,-1.33317,0.14293,-0.701193
1480623818203539,-1.33317,0.14293,-0.701193
1480623818234623,-1.33197,0.143044,-0.700862
1480623818242643,-1.33059,0.142945,-0.700292
1480623818263699,-1.32786,0.142602,-0.699397
1480623818286259,-1.32459,0.14233,-0.698685
1480623818311826,-1.3222,0.142486,-0.698139
1480623818323858,-1.32146,0.1433,-0.697392
1480623818353939,-1.32227,0.144137,-0.696394
1480623818363965,-1.32339,0.144604,-0.695369
1480623818384022,-1.32268,0.144957,-0.694274
1480623818406077,-1.32032,0.144679,-0.6934
1480623818422621,-1.31773,0.144872,-0.693135
1480623818443677,-1.31665,0.145382,-0.693159
1480623818474259,-1.31724,0.145756,-0.69302
1480623818482782,-1.3183,0.145629,-0.692966
1480623818511357,-1.3188,0.145575,-0.693092
1480623818526397,-1.3188,0.145575,-0.693092
1480623818543945,-1.31887,0.145737,-0.693078
1480623818566506,-1.31864,0.145671,-0.692959
1480623818589064,-1.31888,0.14576,-0.692614
1480623818604104,-1.31924,0.145441,-0.692174
1480623818623656,-1.31928,0.144774,-0.692149
1480623818653735,-1.31928,0.144774,-0.692149
1480623818664264,-1.31928,0.144774,-0.692149
1480623818683818,-1.3193,0.144806,-0.69217
1480623818708383,-1.31948,0.145045,-0.691946
1480623818728936,-1.31948,0.145045,-0.691946
1480623818743475,-1.31952,0.144525,-0.692191
1480623818766540,-1.31952,0.144525,-0.692191
1480623818791605,-1.31952,0.144525,-0.692191
1480623818806643,-1.31979,0.144482,-0.692575
1480623818826194,-1.32036,0.144419,-0.69288
1480623818848755,-1.32089,0.144709,-0.693134
1480623818863804,-1.32107,0.145271,-0.693472
1480623818886356,-1.32089,0.145659,-0.693881
1480623818917442,-1.32121,0.145992,-0.694416
1480623818923955,-1.32168,0.146366,-0.694869
1480623818946515,-1.32245,0.146404,-0.695166
1480623818977597,-1.32275,0.146874,-0.695487
1480623818983616,-1.32365,0.147337,-0.695673
1480623819009182,-1.3235,0.147365,-0.695648
1480623819031741,-1.3235,0.147365,-0.695648
1480623819043773,-1.3235,0.147365,-0.695648
1480623819066334,-1.32334,0.147393,-0.695623
1480623819088895,-1.32336,0.147425,-0.695644
1480623819106442,-1.32336,0.147425,-0.695644
1480623819125992,-1.32336,0.147425,-0.695644
1480623819148553,-1.32334,0.147393,-0.695623
1480623819163592,-1.3235,0.147365,-0.695648
1480623819186154,-1.32334,0.147393,-0.695623
1480623819211720,-1.32414,0.147079,-0.695971
1480623819231272,-1.32478,0.1467,-0.696865
1480623819246312,-1.32614,0.147093,-0.697979
1480623819268873,-1.32847,0.148202,-0.698699
1480623819283916,-1.33462,0.149016,-0.699087
1480623819305972,-1.33885,0.149071,-0.699013
1480623819328531,-1.33894,0.147771,-0.698969
1480623819345075,-1.34062,0.147947,-0.6989
1480623819366132,-1.34688,0.148515,-0.700281
1480623819396712,-1.34792,0.148411,-0.702365
1480623819411251,-1.3412,0.149373,-0.702526
1480623819426792,-1.33909,0.151668,-0.702153
1480623819448851,-1.34484,0.15144,-0.70208
1480623819481940,-1.34662,0.148918,-0.701336
1480623819487456,-1.34169,0.147286,-0.700863
1480623819508512,-1.34091,0.147027,-0.702167
1480623819525055,-1.34128,0.14746,-0.703627
1480623819546110,-1.34116,0.148591,-0.703347
1480623819568694,-1.34342,0.15052,-0.701957
1480623819586718,-1.34705,0.150536,-0.700669
1480623819606271,-1.34432,0.147793,-0.698948
1480623819628830,-1.34093,0.146192,-0.699066
1480623819645374,-1.33805,0.146805,-0.700323
1480623819666433,-1.33772,0.14865,-0.701356
1480623819689992,-1.3428,0.150184,-0.701955
1480623819706537,-1.35141,0.151027,-0.701333
1480623819729097,-1.35246,0.149064,-0.701089
1480623819766699,-1.34857,0.147482,-0.700702
1480623819771209,-1.34598,0.148699,-0.702556
1480623819789257,-1.34432,0.152959,-0.705221
1480623819808809,-1.34987,0.156523,-0.706043
1480623819831368,-1.35965,0.157252,-0.705974
1480623819846408,-1.36101,0.156163,-0.703781
1480623819876489,-1.35783,0.154899,-0.702389
1480623819908072,-1.35404,0.154346,-0.703844
1480623819910580,-1.35538,0.156829,-0.707334
1480623819928628,-1.36156,0.16028,-0.707684
1480623819951188,-1.36854,0.161469,-0.705667
1480623819966230,-1.37167,0.160797,-0.705118
1480623819988788,-1.3653,0.159208,-0.704403
1480623820011348,-1.36075,0.157499,-0.703783
1480623820026388,-1.3596,0.157433,-0.704779
1480623820048949,-1.36233,0.159439,-0.706293
1480623820067497,-1.36853,0.161715,-0.706681
1480623820086047,-1.37411,0.162161,-0.705682
1480623820108608,-1.37378,0.160348,-0.704217
1480623820126654,-1.37131,0.159123,-0.70427
1480623820146207,-1.3719,0.160089,-0.706104
1480623820168767,-1.37706,0.163462,-0.707697
1480623820191328,-1.38369,0.166544,-0.707335
1480623820206367,-1.389,0.166061,-0.705305
1480623820229929,-1.38246,0.163016,-0.701931
1480623820252489,-1.37293,0.159473,-0.700706
1480623820274140,-1.37023,0.158033,-0.703946
1480623820288586,-1.37352,0.162405,-0.706484
1480623820319668,-1.38075,0.166425,-0.705796
1480623820329193,-1.38294,0.167997,-0.704135
1480623820364788,-1.37847,0.166578,-0.703078
1480623820379326,-1.3707,0.16331,-0.702737
1480623820395369,-1.36078,0.157556,-0.70024
1480623820408905,-1.35397,0.154678,-0.697871
1480623820432972,-1.35133,0.153422,-0.698345
1480623820447508,-1.35218,0.154628,-0.699303
1480623820472575,-1.35864,0.156589,-0.699967
1480623820491124,-1.36211,0.155822,-0.699135
1480623820509172,-1.36157,0.154146,-0.69822
1480623820528724,-1.35855,0.154167,-0.69846
1480623820551284,-1.3567,0.155133,-0.700369
1480623820567829,-1.3581,0.15662,-0.701605
1480623820596404,-1.36205,0.157677,-0.701782
1480623820611444,-1.36428,0.156993,-0.702376
1480623820628991,-1.36102,0.153585,-0.701839
1480623820648543,-1.35575,0.149851,-0.70064
1480623820671104,-1.3503,0.148233,-0.699655
1480623820695166,-1.34775,0.148184,-0.700327
1480623820708706,-1.34946,0.149262,-0.700669
1480623820731265,-1.35221,0.150949,-0.700903
1480623820749311,-1.35465,0.152907,-0.702231
1480623820768864,-1.35756,0.153667,-0.704409
1480623820791422,-1.36044,0.154119,-0.706812
1480623820808971,-1.36239,0.154771,-0.708715
1480623820836043,-1.36359,0.153469,-0.708098
1480623820854090,-1.36204,0.15087,-0.706862
1480623820876650,-1.35893,0.150464,-0.705079
1480623820896202,-1.35592,0.150873,-0.703996
1480623820918762,-1.35459,0.149419,-0.70428
1480623820929290,-1.3545,0.148185,-0.704557
1480623820948842,-1.35375,0.147455,-0.704678
1480623820974912,-1.35272,0.146706,-0.704518
1480623820989951,-1.35156,0.146089,-0.704734
1480623821010005,-1.34886,0.145789,-0.704838
1480623821031061,-1.34638,0.145939,-0.70504
1480623821049109,-1.34473,0.14628,-0.705051
1480623821068663,-1.34391,0.146885,-0.705247
1480623821091220,-1.34344,0.147461,-0.705547
1480623821109770,-1.34329,0.147493,-0.706008
1480623821128821,-1.34422,0.147567,-0.70623
1480623821167424,-1.34417,0.147364,-0.705882
1480623821174944,-1.3441,0.147272,-0.705786
1480623821188480,-1.34281,0.147441,-0.705627
1480623821211040,-1.34281,0.147441,-0.705627
1480623821229087,-1.34288,0.147533,-0.705723
1480623821250148,-1.34302,0.147472,-0.705727
1480623821271199,-1.34218,0.147278,-0.705435
1480623821289248,-1.34125,0.147347,-0.705486
1480623821310304,-1.34139,0.147675,-0.705951
1480623821331359,-1.34255,0.148168,-0.707251
1480623821353920,-1.34643,0.149161,-0.709134
1480623821377482,-1.35293,0.150907,-0.710619
1480623821391019,-1.35958,0.151402,-0.711173
1480623821409102,-1.36289,0.150855,-0.710958
1480623821431627,-1.36137,0.150235,-0.710699
1480623821453183,-1.35617,0.150268,-0.710787
1480623821476746,-1.35203,0.150211,-0.7112
1480623821498303,-1.35077,0.150031,-0.711082
1480623821511340,-1.35183,0.150068,-0.71036
1480623821529387,-1.35284,0.149803,-0.709374
1480623821550444,-1.35309,0.149543,-0.708589
1480623821571500,-1.35156,0.149373,-0.707723
1480623821589045,-1.34824,0.148974,-0.706698
1480623821617622,-1.34416,0.148786,-0.705561
1480623821632664,-1.34105,0.149039,-0.704321
1480623821653717,-1.3401,0.149831,-0.703477
1480623821672774,-1.34069,0.150685,-0.702753
1480623821691317,-1.34306,0.151701,-0.702295
1480623821713877,-1.34638,0.152237,-0.702283
1480623821731926,-1.34655,0.151777,-0.701004
1480623821751478,-1.34251,0.149489,-0.700151
1480623821782564,-1.34007,0.148624,-0.700704
1480623821796095,-1.34123,0.149069,-0.700673
1480623821811136,-1.34394,0.149189,-0.699937
1480623821835200,-1.34509,0.149081,-0.699608
1480623821866286,-1.34499,0.149172,-0.700142
1480623821871297,-1.34381,0.148496,-0.701291
1480623821893855,-1.34261,0.148076,-0.702965
1480623821911904,-1.3414,0.149107,-0.703854
1480623821931459,-1.34298,0.150174,-0.704293
1480623821953514,-1.34384,0.14994,-0.703768
1480623821972566,-1.34268,0.14952,-0.702846
1480623821991115,-1.3402,0.149595,-0.702669
1480623822013675,-1.33839,0.150203,-0.702354
1480623822031724,-1.33821,0.149917,-0.701731
1480623822058795,-1.33889,0.149298,-0.701153
1480623822081355,-1.34059,0.149363,-0.700834
1480623822097899,-1.34115,0.149463,-0.700466
1480623822111434,-1.34029,0.149721,-0.700042
1480623822142518,-1.33902,0.149988,-0.699797
1480623822151542,-1.33817,0.150079,-0.70005
1480623822178613,-1.338,0.15025,-0.700297
1480623822193654,-1.33831,0.150786,-0.700519
1480623822216215,-1.33838,0.150879,-0.700615
1480623822233260,-1.33739,0.151127,-0.700293
1480623822261333,-1.33587,0.151522,-0.701043
1480623822291413,-1.33463,0.152378,-0.701118
1480623822301440,-1.33367,0.152969,-0.700929
1480623822313472,-1.33282,0.152985,-0.700803
1480623822339041,-1.33236,0.152553,-0.700936
1480623822358592,-1.331,0.152694,-0.700576
1480623822375136,-1.3302,0.153326,-0.700305
1480623822391681,-1.33058,0.154152,-0.699963
1480623822421760,-1.33169,0.15457,-0.699877
1480623822450838,-1.33169,0.15457,-0.699877
1480623822453345,-1.33156,0.154631,-0.699873
1480623822473399,-1.33156,0.154631,-0.699873
1480623822500971,-1.33073,0.154117,-0.699502
1480623822511499,-1.33041,0.153718,-0.699068
1480623822538572,-1.33044,0.153393,-0.698652
1480623822553611,-1.33023,0.153284,-0.698174
1480623822576171,-1.33023,0.153284,-0.698174
1480623822594219,-1.33069,0.153964,-0.698227
1480623822616779,-1.33094,0.15427,-0.698566
1480623822643851,-1.3316,0.155026,-0.699077
1480623822653878,-1.33249,0.155599,-0.699523
1480623822673931,-1.33361,0.155853,-0.700118
1480623822691477,-1.33435,0.156144,-0.700945
1480623822721057,-1.33496,0.156667,-0.701578
1480623822733591,-1.33501,0.156871,-0.701925
1480623822751639,-1.33487,0.156932,-0.701921
1480623822780213,-1.33481,0.15677,-0.701931
1480623822793751,-1.33465,0.156798,-0.701906
1480623822824330,-1.33507,0.156931,-0.702
1480623822833857,-1.33585,0.157068,-0.702219
1480623822861430,-1.33655,0.157181,-0.702236
1480623822872962,-1.33655,0.157181,-0.702236
1480623822894518,-1.33647,0.157377,-0.702686
1480623822933125,-1.33647,0.157377,-0.702686
1480623822945153,-1.33631,0.157404,-0.702661
1480623822954177,-1.33631,0.157404,-0.702661
1480623822973730,-1.33626,0.157345,-0.702586
1480623823003809,-1.33626,0.157345,-0.702586
1480623823030380,-1.33633,0.157438,-0.702682
1480623823041409,-1.33633,0.157438,-0.702682
1480623823058956,-1.33617,0.157466,-0.702656
1480623823074497,-1.33617,0.157466,-0.702656
1480623823096555,-1.33617,0.157466,-0.702656
1480623823116613,-1.33596,0.157434,-0.702556
1480623823141676,-1.33618,0.157397,-0.702763
1480623823171755,-1.33611,0.157304,-0.702667
1480623823183788,-1.33688,0.15751,-0.70278
1480623823206849,-1.33794,0.157277,-0.702822
1480623823215372,-1.33924,0.157041,-0.703092
1480623823236428,-1.34059,0.15679,-0.703057
1480623823253975,-1.34159,0.15667,-0.702833
1480623823308120,-1.34159,0.15667,-0.702833
1480623823314636,-1.34062,0.156294,-0.702831
1480623823326667,-1.34006,0.156051,-0.702923
1480623823341207,-1.34092,0.155793,-0.70335
1480623823356246,-1.34171,0.155343,-0.704253
1480623823375297,-1.34093,0.155184,-0.704984
1480623823395351,-1.34049,0.155553,-0.705602
1480623823417911,-1.34068,0.155764,-0.705849
1480623823433955,-1.34101,0.156263,-0.706202
1480623823470050,-1.3422,0.156669,-0.706305
1480623823483585,-1.34358,0.157244,-0.706298
1480623823494113,-1.3449,0.157831,-0.70611
1480623823516675,-1.34603,0.158178,-0.706141
1480623823536226,-1.34611,0.157782,-0.706347
1480623823561793,-1.34596,0.157814,-0.706807
1480623823584353,-1.34624,0.158081,-0.707279
1480623823596385,-1.34664,0.158322,-0.707628
1480623823613939,-1.34698,0.158504,-0.707902
1480623823636492,-1.34748,0.158342,-0.708119
1480623823656044,-1.34748,0.158342,-0.708119
1480623823674594,-1.34748,0.158342,-0.708119
1480623823696652,-1.34721,0.158326,-0.708322
1480623823723724,-1.34721,0.158326,-0.708322
1480623823757324,-1.34757,0.158153,-0.708154
1480623823761324,-1.34758,0.158083,-0.70826
1480623823776364,-1.34735,0.158018,-0.708138
1480623823802434,-1.34735,0.158018,-0.708138
1480623823830508,-1.34735,0.158018,-0.708138
1480623823836024,-1.34735,0.158018,-0.708138
1480623823854071,-1.34778,0.158253,-0.708149
1480623823876631,-1.34833,0.158392,-0.708145
1480623823896182,-1.34833,0.158392,-0.708145
1480623823914231,-1.34834,0.158426,-0.708166
1480623823937292,-1.34819,0.158454,-0.70814
1480623823973388,-1.34877,0.158315,-0.70856
1480623823975393,-1.34945,0.158506,-0.7093
1480623824003970,-1.35034,0.159285,-0.709928
1480623824017514,-1.3518,0.15992,-0.710492
1480623824038563,-1.35334,0.160394,-0.71014
1480623824062626,-1.35434,0.160413,-0.709707
1480623824077666,-1.35435,0.160447,-0.709728
1480623824094210,-1.35349,0.160394,-0.709213
1480623824117271,-1.35349,0.160394,-0.709213
1480623824137827,-1.35449,0.160487,-0.709162
1480623824153869,-1.35584,0.160444,-0.709303
1480623824176429,-1.3574,0.160678,-0.709737
1480623824197485,-1.35902,0.160724,-0.710059
1480623824214028,-1.3612,0.161713,-0.710361
1480623824258647,-1.36336,0.162599,-0.710751
1480623824263662,-1.3643,0.162529,-0.710712
1480623824286221,-1.3636,0.162452,-0.710705
1480623824318306,-1.36181,0.1624,-0.710333
1480623824320812,-1.36006,0.161645,-0.710044
1480623824334351,-1.3584,0.16077,-0.709687
1480623824356407,-1.35629,0.160012,-0.709276
1480623824393005,-1.35526,0.159579,-0.709188
1480623824395511,-1.3558,0.159962,-0.708889
1480623824416569,-1.35749,0.160377,-0.708545
1480623824446647,-1.35912,0.16056,-0.708317
1480623824483746,-1.36006,0.160491,-0.708275
1480623824488760,-1.3599,0.160518,-0.708249
1480623824503800,-1.35922,0.160403,-0.707885
1480623824520344,-1.35795,0.159731,-0.707863
1480623824535885,-1.35652,0.159964,-0.708173
1480623824558945,-1.35465,0.160001,-0.708829
1480623824579501,-1.3531,0.159738,-0.709349
1480623824596547,-1.35378,0.160243,-0.710175
1480623824618606,-1.35569,0.160689,-0.710419
1480623824639661,-1.35744,0.160986,-0.710342
1480623824655703,-1.3592,0.161665,-0.709908
1480623824678263,-1.36164,0.162847,-0.709821
1480623824699322,-1.36264,0.163325,-0.709753
1480623824723384,-1.36074,0.162772,-0.709247
1480623824761485,-1.35753,0.162457,-0.708465
1480623824770509,-1.35431,0.161355,-0.708986
1480623824784546,-1.3537,0.160668,-0.709019
1480623824804599,-1.35489,0.159781,-0.708403
1480623824820141,-1.35719,0.160292,-0.708704
1480623824835684,-1.36057,0.161515,-0.709798
1480623824859245,-1.35991,0.161958,-0.711055
1480623824879298,-1.35758,0.164247,-0.712724
1480623824895843,-1.35831,0.165721,-0.713866
1480623824918403,-1.35955,0.164858,-0.713793
1480623824946978,-1.36185,0.162713,-0.712738
1480623824956002,-1.36285,0.162913,-0.713431
1480623824979064,-1.36519,0.164915,-0.714316
1480623824999119,-1.36652,0.165361,-0.7147
1480623825015664,-1.36686,0.16624,-0.713735
1480623825053261,-1.3676,0.165647,-0.712871
1480623825062286,-1.36436,0.162658,-0.71117
1480623825076323,-1.35919,0.158705,-0.709289
1480623825099386,-1.35263,0.157709,-0.709973
1480623825120942,-1.35137,0.159771,-0.712172
1480623825135981,-1.35458,0.161262,-0.712932
1480623825158040,-1.36046,0.162277,-0.712176
1480623825179096,-1.36535,0.162716,-0.711102
1480623825201656,-1.36121,0.160284,-0.709838
1480623825218202,-1.35475,0.158103,-0.708623
1480623825239256,-1.34985,0.159235,-0.709542
1480623825255800,-1.35051,0.161632,-0.71124
1480623825278361,-1.35743,0.162946,-0.711604
1480623825316463,-1.36717,0.162415,-0.711032
1480623825318969,-1.37138,0.161043,-0.710656
1480623825339524,-1.36753,0.159143,-0.709133
1480623825360578,-1.36074,0.158311,-0.707724
1480623825375118,-1.35473,0.158312,-0.708305
1480623825398683,-1.35394,0.159726,-0.710308
1480623825428259,-1.3604,0.161793,-0.710787
1480623825435779,-1.36847,0.162489,-0.709601
1480623825458339,-1.37057,0.162102,-0.709078
1480623825480899,-1.36645,0.161085,-0.709336
1480623825503459,-1.35963,0.160088,-0.709761
1480623825526019,-1.35559,0.159839,-0.710669
1480623825541059,-1.35584,0.160178,-0.711377
1480623825563117,-1.35904,0.160133,-0.711222
1480623825591693,-1.36015,0.159683,-0.710762
1480623825601219,-1.35695,0.159268,-0.710557
1480623825615761,-1.35284,0.159132,-0.710231
1480623825638318,-1.35008,0.158668,-0.709499
1480623825667395,-1.34813,0.15802,-0.708912
1480623825689454,-1.34665,0.157566,-0.708987
1480623825698981,-1.34667,0.1576,-0.709008
1480623825737081,-1.34667,0.1576,-0.709008
1480623825742093,-1.34553,0.157639,-0.708953
1480623825758136,-1.34585,0.158133,-0.708822
1480623825781198,-1.34592,0.158467,-0.708621
1480623825803257,-1.34576,0.158564,-0.708489
1480623825818798,-1.3462,0.158517,-0.708439
1480623825840856,-1.34583,0.158829,-0.708394
1480623825864420,-1.34512,0.15889,-0.708182
1480623825878456,-1.34448,0.158797,-0.707878
1480623825917060,-1.34448,0.158797,-0.707878
1480623825923577,-1.34497,0.15912,-0.7075
1480623825945635,-1.34537,0.159562,-0.707192
1480623825961177,-1.3455,0.160128,-0.706875
1480623825983237,-1.34554,0.160429,-0.706653
1480623825999281,-1.34554,0.160429,-0.706653
1480623826020836,-1.34505,0.160664,-0.706816
1480623826042894,-1.34505,0.160664,-0.706816
1480623826059939,-1.34505,0.160664,-0.706816
1480623826080996,-1.34478,0.160431,-0.706365
1480623826102053,-1.34478,0.160431,-0.706365
1480623826133134,-1.34478,0.160431,-0.706365
1480623826148678,-1.34451,0.160168,-0.706379
1480623826163214,-1.34451,0.160168,-0.706379
1480623826179257,-1.34451,0.160168,-0.706379
1480623826201315,-1.34387,0.160218,-0.706349
1480623826223374,-1.34372,0.160246,-0.706323
1480623826238415,-1.34372,0.160246,-0.706323
1480623826260974,-1.34372,0.160246,-0.706323
1480623826282034,-1.34372,0.160246,-0.706323
1480623826298073,-1.34372,0.160246,-0.706323
1480623826335674,-1.34349,0.160571,-0.706663
1480623826358735,-1.34383,0.160828,-0.707317
1480623826361241,-1.34445,0.161347,-0.707957
1480623826386811,-1.34585,0.16161,-0.708359
1480623826426414,-1.34665,0.161187,-0.708799
1480623826428920,-1.34643,0.161126,-0.709163
1480623826449978,-1.34618,0.161561,-0.709757
1480623826463513,-1.34617,0.161917,-0.710199
1480623826478553,-1.34617,0.161917,-0.710199
1480623826501113,-1.34603,0.161979,-0.710194
1480623826523172,-1.34602,0.162048,-0.710088
1480623826537711,-1.34603,0.161979,-0.710194
1480623826560771,-1.34603,0.161979,-0.710194
1480623826583834,-1.34602,0.162048,-0.710088
1480623826613914,-1.34602,0.162048,-0.710088
1480623826621934,-1.34603,0.161979,-0.710194
1480623826643493,-1.34588,0.16211,-0.710083
1480623826666053,-1.34588,0.16211,-0.710083
1480623826682097,-1.34616,0.161987,-0.710093
1480623826703150,-1.34644,0.162036,-0.709911
1480623826717692,-1.34644,0.162036,-0.709911
1480623826740753,-1.34646,0.16207,-0.709932
1480623826763311,-1.34646,0.16207,-0.709932
1480623826777849,-1.34653,0.162162,-0.710029
1480623826800911,-1.34596,0.162059,-0.709906
1480623826823470,-1.34596,0.162059,-0.709906
1480623826861571,-1.34596,0.162059,-0.709906
1480623826863577,-1.34596,0.162059,-0.709906
1480623826892153,-1.34596,0.162059,-0.709906
1480623826913210,-1.34667,0.162101,-0.710034
1480623826926745,-1.34744,0.162344,-0.710513
1480623826943289,-1.3486,0.162966,-0.711132
1480623826964345,-1.34936,0.163594,-0.71159
1480623826980890,-1.35082,0.164229,-0.712157
1480623827003449,-1.35134,0.163988,-0.711656
1480623827026009,-1.35219,0.162316,-0.71013
1480623827040549,-1.35755,0.162143,-0.708866
1480623827064111,-1.36128,0.162986,-0.710453
1480623827091683,-1.35653,0.165492,-0.712858
1480623827100708,-1.35988,0.169129,-0.715446
1480623827137306,-1.37296,0.169563,-0.714352
1480623827144324,-1.37599,0.164061,-0.710281
1480623827166886,-1.36665,0.15983,-0.709526
1480623827190948,-1.35407,0.159665,-0.714717
1480623827204484,-1.35535,0.165981,-0.720516
1480623827227044,-1.37055,0.170678,-0.720123
1480623827243087,-1.38634,0.171979,-0.712906
1480623827268154,-1.39229,0.168369,-0.707842
1480623827280186,-1.38612,0.163401,-0.709423
1480623827303247,-1.38079,0.165693,-0.71544
1480623827333329,-1.38303,0.173953,-0.718403
1480623827340350,-1.39003,0.175794,-0.717717
1480623827369423,-1.39582,0.173707,-0.717876
1480623827385968,-1.391,0.172474,-0.717121
1480623827400005,-1.37907,0.169323,-0.716328
1480623827424069,-1.37029,0.167863,-0.715724
1480623827445625,-1.36612,0.166416,-0.715911
1480623827468186,-1.36911,0.165226,-0.716052
1480623827483727,-1.37379,0.164627,-0.715189
1480623827505786,-1.37511,0.163895,-0.714263
1480623827520324,-1.37496,0.164274,-0.713858
1480623827543887,-1.37554,0.164028,-0.713055
1480623827573968,-1.37402,0.163027,-0.711478
1480623827579983,-1.3716,0.162392,-0.712348
1480623827610565,-1.37292,0.16305,-0.712905
1480623827625605,-1.37592,0.163891,-0.712909
1480623827648668,-1.37444,0.164756,-0.713239
1480623827663204,-1.37224,0.166037,-0.712969
1480623827693285,-1.3706,0.165644,-0.712528
1480623827700303,-1.36957,0.164652,-0.713122
1480623827723365,-1.36606,0.1629,-0.712336
1480623827745926,-1.36593,0.162644,-0.71142
1480623827766479,-1.36579,0.161765,-0.708986
1480623827783524,-1.35997,0.160996,-0.708326
1480623827813103,-1.35645,0.164323,-0.712682
1480623827835664,-1.3617,0.16792,-0.717283
1480623827844186,-1.375,0.170569,-0.718939
1480623827865746,-1.38214,0.17004,-0.716619
1480623827886799,-1.37561,0.16618,-0.712553
1480623827903343,-1.36119,0.163356,-0.711541
1480623827925903,-1.35331,0.165883,-0.716059
1480623827946960,-1.35855,0.172551,-0.719709
1480623827963504,-1.37148,0.174796,-0.720439
1480623827987066,-1.3843,0.174405,-0.719452
1480623828023663,-1.37807,0.170976,-0.71617
1480623828026170,-1.3658,0.167274,-0.714527
1480623828046224,-1.35733,0.166354,-0.718785
1480623828066778,-1.36336,0.172075,-0.725101
1480623828090843,-1.37871,0.176698,-0.726303
1480623828113402,-1.39997,0.177986,-0.724488
1480623828127439,-1.40395,0.176035,-0.719053
1480623828144485,-1.38787,0.169716,-0.712091
1480623828166042,-1.36944,0.164712,-0.710979
1480623828188102,-1.35974,0.164834,-0.716483
1480623828202639,-1.3717,0.17074,-0.721766
1480623828226202,-1.38883,0.174833,-0.72125
1480623828248264,-1.4025,0.175779,-0.721107
1480623828278341,-1.39908,0.173706,-0.719821
1480623828285861,-1.38507,0.168369,-0.717513
1480623828315943,-1.37007,0.166056,-0.716778
1480623828322458,-1.36153,0.166844,-0.718956
1480623828346022,-1.37074,0.167011,-0.721779
1480623828368581,-1.38629,0.166208,-0.723957
1480623828389136,-1.39887,0.166296,-0.725433
1480623828405680,-1.40541,0.165596,-0.727088
1480623828428239,-1.40621,0.163446,-0.727726
1480623828442778,-1.40189,0.162181,-0.726629
1480623828465840,-1.3944,0.161344,-0.725488
1480623828488400,-1.38993,0.160756,-0.725764
1480623828509456,-1.39164,0.16146,-0.72768
1480623828526000,-1.39584,0.163082,-0.729365
1480623828548562,-1.39736,0.162852,-0.730102
1480623828569114,-1.3966,0.162023,-0.729929
1480623828594181,-1.39308,0.161417,-0.72887
1480623828608720,-1.38741,0.160664,-0.72753
1480623828622759,-1.3821,0.160258,-0.726299
1480623828645819,-1.37858,0.160343,-0.725677
1480623828668881,-1.37818,0.161256,-0.725302
1480623828693445,-1.37726,0.161295,-0.725465
1480623828722522,-1.37647,0.160921,-0.725526
1480623828727034,-1.37675,0.161183,-0.72469
1480623828742075,-1.36408,0.159455,-0.719779
1480623828764637,-1.34865,0.14551,-0.716798
1480623828795219,-1.34765,0.153311,-0.716199
1480623828801734,-1.35521,0.148181,-0.715954
1480623828826298,-1.35494,0.15035,-0.715833
1480623828854875,-1.35403,0.140238,-0.715628
1480623828869416,-1.36153,0.152901,-0.717384
1480623828884955,-1.3549,0.154605,-0.71616
1480623828907014,-1.35509,0.155007,-0.718847
1480623828923057,-1.35556,0.155367,-0.71883
1480623828945616,-1.35667,0.156202,-0.719097
1480623828966672,-1.35674,0.156364,-0.719089
1480623828997756,-1.35594,0.156692,-0.719222
1480623829011792,-1.3579,0.157459,-0.718289
1480623829027333,-1.37026,0.164346,-0.721373
1480623829042374,-1.38679,0.170897,-0.724271
1480623829064434,-1.39115,0.167835,-0.724388
1480623829089499,-1.3905,0.167806,-0.725768
1480623829104539,-1.38961,0.168669,-0.726317
1480623829124091,-1.38929,0.169526,-0.727085
1480623829146651,-1.38971,0.169685,-0.727556
1480623829161690,-1.39002,0.169346,-0.727881
1480623829184252,-1.39008,0.169401,-0.727961
1480623829207814,-1.39009,0.169437,-0.727982
1480623829223355,-1.38872,0.169491,-0.72782
1480623829244912,-1.38742,0.16953,-0.727844
1480623829276496,-1.38605,0.169269,-0.727594
1480623829282014,-1.38536,0.168669,-0.727803
1480623829312091,-1.38513,0.168605,-0.727676
1480623829328635,-1.38433,0.168933,-0.727804
1480623829344678,-1.38347,0.169383,-0.727664
1480623829364230,-1.38207,0.169613,-0.72717
1480623829388294,-1.3815,0.170005,-0.727425
1480623829403334,-1.38219,0.170669,-0.728427
1480623829426395,-1.38522,0.171267,-0.730431
1480623829446950,-1.3906,0.172623,-0.732865
1480623829463495,-1.40306,0.175479,-0.734595
1480623829500092,-1.41184,0.175822,-0.732737
1480623829523655,-1.41587,0.174769,-0.729758
1480623829526161,-1.41671,0.175978,-0.727963
1480623829553734,-1.40925,0.17708,-0.729084
1480623829566768,-1.40051,0.177882,-0.730118
1480623829598355,-1.39834,0.177903,-0.730932
1480623829611889,-1.40182,0.177884,-0.73215
1480623829628433,-1.40714,0.177062,-0.730908
1480623829659014,-1.40712,0.175135,-0.729237
1480623829674054,-1.40496,0.176395,-0.728295
1480623829688093,-1.40427,0.179207,-0.729732
1480623829718674,-1.40145,0.18126,-0.731211
1480623829731710,-1.40092,0.182725,-0.731576
1480623829754268,-1.4029,0.182653,-0.732466
1480623829777329,-1.40401,0.181351,-0.732481
1480623829791867,-1.40324,0.179673,-0.73039
1480623829831477,-1.39956,0.177938,-0.728948
1480623829833980,-1.39636,0.17815,-0.729863
1480623829853031,-1.39619,0.180244,-0.730887
1480623829882109,-1.39702,0.181418,-0.730395
1480623829892636,-1.39645,0.181116,-0.729735
1480623829911687,-1.39466,0.180337,-0.729857
1480623829952795,-1.39299,0.180403,-0.730588
1480623829956806,-1.39373,0.179811,-0.730207
1480623829972348,-1.39338,0.178564,-0.728188
1480623829995910,-1.39001,0.176952,-0.725661
1480623830010951,-1.38252,0.17656,-0.726033
1480623830033010,-1.37745,0.178233,-0.727258
1480623830054566,-1.38226,0.178811,-0.727478
1480623830078130,-1.38791,0.177555,-0.726829
1480623830093669,-1.3882,0.177187,-0.726304
1480623830108209,-1.38452,0.17747,-0.726747
1480623830130774,-1.38296,0.176752,-0.727356
1480623830162355,-1.38191,0.175549,-0.728589
1480623830169873,-1.38216,0.174628,-0.728572
1480623830196946,-1.38083,0.173487,-0.728581
1480623830213491,-1.37904,0.173026,-0.72916
1480623830228027,-1.3784,0.172588,-0.729709
1480623830274652,-1.3785,0.171798,-0.730414
1480623830279163,-1.37967,0.171606,-0.731528
1480623830287687,-1.38031,0.171756,-0.732573
1480623830335314,-1.38068,0.171753,-0.733537
1480623830339326,-1.38118,0.171827,-0.734298
1480623830347850,-1.38162,0.172022,-0.73479
1480623830385948,-1.38125,0.172372,-0.735111
1480623830393468,-1.38124,0.172933,-0.735738
1480623830407505,-1.38153,0.172979,-0.736394
1480623830431070,-1.38161,0.173033,-0.736963
1480623830453127,-1.3814,0.173109,-0.737605
1480623830468167,-1.38061,0.173018,-0.738218
1480623830493233,-1.38046,0.173082,-0.738212
1480623830513288,-1.3809,0.173173,-0.737956
1480623830534844,-1.38139,0.173179,-0.7375
1480623830550888,-1.38196,0.173067,-0.736971
1480623830573950,-1.38247,0.172933,-0.736725
1480623830587486,-1.38247,0.172933,-0.736725
1480623830610546,-1.38284,0.172616,-0.736769
1480623830633106,-1.38284,0.172616,-0.736769
1480623830663186,-1.38253,0.173165,-0.736616
1480623830670706,-1.38302,0.173522,-0.736615
1480623830694769,-1.38346,0.173577,-0.736829
1480623830715829,-1.38338,0.173485,-0.736728
1480623830730866,-1.3834,0.173522,-0.736749
1480623830753425,-1.38324,0.173549,-0.736722
1480623830776487,-1.38367,0.173885,-0.737005
1480623830798548,-1.38482,0.174602,-0.737886
1480623830829127,-1.39248,0.176937,-0.738602
1480623830834142,-1.40607,0.177984,-0.736785
1480623830850684,-1.41649,0.177479,-0.733691
1480623830888786,-1.41966,0.178333,-0.73103
1480623830901827,-1.41309,0.178729,-0.731381
1480623830912348,-1.40466,0.177916,-0.7313
1480623830940925,-1.39799,0.177092,-0.730945
1480623830954460,-1.39528,0.176688,-0.732996
1480623830978524,-1.3989,0.176991,-0.734204
1480623830994567,-1.40109,0.176215,-0.734262
1480623831014623,-1.40433,0.177153,-0.735039
1480623831030162,-1.40627,0.17972,-0.737845
1480623831053224,-1.40601,0.182796,-0.739546
1480623831075785,-1.4054,0.185286,-0.7406
1480623831098845,-1.41036,0.185171,-0.740176
1480623831113383,-1.41118,0.181442,-0.737306
1480623831143464,-1.40431,0.177962,-0.732867
1480623831150984,-1.39544,0.178585,-0.732515
1480623831174046,-1.39445,0.181443,-0.735557
1480623831195602,-1.40076,0.182205,-0.736739
1480623831218162,-1.40557,0.182146,-0.737127
1480623831233202,-1.40623,0.182283,-0.738185
1480623831255763,-1.40494,0.181531,-0.739536
1480623831270301,-1.40316,0.179919,-0.73943
1480623831293863,-1.39867,0.178919,-0.738097
1480623831316424,-1.39304,0.177365,-0.737021
1480623831329960,-1.38715,0.175371,-0.736155
1480623831353523,-1.38062,0.17498,-0.736046
1480623831376584,-1.37723,0.175614,-0.736396
1480623831390119,-1.37897,0.175023,-0.737259
1480623831421703,-1.38439,0.1743,-0.737966
1480623831441757,-1.38893,0.174417,-0.738376
1480623831450281,-1.39066,0.174674,-0.738278
1480623831474344,-1.38987,0.17427,-0.737962
1480623831496402,-1.38619,0.174331,-0.737874
1480623831516957,-1.38114,0.174311,-0.737692
1480623831535508,-1.37835,0.174062,-0.737201
1480623831579625,-1.37777,0.173686,-0.736165
1480623831584137,-1.37657,0.173016,-0.735127
1480623831593160,-1.37486,0.171775,-0.734263
1480623831623241,-1.37432,0.17094,-0.733842
1480623831637277,-1.37424,0.170743,-0.732995
1480623831653320,-1.37303,0.170351,-0.73203
1480623831675879,-1.37081,0.169874,-0.731109
1480623831698440,-1.36974,0.169769,-0.730604
1480623831721000,-1.36974,0.169769,-0.730604
1480623831735538,-1.37068,0.169515,-0.730758
1480623831757096,-1.37245,0.170077,-0.730426
1480623831773139,-1.37371,0.170983,-0.729684
1480623831795700,-1.3737,0.171792,-0.729182
1480623831816755,-1.37331,0.172319,-0.728822
1480623831833800,-1.37345,0.172748,-0.728727
1480623831855858,-1.37386,0.173192,-0.728433
1480623831884436,-1.37379,0.1731,-0.728333
1480623831893459,-1.37363,0.173128,-0.728307
1480623831922034,-1.37365,0.173163,-0.728327
1480623831936573,-1.3729,0.173655,-0.727961
1480623831953117,-1.37292,0.17369,-0.727982
1480623831976179,-1.37326,0.173972,-0.727693
1480623831996733,-1.37368,0.174204,-0.727227
1480623832013278,-1.37352,0.174232,-0.7272
1480623832036339,-1.37368,0.174204,-0.727227
1480623832058398,-1.37368,0.174204,-0.727227
1480623832073939,-1.37325,0.174464,-0.727104
1480623832096499,-1.37352,0.174795,-0.726994
1480623832125580,-1.37352,0.174795,-0.726994
1480623832133096,-1.37338,0.174858,-0.726988
1480623832163177,-1.37338,0.174858,-0.726988
1480623832185737,-1.37338,0.174858,-0.726988
1480623832192755,-1.37322,0.174886,-0.726961
1480623832215816,-1.37321,0.174956,-0.726856
1480623832238377,-1.37373,0.174683,-0.726822
1480623832252414,-1.37373,0.174683,-0.726822
1480623832275976,-1.37381,0.174774,-0.726922
1480623832298537,-1.37381,0.174774,-0.726922
1480623832312574,-1.37381,0.174774,-0.726922
1480623832336638,-1.37381,0.174774,-0.726922
1480623832359197,-1.37381,0.174774,-0.726922
1480623832380759,-1.37445,0.175,-0.727029
1480623832409331,-1.37516,0.175001,-0.727149
1480623832418355,-1.37559,0.175269,-0.727534
1480623832440915,-1.37624,0.175424,-0.727748
1480623832455454,-1.37681,0.175664,-0.727672
1480623832478515,-1.37681,0.175664,-0.727672
1480623832499571,-1.37687,0.175826,-0.727667
1480623832515614,-1.37687,0.175826,-0.727667
1480623832545693,-1.37687,0.175826,-0.727667
1480623832559230,-1.37687,0.175826,-0.727667
1480623832575775,-1.37687,0.175826,-0.727667
1480623832604349,-1.37687,0.175826,-0.727667
1480623832619392,-1.37629,0.175937,-0.727706
1480623832635935,-1.37564,0.176099,-0.727581
1480623832681557,-1.37498,0.176611,-0.72742
1480623832688073,-1.37467,0.176808,-0.726814
1480623832696094,-1.37467,0.176808,-0.726814
1480623832718654,-1.37467,0.176808,-0.726814
1480623832740713,-1.37518,0.177027,-0.727022
1480623832755752,-1.37534,0.176366,-0.727359
1480623832778312,-1.37534,0.176366,-0.727359
1480623832806889,-1.37569,0.176788,-0.727351
1480623832830954,-1.37619,0.176867,-0.72728
1480623832839476,-1.37604,0.176894,-0.727253
1480623832859528,-1.37604,0.176894,-0.727253
1480623832883092,-1.37604,0.176894,-0.727253
1480623832898132,-1.37619,0.176867,-0.72728
1480623832919187,-1.37604,0.176894,-0.727253
1480623832935732,-1.37545,0.177322,-0.727381
1480623832964310,-1.37616,0.177886,-0.727297
1480623832980351,-1.3781,0.178389,-0.727473
1480623832997398,-1.37909,0.178473,-0.727782
1480623833018451,-1.38039,0.178783,-0.728214
1480623833048532,-1.38268,0.179359,-0.727937
1480623833056052,-1.38483,0.179542,-0.727287
1480623833084128,-1.38742,0.179503,-0.726784
1480623833108190,-1.38966,0.179185,-0.726078
1480623833115209,-1.39119,0.179353,-0.725982
1480623833138772,-1.39385,0.179476,-0.725825
1480623833160830,-1.3929,0.179429,-0.723912
1480623833181886,-1.38617,0.177171,-0.72367
1480623833198931,-1.38092,0.176587,-0.725275
1480623833228008,-1.37667,0.17723,-0.725129
1480623833243049,-1.37579,0.17775,-0.724394
1480623833274132,-1.37589,0.178883,-0.724227
1480623833281654,-1.37841,0.179102,-0.724068
1480623833295187,-1.38226,0.177631,-0.724181
1480623833324265,-1.38542,0.178251,-0.724781
1480623833340809,-1.3866,0.180576,-0.726031
1480623833355350,-1.38628,0.181964,-0.726578
1480623833385929,-1.38289,0.181356,-0.725395
1480623833400970,-1.37851,0.180974,-0.724341
1480623833416009,-1.37336,0.180493,-0.725223
1480623833451604,-1.3723,0.182094,-0.726157
1480623833460628,-1.37501,0.183358,-0.727443
1480623833481684,-1.3774,0.183421,-0.729259
1480623833504248,-1.37865,0.183038,-0.730754
1480623833520788,-1.37671,0.183382,-0.731758
1480623833550868,-1.37463,0.184143,-0.732721
1480623833564405,-1.37613,0.184232,-0.733068
1480623833581452,-1.37817,0.183166,-0.733152
