timestamp,roll,pitch,yaw
1480621915061979,-1.1877,0.0299788,-0.932853
1480621915078022,-1.1877,0.0299788,-0.932853
1480621915100585,-1.1877,0.0299788,-0.932853
1480621915128656,-1.1877,0.0299788,-0.932853
1480621915137681,-1.1877,0.0299788,-0.932853
1480621915160241,-1.1877,0.0299788,-0.932853
1480621915183305,-1.1877,0.0299788,-0.932853
1480621915197841,-1.1877,0.0299788,-0.932853
1480621915243462,-1.1877,0.0299788,-0.932853
1480621915245969,-1.1877,0.0299788,-0.932853
1480621915258001,-1.18755,0.0300234,-0.932833
1480621915295099,-1.18762,0.029888,-0.932765
1480621915302621,-1.18762,0.029888,-0.932765
1480621915317161,-1.1877,0.0299788,-0.932853
1480621915347739,-1.1877,0.0299788,-0.932853
1480621915363782,-1.18755,0.0300234,-0.932833
1480621915377319,-1.18747,0.0299326,-0.932746
1480621915406396,-1.18762,0.029888,-0.932765
1480621915422939,-1.18762,0.029888,-0.932765
1480621915436977,-1.18762,0.029888,-0.932765
1480621915460539,-1.18762,0.029888,-0.932765
1480621915483103,-1.18762,0.029888,-0.932765
1480621915503656,-1.18762,0.029888,-0.932765
1480621915520198,-1.18762,0.029888,-0.932765
1480621915542759,-1.18762,0.029888,-0.932765
1480621915571336,-1.18762,0.029888,-0.932765
1480621915580359,-1.18762,0.029888,-0.932765
1480621915602919,-1.18762,0.029888,-0.932765
1480621915623974,-1.18762,0.029888,-0.932765
1480621915646547,-1.18762,0.029888,-0.932765
1480621915663580,-1.18762,0.029888,-0.932765
1480621915685638,-1.18762,0.029888,-0.932765
1480621915700180,-1.18762,0.029888,-0.932765
1480621915722738,-1.18762,0.029888,-0.932765
1480621915743793,-1.18763,0.0298276,-0.932891
1480621915760839,-1.18755,0.0297368,-0.932803
1480621915783401,-1.18755,0.0297368,-0.932803
1480621915803954,-1.18755,0.0297368,-0.932803
1480621915851580,-1.18763,0.0298276,-0.932891
1480621915857094,-1.18763,0.0298276,-0.932891
1480621915871132,-1.18755,0.0297368,-0.932803
1480621915887676,-1.18741,0.0297814,-0.932784
1480621915902716,-1.18736,0.0297226,-0.932723
1480621915923772,-1.18741,0.0297814,-0.932784
1480621915963377,-1.18741,0.0297814,-0.932784
1480621915965884,-1.18741,0.0297814,-0.932784
1480621915983936,-1.18741,0.0297814,-0.932784
1480621916000477,-1.18734,0.0296302,-0.932823
1480621916023036,-1.18734,0.0296302,-0.932823
1480621916060636,-1.18737,0.0296622,-0.932849
1480621916064145,-1.18737,0.0296622,-0.932849
1480621916082695,-1.18737,0.0296622,-0.932849
1480621916103751,-1.18734,0.0296302,-0.932823
1480621916127814,-1.18729,0.0295714,-0.932762
1480621916148871,-1.1873,0.029511,-0.932888
1480621916165415,-1.1873,0.029511,-0.932888
1480621916180956,-1.1873,0.029511,-0.932888
1480621916203015,-1.18729,0.0295714,-0.932762
1480621916233600,-1.18729,0.0295714,-0.932762
1480621916246130,-1.18723,0.0294201,-0.9328
1480621916263676,-1.18723,0.0294201,-0.9328
1480621916292754,-1.18723,0.0294201,-0.9328
1480621916313809,-1.18723,0.0294201,-0.9328
1480621916353917,-1.18708,0.0294648,-0.932781
1480621916360433,-1.18708,0.0294648,-0.932781
1480621916363442,-1.18723,0.0294201,-0.9328
1480621916382999,-1.18723,0.0294201,-0.9328
1480621916405052,-1.18701,0.0293739,-0.932694
1480621916427614,-1.18715,0.0293293,-0.932713
1480621916442652,-1.18723,0.0294201,-0.9328
1480621916465213,-1.18723,0.0294201,-0.9328
1480621916479751,-1.18723,0.0294201,-0.9328
1480621916510334,-1.18701,0.0293739,-0.932694
1480621916525372,-1.18702,0.0293136,-0.932819
1480621916539410,-1.18702,0.0293136,-0.932819
1480621916568988,-1.18702,0.0293136,-0.932819
1480621916585031,-1.18701,0.0293739,-0.932694
1480621916623132,-1.18702,0.0293136,-0.932819
1480621916625640,-1.18702,0.0293136,-0.932819
1480621916645191,-1.18702,0.0293136,-0.932819
1480621916683294,-1.18702,0.0293136,-0.932819
1480621916685799,-1.18702,0.0293136,-0.932819
1480621916705353,-1.18702,0.0293136,-0.932819
1480621916726908,-1.18702,0.0293136,-0.932819
1480621916742953,-1.18702,0.0293136,-0.932819
1480621916796593,-1.18702,0.0293136,-0.932819
1480621916803112,-1.18702,0.0293136,-0.932819
1480621916805618,-1.18702,0.0293136,-0.932819
1480621916848232,-1.18704,0.0293457,-0.932846
1480621916856754,-1.18704,0.0293457,-0.932846
1480621916863272,-1.18704,0.0293457,-0.932846
1480621916885833,-1.18704,0.0293457,-0.932846
1480621916906385,-1.18696,0.0292548,-0.932759
1480621916923431,-1.18694,0.0292228,-0.932732
1480621916946493,-1.18694,0.0292228,-0.932732
1480621916966546,-1.1873,0.029511,-0.932888
1480621916982591,-1.1873,0.029511,-0.932888
1480621917012669,-1.1873,0.029511,-0.932888
1480621917026205,-1.1873,0.029511,-0.932888
1480621917042750,-1.1873,0.029511,-0.932888
1480621917066815,-1.1873,0.029511,-0.932888
1480621917087368,-1.1873,0.029511,-0.932888
1480621917108925,-1.1873,0.029511,-0.932888
1480621917125970,-1.1873,0.029511,-0.932888
1480621917148029,-1.18723,0.0294201,-0.9328
1480621917163572,-1.18723,0.0294201,-0.9328
1480621917185128,-1.18723,0.0294201,-0.9328
1480621917207688,-1.18723,0.0294201,-0.9328
1480621917222228,-1.18723,0.0294201,-0.9328
1480621917247293,-1.18708,0.0294648,-0.932781
1480621917267848,-1.18708,0.0294648,-0.932781
1480621917290408,-1.18708,0.0294648,-0.932781
1480621917320488,-1.18708,0.0294648,-0.932781
1480621917327509,-1.18708,0.0294648,-0.932781
1480621917350568,-1.18708,0.0294648,-0.932781
1480621917371123,-1.18708,0.0294648,-0.932781
1480621917404211,-1.18708,0.0294648,-0.932781
1480621917408744,-1.18702,0.0293136,-0.932819
1480621917425267,-1.18704,0.0293457,-0.932846
1480621917456349,-1.18704,0.0293457,-0.932846
1480621917463869,-1.18704,0.0293457,-0.932846
1480621917485426,-1.18689,0.0293903,-0.932827
1480621917516009,-1.18689,0.0293903,-0.932827
1480621917522024,-1.18689,0.0293903,-0.932827
1480621917545086,-1.18689,0.0293903,-0.932827
1480621917569150,-1.18689,0.0293903,-0.932827
1480621917588701,-1.18689,0.0293903,-0.932827
1480621917605245,-1.18689,0.0293903,-0.932827
1480621917627805,-1.18689,0.0293903,-0.932827
1480621917648865,-1.18689,0.0293903,-0.932827
1480621917665405,-1.18689,0.0293903,-0.932827
1480621917687965,-1.18682,0.0292994,-0.93274
1480621917710024,-1.18689,0.0293903,-0.932827
1480621917732584,-1.18689,0.0293903,-0.932827
1480621917747624,-1.18689,0.0293903,-0.932827
1480621917768681,-1.18689,0.0293903,-0.932827
1480621917792744,-1.18689,0.0293903,-0.932827
1480621917815304,-1.18689,0.0293903,-0.932827
1480621917828840,-1.18689,0.0293903,-0.932827
1480621917845885,-1.18689,0.0293903,-0.932827
1480621917873960,-1.18689,0.0293903,-0.932827
1480621917896520,-1.18689,0.0293903,-0.932827
1480621917905546,-1.18682,0.0292994,-0.93274
1480621917927603,-1.18675,0.0294349,-0.932808
1480621917956178,-1.18675,0.0294349,-0.932808
1480621917965203,-1.18689,0.0293903,-0.932827
1480621917987763,-1.18689,0.0293903,-0.932827
1480621918017842,-1.18689,0.0293903,-0.932827
1480621918025864,-1.18689,0.0293903,-0.932827
1480621918047922,-1.18689,0.0293903,-0.932827
1480621918070984,-1.18689,0.0293903,-0.932827
1480621918091538,-1.18689,0.0293903,-0.932827
1480621918107583,-1.18689,0.0293903,-0.932827
1480621918130141,-1.18689,0.0293903,-0.932827
1480621918145183,-1.18689,0.0293903,-0.932827
1480621918183284,-1.18689,0.0293903,-0.932827
1480621918190808,-1.18689,0.0293903,-0.932827
1480621918204339,-1.18696,0.0295415,-0.932789
1480621918235423,-1.18696,0.0295415,-0.932789
1480621918250963,-1.18696,0.0295415,-0.932789
1480621918264501,-1.18696,0.0295415,-0.932789
1480621918296586,-1.18696,0.0295415,-0.932789
1480621918310120,-1.18696,0.0295415,-0.932789
1480621918325161,-1.18696,0.0295415,-0.932789
1480621918349229,-1.18696,0.0295415,-0.932789
1480621918376298,-1.18696,0.0295415,-0.932789
1480621918384822,-1.18696,0.0295415,-0.932789
1480621918407881,-1.18696,0.0295415,-0.932789
1480621918430440,-1.18696,0.0295415,-0.932789
1480621918444479,-1.1871,0.0294968,-0.932808
1480621918467539,-1.1871,0.0294968,-0.932808
1480621918491101,-1.18708,0.0294648,-0.932781
1480621918512660,-1.18708,0.0294648,-0.932781
1480621918527699,-1.18696,0.0295415,-0.932789
1480621918550761,-1.18696,0.0295415,-0.932789
1480621918571320,-1.18696,0.0295415,-0.932789
1480621918587860,-1.1871,0.0294968,-0.932808
1480621918611423,-1.1871,0.0294968,-0.932808
1480621918631476,-1.1871,0.0294968,-0.932808
1480621918648522,-1.18696,0.0295415,-0.932789
1480621918670579,-1.18696,0.0295415,-0.932789
1480621918691134,-1.18696,0.0295415,-0.932789
1480621918707679,-1.18696,0.0295415,-0.932789
1480621918737758,-1.18696,0.0295415,-0.932789
1480621918751294,-1.18703,0.0296323,-0.932876
1480621918767838,-1.18696,0.0295415,-0.932789
1480621918790899,-1.18696,0.0295415,-0.932789
1480621918811454,-1.18696,0.0295415,-0.932789
1480621918827998,-1.18696,0.0295415,-0.932789
1480621918850057,-1.18718,0.0295877,-0.932895
1480621918871114,-1.18716,0.0295557,-0.932868
1480621918901193,-1.18716,0.0295557,-0.932868
1480621918910216,-1.18716,0.0295557,-0.932868
1480621918931274,-1.18716,0.0295557,-0.932868
1480621918948318,-1.18716,0.0295557,-0.932868
1480621918971381,-1.18716,0.0295557,-0.932868
1480621918992937,-1.18716,0.0295557,-0.932868
1480621919013993,-1.18716,0.0295557,-0.932868
1480621919030036,-1.18716,0.0295557,-0.932868
1480621919052596,-1.18708,0.0294648,-0.932781
1480621919067136,-1.18708,0.0294648,-0.932781
1480621919090196,-1.18708,0.0294648,-0.932781
1480621919129301,-1.18716,0.0295557,-0.932868
1480621919133812,-1.18716,0.0295557,-0.932868
1480621919150356,-1.18716,0.0295557,-0.932868
1480621919180436,-1.18716,0.0295557,-0.932868
1480621919194974,-1.18716,0.0295557,-0.932868
1480621919210516,-1.18716,0.0295557,-0.932868
1480621919233076,-1.18716,0.0295557,-0.932868
1480621919254632,-1.18715,0.029616,-0.932743
1480621919271177,-1.18729,0.0295714,-0.932762
1480621919300255,-1.1873,0.029511,-0.932888
1480621919307274,-1.1873,0.029511,-0.932888
1480621919330334,-1.18729,0.0295714,-0.932762
1480621919352895,-1.18737,0.0296622,-0.932849
1480621919366932,-1.18737,0.0296622,-0.932849
1480621919396009,-1.18737,0.0296622,-0.932849
1480621919413556,-1.18737,0.0296622,-0.932849
1480621919427097,-1.18737,0.0296622,-0.932849
1480621919458174,-1.18737,0.0296622,-0.932849
1480621919472713,-1.18737,0.0296622,-0.932849
1480621919493770,-1.18737,0.0296622,-0.932849
1480621919516330,-1.18737,0.0296622,-0.932849
1480621919532874,-1.18737,0.0296622,-0.932849
1480621919570974,-1.18737,0.0296622,-0.932849
1480621919573481,-1.18737,0.0296622,-0.932849
1480621919593033,-1.18774,0.0298113,-0.932758
1480621919613588,-1.18774,0.0298113,-0.932758
1480621919630132,-1.18774,0.0298113,-0.932758
1480621919652692,-1.18782,0.0299021,-0.932845
1480621919675754,-1.18782,0.0299021,-0.932845
1480621919690293,-1.18774,0.0298113,-0.932758
1480621919712853,-1.18774,0.0298113,-0.932758
1480621919735913,-1.18774,0.0298113,-0.932758
1480621919756468,-1.18782,0.0299021,-0.932845
1480621919772511,-1.18782,0.0299021,-0.932845
1480621919793567,-1.18782,0.0299021,-0.932845
1480621919810111,-1.18774,0.0298113,-0.932758
1480621919848714,-1.18774,0.0298113,-0.932758
1480621919853727,-1.18782,0.0299021,-0.932845
1480621919870271,-1.18782,0.0299021,-0.932845
1480621919893332,-1.18782,0.0299021,-0.932845
1480621919914394,-1.18782,0.0299021,-0.932845
1480621919930431,-1.18782,0.0299021,-0.932845
1480621919960010,-1.18782,0.0299021,-0.932845
1480621919976054,-1.18782,0.0299021,-0.932845
1480621919990090,-1.18782,0.0299021,-0.932845
1480621920013653,-1.18782,0.0299021,-0.932845
1480621920035210,-1.18782,0.0299021,-0.932845
1480621920050253,-1.18782,0.0299021,-0.932845
1480621920073814,-1.18782,0.0299021,-0.932845
1480621920095370,-1.18782,0.0299021,-0.932845
1480621920109408,-1.18782,0.0299021,-0.932845
1480621920132971,-1.18782,0.0299021,-0.932845
1480621920156032,-1.18782,0.0299021,-0.932845
1480621920169568,-1.18782,0.0299021,-0.932845
1480621920192629,-1.18774,0.0298113,-0.932758
1480621920215189,-1.18774,0.0298113,-0.932758
1480621920239253,-1.18774,0.0298113,-0.932758
1480621920252789,-1.18774,0.0298113,-0.932758
1480621920275851,-1.18774,0.0298113,-0.932758
1480621920289887,-1.18762,0.029888,-0.932765
1480621920312948,-1.18778,0.029783,-0.93291
1480621920335511,-1.18778,0.029783,-0.93291
1480621920356064,-1.18774,0.0298113,-0.932758
1480621920373109,-1.18774,0.0298113,-0.932758
1480621920401184,-1.18774,0.0298113,-0.932758
1480621920416224,-1.18774,0.0298113,-0.932758
1480621920432769,-1.18775,0.029751,-0.932883
1480621920455329,-1.18741,0.0294947,-0.932754
1480621920476385,-1.18741,0.0294947,-0.932754
1480621920492928,-1.18727,0.0295393,-0.932735
1480621920515989,-1.18727,0.0295393,-0.932735
1480621920544064,-1.18729,0.0295714,-0.932762
1480621920554091,-1.1873,0.029511,-0.932888
1480621920575147,-1.18723,0.0294201,-0.9328
1480621920596202,-1.18723,0.0294201,-0.9328
1480621920613248,-1.1873,0.029511,-0.932888
1480621920635309,-1.18729,0.0295714,-0.932762
1480621920656864,-1.18729,0.0295714,-0.932762
1480621920673408,-1.1873,0.029511,-0.932888
1480621920694965,-1.18723,0.0294201,-0.9328
1480621920716022,-1.18723,0.0294201,-0.9328
1480621920733071,-1.18723,0.0294201,-0.9328
1480621920755125,-1.1873,0.029511,-0.932888
1480621920776181,-1.18723,0.0294201,-0.9328
1480621920792725,-1.18723,0.0294201,-0.9328
1480621920815287,-1.18723,0.0294201,-0.9328
1480621920843861,-1.18723,0.0294201,-0.9328
1480621920851883,-1.18723,0.0294201,-0.9328
1480621920875445,-1.18723,0.0294201,-0.9328
1480621920898005,-1.18723,0.0294201,-0.9328
1480621920913549,-1.18723,0.0294201,-0.9328
1480621920942624,-1.18723,0.0294201,-0.9328
1480621920958166,-1.18715,0.0293293,-0.932713
1480621920972711,-1.18715,0.0293293,-0.932713
1480621920995264,-1.18716,0.029269,-0.932839
1480621921017827,-1.18716,0.029269,-0.932839
1480621921031862,-1.18716,0.029269,-0.932839
1480621921068962,-1.18716,0.029269,-0.932839
1480621921077482,-1.18709,0.0291781,-0.932751
1480621921092022,-1.18709,0.0291781,-0.932751
1480621921130624,-1.18709,0.0291781,-0.932751
1480621921145163,-1.18716,0.029269,-0.932839
1480621921152181,-1.18709,0.0291781,-0.932751
1480621921183766,-1.18709,0.0291781,-0.932751
1480621921185270,-1.1871,0.0291178,-0.932877
1480621921203318,-1.18702,0.0290269,-0.93279
1480621921219360,-1.1871,0.0291178,-0.932877
1480621921240416,-1.1871,0.0291178,-0.932877
1480621921288043,-1.1871,0.0291178,-0.932877
1480621921290549,-1.18702,0.0290269,-0.93279
1480621921302082,-1.18702,0.0290269,-0.93279
1480621921326144,-1.18688,0.0290716,-0.93277
1480621921347201,-1.18688,0.0290716,-0.93277
1480621921360736,-1.18688,0.0290716,-0.93277
1480621921383299,-1.18688,0.0290716,-0.93277
1480621921401346,-1.18688,0.0290716,-0.93277
1480621921421906,-1.1869,0.0291036,-0.932797
1480621921446464,-1.1869,0.0291036,-0.932797
1480621921462506,-1.18682,0.0290127,-0.93271
1480621921480556,-1.18682,0.0290127,-0.93271
1480621921513643,-1.1869,0.0291036,-0.932797
1480621921521163,-1.1869,0.0291036,-0.932797
1480621921540715,-1.1869,0.0291036,-0.932797
1480621921566286,-1.18668,0.0290573,-0.932691
1480621921580822,-1.18668,0.0290573,-0.932691
1480621921609398,-1.18668,0.0290573,-0.932691
1480621921625941,-1.18675,0.0291482,-0.932778
1480621921645493,-1.18675,0.0291482,-0.932778
1480621921660533,-1.18675,0.0291482,-0.932778
1480621921683094,-1.18668,0.0290573,-0.932691
1480621921705654,-1.18669,0.028997,-0.932816
1480621921720695,-1.18668,0.0290573,-0.932691
1480621921743254,-1.18668,0.0290573,-0.932691
1480621921774338,-1.18675,0.0291482,-0.932778
1480621921787872,-1.18668,0.0290573,-0.932691
1480621921802913,-1.18668,0.0290573,-0.932691
1480621921825473,-1.18669,0.028997,-0.932816
1480621921848035,-1.18669,0.028997,-0.932816
1480621921863073,-1.18668,0.0290573,-0.932691
1480621921904684,-1.18675,0.0291482,-0.932778
1480621921909696,-1.18675,0.0291482,-0.932778
1480621921923233,-1.18668,0.0290573,-0.932691
1480621921963342,-1.18668,0.0290573,-0.932691
1480621921965847,-1.18669,0.028997,-0.932816
1480621921983397,-1.18668,0.0290573,-0.932691
1480621922008460,-1.18675,0.0291482,-0.932778
1480621922020491,-1.18675,0.0291482,-0.932778
1480621922068118,-1.18675,0.0291482,-0.932778
1480621922070625,-1.18675,0.0291482,-0.932778
1480621922080654,-1.18668,0.0290573,-0.932691
1480621922122262,-1.18668,0.0290573,-0.932691
1480621922128779,-1.18675,0.0291482,-0.932778
1480621922142817,-1.18675,0.0291482,-0.932778
1480621922163371,-1.18682,0.0292994,-0.93274
1480621922185935,-1.18682,0.0292994,-0.93274
1480621922200472,-1.18682,0.0292994,-0.93274
1480621922230551,-1.18682,0.0292994,-0.93274
1480621922254615,-1.18682,0.0292994,-0.93274
1480621922260631,-1.18682,0.0292994,-0.93274
1480621922290710,-1.18682,0.0292994,-0.93274
1480621922307255,-1.18682,0.0292994,-0.93274
1480621922345355,-1.18682,0.0292994,-0.93274
1480621922350871,-1.18682,0.0292994,-0.93274
1480621922366934,-1.18682,0.0292994,-0.93274
1480621922400001,-1.18689,0.0293903,-0.932827
1480621922404513,-1.18704,0.0293457,-0.932846
1480621922425569,-1.18689,0.0293903,-0.932827
1480621922442113,-1.18689,0.0293903,-0.932827
1480621922463169,-1.18689,0.0293903,-0.932827
1480621922485730,-1.18689,0.0293903,-0.932827
1480621922509794,-1.18689,0.0293903,-0.932827
1480621922530849,-1.18688,0.0294506,-0.932701
1480621922545889,-1.18689,0.0293903,-0.932827
1480621922567948,-1.18689,0.0293903,-0.932827
1480621922582989,-1.18689,0.0293903,-0.932827
1480621922609059,-1.18689,0.0293903,-0.932827
1480621922623596,-1.18689,0.0293903,-0.932827
1480621922644653,-1.18688,0.0294506,-0.932701
1480621922665707,-1.18689,0.0293903,-0.932827
1480621922682755,-1.18689,0.0293903,-0.932827
1480621922710326,-1.18689,0.0293903,-0.932827
1480621922732887,-1.18689,0.0293903,-0.932827
1480621922743415,-1.18688,0.0294506,-0.932701
1480621922762967,-1.18696,0.0295415,-0.932789
1480621922793046,-1.1871,0.0294968,-0.932808
1480621922811095,-1.1871,0.0294968,-0.932808
1480621922823126,-1.1871,0.0294968,-0.932808
1480621922847191,-1.18696,0.0295415,-0.932789
1480621922863736,-1.1871,0.0294968,-0.932808
1480621922890807,-1.1871,0.0294968,-0.932808
1480621922905846,-1.1871,0.0294968,-0.932808
1480621922923393,-1.1871,0.0294968,-0.932808
1480621922945954,-1.1871,0.0294968,-0.932808
1480621922965505,-1.1871,0.0294968,-0.932808
1480621922991575,-1.18748,0.0296459,-0.932716
1480621923004609,-1.18762,0.0296013,-0.932735
1480621923025665,-1.18762,0.0296013,-0.932735
1480621923048227,-1.18762,0.0296013,-0.932735
1480621923063265,-1.18748,0.0296459,-0.932716
1480621923087329,-1.18748,0.0296459,-0.932716
1480621923103372,-1.18748,0.0296459,-0.932716
1480621923122924,-1.18762,0.0296013,-0.932735
1480621923161026,-1.18762,0.0296013,-0.932735
1480621923178572,-1.18762,0.0296013,-0.932735
1480621923183085,-1.18748,0.0296459,-0.932716
1480621923214672,-1.18748,0.0296459,-0.932716
1480621923231213,-1.18748,0.0296459,-0.932716
1480621923243247,-1.18748,0.0296459,-0.932716
1480621923265806,-1.18755,0.0297368,-0.932803
1480621923287863,-1.18755,0.0297368,-0.932803
1480621923302903,-1.18754,0.0297971,-0.932678
1480621923328471,-1.18755,0.0297368,-0.932803
1480621923348024,-1.18755,0.0297368,-0.932803
1480621923366071,-1.1877,0.0296922,-0.932823
1480621923393143,-1.1877,0.0296922,-0.932823
1480621923408183,-1.18769,0.0297525,-0.932697
1480621923424731,-1.18769,0.0297525,-0.932697
1480621923447287,-1.18754,0.0297971,-0.932678
1480621923476364,-1.18769,0.0297525,-0.932697
1480621923484887,-1.18769,0.0297525,-0.932697
1480621923509455,-1.18769,0.0297525,-0.932697
1480621923528001,-1.18777,0.0298434,-0.932784
1480621923544547,-1.18777,0.0298434,-0.932784
1480621923567107,-1.18777,0.0298434,-0.932784
1480621923591170,-1.18762,0.029888,-0.932765
1480621923622253,-1.18769,0.0297525,-0.932697
1480621923627266,-1.18777,0.0298434,-0.932784
1480621923655842,-1.18777,0.0298434,-0.932784
1480621923673390,-1.18777,0.0298434,-0.932784
1480621923685421,-1.18777,0.0298434,-0.932784
1480621923725026,-1.18762,0.029888,-0.932765
1480621923728034,-1.18777,0.0298434,-0.932784
1480621923745581,-1.18777,0.0298434,-0.932784
1480621923768141,-1.18777,0.0298434,-0.932784
1480621923792204,-1.18774,0.0298113,-0.932758
1480621923805741,-1.18774,0.0298113,-0.932758
1480621923845345,-1.18777,0.0298434,-0.932784
1480621923847853,-1.18777,0.0298434,-0.932784
1480621923865401,-1.18777,0.0298434,-0.932784
1480621923895479,-1.18781,0.0299625,-0.932719
1480621923906008,-1.18781,0.0299625,-0.932719
1480621923942606,-1.18788,0.0300533,-0.932807
1480621923955639,-1.18788,0.0300533,-0.932807
1480621923966167,-1.18788,0.0300533,-0.932807
1480621924010284,-1.18788,0.0300533,-0.932807
1480621924012792,-1.18803,0.0300088,-0.932826
1480621924034349,-1.18802,0.0300691,-0.9327
1480621924047886,-1.18802,0.0300691,-0.9327
1480621924067938,-1.18809,0.03016,-0.932788
1480621924098520,-1.18802,0.0300691,-0.9327
1480621924108546,-1.18814,0.0299925,-0.932693
1480621924128098,-1.18822,0.0300833,-0.93278
1480621924146147,-1.18822,0.0300833,-0.93278
1480621924173219,-1.18822,0.0300833,-0.93278
1480621924195779,-1.18822,0.0300833,-0.93278
1480621924219341,-1.18822,0.0300833,-0.93278
1480621924233379,-1.18822,0.0300833,-0.93278
1480621924248418,-1.18822,0.0300833,-0.93278
1480621924265966,-1.18822,0.0300833,-0.93278
1480621924288525,-1.18828,0.0302345,-0.932742
1480621924309581,-1.18791,0.0300854,-0.932833
1480621924326125,-1.18783,0.0299946,-0.932746
1480621924347181,-1.18783,0.0299946,-0.932746
1480621924368237,-1.18783,0.0299946,-0.932746
1480621924386287,-1.18789,0.0301458,-0.932708
1480621924406840,-1.18789,0.0301458,-0.932708
1480621924435416,-1.18787,0.0301137,-0.932681
1480621924458978,-1.18728,0.0300108,-0.932567
1480621924473016,-1.18728,0.0300108,-0.932567
1480621924498584,-1.18728,0.0300108,-0.932567
1480621924506104,-1.18728,0.0300108,-0.932567
1480621924527160,-1.18743,0.0299662,-0.932586
1480621924557240,-1.1871,0.0299362,-0.932613
1480621924566264,-1.1871,0.0299362,-0.932613
1480621924586819,-1.1871,0.0299362,-0.932613
1480621924610883,-1.18702,0.0298453,-0.932525
1480621924625923,-1.18702,0.0298453,-0.932525
1480621924646982,-1.18676,0.0296799,-0.932484
1480621924671043,-1.18637,0.0295911,-0.93245
1480621924686083,-1.18637,0.0295911,-0.93245
1480621924731704,-1.18622,0.0296357,-0.932431
1480621924735714,-1.18624,0.0295754,-0.932556
1480621924746244,-1.18616,0.0294845,-0.932469
1480621924768301,-1.18611,0.0294256,-0.932408
1480621924788354,-1.18611,0.0294256,-0.932408
1480621924819438,-1.1857,0.0293048,-0.932348
1480621924835985,-1.18562,0.0292139,-0.932261
1480621924848017,-1.18563,0.0291536,-0.932386
1480621924872078,-1.18549,0.0291982,-0.932367
1480621924888622,-1.18563,0.0291536,-0.932386
1480621924908174,-1.18563,0.0291536,-0.932386
1480621924930739,-1.18563,0.0291536,-0.932386
1480621924948782,-1.18563,0.0291536,-0.932386
1480621924975855,-1.18563,0.0291536,-0.932386
1480621925008440,-1.18556,0.0290626,-0.932299
1480621925010949,-1.18556,0.0290626,-0.932299
1480621925060077,-1.18556,0.0290626,-0.932299
1480621925063588,-1.18541,0.0291073,-0.93228
1480621925068601,-1.18543,0.0291393,-0.932307
1480621925088152,-1.18545,0.029079,-0.932433
1480621925118232,-1.18545,0.029079,-0.932433
1480621925128760,-1.18537,0.0289881,-0.932345
1480621925148314,-1.18537,0.0289881,-0.932345
1480621925171876,-1.18537,0.0289881,-0.932345
1480621925192931,-1.18537,0.0289881,-0.932345
1480621925207971,-1.18537,0.0289881,-0.932345
1480621925238051,-1.18529,0.0288971,-0.932258
1480621925253091,-1.18531,0.0288369,-0.932384
1480621925284677,-1.18531,0.0288369,-0.932384
1480621925290692,-1.18529,0.0288971,-0.932258
1480621925309242,-1.18531,0.0288369,-0.932384
1480621925331302,-1.18531,0.0288369,-0.932384
1480621925350351,-1.18516,0.0288815,-0.932365
1480621925368398,-1.18508,0.0287906,-0.932278
1480621925389454,-1.18508,0.0287906,-0.932278
1480621925410511,-1.18508,0.0287906,-0.932278
1480621925428558,-1.18511,0.0288225,-0.932304
1480621925449614,-1.18511,0.0288225,-0.932304
1480621925472675,-1.1851,0.0287303,-0.932404
1480621925501260,-1.18502,0.0286394,-0.932316
1480621925509774,-1.18504,0.0286713,-0.932343
1480621925530836,-1.18504,0.0286713,-0.932343
1480621925555897,-1.18504,0.0286713,-0.932343
1480621925569433,-1.18504,0.0286713,-0.932343
1480621925591994,-1.18482,0.0286251,-0.932237
1480621925608538,-1.18483,0.0285648,-0.932363
1480621925631099,-1.18483,0.0285648,-0.932363
1480621925667697,-1.18483,0.0285648,-0.932363
1480621925670201,-1.18483,0.0285648,-0.932363
1480621925690756,-1.18476,0.0284739,-0.932275
1480621925710809,-1.18476,0.0284739,-0.932275
1480621925728858,-1.18476,0.0284739,-0.932275
1480621925751417,-1.18477,0.0284137,-0.932401
1480621925781498,-1.18477,0.0284137,-0.932401
1480621925788523,-1.18469,0.0283227,-0.932314
1480621925832633,-1.18469,0.0283227,-0.932314
1480621925835140,-1.18469,0.0283227,-0.932314
1480621925848676,-1.18469,0.0283227,-0.932314
1480621925878756,-1.18462,0.0282318,-0.932227
1480621925890788,-1.18451,0.0282481,-0.932361
1480621925908335,-1.18465,0.0282035,-0.93238
1480621925930896,-1.18464,0.0282637,-0.932254
1480621925957968,-1.18465,0.0282035,-0.93238
1480621925973006,-1.18451,0.0282481,-0.932361
1480621925998576,-1.18451,0.0282481,-0.932361
1480621926010607,-1.18443,0.0281572,-0.932273
1480621926029156,-1.18451,0.0282481,-0.932361
1480621926051715,-1.18451,0.0282481,-0.932361
1480621926070767,-1.18451,0.0282481,-0.932361
1480621926088314,-1.18443,0.0281572,-0.932273
1480621926115887,-1.18443,0.0281572,-0.932273
1480621926130426,-1.18443,0.0281572,-0.932273
1480621926148474,-1.18443,0.0281572,-0.932273
1480621926171035,-1.18443,0.0281572,-0.932273
1480621926190585,-1.18443,0.0281572,-0.932273
1480621926208635,-1.18477,0.0284137,-0.932401
1480621926231194,-1.18469,0.0283227,-0.932314
1480621926274809,-1.18469,0.0283227,-0.932314
1480621926290350,-1.18484,0.0282781,-0.932333
1480621926295866,-1.18516,0.0285026,-0.932435
1480621926317924,-1.18582,0.0288492,-0.93241
1480621926332968,-1.18623,0.0291964,-0.932626
1480621926351012,-1.18616,0.0291055,-0.932539
1480621926373574,-1.18616,0.0291055,-0.932539
1480621926393129,-1.18616,0.0291055,-0.932539
1480621926423705,-1.18616,0.0291055,-0.932539
1480621926438244,-1.1863,0.0290608,-0.932558
1480621926453285,-1.18638,0.0291518,-0.932645
1480621926470830,-1.18664,0.0293172,-0.932686
1480621926492890,-1.18656,0.0292263,-0.932599
1480621926512943,-1.18656,0.0292263,-0.932599
1480621926530994,-1.18654,0.0291943,-0.932572
1480621926554053,-1.18654,0.0291943,-0.932572
1480621926573103,-1.18662,0.0292852,-0.93266
1480621926612708,-1.18654,0.0291943,-0.932572
1480621926615215,-1.18654,0.0291943,-0.932572
1480621926633264,-1.18654,0.0291943,-0.932572
1480621926650810,-1.18669,0.0291497,-0.932591
1480621926674874,-1.18669,0.0291497,-0.932591
1480621926696936,-1.18669,0.0291497,-0.932591
1480621926723002,-1.18676,0.0292405,-0.932679
1480621926733530,-1.18669,0.0291497,-0.932591
1480621926753088,-1.18669,0.0291497,-0.932591
1480621926778650,-1.18669,0.0291497,-0.932591
1480621926793690,-1.18676,0.0292405,-0.932679
1480621926813242,-1.18676,0.0292405,-0.932679
1480621926836805,-1.18676,0.0292405,-0.932679
1480621926860868,-1.18676,0.0292405,-0.932679
1480621926891450,-1.18676,0.0292405,-0.932679
1480621926895461,-1.18676,0.0292405,-0.932679
1480621926913509,-1.18675,0.0293009,-0.932553
1480621926944090,-1.18675,0.0293009,-0.932553
1480621926951109,-1.18675,0.0293009,-0.932553
1480621926973669,-1.18675,0.0293009,-0.932553
1480621927000741,-1.18675,0.0293009,-0.932553
1480621927011269,-1.18675,0.0293009,-0.932553
1480621927033327,-1.18675,0.0293009,-0.932553
1480621927062906,-1.18683,0.0293918,-0.93264
1480621927070929,-1.18683,0.0293918,-0.93264
1480621927116549,-1.18683,0.0293918,-0.93264
1480621927120560,-1.18683,0.0293918,-0.93264
1480621927131087,-1.18683,0.0293918,-0.93264
1480621927167685,-1.18683,0.0293918,-0.93264
1480621927174704,-1.18697,0.0293471,-0.932659
1480621927191247,-1.18683,0.0293918,-0.93264
1480621927229350,-1.18683,0.0293918,-0.93264
1480621927234362,-1.18697,0.0293471,-0.932659
1480621927251407,-1.18683,0.0293918,-0.93264
1480621927289009,-1.18695,0.0293151,-0.932633
1480621927294523,-1.18695,0.0293151,-0.932633
1480621927311066,-1.18702,0.0294663,-0.932594
1480621927334128,-1.18702,0.0294663,-0.932594
1480621927354683,-1.18702,0.0294663,-0.932594
1480621927401306,-1.18702,0.0294663,-0.932594
1480621927406320,-1.18702,0.0294663,-0.932594
1480621927413840,-1.18702,0.0294663,-0.932594
1480621927430384,-1.18716,0.0294217,-0.932613
1480621927452944,-1.18724,0.0295125,-0.932701
1480621927475003,-1.18774,0.029585,-0.932602
1480621927497563,-1.18821,0.0294779,-0.932693
1480621927513104,-1.1884,0.0294921,-0.932773
1480621927535162,-1.1888,0.0296733,-0.932709
1480621927558226,-1.18934,0.0300965,-0.932694
1480621927572261,-1.18986,0.0304877,-0.932652
1480621927595324,-1.19053,0.0306404,-0.932501
1480621927616379,-1.19039,0.0306849,-0.932482
1480621927632421,-1.19039,0.0306849,-0.932482
1480621927664008,-1.19039,0.0306849,-0.932482
1480621927677542,-1.19039,0.0306849,-0.932482
1480621927692582,-1.19007,0.0307474,-0.932409
1480621927722662,-1.1896,0.0308545,-0.932317
1480621927736198,-1.18922,0.0307053,-0.932407
1480621927752742,-1.18922,0.0307053,-0.932407
1480621927775803,-1.18907,0.0307499,-0.932388
1480621927796359,-1.18889,0.0306753,-0.932434
1480621927826938,-1.18843,0.0308557,-0.932723
1480621927836965,-1.1877,0.0308709,-0.93297
1480621927849499,-1.18725,0.0307649,-0.933228
1480621927872561,-1.18667,0.0307359,-0.933495
1480621927902641,-1.18665,0.0307037,-0.933468
1480621927917680,-1.18665,0.0307037,-0.933468
1480621927932219,-1.18665,0.0307037,-0.933468
1480621927955280,-1.18665,0.0307037,-0.933468
1480621927976336,-1.18665,0.0307037,-0.933468
1480621927998896,-1.18665,0.0307037,-0.933468
1480621928015440,-1.1866,0.0305847,-0.933533
1480621928035996,-1.1866,0.0305847,-0.933533
1480621928053040,-1.18697,0.0305072,-0.933286
1480621928081120,-1.18756,0.030476,-0.933145
1480621928096155,-1.18802,0.0302954,-0.932856
1480621928113704,-1.18822,0.0299495,-0.932525
1480621928135259,-1.18828,0.0295878,-0.932301
1480621928163836,-1.18826,0.0291957,-0.931864
1480621928172859,-1.18897,0.0285756,-0.93153
1480621928195418,-1.1893,0.0281534,-0.931191
1480621928216475,-1.18926,0.0276691,-0.930853
1480621928233020,-1.18921,0.0274765,-0.930538
1480621928255078,-1.18913,0.0273125,-0.93007
1480621928278139,-1.18913,0.0273125,-0.93007
1480621928292678,-1.18913,0.0273125,-0.93007
1480621928330279,-1.18921,0.0274033,-0.930157
1480621928336795,-1.18933,0.0273268,-0.93015
1480621928360358,-1.18901,0.0273889,-0.930078
1480621928375400,-1.18787,0.0272084,-0.929885
1480621928396454,-1.18681,0.0270583,-0.929905
1480621928412499,-1.18596,0.0269228,-0.930006
1480621928443579,-1.18549,0.0266503,-0.929985
1480621928456112,-1.18504,0.0264096,-0.929991
1480621928472656,-1.18445,0.0261531,-0.930104
1480621928495217,-1.18392,0.0257294,-0.930123
1480621928517776,-1.18345,0.0250178,-0.9303
1480621928533318,-1.18319,0.024473,-0.930331
1480621928556380,-1.18284,0.0238374,-0.930275
1480621928577937,-1.18259,0.0232324,-0.930433
1480621928606512,-1.18218,0.0227325,-0.930446
1480621928616540,-1.18159,0.0222495,-0.930407
1480621928637596,-1.18133,0.0218569,-0.930214
1480621928652134,-1.18118,0.0219017,-0.930195
1480621928675697,-1.18118,0.0219017,-0.930195
1480621928705276,-1.18178,0.021584,-0.930023
1480621928720817,-1.18163,0.0216288,-0.930004
1480621928735356,-1.18163,0.0216288,-0.930004
1480621928757415,-1.18178,0.021584,-0.930023
1480621928771953,-1.18178,0.021584,-0.930023
1480621928795014,-1.18178,0.021584,-0.930023
1480621928840635,-1.18178,0.021584,-0.930023
1480621928843143,-1.18178,0.021584,-0.930023
1480621928855174,-1.18178,0.021584,-0.930023
1480621928883751,-1.18178,0.021584,-0.930023
1480621928900294,-1.18178,0.021584,-0.930023
1480621928916337,-1.18178,0.021584,-0.930023
1480621928952433,-1.18175,0.0215525,-0.929996
1480621928958950,-1.1819,0.0215077,-0.930015
1480621928975998,-1.18198,0.0215986,-0.930102
1480621928997553,-1.1819,0.0215077,-0.930015
1480621929018611,-1.18175,0.0215525,-0.929996
1480621929035153,-1.18175,0.0215525,-0.929996
1480621929065236,-1.1819,0.0215077,-0.930015
1480621929078768,-1.18198,0.0215986,-0.930102
1480621929095816,-1.18198,0.0215986,-0.930102
1480621929118375,-1.18198,0.0215986,-0.930102
1480621929163495,-1.18198,0.0215986,-0.930102
1480621929166001,-1.18198,0.0215986,-0.930102
1480621929179037,-1.18236,0.0216882,-0.930133
1480621929231679,-1.18236,0.0216882,-0.930133
1480621929238193,-1.18235,0.0217486,-0.930007
1480621929240199,-1.18242,0.0218395,-0.930093
1480621929258747,-1.18242,0.0218395,-0.930093
1480621929276296,-1.18297,0.0218239,-0.930269
1480621929305372,-1.18334,0.0219738,-0.930174
1480621929318908,-1.18342,0.0220647,-0.930261
1480621929342973,-1.18342,0.0220647,-0.930261
1480621929358516,-1.18342,0.0220647,-0.930261
1480621929386589,-1.18342,0.0220647,-0.930261
1480621929397117,-1.18342,0.0220647,-0.930261
1480621929417670,-1.18349,0.0221556,-0.930348
1480621929440237,-1.18348,0.022216,-0.930222
1480621929455772,-1.18348,0.022216,-0.930222
1480621929477831,-1.18363,0.0221712,-0.93024
1480621929506406,-1.18368,0.0222305,-0.9303
1480621929523452,-1.18368,0.0222305,-0.9303
1480621929551527,-1.18368,0.0222305,-0.9303
1480621929560049,-1.18406,0.02232,-0.930332
1480621929574588,-1.18421,0.0222753,-0.930351
1480621929598154,-1.18428,0.0223661,-0.930437
1480621929620711,-1.18428,0.0223661,-0.930437
1480621929634750,-1.18428,0.0223661,-0.930437
1480621929665834,-1.18428,0.0223661,-0.930437
1480621929680871,-1.18427,0.0224265,-0.930311
1480621929694407,-1.18435,0.0225174,-0.930398
1480621929717970,-1.18435,0.0225174,-0.930398
1480621929740028,-1.18448,0.0225331,-0.930291
1480621929786653,-1.18448,0.0225331,-0.930291
1480621929791165,-1.18449,0.0224726,-0.930417
1480621929801692,-1.18448,0.0225331,-0.930291
1480621929830269,-1.18502,0.0228043,-0.930496
1480621929843805,-1.18501,0.0228647,-0.93037
1480621929860348,-1.18521,0.0228792,-0.930449
1480621929874387,-1.18521,0.0228792,-0.930449
1480621929898453,-1.18521,0.0228792,-0.930449
1480621929920006,-1.18521,0.0228792,-0.930449
1480621929948588,-1.18521,0.0228792,-0.930449
1480621929957607,-1.18573,0.0232107,-0.930529
1480621929994706,-1.18588,0.023166,-0.930548
1480621930010247,-1.18594,0.0233173,-0.930509
1480621930023786,-1.18594,0.0233173,-0.930509
1480621930039826,-1.18594,0.0233173,-0.930509
1480621930068902,-1.18579,0.023362,-0.93049
1480621930078430,-1.18602,0.0234081,-0.930596
1480621930107506,-1.186,0.0234686,-0.93047
1480621930122044,-1.18608,0.0235594,-0.930557
1480621930151623,-1.18608,0.0235594,-0.930557
1480621930175688,-1.18608,0.0235594,-0.930557
1480621930181203,-1.18608,0.0235594,-0.930557
1480621930197751,-1.18608,0.0235594,-0.930557
1480621930220306,-1.18612,0.0236791,-0.930491
1480621930241363,-1.18612,0.0236791,-0.930491
1480621930257906,-1.18627,0.0236343,-0.93051
1480621930279965,-1.18627,0.0236343,-0.93051
1480621930308540,-1.18634,0.0237252,-0.930597
1480621930318066,-1.18634,0.0237252,-0.930597
1480621930340125,-1.18633,0.0237856,-0.930471
1480621930363688,-1.18641,0.0238765,-0.930558
1480621930378227,-1.18641,0.0238765,-0.930558
1480621930400285,-1.18641,0.0238765,-0.930558
1480621930430868,-1.18653,0.0238001,-0.93055
1480621930445906,-1.18653,0.0238001,-0.93055
1480621930466972,-1.18659,0.0239514,-0.930511
1480621930482505,-1.18659,0.0239514,-0.930511
1480621930498046,-1.18667,0.0240422,-0.930598
1480621930520103,-1.18667,0.0240422,-0.930598
1480621930542663,-1.18667,0.0240422,-0.930598
1480621930565227,-1.18667,0.0240422,-0.930598
1480621930580765,-1.18666,0.0241027,-0.930472
1480621930618365,-1.18688,0.0241488,-0.930578
1480621930620871,-1.18686,0.0241171,-0.930551
1480621930640423,-1.18686,0.0241171,-0.930551
1480621930663488,-1.18686,0.0241171,-0.930551
1480621930683539,-1.18688,0.0241488,-0.930578
1480621930700082,-1.18693,0.0242079,-0.930638
1480621930722642,-1.18692,0.0242684,-0.930512
1480621930737182,-1.18692,0.0242684,-0.930512
1480621930760744,-1.187,0.0243592,-0.9306
1480621930782803,-1.187,0.0243592,-0.9306
1480621930796840,-1.18692,0.0242684,-0.930512
1480621930843965,-1.18692,0.0242684,-0.930512
1480621930856501,-1.187,0.0243592,-0.9306
1480621930895608,-1.18698,0.0244197,-0.930474
1480621930898110,-1.1872,0.0244659,-0.93058
1480621930904125,-1.1872,0.0244659,-0.93058
1480621930924179,-1.18706,0.0245105,-0.930561
1480621930942228,-1.18706,0.0245105,-0.930561
1480621930963283,-1.1872,0.0244659,-0.93058
1480621930983837,-1.1872,0.0244659,-0.93058
1480621931000381,-1.18701,0.0244515,-0.9305
1480621931030462,-1.18708,0.0245423,-0.930587
1480621931051016,-1.18708,0.0245423,-0.930587
1480621931060039,-1.18701,0.0244515,-0.9305
1480621931083102,-1.18708,0.0245423,-0.930587
1480621931112680,-1.18719,0.0245263,-0.930454
1480621931119699,-1.18727,0.0246172,-0.930541
1480621931142759,-1.18678,0.0244053,-0.930394
1480621931165322,-1.18633,0.0241646,-0.930401
1480621931180359,-1.18633,0.0241646,-0.930401
1480621931202419,-1.18633,0.0241646,-0.930401
1480621931224477,-1.18633,0.0241646,-0.930401
1480621931240019,-1.18648,0.0241199,-0.93042
1480621931263582,-1.18654,0.0242712,-0.930381
1480621931283635,-1.18633,0.0241646,-0.930401
1480621931300179,-1.18633,0.0241646,-0.930401
1480621931330265,-1.18633,0.0241646,-0.930401
1480621931345300,-1.18648,0.0241199,-0.93042
1480621931360338,-1.18654,0.0242712,-0.930381
1480621931384403,-1.18654,0.0242712,-0.930381
1480621931404958,-1.18654,0.0242712,-0.930381
1480621931444062,-1.18654,0.0242712,-0.930381
1480621931448574,-1.18654,0.0242712,-0.930381
1480621931465119,-1.18654,0.0242712,-0.930381
1480621931495198,-1.18654,0.0242712,-0.930381
1480621931502718,-1.18654,0.0242712,-0.930381
1480621931525277,-1.18654,0.0242712,-0.930381
1480621931553871,-1.18654,0.0242712,-0.930381
1480621931563382,-1.18654,0.0242712,-0.930381
1480621931592958,-1.18654,0.0242712,-0.930381
1480621931607502,-1.18654,0.0242712,-0.930381
1480621931623039,-1.18654,0.0242712,-0.930381
1480621931645097,-1.18654,0.0242712,-0.930381
1480621931660136,-1.18654,0.0242712,-0.930381
1480621931682697,-1.18654,0.0242712,-0.930381
1480621931705758,-1.1864,0.0243159,-0.930362
1480621931729321,-1.1864,0.0243159,-0.930362
1480621931742857,-1.1864,0.0243159,-0.930362
1480621931772435,-1.1864,0.0243159,-0.930362
1480621931779454,-1.1864,0.0243159,-0.930362
1480621931802515,-1.1864,0.0243159,-0.930362
1480621931832596,-1.18633,0.0241646,-0.930401
1480621931846133,-1.18648,0.0241199,-0.93042
1480621931870696,-1.18654,0.0242712,-0.930381
1480621931886238,-1.18654,0.0242712,-0.930381
1480621931907796,-1.18652,0.0242395,-0.930354
1480621931922835,-1.18654,0.0242712,-0.930381
1480621931945396,-1.18654,0.0242712,-0.930381
1480621931967455,-1.18654,0.0242712,-0.930381
1480621931996531,-1.18654,0.0242712,-0.930381
1480621932006558,-1.18652,0.0242395,-0.930354
1480621932028115,-1.18654,0.0242712,-0.930381
1480621932051178,-1.18654,0.0242712,-0.930381
1480621932065214,-1.18654,0.0242712,-0.930381
1480621932093790,-1.18654,0.0242712,-0.930381
1480621932110336,-1.18654,0.0242712,-0.930381
1480621932131389,-1.1864,0.0243159,-0.930362
1480621932147432,-1.1864,0.0243159,-0.930362
1480621932163977,-1.1864,0.0243159,-0.930362
1480621932185534,-1.1864,0.0243159,-0.930362
1480621932224138,-1.1864,0.0243159,-0.930362
1480621932228650,-1.1864,0.0243159,-0.930362
1480621932245193,-1.1864,0.0243159,-0.930362
1480621932275273,-1.1864,0.0243159,-0.930362
1480621932286302,-1.1864,0.0243159,-0.930362
1480621932305353,-1.1864,0.0243159,-0.930362
1480621932327914,-1.1866,0.0243304,-0.930441
1480621932342452,-1.1866,0.0243304,-0.930441
1480621932365012,-1.1866,0.0243304,-0.930441
1480621932388574,-1.18667,0.0244212,-0.930528
1480621932402112,-1.18667,0.0244212,-0.930528
1480621932440212,-1.18667,0.0244212,-0.930528
1480621932447733,-1.18667,0.0244212,-0.930528
1480621932461770,-1.18667,0.0244212,-0.930528
1480621932493353,-1.18666,0.0244817,-0.930402
1480621932507892,-1.18666,0.0244817,-0.930402
1480621932522431,-1.18674,0.0245725,-0.930489
1480621932546498,-1.18666,0.0244817,-0.930402
1480621932567551,-1.18666,0.0244817,-0.930402
1480621932582092,-1.18668,0.0245134,-0.930429
1480621932612670,-1.18674,0.0245725,-0.930489
1480621932627711,-1.18674,0.0245725,-0.930489
1480621932665811,-1.18674,0.0245725,-0.930489
1480621932671328,-1.1868,0.0247238,-0.93045
1480621932687870,-1.18674,0.0245725,-0.930489
1480621932702409,-1.18674,0.0245725,-0.930489
1480621932724984,-1.18688,0.0245279,-0.930508
1480621932747529,-1.18688,0.0245279,-0.930508
1480621932768585,-1.18695,0.0246792,-0.930469
1480621932785129,-1.18695,0.0246792,-0.930469
1480621932813708,-1.18695,0.0246792,-0.930469
1480621932831753,-1.1868,0.0247238,-0.93045
1480621932851305,-1.1868,0.0247238,-0.93045
1480621932867850,-1.18695,0.0246792,-0.930469
1480621932888905,-1.18695,0.0246792,-0.930469
1480621932904948,-1.18702,0.02477,-0.930556
1480621932944052,-1.18688,0.0248146,-0.930537
1480621932952073,-1.18688,0.0248146,-0.930537
1480621932965108,-1.18688,0.0248146,-0.930537
1480621932987668,-1.18701,0.0248304,-0.93043
1480621933008724,-1.18701,0.0248304,-0.93043
1480621933025268,-1.18709,0.0249213,-0.930517
1480621933048329,-1.18709,0.0249213,-0.930517
1480621933068884,-1.18694,0.024966,-0.930498
1480621933084926,-1.18709,0.0249213,-0.930517
1480621933107488,-1.18709,0.0249213,-0.930517
1480621933128543,-1.18709,0.0249213,-0.930517
1480621933145087,-1.18713,0.0250408,-0.930452
1480621933167648,-1.18713,0.0250408,-0.930452
1480621933188703,-1.18715,0.0250726,-0.930479
1480621933227305,-1.18713,0.0250408,-0.930452
1480621933233823,-1.18713,0.0250408,-0.930452
1480621933250367,-1.18713,0.0250408,-0.930452
1480621933265408,-1.18713,0.0250408,-0.930452
1480621933287466,-1.1872,0.0251317,-0.930539
1480621933310026,-1.1872,0.0251317,-0.930539
1480621933325065,-1.1872,0.0251317,-0.930539
1480621933363669,-1.1872,0.0251317,-0.930539
1480621933370186,-1.1872,0.0251317,-0.930539
1480621933392746,-1.18719,0.0251922,-0.930413
1480621933415809,-1.18719,0.0251922,-0.930413
1480621933430346,-1.18719,0.0251922,-0.930413
1480621933444384,-1.18719,0.0251922,-0.930413
1480621933468449,-1.18719,0.0251922,-0.930413
1480621933505044,-1.18727,0.025283,-0.9305
1480621933507552,-1.18727,0.025283,-0.9305
1480621933533621,-1.18741,0.0252384,-0.930519
1480621933550165,-1.1874,0.0252988,-0.930393
1480621933564703,-1.18733,0.0254343,-0.930461
1480621933587766,-1.18727,0.025283,-0.9305
1480621933618345,-1.18725,0.0253434,-0.930374
1480621933638900,-1.18733,0.0254343,-0.930461
1480621933647926,-1.18733,0.0254343,-0.930461
1480621933669986,-1.18748,0.0253897,-0.93048
1480621933684522,-1.18748,0.0253897,-0.93048
1480621933721119,-1.18733,0.0254343,-0.930461
1480621933731647,-1.18748,0.0253897,-0.93048
1480621933751199,-1.18748,0.0253897,-0.93048
1480621933775264,-1.18755,0.0254805,-0.930568
1480621933790303,-1.18754,0.025541,-0.930442
1480621933812866,-1.18754,0.025541,-0.930442
1480621933827903,-1.18754,0.025541,-0.930442
1480621933849963,-1.18755,0.0254805,-0.930568
1480621933871019,-1.18755,0.0254805,-0.930568
1480621933895083,-1.18754,0.025541,-0.930442
1480621933910624,-1.18754,0.025541,-0.930442
1480621933934687,-1.18754,0.025541,-0.930442
1480621933948223,-1.18754,0.025541,-0.930442
1480621933970282,-1.18752,0.0255091,-0.930415
1480621933991338,-1.18766,0.0254645,-0.930434
1480621934007883,-1.18759,0.0256,-0.930502
1480621934036459,-1.18759,0.0256,-0.930502
1480621934058517,-1.18774,0.0255554,-0.930521
1480621934082582,-1.18774,0.0255554,-0.930521
1480621934090100,-1.18714,0.0253594,-0.930508
1480621934111157,-1.18707,0.0252686,-0.930421
1480621934129724,-1.18707,0.0252686,-0.930421
1480621934150262,-1.18714,0.0253594,-0.930508
1480621934172821,-1.18714,0.0253594,-0.930508
1480621934188864,-1.187,0.025404,-0.930489
1480621934210423,-1.18647,0.0250726,-0.930408
1480621934238495,-1.18647,0.0250726,-0.930408
1480621934271584,-1.18648,0.0250122,-0.930534
1480621934277600,-1.18647,0.0250726,-0.930408
1480621934293141,-1.18647,0.0250726,-0.930408
1480621934315201,-1.18647,0.0250726,-0.930408
1480621934336256,-1.18648,0.0250122,-0.930534
1480621934352801,-1.18648,0.0250122,-0.930534
1480621934366837,-1.18641,0.0249213,-0.930447
1480621934390903,-1.18648,0.0250122,-0.930534
1480621934412965,-1.18648,0.0250122,-0.930534
1480621934426997,-1.18648,0.0250122,-0.930534
1480621934450560,-1.18648,0.0250122,-0.930534
1480621934496182,-1.18628,0.0249977,-0.930454
1480621934501696,-1.18628,0.0249977,-0.930454
1480621934519244,-1.18628,0.0249977,-0.930454
1480621934532778,-1.18628,0.0249977,-0.930454
1480621934546817,-1.18634,0.0250568,-0.930515
1480621934570379,-1.18641,0.0249213,-0.930447
1480621934592438,-1.18628,0.0249977,-0.930454
1480621934614999,-1.18628,0.0249977,-0.930454
1480621934636053,-1.18622,0.0248464,-0.930493
1480621934653099,-1.18622,0.0248464,-0.930493
1480621934673653,-1.18628,0.0249977,-0.930454
1480621934690197,-1.18628,0.0249977,-0.930454
1480621934728299,-1.18622,0.0248464,-0.930493
1480621934733814,-1.18622,0.0248464,-0.930493
1480621934750358,-1.18622,0.0248464,-0.930493
1480621934772919,-1.18622,0.0248464,-0.930493
1480621934800992,-1.18622,0.0248464,-0.930493
1480621934816034,-1.18622,0.0248464,-0.930493
1480621934832577,-1.18622,0.0248464,-0.930493
1480621934853632,-1.18622,0.0248464,-0.930493
1480621934870176,-1.18622,0.0248464,-0.930493
1480621934892737,-1.18622,0.0248464,-0.930493
1480621934913794,-1.18622,0.0248464,-0.930493
1480621934930337,-1.18622,0.0248464,-0.930493
1480621934952395,-1.18622,0.0248464,-0.930493
1480621934980971,-1.18614,0.0247555,-0.930406
1480621934991499,-1.18614,0.0247555,-0.930406
1480621935020075,-1.18614,0.0247555,-0.930406
1480621935035115,-1.18614,0.0247555,-0.930406
1480621935052160,-1.18614,0.0247555,-0.930406
1480621935073217,-1.18614,0.0247555,-0.930406
1480621935095779,-1.18614,0.0247555,-0.930406
1480621935110820,-1.18614,0.0247555,-0.930406
1480621935132875,-1.18628,0.0246187,-0.930524
1480621935161453,-1.18616,0.0246951,-0.930532
1480621935169974,-1.18627,0.0246792,-0.930398
1480621935192533,-1.18628,0.0246187,-0.930524
1480621935215595,-1.18628,0.0246187,-0.930524
1480621935229633,-1.18608,0.0246042,-0.930445
1480621935276257,-1.18608,0.0246042,-0.930445
1480621935282774,-1.18608,0.0246042,-0.930445
1480621935297813,-1.18608,0.0246042,-0.930445
1480621935312352,-1.18608,0.0246042,-0.930445
1480621935335414,-1.1862,0.0245279,-0.930437
1480621935349451,-1.18608,0.0246042,-0.930445
1480621935381038,-1.18608,0.0246042,-0.930445
1480621935395073,-1.1862,0.0245279,-0.930437
1480621935409611,-1.1862,0.0245279,-0.930437
1480621935433175,-1.1862,0.0245279,-0.930437
1480621935462755,-1.1862,0.0245279,-0.930437
1480621935469270,-1.18608,0.0246042,-0.930445
1480621935494336,-1.18608,0.0246042,-0.930445
1480621935515394,-1.18608,0.0246042,-0.930445
1480621935529432,-1.1862,0.0245279,-0.930437
1480621935552491,-1.18623,0.0245596,-0.930464
1480621935576055,-1.18623,0.0245596,-0.930464
1480621935603627,-1.1864,0.0246949,-0.930291
1480621935612656,-1.18641,0.0246345,-0.930417
1480621935635212,-1.18634,0.0245436,-0.93033
1480621935656267,-1.18641,0.0246345,-0.930417
1480621935672811,-1.18641,0.0246345,-0.930417
1480621935695374,-1.18641,0.0246345,-0.930417
1480621935718433,-1.1868,0.0247238,-0.93045
1480621935746510,-1.18706,0.0246632,-0.930336
1480621935755532,-1.18706,0.0246632,-0.930336
1480621935776087,-1.18706,0.0246632,-0.930336
1480621935792631,-1.18706,0.0246632,-0.930336
1480621935822710,-1.18706,0.0246632,-0.930336
1480621935836246,-1.18706,0.0246632,-0.930336
1480621935853793,-1.18706,0.0246632,-0.930336
1480621935890892,-1.18706,0.0246632,-0.930336
1480621935896406,-1.18706,0.0246632,-0.930336
1480621935912953,-1.18706,0.0246632,-0.930336
1480621935935009,-1.18706,0.0246632,-0.930336
1480621935956065,-1.1872,0.0246186,-0.930354
1480621935974113,-1.1872,0.0246186,-0.930354
1480621935995169,-1.1872,0.0246186,-0.930354
1480621936016226,-1.18706,0.0246632,-0.930336
1480621936047809,-1.18706,0.0246632,-0.930336
1480621936055830,-1.18706,0.0246632,-0.930336
1480621936077889,-1.18713,0.024754,-0.930423
1480621936099948,-1.18713,0.024754,-0.930423
1480621936114990,-1.18713,0.024754,-0.930423
1480621936137548,-1.18706,0.0246632,-0.930336
1480621936160108,-1.18706,0.0246632,-0.930336
1480621936175149,-1.18713,0.024754,-0.930423
1480621936205228,-1.18728,0.0247094,-0.930442
1480621936218764,-1.18727,0.0247699,-0.930316
1480621936235308,-1.18712,0.0248145,-0.930297
1480621936257868,-1.18713,0.024754,-0.930423
1480621936271907,-1.18713,0.024754,-0.930423
1480621936308503,-1.18712,0.0248145,-0.930297
1480621936323543,-1.18727,0.0247699,-0.930316
1480621936332066,-1.18734,0.0248607,-0.930403
1480621936355127,-1.1872,0.0249054,-0.930384
1480621936378189,-1.18712,0.0248145,-0.930297
1480621936392225,-1.18712,0.0248145,-0.930297
1480621936423308,-1.18712,0.0248145,-0.930297
1480621936437847,-1.1872,0.0249054,-0.930384
1480621936451884,-1.1872,0.0249054,-0.930384
1480621936474946,-1.1872,0.0249054,-0.930384
1480621936497506,-1.18761,0.0250265,-0.930443
1480621936512046,-1.18761,0.0250265,-0.930443
1480621936536611,-1.18761,0.0250265,-0.930443
1480621936557665,-1.18761,0.0250265,-0.930443
1480621936603286,-1.18761,0.0250265,-0.930443
1480621936605794,-1.18759,0.0250869,-0.930318
1480621936617826,-1.18759,0.0250869,-0.930318
1480621936638881,-1.18761,0.0250265,-0.930443
1480621936663949,-1.18761,0.0250265,-0.930443
1480621936685005,-1.18759,0.0250869,-0.930318
1480621936698541,-1.18759,0.0250869,-0.930318
1480621936715587,-1.18767,0.0251778,-0.930405
1480621936737645,-1.18767,0.0251778,-0.930405
1480621936766724,-1.18767,0.0251778,-0.930405
1480621936775245,-1.18767,0.0251778,-0.930405
1480621936797805,-1.18779,0.0251013,-0.930397
1480621936826380,-1.18786,0.0252527,-0.930358
1480621936835906,-1.18786,0.0252527,-0.930358
1480621936857463,-1.18786,0.0252527,-0.930358
1480621936880023,-1.18786,0.0252527,-0.930358
1480621936895064,-1.18786,0.0252527,-0.930358
1480621936917623,-1.18786,0.0252527,-0.930358
1480621936940183,-1.18786,0.0252527,-0.930358
1480621936962743,-1.18793,0.0253435,-0.930445
1480621936978284,-1.18793,0.0253435,-0.930445
1480621936998839,-1.18792,0.025404,-0.93032
1480621937015384,-1.18792,0.025404,-0.93032
1480621937045466,-1.18792,0.025404,-0.93032
1480621937060001,-1.18792,0.025404,-0.93032
1480621937075042,-1.188,0.0254948,-0.930407
1480621937098103,-1.188,0.0254948,-0.930407
1480621937120162,-1.188,0.0254948,-0.930407
1480621937149741,-1.188,0.0254948,-0.930407
1480621937159768,-1.188,0.0254948,-0.930407
1480621937180322,-1.188,0.0254948,-0.930407
1480621937194359,-1.18798,0.0255553,-0.930281
1480621937217421,-1.18806,0.0256461,-0.930368
1480621937240482,-1.18806,0.0256461,-0.930368
1480621937254520,-1.18806,0.0256461,-0.930368
1480621937278082,-1.18806,0.0256461,-0.930368
1480621937300642,-1.18806,0.0256461,-0.930368
1480621937314680,-1.18806,0.0256461,-0.930368
1480621937337740,-1.18786,0.0256317,-0.930289
1480621937360301,-1.18786,0.0256317,-0.930289
1480621937381358,-1.18786,0.0256317,-0.930289
1480621937398402,-1.18786,0.0256317,-0.930289
1480621937427480,-1.18786,0.0256317,-0.930289
1480621937434499,-1.18786,0.0256317,-0.930289
1480621937457559,-1.18794,0.0257226,-0.930376
1480621937480120,-1.18794,0.0257226,-0.930376
1480621937501176,-1.18794,0.0257226,-0.930376
1480621937525741,-1.18794,0.0257226,-0.930376
1480621937540781,-1.18808,0.025678,-0.930395
1480621937561336,-1.18808,0.025678,-0.930395
1480621937577903,-1.18806,0.0256461,-0.930368
1480621937607964,-1.18808,0.025678,-0.930395
1480621937620995,-1.18808,0.025678,-0.930395
1480621937637539,-1.18794,0.0257226,-0.930376
1480621937660098,-1.18794,0.0257226,-0.930376
1480621937681155,-1.18794,0.0257226,-0.930376
1480621937703717,-1.18794,0.0257226,-0.930376
1480621937720260,-1.18794,0.0257226,-0.930376
1480621937741315,-1.18808,0.025678,-0.930395
1480621937757858,-1.18794,0.0257226,-0.930376
1480621937780418,-1.18794,0.0257226,-0.930376
1480621937800974,-1.18786,0.0256317,-0.930289
1480621937825037,-1.18794,0.0257226,-0.930376
1480621937840077,-1.18794,0.0257226,-0.930376
1480621937861134,-1.18794,0.0257226,-0.930376
1480621937877677,-1.18794,0.0257226,-0.930376
1480621937900237,-1.18786,0.0256317,-0.930289
1480621937928815,-1.18741,0.0253911,-0.930294
1480621937937837,-1.18734,0.0255265,-0.930362
1480621937959896,-1.18734,0.0255265,-0.930362
1480621937982456,-1.18734,0.0255265,-0.930362
1480621937997496,-1.18734,0.0255265,-0.930362
1480621938020056,-1.18681,0.025195,-0.930281
1480621938048634,-1.18641,0.0250739,-0.930221
1480621938063672,-1.18633,0.024983,-0.930134
1480621938080216,-1.18641,0.0250739,-0.930221
1480621938110797,-1.18641,0.0250739,-0.930221
1480621938117317,-1.18641,0.0250739,-0.930221
1480621938156420,-1.18587,0.0250291,-0.93017
1480621938164942,-1.18602,0.0249845,-0.930189
1480621938184996,-1.18596,0.0248332,-0.930228
1480621938200035,-1.18596,0.0248332,-0.930228
1480621938222595,-1.18602,0.0249845,-0.930189
1480621938237634,-1.18602,0.0249845,-0.930189
1480621938260194,-1.18602,0.0249845,-0.930189
1480621938282756,-1.18596,0.0248332,-0.930228
1480621938297294,-1.18596,0.0248332,-0.930228
1480621938326372,-1.18596,0.0248332,-0.930228
1480621938342414,-1.18596,0.0248332,-0.930228
1480621938356952,-1.18602,0.0249845,-0.930189
1480621938382520,-1.18596,0.0248332,-0.930228
1480621938402574,-1.18596,0.0248332,-0.930228
1480621938423630,-1.18596,0.0248332,-0.930228
1480621938446191,-1.18596,0.0248332,-0.930228
1480621938462735,-1.18596,0.0248332,-0.930228
1480621938485301,-1.18596,0.0248332,-0.930228
1480621938500336,-1.18596,0.0248332,-0.930228
1480621938538436,-1.18596,0.0248332,-0.930228
1480621938551971,-1.18596,0.0248332,-0.930228
1480621938559993,-1.18596,0.0248332,-0.930228
1480621938582553,-1.18596,0.0248332,-0.930228
1480621938605614,-1.18592,0.0248619,-0.930075
1480621938620152,-1.186,0.0249528,-0.930162
1480621938642714,-1.18614,0.0249081,-0.930181
1480621938672794,-1.18614,0.0249081,-0.930181
1480621938680313,-1.186,0.0249528,-0.930162
1480621938710895,-1.186,0.0249528,-0.930162
1480621938723427,-1.18614,0.0249081,-0.930181
1480621938740473,-1.18614,0.0249081,-0.930181
1480621938770051,-1.18614,0.0249081,-0.930181
1480621938783588,-1.18614,0.0249081,-0.930181
1480621938800131,-1.18614,0.0249081,-0.930181
1480621938822694,-1.18614,0.0249081,-0.930181
1480621938843748,-1.18614,0.0249081,-0.930181
1480621938861294,-1.18614,0.0249081,-0.930181
1480621938883854,-1.18614,0.0249081,-0.930181
1480621938903406,-1.18614,0.0249081,-0.930181
1480621938919950,-1.18614,0.0249081,-0.930181
1480621938943013,-1.18614,0.0249081,-0.930181
1480621938965074,-1.18614,0.0249081,-0.930181
1480621938980110,-1.18614,0.0249081,-0.930181
1480621939003673,-1.18614,0.0249081,-0.930181
1480621939025230,-1.18614,0.0249081,-0.930181
1480621939040270,-1.18614,0.0249081,-0.930181
1480621939062830,-1.18614,0.0249081,-0.930181
1480621939084888,-1.18614,0.0249081,-0.930181
1480621939105946,-1.18622,0.024999,-0.930268
1480621939122489,-1.18622,0.024999,-0.930268
1480621939146053,-1.18622,0.024999,-0.930268
1480621939159587,-1.18614,0.0249081,-0.930181
1480621939182650,-1.18614,0.0249081,-0.930181
1480621939205209,-1.18614,0.0249081,-0.930181
1480621939219246,-1.18622,0.024999,-0.930268
1480621939242810,-1.18635,0.0250148,-0.930161
1480621939265369,-1.18635,0.0250148,-0.930161
1480621939279408,-1.18635,0.0250148,-0.930161
1480621939303470,-1.18621,0.0250594,-0.930142
1480621939325528,-1.18621,0.0250594,-0.930142
1480621939355108,-1.18621,0.0250594,-0.930142
1480621939363630,-1.18635,0.0250148,-0.930161
1480621939385188,-1.18628,0.0251503,-0.930229
1480621939406243,-1.18621,0.0250594,-0.930142
1480621939422788,-1.18621,0.0250594,-0.930142
1480621939445370,-1.18621,0.0250594,-0.930142
1480621939482948,-1.18621,0.0250594,-0.930142
1480621939485455,-1.18628,0.0251503,-0.930229
1480621939505006,-1.18641,0.0250739,-0.930221
1480621939526062,-1.18643,0.0251056,-0.930248
1480621939542607,-1.18643,0.0251056,-0.930248
1480621939579706,-1.18643,0.0251056,-0.930248
1480621939610904,-1.18643,0.0251056,-0.930248
1480621939613295,-1.18641,0.0250739,-0.930221
1480621939633348,-1.18647,0.0252252,-0.930183
1480621939646384,-1.18647,0.0252252,-0.930183
1480621939662926,-1.18647,0.0252252,-0.930183
1480621939684986,-1.18647,0.0252252,-0.930183
1480621939723086,-1.18647,0.0252252,-0.930183
1480621939725593,-1.18647,0.0252252,-0.930183
1480621939745648,-1.18647,0.0252252,-0.930183
1480621939774223,-1.18655,0.0253161,-0.93027
1480621939783248,-1.18655,0.0253161,-0.93027
1480621939805306,-1.18655,0.0253161,-0.93027
1480621939828369,-1.18655,0.0253161,-0.93027
1480621939857444,-1.18655,0.0253161,-0.93027
1480621939864963,-1.18653,0.0253765,-0.930144
1480621939888025,-1.18661,0.0254674,-0.930231
1480621939902564,-1.18661,0.0254674,-0.930231
1480621939940667,-1.18661,0.0254674,-0.930231
1480621939949189,-1.18661,0.0254674,-0.930231
1480621939970244,-1.18661,0.0254674,-0.930231
1480621939985284,-1.18661,0.0254674,-0.930231
1480621940015365,-1.18661,0.0254674,-0.930231
1480621940030405,-1.18667,0.0256187,-0.930192
1480621940044946,-1.18682,0.0255741,-0.930211
1480621940069007,-1.18675,0.0254227,-0.93025
1480621940090063,-1.18675,0.0254227,-0.93025
1480621940105104,-1.18682,0.0255741,-0.930211
1480621940127663,-1.18682,0.0255741,-0.930211
1480621940142202,-1.1868,0.0255423,-0.930184
1480621940165263,-1.1868,0.0255423,-0.930184
1480621940195343,-1.18682,0.0255741,-0.930211
1480621940201860,-1.18682,0.0255741,-0.930211
1480621940224922,-1.18682,0.0255741,-0.930211
1480621940247983,-1.1868,0.0255423,-0.930184
1480621940268539,-1.18702,0.0255885,-0.930291
1480621940285082,-1.18702,0.0255885,-0.930291
1480621940307643,-1.18702,0.0255885,-0.930291
1480621940328698,-1.18702,0.0255885,-0.930291
1480621940345245,-1.18702,0.0255885,-0.930291
1480621940367803,-1.18702,0.0255885,-0.930291
1480621940388858,-1.18701,0.025649,-0.930165
1480621940405402,-1.18701,0.025649,-0.930165
1480621940434981,-1.18701,0.025649,-0.930165
1480621940448518,-1.18701,0.025649,-0.930165
1480621940465060,-1.18701,0.025649,-0.930165
1480621940470575,-1.18701,0.025649,-0.930165
1480621940494642,-1.18708,0.0257398,-0.930252
1480621940515697,-1.18708,0.0257398,-0.930252
1480621940530735,-1.18708,0.0257398,-0.930252
1480621940553796,-1.18708,0.0257398,-0.930252
1480621940575354,-1.18701,0.025649,-0.930165
1480621940590895,-1.18701,0.025649,-0.930165
1480621940612955,-1.18708,0.0257398,-0.930252
1480621940635514,-1.18708,0.0257398,-0.930252
1480621940650554,-1.18708,0.0257398,-0.930252
1480621940673114,-1.18708,0.0257398,-0.930252
1480621940695674,-1.18708,0.0257398,-0.930252
1480621940710714,-1.18708,0.0257398,-0.930252
1480621940734277,-1.18708,0.0257398,-0.930252
1480621940764357,-1.18708,0.0257398,-0.930252
1480621940770373,-1.18708,0.0257398,-0.930252
1480621940794439,-1.18708,0.0257398,-0.930252
1480621940815495,-1.18708,0.0257398,-0.930252
1480621940830534,-1.18708,0.0257398,-0.930252
1480621940853095,-1.18706,0.025708,-0.930225
1480621940884176,-1.18708,0.0257398,-0.930252
1480621940890692,-1.18712,0.0258593,-0.930186
1480621940912752,-1.18727,0.0258147,-0.930205
1480621940935312,-1.18712,0.0258593,-0.930186
1480621940957872,-1.1872,0.0256634,-0.930244
1480621940981936,-1.1872,0.0256634,-0.930244
1480621940995471,-1.18708,0.0257398,-0.930252
1480621941010512,-1.18715,0.0258911,-0.930213
1480621941036080,-1.18715,0.0258911,-0.930213
1480621941055632,-1.18727,0.0258147,-0.930205
1480621941086715,-1.18667,0.0256187,-0.930192
1480621941109274,-1.18682,0.0255741,-0.930211
1480621941115291,-1.18682,0.0255741,-0.930211
1480621941130330,-1.18682,0.0255741,-0.930211
1480621941152890,-1.18688,0.0257254,-0.930172
1480621941176954,-1.18688,0.0257254,-0.930172
1480621941201019,-1.18675,0.0257095,-0.930279
1480621941213051,-1.18667,0.0256187,-0.930192
1480621941243632,-1.18682,0.0255741,-0.930211
1480621941258170,-1.18682,0.0255741,-0.930211
1480621941273211,-1.18688,0.0257254,-0.930172
1480621941295269,-1.18688,0.0257254,-0.930172
1480621941317829,-1.18674,0.02577,-0.930153
1480621941332869,-1.18688,0.0257254,-0.930172
1480621941355429,-1.18689,0.0256649,-0.930298
1480621941379494,-1.18688,0.0257254,-0.930172
1480621941409072,-1.18688,0.0257254,-0.930172
1480621941415590,-1.18688,0.0257254,-0.930172
1480621941433637,-1.18688,0.0257254,-0.930172
1480621941453189,-1.18688,0.0257254,-0.930172
1480621941484773,-1.18688,0.0257254,-0.930172
1480621941506833,-1.18688,0.0257254,-0.930172
1480621941528391,-1.18688,0.0257254,-0.930172
1480621941538416,-1.18688,0.0257254,-0.930172
1480621941551953,-1.18674,0.02577,-0.930153
1480621941573008,-1.18688,0.0257254,-0.930172
1480621941603589,-1.18688,0.0257254,-0.930172
1480621941612114,-1.18688,0.0257254,-0.930172
1480621941643697,-1.18688,0.0257254,-0.930172
1480621941655729,-1.18688,0.0257254,-0.930172
1480621941671772,-1.18688,0.0257254,-0.930172
1480621941692827,-1.18688,0.0257254,-0.930172
1480621941715388,-1.18688,0.0257254,-0.930172
1480621941737947,-1.18688,0.0257254,-0.930172
1480621941760507,-1.18686,0.0256936,-0.930146
1480621941775557,-1.18708,0.0257398,-0.930252
1480621941794096,-1.18708,0.0257398,-0.930252
1480621941820667,-1.18708,0.0257398,-0.930252
1480621941835707,-1.18735,0.0256188,-0.930263
1480621941870299,-1.18735,0.0256188,-0.930263
1480621941874310,-1.18735,0.0256188,-0.930263
1480621941895366,-1.18735,0.0256188,-0.930263
1480621941913414,-1.18735,0.0256188,-0.930263
1480621941932965,-1.18735,0.0256188,-0.930263
1480621941963047,-1.18766,0.0256173,-0.930209
1480621941986609,-1.18766,0.0256173,-0.930209
1480621941993125,-1.18766,0.0256173,-0.930209
1480621942018192,-1.18766,0.0256173,-0.930209
1480621942046770,-1.18766,0.0256173,-0.930209
1480621942052786,-1.18766,0.0256173,-0.930209
1480621942091889,-1.18766,0.0256173,-0.930209
1480621942106928,-1.18766,0.0256173,-0.930209
1480621942112945,-1.18766,0.0256173,-0.930209
1480621942154555,-1.18766,0.0256173,-0.930209
1480621942159569,-1.18766,0.0256173,-0.930209
1480621942173104,-1.18774,0.0257081,-0.930296
1480621942203185,-1.18774,0.0257081,-0.930296
1480621942218225,-1.18766,0.0256173,-0.930209
1480621942232763,-1.18766,0.0256173,-0.930209
1480621942262843,-1.18766,0.0256173,-0.930209
1480621942279389,-1.18774,0.0257081,-0.930296
1480621942292923,-1.18773,0.0257686,-0.93017
1480621942323003,-1.18773,0.0257686,-0.93017
1480621942347569,-1.18774,0.0257081,-0.930296
1480621942369126,-1.18774,0.0257081,-0.930296
1480621942375644,-1.18766,0.0256173,-0.930209
1480621942398204,-1.18788,0.0256635,-0.930315
1480621942423271,-1.18787,0.025724,-0.930189
1480621942437307,-1.18787,0.025724,-0.930189
1480621942457861,-1.18787,0.025724,-0.930189
1480621942474407,-1.18787,0.025724,-0.930189
1480621942495462,-1.18787,0.025724,-0.930189
1480621942518022,-1.18787,0.025724,-0.930189
1480621942534566,-1.18787,0.025724,-0.930189
1480621942557127,-1.18792,0.0257831,-0.93025
1480621942578184,-1.18792,0.0257831,-0.93025
1480621942595728,-1.18792,0.0257831,-0.93025
1480621942615284,-1.18792,0.0257831,-0.93025
1480621942656391,-1.18792,0.0257831,-0.93025
1480621942660401,-1.18792,0.0257831,-0.93025
1480621942676945,-1.18792,0.0257831,-0.93025
1480621942707027,-1.18792,0.0257831,-0.93025
1480621942716052,-1.18792,0.0257831,-0.93025
1480621942735601,-1.18792,0.0257831,-0.93025
1480621942758161,-1.18792,0.0257831,-0.93025
1480621942776209,-1.18799,0.0259344,-0.930211
1480621942795260,-1.18813,0.0258898,-0.93023
1480621942817820,-1.18813,0.0258898,-0.93023
1480621942840380,-1.18813,0.0258898,-0.93023
1480621942855421,-1.18813,0.0258898,-0.93023
1480621942885500,-1.18813,0.0258898,-0.93023
1480621942896529,-1.18813,0.0258898,-0.93023
1480621942926108,-1.18813,0.0258898,-0.93023
1480621942938140,-1.18813,0.0258898,-0.93023
1480621942955687,-1.18821,0.0259806,-0.930318
1480621942985767,-1.18806,0.0260252,-0.930299
1480621942997799,-1.18813,0.0258898,-0.93023
1480621943015847,-1.18821,0.0259806,-0.930318
1480621943051943,-1.18821,0.0259806,-0.930318
1480621943065981,-1.1882,0.0260411,-0.930192
1480621943080518,-1.1882,0.0260411,-0.930192
1480621943095559,-1.1882,0.0260411,-0.930192
1480621943118119,-1.1882,0.0260411,-0.930192
1480621943136167,-1.1882,0.0260411,-0.930192
1480621943156721,-1.1882,0.0260411,-0.930192
1480621943178281,-1.18827,0.0261319,-0.930279
1480621943203345,-1.18825,0.0261001,-0.930252
1480621943216883,-1.18827,0.0261319,-0.930279
1480621943237937,-1.1884,0.0260555,-0.930271
1480621943255985,-1.1884,0.0260555,-0.930271
1480621943275538,-1.18825,0.0261001,-0.930252
1480621943298098,-1.1884,0.0260555,-0.930271
1480621943323165,-1.1884,0.0260555,-0.930271
1480621943344726,-1.1884,0.0260555,-0.930271
1480621943357756,-1.1884,0.0260555,-0.930271
1480621943380318,-1.1884,0.0260555,-0.930271
1480621943396860,-1.1884,0.0260555,-0.930271
1480621943417917,-1.1884,0.0260555,-0.930271
1480621943435965,-1.18846,0.0262068,-0.930233
1480621943458524,-1.18846,0.0262068,-0.930233
1480621943479580,-1.18839,0.026116,-0.930146
1480621943496125,-1.1884,0.0260555,-0.930271
1480621943519186,-1.1884,0.0260555,-0.930271
1480621943537736,-1.1884,0.0260555,-0.930271
1480621943560798,-1.1884,0.0260555,-0.930271
1480621943576840,-1.1884,0.0260555,-0.930271
1480621943600903,-1.1884,0.0260555,-0.930271
1480621943621959,-1.1884,0.0260555,-0.930271
1480621943638505,-1.18818,0.0260093,-0.930165
1480621943666076,-1.18832,0.0259647,-0.930184
1480621943680615,-1.18832,0.0259647,-0.930184
1480621943706183,-1.1884,0.0260555,-0.930271
1480621943718216,-1.1882,0.0260411,-0.930192
1480621943741778,-1.1882,0.0260411,-0.930192
1480621943758323,-1.1882,0.0260411,-0.930192
1480621943777877,-1.18821,0.0259806,-0.930318
1480621943803442,-1.18821,0.0259806,-0.930318
1480621943818983,-1.18819,0.0259488,-0.930291
1480621943838034,-1.18821,0.0259806,-0.930318
1480621943860598,-1.18821,0.0259806,-0.930318
1480621943878645,-1.18813,0.0258898,-0.93023
1480621943898194,-1.18813,0.0258898,-0.93023
1480621943920252,-1.18813,0.0258898,-0.93023
1480621943938301,-1.18813,0.0258898,-0.93023
1480621943957852,-1.18813,0.0258898,-0.93023
1480621943983922,-1.18799,0.0259344,-0.930211
1480621944002973,-1.18792,0.0257831,-0.93025
1480621944018012,-1.18792,0.0257831,-0.93025
1480621944040572,-1.18792,0.0257831,-0.93025
1480621944066140,-1.18792,0.0257831,-0.93025
1480621944085694,-1.18795,0.0258149,-0.930277
1480621944100232,-1.18795,0.0258149,-0.930277
1480621944118279,-1.18787,0.025724,-0.930189
1480621944137831,-1.18787,0.025724,-0.930189
1480621944160393,-1.18788,0.0256635,-0.930315
1480621944178942,-1.18788,0.0256635,-0.930315
1480621944200999,-1.18788,0.0256635,-0.930315
1480621944220553,-1.18774,0.0257081,-0.930296
1480621944238600,-1.18766,0.0256173,-0.930209
1480621944261661,-1.18766,0.0256173,-0.930209
1480621944287730,-1.18766,0.0256173,-0.930209
1480621944298259,-1.18781,0.0255727,-0.930228
1480621944319315,-1.18766,0.0256173,-0.930209
1480621944341875,-1.18792,0.0257831,-0.93025
1480621944358419,-1.18811,0.0258579,-0.930204
1480621944385491,-1.18813,0.0258898,-0.93023
1480621944400531,-1.18815,0.0258293,-0.930356
1480621944418578,-1.18815,0.0258293,-0.930356
1480621944439634,-1.18812,0.0257975,-0.93033
1480621944476236,-1.18812,0.0257975,-0.93033
1480621944485757,-1.18815,0.0258293,-0.930356
1480621944499293,-1.18815,0.0258293,-0.930356
1480621944520349,-1.18807,0.0257385,-0.930269
1480621944538397,-1.18807,0.0257385,-0.930269
1480621944559455,-1.18807,0.0257385,-0.930269
1480621944582015,-1.18807,0.0257385,-0.930269
1480621944599559,-1.18807,0.0257385,-0.930269
1480621944625629,-1.18807,0.0257385,-0.930269
1480621944640670,-1.18807,0.0257385,-0.930269
1480621944658216,-1.18801,0.0255871,-0.930308
1480621944681278,-1.18801,0.0255871,-0.930308
1480621944700328,-1.18801,0.0255871,-0.930308
1480621944718380,-1.18801,0.0255871,-0.930308
1480621944747049,-1.18801,0.0255871,-0.930308
1480621944760492,-1.18786,0.0256317,-0.930289
1480621944784552,-1.18786,0.0256317,-0.930289
1480621944801096,-1.18786,0.0256317,-0.930289
1480621944820648,-1.18786,0.0256317,-0.930289
1480621944838195,-1.18786,0.0256317,-0.930289
1480621944860756,-1.18786,0.0256317,-0.930289
1480621944880309,-1.18786,0.0256317,-0.930289
1480621944910890,-1.18801,0.0255871,-0.930308
1480621944920915,-1.18786,0.0256317,-0.930289
1480621944940475,-1.18786,0.0256317,-0.930289
1480621944958515,-1.18786,0.0256317,-0.930289
1480621944988595,-1.18786,0.0256317,-0.930289
1480621945000626,-1.18786,0.0256317,-0.930289
1480621945033213,-1.18779,0.0255409,-0.930201
1480621945040734,-1.18779,0.0255409,-0.930201
1480621945060788,-1.18779,0.0255409,-0.930201
1480621945082845,-1.18786,0.0256317,-0.930289
1480621945100894,-1.18786,0.0256317,-0.930289
1480621945120446,-1.18779,0.0255409,-0.930201
1480621945143007,-1.18779,0.0255409,-0.930201
1480621945161056,-1.18779,0.0255409,-0.930201
1480621945180606,-1.18779,0.0255409,-0.930201
1480621945203166,-1.18779,0.0255409,-0.930201
1480621945220713,-1.18779,0.0255409,-0.930201
1480621945257811,-1.18779,0.0255409,-0.930201
1480621945264328,-1.18779,0.0255409,-0.930201
1480621945288394,-1.18779,0.0255409,-0.930201
1480621945309451,-1.18779,0.0255409,-0.930201
1480621945322984,-1.18779,0.0255409,-0.930201
1480621945341033,-1.18779,0.0255409,-0.930201
1480621945362089,-1.18779,0.0255409,-0.930201
1480621945383146,-1.18779,0.0255409,-0.930201
1480621945401192,-1.18779,0.0255409,-0.930201
1480621945421747,-1.1878,0.0254804,-0.930327
1480621945442804,-1.1878,0.0254804,-0.930327
1480621945460853,-1.18779,0.0255409,-0.930201
1480621945481908,-1.18781,0.0255727,-0.930228
1480621945502963,-1.18766,0.0256173,-0.930209
1480621945544075,-1.18766,0.0256173,-0.930209
1480621945548083,-1.18767,0.0255568,-0.930335
1480621945566133,-1.18767,0.0255568,-0.930335
1480621945587188,-1.18766,0.0256173,-0.930209
1480621945603230,-1.18766,0.0256173,-0.930209
1480621945622782,-1.18766,0.0256173,-0.930209
1480621945640831,-1.18781,0.0255727,-0.930228
1480621945663390,-1.18779,0.0255409,-0.930201
1480621945682942,-1.18781,0.0255727,-0.930228
1480621945700990,-1.18781,0.0255727,-0.930228
1480621945723550,-1.18788,0.0256635,-0.930315
1480621945743103,-1.18786,0.0256317,-0.930289
1480621945761150,-1.18786,0.0256317,-0.930289
1480621945783208,-1.18786,0.0256317,-0.930289
1480621945819806,-1.18786,0.0256317,-0.930289
1480621945822313,-1.18786,0.0256317,-0.930289
1480621945851390,-1.18788,0.0256635,-0.930315
1480621945862921,-1.18786,0.0256317,-0.930289
1480621945880969,-1.18786,0.0256317,-0.930289
1480621945903529,-1.18786,0.0256317,-0.930289
1480621945923080,-1.18786,0.0256317,-0.930289
1480621945940628,-1.18786,0.0256317,-0.930289
1480621945963690,-1.18786,0.0256317,-0.930289
1480621945982740,-1.18792,0.0257831,-0.93025
1480621946005300,-1.18792,0.0257831,-0.93025
1480621946030868,-1.18792,0.0257831,-0.93025
1480621946042900,-1.18792,0.0257831,-0.93025
1480621946062451,-1.18785,0.0256922,-0.930163
1480621946098046,-1.18792,0.0257831,-0.93025
1480621946103060,-1.18792,0.0257831,-0.93025
1480621946121109,-1.18792,0.0257831,-0.93025
1480621946151188,-1.18792,0.0257831,-0.93025
1480621946164226,-1.18792,0.0257831,-0.93025
1480621946180766,-1.18792,0.0257831,-0.93025
1480621946203327,-1.18792,0.0257831,-0.93025
1480621946224382,-1.18792,0.0257831,-0.93025
1480621946240927,-1.18792,0.0257831,-0.93025
1480621946264990,-1.18792,0.0257831,-0.93025
1480621946286047,-1.18792,0.0257831,-0.93025
1480621946301588,-1.18807,0.0257385,-0.930269
1480621946323647,-1.18807,0.0257385,-0.930269
1480621946344203,-1.18815,0.0258293,-0.930356
1480621946375787,-1.18813,0.0258898,-0.93023
1480621946383305,-1.18813,0.0258898,-0.93023
1480621946404361,-1.18815,0.0258293,-0.930356
1480621946435946,-1.18815,0.0258293,-0.930356
1480621946443465,-1.18815,0.0258293,-0.930356
1480621946472065,-1.18815,0.0258293,-0.930356
1480621946481066,-1.18815,0.0258293,-0.930356
1480621946503630,-1.18813,0.0258898,-0.93023
1480621946525685,-1.188,0.0258739,-0.930337
1480621946540724,-1.188,0.0258739,-0.930337
1480621946563284,-1.18792,0.0257831,-0.93025
1480621946591860,-1.18759,0.0255265,-0.930122
1480621946600885,-1.18732,0.0253607,-0.930081
1480621946623945,-1.18731,0.0254212,-0.929955
1480621946653524,-1.18732,0.0253607,-0.930081
1480621946666058,-1.18735,0.0253925,-0.930108
1480621946683605,-1.18735,0.0253925,-0.930108
1480621946705662,-1.18686,0.0251805,-0.929961
1480621946727721,-1.18686,0.0251805,-0.929961
1480621946742261,-1.18686,0.0251805,-0.929961
1480621946765823,-1.18686,0.0251805,-0.929961
1480621946787381,-1.18686,0.0251805,-0.929961
1480621946802421,-1.18679,0.0250896,-0.929874
1480621946824980,-1.1868,0.0250291,-0.93
1480621946862078,-1.18679,0.0250896,-0.929874
1480621946868600,-1.18686,0.0251805,-0.929961
1480621946885146,-1.18679,0.0250896,-0.929874
1480621946913722,-1.1868,0.0250291,-0.93
1480621946923748,-1.18682,0.0250609,-0.930027
1480621946951323,-1.18674,0.02497,-0.92994
1480621946982906,-1.1866,0.0250147,-0.929921
1480621946985413,-1.18674,0.02497,-0.92994
1480621947004965,-1.18674,0.02497,-0.92994
1480621947027525,-1.1866,0.0250147,-0.929921
1480621947050587,-1.18661,0.0249542,-0.930046
1480621947066127,-1.18653,0.0248633,-0.92996
1480621947094202,-1.18653,0.0248633,-0.92996
1480621947104730,-1.18653,0.0248633,-0.92996
1480621947148848,-1.18668,0.0248187,-0.929978
1480621947153359,-1.18653,0.0248633,-0.92996
1480621947163386,-1.18653,0.0248633,-0.92996
1480621947184943,-1.18653,0.0248633,-0.92996
1480621947207505,-1.18653,0.0248633,-0.92996
1480621947222545,-1.18653,0.0248633,-0.92996
1480621947245605,-1.18653,0.0248633,-0.92996
1480621947267664,-1.18653,0.0248633,-0.92996
1480621947282704,-1.18668,0.0248187,-0.929978
1480621947305263,-1.18646,0.0247725,-0.929872
1480621947326322,-1.18647,0.024712,-0.929998
1480621947342864,-1.18647,0.024712,-0.929998
1480621947372442,-1.18647,0.024712,-0.929998
1480621947385978,-1.18647,0.024712,-0.929998
1480621947403525,-1.18647,0.024712,-0.929998
1480621947425082,-1.18647,0.024712,-0.929998
1480621947446138,-1.18647,0.024712,-0.929998
1480621947462683,-1.1868,0.0247424,-0.929971
1480621947485242,-1.1868,0.0247424,-0.929971
1480621947507803,-1.1868,0.0247424,-0.929971
1480621947522341,-1.1868,0.0247424,-0.929971
1480621947545904,-1.1868,0.0247424,-0.929971
1480621947567962,-1.18682,0.0246819,-0.930097
1480621947582501,-1.18674,0.024591,-0.93001
1480621947605061,-1.18674,0.024591,-0.93001
1480621947627622,-1.18674,0.024591,-0.93001
1480621947642160,-1.18674,0.024591,-0.93001
1480621947673744,-1.18682,0.0246819,-0.930097
1480621947687279,-1.18674,0.024591,-0.93001
1480621947716357,-1.18674,0.024591,-0.93001
1480621947725381,-1.18674,0.024591,-0.93001
1480621947747440,-1.18674,0.024591,-0.93001
1480621947762480,-1.18678,0.0247106,-0.929944
1480621947785040,-1.1868,0.0247424,-0.929971
1480621947813622,-1.18682,0.0246819,-0.930097
1480621947822138,-1.18674,0.024591,-0.93001
1480621947860741,-1.18674,0.024591,-0.93001
1480621947873775,-1.1868,0.0247424,-0.929971
1480621947881797,-1.18678,0.0247106,-0.929944
1480621947904858,-1.18678,0.0247106,-0.929944
1480621947927920,-1.18678,0.0247106,-0.929944
1480621947948475,-1.18678,0.0247106,-0.929944
1480621947965520,-1.18678,0.0247106,-0.929944
1480621947987579,-1.18678,0.0247106,-0.929944
1480621948009138,-1.18678,0.0247106,-0.929944
1480621948025178,-1.1868,0.0247424,-0.929971
1480621948047741,-1.1868,0.0247424,-0.929971
1480621948076315,-1.1868,0.0247424,-0.929971
1480621948092357,-1.1868,0.0247424,-0.929971
1480621948107397,-1.18678,0.0247106,-0.929944
1480621948128453,-1.18678,0.0247106,-0.929944
1480621948144997,-1.18686,0.0248014,-0.930031
1480621948167557,-1.18686,0.0248014,-0.930031
1480621948188614,-1.18688,0.0248332,-0.930058
1480621948205159,-1.18686,0.0248014,-0.930031
1480621948228218,-1.18678,0.0247106,-0.929944
1480621948248774,-1.18686,0.0248014,-0.930031
1480621948265319,-1.187,0.0247568,-0.93005
1480621948287376,-1.187,0.0247568,-0.93005
1480621948308432,-1.18686,0.0248014,-0.930031
1480621948324976,-1.18686,0.0248014,-0.930031
1480621948348038,-1.18688,0.0248332,-0.930058
1480621948368592,-1.18686,0.0248014,-0.930031
1480621948392656,-1.18685,0.0248619,-0.929905
1480621948407697,-1.18685,0.0248619,-0.929905
1480621948430256,-1.18692,0.0249528,-0.929992
1480621948452816,-1.18685,0.0248619,-0.929905
1480621948467355,-1.18685,0.0248619,-0.929905
1480621948490918,-1.18707,0.0249081,-0.930011
1480621948505456,-1.18707,0.0249081,-0.930011
1480621948535035,-1.18707,0.0249081,-0.930011
1480621948550076,-1.18707,0.0249081,-0.930011
1480621948565116,-1.18707,0.0249081,-0.930011
1480621948588176,-1.18707,0.0249081,-0.930011
1480621948609735,-1.18707,0.0249081,-0.930011
1480621948624272,-1.18707,0.0249081,-0.930011
1480621948648838,-1.18713,0.0250595,-0.929972
1480621948670396,-1.18713,0.0250595,-0.929972
1480621948692460,-1.18698,0.0251041,-0.929953
1480621948707494,-1.18692,0.0249528,-0.929992
1480621948730053,-1.18692,0.0249528,-0.929992
1480621948758630,-1.187,0.0250436,-0.930079
1480621948767656,-1.18713,0.0250595,-0.929972
1480621948790717,-1.18713,0.0250595,-0.929972
1480621948812774,-1.18698,0.0251041,-0.929953
1480621948827312,-1.18698,0.0251041,-0.929953
1480621948849873,-1.18698,0.0251041,-0.929953
1480621948864913,-1.18698,0.0251041,-0.929953
1480621948894994,-1.18698,0.0251041,-0.929953
1480621948910035,-1.18721,0.0251503,-0.93006
1480621948931088,-1.18721,0.0251503,-0.93006
1480621948948134,-1.18706,0.0251949,-0.930041
1480621948970694,-1.18706,0.0251949,-0.930041
1480621948991249,-1.18721,0.0251503,-0.93006
1480621949008295,-1.18706,0.0251949,-0.930041
1480621949029851,-1.18705,0.0252554,-0.929915
1480621949051409,-1.18705,0.0252554,-0.929915
1480621949067451,-1.18705,0.0252554,-0.929915
1480621949097532,-1.18705,0.0252554,-0.929915
1480621949111569,-1.18706,0.0251949,-0.930041
1480621949127613,-1.18706,0.0251949,-0.930041
1480621949150673,-1.18705,0.0252554,-0.929915
1480621949172731,-1.18712,0.0253463,-0.930002
1480621949187772,-1.18712,0.0253463,-0.930002
1480621949210334,-1.18715,0.025378,-0.930028
1480621949230886,-1.18715,0.025378,-0.930028
1480621949247430,-1.18693,0.0253318,-0.929922
1480621949269990,-1.18715,0.025378,-0.930028
1480621949291047,-1.187,0.0254226,-0.930009
1480621949307591,-1.18715,0.025378,-0.930028
1480621949337169,-1.187,0.0254226,-0.930009
1480621949352710,-1.18715,0.025378,-0.930028
1480621949367750,-1.18707,0.0252872,-0.929941
1480621949390310,-1.18715,0.025378,-0.930028
1480621949412870,-1.18715,0.025378,-0.930028
1480621949427410,-1.18715,0.025378,-0.930028
1480621949450471,-1.18715,0.025378,-0.930028
1480621949472529,-1.18715,0.025378,-0.930028
1480621949487570,-1.18707,0.0252872,-0.929941
1480621949516149,-1.18707,0.0252872,-0.929941
1480621949532689,-1.18707,0.0252872,-0.929941
1480621949546727,-1.18707,0.0252872,-0.929941
1480621949569788,-1.18707,0.0252872,-0.929941
1480621949592850,-1.18693,0.0253318,-0.929922
1480621949606887,-1.18694,0.0252713,-0.930048
1480621949637468,-1.18686,0.0251805,-0.929961
1480621949652508,-1.18686,0.0251805,-0.929961
1480621949667047,-1.18701,0.0251358,-0.92998
1480621949690108,-1.18701,0.0251358,-0.92998
1480621949713169,-1.18701,0.0251358,-0.92998
1480621949726717,-1.18701,0.0251358,-0.92998
1480621949750268,-1.18686,0.0251805,-0.929961
1480621949772327,-1.18686,0.0251805,-0.929961
1480621949786865,-1.18686,0.0251805,-0.929961
1480621949809928,-1.18686,0.0251805,-0.929961
1480621949832987,-1.18686,0.0251805,-0.929961
1480621949853542,-1.1868,0.0250291,-0.93
1480621949877609,-1.18682,0.0250609,-0.930027
1480621949898662,-1.1868,0.0250291,-0.93
1480621949913703,-1.1868,0.0250291,-0.93
1480621949930248,-1.1868,0.0250291,-0.93
1480621949952806,-1.1868,0.0250291,-0.93
1480621949980881,-1.1868,0.0250291,-0.93
1480621949989906,-1.187,0.0250436,-0.930079
1480621950012466,-1.18733,0.025074,-0.930052
1480621950033521,-1.18718,0.0251185,-0.930033
1480621950050066,-1.18718,0.0251185,-0.930033
1480621950080146,-1.18718,0.0251185,-0.930033
1480621950093681,-1.18718,0.0251185,-0.930033
1480621950110226,-1.18721,0.0251503,-0.93006
1480621950132785,-1.18713,0.0250595,-0.929972
1480621950153841,-1.18714,0.024999,-0.930098
1480621950184924,-1.18713,0.0250595,-0.929972
1480621950194951,-1.18721,0.0251503,-0.93006
1480621950213500,-1.18721,0.0251503,-0.93006
1480621950230044,-1.18721,0.0251503,-0.93006
1480621950260124,-1.18721,0.0251503,-0.93006
1480621950273660,-1.18713,0.0250595,-0.929972
1480621950290206,-1.18721,0.0251503,-0.93006
1480621950312765,-1.18721,0.0251503,-0.93006
1480621950335325,-1.18721,0.0251503,-0.93006
1480621950358388,-1.18721,0.0251503,-0.93006
1480621950372424,-1.18721,0.0251503,-0.93006
1480621950394982,-1.18721,0.0251503,-0.93006
1480621950410025,-1.18721,0.0251503,-0.93006
1480621950432583,-1.18721,0.0251503,-0.93006
1480621950455144,-1.18721,0.0251503,-0.93006
1480621950469682,-1.18721,0.0251503,-0.93006
1480621950493246,-1.18721,0.0251503,-0.93006
1480621950515303,-1.18721,0.0251503,-0.93006
1480621950535858,-1.18721,0.0251503,-0.93006
1480621950558418,-1.18721,0.0251503,-0.93006
1480621950582482,-1.18728,0.0252411,-0.930147
1480621950596018,-1.18727,0.0253016,-0.930021
1480621950612562,-1.18728,0.0252411,-0.930147
1480621950635122,-1.18721,0.0251503,-0.93006
1480621950649160,-1.18721,0.0251503,-0.93006
1480621950672723,-1.18728,0.0252411,-0.930147
1480621950694781,-1.18727,0.0253016,-0.930021
1480621950709322,-1.18727,0.0253016,-0.930021
1480621950739901,-1.18727,0.0253016,-0.930021
1480621950755943,-1.18727,0.0253016,-0.930021
1480621950769480,-1.18712,0.0253463,-0.930002
1480621950792542,-1.18727,0.0253016,-0.930021
1480621950815602,-1.18735,0.0253925,-0.930108
1480621950837661,-1.1878,0.0256332,-0.930102
1480621950852701,-1.1878,0.0256332,-0.930102
1480621950875277,-1.1878,0.0256332,-0.930102
1480621950896317,-1.1878,0.0256332,-0.930102
1480621950912360,-1.1878,0.0256332,-0.930102
1480621950934919,-1.18794,0.0255886,-0.930121
1480621950955976,-1.18794,0.0255886,-0.930121
1480621950973021,-1.1878,0.0256332,-0.930102
1480621950995081,-1.1878,0.0256332,-0.930102
1480621951016136,-1.1878,0.0256332,-0.930102
1480621951032679,-1.1878,0.0256332,-0.930102
1480621951055239,-1.18794,0.0255886,-0.930121
1480621951076298,-1.188,0.0256476,-0.930182
1480621951092843,-1.18801,0.0257399,-0.930083
1480621951115902,-1.18786,0.0257845,-0.930064
1480621951135958,-1.18787,0.025724,-0.930189
1480621951152499,-1.18787,0.025724,-0.930189
1480621951175060,-1.18787,0.025724,-0.930189
1480621951196114,-1.18786,0.0257845,-0.930064
1480621951212658,-1.18801,0.0257399,-0.930083
1480621951235219,-1.18808,0.0258308,-0.93017
1480621951257779,-1.18794,0.0258754,-0.930151
1480621951278835,-1.18794,0.0258754,-0.930151
1480621951294877,-1.18794,0.0258754,-0.930151
1480621951317438,-1.18808,0.0258308,-0.93017
1480621951332477,-1.18806,0.0257989,-0.930143
1480621951355037,-1.18806,0.0257989,-0.930143
1480621951377606,-1.18808,0.0258308,-0.93017
1480621951392646,-1.18794,0.0258754,-0.930151
1480621951415203,-1.18794,0.0258754,-0.930151
1480621951437764,-1.18805,0.0258594,-0.930017
1480621951451800,-1.18812,0.0259502,-0.930105
1480621951474862,-1.18812,0.0259502,-0.930105
1480621951497421,-1.18812,0.0259502,-0.930105
1480621951511960,-1.18812,0.0259502,-0.930105
1480621951535021,-1.18812,0.0259502,-0.930105
1480621951557581,-1.18812,0.0259502,-0.930105
1480621951572120,-1.1882,0.0260411,-0.930192
1480621951595682,-1.18819,0.0261016,-0.930066
1480621951617741,-1.18833,0.026057,-0.930085
1480621951631779,-1.18819,0.0261016,-0.930066
1480621951654840,-1.18819,0.0261016,-0.930066
1480621951677401,-1.18833,0.026057,-0.930085
1480621951691938,-1.18833,0.026057,-0.930085
1480621951715001,-1.18806,0.026178,-0.930074
1480621951737561,-1.18814,0.0262689,-0.930161
1480621951760121,-1.18814,0.0262689,-0.930161
1480621951775161,-1.18814,0.0262689,-0.930161
1480621951805239,-1.18814,0.0262689,-0.930161
1480621951818776,-1.18814,0.0262689,-0.930161
1480621951835320,-1.18814,0.0262689,-0.930161
1480621951858381,-1.18813,0.0263293,-0.930035
1480621951878435,-1.1882,0.0264202,-0.930122
1480621951894979,-1.1882,0.0264202,-0.930122
1480621951925560,-1.1882,0.0264202,-0.930122
1480621951939096,-1.1882,0.0264202,-0.930122
1480621951955139,-1.1882,0.0264202,-0.930122
1480621951977699,-1.18835,0.0263756,-0.930141
1480621951998754,-1.1882,0.0264202,-0.930122
1480621952015299,-1.1882,0.0264202,-0.930122
1480621952037358,-1.1882,0.0264202,-0.930122
1480621952059917,-1.1882,0.0264202,-0.930122
1480621952074957,-1.1882,0.0264202,-0.930122
1480621952105037,-1.18835,0.0263756,-0.930141
1480621952135618,-1.18835,0.0263756,-0.930141
1480621952138126,-1.1882,0.0264202,-0.930122
1480621952157677,-1.1882,0.0264202,-0.930122
1480621952178734,-1.1882,0.0264202,-0.930122
1480621952203299,-1.1882,0.0264202,-0.930122
1480621952217841,-1.1882,0.0264202,-0.930122
1480621952239896,-1.1882,0.0264202,-0.930122
1480621952254937,-1.1882,0.0264202,-0.930122
1480621952277497,-1.1882,0.0264202,-0.930122
1480621952300057,-1.1882,0.0264202,-0.930122
1480621952322617,-1.1882,0.0264202,-0.930122
1480621952337657,-1.1882,0.0264202,-0.930122
1480621952382776,-1.1882,0.0264202,-0.930122
1480621952390296,-1.1882,0.0264202,-0.930122
1480621952398819,-1.1882,0.0264202,-0.930122
1480621952419875,-1.18813,0.0263293,-0.930035
1480621952434413,-1.18813,0.0263293,-0.930035
1480621952457478,-1.18813,0.0263293,-0.930035
1480621952480036,-1.1882,0.0264202,-0.930122
1480621952501091,-1.1882,0.0264202,-0.930122
1480621952518136,-1.1882,0.0264202,-0.930122
1480621952540195,-1.18813,0.0263293,-0.930035
1480621952562755,-1.18759,0.0259055,-0.930052
1480621952577799,-1.18759,0.0259055,-0.930052
1480621952599854,-1.18759,0.0259055,-0.930052
1480621952637956,-1.18759,0.0259055,-0.930052
1480621952640462,-1.18761,0.0259373,-0.930079
1480621952667533,-1.18761,0.0259373,-0.930079
1480621952690094,-1.18754,0.0258464,-0.929992
1480621952697628,-1.18754,0.0258464,-0.929992
1480621952720174,-1.18754,0.0258464,-0.929992
1480621952741231,-1.18754,0.0258464,-0.929992
1480621952757775,-1.18754,0.0258464,-0.929992
1480621952779833,-1.18754,0.0258464,-0.929992
1480621952800888,-1.1874,0.0258306,-0.930099
1480621952817433,-1.18733,0.0257397,-0.930011
1480621952840996,-1.18733,0.0257397,-0.930011
1480621952861052,-1.18733,0.0257397,-0.930011
1480621952877593,-1.18747,0.0256951,-0.93003
1480621952905667,-1.18747,0.0256951,-0.93003
1480621952922713,-1.18747,0.0256951,-0.93003
1480621952937251,-1.18747,0.0256951,-0.93003
1480621952974351,-1.18747,0.0256951,-0.93003
1480621952981370,-1.18747,0.0256951,-0.93003
1480621952998414,-1.18747,0.0256951,-0.93003
1480621953019971,-1.18733,0.0257397,-0.930011
1480621953041028,-1.18733,0.0257397,-0.930011
1480621953059076,-1.18726,0.0255884,-0.93005
1480621953086649,-1.18726,0.0255884,-0.93005
1480621953101187,-1.18726,0.0255884,-0.93005
1480621953117731,-1.18726,0.0255884,-0.93005
1480621953140292,-1.18726,0.0255884,-0.93005
1480621953162353,-1.18726,0.0255884,-0.93005
1480621953177390,-1.18726,0.0255884,-0.93005
1480621953199950,-1.18726,0.0255884,-0.93005
1480621953222510,-1.18726,0.0255884,-0.93005
1480621953237049,-1.18726,0.0255884,-0.93005
1480621953260111,-1.18726,0.0255884,-0.93005
1480621953282670,-1.18726,0.0255884,-0.93005
1480621953297711,-1.18729,0.0256202,-0.930077
1480621953320270,-1.18721,0.0255294,-0.92999
1480621953342330,-1.18721,0.0255294,-0.92999
1480621953356868,-1.18706,0.025574,-0.929971
1480621953379929,-1.18721,0.0255294,-0.92999
1480621953419033,-1.18706,0.025574,-0.929971
1480621953423545,-1.18706,0.025574,-0.929971
1480621953440090,-1.18706,0.025574,-0.929971
1480621953470169,-1.18706,0.025574,-0.929971
1480621953477188,-1.18706,0.025574,-0.929971
1480621953500751,-1.18706,0.025574,-0.929971
1480621953522307,-1.18714,0.0256648,-0.930058
1480621953536846,-1.18714,0.0256648,-0.930058
1480621953559910,-1.18714,0.0256648,-0.930058
1480621953589987,-1.18714,0.0256648,-0.930058
1480621953597006,-1.18714,0.0256648,-0.930058
1480621953620569,-1.18714,0.0256648,-0.930058
1480621953642637,-1.18714,0.0256648,-0.930058
1480621953663684,-1.18713,0.0257253,-0.929932
1480621953686244,-1.18714,0.0256648,-0.930058
1480621953702789,-1.18714,0.0256648,-0.930058
1480621953723342,-1.18714,0.0256648,-0.930058
1480621953739887,-1.18713,0.0257253,-0.929932
1480621953763951,-1.1872,0.0258161,-0.930019
1480621953785007,-1.1872,0.0258161,-0.930019
1480621953800048,-1.1872,0.0258161,-0.930019
1480621953822607,-1.1872,0.0258161,-0.930019
1480621953843665,-1.1872,0.0258161,-0.930019
1480621953868730,-1.1872,0.0258161,-0.930019
1480621953882766,-1.1872,0.0258161,-0.930019
1480621953904825,-1.1872,0.0258161,-0.930019
1480621953920367,-1.1872,0.0258161,-0.930019
1480621953942930,-1.1872,0.0258161,-0.930019
1480621953965487,-1.18706,0.0258607,-0.93
1480621953980025,-1.18706,0.0258607,-0.93
1480621954002585,-1.1872,0.0258161,-0.930019
1480621954023641,-1.1872,0.0258161,-0.930019
1480621954040186,-1.18727,0.0259674,-0.92998
1480621954062745,-1.18712,0.026012,-0.929961
1480621954083802,-1.18712,0.026012,-0.929961
1480621954100346,-1.18712,0.026012,-0.929961
1480621954122404,-1.18712,0.026012,-0.929961
1480621954144965,-1.18712,0.026012,-0.929961
1480621954167525,-1.18734,0.0260583,-0.930068
1480621954182565,-1.18734,0.0260583,-0.930068
1480621954205125,-1.18734,0.0260583,-0.930068
1480621954219664,-1.18734,0.0260583,-0.930068
1480621954257767,-1.18734,0.0260583,-0.930068
1480621954265284,-1.18733,0.0261188,-0.929942
1480621954279323,-1.18741,0.0262096,-0.930029
1480621954302383,-1.18741,0.0262096,-0.930029
1480621954324943,-1.18741,0.0262096,-0.930029
1480621954339482,-1.18741,0.0262096,-0.930029
1480621954362544,-1.18741,0.0262096,-0.930029
1480621954386607,-1.18741,0.0262096,-0.930029
1480621954408165,-1.18741,0.0262096,-0.930029
1480621954424210,-1.18748,0.0263005,-0.930116
1480621954445263,-1.18741,0.0262096,-0.930029
1480621954474843,-1.18741,0.0262096,-0.930029
1480621954482363,-1.18741,0.0262096,-0.930029
1480621954504922,-1.18741,0.0262096,-0.930029
1480621954519461,-1.18741,0.0262096,-0.930029
1480621954542522,-1.18748,0.0263005,-0.930116
1480621954565583,-1.18748,0.0263005,-0.930116
1480621954579620,-1.18748,0.0263005,-0.930116
1480621954608700,-1.18748,0.0263005,-0.930116
1480621954632261,-1.18763,0.0262559,-0.930135
1480621954645797,-1.18759,0.0262846,-0.929983
1480621954662841,-1.18759,0.0262846,-0.929983
1480621954684900,-1.18727,0.0263465,-0.929911
1480621954706458,-1.18735,0.0264374,-0.929998
1480621954722500,-1.18735,0.0264374,-0.929998
1480621954752581,-1.18735,0.0264374,-0.929998
1480621954765616,-1.18747,0.0263609,-0.92999
1480621954782661,-1.18747,0.0263609,-0.92999
1480621954805723,-1.18747,0.0263609,-0.92999
1480621954826277,-1.18747,0.0263609,-0.92999
1480621954842822,-1.18735,0.0264374,-0.929998
1480621954870895,-1.18747,0.0263609,-0.92999
1480621954885935,-1.18747,0.0263609,-0.92999
1480621954902480,-1.18701,0.0261807,-0.92987
1480621954925039,-1.18667,0.025924,-0.929742
1480621954946098,-1.18626,0.0255764,-0.929527
1480621954977680,-1.18581,0.0253355,-0.929533
1480621954985200,-1.18581,0.0253355,-0.929533
1480621955023804,-1.18581,0.0253355,-0.929533
1480621955036336,-1.18594,0.0253513,-0.929426
1480621955044859,-1.18594,0.0253513,-0.929426
1480621955068421,-1.18594,0.0253513,-0.929426
1480621955082458,-1.18594,0.0253513,-0.929426
1480621955105018,-1.18594,0.0253513,-0.929426
1480621955135099,-1.18594,0.0253513,-0.929426
1480621955142620,-1.18594,0.0253513,-0.929426
1480621955173200,-1.18594,0.0253513,-0.929426
1480621955187738,-1.1858,0.0251091,-0.929378
1480621955201775,-1.18548,0.0247919,-0.929377
1480621955225340,-1.18525,0.0247456,-0.929271
1480621955254918,-1.18527,0.0246852,-0.929397
1480621955261936,-1.18527,0.0246852,-0.929397
1480621955300038,-1.18527,0.0246852,-0.929397
1480621955307558,-1.18527,0.0246852,-0.929397
1480621955322597,-1.18541,0.0246406,-0.929416
1480621955345157,-1.18527,0.0246852,-0.929397
1480621955368218,-1.18529,0.0247169,-0.929424
1480621955390277,-1.18521,0.024626,-0.929337
1480621955404816,-1.18529,0.0247169,-0.929424
1480621955427376,-1.18529,0.0247169,-0.929424
1480621955441919,-1.18529,0.0247169,-0.929424
1480621955472997,-1.18521,0.024626,-0.929337
1480621955487536,-1.18521,0.024626,-0.929337
1480621955502575,-1.18521,0.024626,-0.929337
1480621955532656,-1.18521,0.024626,-0.929337
1480621955555216,-1.18519,0.0245943,-0.92931
1480621955575772,-1.18519,0.0245943,-0.92931
1480621955586299,-1.18519,0.0245943,-0.92931
1480621955614875,-1.18519,0.0245943,-0.92931
1480621955638437,-1.1852,0.0245339,-0.929436
1480621955652977,-1.1852,0.0245339,-0.929436
1480621955667516,-1.18534,0.0245497,-0.929329
1480621955696092,-1.18534,0.0245497,-0.929329
1480621955705114,-1.18534,0.0245497,-0.929329
1480621955735195,-1.18534,0.0245497,-0.929329
1480621955750248,-1.18534,0.0245497,-0.929329
1480621955765777,-1.18535,0.0244892,-0.929455
1480621955787334,-1.18519,0.0245943,-0.92931
1480621955808394,-1.18534,0.0245497,-0.929329
1480621955830950,-1.18534,0.0245497,-0.929329
1480621955847494,-1.18534,0.0245497,-0.929329
1480621955868549,-1.18534,0.0245497,-0.929329
1480621955885094,-1.18535,0.0244892,-0.929455
1480621955908156,-1.18535,0.0244892,-0.929455
1480621955928709,-1.18534,0.0245497,-0.929329
1480621955945255,-1.18534,0.0245497,-0.929329
1480621955974833,-1.18534,0.0245497,-0.929329
1480621955988368,-1.18534,0.0245497,-0.929329
1480621956004912,-1.18535,0.0244892,-0.929455
1480621956027974,-1.18535,0.0244892,-0.929455
1480621956056048,-1.18535,0.0244892,-0.929455
1480621956072091,-1.18534,0.0245497,-0.929329
1480621956087633,-1.18534,0.0245497,-0.929329
1480621956110194,-1.18534,0.0245497,-0.929329
1480621956124230,-1.18535,0.0244892,-0.929455
1480621956147793,-1.18535,0.0244892,-0.929455
1480621956169852,-1.18535,0.0244892,-0.929455
1480621956184390,-1.18534,0.0245497,-0.929329
1480621956207452,-1.18534,0.0245497,-0.929329
1480621956230012,-1.18534,0.0245497,-0.929329
1480621956252572,-1.18534,0.0245497,-0.929329
1480621956267613,-1.18535,0.0244892,-0.929455
1480621956305213,-1.18535,0.0244892,-0.929455
1480621956307217,-1.18519,0.0245943,-0.92931
1480621956327270,-1.18519,0.0245943,-0.92931
1480621956357352,-1.18519,0.0245943,-0.92931
1480621956364369,-1.18519,0.0245943,-0.92931
1480621956387931,-1.1852,0.0245339,-0.929436
1480621956418011,-1.1852,0.0245339,-0.929436
1480621956424529,-1.18519,0.0245943,-0.92931
1480621956447592,-1.18519,0.0245943,-0.92931
1480621956470151,-1.18527,0.0246852,-0.929397
1480621956484189,-1.18527,0.0246852,-0.929397
1480621956507751,-1.18529,0.0247169,-0.929424
1480621956530310,-1.18527,0.0246852,-0.929397
1480621956582952,-1.18527,0.0246852,-0.929397
1480621956585457,-1.18527,0.0246852,-0.929397
1480621956591473,-1.18527,0.0246852,-0.929397
1480621956611026,-1.18527,0.0246852,-0.929397
1480621956635590,-1.18527,0.0246852,-0.929397
1480621956650129,-1.18527,0.0246852,-0.929397
1480621956678706,-1.18527,0.0246852,-0.929397
1480621956695256,-1.1854,0.0247009,-0.92929
1480621956709789,-1.18548,0.0247919,-0.929377
1480621956730843,-1.18548,0.0247919,-0.929377
1480621956747388,-1.18548,0.0247919,-0.929377
1480621956769948,-1.18548,0.0247919,-0.929377
1480621956791507,-1.18548,0.0247919,-0.929377
1480621956808049,-1.18548,0.0247919,-0.929377
1480621956830108,-1.18555,0.0248828,-0.929464
1480621956860187,-1.18555,0.0248828,-0.929464
1480621956867708,-1.18555,0.0248828,-0.929464
1480621956890268,-1.18555,0.0248828,-0.929464
1480621956912327,-1.18555,0.0248828,-0.929464
1480621956927367,-1.18566,0.0248669,-0.92933
1480621956949927,-1.18566,0.0248669,-0.92933
1480621956972988,-1.18566,0.0248669,-0.92933
1480621956987527,-1.18574,0.0249578,-0.929417
1480621957017607,-1.18574,0.0249578,-0.929417
1480621957032647,-1.18566,0.0248669,-0.92933
1480621957046686,-1.18574,0.0249578,-0.929417
1480621957070247,-1.18574,0.0249578,-0.929417
1480621957092309,-1.18573,0.0250182,-0.929291
1480621957106844,-1.1858,0.0251091,-0.929378
1480621957139431,-1.1858,0.0251091,-0.929378
1480621957152465,-1.1858,0.0251091,-0.929378
1480621957167506,-1.18595,0.0250645,-0.929397
1480621957198087,-1.18595,0.0250645,-0.929397
1480621957220146,-1.18592,0.0250328,-0.929371
1480621957226662,-1.18599,0.0251841,-0.929332
1480621957250727,-1.18599,0.0251841,-0.929332
1480621957273790,-1.18601,0.0252158,-0.929358
1480621957302365,-1.18601,0.0252158,-0.929358
1480621957309891,-1.18606,0.025275,-0.929419
1480621957347987,-1.18606,0.025275,-0.929419
1480621957350493,-1.18606,0.025275,-0.929419
1480621957370045,-1.18605,0.0253354,-0.929293
1480621957392603,-1.18613,0.0254263,-0.92938
1480621957415164,-1.18613,0.0254263,-0.92938
1480621957430205,-1.18627,0.0253817,-0.929399
1480621957459785,-1.18627,0.0253817,-0.929399
1480621957473319,-1.18635,0.0254726,-0.929486
1480621957520444,-1.18634,0.0255331,-0.92936
1480621957522951,-1.18634,0.0255331,-0.92936
1480621957533479,-1.18634,0.0255331,-0.92936
1480621957557543,-1.18634,0.0255331,-0.92936
1480621957579102,-1.18646,0.0254567,-0.929352
1480621957593641,-1.18646,0.0254567,-0.929352
1480621957610186,-1.18654,0.0255476,-0.929439
1480621957632242,-1.18654,0.0255476,-0.929439
1480621957655306,-1.18652,0.0256081,-0.929314
1480621957700423,-1.18652,0.0256081,-0.929314
1480621957702930,-1.18667,0.0255635,-0.929333
1480621957713474,-1.18675,0.0256544,-0.92942
1480621957730005,-1.18672,0.0256226,-0.929393
1480621957752562,-1.18672,0.0256226,-0.929393
1480621957775123,-1.18672,0.0256226,-0.929393
1480621957790664,-1.18672,0.0256226,-0.929393
1480621957812722,-1.18672,0.0256226,-0.929393
1480621957834781,-1.1868,0.0257135,-0.92948
1480621957858846,-1.18679,0.0257739,-0.929354
1480621957872381,-1.18679,0.0257739,-0.929354
1480621957893439,-1.18679,0.0257739,-0.929354
1480621957910984,-1.18693,0.0257294,-0.929373
1480621957932541,-1.18701,0.0258203,-0.92946
1480621957955602,-1.18701,0.0258203,-0.92946
1480621957970642,-1.187,0.0258807,-0.929335
1480621957992701,-1.18707,0.0259716,-0.929422
1480621958014760,-1.18705,0.0259398,-0.929395
1480621958030300,-1.18707,0.0259716,-0.929422
1480621958052359,-1.18707,0.0259716,-0.929422
1480621958082439,-1.18707,0.0259716,-0.929422
1480621958089458,-1.18715,0.0260625,-0.929509
1480621958114024,-1.18714,0.0261229,-0.929383
1480621958142600,-1.18711,0.0260911,-0.929356
1480621958149117,-1.18688,0.0261834,-0.929497
1480621958178696,-1.18688,0.0261834,-0.929497
1480621958195239,-1.18688,0.0261834,-0.929497
1480621958217298,-1.18688,0.0261834,-0.929497
1480621958232839,-1.18701,0.0261993,-0.929391
1480621958254899,-1.18707,0.0262584,-0.929451
1480621958269438,-1.18707,0.0262584,-0.929451
1480621958315560,-1.18707,0.0262584,-0.929451
1480621958318066,-1.18707,0.0262584,-0.929451
1480621958329597,-1.18707,0.0262584,-0.929451
1480621958352658,-1.18713,0.0264097,-0.929412
1480621958375219,-1.18713,0.0264097,-0.929412
1480621958396275,-1.18713,0.0264097,-0.929412
1480621958412318,-1.18713,0.0264097,-0.929412
1480621958440894,-1.18713,0.0264097,-0.929412
1480621958455933,-1.18713,0.0264097,-0.929412
1480621958472478,-1.18735,0.026456,-0.929519
1480621958502558,-1.18734,0.0265165,-0.929393
1480621958516093,-1.18742,0.0266074,-0.92948
1480621958532637,-1.18742,0.0266074,-0.92948
1480621958555197,-1.18742,0.0266074,-0.92948
1480621958576754,-1.18734,0.0265165,-0.929393
1480621958593801,-1.18742,0.0266074,-0.92948
1480621958622877,-1.18742,0.0266074,-0.92948
1480621958635912,-1.1874,0.0266678,-0.929354
1480621958652957,-1.18748,0.0267587,-0.929441
1480621958682536,-1.18748,0.0267587,-0.929441
1480621958696072,-1.1874,0.0266678,-0.929354
1480621958712617,-1.18748,0.0267587,-0.929441
1480621958735677,-1.18748,0.0267587,-0.929441
1480621958756232,-1.18748,0.0267587,-0.929441
1480621958773779,-1.18748,0.0267587,-0.929441
1480621958794837,-1.18748,0.0267587,-0.929441
1480621958817395,-1.18748,0.0267587,-0.929441
1480621958855496,-1.18707,0.0266374,-0.929381
1480621958858504,-1.18707,0.0266374,-0.929381
1480621958877055,-1.18715,0.0267283,-0.929469
1480621958894600,-1.18715,0.0267283,-0.929469
1480621958922674,-1.18715,0.0267283,-0.929469
1480621958937716,-1.18707,0.0266374,-0.929381
1480621958952253,-1.18707,0.0266374,-0.929381
1480621958974815,-1.18707,0.0266374,-0.929381
1480621958998376,-1.18707,0.0266374,-0.929381
1480621959011913,-1.18715,0.0267283,-0.929469
1480621959035475,-1.18715,0.0267283,-0.929469
1480621959058037,-1.18661,0.026457,-0.929261
1480621959072073,-1.18662,0.0263965,-0.929387
1480621959095134,-1.18662,0.0263965,-0.929387
1480621959117694,-1.18662,0.0263965,-0.929387
1480621959131731,-1.18661,0.026457,-0.929261
1480621959154793,-1.18668,0.0265479,-0.929348
1480621959177354,-1.18661,0.026457,-0.929261
1480621959200414,-1.18661,0.026457,-0.929261
1480621959215454,-1.18659,0.0264252,-0.929234
1480621959238014,-1.18661,0.026457,-0.929261
1480621959253555,-1.18673,0.0263806,-0.929253
1480621959275112,-1.18681,0.0264715,-0.929341
1480621959297672,-1.18666,0.0265161,-0.929321
1480621959318728,-1.18661,0.026457,-0.929261
1480621959358336,-1.18628,0.0261397,-0.929259
1480621959360339,-1.18626,0.026108,-0.929232
1480621959378387,-1.18648,0.0261543,-0.929338
1480621959394931,-1.18648,0.0261543,-0.929338
1480621959417992,-1.18648,0.0261543,-0.929338
1480621959438548,-1.18648,0.0261543,-0.929338
1480621959455091,-1.18626,0.026108,-0.929232
1480621959477653,-1.18626,0.026108,-0.929232
1480621959498708,-1.18626,0.026108,-0.929232
1480621959522772,-1.18648,0.0261543,-0.929338
1480621959537310,-1.18648,0.0261543,-0.929338
1480621959558868,-1.18626,0.026108,-0.929232
1480621959575412,-1.18626,0.026108,-0.929232
1480621959597470,-1.18626,0.026108,-0.929232
1480621959618526,-1.18626,0.026108,-0.929232
1480621959642590,-1.1864,0.0260634,-0.929251
1480621959658151,-1.18648,0.0261543,-0.929338
1480621959687711,-1.1864,0.0260634,-0.929251
1480621959695230,-1.18626,0.026108,-0.929232
1480621959725313,-1.18628,0.0261397,-0.929259
1480621959738345,-1.18626,0.026108,-0.929232
1480621959754888,-1.1864,0.0260634,-0.929251
1480621959777450,-1.18648,0.0261543,-0.929338
1480621959807530,-1.18626,0.026108,-0.929232
1480621959815050,-1.18626,0.026108,-0.929232
1480621959845129,-1.18628,0.0261397,-0.929259
1480621959860670,-1.18626,0.026108,-0.929232
1480621959866688,-1.18627,0.0260476,-0.929358
1480621959883231,-1.18626,0.026108,-0.929232
1480621959902782,-1.1864,0.0260634,-0.929251
1480621959925341,-1.18626,0.026108,-0.929232
1480621959940383,-1.18627,0.0260476,-0.929358
1480621959970462,-1.18627,0.0260476,-0.929358
1480621959994025,-1.18626,0.026108,-0.929232
1480621960003550,-1.1864,0.0260634,-0.929251
1480621960030121,-1.1864,0.0260634,-0.929251
1480621960046665,-1.1864,0.0260634,-0.929251
1480621960070228,-1.1864,0.0260634,-0.929251
1480621960085769,-1.1864,0.0260634,-0.929251
1480621960108332,-1.1864,0.0260634,-0.929251
1480621960121866,-1.1864,0.0260634,-0.929251
1480621960144426,-1.1864,0.0260634,-0.929251
1480621960165481,-1.1864,0.0260634,-0.929251
1480621960189545,-1.18626,0.026108,-0.929232
1480621960203083,-1.18626,0.026108,-0.929232
1480621960225641,-1.18626,0.026108,-0.929232
1480621960243189,-1.1864,0.0260634,-0.929251
1480621960279284,-1.18648,0.0261543,-0.929338
1480621960302846,-1.18648,0.0261543,-0.929338
1480621960305353,-1.18648,0.0261543,-0.929338
1480621960322899,-1.18648,0.0261543,-0.929338
1480621960345460,-1.18648,0.0261543,-0.929338
1480621960364511,-1.1864,0.0260634,-0.929251
1480621960384564,-1.18648,0.0261543,-0.929338
1480621960408127,-1.18648,0.0261543,-0.929338
1480621960421663,-1.18647,0.0262147,-0.929213
1480621960451743,-1.18648,0.0261543,-0.929338
1480621960469290,-1.18648,0.0261543,-0.929338
1480621960481824,-1.18648,0.0261543,-0.929338
1480621960502878,-1.18648,0.0261543,-0.929338
1480621960525439,-1.18647,0.0262147,-0.929213
1480621960559529,-1.18654,0.0263056,-0.9293
1480621960565044,-1.18654,0.0263056,-0.9293
1480621960585599,-1.18654,0.0263056,-0.9293
1480621960616681,-1.18654,0.0263056,-0.9293
1480621960622697,-1.18654,0.0263056,-0.9293
1480621960645264,-1.18654,0.0263056,-0.9293
1480621960664309,-1.18667,0.0262293,-0.929292
1480621960682857,-1.18662,0.0263965,-0.929387
1480621960705417,-1.18654,0.0263056,-0.9293
1480621960727978,-1.18654,0.0263056,-0.9293
1480621960743021,-1.18654,0.0263056,-0.9293
1480621960765578,-1.18662,0.0263965,-0.929387
1480621960805183,-1.18661,0.026457,-0.929261
1480621960810199,-1.18661,0.026457,-0.929261
1480621960825238,-1.18661,0.026457,-0.929261
1480621960849300,-1.18661,0.026457,-0.929261
1480621960862836,-1.18661,0.026457,-0.929261
1480621960885397,-1.18661,0.026457,-0.929261
1480621960907956,-1.18668,0.0265479,-0.929348
1480621960922996,-1.18668,0.0265479,-0.929348
1480621960945057,-1.18668,0.0265479,-0.929348
1480621960976640,-1.18668,0.0265479,-0.929348
1480621960983156,-1.18668,0.0265479,-0.929348
1480621961012736,-1.18668,0.0265479,-0.929348
1480621961027775,-1.18667,0.0266083,-0.929222
1480621961042817,-1.18675,0.0266992,-0.929309
1480621961068885,-1.18675,0.0266992,-0.929309
1480621961087935,-1.18675,0.0266992,-0.929309
1480621961110495,-1.1866,0.0267438,-0.92929
1480621961125535,-1.1866,0.0267438,-0.92929
1480621961148096,-1.18675,0.0266992,-0.929309
1480621961165642,-1.18682,0.0267901,-0.929397
1480621961185194,-1.18681,0.0268506,-0.929271
1480621961207755,-1.18681,0.0268506,-0.929271
1480621961222794,-1.18681,0.0268506,-0.929271
1480621961246858,-1.18681,0.0268506,-0.929271
1480621961267914,-1.18681,0.0268506,-0.929271
1480621961282954,-1.18681,0.0268506,-0.929271
1480621961305514,-1.18741,0.0270469,-0.929285
1480621961328074,-1.18741,0.0270469,-0.929285
1480621961344117,-1.18741,0.0270469,-0.929285
1480621961365173,-1.18753,0.0269706,-0.929277
1480621961396255,-1.18753,0.0269706,-0.929277
1480621961404277,-1.18753,0.0269706,-0.929277
1480621961425334,-1.18813,0.0271669,-0.929291
1480621961447893,-1.18813,0.0271669,-0.929291
1480621961465439,-1.18813,0.0271669,-0.929291
1480621961493013,-1.18813,0.0271669,-0.929291
1480621961519083,-1.18813,0.0271669,-0.929291
1480621961524599,-1.1882,0.0272577,-0.929378
1480621961546658,-1.18819,0.0273182,-0.929253
1480621961579744,-1.18819,0.0273182,-0.929253
1480621961584256,-1.18819,0.0273182,-0.929253
1480621961605312,-1.18819,0.0273182,-0.929253
1480621961635894,-1.18819,0.0273182,-0.929253
1480621961644419,-1.18819,0.0273182,-0.929253
1480621961665471,-1.18827,0.0274091,-0.92934
1480621961695552,-1.1884,0.0274251,-0.929233
1480621961706080,-1.1884,0.0274251,-0.929233
1480621961725131,-1.1884,0.0274251,-0.929233
1480621961750699,-1.1884,0.0274251,-0.929233
1480621961765740,-1.18838,0.0273932,-0.929207
1480621961795818,-1.18845,0.0274841,-0.929294
1480621961810859,-1.18845,0.0274841,-0.929294
1480621961862997,-1.1886,0.0274396,-0.929313
1480621961865504,-1.18868,0.0275305,-0.9294
1480621961886058,-1.18853,0.0275749,-0.929381
1480621961899094,-1.18866,0.0275909,-0.929275
1480621961921653,-1.18852,0.0276354,-0.929256
1480621961945218,-1.18852,0.0276354,-0.929256
1480621961947221,-1.18866,0.0275909,-0.929275
1480621961972790,-1.18866,0.0275909,-0.929275
1480621961987829,-1.18866,0.0275909,-0.929275
1480621962010390,-1.18866,0.0275909,-0.929275
1480621962028939,-1.18866,0.0275909,-0.929275
1480621962047990,-1.18874,0.0276818,-0.929362
1480621962072053,-1.18874,0.0276818,-0.929362
1480621962085589,-1.18873,0.0277423,-0.929236
1480621962108149,-1.18873,0.0277423,-0.929236
1480621962125698,-1.18873,0.0277423,-0.929236
1480621962148757,-1.18873,0.0277423,-0.929236
1480621962167808,-1.18873,0.0277423,-0.929236
1480621962201898,-1.1888,0.0278332,-0.929324
1480621962229973,-1.18878,0.0278013,-0.929297
1480621962232480,-1.18878,0.0278013,-0.929297
1480621962252032,-1.1888,0.0278332,-0.929324
1480621962265568,-1.1888,0.0278332,-0.929324
1480621962287627,-1.1888,0.0278332,-0.929324
1480621962310188,-1.18878,0.0278013,-0.929297
1480621962326730,-1.18878,0.0278013,-0.929297
1480621962350796,-1.189,0.0278477,-0.929403
1480621962370347,-1.189,0.0278477,-0.929403
1480621962402431,-1.18893,0.0277568,-0.929316
1480621962411458,-1.18878,0.0278013,-0.929297
1480621962433014,-1.18878,0.0278013,-0.929297
1480621962447052,-1.189,0.0278477,-0.929403
1480621962471619,-1.189,0.0278477,-0.929403
1480621962498688,-1.189,0.0278477,-0.929403
1480621962506710,-1.18893,0.0277568,-0.929316
1480621962527767,-1.18893,0.0277568,-0.929316
1480621962550327,-1.18893,0.0277568,-0.929316
1480621962572888,-1.18886,0.0278922,-0.929384
1480621962587925,-1.18885,0.0279526,-0.929259
1480621962629537,-1.18887,0.0279845,-0.929285
1480621962641570,-1.1888,0.0278332,-0.929324
1480621962648087,-1.1888,0.0278332,-0.929324
1480621962689696,-1.1888,0.0278332,-0.929324
1480621962694209,-1.1888,0.0278332,-0.929324
1480621962711254,-1.1888,0.0278332,-0.929324
1480621962730304,-1.1888,0.0278332,-0.929324
1480621962752864,-1.1888,0.0278332,-0.929324
1480621962778434,-1.1888,0.0278332,-0.929324
1480621962797985,-1.18858,0.0277868,-0.929217
1480621962808513,-1.18873,0.0277423,-0.929236
1480621962828064,-1.1888,0.0278332,-0.929324
1480621962853131,-1.1888,0.0278332,-0.929324
1480621962868171,-1.18866,0.0278777,-0.929305
1480621962895244,-1.18858,0.0277868,-0.929217
1480621962913293,-1.18873,0.0277423,-0.929236
1480621962966433,-1.18874,0.0276818,-0.929362
1480621962972950,-1.18874,0.0276818,-0.929362
1480621962975457,-1.18873,0.0277423,-0.929236
1480621962988491,-1.18858,0.0277868,-0.929217
1480621963008043,-1.18859,0.0277263,-0.929343
1480621963030603,-1.18859,0.0277263,-0.929343
1480621963052662,-1.18852,0.0276354,-0.929256
1480621963075222,-1.18852,0.0276354,-0.929256
1480621963091766,-1.18859,0.0277263,-0.929343
1480621963108310,-1.18859,0.0277263,-0.929343
1480621963128363,-1.18859,0.0277263,-0.929343
1480621963150427,-1.18852,0.0276354,-0.929256
1480621963192033,-1.18852,0.0276354,-0.929256
1480621963197047,-1.18852,0.0276354,-0.929256
1480621963220609,-1.18866,0.0275909,-0.929275
1480621963234145,-1.18866,0.0275909,-0.929275
1480621963255200,-1.18852,0.0276354,-0.929256
1480621963270241,-1.18852,0.0276354,-0.929256
1480621963303831,-1.18845,0.0274841,-0.929294
1480621963309345,-1.18845,0.0274841,-0.929294
1480621963333409,-1.18845,0.0274841,-0.929294
1480621963352961,-1.18852,0.0276354,-0.929256
1480621963384044,-1.18852,0.0276354,-0.929256
1480621963408108,-1.18855,0.0276068,-0.929408
1480621963413128,-1.18848,0.027516,-0.929321
1480621963429163,-1.18848,0.027516,-0.929321
1480621963460750,-1.18833,0.0275604,-0.929302
1480621963468769,-1.18833,0.0275604,-0.929302
1480621963489825,-1.18833,0.0275604,-0.929302
1480621963510381,-1.18833,0.0275604,-0.929302
1480621963540962,-1.18833,0.0275604,-0.929302
1480621963555500,-1.18833,0.0275604,-0.929302
1480621963572043,-1.18833,0.0275604,-0.929302
1480621963588086,-1.18833,0.0275604,-0.929302
1480621963611650,-1.18833,0.0275604,-0.929302
1480621963637718,-1.18833,0.0275604,-0.929302
1480621963652758,-1.18833,0.0275604,-0.929302
1480621963686854,-1.18818,0.027605,-0.929282
1480621963691863,-1.18821,0.0276368,-0.929309
1480621963708407,-1.18818,0.027605,-0.929282
1480621963736983,-1.18833,0.0275604,-0.929302
1480621963750518,-1.18833,0.0275604,-0.929302
1480621963768065,-1.18818,0.027605,-0.929282
1480621963795638,-1.18821,0.0276368,-0.929309
1480621963810178,-1.18821,0.0276368,-0.929309
1480621963832737,-1.18821,0.0276368,-0.929309
1480621963856803,-1.18821,0.0276368,-0.929309
1480621963870337,-1.18833,0.0275604,-0.929302
1480621963892898,-1.18833,0.0275604,-0.929302
1480621963910947,-1.18853,0.0275749,-0.929381
1480621963930497,-1.18853,0.0275749,-0.929381
1480621963963085,-1.18853,0.0275749,-0.929381
1480621963970604,-1.18852,0.0276354,-0.929256
1480621963990663,-1.18866,0.0275909,-0.929275
1480621964030262,-1.18866,0.0275909,-0.929275
1480621964032769,-1.18852,0.0276354,-0.929256
1480621964050316,-1.18852,0.0276354,-0.929256
1480621964075885,-1.18852,0.0276354,-0.929256
1480621964090925,-1.18866,0.0275909,-0.929275
1480621964110482,-1.18874,0.0276818,-0.929362
1480621964134039,-1.18874,0.0276818,-0.929362
1480621964158103,-1.18874,0.0276818,-0.929362
1480621964186679,-1.18874,0.0276818,-0.929362
1480621964192709,-1.18859,0.0277263,-0.929343
1480621964218264,-1.18859,0.0277263,-0.929343
1480621964256365,-1.18873,0.0277423,-0.929236
1480621964269900,-1.1888,0.0278332,-0.929324
1480621964272408,-1.1888,0.0278332,-0.929324
1480621964291959,-1.1888,0.0278332,-0.929324
1480621964313015,-1.18866,0.0278777,-0.929305
1480621964331063,-1.18866,0.0278777,-0.929305
1480621964351618,-1.18866,0.0278777,-0.929305
1480621964372674,-1.18888,0.0279241,-0.929411
1480621964390723,-1.18888,0.0279241,-0.929411
1480621964413283,-1.18887,0.0279845,-0.929285
1480621964443367,-1.18888,0.0279241,-0.929411
1480621964466423,-1.18888,0.0279241,-0.929411
1480621964471938,-1.18888,0.0279241,-0.929411
1480621964500513,-1.18887,0.0279845,-0.929285
1480621964518061,-1.18887,0.0279845,-0.929285
1480621964533101,-1.18887,0.0279845,-0.929285
1480621964560173,-1.18887,0.0279845,-0.929285
1480621964570702,-1.18885,0.0279526,-0.929259
1480621964593260,-1.18885,0.0279526,-0.929259
1480621964612813,-1.18892,0.0280435,-0.929346
1480621964630861,-1.18892,0.0280435,-0.929346
1480621964669464,-1.18892,0.0280435,-0.929346
1480621964674477,-1.18906,0.0280595,-0.92924
1480621964691023,-1.18906,0.0280595,-0.92924
1480621964714082,-1.18913,0.0281504,-0.929327
1480621964735639,-1.18913,0.0281504,-0.929327
1480621964750680,-1.18913,0.0281504,-0.929327
1480621964773241,-1.18913,0.0281504,-0.929327
1480621964796307,-1.18921,0.0282412,-0.929414
1480621964811341,-1.18913,0.0281504,-0.929327
1480621964833399,-1.18913,0.0281504,-0.929327
1480621964852951,-1.18913,0.0281504,-0.929327
1480621964886541,-1.18913,0.0281504,-0.929327
1480621964893559,-1.18921,0.0282412,-0.929414
1480621964912610,-1.1892,0.0283017,-0.929289
1480621964930658,-1.1892,0.0283017,-0.929289
1480621964953720,-1.1892,0.0283017,-0.929289
1480621964974274,-1.1892,0.0283017,-0.929289
1480621965012376,-1.1892,0.0283017,-0.929289
1480621965013880,-1.18927,0.0283926,-0.929376
1480621965032930,-1.18927,0.0283926,-0.929376
1480621965066519,-1.18927,0.0283926,-0.929376
1480621965073542,-1.18927,0.0283926,-0.929376
1480621965093091,-1.18926,0.0284531,-0.92925
1480621965111139,-1.18934,0.028544,-0.929338
1480621965137709,-1.18934,0.028544,-0.929338
1480621965154253,-1.18934,0.028544,-0.929338
1480621965178318,-1.18934,0.028544,-0.929338
1480621965193357,-1.18934,0.028544,-0.929338
1480621965221933,-1.18934,0.028544,-0.929338
1480621965230957,-1.18934,0.028544,-0.929338
1480621965253016,-1.18941,0.0286348,-0.929425
1480621965291117,-1.1894,0.0286953,-0.9293
1480621965302648,-1.1894,0.0286953,-0.9293
1480621965313176,-1.1894,0.0286953,-0.9293
1480621965334231,-1.1894,0.0286953,-0.9293
1480621965358297,-1.1894,0.0286953,-0.9293
1480621965385871,-1.1894,0.0286953,-0.9293
1480621965394392,-1.18947,0.0287862,-0.929387
1480621965418455,-1.18947,0.0287862,-0.929387
1480621965446030,-1.18945,0.0287543,-0.92936
1480621965454051,-1.18947,0.0287862,-0.929387
1480621965475610,-1.18947,0.0287862,-0.929387
1480621965493156,-1.18947,0.0287862,-0.929387
1480621965523238,-1.1896,0.0287098,-0.92938
1480621965535266,-1.1896,0.0287098,-0.92938
1480621965568355,-1.18959,0.0287703,-0.929254
1480621965581890,-1.18966,0.0288611,-0.929341
1480621965596930,-1.1896,0.0287098,-0.92938
1480621965613475,-1.18959,0.0287703,-0.929254
1480621965635533,-1.18966,0.0288611,-0.929341
1480621965655086,-1.18913,0.0288162,-0.929288
1480621965673133,-1.18921,0.0289071,-0.929375
1480621965695693,-1.18921,0.0289071,-0.929375
1480621965718254,-1.18921,0.0289071,-0.929375
1480621965733293,-1.18921,0.0289071,-0.929375
1480621965760366,-1.18921,0.0289071,-0.929375
1480621965792952,-1.18921,0.0289071,-0.929375
1480621965797965,-1.18921,0.0289071,-0.929375
1480621965816014,-1.18921,0.0289071,-0.929375
1480621965838073,-1.18919,0.0289676,-0.92925
1480621965853114,-1.18921,0.0289071,-0.929375
1480621965875673,-1.18921,0.0289071,-0.929375
1480621965896731,-1.18934,0.0289231,-0.929269
1480621965920792,-1.18934,0.0289231,-0.929269
1480621965936334,-1.18942,0.029014,-0.929356
1480621965955384,-1.18882,0.0288176,-0.929341
1480621965973435,-1.18882,0.0288176,-0.929341
1480621966000505,-1.18867,0.0288621,-0.929322
1480621966015544,-1.18882,0.0288176,-0.929341
1480621966033092,-1.18882,0.0288176,-0.929341
1480621966062670,-1.18882,0.0288176,-0.929341
1480621966078211,-1.18882,0.0288176,-0.929341
1480621966099267,-1.18882,0.0288176,-0.929341
1480621966123836,-1.18874,0.0287267,-0.929254
1480621966136867,-1.18874,0.0287267,-0.929254
1480621966152909,-1.18882,0.0288176,-0.929341
1480621966183491,-1.18882,0.0288176,-0.929341
1480621966198031,-1.18882,0.0288176,-0.929341
1480621966212067,-1.18882,0.0288176,-0.929341
1480621966235129,-1.18882,0.0288176,-0.929341
1480621966256186,-1.18874,0.0287267,-0.929254
1480621966272228,-1.18874,0.0287267,-0.929254
1480621966302308,-1.18882,0.0288176,-0.929341
1480621966315845,-1.18882,0.0288176,-0.929341
1480621966356453,-1.1886,0.0287712,-0.929235
1480621966361464,-1.1886,0.0287712,-0.929235
1480621966385027,-1.18874,0.0287267,-0.929254
1480621966392547,-1.18874,0.0287267,-0.929254
1480621966415108,-1.18874,0.0287267,-0.929254
1480621966436164,-1.18874,0.0287267,-0.929254
1480621966452206,-1.1886,0.0287712,-0.929235
1480621966474767,-1.1886,0.0287712,-0.929235
1480621966497326,-1.1886,0.0287712,-0.929235
1480621966520889,-1.18862,0.0288031,-0.929261
1480621966534926,-1.1886,0.0287712,-0.929235
1480621966565006,-1.1886,0.0287712,-0.929235
1480621966578544,-1.18862,0.0288031,-0.929261
1480621966595086,-1.1886,0.0287712,-0.929235
1480621966633689,-1.18862,0.0288031,-0.929261
1480621966638702,-1.18862,0.0288031,-0.929261
1480621966655247,-1.18862,0.0288031,-0.929261
1480621966684825,-1.1886,0.0287712,-0.929235
1480621966691846,-1.1886,0.0287712,-0.929235
1480621966714905,-1.1886,0.0287712,-0.929235
1480621966737465,-1.18862,0.0288031,-0.929261
1480621966751503,-1.18856,0.0286518,-0.929299
1480621966775065,-1.18856,0.0286518,-0.929299
1480621966797625,-1.18862,0.0288031,-0.929261
1480621966811663,-1.18862,0.0288031,-0.929261
1480621966834724,-1.18862,0.0288031,-0.929261
1480621966857285,-1.18862,0.0288031,-0.929261
1480621966871823,-1.18862,0.0288031,-0.929261
1480621966910929,-1.18856,0.0286518,-0.929299
1480621966917446,-1.18856,0.0286518,-0.929299
1480621966939001,-1.18862,0.0288031,-0.929261
1480621966955044,-1.18862,0.0288031,-0.929261
1480621966977104,-1.18847,0.0288476,-0.929242
1480621966998660,-1.18847,0.0288476,-0.929242
1480621967016207,-1.18841,0.0286962,-0.92928
1480621967037263,-1.18856,0.0286518,-0.929299
1480621967058321,-1.18862,0.0288031,-0.929261
1480621967074863,-1.1886,0.0287712,-0.929235
1480621967143044,-1.18862,0.0288031,-0.929261
1480621967145554,-1.18862,0.0288031,-0.929261
1480621967157585,-1.1886,0.0287712,-0.929235
1480621967186158,-1.1886,0.0287712,-0.929235
1480621967195182,-1.1886,0.0287712,-0.929235
1480621967223759,-1.18867,0.0288621,-0.929322
1480621967238297,-1.18867,0.0288621,-0.929322
1480621967254841,-1.18867,0.0288621,-0.929322
1480621967277401,-1.18867,0.0288621,-0.929322
1480621967299962,-1.18867,0.0288621,-0.929322
1480621967314501,-1.18881,0.0288781,-0.929215
1480621967337561,-1.18881,0.0288781,-0.929215
1480621967358618,-1.18888,0.028969,-0.929303
1480621967382682,-1.18881,0.0288781,-0.929215
1480621967404740,-1.18881,0.0288781,-0.929215
1480621967419780,-1.18881,0.0288781,-0.929215
1480621967442341,-1.18888,0.028969,-0.929303
1480621967465902,-1.18886,0.028937,-0.929276
1480621967485956,-1.18901,0.0288926,-0.929295
1480621967494980,-1.18901,0.0288926,-0.929295
1480621967518042,-1.18901,0.0288926,-0.929295
1480621967540102,-1.18886,0.028937,-0.929276
1480621967554138,-1.18901,0.0288926,-0.929295
1480621967577701,-1.18901,0.0288926,-0.929295
1480621967599759,-1.18901,0.0288926,-0.929295
1480621967614298,-1.18901,0.0288926,-0.929295
1480621967637359,-1.18901,0.0288926,-0.929295
1480621967660421,-1.18901,0.0288926,-0.929295
1480621967682981,-1.18901,0.0288926,-0.929295
1480621967697519,-1.18907,0.0290439,-0.929257
1480621967720080,-1.18907,0.0290439,-0.929257
1480621967742639,-1.18907,0.0290439,-0.929257
