timestamp,x,y,z
1480509454987397,2.75,-1.125,0.0625
1480509455002447,3.0625,-0.1875,-0.25
1480509455027003,0.75,-0.0625,-0.625
1480509455047058,-0.25,0.375,-1.625
1480509455062098,-0.5,0.1875,-1.375
1480509455116742,-1.625,-0.1875,-0.25
1480509455118747,0.1875,-0.5625,0.0625
1480509455122256,2,0.5,0.0625
1480509455145821,1.3125,-0.125,0.4375
1480509455167376,-0.875,-0.625,-0.4375
1480509455205478,0.9375,-1.0625,0.125
1480509455205979,1.9375,-0.75,0.75
1480509455228543,0.4375,-1,1.3125
1480509455243579,0,-0.5,0.875
1480509455264636,0.1875,0.0625,0.5625
1480509455289702,1.6875,-0.0625,0.25
1480509455340336,0.875,-0.0625,-0.125
1480509455340838,0.75,-0.3125,-0.3125
1480509455346855,0.8125,-0.1875,-0.875
1480509455361896,0.875,0.3125,-0.5
1480509455384454,-1.75,0.0625,-0.3125
1480509455414534,-2.25,-0.25,0.3125
1480509455437596,-2.6875,0.5,0.75
1480509455452134,-3.6875,1,0.625
1480509455476223,-4.25,-0.1875,1.375
1480509455497256,-3.9375,-0.8125,1.375
1480509455512296,-4.6875,-0.125,1.625
1480509455534353,-6.125,0.8125,1.9375
1480509455556921,-6.0625,0.0625,2.625
1480509455571954,-4.25,-0.1875,1.375
1480509455594520,-1.6875,-0.4375,0.25
1480509455617072,-0.375,-0.0625,-0.0625
1480509455632113,-1.6875,0.6875,0
1480509455654674,-3.8125,0.5,0.8125
1480509455677233,-2.375,-0.25,0.6875
1480509455691773,0.25,-0.5625,0
1480509455723356,0.6875,-1.0625,0.4375
1480509455736892,-1.125,-0.75,0.1875
1480509455754939,-2.25,-0.6875,0.0625
1480509455774491,-2.625,-0.8125,0
1480509455797052,-0.9375,-1,-0.3125
1480509455813595,0.4375,-0.75,-0.0625
1480509455834651,-0.5625,-0.25,-0.1875
1480509455857216,-2.1875,-0.0625,-0.3125
1480509455871750,-2.1875,-0.8125,-0.5
1480509455894310,-0.625,-1,-0.25
1480509455925894,0.125,-1.125,0.375
1480509455931910,0.1875,-0.875,0.5
1480509455954491,-0.4375,-0.25,0.125
1480509455961990,-0.5625,-0.0625,-0.125
1480509455985552,-0.1875,-0.625,-0.1875
1480509456008113,-0.625,-0.4375,0.375
1480509456030673,-1.9375,0.1875,0.5625
1480509456060753,-3.0625,1.125,-0.1875
1480509456068272,-4,1.375,-0.5625
1480509456091335,-3.875,1,0.1875
1480509456105873,-2.1875,0.3125,0.625
1480509456128436,-2,0.0625,1.0625
1480509456141969,-2.4375,-0.125,0.75
1480509456166035,-1.875,0.375,0.1875
1480509456188091,-1.3125,-0.1875,-0.125
1480509456210652,-0.9375,-0.1875,-0.4375
1480509456225691,-2.75,-0.1875,-0.25
1480509456248251,-2.75,-0.25,-0.3125
1480509456269809,-1.8125,0.5625,0.625
1480509456285851,-0.1875,0.0625,1
1480509456306908,-1.75,0.25,0.1875
1480509456338492,-2.375,-0.375,-0.5
1480509456344508,-1.5625,0,-0.125
1480509456367068,-0.8125,0.0625,0.75
1480509456390630,-1.5,-0.375,0.375
1480509456404667,-1.375,0.0625,0.3125
1480509456427228,-2.75,0.9375,-0.9375
1480509456450791,-4.375,0.9375,-0.5
1480509456464326,-3.375,0.25,0
1480509456487388,-3.625,-0.4375,-0.1875
1480509456510449,-4.0625,0.125,-1.1875
1480509456524486,-3.5,-1.875,-1.625
1480509456547046,-9.4375,-5.6875,-4
1480509456570609,-14.6875,-5,-3
1480509456585148,-13,-6,-1.6875
1480509456615729,-4.375,-3.875,-0.625
1480509456630769,1.8125,-2.75,0.4375
1480509456645809,-0.4375,-1.0625,0.125
1480509456675889,-3.375,0.125,0.125
1480509456690929,-2.875,-0.0625,-0.125
1480509456704465,-1.25,-0.25,0.1875
1480509456727025,0.8125,0.375,1.25
1480509456750588,0.1875,0.75,0.375
1480509456764626,0.375,1.3125,-0.1875
1480509456787185,2.125,1.0625,-2.9375
1480509456810748,-3.8125,1.375,-3.625
1480509456824284,-5.5625,2.5,-1.8125
1480509456855868,-3.875,1.1875,0.375
1480509456870406,-0.3125,-0.0625,0.625
1480509456893495,1.6875,0.6875,0.5
1480509456907003,-0.9375,1.3125,0.75
1480509456931068,6.5625,-0.75,1.5
1480509456960647,4.25,2.75,0.5
1480509456967164,-1.25,2,-0.0625
1480509456990726,-2.75,0.6875,-0.625
1480509457004262,1.25,1.1875,0.0625
1480509457027325,2.8125,1.25,1.1875
1480509457050886,0.375,2.4375,0.8125
1480509457064424,-0.0625,3,0.5625
1480509457086982,2.4375,3.3125,-0.6875
1480509457111048,4.5625,2.4375,-0.5625
1480509457124583,6.5625,1.625,0.3125
1480509457147142,8.4375,0.8125,0.3125
1480509457173714,9.3125,0.3125,0.25
1480509457184743,12.5,-0.3125,0.5625
1480509457206815,18.75,-1.0625,0.4375
1480509457230875,19.6875,-0.25,0.4375
1480509457244402,15.5,-0.75,-0.4375
1480509457266961,10.6875,-1.6875,-0.5625
1480509457298547,7.75,-1.5,-0.5625
1480509457304561,3.625,-1.6875,-1.25
1480509457327122,-2.875,-1.3125,-1.9375
1480509457350684,-4.8125,-1.6875,-0.0625
1480509457364721,1.4375,-3.125,0.0625
1480509457386781,-6.1875,-4.5,0.875
1480509457411346,-3.25,-6.625,1.8125
1480509457424382,-0.875,-8.375,4.75
1480509457446940,7.25,-6,5.0625
1480509457478526,12.6875,-1,-1.6875
1480509457484540,0.625,-1.8125,-7
1480509457507101,-9.3125,-0.4375,-4.125
1480509457529660,-6.9375,-1,-1.125
1480509457544703,-1.4375,-2.375,-1.375
1480509457566759,5.8125,-5.125,-1.25
1480509457589319,4.375,-6.1875,-1.25
1480509457607368,-0.0625,-4.875,0.0625
1480509457626919,3.625,-4.125,0
1480509457658502,2,-2.625,-1.5625
1480509457664520,-4.125,-2.1875,-2.3125
1480509457687581,-2.6875,-1.625,-1.25
1480509457709639,-0.75,-1.5,-1.8125
1480509457733202,-4.5625,-2.1875,-2.5
1480509457755761,0.1875,-1.875,-1.625
1480509457769298,3.625,-0.3125,-1.3125
1480509457793362,2.5625,0.1875,-2.5625
1480509457806898,0.875,2.5,-3.25
1480509457829458,-3.5625,4.25,-2.75
1480509457853521,-12.5,3.125,-1.25
1480509457867058,-11,2.625,-1.1875
1480509457889617,-4.6875,5.625,-1.1875
1480509457916189,6.125,2.625,-0.75
1480509457927218,5.875,2.125,-3.25
1480509457949276,-11.25,0.1875,-0.6875
1480509457973841,-6.125,-2.8125,-2
1480509457986876,3.75,0.25,-5.0625
1480509458009436,4.375,2.0625,1.1875
1480509458033500,1.3125,1.5,4.1875
1480509458047036,-2.875,0.625,2.25
1480509458069596,-2.625,1.75,-0.5625
1480509458093160,3.5625,2.625,-2
1480509458107196,0.9375,3.3125,-3.75
1480509458129255,-7.625,4.8125,-5.0625
1480509458153319,-11.1875,7.3125,-3.625
1480509458166855,-6.375,6.875,-2.625
1480509458189415,0.875,5.4375,-2.0625
1480509458220999,2.625,3.25,-1.25
1480509458227016,0.75,0.4375,0.5
1480509458249577,-2,-0.125,0.75
1480509458273143,-1.625,-0.125,-0.5625
1480509458287175,0.1875,0.3125,-0.1875
1480509458309735,0.4375,1.5,-0.6875
1480509458333299,2.3125,3.75,-3.9375
1480509458355858,3.125,4,-3.25
1480509458369396,-0.125,0.625,0.4375
1480509458392456,2.3125,-0.5625,0.5
1480509458406994,6.625,-0.8125,-1.25
1480509458429555,5.125,-0.5,-0.75
1480509458452114,1.6875,0.125,-0.875
1480509458467154,-0.25,1.4375,-0.3125
1480509458489715,-1.6875,1.3125,-0.0625
1480509458511773,-2.25,2.125,0.0625
1480509458529821,-2.3125,2.0625,-0.1875
1480509458549372,-3.8125,1.0625,0.25
1480509458571933,-3.9375,0.8125,0.5625
1480509458588476,-1.0625,0.1875,-0.4375
1480509458609533,-0.5625,0.3125,-1.125
1480509458632093,-0.625,-0.8125,0.25
1480509458647133,0.5,-0.625,0.4375
1480509458669694,-1.375,-0.625,1.25
1480509458691751,-3.5625,-1.125,0.5
1480509458706791,-3.9375,-2.0625,-0.0625
1480509458729351,2.875,-0.5,-3.4375
1480509458751911,0.9375,1.375,-1.8125
1480509458775976,-0.75,1.375,0.25
1480509458789511,-4.1875,0.8125,-0.0625
1480509458812071,0.9375,1.125,-1.0625
1480509458827112,3.75,1.125,-1.4375
1480509458849671,-3.3125,-0.5,-1.375
1480509458871730,-8.3125,-1.3125,-0.75
1480509458886770,-2.4375,-1.875,0.3125
1480509458909330,7.125,-1.25,-0.875
1480509458931894,4.875,-0.125,-1.8125
1480509458946930,-2.875,-1.4375,-1.125
1480509458969490,-3.875,-1.5,-0.5625
1480509458992050,3.8125,-1,-0.5
1480509459007090,4.0625,0.4375,-0.1875
1480509459029650,-2.9375,0.1875,0.0625
1480509459052210,-3.4375,-0.0625,0.625
1480509459067250,1.4375,-0.125,0.6875
1480509459089310,4.0625,-0.125,-0.1875
1480509459111868,-0.4375,0,-1.4375
1480509459126908,-2.6875,0.5625,-1.25
1480509459149469,0.9375,0.875,-0.125
1480509459172029,4.3125,0.1875,0.5
1480509459187069,2.8125,-0.9375,0.0625
1480509459209629,1.125,-1.8125,0.5
1480509459232190,0.8125,-1.6875,0.4375
1480509459255754,1.75,-1.5,0.8125
1480509459269287,2.375,-0.8125,0.5
1480509459291847,3.0625,-0.625,-0.3125
1480509459315911,2.375,-0.5,0
1480509459329448,2.375,-0.875,0.125
1480509459361032,3,-1.0625,1.125
1480509459391612,4.875,-0.75,1.75
1480509459394120,8.25,-0.625,1.5625
1480509459420717,8.875,-1.625,1.9375
1480509459434254,6.875,-2.8125,1.8125
1480509459450798,2,-3.6875,3.125
1480509459471853,-1.6875,-3.875,3.75
1480509459494414,1.8125,-4.875,2.4375
1480509459509454,-1.25,-7.125,-1
1480509459532014,-4.125,-6,-1.75
1480509459554574,-13.6875,-7.5625,-2.125
1480509459569614,-23.9375,-7.125,-0.625
1480509459592174,-25.125,-5.1875,3.1875
1480509459614232,-24.625,-1.25,5
1480509459632997,-16.5,0.8125,5.8125
1480509459660857,-6.4375,1.4375,6.5625
1480509459674393,-4.3125,-0.4375,7.1875
1480509459689432,-0.125,-0.625,6.3125
1480509459711993,3.5625,-0.375,3.75
1480509459734553,1,0.875,3.9375
1480509459749592,2.125,-0.4375,1.125
1480509459772152,1.75,1.0625,-2.8125
1480509459794729,-8.9375,4.4375,-3.875
1480509459809251,-9.375,2.3125,-3.8125
1480509459831811,-0.75,-2,-3.5
1480509459854372,3.5625,-5.25,-3.4375
1480509459878437,2.25,-5.3125,-0.5625
1480509459891971,0.5,-6.75,1
1480509459914531,3.4375,-4.75,1.375
1480509459929573,6.5,-3.6875,0.6875
1480509459952133,5.875,-0.8125,1.75
1480509459974723,-1.8125,1.9375,1.9375
1480509459989249,-5.9375,3.875,3.375
1480509460011791,0.6875,3.8125,4.9375
1480509460034350,4.125,1.6875,4.125
1480509460049392,6.8125,1.375,1.875
1480509460072451,8.8125,1.375,1.3125
1480509460103033,8.375,-0.3125,1.6875
1480509460109550,6,-0.9375,2.75
1480509460132111,6.125,-1.5,3.375
1480509460163195,4.75,-2.4375,3.8125
1480509460169711,4.25,-2.4375,3.4375
1480509460194776,2.4375,-1.5625,4.0625
1480509460214329,-1.0625,-1.6875,3.9375
1480509460229368,-4.125,-0.9375,2.125
1480509460251930,-2.5625,0.875,1.375
1480509460274488,-0.5,1.875,-1.5625
1480509460289528,-2.125,2.6875,-1.6875
1480509460312089,-0.9375,4,1.625
1480509460334649,-3.625,4.3125,3.5
1480509460349689,-4.5,4.0625,3.9375
1480509460371747,-5.875,4.5,2.3125
1480509460394318,-7.5625,3.9375,1.5625
1480509460409347,-7.75,2.5625,1.5625
1480509460431908,-5.5625,1.625,2.8125
1480509460454468,-3.25,1.375,4.0625
1480509460472516,-5.125,0.375,5.9375
1480509460493573,-3.5,-0.5625,5.75
1480509460514627,-2,-0.1875,2.5625
1480509460529669,-3.8125,1.3125,1.75
1480509460551726,-6.25,2.5625,2.875
1480509460574287,-8.8125,2.9375,2.6875
1480509460589326,-6.8125,3.5,1.4375
1480509460611888,-5.125,4.1875,1.875
1480509460634448,-3.5,4.875,3.0625
1480509460649488,-5.375,5.125,2.8125
1480509460672051,-4.9375,5,0.375
1480509460694609,-2.375,3.75,-0.5
1480509460717167,-0.875,2,-0.9375
1480509460740729,-0.5,1.5625,-1.125
1480509460754265,-0.3125,0.5625,-1
1480509460778329,0,0.375,-1.125
1480509460791871,0.8125,0.8125,-0.5625
1480509460814425,1.0625,0.75,-0.1875
1480509460846023,3.1875,0.0625,0
1480509460852025,4.8125,-1.3125,-0.4375
1480509460874584,1.5625,-2.3125,-1
1480509460897146,-1.5,-3.5625,-1.5
1480509460912187,1.75,-4.625,-1.75
1480509460934249,4.375,-4.5625,-1.375
1480509460956803,1.6875,-4.375,-0.75
1480509460971844,-0.3125,-4.25,-1.3125
1480509460994403,2.5,-2.9375,-1.625
1480509461017465,5.5625,-1.25,-1.0625
1480509461032549,4.4375,0.875,-0.1875
1480509461054563,2.0625,2.8125,-1.25
1480509461085647,1.1875,3.0625,-2.0625
1480509461092164,2.9375,2.625,-1.4375
1480509461114223,3.5625,2.3125,-1.6875
1480509461136786,4.5625,2.375,-1.8125
1480509461151823,5.125,1.8125,-1.1875
1480509461174387,6.0625,1.25,-1.375
1480509461197444,5.1875,0.9375,-2.3125
1480509461211982,3.625,0.6875,-2.75
1480509461234543,2.4375,-0.4375,-2.4375
1480509461257103,1.6875,-0.1875,-1.25
1480509461272142,0.8125,0,-0.9375
1480509461294717,2.3125,-0.25,-0.125
1480509461325785,4.9375,-1,0.1875
1480509461331804,5.75,-1,0.375
1480509461354361,2.5625,-1.125,1.4375
1480509461376923,-0.125,-1.125,1.8125
1480509461394969,0.125,-0.9375,1.75
1480509461414521,2.8125,-0.4375,0.8125
1480509461437081,2.9375,-0.3125,0.5
1480509461459641,1.875,-0.125,1.4375
1480509461475684,-0.5625,-0.8125,1.5
1480509461497242,0.8125,-0.875,0.25
1480509461511780,2.5,-0.3125,-0.6875
1480509461534340,0.5625,0.5,-0.3125
1480509461556900,-0.375,-0.0625,0.125
1480509461571940,0.25,-0.5,0
1480509461610543,1.5625,-0.75,0.25
1480509461617060,1.1875,-0.25,0.375
1480509461639620,0.25,0.3125,-0.125
1480509461654660,0,0.0625,0.375
1480509461677224,1.1875,0,0.4375
1480509461699278,0.375,-0.1875,-0.4375
1480509461714319,-0.8125,0.0625,-0.6875
1480509461736878,-2.25,0.1875,-1
1480509461751918,-1,-0.1875,-0.75
1480509461774478,2.125,-0.8125,-0.0625
1480509461797038,2.0625,-1.0625,-0.25
1480509461812079,-2.1875,-1.875,-0.3125
1480509461834638,-3,-1.6875,-0.625
1480509461859706,-2.8125,-0.375,-0.8125
1480509461879758,-2.25,0.125,-0.875
1480509461894300,-1.5625,0.25,-0.375
1480509461916858,-1.4375,1,-0.6875
1480509461931897,-1.25,1.0625,-0.4375
1480509461954461,-0.6875,0.5,0.1875
1480509461977018,0.5625,-0.0625,0.375
1480509461992057,-2.375,-0.0625,-0.5625
1480509462014617,-5.9375,-1.3125,0.9375
1480509462037178,-0.9375,-2.25,0.625
1480509462051716,1.125,-1.0625,1.5
1480509462074276,3.3125,-0.4375,-0.0625
1480509462096841,-0.875,-0.1875,-2.1875
1480509462111876,-1.5625,0.8125,-1.8125
1480509462160506,0,1.625,-0.25
1480509462166020,0.625,3.0625,0.3125
1480509462179556,-0.4375,2.9375,-0.0625
1480509462194596,-1.875,2.9375,-0.4375
1480509462217156,-1.3125,2.875,-1.125
1480509462239215,0.5625,2.9375,-1.625
1480509462261775,-1.0625,2.125,-2.25
1480509462276816,-2.6875,1.875,-2
1480509462300064,-1,1.9375,-2
1480509462314415,2.375,1.5625,-1.375
1480509462336975,4.3125,-0.125,0.0625
1480509462360038,5.125,-1.75,1.25
1480509462374576,3.1875,-2.75,1.5625
1480509462397151,0.75,-3.1875,0.625
1480509462419696,-0.1875,-2.6875,0.0625
1480509462452281,0.5,-2.125,-0.375
1480509462456793,-0.9375,-1.125,-0.8125
1480509462479353,-0.5,-0.6875,-1
1480509462495898,2.3125,-0.4375,-0.8125
1480509462516954,4.0625,-0.75,-1.25
1480509462539514,3.125,-0.4375,-1.75
1480509462554554,1.125,-0.25,-1.25
1480509462577117,0.75,0.0625,-0.375
1480509462599673,2.5625,-0.25,1.25
1480509462614212,4.375,-1.1875,2
1480509462636772,3.8125,-2.125,1.5625
1480509462659834,0.125,-2.4375,0
1480509462674372,-1.0625,-2.625,-1.25
1480509462696937,1.75,-2.8125,-1.75
1480509462719493,4.0625,-2.25,-2.5
1480509462734532,3.5625,-1.5,-2.1875
1480509462757092,3.8125,-1.1875,-1.625
1480509462779653,3.25,-0.625,-1
1480509462794192,1.4375,-0.4375,-0.4375
1480509462816766,0.9375,0.1875,0.6875
1480509462839311,1.5,-0.125,0.6875
1480509462854351,1.0625,0.3125,-0.25
1480509462879919,1.125,0.625,-0.5
1480509462899472,2.3125,0.625,-0.125
1480509462914511,3.875,0,-0.3125
1480509462937573,1.75,-0.375,-2.0625
1480509462959631,0.5625,-0.5625,-1.75
1480509462974683,2.0625,-0.1875,-0.6875
1480509462996731,2.0625,0.0625,0.25
1480509463019290,0,0,0.25
1480509463034330,-2.1875,-0.125,-0.1875
1480509463056890,-0.625,-0.6875,0.125
1480509463079449,1.6875,-0.125,0.5
1480509463094499,0.5625,0,0.375
1480509463118555,-3.0625,0.1875,-0.5
1480509463139610,-2.8125,0.1875,-1.0625
1480509463154650,-0.875,-0.5,-0.9375
1480509463177210,-2.75,0,0.0625
1480509463199269,-4.4375,0.875,0.3125
1480509463217317,-2.3125,0.3125,0
1480509463236868,0.8125,0.6875,-0.1875
1480509463259429,-1.375,0.75,0.25
1480509463274468,-3.3125,0.4375,0.3125
1480509463304549,-3.3125,0.8125,-0.3125
1480509463319589,-1,0.625,-0.125
1480509463334628,-1.5625,0.4375,-0.3125
1480509463357189,-2.875,0.0625,-0.4375
1480509463379247,-1.6875,-0.1875,-0.5
1480509463394287,0.1875,0.5625,-0.75
1480509463416847,-0.1875,0.375,-0.8125
1480509463439408,-0.9375,0.25,-0.6875
1480509463461968,-0.5,-0.125,0.375
1480509463477008,-0.75,0.0625,-0.1875
1480509463500068,-0.9375,0.5625,-0.8125
1480509463522128,-0.4375,0.8125,-0.625
1480509463536675,-0.0625,0.375,-0.25
1480509463559728,0.4375,-0.125,-0.5
1480509463581787,0.25,-0.25,-1
1480509463596827,0.5625,0.3125,-0.4375
1480509463619386,-0.375,0.75,-0.625
1480509463641947,-1,0.75,-0.75
1480509463657042,-0.9375,0.625,-0.4375
1480509463679546,0.1875,0.3125,0.25
1480509463710633,1.5625,-0.25,0.4375
1480509463717146,1.375,0.0625,-0.4375
1480509463742720,0.125,0.75,-0.6875
1480509463770791,-0.875,1.375,-1
1480509463777309,-1.6875,1.4375,-0.625
1480509463802373,-1.25,1.0625,-0.5
1480509463831460,-0.875,0.3125,-0.4375
1480509463836965,0.875,0.4375,-0.875
1480509463871057,0.875,0.4375,-0.625
1480509463882087,0.125,0.0625,-0.0625
1480509463897127,-0.8125,-0.5,-0.3125
1480509463919184,-0.875,-0.3125,-0.6875
1480509463941745,-0.3125,-0.0625,-0.4375
1480509463956783,0.25,-0.1875,0.3125
1480509463979344,-0.375,-0.1875,0.4375
1480509464001903,-0.6875,-0.1875,0
1480509464016961,0.4375,-0.125,0.125
1480509464042511,1.0625,0.125,0.0625
1480509464062064,-0.375,0.25,0.25
1480509464077104,-1.1875,0,-0.1875
1480509464100679,0.5,-0.0625,-0.375
1480509464121723,1,0.1875,-0.625
1480509464136766,0.6875,0.3125,0.25
1480509464159323,0.4375,0.375,0.5625
1480509464181883,0.0625,0.0625,0.5
1480509464196925,0.5625,-0.0625,0.0625
1480509464219482,1.5,-0.25,-0.5625
1480509464242043,1.25,-0.25,-0.375
1480509464257082,0.8125,-0.0625,0.0625
1480509464279642,-0.5,0.1875,0.25
1480509464301702,-0.875,0.4375,0.1875
1480509464316741,0.4375,0.0625,0.5
1480509464339301,1.5,-0.4375,0.4375
1480509464361862,1.1875,-0.4375,-0.6875
1480509464387429,0.1875,0.125,-1.0625
1480509464399682,1.6875,0.3125,0.125
1480509464422021,0.5,-0.3125,0.75
1480509464444582,-0.625,-0.375,0.3125
1480509464459622,-0.125,-0.1875,-0.1875
1480509464481679,-0.1875,0,0.1875
1480509464504240,0.3125,-0.125,0.4375
1480509464519280,-0.4375,-0.0625,0.125
1480509464541841,-0.125,-0.0625,-0.0625
1480509464573424,0.5625,-0.0625,-0.0625
1480509464579440,0.0625,-0.25,-0.1875
1480509464602000,-0.5625,-0.625,-0.375
1480509464624560,-0.25,-0.625,-0.4375
1480509464639600,0.6875,-0.5625,-0.0625
1480509464661658,0.3125,-0.3125,0
1480509464684219,0.0625,-0.25,-0.3125
1480509464699259,0.3125,-0.6875,-0.4375
1480509464724826,1,-0.5,-0.5
1480509464744402,-0.125,-0.625,-0.6875
1480509464759920,-0.1875,-0.625,-0.5625
1480509464781979,0.6875,-0.4375,-0.0625
1480509464804545,0.875,-0.1875,0.1875
1480509464819579,0.125,-0.0625,0.25
1480509464842138,0.125,-0.375,-0.1875
1480509464874224,0.125,-0.6875,-0.25
1480509464879237,0.8125,-0.9375,-0.5625
1480509464910822,0.9375,-0.6875,-0.25
1480509464924357,1,-0.3125,0
1480509464942405,-0.5,-0.125,0.25
1480509464961957,-0.375,-0.5,0.125
1480509464984517,0.4375,-0.5625,-0.375
1480509464999800,0.4375,-0.5,0.1875
1480509465022117,-0.5,-0.125,0.25
1480509465044679,-0.125,-0.125,0.6875
1480509465059719,0.625,-0.3125,0.125
1480509465081776,0,-0.5,-0.4375
1480509465104336,-0.5,-0.8125,-0.875
1480509465119376,-0.25,-0.875,-0.4375
1480509465141937,-0.6875,-0.3125,0.25
1480509465164497,-1,-0.3125,0.25
1480509465179537,0.4375,-0.375,0.0625
1480509465202096,1.25,0.0625,-0.25
1480509465224659,0.3125,-0.4375,0.125
1480509465246714,-0.9375,-0.5,-0.0625
1480509465261754,-1,-0.625,-0.25
1480509465284314,0.5625,-0.625,-0.1875
1480509465299355,0.875,-0.6875,-0.375
1480509465321914,-0.375,-0.5,-0.375
1480509465344475,-0.4375,-0.0625,-0.4375
1480509465367035,0.3125,-0.125,-0.3125
1480509465382074,0.25,0,-0.4375
1480509465405637,0.125,0.0625,-0.25
1480509465435718,-0.125,0,-0.1875
1480509465441734,-0.4375,-0.25,-0.125
1480509465465798,-0.125,-0.1875,-0.25
1480509465486854,0.3125,-0.0625,-0.3125
1480509465501894,-0.25,-0.125,-0.1875
1480509465524455,-0.3125,-0.5,-0.5625
1480509465547013,0.0625,-0.625,-0.375
1480509465562053,1,-0.625,-0.125
1480509465584614,0.8125,-0.4375,-0.125
1480509465606673,-0.3125,-0.625,-0.125
1480509465621712,0.1875,-0.5,-0.25
1480509465644272,0.6875,-0.625,-0.1875
1480509465666832,-0.125,-0.75,-0.1875
1480509465684880,0.25,-0.625,-0.5
1480509465713466,0.125,-0.4375,-0.25
1480509465726992,0.75,-0.375,-0.125
1480509465745040,0.75,-0.125,0.1875
1480509465773115,-0.0625,-0.0625,-0.125
1480509465787153,-1.375,-0.125,-0.375
1480509465801691,-0.1875,-0.3125,0
1480509465824251,0.875,0,0.0625
1480509465846811,0.875,-0.0625,-0.3125
1480509465861851,0.125,-0.5,-0.5
1480509465884411,-0.375,-0.4375,-0.25
1480509465906971,0.125,-0.25,-0.0625
1480509465922011,-0.625,-0.25,0.0625
1480509465944571,-0.125,0.3125,0
1480509465967131,0.75,0.25,-0.0625
1480509465981672,0.75,-0.0625,0.125
1480509466012752,-0.0625,0.25,0.25
1480509466026791,-0.375,0.25,0.3125
1480509466044837,-0.5,0,0
1480509466064391,0.25,-0.0625,0.0625
1480509466086949,0.25,0,0
1480509466101990,-0.4375,0.1875,-0.1875
1480509466124550,0.0625,0.4375,-0.0625
1480509466147109,1.1875,0.5,0.125
1480509466162150,0.1875,0.375,0.125
1480509466184208,-1,0.3125,0.25
1480509466209777,-0.625,0,-0.0625
1480509466221808,0.6875,0.3125,-0.125
1480509466244369,0,0.375,-0.25
1480509466266929,-1.0625,0.3125,-0.1875
1480509466281968,-0.5625,0.3125,-0.25
1480509466304529,0.5625,0.3125,0.125
1480509466327089,0.6875,0.125,0.125
1480509466349648,0.1875,0.125,0
1480509466364188,-0.25,0.0625,-0.125
1480509466386747,0.25,-0.125,-0.125
1480509466409309,0.75,-0.25,0.0625
1480509466427857,0.6875,-0.25,0.125
1480509466446907,0.25,0.125,-0.1875
1480509466469467,0.25,0.25,0
1480509466484507,0.3125,0.125,0.0625
1480509466515590,0.25,-0.0625,0.125
1480509466529627,0.375,0.125,0.0625
1480509466544667,0,0.3125,0
1480509466570235,-0.1875,-0.0625,-0.1875
1480509466599430,0.5625,0.0625,-0.3125
1480509466604326,0.875,-0.0625,-0.375
1480509466626886,0.4375,-0.125,-0.1875
1480509466649446,0.125,-0.3125,-0.25
1480509466664492,0.3125,-0.3125,-0.0625
1480509466687046,0.25,0.125,0
1480509466709608,0.625,0.3125,-0.0625
1480509466732168,0.4375,0.1875,0.125
1480509466746704,0.0625,-0.1875,0
1480509466769265,-0.1875,-0.25,-0.1875
1480509466784305,0.6875,-0.0625,-0.1875
1480509466815888,0.4375,-0.0625,0.0625
1480509466829424,-0.0625,-0.0625,-0.0625
1480509466844465,-0.5,0,-0.3125
1480509466867024,0.4375,0.1875,-0.3125
1480509466889584,0.875,0.375,0.0625
1480509466904625,0.5,0.1875,-0.0625
1480509466926692,-0.625,0,-0.1875
1480509466949245,-0.5625,0,-0.0625
1480509466964284,0.5,0.0625,-0.0625
1480509466988347,0.3125,0.25,-0.0625
1480509467009407,-0.5,0.1875,0.0625
1480509467024444,-0.625,0.1875,-0.3125
1480509467047004,0.0625,0,-0.1875
1480509467072070,0.4375,0.1875,-0.0625
1480509467084609,-0.1875,0.1875,0
1480509467106662,-0.125,0.0625,-0.0625
1480509467129222,0.25,0.125,-0.0625
1480509467144263,-0.125,0.0625,-0.125
1480509467166824,-0.0625,-0.1875,-0.25
1480509467189383,0.1875,0,-0.1875
1480509467204422,0.3125,0.3125,-0.125
1480509467226982,-0.4375,0.3125,0.125
1480509467252550,-0.1875,0.25,0
1480509467272102,0.0625,0.3125,-0.125
1480509467294662,0.125,0.25,0.0625
1480509467309202,-0.5625,0.375,0.0625
1480509467340785,-0.25,0.4375,0.0625
1480509467346801,0.375,0.3125,-0.25
1480509467378385,0.625,0.1875,-0.0625
1480509467391921,0.375,0.0625,0.25
1480509467409969,-0.5,0.0625,0.0625
1480509467431025,-0.625,0.125,-0.125
1480509467452081,0.0625,0.3125,-0.125
1480509467468124,0.875,0.0625,0.0625
1480509467489179,0.625,-0.0625,0.1875
1480509467511739,-0.25,-0.0625,0
1480509467526780,-0.375,-0.125,-0.0625
1480509467549339,0.5625,-0.125,-0.125
1480509467571899,0.4375,-0.0625,0.0625
1480509467586940,-0.4375,0,-0.0625
1480509467609501,-0.1875,0.1875,-0.25
1480509467632060,0.5625,0.125,-0.125
1480509467647099,0.625,0.125,0.1875
1480509467678684,-0.25,0.125,0
1480509467691719,-0.375,0.25,0.125
1480509467706758,-0.1875,0.125,-0.0625
1480509467729318,0.0625,-0.0625,0.125
1480509467751878,0.0625,0.125,-0.125
1480509467774439,-0.4375,0.0625,-0.125
1480509467789478,-0.1875,0.125,-0.125
1480509467812038,0.0625,0.0625,0.125
1480509467827079,0.0625,0,0
1480509467859665,-0.1875,0,-0.0625
1480509467871697,0,-0.25,-0.1875
1480509467886737,0.0625,-0.125,-0.25
1480509467909300,0.1875,-0.0625,-0.0625
1480509467931857,-0.3125,-0.0625,-0.0625
1480509467963441,-0.3125,-0.1875,-0.0625
1480509467969458,0.0625,0,-0.25
1480509467993521,-0.0625,0.0625,-0.0625
1480509468007057,-0.3125,-0.0625,0.125
1480509468029617,-0.125,0.0625,0.125
1480509468051676,0.125,0.25,0.25
1480509468066716,-0.5625,0.4375,0.0625
1480509468089276,-0.3125,0.375,0.0625
1480509468111836,0.75,0.1875,-0.1875
1480509468126876,0.6875,0,-0.25
1480509468152444,0.125,-0.25,-0.1875
1480509468173504,-0.0625,-0.3125,0.0625
1480509468187036,-0.375,0.0625,0.125
1480509468212606,-0.25,0.0625,-0.3125
1480509468242184,0.5,0.0625,-0.1875
1480509468254216,0.8125,0.1875,0.0625
1480509468270766,-0.0625,0,0.1875
1480509468300839,-0.625,-0.1875,-0.125
1480509468314375,-0.125,-0.25,-0.25
1480509468329414,0.25,0,-0.1875
1480509468351974,-0.375,0.3125,-0.0625
1480509468374535,-0.25,0.375,-0.0625
1480509468389574,0.75,0.25,-0.0625
1480509468411633,0.9375,0.375,0.125
1480509468434695,-0.5,0.125,0.1875
1480509468459761,-1.1875,0.0625,-0.1875
1480509468471793,-0.0625,-0.0625,0
1480509468494355,0.75,0.0625,0.0625
1480509468516913,-0.25,0.125,-0.0625
1480509468531953,-1.125,0.1875,-0.1875
1480509468554513,0.0625,0.1875,-0.125
1480509468578577,0.5,0.1875,0.125
1480509468592115,-0.4375,0,-0.0625
1480509468614171,-0.5625,-0.0625,-0.0625
1480509468645756,-0.125,0.125,0.0625
1480509468651772,0,0.3125,0.0625
1480509468674331,0.125,0,-0.0625
1480509468689372,0,-0.125,0.0625
1480509468711932,-0.3125,0.0625,-0.0625
1480509468734493,-0.4375,-0.125,-0.25
1480509468749532,0.0625,-0.1875,-0.1875
1480509468772093,-0.375,-0.0625,-0.0625
1480509468794151,-0.375,0,0.1875
1480509468809693,0.0625,-0.1875,0.3125
1480509468831751,-0.75,0,0
1480509468854311,-0.25,0.1875,0
1480509468869351,-0.375,0.3125,0.4375
1480509468891911,0.25,0,0.375
1480509468914471,0.3125,0.0625,0.125
1480509468929517,-0.3125,0.125,0
1480509468952070,-0.4375,-0.25,-0.25
1480509468974145,-1.4375,0.125,0.3125
1480509468989169,-0.375,0.4375,0.75
1480509469011729,1.4375,0.125,0.0625
1480509469034291,-0.1875,0.5,-0.125
1480509469049330,-1.25,0.125,0.8125
1480509469074898,-1.875,-0.0625,0.6875
1480509469102972,2,-0.3125,0.125
1480509469109490,0.625,-0.125,-0.0625
1480509469132050,-1.25,-0.25,0.0625
1480509469154609,-1.625,-0.125,0.125
1480509469178173,0.125,0,0.125
1480509469191708,0.6875,-0.1875,0.125
1480509469214269,1,-0.4375,-0.1875
1480509469236828,-0.3125,-0.3125,-0.5
1480509469251868,-0.875,-0.4375,-0.25
1480509469274428,-0.1875,-0.4375,0.0625
1480509469296988,0.875,-0.375,0.0625
1480509469312028,1.125,-0.375,-0.1875
1480509469343112,-0.1875,-0.5,-0.0625
1480509469357148,0.4375,-0.6875,-0.4375
1480509469379207,1,-0.25,-0.4375
1480509469394247,-0.5,-0.125,-0.375
1480509469416806,-0.25,-0.5625,-0.1875
1480509469431849,0.625,-0.75,-0.25
1480509469454407,0.375,-0.625,-0.25
1480509469476968,-0.5,-0.5625,-0.3125
1480509469492008,0.5625,-0.625,-0.25
1480509469514567,0.1875,-0.125,-0.0625
1480509469536629,-0.1875,-0.125,-0.1875
1480509469551665,-0.1875,-0.3125,0
1480509469574225,0.1875,-0.1875,0
1480509469596787,0.625,-0.5625,0.0625
1480509469611826,0.0625,-0.625,-0.125
1480509469634386,-0.75,-0.1875,0
1480509469656946,1,-0.125,0.375
1480509469671986,0.9375,-0.25,-0.125
1480509469694546,0.6875,-0.3125,-0.4375
1480509469718109,0.6875,-0.375,-0.875
1480509469732147,0.25,-0.125,-1.0625
1480509469754205,-0.4375,-0.3125,-0.875
1480509469776765,0,-0.6875,-1.0625
1480509469792308,0.5,-0.75,-0.8125
1480509469814364,0.6875,-0.5,-0.8125
1480509469836925,0.1875,-0.625,-0.5625
1480509469853469,0,-0.6875,-0.625
1480509469874526,-0.0625,-0.4375,-0.875
1480509469897085,0.9375,-0.5,-0.5
1480509469912124,0.875,-0.375,-0.0625
1480509469937191,-0.0625,-0.3125,0
1480509469956743,-0.75,-0.375,-0.5
1480509469974791,0.5625,-0.375,-0.4375
1480509469997352,1,-0.1875,-0.6875
1480509470016903,0.125,0.125,-0.4375
1480509470034951,-1,0.375,-0.0625
1480509470054503,-0.9375,0.125,0
1480509470077065,0.3125,0.625,0
1480509470092105,0.375,0.8125,0.1875
1480509470114162,-1.0625,0.625,0
1480509470136722,-2.25,0.5,-0.375
1480509470159282,-1.1875,0.625,-0.25
1480509470175826,-0.8125,0.75,0.4375
1480509470196882,0.25,-0.125,0.375
1480509470219442,-0.3125,-0.25,-0.3125
1480509470234481,-1.9375,-0.75,0.25
1480509470257042,0.9375,-0.75,0.5
1480509470279602,-1.4375,0.25,0.5625
1480509470301661,-0.3125,-0.0625,0.5
1480509470318204,-0.6875,-0.375,0.3125
1480509470339261,-3.0625,0.125,0.625
1480509470354300,-0.375,0.0625,0.9375
1480509470376861,0.3125,-0.6875,0.625
1480509470399420,-0.5,-1.0625,0.1875
1480509470414461,1.75,-0.375,0.125
1480509470437021,0.875,-0.1875,0.0625
1480509470459581,-0.25,-0.0625,-0.125
1480509470474119,-2.5,-0.375,0.0625
1480509470497182,-0.3125,-0.3125,-0.125
1480509470519239,1.4375,-0.4375,0.1875
1480509470534279,-0.1875,0.3125,-0.375
1480509470556840,-1.25,0.125,-0.5
1480509470579399,0.1875,0.375,-0.8125
1480509470594439,-0.0625,1.0625,-0.75
1480509470617020,-1.8125,1.0625,-0.375
1480509470648082,-0.625,0.5,-0.9375
1480509470654600,0.6875,0.625,-0.8125
1480509470679666,1.0625,0.75,-0.5625
1480509470708259,0.125,0.875,-0.125
1480509470714259,-0.9375,1.125,-0.5
1480509470736831,-1.1875,0.75,-0.375
1480509470759378,0.3125,-0.125,-0.4375
1480509470774419,1.125,-0.5,-1.25
1480509470796979,0.25,-0.1875,-1
1480509470819538,-0.3125,0.125,-0.625
1480509470834078,-1.125,0.0625,-0.0625
1480509470856637,0.9375,-0.0625,-0.3125
1480509470879197,0.375,0.3125,-0.5
1480509470897246,-0.5,0.4375,-0.375
1480509470916797,-0.125,0.375,-0.25
1480509470939357,-0.5,0,-0.25
1480509470954397,0.4375,-0.5,0
1480509470976960,0.9375,-0.4375,-0.3125
1480509470999518,0.0625,-0.25,-0.375
1480509471014556,-0.5625,-0.25,-0.1875
1480509471038120,0.3125,-0.0625,-0.3125
1480509471059678,0.375,0.1875,-0.3125
1480509471081735,-0.4375,-0.125,-0.125
1480509471096777,0,-0.0625,0
1480509471119336,0,0.25,-0.0625
1480509471141897,0.1875,0.0625,-0.125
1480509471156936,0.125,-0.1875,-0.125
1480509471188018,-0.375,-0.125,-0.0625
1480509471202055,-0.8125,0.1875,-0.3125
1480509471217096,-0.25,0.5,-0.25
1480509471239154,0.25,0.625,-0.1875
1480509471261715,0.5,0.25,-0.1875
1480509471276761,0.3125,-0.4375,0.0625
1480509471299535,1.25,-0.6875,-0.5625
1480509471321874,0.0625,-0.3125,-0.625
1480509471336915,-1,-0.3125,-0.3125
1480509471359474,-0.875,0.0625,-0.625
1480509471391059,1.125,0.0625,-0.3125
1480509471398579,1.0625,0.1875,0.25
1480509471429662,-0.5,-0.125,0.25
1480509471441695,0.6875,0.6875,-0.375
1480509471457235,-0.25,1.25,-0.3125
1480509471479302,-1.375,0.8125,0.125
1480509471501853,-2.3125,0.75,-0.0625
1480509471516893,0.3125,0.4375,0.125
1480509471539453,1,0.4375,0.4375
1480509471562013,0.8125,0.0625,0.25
1480509471577053,-0.25,-0.1875,0.1875
1480509471599613,-0.75,-0.125,-0.125
1480509471623176,-1.375,0.0625,-0.1875
1480509471636712,-0.6875,0.25,-0.0625
1480509471662281,0.25,0.375,0.3125
1480509471681832,-0.0625,0.125,0.25
1480509471696872,-1.1875,-0.125,0.25
1480509471719433,-0.4375,0.0625,0.3125
1480509471741992,0.1875,-0.125,0.5
1480509471757039,0.5,-0.4375,0.1875
1480509471779592,0.1875,-0.75,0.0625
1480509471801651,-0.0625,-0.8125,-0.125
1480509471816690,-0.375,-0.3125,0.125
1480509471839251,0,-0.0625,0.375
1480509471861810,0,-0.125,0.25
1480509471878355,-0.625,-0.25,-0.0625
1480509471899411,-0.25,-0.1875,-0.0625
1480509471921971,0.25,-0.3125,0.0625
1480509471937010,0.3125,-0.375,0.3125
1480509471959570,0.0625,-0.5,0.3125
1480509471983133,-0.125,-0.25,0
1480509472004190,0.25,-0.0625,0.0625
1480509472019229,0.25,0.4375,0.5
1480509472041793,-0.125,0.25,0.8125
1480509472064350,-0.375,0.5625,0.625
1480509472079389,0.3125,0.625,0.1875
1480509472101950,-0.1875,0.3125,-0.3125
1480509472124510,-0.3125,-0.1875,-0.75
1480509472147069,-0.1875,0,-1
1480509472162115,-1.125,0.5,-0.375
1480509472184670,-0.125,0.25,0.25
1480509472200712,0.375,0.125,0
1480509472221768,0.1875,-0.0625,-0.1875
1480509472244328,0,-0.0625,0.125
1480509472259369,-0.1875,-0.125,-0.0625
1480509472281928,0.625,-0.1875,-0.5625
1480509472313022,0.125,-0.3125,-0.4375
1480509472319529,-0.625,-0.3125,-0.25
1480509472342088,-0.8125,-0.1875,0
1480509472365653,0.1875,0.125,0.1875
1480509472379188,0.5,0.0625,0.0625
1480509472401747,0.4375,0.125,-0.1875
1480509472424810,-0.5,0.1875,0
1480509472439347,-0.6875,-0.0625,-0.125
1480509472461907,-0.125,-0.3125,-0.5
1480509472484467,-0.25,-0.1875,-0.25
1480509472499507,-0.25,0.0625,0.125
1480509472522067,0.125,-0.0625,0.3125
1480509472544627,-0.1875,0.0625,0.0625
1480509472559166,-0.375,-0.1875,-0.0625
1480509472581726,0.375,-0.4375,-0.125
1480509472613310,0.875,-0.5625,0
1480509472619325,0.375,-0.6875,-0.125
1480509472641887,-0.75,-0.4375,-0.3125
1480509472664446,-0.125,-0.4375,-0.1875
1480509472679486,0.5625,-0.3125,0
1480509472702047,0.25,-0.3125,0.1875
1480509472724104,0.0625,-0.4375,-0.0625
1480509472739149,0.4375,-0.375,-0.25
1480509472761704,0.1875,-0.4375,-0.375
1480509472784266,-0.0625,-0.375,-0.1875
1480509472808332,-0.0625,-0.3125,-0.0625
1480509472829385,0.0625,-0.125,-0.1875
1480509472844425,0.25,-0.375,0.0625
1480509472859465,0.25,-0.1875,0.1875
1480509472882024,0.1875,-0.25,0.1875
1480509472904584,0.125,0,0.3125
1480509472927145,0.5,-0.0625,0.125
1480509472941684,0.625,-0.1875,-0.25
1480509472964243,0.6875,-0.4375,-0.5
1480509472986803,0.3125,-0.5625,-0.1875
1480509473001843,0.1875,-0.5,-0.0625
1480509473024405,-0.375,-0.3125,-0.125
1480509473046963,-0.0625,-0.125,0
1480509473062004,0.625,0.0625,0.0625
1480509473084563,0.6875,-0.1875,0.375
1480509473107123,0.0625,-0.375,0.1875
1480509473121662,-0.1875,-0.625,-0.0625
1480509473144222,-0.125,-0.5625,-0.4375
1480509473166783,0.4375,-0.375,-0.125
1480509473181822,0.25,-0.25,-0.0625
1480509473204382,-0.625,-0.125,-0.0625
1480509473227445,-0.125,-0.25,0
1480509473241990,0.75,-0.1875,-0.1875
1480509473264543,0.5625,-0.1875,-0.0625
1480509473287102,-0.4375,-0.4375,-0.125
1480509473302142,-0.3125,-0.4375,0.0625
1480509473324202,0.375,-0.1875,-0.125
1480509473346761,0.1875,-0.25,-0.125
1480509473361809,-0.5,-0.375,-0.125
1480509473384360,-0.5,-0.1875,-0.0625
1480509473406920,0.4375,-0.25,0.0625
1480509473424970,0.3125,-0.375,-0.0625
1480509473444521,0.1875,-0.3125,-0.1875
1480509473467080,0.125,-0.4375,-0.1875
1480509473483123,0.3125,-0.4375,-0.125
1480509473507189,-0.375,-0.5625,-0.1875
1480509473526739,0,-0.5,-0.0625
1480509473544787,0.0625,-0.4375,-0.125
1480509473573866,0.0625,-0.4375,-0.125
1480509473586899,0.1875,-0.5,0
1480509473601942,-0.0625,-0.5,-0.125
1480509473624500,-0.25,-0.6875,0.1875
1480509473647059,1.0625,0,-0.125
1480509473662099,0.125,-0.25,0
1480509473684158,-0.25,-0.6875,-0.4375
1480509473706718,-0.625,-0.625,-0.625
1480509473732833,-0.1875,-0.125,-0.1875
1480509473744318,0.5625,0.0625,0.1875
1480509473766879,0.5625,-0.0625,0
1480509473781918,0.1875,-0.625,-0.625
1480509473804478,0.5,-0.75,-0.625
1480509473827039,0.625,-0.8125,-0.0625
1480509473850601,-0.1875,-0.875,0.125
1480509473864639,-0.3125,-0.5625,-0.0625
1480509473895721,0.875,-0.0625,-0.375
1480509473909270,0.6875,-0.125,-0.3125
1480509473924298,-0.0625,-0.3125,0.25
1480509473946857,-0.25,-0.375,0.0625
1480509473969418,0.6875,-0.3125,-0.3125
1480509473984457,0.3125,-0.0625,-0.125
1480509474018547,-0.4375,0.0625,-0.375
1480509474038099,-0.5625,-0.0625,-0.0625
1480509474068681,-0.0625,0.1875,-0.375
1480509474071188,-0.25,0.25,-0.375
1480509474098261,-0.125,0.0625,0.125
1480509474104275,-0.375,-0.125,0.0625
1480509474129848,-0.3125,-0.1875,0.1875
1480509474158423,-0.0625,-0.3125,0.125
1480509474164436,0.125,-0.0625,-0.1875
1480509474198529,-0.3125,-0.0625,-0.125
1480509474218078,-0.1875,0,0
1480509474224598,-0.0625,-0.1875,0.1875
1480509474246654,0.375,-0.3125,0.0625
1480509474269216,0.625,-0.1875,-0.25
1480509474284254,0.625,-0.1875,-0.0625
1480509474306814,0.0625,-0.3125,-0.0625
1480509474329374,-0.8125,-0.125,-0.3125
1480509474347422,-0.625,0.0625,-0.0625
1480509474369982,0,0.1875,0.1875
1480509474389534,0.25,0.0625,0
1480509474407583,-0.0625,-0.125,-0.1875
1480509474435658,0.1875,-0.125,-0.125
1480509474449193,0.25,-0.25,0.125
1480509474467241,0,-0.25,0.25
1480509474486797,-0.3125,0.125,0.0625
1480509474509353,-0.3125,0.1875,0
1480509474525897,-0.125,0.4375,0
1480509474546953,0.3125,0.3125,-0.125
1480509474569513,0.3125,0.1875,-0.1875
1480509474585556,0.0625,0,0
1480509474607114,-0.0625,0.0625,-0.0625
1480509474629171,-0.0625,0.25,0
1480509474654740,-0.1875,0.375,-0.1875
1480509474674293,0.125,0.375,0
1480509474689332,0.25,0.1875,0.25
1480509474704372,0,0.1875,0
1480509474726932,-0.4375,-0.3125,-0.125
1480509474749492,0.6875,-0.125,-0.1875
1480509474764532,0.0625,-0.0625,-0.1875
1480509474786591,-0.5625,-0.25,0.1875
1480509474809151,-0.3125,0,-0.125
1480509474824693,-0.0625,0.4375,-0.125
1480509474846751,0.625,0.1875,0.1875
1480509474869311,1.0625,-0.125,-0.25
1480509474891871,-0.4375,0,0.125
1480509474906912,-1.125,0.125,-0.0625
1480509474930976,-0.25,0.25,-0.0625
1480509474960553,0.1875,0.1875,-0.125
1480509474967070,-0.5,0.125,0.0625
1480509474992638,-0.5,0.1875,0.0625
1480509475020713,0.1875,0.0625,-0.125
1480509475026733,0.375,0,-0.25
1480509475049290,0.1875,-0.125,-0.0625
1480509475071849,0.1875,-0.1875,-0.0625
1480509475086889,-0.5,-0.1875,-0.0625
1480509475109453,-0.125,-0.125,0
1480509475141035,0.625,-0.125,0.125
1480509475147049,0.1875,-0.1875,-0.125
1480509475169116,-0.1875,-0.1875,-0.0625
1480509475191668,0.25,-0.0625,-0.125
1480509475206712,0.1875,0.25,0.1875
1480509475238292,-0.25,0.25,0.1875
1480509475251828,-0.125,-0.125,0.0625
1480509475266868,-0.125,0,-0.1875
1480509475297450,-0.0625,-0.125,-0.1875
1480509475311988,0.375,0,0.0625
1480509475327027,-0.375,-0.0625,-0.0625
1480509475349588,-0.625,-1.1875,0.0625
1480509475371647,1.6875,-1.75,0.3125
1480509475386687,2.875,-1.9375,0.75
1480509475418271,3.25,-1.9375,0.9375
1480509475431807,2.3125,-1.3125,0.4375
1480509475446846,-0.125,-0.5,-0.375
1480509475477428,-1.4375,-0.125,-0.1875
1480509475491971,0.3125,0.0625,-0.1875
1480509475507008,0.1875,0.5,0.125
1480509475529567,-0.75,0.3125,0.125
1480509475551626,0.0625,0.0625,-0.3125
1480509475566666,0.8125,0.125,-0.375
1480509475589729,0.1875,0.0625,-0.1875
1480509475611786,-0.75,0,-0.0625
1480509475626825,-0.1875,0.0625,-0.3125
1480509475649386,0.25,0.375,-0.3125
1480509475671946,0.375,0.125,-0.0625
1480509475686985,0,-0.0625,0.1875
1480509475709044,-0.375,-0.1875,0.25
1480509475731614,-0.1875,0.0625,-0.0625
1480509475746644,0.125,0.3125,-0.0625
1480509475769204,0,0.125,0
1480509475791765,-0.5625,0,-0.1875
1480509475814324,-0.5,-0.0625,-0.125
1480509475829364,0.0625,-0.25,-0.0625
1480509475851924,0.375,0,-0.1875
1480509475874484,0.4375,-0.1875,-0.0625
1480509475889524,0.0625,-0.5,-0.25
1480509475914592,-0.3125,-0.3125,-0.375
1480509475934644,-0.375,-0.25,-0.1875
1480509475949182,0.125,-0.3125,0
1480509475971743,0.625,-0.125,-0.0625
1480509475994303,0.3125,-0.1875,0.0625
1480509476009343,0,-0.1875,-0.125
1480509476031903,-0.4375,-0.4375,0
1480509476054463,-0.1875,-0.1875,-0.0625
1480509476070506,-0.3125,0.125,-0.0625
1480509476092063,0.5,0,0.25
1480509476114122,0.375,-0.25,0
1480509476129162,-1.25,0,-0.25
1480509476151721,-0.8125,0.25,-0.1875
1480509476174282,0.9375,0.375,0.375
1480509476189323,0.9375,0.0625,0.25
1480509476221407,-0.3125,-0.375,-0.3125
1480509476234442,0.5,-0.625,-0.4375
1480509476249482,0.625,-0.5625,-0.375
1480509476280565,-0.125,-0.0625,0.0625
1480509476294101,-1,0,0.125
1480509476325684,-0.3125,0.3125,-0.1875
1480509476331701,0.6875,-0.3125,0.125
1480509476354260,0.5625,-0.375,-0.0625
1480509476369301,-0.375,-0.375,0.0625
1480509476393364,0.0625,-0.1875,-0.0625
1480509476417428,0.1875,-0.125,-0.125
1480509476429460,0.375,-0.25,-0.1875
1480509476460043,-0.75,0.125,-0.25
1480509476474583,-0.1875,0.0625,-0.125
1480509476489119,0.5,0.125,-0.125
1480509476511679,0.375,0.0625,-0.1875
1480509476534242,0.25,-0.3125,-0.0625
1480509476549279,0,-0.3125,-0.0625
1480509476556799,-0.625,-0.1875,-0.1875
1480509476579359,0.3125,0,-0.125
1480509476602922,-0.0625,-0.125,-0.0625
1480509476616960,0.0625,0,-0.25
1480509476639521,-0.1875,-0.1875,0
1480509476663082,0.125,0.125,-0.0625
1480509476676618,0.25,0,-0.0625
1480509476699180,0.6875,-0.125,-0.0625
1480509476723242,0.375,-0.375,0.125
1480509476737279,0.125,-0.375,0
1480509476759338,-0.3125,-0.375,-0.125
1480509476783402,0.3125,-0.0625,-0.1875
1480509476796939,0.625,0,-0.0625
1480509476819498,0.125,-0.125,0.0625
1480509476843061,-0.25,-0.4375,0.0625
1480509476856598,0.125,-0.625,-0.25
1480509476879156,0.6875,-0.25,-0.1875
1480509476903221,0.8125,-0.0625,-0.0625
1480509476916757,-0.375,0.1875,0.125
1480509476939335,-0.5625,0.1875,0.0625
1480509476963381,-0.1875,0.0625,-0.1875
1480509476976917,0.375,-0.1875,0
1480509476999477,0.625,-0.0625,0.1875
1480509477025046,-0.125,0,0.375
1480509477036575,-0.5625,0.125,0.125
1480509477060640,0.125,0,-0.125
1480509477083199,1,0.0625,-0.125
1480509477096736,0.875,-0.3125,0.1875
1480509477119296,-0.0625,-0.3125,0.125
1480509477142358,-0.6875,-0.0625,-0.125
1480509477165919,-0.25,0.125,-0.0625
1480509477179455,0.125,0.1875,-0.0625
1480509477202516,0.0625,-0.0625,-0.3125
1480509477217055,0,-0.4375,-0.1875
1480509477239114,-0.1875,-0.375,-0.125
1480509477261681,0.1875,-0.125,0.125
1480509477285738,0.375,-0.0625,0.0625
1480509477299275,0,0.0625,-0.125
1480509477321834,-0.4375,0.1875,0.0625
1480509477345898,-0.4375,0.1875,0.4375
1480509477367957,0.5625,0.125,0.25
1480509477381994,0.6875,0.0625,0
1480509477405557,0,-0.1875,-0.25
1480509477419594,-0.5,-0.3125,-0.5
1480509477441678,-0.6875,-0.1875,-0.3125
1480509477465738,-0.0625,-0.375,-0.125
1480509477479273,0.0625,-0.25,-0.375
1480509477501833,-0.25,-0.1875,-0.3125
1480509477524896,-0.125,-0.25,-0.25
1480509477555484,-0.1875,0,0
1480509477561993,0.125,-0.1875,0.125
1480509477588564,0.6875,-0.1875,0.25
1480509477599366,0.9375,-0.125,0.25
1480509477621652,0.6875,-0.0625,0.125
1480509477645717,0,-0.1875,0
1480509477659252,-0.125,-0.3125,-0.0625
1480509477681813,0.1875,-0.5625,-0.1875
1480509477705877,0.4375,-0.3125,-0.375
1480509477719413,0.125,-0.125,-0.5
1480509477741973,0.125,-0.125,0.125
1480509477765535,0,-0.1875,0.125
1480509477779071,-0.4375,-0.6875,-0.1875
1480509477801631,0.125,-0.75,-0.375
1480509477825696,0.75,-0.5,-0.4375
1480509477839231,0.125,-0.0625,0
1480509477861791,0.125,-0.0625,0.125
1480509477885354,0.3125,-0.3125,-0.0625
1480509477899392,0.5625,-0.4375,-0.125
1480509477921952,0.625,-0.25,-0.25
1480509477946517,0.25,-0.125,-0.1875
1480509477959555,0.0625,-0.5,-0.3125
1480509477983113,0.625,-0.5625,-0.625
1480509478005673,0.625,-0.375,-0.4375
1480509478019210,0.25,-0.625,-0.1875
1480509478041770,-0.5,-0.625,-0.25
1480509478065834,-0.125,-0.375,-0.125
1480509478079369,0.5625,-0.125,0
1480509478110960,0.75,-0.25,0.0625
1480509478125492,0,-0.4375,0.125
1480509478139085,0.125,-0.625,0.125
1480509478161645,0.375,-0.5,-0.1875
1480509478186210,0.4375,-0.4375,-0.125
1480509478199245,0,-0.375,-0.25
1480509478222306,-0.5625,-0.5625,-0.25
1480509478245368,-0.4375,-0.0625,-0.375
1480509478259405,0.125,0.125,-0.4375
1480509478290488,0.5,-0.1875,-0.125
1480509478305528,0.375,-0.375,0
1480509478319581,-0.5625,-0.1875,0
1480509478341624,-0.625,-0.25,-0.25
1480509478365187,0.3125,-0.1875,-0.0625
1480509478388247,0,-0.125,-0.0625
1480509478418829,-0.1875,-0.0625,0.0625
1480509478424344,0.3125,-0.0625,0.0625
1480509478447906,0.75,0,-0.1875
1480509478461944,0.6875,-0.1875,-0.3125
1480509478484504,0.375,-0.1875,-0.0625
1480509478499545,-0.375,-0.375,0.0625
1480509478522103,-0.5625,-0.375,-0.125
1480509478544163,0,-0.25,-0.375
1480509478568226,0.1875,-0.0625,-0.1875
1480509478581763,0,0,0.125
1480509478604323,-0.3125,-0.1875,0.125
1480509478619363,-0.25,-0.1875,0.0625
1480509478641930,0,0,-0.0625
1480509478667491,-0.0625,0.1875,-0.1875
1480509478679523,-0.375,0.0625,0
1480509478701581,-0.25,0.125,-0.0625
1480509478724143,-0.1875,0.1875,0.1875
1480509478748205,0,0.3125,0.25
1480509478761741,-0.75,0.4375,0
1480509478787310,-0.5,0.3125,-0.0625
1480509478808365,0.0625,0.1875,-0.125
1480509478821901,0.6875,-0.0625,0.0625
1480509478844461,0.0625,-0.0625,0.125
1480509478868024,-0.5,0.3125,0.125
1480509478881560,-0.4375,0.375,0.125
1480509478904120,0.1875,0.25,0.125
1480509478928184,0.25,0.125,0
1480509478941721,-0.5,-0.3125,-0.1875
1480509478964280,-0.25,-0.0625,-0.375
1480509478988344,0.1875,0.0625,-0.1875
1480509479001880,-0.125,0.125,0.1875
1480509479024941,-0.5625,0.3125,-0.0625
1480509479048002,-0.625,0.25,-0.0625
1480509479062044,0.125,0.1875,-0.125
1480509479093123,0.4375,-0.125,-0.0625
1480509479108163,0.375,-0.125,-0.125
1480509479121699,-0.1875,-0.125,0
1480509479144259,-0.5,-0.0625,0
1480509479168323,-0.4375,-0.0625,0.1875
1480509479181859,-0.375,0.0625,-0.0625
1480509479212942,-0.9375,-0.125,-0.25
1480509479227982,-0.5,0.0625,-0.125
1480509479242018,0,0.3125,-0.125
1480509479264079,0,0.25,0.125
1480509479287640,-0.375,0.0625,0.0625
1480509479303183,0,-0.125,-0.125
1480509479333261,0,-0.0625,-0.125
1480509479346797,-0.5,0.125,-0.1875
1480509479361838,-0.0625,0.0625,0.0625
1480509479384397,0.125,0.0625,0.0625
1480509479406961,0,-0.0625,0.1875
1480509479421997,0,0.0625,0
1480509479444557,-0.125,0.125,0
1480509479468120,0.125,0.125,0
1480509479481656,-0.1875,0,-0.0625
1480509479504216,-0.125,-0.125,-0.0625
1480509479526777,-0.4375,0.125,0
1480509479541817,0,0.3125,0.1875
1480509479564378,0,0.3125,0.1875
1480509479586937,-0.0625,0.3125,-0.1875
1480509479611000,0,-0.125,-0.375
1480509479624537,0.1875,-0.25,-0.1875
1480509479646594,-0.0625,-0.1875,0
1480509479663140,-0.5,0.0625,0
1480509479684195,-0.125,0.1875,-0.0625
1480509479707259,0.25,0.125,-0.125
1480509479721796,0.1875,0,0.1875
1480509479747864,-0.3125,-0.125,0.0625
1480509479766917,-0.3125,-0.1875,-0.125
1480509479781955,0.5,0,-0.125
1480509479804516,0.4375,-0.1875,0
1480509479827075,-0.4375,-0.125,0
1480509479841613,-0.75,-0.25,-0.25
1480509479864174,0.4375,-0.0625,-0.375
1480509479886733,0.875,0.0625,-0.1875
1480509479901774,0.3125,-0.125,-0.125
1480509479924334,-0.75,0,0
1480509479946894,-0.8125,-0.1875,0.125
1480509479961935,-0.125,-0.125,0
1480509479984493,0.1875,-0.0625,-0.125
1480509480007057,-0.125,0.125,-0.1875
1480509480022094,-0.4375,0,-0.125
1480509480044152,-0.375,0.125,-0.1875
1480509480066712,0.4375,0.0625,-0.0625
1480509480081752,0.375,-0.0625,-0.125
1480509480104312,0,-0.3125,-0.0625
1480509480126872,-0.6875,-0.25,-0.1875
1480509480141912,-0.1875,-0.1875,-0.1875
1480509480164974,0.25,0.125,-0.125
1480509480187032,0.125,0.0625,0.0625
1480509480202076,0.0625,0,0.0625
1480509480224131,0,-0.1875,0.0625
1480509480246691,-0.125,-0.1875,-0.125
1480509480269752,-0.1875,-0.1875,-0.375
1480509480292313,0.125,0.0625,-0.1875
1480509480306851,0.4375,0.0625,0
1480509480329412,0.0625,0.125,0.0625
1480509480344451,-0.3125,0.0625,0.0625
1480509480367011,-0.375,0,-0.0625
1480509480389070,-0.125,0.125,-0.1875
1480509480404109,0.125,0.1875,-0.0625
1480509480426670,0.6875,0.1875,-0.1875
1480509480449230,0.375,-0.125,0
1480509480464271,-0.0625,-0.25,0
1480509480486830,-0.5625,-0.1875,0
1480509480509390,0.125,0.0625,-0.125
1480509480524431,0.75,0.1875,-0.3125
1480509480546990,0.75,-0.125,0.1875
1480509480569554,0.125,-0.1875,0.1875
1480509480584089,-0.125,-0.1875,-0.125
1480509480606648,0.4375,-0.0625,-0.375
1480509480629210,0.5625,-0.1875,-0.375
1480509480644248,0,-0.0625,-0.125
1480509480666809,-0.75,0.1875,0
1480509480697891,-0.8125,0.1875,0.0625
1480509480704409,0.75,0.3125,-0.125
1480509480726968,0.625,-0.0625,-0.0625
1480509480758052,-0.1875,-0.25,0.0625
1480509480764570,-0.8125,-0.1875,0.0625
1480509480787129,-0.125,-0.125,0
1480509480809187,0.25,0,-0.375
1480509480824229,0.0625,-0.1875,-0.3125
1480509480846787,0.3125,-0.125,-0.25
1480509480869347,0,0,0.3125
1480509480884388,0.1875,0.3125,0.3125
1480509480915470,-0.8125,0.4375,0
1480509480929507,-0.5,0.1875,-0.125
1480509480944046,0.25,-0.125,-0.25
1480509480967107,0.6875,0,0.0625
1480509480989166,0.6875,0.1875,0.3125
1480509481004206,0.6875,0.25,0.3125
1480509481027268,0.5,-0.0625,0.25
1480509481049327,1,-0.1875,0.25
1480509481075897,0.75,-0.3125,0
1480509481096454,-0.5,-0.3125,0
1480509481109486,-0.9375,-0.0625,-0.125
1480509481124544,0,0.125,0.0625
1480509481146585,-0.3125,0.125,0
1480509481169148,-0.5625,0.1875,0
1480509481184185,-0.625,0.25,0.1875
1480509481206745,-0.3125,0.3125,0.1875
1480509481229306,-0.0625,0.1875,0
1480509481245848,-0.25,0.125,-0.0625
1480509481266905,-0.25,-0.125,-0.0625
1480509481289465,0.375,0.125,-0.125
1480509481307514,0.8125,0.125,-0.125
1480509481326564,-0.0625,-0.125,0
1480509481349123,-0.4375,-0.25,0.1875
1480509481364164,-0.6875,0.125,0.1875
1480509481386735,-0.25,0.125,-0.0625
1480509481409785,0.25,0,0
1480509481424328,0.4375,-0.0625,0.25
1480509481446884,0,-0.0625,0.0625
1480509481469444,0.75,-0.25,0.125
1480509481484484,0.75,-0.125,-0.0625
1480509481506543,0.4375,0,-0.125
1480509481529103,-0.125,0.0625,0
1480509481551662,-0.625,0.1875,-0.0625
1480509481566703,-0.5625,0,-0.0625
1480509481589272,0.3125,0.3125,-0.3125
1480509481604302,0.4375,0.25,-0.1875
1480509481626866,-0.5,-0.125,-0.125
1480509481649422,-0.625,-0.125,-0.4375
1480509481664464,0.1875,0,-0.375
1480509481686521,0.75,0.1875,-0.1875
1480509481718106,0,0.125,-0.375
1480509481724123,-1.125,-0.1875,-0.625
1480509481746681,-0.4375,-0.1875,-0.5625
1480509481769241,-0.375,-0.1875,-0.4375
1480509481800825,0.6875,-0.125,-0.125
1480509481806842,0.5,-0.1875,-0.0625
1480509481829402,-0.0625,-0.0625,-0.1875
1480509481851961,-0.4375,0.0625,0.0625
1480509481867002,0,-0.125,0.1875
1480509481905604,0.1875,-0.125,0.125
1480509481911620,0.125,-0.3125,0
1480509481938692,0.125,-0.1875,0.0625
1480509481965764,-0.125,-0.1875,-0.25
1480509481971805,0.375,-0.0625,-0.125
1480509481986820,-0.125,-0.375,-0.1875
1480509482009380,-0.25,-0.125,0.0625
1480509482047984,-0.3125,-0.125,0
1480509482057007,-0.375,-0.0625,-0.25
1480509482069545,0.125,-0.25,-0.1875
1480509482091599,-0.1875,-0.125,0.0625
1480509482106639,-0.75,0.0625,0.0625
1480509482130703,-0.25,0,0.125
1480509482151759,0.0625,-0.0625,0.0625
1480509482174821,0.1875,-0.0625,0.25
1480509482189359,-0.25,-0.0625,0.125
1480509482211919,-0.375,-0.0625,0.0625
1480509482226959,-0.25,0.125,-0.25
1480509482249017,0.4375,0,-0.4375
1480509482271577,0.8125,-0.3125,-0.0625
1480509482294641,0.1875,-0.25,0.125
1480509482309177,-0.8125,-0.1875,0
1480509482331741,-0.5,0,-0.1875
1480509482354297,0.5,-0.0625,0.0625
1480509482369337,0.9375,-0.0625,0.3125
1480509482391898,0.125,0.0625,0.4375
1480509482406937,-0.5,-0.125,0.25
1480509482429498,-0.25,-0.375,-0.0625
1480509482462084,0.9375,-0.25,-0.3125
1480509482467097,0.75,-0.1875,-0.0625
1480509482492665,-0.0625,-0.125,0.125
1480509482511716,-0.375,-0.1875,0.125
1480509482526756,0.375,-0.1875,0
1480509482549316,0.1875,-0.0625,0.0625
1480509482571876,0.1875,-0.1875,-0.125
1480509482586916,0.25,0,0.0625
1480509482610479,-0.125,-0.0625,-0.125
1480509482640559,-0.25,-0.1875,-0.1875
1480509482646575,-0.625,-0.3125,-0.25
1480509482669139,-0.5,-0.1875,0
1480509482701220,0.0625,0.1875,0.3125
1480509482706737,0.25,0.125,0.3125
1480509482729296,0.0625,-0.0625,0.125
1480509482760879,-0.25,-0.25,0
1480509482768399,-0.25,-0.3125,-0.125
1480509482797978,0.25,-0.5625,-0.0625
1480509482811514,-0.125,-0.6875,-0.125
1480509482826554,-0.0625,-0.75,0
1480509482849113,0.125,-0.625,0
1480509482871674,-0.1875,-0.3125,0
1480509482886713,0.25,-0.1875,-0.125
1480509482911279,0,-0.25,-0.125
1480509482947376,0.4375,-0.375,0
1480509482957404,-0.1875,-0.1875,0.0625
1480509482985476,0,0,0.0625
1480509482991998,-0.1875,-0.0625,0.0625
1480509483009541,-0.25,-0.1875,0
1480509483030095,0.0625,-0.0625,0
1480509483051652,0.5625,-0.125,0.25
1480509483066693,0.875,-0.375,0.3125
1480509483097274,0.5,-0.375,0.25
1480509483111812,-0.25,-0.5,0
1480509483128357,0,-0.125,-0.3125
1480509483149412,-0.1875,-0.1875,-0.0625
1480509483174479,0.375,-0.4375,-0.3125
1480509483187012,1.1875,-0.3125,-0.125
1480509483216591,0.3125,-0.25,-0.125
1480509483231631,-0.6875,-0.3125,0.0625
1480509483266224,-0.5,-0.25,0.3125
1480509483285776,0.625,0.125,0.625
1480509483291798,0.8125,0.1875,0.625
1480509483324378,-0.25,0.0625,0.625
1480509483329391,-0.1875,-0.125,0.1875
1480509483353455,0.25,-0.4375,-0.125
1480509483383034,0.5,-0.5625,-0.4375
1480509483389053,0,-0.3125,-0.25
1480509483414617,-0.125,0,0
1480509483443193,-0.1875,0.3125,0.3125
1480509483449209,-0.25,0.1875,-0.0625
1480509483480793,0.5625,0.1875,-0.1875
1480509483494329,0.625,0.375,0
1480509483512378,-0.0625,0.1875,0.3125
1480509483531930,-0.25,0.125,0.6875
1480509483563012,0.25,0.375,0.625
1480509483586576,0.1875,0.3125,0.5
1480509483593093,-0.9375,0.1875,0.5
1480509483614148,-1.25,0.25,0.125
1480509483629205,-0.625,0.25,0.1875
1480509483651748,0.125,0.375,0.0625
1480509483683333,0.375,0.4375,0.1875
1480509483689349,-0.5,0.0625,0
1480509483711908,-0.875,0,0
1480509483734468,-0.6875,0.0625,0
1480509483752015,-0.0625,0.25,-0.0625
1480509483780593,-0.5,0.3125,-0.125
1480509483794129,-0.625,0.25,-0.25
1480509483809167,-0.5625,0,-0.0625
1480509483848271,-0.5,0.1875,-0.1875
1480509483854287,-0.25,0.3125,-0.1875
1480509483872335,-0.125,0,-0.25
1480509483900410,-0.3125,0.25,-0.25
1480509483914447,-0.3125,0.1875,-0.25
1480509483929488,-0.125,0.1875,-0.1875
1480509483951546,0,0.125,-0.0625
1480509483974106,-0.125,0.125,-0.1875
1480509483996671,0.125,0.1875,-0.4375
1480509484013210,0.1875,0.125,-0.75
1480509484034266,0.25,0,-0.875
1480509484056826,0.5625,-0.1875,-0.3125
1480509484087908,0.25,-0.0625,-0.125
1480509484094426,-0.3125,0.0625,0
1480509484133530,-0.3125,0.3125,-0.375
1480509484148069,0.25,0.125,-0.375
1480509484154085,0.6875,0.0625,-0.1875
1480509484176645,0.25,-0.1875,-0.0625
1480509484191707,-0.5625,0,-0.125
1480509484214244,0.3125,0.0625,-0.4375
1480509484229285,0.375,0,-0.375
1480509484251844,-0.25,0.1875,-0.125
1480509484274405,-0.5625,0.1875,-0.3125
1480509484289448,0.0625,0.1875,-0.3125
1480509484312005,0.75,0.125,-0.1875
1480509484334064,0.375,0.125,-0.125
1480509484356624,-0.875,-0.25,-0.0625
1480509484371663,-0.75,-0.1875,0
1480509484403247,0.125,0.0625,-0.3125
1480509484424805,0.125,0.25,-0.3125
1480509484434831,-0.4375,0.125,-0.3125
1480509484457893,-0.5,0.0625,-0.125
1480509484476949,-0.0625,0.125,0.125
1480509484491983,0,-0.125,0.0625
1480509484514043,-0.125,-0.0625,-0.1875
1480509484536610,-0.25,-0.0625,-0.3125
1480509484551642,-0.375,-0.125,-0.1875
1480509484574203,0.25,-0.125,-0.0625
1480509484605787,-0.1875,-0.25,-0.1875
1480509484627344,0,0,-0.125
1480509484642885,-0.375,0,-0.25
1480509484656923,-0.125,0,-0.25
1480509484671963,0.25,-0.0625,-0.0625
1480509484703045,0.1875,-0.0625,0.0625
1480509484716581,-0.3125,0.125,-0.125
1480509484734629,-0.125,0.0625,-0.125
1480509484754181,-0.125,0.375,-0.0625
1480509484776741,0,0.125,0
1480509484794789,-0.125,-0.125,-0.25
1480509484814341,-0.1875,0,-0.0625
1480509484836901,0.0625,0.125,0.125
1480509484851941,0,0.4375,0.1875
1480509484890543,-0.0625,0.0625,0
1480509484896560,0.1875,0.0625,-0.5
1480509484913103,0.1875,0,-0.3125
1480509484943183,0.1875,-0.0625,0.0625
1480509484956720,-0.6875,-0.125,0.125
1480509484979280,-0.75,0,0
1480509484994320,-0.25,0.1875,-0.375
1480509485016880,0.25,0.25,-0.3125
1480509485031920,-0.1875,0.125,0.3125
1480509485054481,-0.75,-0.0625,0.1875
1480509485079045,-0.375,-0.0625,-0.0625
1480509485099098,0,0,-0.5
1480509485114138,0.3125,-0.0625,-0.1875
1480509485139706,-0.4375,0.125,-0.125
1480509485159258,-0.75,0.25,0
1480509485174298,-0.125,0.25,-0.25
1480509485198363,0.75,0.25,-0.1875
1480509485211898,0.375,-0.3125,-0.1875
1480509485241981,0,-0.125,0.0625
1480509485267045,-0.625,0,0.125
1480509485271559,-0.5625,0.25,-0.1875
1480509485294118,-0.3125,0.125,-0.3125
1480509485325702,-0.1875,0.0625,-0.375
1480509485339252,-0.1875,0.125,-0.25
1480509485357285,-0.125,0.125,0
1480509485385360,0.0625,0.0625,-0.125
1480509485399531,-0.0625,0,-0.125
1480509485414437,-0.125,-0.1875,-0.3125
1480509485436997,-0.0625,-0.1875,-0.375
1480509485468582,0.375,0.125,-0.125
1480509485475600,-0.1875,0,0
1480509485513199,-0.375,-0.0625,-0.1875
1480509485519216,-0.0625,0.125,-0.25
1480509485543783,0.75,0,-0.1875
1480509485556816,-0.3125,-0.125,-0.0625
1480509485579376,-0.5,-0.1875,-0.0625
1480509485594416,-0.1875,0.125,-0.125
1480509485616976,0.0625,0.125,-0.25
1480509485639536,-0.1875,0,-0.0625
1480509485661596,-0.25,0.25,-0.125
1480509485676635,-0.1875,0.25,0.0625
1480509485699196,0.0625,0.125,0.1875
1480509485714235,0.1875,-0.125,0.125
1480509485736803,-0.125,-0.1875,-0.0625
1480509485759355,0.125,-0.0625,-0.0625
1480509485781915,-0.1875,0.1875,0
1480509485796957,0.0625,0.25,0.0625
1480509485819515,0.25,0,-0.125
1480509485834060,0.625,-0.0625,-0.1875
1480509485858117,0.3125,-0.25,0
1480509485879173,-0.4375,-0.125,0
1480509485894213,-0.25,0.125,0.125
1480509485916774,0.1875,0.3125,-0.1875
1480509485947856,0.8125,0,0.0625
1480509485954373,0.0625,0,0.1875
1480509485976933,-0.3125,0,0.3125
1480509485999493,0.0625,0.0625,0
1480509486032080,0.25,0,-0.0625
1480509486036597,0.0625,-0.1875,-0.125
1480509486071184,-0.375,-0.125,0
1480509486081712,-0.25,0.0625,0.0625
1480509486096753,0.4375,-0.125,0
1480509486119313,0.125,0,-0.0625
1480509486134352,0.1875,0,0
1480509486156912,0,-0.125,0.0625
1480509486189499,-0.5,-0.25,0.125
1480509486194012,-0.125,-0.25,-0.0625
1480509486218075,0.125,0,-0.125
1480509486240635,0.125,0.125,-0.0625
1480509486261691,-0.3125,0.1875,0.125
1480509486279739,-0.25,0.125,0.1875
1480509486309318,-0.3125,0.0625,0.0625
1480509486321852,0.1875,0,-0.125
1480509486336891,0.25,-0.125,-0.125
1480509486360970,0,-0.3125,-0.125
1480509486381510,-0.3125,-0.1875,-0.125
1480509486404069,-0.25,-0.0625,-0.125
1480509486419110,-0.1875,-0.0625,0.125
1480509486441669,0.4375,-0.125,0.1875
1480509486456710,0.4375,-0.125,0.0625
1480509486488294,-0.25,-0.25,-0.0625
1480509486501830,0.125,0,0.0625
1480509486516870,0.125,-0.1875,0.125
1480509486547952,-0.125,0.0625,0.125
1480509486562027,-0.1875,0,-0.125
1480509486584048,-0.5625,0.0625,-0.1875
1480509486599088,-0.5,0.125,-0.125
1480509486621650,-0.1875,0.125,0.125
1480509486636688,0.25,-0.0625,0.125
1480509486659248,0.0625,-0.0625,0.0625
1480509486681808,-0.3125,-0.1875,0.125
1480509486696850,-0.1875,0,0.0625
1480509486719408,-0.0625,0.1875,0
1480509486741968,0.5625,0,-0.3125
1480509486756507,0.75,-0.5625,-0.125
1480509486779067,0.0625,-0.375,0.0625
1480509486801627,-0.5625,-0.125,0.125
1480509486824187,-0.375,0.0625,0.125
1480509486839227,0.125,0.1875,-0.0625
1480509486864795,0.375,0.125,0.0625
1480509486876827,0.375,-0.25,0.1875
1480509486899387,-0.1875,-0.375,0.0625
1480509486921949,-0.125,-0.0625,0
1480509486936485,0.1875,-0.125,-0.0625
1480509486959046,0,-0.375,-0.125
1480509486981605,-0.25,-0.25,-0.1875
1480509486996647,-0.5,-0.1875,-0.1875
1480509487022715,0.4375,0.0625,-0.0625
1480509487041767,0.5,-0.125,0.0625
1480509487056806,0.4375,-0.0625,0.0625
1480509487079367,-0.1875,-0.3125,-0.125
1480509487103931,-0.5,-0.4375,0.0625
1480509487116966,0.125,-0.3125,-0.125
1480509487139526,0.25,-0.125,-0.125
1480509487161584,-0.1875,-0.25,0.0625
1480509487184146,-0.1875,0,-0.25
1480509487199185,0.0625,0.125,0
1480509487221745,0.1875,0.0625,0.0625
1480509487244305,0,-0.25,0.1875
1480509487259347,0.375,-0.3125,0.125
1480509487281905,0.1875,-0.625,-0.1875
1480509487304465,0.3125,-0.4375,-0.3125
1480509487319003,0.4375,-0.375,0.0625
1480509487341568,0.125,-0.375,0.25
1480509487364124,-0.125,-0.25,0.0625
1480509487379164,-0.1875,-0.25,-0.125
1480509487418267,0.0625,-0.4375,-0.125
1480509487424283,0.3125,-0.5625,-0.0625
1480509487439324,0.375,-0.5,-0.125
1480509487461884,0,-0.1875,-0.1875
1480509487484443,-0.375,-0.125,0.3125
1480509487499616,-0.5625,-0.125,0
1480509487522044,0.0625,-0.5,-0.0625
1480509487544102,0.8125,-0.5,0
1480509487575686,0.6875,-0.1875,0.0625
1480509487583206,-0.1875,-0.125,0.0625
1480509487604262,-0.6875,-0.125,0.0625
1480509487619302,0.1875,0,-0.25
1480509487641862,0.6875,-0.4375,-0.25
1480509487664423,0.625,-0.375,-0.125
1480509487679462,0.0625,-0.3125,0.0625
1480509487701521,-0.375,-0.25,0.0625
1480509487724081,-0.625,0,-0.25
1480509487739122,0.375,0,-0.1875
1480509487761681,0.6875,-0.0625,0.1875
1480509487784241,0.0625,-0.125,0.0625
1480509487799281,-0.1875,-0.1875,-0.1875
1480509487821859,0.125,-0.0625,-0.375
1480509487844424,0.5625,-0.0625,-0.3125
1480509487859465,0.0625,-0.1875,0.125
1480509487881522,-0.25,-0.1875,0.0625
1480509487904082,0,0.125,-0.25
1480509487919124,0.6875,0,-0.125
1480509487941682,0.625,-0.125,-0.125
1480509487964244,-0.3125,-0.25,0
1480509487979282,-0.5625,-0.375,-0.3125
1480509488012372,0.125,-0.3125,-0.25
1480509488024403,0.875,0.0625,-0.1875
1480509488046963,0.125,0.25,-0.125
1480509488062004,-0.25,-0.0625,-0.125
1480509488084061,-0.0625,-0.125,-0.125
1480509488099101,0.25,-0.375,-0.1875
1480509488123165,0.9375,-0.3125,-0.0625
1480509488144222,0.5625,-0.1875,0
1480509488166794,0.1875,-0.3125,-0.1875
1480509488181821,-0.3125,-0.3125,0
1480509488204381,0.375,-0.5,-0.3125
1480509488226941,0.4375,-0.375,-0.125
1480509488248999,0.3125,-0.125,-0.125
1480509488264544,0.0625,-0.0625,0.3125
1480509488286599,-0.25,0.0625,0.125
1480509488309160,-0.4375,-0.375,-0.125
1480509488324200,0.3125,-0.25,-0.1875
1480509488346760,0.25,0,0
1480509488361800,-0.125,0.375,0.25
1480509488384360,-0.4375,0.5625,0.1875
1480509488406920,-0.5625,0.5,-0.0625
1480509488421963,0.0625,0,-0.1875
1480509488444019,0.3125,0.0625,-0.25
1480509488466579,0.125,-0.125,0.0625
1480509488481619,-0.375,0.5,0.25
1480509488504179,-0.5,0.625,0.25
1480509488526740,-0.5,0.5,0.1875
1480509488541778,0.25,0.375,0.125
1480509488564341,0.0625,0.625,0.3125
1480509488586899,-0.0625,0.4375,0.4375
1480509488601939,-0.375,0.375,0.25
1480509488623997,-0.5625,0.375,0.125
1480509488646558,-0.75,0.5625,0.0625
1480509488661597,-0.1875,0.75,0.4375
1480509488684157,0.4375,0.8125,0.3125
1480509488706721,0.25,0.5,0.4375
1480509488721759,-0.5,0.25,0.0625
1480509488744317,-1.3125,0.1875,-0.25
1480509488766877,-1.125,0.3125,-0.125
1480509488781917,-0.125,0.375,-0.0625
1480509488804480,-0.3125,0.375,-0.125
1480509488837063,-0.6875,0.4375,0
1480509488841577,-0.625,0.5625,0.125
1480509488864138,-0.4375,0.625,-0.125
1480509488886697,-0.0625,0.4375,-0.125
1480509488904745,-0.3125,0.5625,-0.0625
1480509488924297,-0.5,0.625,0
1480509488946856,-0.1875,0.3125,0
1480509488961896,-0.1875,0.125,-0.125
1480509488985962,-0.25,0.4375,0
1480509489006518,-0.1875,0.4375,0.0625
1480509489022057,0.1875,0.4375,0.25
1480509489044116,-0.0625,0.4375,0.1875
1480509489075729,-0.1875,0.25,0.0625
1480509489089258,0.1875,0.3125,-0.125
1480509489104295,-0.1875,0.375,0.0625
1480509489126856,-0.6875,0.625,0.3125
1480509489149415,-0.625,0.5,0.125
1480509489164456,-0.0625,0.4375,-0.0625
1480509489186515,0.5625,0.375,-0.3125
1480509489209076,0,0.125,-0.25
1480509489224113,-0.625,0.0625,-0.125
1480509489246673,-0.5,0.4375,0.0625
1480509489269235,-0.0625,0.5625,0
1480509489284274,0.0625,0.4375,0
1480509489306835,-0.1875,0.3125,0
1480509489329396,-0.1875,0.25,0
1480509489344433,-0.3125,0.3125,0.125
1480509489366994,0.125,0.375,0.125
1480509489390055,0.25,0.125,-0.125
1480509489404092,-0.25,0.0625,-0.25
1480509489426652,-0.6875,0.375,0
1480509489458236,-0.375,0.5,0.25
1480509489465773,0.5,0.4375,0
1480509489486812,0.3125,0.375,0.125
1480509489509372,-0.5,0.125,-0.125
1480509489524412,-0.875,0.25,-0.0625
1480509489546973,-0.5,0.1875,0
1480509489569032,0,0.3125,0
1480509489601117,0.125,0.4375,0.125
1480509489606632,-0.6875,0.4375,0.0625
1480509489629192,-0.375,0.375,-0.0625
1480509489644232,0.5625,0.375,0.125
1480509489669799,0.875,0.25,0.1875
1480509489697874,0.6875,0,0.25
1480509489704392,0.125,-0.0625,0.125
1480509489726951,0.0625,0.0625,-0.0625
1480509489749011,-0.25,0.25,-0.125
1480509489767058,-0.3125,0.125,-0.0625
1480509489786610,0.3125,0.4375,0
1480509489809170,0.25,0.375,0.125
1480509489824210,0.0625,0.3125,0.0625
1480509489846770,-0.375,-0.0625,-0.0625
1480509489869330,-0.4375,0.3125,-0.0625
1480509489884370,-0.25,0.4375,0.125
1480509489915453,0.25,0.4375,0.125
1480509489928989,-0.125,0.375,0.125
1480509489947036,-0.4375,0.375,0.3125
1480509489966589,-0.625,0.375,0.5
1480509489989148,-0.25,0.5,0.5625
1480509490011708,-0.1875,0.375,0.125
1480509490026749,0.5625,0.25,-0.25
1480509490049309,0.75,-0.125,-0.1875
1480509490071872,0.1875,0,0
1480509490086909,-0.625,0.25,0.0625
1480509490108971,-0.5,0.5,0.1875
1480509490132194,-0.25,0.4375,-0.0625
1480509490146568,-0.0625,0.375,0.0625
1480509490169127,0.125,0.25,0.0625
1480509490191687,0,0.25,0.125
1480509490206728,0.125,0.0625,0.1875
1480509490229288,0.25,0,0.1875
1480509490260370,0.5625,0.1875,0.3125
1480509490266888,-0.25,0.25,0.3125
1480509490288945,-0.5,0.375,0.4375
1480509490320544,-0.375,0.5625,0.125
1480509490326546,0,0.375,-0.1875
1480509490349106,0.0625,0.1875,-0.3125
1480509490371667,-0.4375,0.125,-0.125
1480509490386706,-0.0625,0.0625,0
1480509490409266,-0.625,0.125,-0.0625
1480509490432395,-0.125,0.25,-0.1875
1480509490446867,-0.3125,0.3125,-0.1875
1480509490469427,-0.125,0.375,0
1480509490491987,-0.3125,0.4375,0.1875
1480509490506525,0,0.375,0.125
1480509490532335,0.1875,0.25,0.0625
1480509490551645,0.25,0.125,-0.0625
1480509490569693,-0.125,-0.1875,-0.25
1480509490589245,-0.375,0.0625,-0.3125
1480509490611805,-0.4375,0.1875,-0.125
1480509490629853,-0.125,0.375,0
1480509490649405,0.0625,0.3125,-0.25
1480509490671966,0.25,0.125,-0.125
1480509490687005,-0.0625,0.1875,0.1875
1480509490710567,-0.0625,0.0625,0.1875
1480509490731627,-0.375,0.1875,-0.0625
1480509490746664,-0.8125,0.3125,-0.1875
1480509490769223,-0.1875,0.3125,-0.25
1480509490791783,0.125,0.375,0
1480509490806824,-0.125,0.375,0.0625
1480509490829384,-0.625,0.25,0.125
1480509490851442,-0.75,0.25,0
1480509490866985,-0.1875,0.3125,0.0625
1480509490889042,0.1875,0.3125,0.125
1480509490911602,-0.25,0.1875,0.0625
1480509490934162,-0.625,0.125,0.125
1480509490949202,-0.5625,0.375,0.0625
1480509490971766,0,0.4375,0.125
1480509490994332,0.5625,0.375,-0.0625
1480509491016882,0.375,0.1875,0.0625
1480509491031924,-0.375,0.1875,0
1480509491063006,-1.1875,0.125,-0.1875
1480509491069021,-0.6875,0.375,0
1480509491094589,0.125,0.5625,0.0625
1480509491114141,0.625,0.5,0.1875
1480509491132190,0.25,0.375,0.5
1480509491151741,0,0.375,0.375
1480509491174301,-0.1875,0.3125,0.375
1480509491189341,-0.0625,-0.0625,0
1480509491211901,0.0625,-0.1875,-0.4375
1480509491233960,0,-0.0625,-0.375
1480509491248999,-0.3125,0.25,0
1480509491271560,-0.25,0.25,0.125
1480509491294123,-0.1875,0,-0.125
1480509491309160,0.0625,-0.125,-0.4375
1480509491331721,-0.0625,-0.1875,-0.3125
1480509491354280,0.0625,-0.0625,-0.0625
1480509491369321,-0.0625,-0.0625,-0.125
1480509491391880,-0.375,0,-0.1875
1480509491414440,-0.5,0.1875,-0.25
1480509491428978,-0.5625,0.375,-0.125
1480509491460562,0.125,0.4375,0.0625
1480509491474098,0.3125,0.4375,0.125
1480509491489138,0.0625,0.375,-0.1875
1480509491511699,0.4375,0.1875,-0.5
1480509491543283,0.875,-0.4375,-0.5
1480509491549299,0.3125,-0.5625,-0.25
1480509491574888,0,-0.5,0.0625
1480509491594419,-0.4375,-0.3125,-0.0625
1480509491610971,0,-0.5,-0.1875
1480509491632019,0.5,-0.4375,-0.3125
1480509491654078,0.875,-0.375,0
1480509491669119,0.375,-0.4375,0
1480509491691677,-0.1875,-0.5,-0.25
1480509491714238,-0.1875,-0.1875,-0.4375
1480509491736799,0.125,-0.0625,-0.1875
1480509491751837,0.0625,0.25,-0.0625
1480509491774398,0.125,0.3125,-0.1875
1480509491788937,0.4375,0.375,-0.1875
1480509491811495,0.75,-0.0625,-0.0625
1480509491834111,0.9375,-0.3125,-0.125
1480509491850601,-0.125,-0.625,-0.3125
1480509491871657,-0.125,-0.5625,0
1480509491894216,0.125,-0.625,-0.0625
1480509491909256,0.125,-0.5,-0.125
1480509491932317,-0.1875,-0.75,-0.25
1480509491957384,-0.5625,-0.75,-0.375
1480509491985459,-0.625,-0.625,-0.3125
1480509491991985,-0.5,-0.25,-0.375
1480509492017043,0.3125,-0.5,-0.375
1480509492045618,0.3125,-0.6875,-0.125
1480509492051634,-0.25,-0.4375,-0.0625
1480509492074195,-0.25,-0.1875,-0.0625
1480509492105280,0,0,-0.125
1480509492111795,0.125,-0.125,-0.1875
1480509492137363,-0.0625,-0.4375,0.125
1480509492165437,-0.3125,-0.5625,0.125
1480509492171956,-0.0625,-0.625,-0.125
1480509492194014,0.1875,-0.4375,-0.25
1480509492216574,0.625,-0.4375,-0.3125
1480509492239134,0.1875,-0.5,-0.1875
1480509492254174,-0.5625,-0.5625,-0.0625
1480509492276734,0,-0.3125,-0.125
1480509492291773,0.375,-0.0625,-0.0625
1480509492314333,0.4375,-0.1875,0.1875
1480509492336894,0,-0.4375,0.0625
1480509492352936,-0.5,-0.4375,-0.125
1480509492384521,-0.8125,-0.375,-0.375
1480509492405577,-0.25,-0.3125,-0.25
1480509492411593,0.25,-0.1875,0
1480509492434152,0,-0.1875,0.1875
1480509492456712,-0.3125,-0.1875,0.0625
1480509492471764,-0.0625,-0.25,-0.25
1480509492494314,0.25,-0.375,-0.25
1480509492516872,0.375,-0.5,-0.1875
1480509492531412,0.125,-0.5,0
1480509492554475,-0.375,-0.5,0
1480509492576531,-0.125,-0.3125,0.0625
1480509492594579,0.4375,-0.125,0.0625
1480509492614131,0.375,-0.375,0
1480509492636691,0,-0.5625,-0.1875
1480509492651732,0.1875,-0.5625,-0.1875
1480509492691338,0.125,-0.5,-0.125
1480509492705374,-0.125,-0.25,-0.1875
1480509492719411,-0.25,-0.1875,-0.0625
1480509492733953,-0.125,0,0
1480509492756511,-0.3125,0.0625,0.125
1480509492771550,-0.4375,0.125,0.125
1480509492794109,-0.6875,0,-0.0625
1480509492816669,-0.4375,-0.0625,0.0625
1480509492831710,-0.25,0.0625,0.1875
1480509492855774,0.125,0.25,0.25
1480509492876829,0.1875,0.1875,0.125
1480509492907912,-0.125,0.0625,-0.1875
1480509492913929,-0.0625,0,-0.125
1480509492939497,-0.0625,-0.0625,0.0625
1480509492968072,-0.125,0.1875,0.125
1480509492974090,-0.625,0.125,0.125
1480509492999657,-0.0625,0.375,0
1480509493019208,0.0625,0.375,-0.125
1480509493034254,0.0625,0.3125,0.0625
1480509493056837,-0.0625,0.25,0
1480509493087891,-0.375,0.1875,0.125
1480509493094408,0.125,0.1875,0.125
1480509493116968,0,0.25,0.125
1480509493139027,-0.8125,0.4375,0.375
1480509493154070,-0.6875,0.25,0.3125
1480509493186153,-0.0625,0.25,0.0625
1480509493216232,0.6875,0.125,0.125
1480509493218740,-0.4375,-0.0625,0
1480509493255843,-1.5,-0.125,0.1875
1480509493260852,-1.4375,0.1875,-0.0625
1480509493277396,-1.0625,0.25,-0.1875
1480509493296948,0.125,0.4375,-0.125
1480509493319006,-0.5,0.375,0.3125
1480509493335550,-1,0.1875,-0.0625
1480509493365630,-0.5625,0.1875,-0.0625
1480509493379165,0.1875,0.3125,-0.125
1480509493394206,1.125,0.4375,0.1875
1480509493416766,0.25,0.3125,0.1875
1480509493439326,-0.875,-0.125,0.1875
1480509493461886,0.0625,-0.1875,-0.125
1480509493492970,0.1875,0,-0.4375
1480509493499486,-1.75,0.0625,-0.4375
1480509493524553,-0.4375,0,-0.0625
1480509493536585,0.125,0,0.1875
1480509493562153,-0.375,-0.25,0.0625
1480509493574184,-0.1875,-0.1875,-0.3125
1480509493596746,0.25,0.0625,-0.375
1480509493619304,0.125,0.3125,-0.125
1480509493634346,-0.6875,0.3125,0
1480509493656909,-0.6875,0.3125,0.0625
1480509493678963,-0.625,0.5625,0.0625
1480509493694005,-0.8125,0.3125,0
1480509493716564,0.1875,0.125,-0.0625
1480509493739124,1.125,0,0.125
1480509493770708,0.4375,0.125,0.5625
1480509493776724,-0.25,0.125,0.6875
1480509493802292,-0.5625,0.6875,0.5
1480509493830367,-0.8125,0.375,-0.1875
1480509493836892,0.0625,0.125,-0.1875
1480509493861950,0.75,0,-0.125
1480509493881502,-0.125,0.0625,0
1480509493896542,-1.1875,-0.125,-0.3125
1480509493919102,0.5625,0.1875,-0.125
1480509493958708,0.6875,0.5,0.125
1480509493961216,-0.3125,0.5625,0.375
1480509493979263,-1.5625,0.4375,0.25
1480509494010345,-0.1875,0.375,-0.0625
1480509494024383,-0.125,0.5625,0.125
1480509494041929,1.1875,0.75,0.875
1480509494070505,0.125,0.6875,0.875
1480509494076521,-1.9375,0.5625,0.3125
1480509494099081,0,0.6875,0.375
1480509494131168,0.375,0.75,0.25
1480509494136681,-1.3125,0.0625,-0.0625
1480509494175284,-1.25,0.3125,-0.4375
1480509494181801,1.25,0.6875,0.625
1480509494196841,1.25,0.5,0.625
1480509494227926,-1.25,0.3125,-0.1875
1480509494241961,-0.125,0.375,-0.125
1480509494267027,0.625,0.3125,0.0625
1480509494279060,-0.8125,0.1875,0.25
1480509494301627,-0.5625,0.3125,0.4375
1480509494316660,0.875,0.1875,-0.0625
1480509494339219,0.125,0.0625,-0.25
1480509494361780,0.1875,0,0
1480509494376819,0.5,-0.0625,0.1875
1480509494399379,0.25,-0.0625,0.1875
1480509494421438,0.3125,-0.1875,0.125
1480509494436479,0.3125,0.0625,-0.125
1480509494459038,0.375,0.0625,0.3125
1480509494481599,0.4375,0.125,0.25
1480509494496640,0.375,0.125,0.1875
1480509494519199,-0.4375,0.25,0.3125
1480509494541758,0.125,0.5625,0.3125
1480509494556798,0.375,0.4375,0.5625
1480509494579360,-0.0625,-0.125,0.125
1480509494604429,-0.1875,-0.1875,-0.125
1480509494633001,0.4375,0.3125,0.1875
1480509494639017,0,0.625,0.4375
1480509494664585,-1.3125,0.875,0.5625
1480509494676617,-0.6875,0.625,0.25
1480509494699179,0.5,0.375,-0.125
1480509494721737,-0.0625,0,0.0625
1480509494736778,-0.1875,0.125,0.3125
1480509494761854,0,-0.0625,0.5
1480509494781396,0.1875,0.0625,0.3125
1480509494804457,0.375,0.25,0.25
1480509494818997,0.1875,0.1875,0.3125
1480509494844564,-0.4375,0.25,0.375
1480509494864117,0.1875,0.25,0.4375
1480509494882164,0.75,0.3125,0.4375
1480509494901716,0.625,0.0625,0.3125
1480509494924277,-0.1875,-0.125,0.625
1480509494939321,0.3125,0.0625,0.5
1480509494961876,0.4375,0.1875,0.0625
1480509494984436,0.1875,0.25,0.25
1480509495001983,0,0.5,0.0625
1480509495021541,0.0625,0.5625,0.1875
1480509495044094,-0.0625,0.5625,0.0625
1480509495066656,0.1875,0.375,0.3125
1480509495081694,0.3125,0.25,0.0625
1480509495104256,-0.25,-0.1875,0.0625
1480509495119295,0.25,-0.125,-0.0625
1480509495150377,0.0625,-0.0625,-0.125
1480509495163913,0.0625,-0.0625,0.125
1480509495204022,-0.3125,0.25,0.0625
1480509495206025,-0.3125,0,0.5
1480509495224073,-0.25,0.125,0.25
1480509495248138,0.375,0.3125,0.375
1480509495261673,-0.25,0.0625,-0.125
1480509495284233,-0.25,-0.1875,-0.3125
1480509495299273,0.1875,-0.5625,-0.25
1480509495321833,-0.1875,-0.375,-0.1875
1480509495344393,-0.3125,-0.625,-0.0625
1480509495358933,-0.1875,-0.875,-0.25
1480509495381492,0.3125,-0.75,-0.25
1480509495404559,0.75,-0.25,0
1480509495419097,-0.125,0.125,0.125
1480509495441657,-0.4375,0,-0.125
1480509495464217,0.8125,-0.125,-0.1875
1480509495479257,0.875,-0.25,-0.125
1480509495501817,-0.25,-0.3125,-0.125
1480509495526884,0,0.0625,-0.25
1480509495538915,0.4375,0.1875,-0.625
1480509495561476,0.5625,0,-0.5
1480509495584035,0.5,0,-0.3125
1480509495599736,0.1875,0.25,-0.3125
1480509495621636,-1,0.125,-0.25
1480509495653220,-0.875,-0.6875,-0.1875
1480509495660740,0.875,-0.6875,-0.4375
1480509495681795,1.5,-0.125,-0.1875
1480509495704356,-0.125,-0.3125,-0.125
1480509495735438,-0.8125,-0.1875,-0.25
1480509495748974,0.0625,-0.25,-0.375
1480509495764015,0.3125,-0.5,0.1875
1480509495786574,0.3125,-0.5625,0.0625
1480509495804623,0.25,-0.375,0
1480509495824175,-0.1875,-0.3125,-0.1875
1480509495846734,-0.1875,-0.375,-0.1875
1480509495861774,0.125,-0.375,-0.0625
1480509495884334,0.0625,-0.4375,0.0625
1480509495906894,-0.25,-0.5625,0
1480509495929455,0.1875,-0.375,-0.125
1480509495943993,0.1875,-0.1875,-0.1875
1480509495966552,-0.3125,-0.1875,-0.25
1480509495983097,-0.5625,-0.4375,0
1480509496004154,0.0625,-0.5625,0.25
1480509496026714,0.1875,-0.4375,-0.125
1480509496041753,-0.625,-0.75,-0.3125
1480509496064313,0.125,-0.625,-0.0625
1480509496086873,0.4375,-0.75,0.125
1480509496101913,0,-0.625,-0.125
1480509496123972,-0.8125,-0.4375,-0.1875
1480509496146532,-0.25,-0.25,-0.3125
1480509496161571,0.375,0.125,-0.3125
1480509496184132,0.375,0.3125,-0.1875
1480509496206696,-0.75,0.1875,-0.4375
1480509496221732,-1.125,0.125,-0.375
1480509496244292,-0.3125,0.0625,-0.4375
1480509496268356,0.5,-0.0625,-0.3125
1480509496289413,0.3125,-0.5,-0.0625
1480509496304454,0.3125,-1.0625,-0.3125
1480509496327012,1.5625,-0.75,-0.25
1480509496341551,0.9375,-0.3125,-0.125
1480509496364111,-1.3125,-0.1875,-0.125
1480509496386672,-0.25,-0.3125,0.0625
1480509496401711,1.125,-0.1875,0.1875
1480509496427780,0.5,-0.125,0.4375
1480509496447834,-0.0625,0.125,0.6875
1480509496461886,-1.125,-0.3125,0.1875
1480509496483929,-0.1875,-0.4375,-0.375
1480509496515513,1,-0.4375,-0.5
1480509496521529,-0.1875,-0.3125,-0.4375
1480509496544089,-1,-0.1875,-0.4375
1480509496575673,-0.0625,0.125,0
1480509496589209,0.1875,-0.125,0.125
1480509496607257,0.125,-0.0625,-0.125
1480509496635332,-0.3125,-0.75,-0.25
1480509496641849,-0.125,-0.9375,-0.1875
1480509496663914,0.125,-0.875,-0.1875
1480509496686468,-0.1875,-0.5625,-0.25
1480509496709028,-0.0625,-0.25,-0.125
1480509496731598,0.0625,-0.125,-0.25
1480509496746628,-0.25,0.125,0
1480509496769189,-0.9375,-0.0625,-0.25
1480509496787237,0.0625,0.125,-0.125
1480509496806788,0.4375,0,0
1480509496829348,-0.1875,0.1875,0
1480509496846894,-0.4375,0,0.0625
1480509496866948,-0.375,-0.5,0.125
1480509496898031,0.6875,0,0.0625
1480509496911567,0.375,0.375,0.25
1480509496926606,-0.25,0.5625,0.25
1480509496949166,-0.25,0.125,0.1875
1480509496964208,0.5625,0.125,0.1875
1480509496986768,-0.5625,0.1875,0.25
1480509497009332,-0.625,0.4375,0.5625
1480509497024367,-0.125,0.625,0.6875
1480509497055450,-0.0625,0.75,0.4375
1480509497068985,0.375,0.625,0.1875
1480509497084025,0.1875,0.75,0.125
1480509497106585,-0.625,0.625,0.3125
1480509497132153,-1.0625,0.625,0.4375
1480509497144186,-0.5,0.5625,0.3125
1480509497175267,-0.0625,0.5625,0.25
1480509497189807,0.3125,0,0.6875
1480509497211866,0.3125,0,0.5625
1480509497226404,-0.375,-0.0625,-0.0625
1480509497234426,-0.625,-0.0625,-0.125
1480509497257988,0.0625,0.375,0
1480509497271524,-0.0625,0.4375,0.375
1480509497294084,-1.4375,0.5625,0.1875
1480509497319151,-0.75,0.625,-0.25
1480509497331687,0.6875,0.8125,-0.5625
1480509497354244,0.4375,0.75,-0.25
1480509497377807,-0.3125,0.5,-0.125
1480509497391850,-1,0.375,0.375
1480509497413902,-0.5625,0.3125,0.4375
1480509497445491,-0.125,0.4375,0.1875
1480509497451503,0.125,0.5,0.0625
1480509497474063,0,0.6875,0.125
1480509497505647,-1,0.8125,0.0625
1480509497521189,-0.3125,0.875,0
1480509497534223,0,0.75,0.0625
1480509497565826,-0.3125,0.4375,0
1480509497571823,-0.375,0.5,0.125
1480509497594383,-0.5625,0.25,0.4375
1480509497617945,0.0625,0.1875,0.5
1480509497631482,0,0.25,0.375
1480509497654042,-0.125,0.5,0.4375
1480509497678105,-0.4375,0.625,0.375
1480509497691642,-0.625,0.4375,0.625
1480509497714202,-0.6875,0.4375,0.5625
1480509497745284,-0.625,0.5625,0.5
1480509497751814,-1.125,0.4375,0.5
1480509497782885,-1.3125,0.3125,0.5625
1480509497797926,-0.0625,0.375,0.5625
1480509497811461,0.75,0.3125,0.3125
1480509497834521,0.25,0.125,0.25
1480509497857083,-0.625,-0.0625,0.3125
1480509497874629,-0.3125,0,0.25
1480509497894181,-0.1875,0.125,0.1875
1480509497925263,-0.1875,0.0625,0.1875
1480509497931780,0,-0.25,0.3125
1480509497954340,0.3125,-0.1875,0.3125
1480509497993445,0,-0.125,0.125
1480509497995952,0.5625,-0.1875,0.0625
1480509498023023,0.5,0,-0.4375
1480509498038063,0.125,0,-0.5
1480509498051599,-0.25,0.4375,-0.25
1480509498074159,-1.3125,0.625,-0.1875
1480509498097722,-1.9375,0.375,0.3125
1480509498120784,-0.3125,0,0.625
1480509498142844,2.75,0.9375,0.4375
1480509498157381,1.4375,0.8125,-0.1875
1480509498172922,-2.3125,0.125,-0.8125
1480509498193977,0,-0.0625,-0.625
1480509498216538,1.1875,0.375,0.1875
1480509498240602,-0.75,0.8125,0.25
1480509498254138,-0.6875,1.125,0.375
1480509498276698,0,0.75,0.1875
1480509498301766,-0.4375,0.1875,-0.0625
1480509498314298,0.4375,0,0.25
1480509498336858,1,-0.0625,0.3125
1480509498360420,0,-0.0625,0.0625
1480509498373956,-0.125,-0.0625,0.0625
1480509498396517,0.75,0.25,0.25
1480509498421082,-0.3125,0.375,0.375
1480509498434116,-0.8125,0.1875,0.375
1480509498456680,0,0.375,0.125
1480509498480239,0.25,0.375,0.0625
1480509498494276,-0.1875,0.25,0.3125
1480509498516836,-0.25,0.1875,0.25
1480509498547919,-0.25,0.25,0.5625
1480509498553939,-0.4375,0.375,0.625
1480509498578000,-0.375,0.4375,0.4375
1480509498601070,0,-0.125,-0.375
1480509498614096,0.9375,-0.5,-0.375
1480509498636658,0.75,-0.9375,0.25
1480509498661722,0.75,-0.5625,0.5625
1480509498674271,-0.5,-0.125,0.25
1480509498696816,-1.0625,0,0
1480509498720380,0.4375,0.0625,-0.125
1480509498733914,1,0.375,-0.0625
1480509498765512,-0.375,0.4375,0.0625
1480509498780538,-0.8125,0.3125,-0.125
1480509498794078,0.5,0.3125,-0.125
1480509498825659,0.875,0.375,-0.125
1480509498839700,0,0.25,0
1480509498857242,-0.5,0.125,-0.0625
1480509498876794,0.0625,0.3125,0
1480509498900357,0.9375,0.5625,0.125
1480509498914394,0,0.375,0.375
1480509498936454,-0.8125,0,0.3125
1480509498960517,-0.875,-0.6875,0.1875
1480509498974053,1.1875,-0.25,0.125
1480509498996618,1.375,0.5625,0.1875
1480509499020677,-1,0.5625,0.1875
1480509499034714,-1.4375,0.125,0.125
1480509499056773,0.25,0.25,0.1875
1480509499079834,-0.1875,0.25,0.25
1480509499102897,-0.1875,0,0
1480509499116431,0.6875,0.125,-0.1875
1480509499140495,0.375,0.125,-0.1875
1480509499154032,-0.75,-0.0625,0
1480509499176591,-0.375,0,0.3125
1480509499201157,0.25,0.1875,0.4375
1480509499223717,0.4375,0.25,0.4375
1480509499236757,-0.0625,0.375,0.375
1480509499259312,-0.75,0.0625,0.3125
1480509499274352,0.125,-0.0625,0.4375
1480509499296411,-0.1875,0,0.125
1480509499318970,-0.0625,0.1875,0.25
1480509499334010,0,0.25,0.1875
1480509499356570,-0.625,0.375,0.125
1480509499379633,-0.4375,0.5625,0.375
1480509499394170,-0.1875,0.3125,0.1875
1480509499416731,-0.0625,0.1875,-0.0625
1480509499439291,0.375,-0.125,-0.1875
1480509499454330,-0.625,-0.5625,0.1875
1480509499476407,0.1875,-0.375,0.625
1480509499499451,0.8125,-0.0625,0.5625
1480509499513989,0.5,0,-0.125
1480509499537054,0.3125,-0.3125,-0.625
1480509499559611,1.125,0,-0.375
1480509499574149,-0.125,0.25,-0.0625
1480509499596710,-1.625,0.4375,0.25
1480509499627792,-0.6875,0.75,0
1480509499634309,1,0.6875,-0.1875
1480509499656885,0.75,0.375,-0.25
1480509499678928,-0.375,0.1875,-0.25
1480509499693975,-0.3125,0.0625,0
1480509499725552,0.125,0,0.125
1480509499739088,-0.375,-0.625,0.0625
1480509499763152,0.625,-0.3125,-0.0625
1480509499776688,1.1875,0.4375,0.1875
1480509499799248,-0.375,0.5625,0.1875
1480509499822811,-1.3125,0.0625,-0.0625
1480509499845371,0.5625,0,0.0625
1480509499859408,0.5625,0.0625,0.25
1480509499882970,-0.375,0,0.0625
1480509499905531,0.0625,0.1875,0.25
1480509499919067,-0.375,0.3125,0.0625
1480509499943131,-0.8125,0.1875,0.125
1480509499956667,-0.375,0.1875,0.125
1480509499979728,-0.125,0.5625,0
1480509500005797,-0.4375,0.5,0.125
1480509500016827,-0.4375,0.3125,0.1875
1480509500039386,-0.5625,0.0625,0.375
1480509500062950,-0.3125,-0.1875,0.375
1480509500076491,-0.125,-0.625,0
1480509500099286,0.375,-0.6875,-0.3125
1480509500123109,0.0625,-0.5625,-0.25
1480509500145669,-0.1875,-0.5625,0.125
1480509500159205,0.4375,-0.25,0.5
1480509500182270,0.5,-0.1875,0.1875
1480509500196808,-0.125,-0.0625,0
1480509500219366,0,0.0625,-0.375
1480509500241424,0.1875,0,-0.3125
1480509500256464,-0.375,-0.0625,-0.375
1480509500279024,-0.5,0,-0.1875
1480509500301584,0.25,0.3125,0.25
1480509500316624,0.5625,0.3125,0.0625
1480509500339184,-0.0625,0.125,0.0625
1480509500361744,-0.25,-0.4375,0.1875
1480509500376807,0.4375,-0.5,0
1480509500399368,0.9375,0,0.25
1480509500421904,-0.25,0.25,0.0625
1480509500436945,-0.6875,-0.1875,0
1480509500459504,0.875,-0.5625,-0.125
1480509500491088,0.625,-0.5,-0.3125
1480509500498110,0.3125,-0.4375,-0.125
1480509500519163,0.8125,-0.3125,0.25
1480509500541723,-0.0625,0.1875,0.1875
1480509500556762,-0.625,0.4375,0.1875
1480509500579323,-0.0625,0.3125,0.1875
1480509500610405,0,-0.0625,0.1875
1480509500616421,0.1875,-0.0625,0.125
1480509500638982,0.375,0,0.3125
1480509500661541,-0.0625,-0.0625,0.25
1480509500679589,0,-0.5625,0.25
1480509500708166,0.5,-0.5625,0.25
1480509500721702,0.0625,-0.4375,0
1480509500739749,-0.375,-0.75,-0.3125
1480509500767824,0.5,-0.75,-0.4375
1480509500781861,1.5625,-0.9375,0.125
1480509500797906,0.5,-0.5625,0.1875
1480509500819464,-0.375,-0.8125,-0.125
1480509500841524,-0.625,-0.3125,-0.25
1480509500856561,0.0625,0,-0.25
1480509500886139,0.1875,0.1875,-0.125
1480509500901680,-1.0625,-0.0625,-0.0625
1480509500916720,-0.75,0.375,-0.1875
1480509500941285,-0.5625,0.5,-0.25
1480509500961840,0.3125,0.25,0.25
1480509500985403,0.3125,-0.5625,0.125
1480509500999561,0.375,-0.875,0.0625
1480509501021499,-0.1875,-0.625,-0.6875
1480509501045564,-0.5,-0.5625,-0.5625
1480509501059099,0.5625,-0.625,-0.3125
1480509501084680,1.125,-0.1875,0.375
1480509501104721,-0.1875,-0.3125,0.4375
1480509501119259,-0.5,-0.125,0.125
1480509501141819,0.3125,0.0625,0.375
1480509501159380,-0.0625,-0.25,0.5
1480509501178918,-0.625,-0.4375,0.375
1480509501201477,0.3125,-0.1875,0.25
1480509501216517,0.125,0,0.0625
1480509501239077,-0.8125,-0.125,-0.25
1480509501263142,-0.375,-0.25,0.0625
1480509501293223,-0.1875,-0.1875,0.1875
1480509501299456,-0.1875,-0.25,0
1480509501322306,0.375,-0.5,-0.125
1480509501344358,0.25,-0.75,-0.25
1480509501358897,-0.0625,-0.5625,0.0625
1480509501390982,-0.4375,-0.5,0.25
1480509501404018,-0.0625,-0.4375,0.1875
1480509501419056,-0.3125,-0.125,-0.0625
1480509501441617,0.25,0,0.0625
1480509501464194,-0.1875,0.0625,0.25
1480509501480722,-0.9375,-0.0625,-0.0625
1480509501501777,-0.0625,0.0625,-0.3125
1480509501523836,0.375,0.375,0.0625
1480509501538876,-0.375,0.5,0.125
1480509501570459,-1.375,0.5,-0.1875
1480509501583995,-0.3125,0.625,-0.0625
1480509501609563,0.0625,0.4375,0.25
1480509501621601,-0.25,0,0.3125
1480509501644155,0.625,0.6875,0.625
1480509501659196,-0.125,1.1875,0.1875
1480509501682256,-1.75,1.0625,0.125
1480509501704315,0.25,0.625,0.25
1480509501719357,0.3125,0.5,0.25
1480509501741414,-0.0625,0.625,0.3125
1480509501763974,0,1.125,0.3125
1480509501788039,-0.1875,0.875,0.125
1480509501801581,-0.5625,0.625,0.25
1480509501824134,-0.0625,0.625,0.1875
1480509501847696,-0.75,0.6875,0.1875
1480509501861733,-0.5,0.8125,0.5
1480509501884294,-0.0625,0.8125,0.375
1480509501909360,-0.25,0.25,0.25
1480509501921393,0.0625,0.0625,0
1480509501943952,0.25,-0.0625,-0.0625
1480509501958994,0.0625,0.125,0.125
1480509501981552,-0.25,0,0.5
1480509502004113,0,0.1875,0.25
1480509502019153,0.5625,0.1875,0.1875
1480509502041714,0.25,0.1875,0.125
1480509502064273,-0.125,0.1875,-0.0625
1480509502082821,-0.1875,0.25,-0.1875
1480509502101877,-0.5,0.6875,0.1875
1480509502123931,-0.8125,0.6875,0.0625
1480509502138972,-0.25,0.6875,-0.0625
1480509502161532,0.3125,0.5625,0.0625
1480509502184593,0.0625,0.4375,0.1875
1480509502199132,-0.3125,0.375,0.0625
1480509502221691,-0.5625,0.25,-0.125
1480509502252776,-0.125,0.125,0.0625
1480509502259291,-0.9375,-0.4375,0.4375
1480509502281852,0.75,0,0.25
1480509502303910,1.5,0.6875,0.125
1480509502318952,-0.8125,0.375,0.1875
1480509502341510,-1.1875,-0.0625,-0.25
1480509502373095,0.6875,0,-0.0625
1480509502379110,-0.125,0.3125,0.25
1480509502404678,-0.5,0.3125,0.1875
1480509502424732,0.0625,0.5,0.0625
1480509502439270,-0.25,0.625,-0.0625
1480509502464839,-0.3125,0.75,0
1480509502483889,-0.3125,0.625,0
1480509502499151,-0.1875,0.625,0
1480509502521490,0.0625,0.1875,0
1480509502544049,0.0625,0.375,0
1480509502562097,-0.1875,0.0625,0.1875
1480509502581649,0.125,0.1875,0.25
1480509502604209,0,0.25,0.1875
1480509502619250,0,0.375,0.25
1480509502641309,-0.875,0.375,0.4375
1480509502672893,-0.1875,0.375,0.4375
1480509502680412,0.1875,0.4375,0.5
1480509502710493,-0.0625,0.6875,-0.0625
1480509502724027,-0.625,0.5625,0.25
1480509502747089,-0.3125,0.75,0.25
1480509502761627,-0.0625,0.3125,0
1480509502784188,0.3125,0.3125,0
1480509502806747,-0.1875,0.3125,0.125
1480509502821787,-0.5625,0.5,0.3125
1480509502844348,-0.5625,0.4375,0
1480509502866407,0,0.0625,-0.0625
1480509502881446,0.4375,-0.1875,0.125
1480509502904006,0.5,-0.3125,0.375
1480509502926566,-0.0625,-0.25,0.1875
1480509502941607,-0.6875,-0.1875,0
1480509502964167,0,0.125,0.125
1480509502986726,-0.1875,0.125,0.125
1480509503001767,-1,-0.1875,-0.0625
1480509503024331,-0.125,0.1875,-0.3125
1480509503046385,0.4375,0.25,0.125
1480509503061426,0.75,0.25,0.125
1480509503083986,-0.125,0.125,-0.25
1480509503106546,-0.5625,0,-0.1875
1480509503121585,0,0.125,-0.3125
1480509503144145,0,0.1875,-0.25
1480509503167206,-0.0625,0.25,-0.25
1480509503181747,0.3125,0,-0.1875
1480509503204305,0.375,0.125,-0.125
1480509503235889,0.25,0.3125,0.0625
1480509503241404,0.125,0.0625,-0.0625
1480509503266972,-0.4375,0.0625,-0.125
1480509503295549,0.1875,-0.125,-0.1875
1480509503301564,0.3125,-0.25,-0.3125
1480509503324124,0,0,-0.125
1480509503346684,-0.25,0,0
1480509503361724,0.375,0.1875,0.125
1480509503384284,0.0625,0.125,0.25
1480509503406344,0.0625,0.125,0.1875
1480509503421884,0.3125,0.25,0.125
1480509503452974,-0.0625,0,0.125
1480509503466502,-0.125,0.25,0.25
1480509503481544,-0.375,0.4375,0.1875
1480509503504102,0,0.375,0.0625
1480509503526663,1.0625,0,0.1875
1480509503541704,0.375,-0.3125,0.0625
1480509503564262,0.0625,-0.1875,0.125
1480509503586823,-0.4375,0,0.125
1480509503604369,0,0,0.375
1480509503623922,0.625,0,0.125
1480509503646481,0.5,-0.3125,0.4375
1480509503661521,0.875,-0.25,0.4375
1480509503684081,-0.3125,0,0.125
1480509503706642,-0.625,0.125,-0.125
1480509503721682,0.5,0,0.0625
1480509503752765,0.75,0.0625,0.375
1480509503766997,-1.0625,0.0625,0.125
1480509503781340,-0.5,0.1875,0.1875
1480509503803900,0.625,0.4375,-0.0625
1480509503826460,0.4375,0.1875,0.25
1480509503849020,-0.3125,0.125,0.375
1480509503864079,-0.875,0.0625,0.125
1480509503887121,-0.4375,0.1875,0
1480509503901661,0.0625,0.375,0.1875
1480509503924220,-0.1875,0.5625,0.25
1480509503946780,-1.1875,0.25,0.25
1480509503961820,-0.625,0.375,0.125
1480509503983879,-0.0625,0.3125,0.125
1480509504006439,-0.0625,0.4375,0.3125
1480509504021479,-0.25,0.3125,0.4375
1480509504044039,-0.375,0.1875,0.25
1480509504068103,-0.4375,0,0.125
1480509504081639,-0.5,-0.0625,0
1480509504104199,-0.3125,0,0.125
1480509504129767,0.1875,0,0.25
1480509504141799,0.25,-0.4375,-0.125
1480509504164360,-0.375,-0.5625,-0.25
1480509504186418,0.1875,-0.3125,0.125
1480509504208984,0.1875,-0.0625,0.1875
1480509504224018,-0.25,0,0.25
1480509504246578,0,0,0.0625
1480509504269138,0,0.0625,0.125
1480509504284679,-0.5,0,-0.0625
1480509504306737,-0.125,0.375,0.25
1480509504329298,-0.125,0.25,-0.1875
1480509504343836,0,0.0625,-0.25
1480509504375420,0.9375,-0.125,-0.0625
1480509504388956,0.3125,-0.25,0.125
1480509504407004,-0.875,-0.125,0.1875
1480509504426556,-0.625,-0.0625,-0.0625
1480509504449116,0.375,0.1875,-0.1875
1480509504464157,0.625,0,-0.0625
1480509504486717,-0.5625,0,0.1875
1480509504509277,-0.3125,-0.3125,0.125
1480509504524317,0.25,-0.5,0.0625
1480509504546375,0.375,-0.5625,-0.125
1480509504569439,0.125,-0.5625,0
1480509504586983,0,-0.25,-0.125
1480509504606535,-0.0625,0,-0.125
1480509504629096,0.125,0,-0.125
1480509504644135,0.5,-0.0625,-0.1875
1480509504666695,-0.0625,-0.375,-0.375
1480509504689255,-0.125,-0.1875,-0.125
1480509504704295,0.1875,0,0.0625
1480509504726354,0.125,0.3125,-0.25
1480509504748914,-0.5625,0.125,-0.0625
1480509504763954,-0.1875,0.1875,0
1480509504786514,-0.0625,0.25,-0.0625
1480509504809079,-0.3125,-0.0625,0
1480509504831641,-0.75,-0.875,-0.125
1480509504846674,1.6875,-0.6875,-0.0625
1480509504869235,2.375,0.25,0.0625
1480509504891794,-1.25,-0.0625,0.0625
1480509504906840,-1.625,-0.6875,-0.1875
1480509504930399,0.8125,-0.6875,0
1480509504943933,0.6875,-0.125,0.125
1480509504966492,0.0625,0.125,0.125
1480509504989052,0,0.25,0
1480509505004094,-0.0625,0.0625,0.0625
1480509505026654,0.5,-0.0625,0.375
1480509505049212,-0.0625,-0.1875,0.1875
1480509505064254,-0.125,0.375,0.0625
1480509505086813,-0.125,0.4375,0.1875
1480509505117895,-0.5,0.25,0.1875
1480509505123911,0.0625,-0.0625,0.0625
1480509505147976,0.375,-0.0625,0.0625
1480509505172039,-0.125,-0.0625,0.1875
1480509505184073,-0.3125,0.125,0.3125
1480509505206631,-0.625,0.3125,0.375
1480509505237713,-0.3125,0.25,0.5
1480509505251752,-0.25,-0.0625,0.4375
1480509505266791,-0.125,0.1875,0.5
1480509505297874,-0.625,0.1875,0
1480509505311410,-0.25,0.25,-0.0625
1480509505326450,0.4375,0.3125,0.1875
1480509505349010,-0.6875,0.3125,-0.125
1480509505371570,-1.4375,0,-0.25
1480509505386610,0.4375,0.25,0.25
1480509505409170,1.1875,0.5625,0.375
1480509505431730,0,0.375,0.25
1480509505455798,-1.375,-0.0625,0
1480509505468830,-0.4375,0.0625,0.0625
1480509505491389,0.1875,0,0.1875
1480509505506429,-0.125,0.4375,0.25
1480509505528989,-0.3125,0.875,0.0625
1480509505551549,-0.375,0.875,0.125
1480509505566589,-0.875,0.4375,0.0625
1480509505589149,-0.375,0.25,-0.1875
1480509505611709,-0.0625,0.1875,-0.0625
1480509505626749,0.3125,0.375,0
1480509505649309,0,0.1875,-0.25
1480509505671368,-0.1875,0.1875,0
1480509505686408,-0.5625,0.25,-0.0625
1480509505708968,0,0.625,0.125
1480509505731885,0.3125,0.5,0.1875
1480509505746567,-0.0625,0.25,0
1480509505769128,-0.1875,0.125,0
1480509505791687,-0.0625,0.5625,0.1875
1480509505806728,0.0625,0.8125,0.375
1480509505829287,0.4375,1.0625,0.25
1480509505851848,0.375,0.5625,0.0625
1480509505866387,-0.0625,0.25,0
1480509505888946,-0.3125,0.5,-0.125
1480509505911506,-1.125,0.5,0.0625
1480509505926546,-0.25,0.5,0.1875
1480509505949106,0.5,0.375,0.1875
1480509505983197,-0.3125,0.5625,0.0625
1480509506002751,-1,0.0625,0.4375
1480509506009267,-1.4375,-0.875,0.25
1480509506040350,1.125,-0.0625,-0.0625
1480509506046365,2.0625,0.625,0.1875
1480509506068928,-1.4375,0.5625,-0.125
1480509506091486,-1.9375,0.1875,-0.0625
1480509506106526,0.8125,0.25,0
1480509506129085,0.0625,0.4375,0
1480509506151647,-0.3125,0.75,0
1480509506174205,-0.1875,0.5,0
1480509506189245,-0.5625,0.375,0.0625
1480509506211805,-0.4375,0.4375,0
1480509506233864,-0.3125,0.25,0.125
1480509506250408,-0.25,0.0625,0.0625
1480509506271463,0.3125,0.5,-0.0625
1480509506294023,-1.4375,0.4375,0.1875
1480509506312072,-0.3125,0.625,0.25
1480509506333128,0.1875,0.125,0.0625
1480509506354184,-0.25,0.125,0.125
1480509506376745,-0.875,0,-0.0625
1480509506392787,-0.0625,0.1875,0.5625
1480509506413842,0.375,0.0625,-0.125
1480509506428883,-0.8125,0.1875,0.0625
1480509506451443,-0.4375,0.1875,0.125
1480509506474003,-0.875,0.3125,0.3125
1480509506489043,0.1875,0.1875,0.5
1480509506511603,-0.0625,0.4375,0.125
1480509506534162,-0.5625,0.625,0.1875
1480509506549202,-1,0.4375,0.1875
1480509506571763,-0.875,0.25,0.5
1480509506594322,0.3125,0.4375,0.0625
1480509506608861,0.25,0.3125,-0.125
1480509506632934,0.5,0,0.125
1480509506653981,-0.125,0,0.375
1480509506669024,-0.625,0.375,0.0625
1480509506691581,-0.8125,0.375,0.0625
1480509506714141,0,0.3125,-0.1875
1480509506729182,0.6875,-0.0625,-0.1875
1480509506751743,0.375,0,0
1480509506782824,-0.5625,-0.0625,0.25
1480509506788840,0.25,0.125,0.125
1480509506811400,0.6875,0.1875,0.0625
1480509506833960,-0.4375,0,0.0625
1480509506848999,-0.75,0.25,0.1875
1480509506871560,-0.4375,0.375,0.0625
1480509506894121,0.3125,0.625,0.375
1480509506909159,0.8125,0.375,0.3125
1480509506932221,-0.1875,0.125,0.0625
1480509506954280,-0.625,-0.0625,-0.125
1480509506969320,0,-0.125,-0.0625
1480509506991379,0.125,0.125,0
1480509507015442,-0.25,0.3125,0.125
1480509507028979,-0.375,0.5625,0.0625
1480509507051539,0,0.5625,0.125
1480509507074105,0.1875,0.3125,0.125
1480509507089640,0.1875,0.25,0.1875
1480509507111698,-0.0625,0.1875,0.125
1480509507134260,0.4375,0.125,0.3125
1480509507156832,0.0625,0.1875,0.4375
1480509507174367,0.4375,0,0.25
1480509507193938,0.375,0,-0.125
1480509507216979,0.3125,0.0625,-0.25
1480509507231518,-0.4375,0.0625,0.125
1480509507254078,-0.125,0.1875,0.4375
1480509507276637,0.375,0.25,0.3125
1480509507291677,-0.0625,0.375,0.1875
1480509507314238,0.0625,0.25,0.0625
1480509507336798,-0.0625,0.3125,0
1480509507359359,-0.5,0.625,0.1875
1480509507373896,-1.0625,0.6875,0.1875
1480509507396466,-0.1875,0.5625,0.125
1480509507411496,0.875,0.4375,0
1480509507434068,0.625,0.1875,0
1480509507456616,-0.9375,0,0
1480509507471656,-1.1875,0.125,-0.0625
1480509507494216,-0.1875,0.1875,-0.0625
1480509507516776,0.1875,0.1875,0.125
1480509507531818,0.375,0.1875,0.1875
1480509507553876,-0.25,0,0.375
1480509507576435,0.0625,-0.0625,0.4375
1480509507591478,-0.25,0.0625,0.0625
1480509507621555,-0.5,0,-0.1875
1480509507639603,-0.125,0,-0.0625
1480509507651636,-0.375,0.0625,-0.0625
1480509507674199,-1.0625,0.125,0.0625
1480509507696756,0.125,0.375,-0.0625
1480509507711795,0,0.25,0
1480509507733853,-0.625,-0.125,-0.125
1480509507766944,-0.375,-0.0625,0.1875
1480509507778973,-0.125,-0.0625,0.0625
1480509507801535,-0.25,-0.0625,-0.125
1480509507816573,-0.125,0.1875,-0.25
1480509507831618,0.125,0.5625,0.125
1480509507854173,-1.25,0.375,0.375
1480509507876735,-1.6875,0.125,0.125
1480509507899349,-0.5625,0.0625,-0.0625
1480509507913833,-0.1875,-0.0625,-0.25
1480509507936393,-1.25,-0.25,-0.3125
1480509507951433,0.125,-0.125,0.125
1480509507973992,1.0625,0.3125,0.3125
1480509507996553,-0.875,0.25,0.1875
1480509508011593,-1.125,0.1875,0.125
1480509508041672,0.0625,0,-0.0625
1480509508056713,0.125,-0.125,0.1875
1480509508079272,-0.4375,-0.3125,0.125
1480509508094326,0.25,-0.125,-0.0625
1480509508116371,0.125,-0.1875,-0.125
1480509508139433,-0.4375,-0.25,0
1480509508153971,-0.1875,-0.75,-0.1875
1480509508179539,0.5,-0.75,0.0625
1480509508199593,0.25,-0.6875,-0.125
1480509508214131,0.3125,-0.125,0.0625
1480509508236691,0.5,-0.1875,-0.0625
1480509508259251,0.5625,-0.1875,-0.25
1480509508273790,0.625,-0.5625,-0.1875
1480509508296352,0.0625,-0.4375,-0.1875
1480509508319411,-0.25,-0.125,0.125
1480509508333951,0.4375,0.1875,0.25
1480509508359518,0.8125,0.0625,0
1480509508379070,0.8125,0,-0.1875
1480509508401632,0.625,0.0625,-0.0625
1480509508416670,-0.375,-0.1875,-0.0625
1480509508439230,-0.5,-0.5,-0.125
1480509508454285,0.875,-0.375,0
1480509508476328,1.125,-0.0625,0.0625
1480509508498889,-0.375,-0.125,0.3125
1480509508513929,-0.5625,-0.25,0.1875
1480509508539496,0.1875,-0.1875,-0.0625
1480509508559049,0.25,-0.375,0
1480509508574106,0.125,-0.1875,0.3125
1480509508599657,-0.375,-0.125,0.5
1480509508619208,-0.5,-0.125,-0.125
1480509508634249,0.25,-0.1875,-0.375
1480509508665833,0.25,-0.125,-0.5625
1480509508678867,-1.5,0.4375,-1
1480509508693908,-0.875,0.4375,0.0625
1480509508716467,-0.8125,0.75,0.1875
1480509508748051,-1.75,0.5625,-0.25
1480509508754068,-0.1875,-0.0625,-0.125
1480509508779636,0.875,-0.4375,-0.25
1480509508809214,-0.5625,-0.1875,-0.3125
1480509508814227,-0.5625,-0.1875,-0.375
1480509508836286,-0.25,-0.1875,0.0625
1480509508858846,0.5,-0.375,0.125
1480509508875393,0.1875,-0.1875,0.25
1480509508896452,0.3125,-0.25,0.1875
1480509508922014,1.5,-0.25,0.1875
1480509508934046,0.9375,-0.125,0
1480509508956606,-0.1875,0,0.125
1480509508979166,-0.25,0,0.3125
1480509508997215,0.8125,-0.125,-0.0625
1480509509024286,0.8125,-0.0625,-0.3125
1480509509038825,0.5625,0,0
1480509509061385,-0.125,0.25,0.125
1480509509076425,-0.6875,0,0.4375
1480509509099487,-0.4375,0,0.0625
1480509509122046,0.6875,-0.0625,0
1480509509136585,0.4375,-0.125,0.0625
1480509509160649,-0.5625,-0.25,0
1480509509181705,-0.0625,0,0.25
1480509509196760,-0.4375,0.0625,0.1875
1480509509218803,0.3125,0.1875,0.125
1480509509241364,0.0625,0.6875,0.1875
1480509509256403,-1.5,0.4375,0
1480509509281973,-0.375,0.375,0
1480509509301525,0.8125,0.25,0
1480509509316564,-0.375,0.4375,0.125
1480509509347646,-1,0.375,0.125
1480509509370207,-0.375,0.4375,0.125
1480509509376729,-0.1875,0.25,-0.1875
1480509509401792,-0.25,0.625,0.1875
1480509509421342,-1.1875,0.5,0.1875
1480509509436382,-0.8125,0.125,0.125
1480509509467968,0.5625,0.8125,0
1480509509490527,-0.375,0.6875,-0.25
1480509509496553,-0.8125,0.0625,-0.125
1480509509519103,0.1875,-0.5625,-0.0625
1480509509541663,0.25,-0.4375,0.25
1480509509556703,0.1875,0.3125,0.125
1480509509589288,-0.0625,0.8125,0.375
1480509509601822,-0.4375,0.4375,-0.0625
1480509509617868,-0.5625,0.4375,-0.0625
1480509509647443,-0.3125,0.4375,0.1875
1480509509661481,-0.5625,0.5625,0.25
1480509509679529,-0.125,0.5625,0.3125
1480509509706602,1.0625,0.6875,0
1480509509721646,0.25,0.4375,-0.25
1480509509736681,-1.125,0.3125,0.125
1480509509759242,-0.5,0.5,0.375
1480509509781801,-0.1875,0.625,0.25
1480509509797844,-0.4375,0.75,0
1480509509818900,0.0625,0.6875,0.0625
1480509509841460,-0.25,0.5625,0
1480509509856517,-0.75,0.25,0.3125
1480509509879060,-0.4375,0.1875,0.0625
1480509509904632,0.5,0.1875,-0.125
1480509509916660,0.1875,0.125,-0.1875
1480509509939220,-0.8125,0.125,0.0625
1480509509961779,-0.5625,0.375,0.1875
1480509509984341,-0.125,0.5625,0.0625
1480509509998879,0.625,0.5,0.125
1480509510022942,0.3125,0.0625,-0.125
1480509510043999,-0.5625,0.125,-0.1875
1480509510059038,-0.4375,0.125,-0.125
1480509510084607,0.0625,0.25,-0.0625
1480509510104660,-0.375,0.3125,0.0625
1480509510119198,-0.375,0.5,0.0625
1480509510151284,-0.3125,0.4375,0.1875
1480509510164319,-0.0625,0.1875,-0.125
1480509510181867,0.375,0.125,-0.125
1480509510201417,0.0625,0.125,-0.125
1480509510223979,-0.125,-0.125,0
1480509510240521,0.25,-0.125,0
1480509510263081,0.0625,0.125,-0.125
1480509510284138,0.25,0.25,-0.0625
1480509510299341,0.5,-0.0625,0
1480509510321753,0.125,0,-0.1875
1480509510343796,-0.1875,-0.0625,-0.0625
1480509510358836,0.25,0.125,-0.0625
1480509510390421,-0.1875,0,-0.25
1480509510428522,0.1875,0.125,-0.375
1480509510431028,0.1875,0.125,-0.25
1480509510441556,0.4375,0.125,0.125
1480509510464116,0.3125,0.5,0.1875
1480509510479156,-0.1875,0.625,0.0625
1480509510501716,-0.125,0.5,0.0625
1480509510523775,0.625,0.375,0.125
1480509510538815,0.1875,0.3125,0.3125
1480509510561375,-0.4375,0.125,0.4375
1480509510583937,-0.0625,0.1875,0.1875
1480509510599059,0.375,0.3125,0.125
1480509510621535,0.125,0.25,0.125
1480509510644095,-0.375,0.0625,0.25
1480509510659135,-0.375,0.125,0.3125
1480509510682196,-0.25,0.8125,0.25
1480509510703769,-0.25,0.5625,0.25
1480509510721801,-0.25,0.5,0.25
1480509510741354,-0.1875,0.3125,0.0625
1480509510763914,-0.5,0.375,0.3125
1480509510778953,-0.3125,0.5,-0.0625
1480509510801514,-0.75,0.3125,0.125
1480509510824074,-0.3125,0.375,-0.1875
1480509510839113,-0.25,0.5,0.1875
1480509510861673,-0.5,0.1875,0.4375
1480509510884234,-0.125,0.375,0.1875
1480509510900276,0.25,0.1875,0.0625
1480509510921332,-0.5,0,-0.1875
1480509510943892,0.25,-0.3125,-0.3125
1480509510975476,0.0625,-0.125,0
1480509510981492,0,0.0625,0.375
1480509511004052,0.3125,0.375,0.375
1480509511027113,-0.5625,0.375,0.1875
1480509511041652,-0.4375,0.3125,0.375
1480509511064212,0.1875,0.3125,0.125
1480509511086772,-0.4375,0.25,-0.0625
1480509511101313,0.0625,0.5,-0.0625
1480509511123871,0.125,0.75,0.0625
1480509511146431,-0.0625,0.4375,0.3125
1480509511161471,0.25,0.3125,0.0625
1480509511184032,0.1875,0,0.125
1480509511215615,-0.0625,0.1875,0.125
1480509511229167,-0.1875,0.4375,0.3125
1480509511245696,-0.125,0.5,0.25
1480509511266751,-0.375,0.375,0.1875
1480509511281289,-0.1875,0.125,0.125
1480509511303850,-0.125,0.0625,0.375
1480509511326425,0,0.125,0.3125
1480509511341450,0,0.1875,0.125
1480509511374538,-0.0625,0.125,-0.0625
1480509511386570,-0.125,0.375,0.1875
1480509511401611,-0.3125,0.375,0.25
1480509511424170,-0.0625,0.3125,0.4375
1480509511446729,0.375,0.25,0.3125
1480509511461770,-0.25,0.0625,0.125
1480509511492853,0.25,-0.3125,0.5
1480509511506388,0.5,-0.375,-0.0625
1480509511522932,-0.375,-0.125,0.0625
1480509511552010,-0.4375,0.1875,0.1875
1480509511566548,0.0625,0.625,0.4375
1480509511581589,-0.4375,0.5,0.5625
1480509511604149,-0.5625,0.375,0.25
1480509511626708,0.0625,0.0625,-0.125
1480509511644255,0.5,0.125,-0.25
1480509511664309,-0.25,0,0
1480509511686383,-0.6875,0.0625,0.125
1480509511701408,-0.1875,0,0.125
1480509511723967,0.125,0.1875,0.0625
1480509511747028,0.25,0.0625,0.0625
1480509511761567,0.0625,0.1875,0.125
1480509511784129,-0.25,0.0625,0
1480509511806687,0,0.1875,0.3125
1480509511821728,0.125,0.25,0.125
1480509511843786,0.0625,0.25,0.125
1480509511866346,-0.4375,0.25,-0.0625
1480509511888907,-0.3125,0.1875,0.0625
1480509511905451,-0.375,0.3125,0
1480509511929515,-0.5625,0.1875,0
1480509511966613,0.25,0.0625,-0.25
1480509511969119,0.6875,-0.125,-0.0625
1480509511997696,0.1875,-0.25,-0.0625
1480509512009226,-0.8125,-0.0625,0.0625
1480509512023765,-1.1875,0.0625,0.0625
1480509512046325,-0.3125,0.3125,0.0625
1480509512068884,0.125,0,0.0625
1480509512083926,0,-0.0625,0.125
1480509512109494,-0.3125,-0.25,0.25
1480509512129045,0,-0.1875,0.375
1480509512145588,0.4375,0.125,-0.0625
1480509512166645,0,-0.3125,-0.0625
1480509512189206,-0.75,-0.3125,0.375
1480509512204244,-0.5,-0.0625,0.375
1480509512226303,0.125,0.5,0.1875
1480509512248864,-0.5,0.125,-0.1875
1480509512263904,0.5625,0.0625,0.3125
1480509512286463,-0.1875,-0.0625,0.0625
1480509512309023,-1.3125,-0.0625,-0.0625
1480509512324063,-0.8125,0,-0.0625
1480509512346624,0.6875,0.125,0.0625
1480509512369184,-0.6875,0,0.0625
1480509512386730,-0.5,0.0625,0
1480509512406282,-0.4375,0.0625,0.0625
1480509512437866,-0.375,0.0625,0
1480509512451403,0.125,-0.1875,0.1875
1480509512466442,0.1875,-0.3125,0.125
1480509512489002,0.0625,-0.5625,-0.125
1480509512504081,0.375,-0.75,-0.3125
1480509512526604,0.25,-0.4375,-0.375
1480509512549162,0.1875,-0.1875,0
1480509512564204,-0.4375,-0.25,0
1480509512586762,-0.1875,-0.375,0
1480509512608821,0.5625,-0.375,-0.125
1480509512623861,0.6875,-0.1875,-0.1875
1480509512646421,-0.0625,-0.0625,-0.1875
1480509512668981,-0.3125,0.1875,-0.1875
1480509512684023,0.0625,-0.25,0.1875
1480509512706581,0.625,-0.25,0.125
1480509512729142,0.0625,-0.125,-0.25
1480509512759220,-0.0625,-0.0625,-0.125
1480509512774277,-0.25,-0.375,0.0625
1480509512800833,0.5,-0.125,-0.1875
1480509512812877,0.125,-0.125,-0.3125
1480509512826400,0.6875,-0.125,0.125
1480509512848959,0.625,-0.25,0.0625
1480509512871519,-0.5,-0.25,-0.0625
1480509512889567,-0.4375,-0.0625,0
1480509512909119,0.5625,-0.0625,-0.0625
1480509512940202,0.625,-0.25,0.0625
1480509512946720,-0.3125,-0.25,0
1480509512969279,-0.5,-0.1875,-0.125
1480509512991338,0.125,-0.1875,-0.1875
1480509513006381,0.4375,-0.1875,0.0625
1480509513037963,0.0625,0,0.0625
1480509513051498,-0.625,0,0.1875
1480509513066539,-0.1875,0.125,0.1875
1480509513089099,-0.0625,0.125,0.25
1480509513111659,0.5625,0,0.0625
1480509513126698,0,0,0.1875
1480509513149760,-0.5,0,0.25
1480509513171317,0.125,-0.0625,0
1480509513187862,-0.0625,0,-0.0625
1480509513217942,-0.375,0.0625,0.0625
1480509513231478,-0.3125,0.0625,0.1875
1480509513246517,-0.3125,0,-0.0625
1480509513269077,0.375,0.0625,-0.125
1480509513291637,0.3125,0,-0.0625
1480509513306677,0.0625,-0.1875,0.125
1480509513329238,-0.25,-0.3125,-0.0625
1480509513360320,-0.25,-0.125,-0.125
1480509513373856,0.3125,0.1875,0
1480509513388896,0.375,0.375,0.125
1480509513411457,0.0625,0.375,0.125
1480509513426496,-0.1875,0.1875,0.1875
1480509513449056,-0.0625,-0.0625,0
1480509513473120,0.125,-0.0625,0.0625
1480509513494176,0.0625,0,0
1480509513509216,-0.1875,0.25,0.1875
1480509513531776,0.25,0.3125,0.25
1480509513546816,0.125,0.375,0.0625
1480509513568874,0.25,0.375,-0.1875
1480509513594446,0.1875,0.25,-0.125
1480509513606474,0,0.375,0
1480509513632552,-0.75,0.5,0.1875
1480509513651603,-0.5,0.625,0.375
1480509513666643,0.0625,0.5,0.125
1480509513689204,0.1875,0.3125,0.1875
1480509513720286,0.1875,0.1875,0.125
1480509513734335,-0.1875,0.375,-0.0625
1480509513750368,-0.25,0.0625,0.0625
1480509513772926,0,0.0625,0.0625
1480509513793982,-0.4375,0.3125,0.1875
1480509513809022,-0.125,0.4375,0.125
1480509513831583,0.1875,0.375,0.125
1480509513854142,0.375,0.25,0.1875
1480509513871689,-0.3125,0.125,0.0625
1480509513891741,-0.9375,0,0
1480509513913801,-0.3125,0.1875,0.1875
1480509513928844,0.0625,0.3125,0.1875
1480509513959424,-0.25,0.5,0
1480509513973964,-0.625,0.375,0.0625
1480509513996545,-0.25,0.375,0.1875
1480509514028106,-0.25,0.5,0.125
1480509514034132,-0.125,0.3125,0
1480509514058185,0.1875,0.25,0.0625
1480509514080243,-0.375,0.0625,0.0625
1480509514093780,-0.4375,0.0625,0.1875
1480509514109321,0.0625,0,0.0625
1480509514131381,0.0625,0.1875,0.0625
1480509514153939,0.0625,0.3125,0.125
1480509514168980,-0.0625,0.3125,0.375
1480509514191541,-0.0625,0.1875,0.1875
1480509514214099,-0.0625,0.1875,0
1480509514229139,-0.25,0.25,0.1875
1480509514251700,-0.25,0.5,0.1875
1480509514273759,-0.6875,0.75,0.0625
1480509514305343,-0.375,0.4375,-0.0625
1480509514311360,0.8125,0.0625,-0.125
1480509514342947,0.8125,-0.0625,-0.125
1480509514348958,0.1875,0,0.1875
1480509514371519,-0.625,0.3125,0.3125
1480509514402602,-0.5,0.5,0.4375
1480509514409118,0.6875,0.4375,0.3125
1480509514431678,0.875,0.375,-0.0625
1480509514456744,0.125,0.25,0.0625
1480509514468776,-0.25,0.1875,0.0625
1480509514491337,0.1875,0.1875,-0.0625
1480509514513897,0.1875,0.125,-0.3125
1480509514528937,-0.0625,0.125,-0.1875
1480509514554505,-0.3125,0.1875,0.0625
1480509514574058,-0.5,0.4375,0.0625
1480509514589097,-0.1875,0.6875,0.125
1480509514611657,0.3125,0.375,0.1875
1480509514642739,-0.125,0.25,0.125
1480509514649257,-0.5625,0.125,0
1480509514674323,-0.4375,0.1875,-0.125
1480509514710421,-0.0625,0.375,-0.0625
1480509514716436,-0.0625,0.5,-0.1875
1480509514731476,-0.375,0.6875,-0.1875
1480509514754035,-0.3125,0.5625,0.125
1480509514776596,0.1875,0.0625,0.1875
1480509514791636,-0.25,0.25,0.1875
1480509514814195,-0.625,0.1875,0
1480509514836254,-0.375,0.125,0.125
1480509514851294,-0.125,0,0.1875
1480509514882878,-0.375,0,0.1875
1480509514896415,-0.375,0.125,-0.0625
1480509514911454,-0.0625,0.125,0.1875
1480509514934016,-0.125,0.25,0
1480509514956574,-0.25,0.4375,-0.125
1480509514979136,-0.6875,0.625,-0.25
1480509514994174,-0.1875,0.75,-0.0625
1480509515019241,0.1875,0.875,0.1875
1480509515031274,-0.5625,0.625,0.375
1480509515053833,-1.0625,0.5625,0.125
1480509515076397,-0.25,0.625,0
1480509515091433,0.875,0.75,0.1875
1480509515114002,0.6875,0.5625,0.3125
1480509515136553,-0.625,-0.125,0.1875
1480509515151593,-0.9375,0,-0.125
1480509515174168,-0.25,0.5,0
1480509515196713,0.375,0.3125,0.125
1480509515211753,0.375,0.125,0.3125
1480509515233818,-0.625,0.125,0.125
1480509515256372,-0.4375,0.1875,0.1875
1480509515271411,0.4375,0.0625,0.0625
1480509515293972,0.375,-0.0625,-0.1875
1480509515325054,-0.3125,0.0625,0.0625
1480509515331573,-1.5,0.125,0.125
1480509515354131,-1.25,0.0625,0
1480509515376692,0,0.3125,0
1480509515391230,0.5,0.3125,0.0625
1480509515414292,0.375,0.25,0.0625
1480509515436350,-0.25,0,0.25
1480509515452894,-0.375,0.0625,0.125
1480509515473950,-0.0625,0.3125,0.125
1480509515496517,-0.0625,0.4375,0.1875
1480509515511550,-0.5,0.4375,0
1480509515534112,-0.4375,0.3125,0
1480509515556671,-0.5,0.4375,0.0625
1480509515571711,-0.1875,-0.125,0.1875
1480509515595273,-0.25,-0.25,-0.125
1480509515625353,-0.25,-0.375,-0.25
1480509515638889,0.1875,-0.3125,0
1480509515653930,0.375,-0.3125,-0.125
1480509515685513,0.375,-0.25,0
1480509515699050,0,-0.25,0
1480509515714089,0.0625,-0.25,-0.0625
1480509515736649,0,0,0
1480509515759209,0.4375,-0.0625,0.125
1480509515773748,-0.1875,-0.0625,0.0625
1480509515796308,-0.3125,-0.0625,-0.0625
1480509515818868,-0.0625,-0.0625,-0.0625
1480509515833928,0.3125,0,0.125
1480509515857974,-0.125,0.0625,0.125
1480509515879028,-0.3125,0.0625,0
1480509515894072,0.4375,-0.0625,-0.125
1480509515916628,0.875,-0.1875,-0.25
1480509515939188,0.125,-0.5,-0.0625
1480509515954228,-0.3125,-0.4375,0.125
1480509515976289,-0.4375,-0.125,0.0625
1480509516008372,0,-0.125,0.0625
1480509516013886,0.375,-0.1875,-0.125
1480509516036448,0.25,-0.3125,-0.0625
1480509516059007,0,-0.375,0
1480509516074047,-0.0625,-0.375,0
1480509516096607,0.25,-0.375,-0.3125
1480509516119166,0.4375,-0.3125,-0.0625
1480509516134207,0.375,-0.375,-0.1875
1480509516159775,-0.1875,-0.125,-0.5625
1480509516178825,0.625,-0.25,-0.3125
1480509516193865,0.1875,-0.3125,-0.25
1480509516219433,-0.6875,-0.1875,-0.3125
1480509516238985,-0.625,-0.5,-0.3125
1480509516254026,0.25,-0.4375,0
1480509516276585,0.125,-0.5,-0.3125
1480509516299145,0.0625,-0.5,0.0625
1480509516322708,0,-0.3125,-0.5
1480509516343765,0.125,-0.1875,-0.0625
1480509516367828,0.0625,-0.375,0.25
1480509516373845,0,-0.4375,-0.0625
1480509516403926,0.0625,-0.6875,-0.3125
1480509516418981,0.5,-1,-0.4375
1480509516437014,0.4375,-0.875,-0.3125
1480509516456565,0.1875,-0.625,-0.0625
1480509516479124,0,-0.5,-0.125
1480509516497172,-0.5625,-0.5,-0.1875
1480509516519232,0,-0.6875,-0.3125
1480509516547337,0.25,-0.625,-0.0625
1480509516555367,0.375,-0.5625,-0.1875
1480509516576415,0,-0.4375,-0.1875
1480509516598982,-0.3125,-0.375,-0.0625
1480509516621540,0.625,-0.375,-0.125
1480509516636580,0.0625,-0.375,-0.1875
1480509516659140,-0.375,-0.5625,0.1875
1480509516681702,0,-0.3125,-0.125
1480509516696742,0.25,-0.5625,-0.0625
1480509516718799,0.6875,-0.9375,-0.4375
1480509516741359,1,-1,-0.5
1480509516756399,0.75,-0.75,-0.1875
1480509516778959,-0.1875,-0.5625,-0.125
1480509516801519,-0.1875,-0.5625,-0.125
1480509516816560,0.375,-0.5,-0.125
1480509516839119,0.6875,-0.4375,-0.1875
1480509516861679,-0.25,-0.8125,-0.0625
1480509516876218,0.0625,-0.5625,0.125
1480509516898779,0.6875,-0.5625,-0.25
1480509516921339,0.3125,-0.6875,-0.5
1480509516936378,0,-1.0625,-0.25
1480509516961945,-0.125,-0.6875,-0.375
1480509516981498,-0.1875,-0.3125,-0.625
1480509516996538,0.375,-0.375,-0.1875
1480509517022105,1.4375,-0.75,-0.0625
1480509517041658,-0.1875,-0.875,-0.1875
1480509517056196,-1.125,-0.875,-0.25
1480509517078756,0.0625,-0.8125,-0.5625
1480509517110340,0.75,-0.625,-0.3125
1480509517116356,-0.25,-0.3125,-0.25
1480509517138917,-1.25,-0.125,-0.625
1480509517161476,-0.3125,-0.25,-0.5
1480509517176532,0.1875,-0.4375,-0.625
1480509517202084,-0.875,-0.75,-0.8125
1480509517221636,-0.5625,-0.5625,-0.5625
1480509517240186,0.4375,-0.625,-0.3125
1480509517267258,0.5625,-0.5625,-0.1875
1480509517282298,0.0625,-0.75,-0.3125
1480509517299896,-0.125,-0.25,-0.375
1480509517318895,0.75,-0.0625,-0.125
1480509517350479,0.625,-0.125,0.0625
1480509517356511,0.125,-0.25,0.0625
1480509517382063,-0.6875,-0.25,-0.0625
1480509517401616,-0.75,-0.1875,-0.1875
1480509517416657,-0.3125,0.125,-0.25
1480509517439215,-0.75,0.4375,-0.25
1480509517462778,-0.75,0.375,0
1480509517479321,0.3125,0.3125,0.25
1480509517498874,0.125,0.5,0.5
1480509517522938,-0.5625,0.5625,0.5
1480509517545999,-0.25,0.5625,0.375
1480509517559034,0.4375,0.625,0.0625
1480509517581593,-0.875,0.4375,-0.0625
1480509517604154,-0.125,0.1875,0.25
1480509517619194,0.5625,0.1875,0.1875
1480509517641755,0,0.1875,0.0625
1480509517663814,-0.375,-0.1875,0.0625
1480509517682362,0.6875,-0.25,0.125
1480509517701412,0.4375,0.125,0.125
1480509517723973,-1.5,0.0625,-0.4375
1480509517740531,-0.25,0.1875,0.125
1480509517764581,1,0,0.1875
1480509517784132,-0.3125,0.1875,0.1875
1480509517799173,-1.75,-0.125,-0.125
1480509517821733,0.25,0.4375,-0.0625
1480509517843791,0.1875,0,-0.375
1480509517858832,-0.75,-0.5,-0.625
1480509517881391,0.125,-0.5,0.25
1480509517912975,0.9375,-0.125,0.3125
1480509517918991,-0.75,0.1875,0
1480509517935034,0.4375,-0.4375,-0.625
1480509517949072,0.125,-0.75,-0.625
1480509517972634,-0.125,-0.6875,0
1480509517986671,-0.0625,-0.125,0.25
1480509518008733,0.4375,0,-0.0625
1480509518032795,1.625,0.125,-0.0625
1480509518046331,0.5,-0.125,-0.0625
1480509518068891,-0.5,-0.3125,-0.125
1480509518092954,-0.3125,-0.3125,-0.1875
1480509518106490,0.4375,0,-0.1875
1480509518129050,0.5,0.1875,-0.1875
1480509518152613,1,0.125,-0.125
1480509518166651,0.625,0.0625,0.0625
1480509518189225,-0.5,0.0625,0.125
1480509518213274,-0.4375,0.125,0.375
1480509518226309,0,0.25,0.25
1480509518248870,0.0625,0,0.1875
1480509518272933,0,-0.25,0
1480509518286469,0.0625,-0.125,0.1875
1480509518309028,-0.3125,-0.25,0.125
1480509518333094,0,-0.25,0.1875
1480509518346628,0.25,-0.5625,0.125
1480509518377711,0.625,-0.125,0.125
1480509518400271,-0.1875,0.1875,0.0625
1480509518406287,-0.25,0.125,-0.1875
1480509518428847,0.0625,-0.0625,-0.4375
1480509518452911,-0.0625,-0.0625,-0.1875
1480509518466449,-0.0625,-0.125,0
1480509518489007,-0.25,-0.0625,0.0625
1480509518512070,-0.3125,0.0625,0
1480509518526607,0,0.125,-0.125
1480509518549169,0.0625,0.1875,0
1480509518572730,-0.8125,0.125,0
1480509518586267,-0.875,-0.0625,0.0625
1480509518617850,0.5625,0,0
1480509518632891,0.4375,0.125,-0.25
1480509518646928,-0.5,-0.1875,-0.0625
1480509518668986,-0.0625,-0.4375,0.0625
1480509518692550,0.375,-0.25,-0.1875
1480509518706586,-0.875,-0.1875,0
1480509518729147,-0.3125,0,0
1480509518752709,0.625,0.0625,0.125
1480509518767247,-0.5,-0.125,0.125
1480509518788806,-0.4375,-0.25,0.125
1480509518812871,1.25,0.5,0.125
1480509518826406,-0.8125,0.3125,-0.1875
1480509518848966,-0.1875,-0.0625,-0.125
1480509518873030,2.125,0,-0.3125
1480509518886565,-0.3125,-0.5,-0.875
1480509518909127,-0.3125,-0.8125,-0.5625
1480509518932688,1.3125,-0.5625,0.5625
1480509518946224,0.4375,0.125,0.3125
1480509518968785,-0.5625,0,-0.0625
1480509518995856,0.3125,-0.25,-0.0625
1480509519015910,0.375,-0.5625,-0.125
1480509519028944,0.4375,-0.5625,0.0625
1480509519060529,0.3125,-0.25,-0.0625
1480509519066546,1,-0.25,-0.25
1480509519089105,0.5625,0.1875,-0.0625
1480509519112165,-1,0.1875,0
1480509519127719,-0.8125,0.0625,0.125
1480509519149264,1.0625,-0.125,-0.125
1480509519180346,1.125,-0.125,-0.3125
1480509519186362,-0.1875,0.0625,-0.1875
1480509519208923,-0.3125,0.0625,-0.125
1480509519231483,0.125,-0.125,0.25
1480509519255046,0.125,-0.1875,0
1480509519269082,-0.3125,0,-0.125
1480509519291643,-0.0625,0.0625,-0.125
1480509519322725,0.125,-0.0625,0.0625
1480509519331750,0.0625,-0.1875,0.1875
1480509519360326,0,-0.1875,0.1875
1480509519374362,-0.25,-0.1875,0.125
1480509519390405,-0.625,-0.375,0.0625
1480509519419482,-0.1875,-0.8125,0.25
1480509519435533,1.5,-0.25,0.4375
1480509519449062,0.75,0.25,-0.0625
1480509519471621,-1.0625,0.25,-0.25
1480509519495184,-0.625,-0.0625,-0.25
1480509519509221,0.6875,-0.125,-0.1875
1480509519531281,0.625,0.1875,-0.1875
1480509519555344,-0.375,0.1875,-0.25
1480509519568881,-0.5,0.1875,-0.3125
1480509519591441,0.375,0.125,-0.375
1480509519615505,0.4375,0,-0.0625
1480509519629042,0.5,-0.125,0.0625
1480509519651601,0.0625,-0.0625,0
1480509519675163,-0.3125,0,0
1480509519689201,-0.25,-0.1875,-0.125
1480509519711259,0.1875,-0.375,0.0625
1480509519735323,0,-0.5,0.25
1480509519748859,0.5,-0.25,0.1875
1480509519771420,0.3125,-0.375,-0.125
1480509519795493,0.375,-0.0625,-0.375
1480509519809019,0.3125,-0.375,-0.25
1480509519831581,0.375,0,0
1480509519855642,-0.625,0,0
1480509519868680,-0.875,0.125,-0.0625
1480509519900261,0.5625,0.25,-0.1875
1480509519915302,0.375,-0.0625,-0.25
1480509519928837,-0.625,-1,-0.3125
1480509519951399,1.3125,-1.1875,0.125
1480509519975461,0.625,-0.5625,0
1480509519988997,-0.625,-0.375,0.125
1480509520011557,0.375,-0.3125,0.125
1480509520035120,-0.3125,-0.25,0.25
1480509520049159,0.25,-0.3125,0.25
1480509520071216,-0.25,-0.25,0.125
1480509520094779,-0.0625,-0.3125,-0.25
1480509520108817,1.125,-0.25,-0.1875
1480509520131377,0.4375,-0.3125,-0.1875
1480509520162960,-0.625,-0.375,-0.4375
1480509520168976,-0.125,-0.25,-0.3125
1480509520192037,0.3125,-0.1875,-0.1875
1480509520215601,0.6875,-0.1875,-0.1875
1480509520229136,0.1875,-0.1875,-0.1875
1480509520260218,-0.0625,-0.3125,-0.1875
1480509520273755,0.125,-0.1875,-0.125
1480509520288795,-0.25,-0.3125,0.125
1480509520311355,-0.25,-0.25,0.125
1480509520333915,0.4375,-0.4375,0.1875
1480509520349457,0.625,-0.1875,0.0625
1480509520371515,-0.4375,-0.3125,0.0625
1480509520411120,0.3125,-0.25,-0.1875
1480509520413627,1,-0.5,-0.25
1480509520431675,0.25,-0.625,-0.0625
1480509520453736,-0.9375,-0.875,0.1875
1480509520468774,-0.8125,-0.9375,0
1480509520491334,1,-0.5,-0.0625
1480509520522917,1.1875,-0.3125,-0.4375
1480509520528934,-0.25,-0.6875,-0.3125
1480509520551494,-0.5,-0.875,-0.1875
1480509520574054,-0.125,-0.6875,-0.125
1480509520589093,0.375,-0.5625,-0.125
1480509520611658,0.875,-0.5625,-0.0625
1480509520634214,0.1875,-0.5,-0.1875
1480509520650258,-0.3125,-0.4375,-0.0625
1480509520680336,-0.0625,-0.25,0
1480509520693873,0.375,-0.3125,-0.0625
1480509520717936,0.5625,-0.25,-0.125
1480509520731474,0.125,-0.3125,0
1480509520754032,-0.4375,-0.6875,-0.3125
1480509520779601,-0.0625,-0.3125,-0.25
1480509520791632,0.25,-0.125,-0.1875
1480509520814192,0.125,-0.0625,-0.125
1480509520836753,-0.4375,-0.125,-0.0625
1480509520851291,-0.625,-0.125,0.0625
1480509520873851,0.5,-0.0625,0.0625
1480509520897916,0.0625,-0.25,0
1480509520911451,-0.0625,-0.4375,-0.0625
1480509520937020,0.3125,-0.4375,-0.0625
1480509520966098,0.3125,-0.5,-0.125
1480509520971612,0.0625,-0.3125,0
1480509521002694,0,-0.1875,-0.0625
1480509521018235,0.0625,-0.1875,-0.0625
1480509521031270,0.1875,-0.0625,-0.0625
1480509521062855,0.1875,0,0
1480509521076891,0.125,-0.125,0
1480509521091430,0.375,-0.1875,-0.125
1480509521113990,0.3125,-0.1875,0.0625
1480509521145073,-0.625,0.125,0.0625
1480509521151590,-0.25,-0.0625,0.125
1480509521174151,0.25,-0.0625,-0.125
1480509521196217,0.6875,-0.125,-0.25
