timestamp,x,y,z
1480617529995966,-4.25,-0.125,0.4375
1480617530011508,-4.0625,-0.25,0.375
1480617530025044,-1.0625,0.1875,0.5625
1480617530043092,1.3125,0.625,0.5625
1480617530064148,1.625,-0.375,0.125
1480617530086708,2.25,-1.4375,-0.25
1480617530103252,2.125,-1.9375,-0.6875
1480617530124809,0.1875,-2.3125,-0.4375
1480617530144865,-1.125,-1.875,-0.3125
1480617530163412,-0.6875,-1.1875,-0.3125
1480617530183966,1.3125,-2.1875,0.125
1480617530215550,0.6875,-5.1875,0
1480617530223070,0.1875,-6.4375,-0.9375
1480617530245631,1.0625,-6.0625,-2.0625
1480617530269194,2.8125,-4.9375,-2.4375
1480617530290249,4.75,-4.125,-1.6875
1480617530305290,5.4375,-3.5,-0.6875
1480617530324842,4.1875,-3.1875,-0.4375
1480617530342890,4.0625,-1.8125,-1.1875
1480617530365450,4.75,-1,-1.3125
1480617530385001,3.6875,-1.4375,-0.9375
1480617530403554,0.9375,-2.5,-0.125
1480617530431625,-1.4375,-3.5,0.6875
1480617530445161,-1.875,-4.375,0.6875
1480617530462709,-1.875,-6.4375,0.4375
1480617530487273,-4.8125,-10.3125,1.0625
1480617530507828,-13.625,-16.375,2
1480617530528888,-24,-23.75,1.3125
1480617530545428,-31.6875,-27.3125,0.75
1480617530567989,-24.5625,-21.5,3.0625
1480617530583029,-9.3125,-12.5,8.25
1480617530605588,5.75,0.4375,11.5625
1480617530626645,27.625,9.5625,13.6875
1480617530650708,40.9375,12.3125,8.25
1480617530672767,54.875,12.3125,2.4375
1480617530684801,45.75,13.9375,-1.5625
1480617530710366,25.75,10.4375,-6.1875
1480617530725406,0.75,8.5625,-2.75
1480617530752480,-18.375,6.5625,-1.5
1480617530769023,-24.625,5.8125,-2.375
1480617530790079,-9.125,4.9375,-4.0625
1480617530805119,12.75,3.0625,-5.6875
1480617530835202,15.75,1.5625,-6.4375
1480617530845727,3.125,0.5,-4.75
1480617530866282,-11.375,-0.375,-2.875
1480617530882826,-19.25,-1.6875,-0.5625
1480617530905386,-17.875,-2,0.9375
1480617530933962,-14.9375,-1.125,2.6875
1480617530958026,-14.375,-0.5,6
1480617530966549,-16.9375,-0.9375,8.6875
1480617530986602,-17.1875,-1.8125,9.875
1480617531015178,-17.8125,-3.125,11.1875
1480617531033226,-17.8125,-4.25,9.5625
1480617531046261,-14.8125,-4.25,5.4375
1480617531067317,-7.1875,-6.5,-0.8125
1480617531097397,5.5,-10.75,-8.4375
1480617531122965,13.1875,-12.1875,-12.8125
1480617531127480,5.6875,-11.9375,-14.0625
1480617531145525,-6.5625,-8.5,-12.625
1480617531181119,-12.0625,-2.4375,-10
1480617531187637,-12.25,3.1875,-6.625
1480617531205685,-3.3125,5.875,-3.4375
1480617531227747,5.8125,4.875,-3.6875
1480617531248799,13.3125,3.8125,-5.25
1480617531269859,18.1875,2.625,-5.8125
1480617531289909,17.6875,1.875,-5.5625
1480617531327007,13.1875,1.875,-5.0625
1480617531337535,10.1875,3,-3.8125
1480617531361099,11.0625,4,-2.6875
1480617531367615,11.625,5.5,-2.375
1480617531385664,11.3125,5.75,-2.5
1480617531408224,7.25,5,-2.875
1480617531428778,4.8125,3.875,-2.625
1480617531450335,3.4375,1.625,-1.875
1480617531483925,2.25,0.5625,-1.3125
1480617531488938,1.8125,0.1875,-1.5
1480617531507488,1.25,0,-1
1480617531528043,1,0.125,-1.375
1480617531555616,1.4375,0.625,-1.125
1480617531565642,2.1875,1.3125,-0.625
1480617531595722,2.5,1.8125,-0.25
1480617531607755,0.875,1.8125,-0.75
1480617531632821,-1.3125,1.4375,-1.0625
1480617531647861,-2.8125,1.3125,-1.3125
1480617531670421,-3,1.5625,-1.1875
1480617531687968,-1.8125,1.5,-1.0625
1480617531708021,-0.9375,1.0625,-0.875
1480617531729077,-0.0625,0.875,-0.1875
1480617531753141,0.0625,0.9375,0
1480617531781216,-0.625,1.125,0.25
1480617531796256,-1.4375,1.375,0.5
1480617531805280,-1.8125,1.625,0.4375
1480617531827844,-2.25,1.6875,0.3125
1480617531849397,-2.125,1.625,0.3125
1480617531864437,-2.5,1.4375,0
1480617531894521,-1.875,1.5,-0.3125
1480617531909558,-0.125,1.4375,0.125
1480617531924598,0.4375,0.875,0.375
1480617531954679,0.5,0.75,0.5
1480617531968214,0.4375,1.0625,0.375
1480617531984758,0.6875,1.5,0.0625
1480617532007318,0.1875,1.5625,0
1480617532035893,-0.5625,1.625,-0.375
1480617532044416,-0.375,1.9375,-0.625
1480617532066977,0.0625,1.8125,-0.75
1480617532088032,0.4375,1.25,-0.6875
1480617532104576,0.625,0.75,-0.875
1480617532127138,1.1875,0.9375,-1.0625
1480617532150198,0.1875,1,-1.5625
1480617532164235,-1.875,1.125,-1.0625
1480617532200832,-1.5625,0.625,-0.8125
1480617532209857,-0.5625,0.4375,-0.6875
1480617532232416,-0.4375,0.5,-0.875
1480617532247456,-0.5625,0.75,-1
1480617532269515,-1.3125,1.25,-1.125
1480617532316139,-1.125,1,-1.1875
1480617532320652,-0.625,0.3125,-1.1875
1480617532330677,0.5,-0.1875,-1.3125
1480617532344213,0.6875,-0.375,-1.3125
1480617532368277,0.1875,-0.5625,-0.875
1480617532395851,0.6875,-0.375,-1.0625
1480617532403873,1.125,0.1875,-0.6875
1480617532433452,0.0625,0.4375,-0.5625
1480617532451499,-0.9375,0.3125,-0.8125
1480617532472556,0.25,0.25,-0.4375
1480617532487094,0.6875,0.5625,-0.3125
1480617532509654,0.6875,0.25,-0.4375
1480617532524192,0.6875,0.125,-0.8125
1480617532547254,0.8125,0.25,-1
1480617532577337,1.1875,0.625,-0.75
1480617532592374,1.125,0.6875,-0.4375
1480617532622956,0.375,0.25,-0.75
1480617532629473,0.6875,0.5625,-0.4375
1480617532652033,0.6875,0.6875,-0.25
1480617532667574,0.3125,0.625,-0.3125
1480617532695648,0.25,0.5,-0.5
1480617532710689,0.375,0.375,-0.5
1480617532727234,0.125,0.3125,-0.5625
1480617532757313,0.25,0.6875,-0.4375
1480617532770848,0.5,0.375,-0.25
1480617532787394,0.5,0.75,-0.1875
1480617532809955,-0.4375,0.625,-0.25
1480617532830507,-0.9375,0.25,0
1480617532847052,-0.25,0.0625,0
1480617532869612,-0.0625,-0.3125,0.0625
1480617532890668,0.0625,-0.125,0.25
1480617532914731,-0.625,0.5625,-0.125
1480617532930273,-2.0625,0.625,-0.5625
1480617532950827,-1.875,0.125,-0.3125
1480617532966870,-1.375,-0.5,0.25
1480617532989430,-1.0625,-0.5625,0.8125
1480617533010487,1,-0.75,1.0625
1480617533033046,2.3125,-0.0625,0.5
1480617533049590,1.8125,0.75,-0.5625
1480617533070646,-0.375,1,-1.0625
1480617533087693,-1.5,0.8125,-1
1480617533109752,-1,0.75,-0.125
1480617533139830,0.0625,0.625,0.5
1480617533146347,0.25,0.5,0.375
1480617533169409,0.0625,0.375,0
1480617533199489,0.3125,0.4375,-0.125
1480617533207511,0.5625,0.4375,0
1480617533235585,-0.6875,0.6875,-0.3125
1480617533258647,-1.6875,0.625,-0.5625
1480617533267670,-0.4375,1.5625,-0.3125
1480617533293741,0.5625,2.375,-0.0625
1480617533312288,1.3125,2.375,0.0625
1480617533326329,1.375,2.6875,0.125
1480617533350892,-0.9375,2.0625,0.3125
1480617533371948,-1.75,1,0.8125
1480617533386488,-1.75,0.8125,0.6875
1480617533425089,-1.125,0.875,0.25
1480617533433612,-1.5,0.75,0.3125
1480617533447649,-0.0625,0.8125,0.125
1480617533471212,0.5625,0.875,0.1875
1480617533492268,0.1875,1,-0.125
1480617533506305,-0.6875,1.375,-0.125
1480617533529366,-1.9375,1.75,-0.125
1480617533559952,-3,2,0
1480617533572984,-3.5625,2.1875,0
1480617533589527,-3.75,2.1875,-0.0625
1480617533619608,-3.4375,2.125,0.3125
1480617533633143,-2.375,2.3125,0.75
1480617533649687,-1.5625,2.4375,1.0625
1480617533680769,-1.3125,2.375,1
1480617533693307,-1,2.125,1.0625
1480617533710349,-1.5625,1.5625,1.25
1480617533732407,-1,1.0625,0.8125
1480617533752962,-0.1875,0.875,0.5625
1480617533769506,-0.8125,0.8125,-0.0625
1480617533792066,-1,0.5625,-0.0625
1480617533814626,-0.625,0.5625,0.0625
1480617533830167,-0.375,1,0
1480617533852225,0.25,0.8125,0.1875
1480617533880300,-0.375,0.1875,0.3125
1480617533891329,-0.375,0,0.3125
1480617533912386,-0.125,-0.1875,0.5625
1480617533934444,0.625,-0.25,0.5625
1480617533950488,0.75,-0.875,0
1480617533973548,0.25,-1,-0.625
1480617533995105,0,-0.6875,-1.0625
1480617534017666,1.0625,-0.5,-0.8125
1480617534032706,0.9375,-0.5625,-0.3125
1480617534054765,0.6875,-0.25,-0.4375
1480617534092868,1.1875,0,-0.375
1480617534094871,0.8125,0.0625,-0.4375
1480617534120941,0.25,-0.1875,-0.3125
1480617534129463,0.0625,-0.4375,-0.5
1480617534152023,0.375,-0.5,-0.625
1480617534191628,0.9375,-0.625,-0.5
1480617534203190,0.75,-0.6875,-0.5625
1480617534212213,0.5625,-0.5,-0.6875
1480617534234773,0.4375,-0.3125,-0.5625
1480617534248810,0.25,0.0625,-0.3125
1480617534274880,-0.0625,0.125,-0.4375
1480617534294933,-0.1875,0.5,-0.625
1480617534317996,-0.1875,0.4375,-0.625
1480617534332533,-0.125,0.1875,-0.5625
1480617534371135,0,-0.125,-0.3125
1480617534384170,0.25,-0.1875,-0.25
1480617534392192,0.4375,-0.0625,-0.25
1480617534415253,-0.0625,-0.25,-0.3125
1480617534444831,0.0625,-0.125,-0.4375
1480617534453354,-0.125,-0.0625,-0.5625
1480617534481930,0.0625,0.0625,-0.3125
1480617534488949,-0.1875,-0.0625,-0.3125
1480617534512010,-0.5625,-0.125,-0.25
1480617534536074,-0.4375,-0.1875,-0.3125
1480617534556631,0.125,-0.0625,-0.25
1480617534572171,0.6875,0.125,-0.0625
1480617534594734,0.0625,0.3125,-0.1875
1480617534617793,-0.75,0.5,-0.25
1480617534632331,-0.5625,0.3125,-0.0625
1480617534655392,-0.625,-0.0625,-0.125
1480617534675948,0,-0.3125,-0.125
1480617534691991,0.875,-0.6875,-0.25
1480617534728085,0.75,-0.75,-0.1875
1480617534738613,0.0625,-0.5,-0.4375
1480617534758166,-0.875,-0.625,-0.5625
1480617534774709,-0.625,-0.5,-0.25
1480617534803285,-0.4375,-0.5,-0.0625
1480617534813312,-0.3125,-0.25,0
1480617534843893,0.3125,-0.75,0.25
1480617534857930,1.9375,-0.5625,0.4375
1480617534885503,0.8125,-0.0625,0.125
1480617534894528,-0.0625,-0.125,-0.9375
1480617534923104,-0.625,-0.625,-0.75
1480617534932128,0.5,-1.0625,-0.75
1480617534955190,0.375,-1.4375,-0.625
1480617534975744,0.6875,-1.4375,-0.5
1480617535007328,1.1875,-1.4375,-0.625
1480617535014848,1.4375,-0.9375,-0.8125
1480617535044427,1.125,-0.6875,-1
1480617535051946,0.125,-0.625,-1
1480617535074507,-0.3125,-1.125,-1.25
1480617535098571,-0.1875,-1.375,-1.4375
1480617535125644,0.5,-1.3125,-1.0625
1480617535135168,0.8125,-1.375,-0.9375
1480617535157227,0.6875,-1.1875,-1.125
1480617535171264,0.6875,-1.25,-1.0625
1480617535202849,0.5625,-1.3125,-1
1480617535216885,0.375,-1.25,-1.125
1480617535231424,-0.125,-1.375,-1.1875
1480617535255488,0.1875,-1.1875,-1.1875
1480617535277548,0.4375,-0.9375,-1
1480617535291585,0.5,-0.875,-1
1480617535314646,0.375,-0.9375,-0.875
1480617535337206,0.4375,-0.9375,-0.6875
1480617535351244,0.25,-0.5625,-0.5
1480617535375309,-0.5625,-0.5,-0.0625
1480617535397366,0.5,-0.625,0
1480617535411406,1.0625,-0.8125,-0.5625
1480617535441986,0.4375,-1.1875,-0.875
1480617535457024,0.625,-1.3125,-1
1480617535480086,0,-1.25,-0.9375
1480617535494625,-0.4375,-1.1875,-0.9375
1480617535517184,-0.4375,-1.1875,-1.0625
1480617535545760,-0.1875,-1.0625,-0.6875
1480617535562305,0.125,-1.125,-0.5625
1480617535591884,0.25,-1.0625,-0.4375
1480617535598902,0.375,-1.125,-0.5625
1480617535614444,0.125,-1.0625,-0.5
1480617535637003,0.3125,-1,-0.8125
1480617535658059,0.375,-1.0625,-0.8125
1480617535676609,0.4375,-1,-0.9375
1480617535697163,0.0625,-1,-0.8125
1480617535718219,0.125,-1,-0.625
1480617535735266,-0.125,-1,-0.5625
1480617535758326,-0.25,-1,-0.5
1480617535778380,-0.6875,-1.0625,-0.75
1480617535794422,-0.4375,-1.1875,-0.75
1480617535816982,-0.375,-1.1875,-0.75
1480617535839542,-0.375,-1.3125,-0.8125
1480617535854583,-0.0625,-1.375,-1
1480617535877142,0.625,-1.375,-0.875
1480617535898700,0.75,-1.25,-0.75
1480617535920759,0.1875,-1.125,-0.8125
1480617535944320,-0.1875,-1,-0.9375
1480617535959864,-0.25,-0.9375,-0.9375
1480617535973900,-0.1875,-1.0625,-0.9375
1480617536005484,-0.125,-1,-0.9375
1480617536019521,-0.25,-1.0625,-1
1480617536034561,-0.5625,-1.0625,-1
1480617536057627,-0.375,-0.875,-0.9375
1480617536080183,0.0625,-0.625,-0.75
1480617536094221,0.4375,-0.4375,-0.375
1480617536117782,-0.3125,-0.625,-0.4375
1480617536139339,0.125,-0.5,-0.9375
1480617536153880,0.125,-0.75,-1.25
1480617536176939,0.0625,-1,-1.125
1480617536207521,0.125,-1.0625,-0.9375
1480617536237600,0.0625,-0.9375,-0.625
1480617536241110,-0.0625,-0.875,-0.75
1480617536259665,-0.1875,-0.625,-0.6875
1480617536282220,-0.3125,-0.4375,-0.5625
1480617536310796,0.1875,-0.25,-0.375
1480617536319821,0,-0.25,-0.3125
1480617536333857,-0.3125,-0.1875,-0.5625
1480617536356918,0.625,0,-0.9375
1480617536379980,0.8125,-0.25,-0.875
1480617536400534,1.1875,-0.4375,-0.5
1480617536423095,0.9375,-0.375,-0.0625
1480617536441142,0.375,-0.25,-0.0625
1480617536461697,-1.25,-0.125,-0.3125
1480617536477740,-1.6875,0,-0.3125
1480617536500801,-1.1875,0.125,-0.1875
1480617536520854,-0.6875,0.0625,-0.0625
1480617536543414,0,0.0625,0
1480617536559958,0.6875,0.125,0.0625
1480617536590541,0.375,0.375,0.0625
1480617536597057,0.3125,0.5625,0.3125
1480617536619618,-0.125,0.625,0.3125
1480617536640674,-1.3125,0.5,0.1875
1480617536670754,-1.75,0.4375,0.125
1480617536680279,-2,0.5,-0.1875
1480617536700833,-1.5,0.75,-0.1875
1480617536716876,-0.5,1.3125,0.0625
1480617536739436,0.4375,1.9375,0.5625
1480617536760492,-0.875,2.3125,1.0625
1480617536777036,-1.125,2.625,0.875
1480617536799596,-1,2.8125,0.625
1480617536821153,-0.625,2.5625,0.5625
1480617536837196,-1.25,2.0625,0.5
1480617536867277,-2.1875,1.25,0.1875
1480617536880813,-2.25,0.5,-0.25
1480617536896855,-0.75,-0.1875,-0.1875
1480617536919415,0.5625,-0.3125,-0.0625
1480617536942478,1.0625,-0.1875,0
1480617536957015,1.5,0.1875,-0.0625
1480617536980578,0.75,0.1875,0
1480617537010156,-0.125,0.125,-0.3125
1480617537018680,-0.5,-0.125,-0.5625
1480617537047255,-0.6875,-0.4375,-0.375
1480617537063297,-0.3125,-0.5625,-0.375
1480617537076332,0.375,-0.4375,-0.1875
1480617537099394,0.375,-0.375,-0.25
1480617537122455,-0.125,-0.3125,-0.3125
1480617537153037,-0.5,-0.375,-0.5625
1480617537161559,0.25,-0.25,-0.5625
1480617537182114,0.8125,-0.5,-0.4375
1480617537196653,0.8125,-0.875,-0.75
1480617537225733,1.5,-1.4375,-0.9375
1480617537242276,1.75,-1.6875,-0.9375
1480617537256311,0.9375,-1.4375,-0.625
1480617537281378,0.3125,-1.1875,-0.4375
1480617537339534,0.6875,-0.9375,-0.4375
1480617537348556,0.6875,-1,-0.625
1480617537352567,1.1875,-1.125,-0.6875
1480617537362093,2.5,-0.75,-0.5625
1480617537390670,0.9375,-0.5625,-0.0625
1480617537400695,-1,-0.625,-0.25
1480617537422754,0.125,-0.875,-0.6875
1480617537452332,0.3125,-1.375,-1
1480617537460855,0.25,-1.6875,-0.875
1480617537481911,-0.5625,-1.875,-0.8125
1480617537502967,-2.125,-2.0625,-0.5625
1480617537519512,0,-2.1875,-1
1480617537542074,-1.25,-2.1875,-1.0625
1480617537563127,-2,-2,-0.8125
1480617537586691,0.5625,-1.75,-0.4375
1480617537602232,-1,-1.4375,-0.4375
1480617537623789,-1,-1.0625,-0.0625
1480617537639831,-1.9375,-0.625,0.125
1480617537662393,-2.0625,-0.9375,-0.4375
1480617537699991,-0.625,-1,-0.0625
1480617537705004,-0.375,-0.6875,0.1875
1480617537722050,-0.6875,-0.3125,0.4375
1480617537744610,-1.75,0.0625,0.3125
1480617537760151,-0.625,-0.5625,0.125
1480617537789730,-1.0625,-0.5625,-0.375
1480617537810786,-2,-0.9375,-0.75
1480617537819811,-0.75,-1.25,-0.75
1480617537842373,0.3125,-1.25,-0.5
1480617537864429,-0.5,-1.1875,-0.1875
1480617537879469,0.375,-0.9375,-0.3125
1480617537902029,-0.75,-1.1875,-0.3125
1480617537924589,-1.3125,-1.5,-0.0625
1480617537939629,-0.875,-1,-0.375
1480617537978733,-2.0625,-0.9375,-0.5625
1480617537986252,-1.3125,-0.5,0.125
1480617538005806,-0.5625,-0.375,0.1875
1480617538022349,-1.5625,-0.5625,0.125
1480617538051928,-1.1875,-0.5,-0.4375
1480617538067970,-0.5625,-0.8125,-0.3125
1480617538082008,0.6875,-0.5625,-0.25
1480617538104568,0.5,-0.6875,-0.375
1480617538119106,-0.375,-0.9375,-0.5
1480617538142168,-1.5,-0.125,-0.125
1480617538180771,0.1875,0.0625,-0.5
1480617538185784,0.3125,0.0625,-0.375
1480617538201827,-0.1875,0.0625,-0.375
1480617538225390,0.6875,0.5625,0
1480617538253965,0.8125,0.0625,0.375
1480617538261986,1.0625,-0.125,0.25
1480617538305604,0.0625,0.4375,0.125
1480617538316632,0.25,0.25,0
1480617538328163,0.8125,0,-0.125
1480617538344707,-1.1875,0.3125,0.6875
1480617538373784,1,0.4375,0.5
1480617538382317,0.5,0.375,0.375
1480617538404868,0,0.5,0
1480617538425529,-2.0625,0.5,-0.25
1480617538466136,-0.5,0.4375,-0.0625
1480617538470649,-0.0625,0.125,0
1480617538485688,0.9375,0.1875,0.1875
1480617538501731,2.1875,0.5625,0.1875
1480617538532814,1.1875,0.9375,0.0625
1480617538545848,0.8125,0.75,-0.25
1480617538563896,1.125,0.625,0.0625
1480617538585955,0.9375,0.3125,-0.125
1480617538607011,-0.125,0.375,0.125
1480617538622051,0.25,0.75,0
1480617538652137,0.625,0.8125,0.1875
1480617538673187,0.1875,0.8125,0.1875
1480617538682212,0.125,0.75,0.0625
1480617538704772,0.0625,0.3125,0.25
1480617538733347,1.0625,0.4375,-0.125
1480617538742373,1.875,0.1875,-0.125
1480617538764430,1.25,0,-0.25
1480617538786990,0.9375,0.6875,-0.3125
1480617538817070,-0.0625,0.9375,-0.375
1480617538824590,-1.1875,1.0625,-0.3125
1480617538848654,-1.3125,0.75,-0.1875
1480617538861689,0.625,0.6875,-0.125
1480617538885252,0.1875,0.5625,0
1480617538908815,-0.0625,0.5,-0.0625
1480617538923353,0.4375,0.8125,0
1480617538944409,0.875,0.75,-0.125
1480617538966968,-0.6875,0.5,-0.3125
1480617538983011,-0.9375,0.6875,-0.125
1480617539012590,0.25,0.625,-0.3125
1480617539028131,1.1875,0.5625,-0.1875
1480617539041670,-1.0625,0.6875,-0.25
1480617539064728,-3.4375,0.875,-0.5
1480617539087791,0.6875,-0.5,1.0625
1480617539115864,1.125,0.75,-0.3125
1480617539125891,1.8125,1.3125,-0.375
1480617539147950,-0.5625,0.25,-0.625
1480617539171512,-1.3125,-0.5,-0.1875
1480617539184548,1.8125,0.4375,-0.5
1480617539216131,0,0.5625,-0.1875
1480617539228164,-0.75,0.125,-0.4375
1480617539253231,-1.25,0.375,-0.25
1480617539267769,0,0.0625,0.4375
1480617539289828,0.4375,-0.125,-0.25
1480617539310884,1.125,0.375,-0.4375
1480617539341465,0.8125,0.5,-0.5625
1480617539350489,-2,0.5,-0.25
1480617539364526,0.3125,0.5,-0.625
1480617539393102,0.5625,0.3125,-0.125
1480617539408146,1.5,-0.4375,-0.4375
1480617539424686,0.375,-0.25,-0.5
1480617539447246,-0.25,-0.25,-1.0625
1480617539483843,-0.5,-0.25,-0.6875
1480617539493374,0,0.3125,-0.3125
1480617539514425,0.4375,0.3125,-0.0625
1480617539529465,-0.3125,0.1875,-0.0625
1480617539544506,0.875,0.3125,-0.4375
1480617539567567,1.0625,0.3125,-0.75
1480617539614692,0.9375,0.3125,-0.8125
1480617539622213,0.625,0.3125,-1
1480617539641766,-0.3125,0.125,-1
1480617539650287,0.625,-0.25,-1.3125
1480617539671342,1.3125,-0.375,-1
1480617539686884,1.0625,-0.3125,-0.875
1480617539708444,0.1875,-0.3125,-0.8125
1480617539725487,-0.875,-0.125,-0.8125
1480617539747044,0.1875,-0.25,-0.5625
1480617539786148,-0.75,-0.3125,-0.5
1480617539790669,-0.375,0,-0.875
1480617539807204,0.6875,-0.3125,-0.5
1480617539845305,0.875,-0.75,-0.375
1480617539847311,-0.8125,0,-0.9375
1480617539872878,0.875,-0.3125,-0.4375
1480617539890927,-0.0625,-0.8125,-0.6875
1480617539919503,-0.875,-0.5,-0.75
1480617539927524,0.625,-0.4375,-0.875
1480617539949583,1.25,-0.5625,-0.3125
1480617539964122,2.4375,-0.4375,-0.3125
1480617539987183,2.625,-0.4375,-0.375
1480617540009743,0.875,-0.375,-0.6875
1480617540032302,0.625,-0.0625,-0.6875
1480617540053359,-0.4375,0.125,0
1480617540083940,0.375,0,-0.4375
1480617540092464,1.0625,-0.125,0
1480617540131567,1.25,-0.0625,-0.375
1480617540136079,1.625,-0.25,-0.5625
1480617540144100,1.125,-0.3125,-0.4375
1480617540174683,0.375,-0.0625,-0.25
1480617540197745,-0.75,-0.125,-0.25
1480617540205764,0.0625,-0.0625,-0.4375
1480617540227823,0.625,0.1875,-0.125
1480617540257903,0.625,0.5,0.0625
1480617540270436,-0.5,0.25,0.0625
1480617540286980,0.875,0.1875,-0.4375
1480617540310042,0.875,-0.375,-0.5625
1480617540330597,0.6875,-0.6875,-0.8125
1480617540355163,-0.125,-0.375,-0.125
1480617540369700,0.125,-0.1875,0
1480617540398276,0,-0.0625,-0.5
1480617540413317,-1.125,-0.0625,-0.4375
1480617540429359,-0.0625,0,-0.5
1480617540450415,0.4375,-0.375,-0.4375
1480617540476485,0.375,-0.375,-0.5625
1480617540489519,0.5,-0.4375,-0.8125
1480617540510576,0.5625,-0.25,-0.8125
1480617540527119,0.3125,-0.5625,-0.9375
1480617540557201,0.125,-0.6875,-1
1480617540571236,0.125,-0.625,-0.8125
1480617540594799,0.0625,-0.5,-0.625
1480617540609338,0.375,-0.4375,-0.375
1480617540630394,0.4375,-0.3125,-0.625
1480617540646943,0,-0.375,-0.625
1480617540679025,-0.8125,-0.3125,-0.5625
1480617540692559,-0.4375,-0.375,-0.4375
1480617540707600,1,-0.6875,-0.4375
1480617540730160,0.5,-0.25,-0.4375
1480617540760239,0.375,0.625,-0.125
1480617540767258,-1.5,1.3125,0.625
1480617540789819,-0.375,0.1875,-0.0625
1480617540812379,-0.5625,-0.1875,-0.3125
1480617540826917,0.375,-0.4375,-0.625
1480617540864517,0.1875,-0.6875,-0.75
1480617540872538,-0.4375,-1.3125,-0.875
1480617540894597,0.3125,-1,-0.9375
1480617540909637,0.9375,-0.8125,-0.625
1480617540932197,1.3125,-0.75,-0.5
1480617540955760,1.3125,-2.125,-0.5625
1480617540969797,1.875,-3.125,-0.4375
1480617540992357,2.8125,-2.375,-0.3125
1480617541009402,1.625,-1.375,-0.4375
1480617541038982,-0.8125,-0.25,-1.125
1480617541058535,2.1875,0.75,-1.75
1480617541073071,-2.8125,0.25,-1.375
1480617541089617,-1.125,-0.1875,-1.5
1480617541112676,-0.25,-0.1875,-0.5625
1480617541135237,0.75,-0.875,-0.625
1480617541150277,0.3125,-0.3125,-0.3125
1480617541172838,1.125,-0.4375,-0.1875
1480617541194896,0.9375,-0.5,-0.25
1480617541233499,0.6875,-0.4375,-0.8125
1480617541238010,0.5,-0.5,-0.875
1480617541256058,1.125,-0.3125,-0.5625
1480617541269595,0.6875,-0.375,-0.0625
1480617541315717,-0.0625,-0.0625,-0.25
1480617541321232,-0.375,-0.8125,-0.25
1480617541333265,0,-0.9375,-0.625
1480617541352315,-0.4375,-1.5625,-0.3125
1480617541372869,3.125,-1.8125,0
1480617541389414,3.4375,-0.4375,0
1480617541412975,0.875,0.5625,-0.625
1480617541433029,-1.5,0.6875,-0.75
1480617541449573,-1.75,0.125,-0.6875
1480617541472134,-1.3125,-0.1875,-0.25
1480617541510736,-0.6875,-0.1875,-0.1875
1480617541517253,1,-0.125,0.125
1480617541532293,1.75,0.375,0
1480617541556358,1.125,0.625,-0.375
1480617541569392,-0.0625,0.375,-0.75
1480617541597968,-0.9375,0,-0.5
1480617541622032,-1.6875,-0.4375,-0.5
1480617541629553,-1.25,-0.5625,-0.5
1480617541659131,0.1875,0.0625,-0.25
1480617541676176,1.0625,0.1875,-0.25
1480617541690217,0.75,0.1875,-0.25
1480617541712273,-0.125,0.125,0.3125
1480617541749873,0.8125,-0.125,0.0625
1480617541756891,0.1875,0.125,-0.1875
1480617541786471,-0.0625,0.25,-0.5
1480617541797000,-0.3125,0,-0.5
1480617541815547,0.8125,-0.25,-0.125
1480617541832091,-0.6875,-0.3125,-0.0625
1480617541860667,0.0625,-0.4375,-0.4375
1480617541868688,-0.1875,0.1875,-0.0625
1480617541893257,0.375,0.0625,-0.125
1480617541914309,0.8125,0.0625,-0.375
1480617541928848,0.125,-0.1875,-0.625
1480617541965446,-0.3125,-0.25,-0.375
1480617541974974,-0.5625,-0.375,-0.3125
1480617541990512,-0.8125,-0.3125,-0.375
1480617542013573,-0.4375,-0.25,-0.375
1480617542034630,0,-0.1875,-0.4375
1480617542063206,0.1875,-0.125,-0.3125
1480617542072229,0.375,-0.25,-0.125
1480617542094790,0.5625,-0.0625,-0.1875
1480617542108827,-0.0625,0,-0.125
1480617542131889,-0.4375,0.125,-0.25
1480617542154449,-0.625,0.3125,-0.3125
1480617542175504,-0.25,0.125,-0.4375
1480617542192550,-0.125,0.3125,-0.125
1480617542215610,0.25,0.1875,-0.125
1480617542235664,-0.9375,0.75,0.1875
1480617542252710,-0.0625,0.6875,0.3125
1480617542275270,1.125,0.25,0.125
1480617542296325,0.875,-0.125,-0.5
1480617542311867,0.4375,-0.25,-0.6875
1480617542342449,0.125,-0.375,-0.6875
1480617542363003,-0.6875,-0.6875,-0.375
1480617542372528,-0.4375,-0.4375,-0.4375
1480617542394588,0.1875,-0.0625,-0.25
1480617542417147,0.1875,0.25,0.125
1480617542432187,0.625,0.0625,-0.125
1480617542455749,0.1875,0.5,0.375
1480617542483324,-0.125,0.1875,0.375
1480617542492347,0.4375,-0.0625,0
1480617542514406,0.75,-0.1875,-0.375
1480617542535462,0.125,-0.375,-0.5625
1480617542559526,0.0625,-0.4375,-0.25
1480617542582587,0.75,-0.625,-0.25
1480617542611165,0,-0.375,-0.1875
1480617542628710,-1.125,-0.375,-0.1875
1480617542642246,-0.875,-1.125,-0.375
1480617542657286,-2.375,-2.1875,-0.5
1480617542672328,-4.5625,-4.1875,-0.9375
1480617542694886,-6.75,-4.25,-1.0625
1480617542723966,-6.3125,-3.5,-0.8125
1480617542740508,-7.0625,-2.8125,-0.375
1480617542755046,-5.3125,-1.875,-0.1875
1480617542777105,-3.25,-1,0
1480617542791644,-0.9375,-0.5,-0.1875
1480617542814705,1.875,-1.0625,-0.3125
1480617542837264,1.1875,-1.0625,-0.4375
1480617542851804,2.125,0.0625,0.25
1480617542898428,0.6875,0.5625,0.0625
1480617542903441,-2.5,0.9375,-0.625
1480617542913970,-2.1875,0.125,-1
1480617542934524,-2.0625,-1.4375,-0.875
1480617542972123,-1.375,-1.6875,-0.125
1480617542974631,0.25,-1.25,-0.0625
1480617542994684,0.25,-0.375,-0.0625
1480617543024767,0.375,0.5625,0
1480617543038302,0.625,-0.1875,-0.875
1480617543056348,-2.5,-1.25,-0.75
1480617543077905,0.625,-1.375,-0.4375
1480617543097958,0.3125,-1.125,-0.125
1480617543114502,-2.125,-0.375,-0.1875
1480617543138568,-0.125,0.125,-0.4375
1480617543158620,-0.25,-0.375,-0.125
1480617543176668,-0.6875,-0.375,-0.375
1480617543197223,0.25,-0.125,-0.3125
1480617543220786,0.375,0.125,-0.0625
1480617543248358,0.5625,-0.0625,-0.125
1480617543256883,0.75,-0.25,-0.75
1480617543277937,-0.1875,-0.1875,-0.5
1480617543294481,1.1875,-0.1875,-0.1875
1480617543324563,-0.1875,-0.125,-0.0625
1480617543338097,0.25,-0.0625,-0.3125
1480617543354643,-0.125,-0.125,-0.5625
1480617543391238,0.375,0.125,-0.6875
1480617543398258,0.9375,-0.25,-0.5
1480617543414801,1.125,-0.375,-0.5625
1480617543444380,1.5625,-0.5,-0.6875
1480617543458418,0,-1,-0.875
1480617543474460,-0.4375,-0.625,-0.8125
1480617543497020,-0.4375,-0.625,-0.5625
1480617543525596,-0.625,-0.3125,-0.625
1480617543536128,-0.4375,0,-0.25
1480617543557181,-0.5625,-0.0625,-0.25
1480617543579740,-1,-0.1875,-0.25
1480617543594780,2.125,-0.25,-0.5
1480617543616839,0.25,-0.3125,-0.3125
1480617543639399,0.4375,0,-0.25
1480617543661959,0.0625,-0.0625,-0.625
1480617543683015,-0.3125,-0.1875,-0.5
1480617543701063,0.5,0.125,-0.375
1480617543722119,1.25,0.375,0.125
1480617543737160,0.125,0.25,0.1875
1480617543767239,-0.5,0.0625,0
1480617543773757,0.5,0.0625,-0.3125
1480617543804839,0.75,-0.1875,-0.5625
1480617543820883,1.5625,-0.25,-0.375
1480617543833917,-0.5,0.0625,-0.25
1480617543856979,-0.0625,0.3125,-0.625
1480617543879538,0.4375,0.125,-0.125
1480617543900594,1.375,0.0625,0.0625
1480617543925159,-1.125,-0.1875,-0.1875
1480617543947218,0.625,0.25,-0.25
1480617543954738,1.0625,0.4375,0.0625
1480617543977298,0.1875,0.25,-0.125
1480617544014397,0.5,0.0625,0
1480617544023926,0.375,0.0625,-0.125
1480617544036956,0.9375,0.125,-0.1875
1480617544059517,0.75,0.5,0
1480617544083080,0.75,0.75,0.125
1480617544097117,0.5,0.625,0.1875
1480617544120681,1.4375,0.625,-0.0625
1480617544140733,0.6875,0.5,0.0625
1480617544164797,0.1875,0.3125,-0.25
1480617544186856,0.4375,0,-0.1875
1480617544200894,1.6875,-0.0625,-0.8125
1480617544218440,-2.1875,0,-0.5
1480617544239997,-0.3125,-0.9375,-0.0625
1480617544260551,0.875,-0.8125,0.0625
1480617544279603,1.4375,-0.375,-0.25
1480617544299655,1.1875,-0.25,-0.625
1480617544328232,0.4375,-1,-0.4375
1480617544337256,-1.625,-0.875,-0.75
1480617544368339,-0.8125,-0.875,-0.3125
1480617544381875,-0.625,-0.875,-0.4375
1480617544396914,0.0625,-0.4375,-0.4375
1480617544419475,0.125,-0.5625,-0.5
1480617544442034,1.125,0.1875,0
1480617544457074,-0.5625,0.5625,0.0625
1480617544479634,-0.0625,0.1875,-0.375
1480617544502195,1.125,0.125,-0.375
1480617544517234,1.5,-0.125,-0.25
1480617544539796,1.6875,-0.0625,-0.25
1480617544561853,0.6875,-0.5,-0.4375
1480617544576893,0.625,-0.625,-0.625
1480617544605468,0.125,-0.3125,0
1480617544622013,0.25,-0.3125,-0.4375
1480617544638056,0.625,0.0625,0.0625
1480617544659616,1.25,0.25,-0.125
1480617544665128,0.625,0.25,-0.25
1480617544687688,0.8125,-0.125,-0.375
1480617544703730,0.375,-0.0625,-0.375
1480617544724787,0.25,-0.0625,-0.4375
1480617544752360,0.875,-0.125,-0.3125
1480617544763890,0.9375,0.25,-0.3125
1480617544784947,1.6875,0.3125,-0.25
1480617544807507,1,0.8125,-0.3125
1480617544840095,-0.9375,0.375,0.125
1480617544845106,-1.4375,0.0625,-0.3125
1480617544867667,-0.0625,-0.3125,-0.0625
1480617544884712,0.4375,-0.375,-0.5625
1480617544912285,0.4375,-0.4375,-0.4375
1480617544927325,-0.0625,-0.25,-0.1875
1480617544943870,1.1875,-0.375,-0.4375
1480617544964927,-0.25,-0.1875,-0.25
1480617544990496,-0.0625,-0.3125,-0.5
1480617545007040,0.0625,-0.125,-0.5625
1480617545035113,0.3125,-0.125,-0.625
1480617545047646,1,0.0625,-0.75
1480617545063688,0.4375,0.375,-0.75
1480617545092263,-0.4375,0.375,-0.5625
1480617545115827,0,0.0625,-0.5
1480617545123850,1.1875,0.5,-0.3125
1480617545147913,1.1875,0.5625,0
1480617545167466,-1.25,0.25,0.0625
1480617545195539,-0.625,0.5625,0
1480617545205064,1.1875,0.0625,-0.4375
1480617545228126,1.5,-0.4375,-0.25
1480617545251689,-1.0625,-0.6875,-0.5625
1480617545281267,-3.1875,0.4375,-0.9375
1480617545287283,1.9375,0.125,-0.1875
1480617545309842,-0.5625,-1.4375,0.0625
1480617545324883,2.0625,-1,0.125
1480617545355465,2.25,0.125,-0.4375
1480617545371507,-1.25,0.3125,-0.75
1480617545394068,-2.4375,-0.25,-0.875
1480617545407604,-1.0625,-1.125,-0.75
1480617545431667,0.625,-0.8125,-0.1875
1480617545469268,1.5,-0.9375,-0.25
1480617545474281,1.0625,-0.6875,-0.5625
1480617545489822,0.8125,-0.4375,-0.625
1480617545520904,1.0625,-0.4375,-0.5
1480617545530429,0,-0.4375,-0.1875
1480617545558505,-0.5,0,-0.5625
1480617545581064,-1.125,0.0625,-0.5
1480617545587582,-0.8125,0.125,-0.5625
1480617545610142,0.5625,-0.5,-0.25
1480617545624688,-0.625,-0.9375,-0.25
1480617545647240,-0.25,-0.75,0
1480617545672809,0,-0.5,-0.375
1480617545684841,0.0625,-0.1875,-0.25
1480617545707405,-0.125,-0.5625,-0.1875
1480617545729961,0,-0.4375,-0.125
1480617545748008,-0.875,-0.3125,-0.5
1480617545767561,-1.25,-0.3125,-0.4375
1480617545790122,-0.1875,-0.3125,-0.1875
1480617545805160,0.3125,-0.5,0.125
1480617545852286,-0.125,-0.0625,0.1875
1480617545858803,-0.125,0.4375,0.1875
1480617545864819,-0.3125,0.25,0.1875
1480617545887380,-0.5,0,-0.0625
1480617545909940,-0.4375,-0.4375,-0.4375
1480617545925481,0.75,-0.375,-0.5
1480617545953054,0.375,-0.625,-0.5
1480617545970100,-0.5,-0.6875,-0.125
1480617545995667,-0.125,-0.4375,-0.0625
1480617546024745,-0.625,-0.25,0.0625
1480617546032766,-0.5,-0.125,-0.125
1480617546054825,-0.25,-0.1875,-0.25
1480617546067361,0,-0.3125,-0.125
1480617546089920,-0.5,-0.5625,-0.1875
1480617546106463,-0.0625,-0.25,0.0625
1480617546127518,0.875,-0.1875,0
1480617546150079,-0.3125,-0.375,-0.1875
1480617546166622,-0.5,-0.25,-0.0625
1480617546188681,0.0625,0,0
1480617546226782,-0.1875,0.125,0.125
1480617546229290,-0.9375,0.3125,0.375
1480617546247337,-1.0625,0.375,0.125
1480617546270900,-0.6875,0.1875,0
1480617546286441,-0.5,-0.125,-0.125
1480617546307497,0,-0.125,-0.1875
1480617546331561,0.0625,0,-0.1875
1480617546346602,0.125,-0.125,-0.0625
1480617546367658,0.25,-0.0625,0.0625
1480617546389717,0.1875,0.1875,0.0625
1480617546407764,-0.25,0.0625,-0.0625
1480617546428318,-0.875,-0.125,-0.0625
1480617546449876,-0.5625,0,0
1480617546481460,0,0.3125,-0.0625
1480617546503518,-0.375,0.25,-0.375
1480617546510036,0,0,-0.375
1480617546528084,-0.0625,-0.125,-0.125
1480617546547636,-0.0625,0.4375,0.5625
1480617546583231,-1.5,1.125,1.125
1480617546588745,-1.75,0.875,0.6875
1480617546607797,-1.0625,0.625,0.1875
1480617546631358,1.3125,-0.125,0.125
1480617546647903,-0.125,-0.375,0.375
1480617546667455,-1.25,0,0.5625
1480617546690015,-1.125,0.5625,0.25
1480617546708564,0.375,0.0625,0.125
1480617546727614,-0.3125,-0.25,0.125
1480617546750174,-0.25,-0.25,-0.0625
1480617546781258,-0.0625,0,-0.125
1480617546794794,-3.625,0.375,0.875
1480617546809834,1.375,-0.375,0.375
1480617546827882,1.0625,-0.5625,0.0625
1480617546863978,0.1875,-0.5,-0.3125
1480617546869993,0.125,-0.0625,-0.4375
1480617546888543,-0.3125,0.1875,0.0625
1480617546907596,0.75,0.0625,0.1875
1480617546930154,-0.25,-0.25,0.1875
1480617546961236,-0.375,0.0625,-0.125
1480617546974772,-0.625,-0.0625,-0.5
1480617547000340,-1.25,-0.375,-0.3125
1480617547012374,0.6875,-0.4375,-0.25
1480617547028916,1.0625,-0.25,0.1875
1480617547051476,-0.0625,0.5,0.25
1480617547080052,0.1875,0.5,-0.0625
1480617547091081,-0.125,0.25,-0.3125
1480617547110133,-0.875,-0.0625,-0.125
1480617547135700,-0.9375,-0.1875,-0.1875
1480617547149237,-0.875,0.0625,0.1875
1480617547169790,-0.375,0,-0.0625
1480617547193855,-0.0625,-0.3125,-0.25
1480617547210901,-0.125,-0.625,-0.0625
1480617547237471,0.4375,-0.4375,-0.0625
1480617547255018,0.6875,0.1875,0.25
1480617547276575,-0.0625,0.375,0.25
1480617547290111,-0.5625,0.1875,0.125
1480617547330218,-0.375,0.0625,0.1875
1480617547335732,-0.0625,0,0.25
1480617547349770,0.25,-0.5,0.125
1480617547379849,-0.375,-0.75,-0.0625
1480617547410934,0.125,-0.4375,-0.125
1480617547418954,0,0.0625,0.25
1480617547440013,0.375,0.3125,0.3125
1480617547450538,-0.5,-0.0625,0.375
1480617547479114,-0.3125,0.25,0.25
1480617547492650,-0.1875,0.125,0.375
1480617547510197,-0.5,-0.0625,0
1480617547529750,0.375,-0.125,-0.125
1480617547552309,1.1875,-0.25,0
1480617547583893,0.125,0.0625,0.375
1480617547589909,0,-0.0625,0.1875
1480617547612469,-0.25,-0.0625,0.5625
1480617547636533,0.125,-0.375,0.125
1480617547650069,-1.0625,0,0.25
1480617547689674,-0.875,-0.0625,0.0625
1480617547691680,-0.8125,-0.1875,0.1875
1480617547709729,-1.1875,-0.125,0.3125
1480617547732289,-1.5,-0.1875,0.125
1480617547750336,0.0625,-0.5,-0.125
1480617547769888,0.6875,-0.4375,0
1480617547792949,0.25,-0.5625,-0.1875
1480617547810496,-0.5625,-0.25,-0.25
1480617547830048,-1.125,-0.3125,0.125
1480617547854613,-0.375,-0.625,0.125
1480617547876671,-0.5,-0.5625,-0.1875
1480617547889707,-0.5625,-0.4375,-0.1875
1480617547913770,-0.625,-0.125,0.125
1480617547930315,0,-0.375,0.3125
1480617547958890,0.5,-0.4375,0.0625
1480617547980449,-0.5,-0.0625,0.25
1480617547990478,0.375,-0.0625,0.3125
1480617548012032,-0.6875,-0.1875,0.4375
1480617548034091,-1.1875,-0.3125,0.3125
1480617548055147,-0.25,-0.375,0.375
1480617548071691,0.75,-0.75,0.25
1480617548092245,-1.8125,-0.875,0.6875
1480617548125835,-0.9375,-1,0.25
1480617548131349,0.0625,-0.8125,0.125
1480617548152405,-0.8125,-0.9375,0.4375
1480617548170955,-0.375,-0.5,0.4375
1480617548199531,0.0625,0,0.1875
1480617548212565,-1.4375,-0.75,0.875
1480617548235125,-0.1875,-0.0625,1.1875
1480617548251169,-0.375,0.9375,0.5625
1480617548282250,-2.9375,0.5625,0.125
1480617548306315,-0.0625,0.125,-0.25
1480617548312832,1.1875,-0.0625,-0.6875
1480617548332384,-1.5,-0.125,-0.9375
1480617548357952,-3.5,-1.1875,-0.375
1480617548372993,-2.8125,-1.0625,-0.3125
1480617548392544,-3.375,-0.6875,-0.5
1480617548410592,-2.875,-0.5625,-0.3125
1480617548446149,-1.9375,-0.3125,-0.125
1480617548469712,-2.125,-0.875,0.3125
1480617548471717,-0.5625,-1.0625,0.4375
1480617548494277,-1.0625,-0.4375,0.3125
1480617548513829,-0.8125,0.0625,0.375
1480617548534885,0.5,0.5,-0.4375
1480617548554938,-3.125,0.4375,-0.5625
1480617548572485,-5,-0.375,-0.125
1480617548595045,-2.625,-0.3125,0.3125
1480617548613092,-2.625,-0.375,0.5
1480617548640169,-1.4375,-0.25,0.25
1480617548654705,0.0625,-0.25,-0.5
1480617548672752,1.625,-0.25,-0.5625
1480617548692303,0.25,0.5,-0.4375
1480617548715866,0,0.5625,0.1875
1480617548732911,-0.8125,0.8125,0.125
1480617548752464,-2.4375,0.5,-0.0625
1480617548776528,-1.1875,0.6875,0.125
1480617548801093,-1.6875,-0.0625,-0.3125
1480617548820144,-1.1875,-1.3125,-0.625
1480617548835184,-2.125,-1.5625,-0.6875
1480617548854738,-3.75,-1,-0.5
1480617548872283,-3.875,-0.6875,-0.3125
1480617548894843,-4.625,-0.4375,-0.75
1480617548912890,-3.6875,-0.5625,-0.875
1480617548942469,2.9375,-1,-0.75
1480617548964026,2.875,-0.4375,-0.3125
1480617548973055,2.125,0.6875,-0.125
1480617548994106,1.3125,0.6875,-0.625
1480617549017670,0.375,-0.0625,-1.0625
1480617549032709,-2.25,-0.8125,-0.375
1480617549053765,-1,-1.5625,0.3125
1480617549074821,-1.5625,-1.0625,0.75
1480617549106912,-1.25,-0.1875,0.4375
1480617549119943,-2.6875,1.0625,0.625
1480617549137991,-2.1875,0.625,0.8125
1480617549153029,-0.6875,0.625,0.125
1480617549181605,0.625,0.9375,-0.25
1480617549195142,1.375,0.75,-0.25
1480617549218703,-0.4375,0.4375,0.125
1480617549250790,1,-0.25,0.5
1480617549272849,1.5625,-0.3125,0.8125
1480617549275355,1.1875,0.0625,0.8125
1480617549296411,0.375,0,0.5
1480617549314960,-1.1875,0.1875,0.5
1480617549333509,0.0625,0.3125,0.375
1480617549364091,1.1875,0.125,0.375
1480617549375121,-0.625,0.1875,-0.5
1480617549392667,0.0625,0.125,0.1875
1480617549416230,2.9375,0.25,0.1875
1480617549434779,2.4375,-0.25,0
1480617549464859,1.6875,-0.0625,-0.25
1480617549475387,1.8125,0.375,0
1480617549497947,1.5625,0.75,0.125
1480617549512987,0,1.0625,0.3125
1480617549550085,-0.625,0.875,-0.25
1480617549555099,1.8125,0.75,-0.375
1480617549584678,0.625,0.375,-0.4375
1480617549603230,1.0625,0.375,-0.25
1480617549615259,0.8125,-0.125,-0.375
1480617549633308,0.75,-0.25,-0.4375
1480617549661384,3.1875,-0.5625,-0.3125
1480617549674918,2.375,-0.5,-0.0625
1480617549692966,1.5625,-0.6875,-0.3125
1480617549716026,-1.5,1.125,-0.5625
1480617549736582,3.5625,-1.375,0.5625
1480617549753628,-0.1875,-3.5,0.5
1480617549775185,3.875,-0.8125,-0.875
1480617549797744,0,-1.1875,-1.125
1480617549813787,-0.9375,-1.5625,-1.1875
1480617549836347,-2.625,-1.625,-0.875
1480617549858406,-1.4375,-1.9375,-0.5625
1480617549880966,-0.625,-1.5625,-0.5625
1480617549910545,-1,-1.25,-0.5625
1480617549918065,0.0625,-1.125,-0.6875
1480617549940624,-0.0625,-1,-0.6875
1480617549968198,0.6875,-0.625,-0.5
1480617549993264,1,-0.5,-0.6875
1480617549997275,0.875,-0.375,-0.625
1480617550019836,2.75,-0.125,-0.6875
1480617550052423,4.8125,0.25,-0.6875
1480617550058940,3.5,-0.0625,-0.875
1480617550081500,1.6875,0.375,-0.6875
1480617550112582,3,0.0625,-0.375
1480617550125116,4.0625,-1.1875,-1
1480617550135142,3.3125,-0.875,-0.625
1480617550156199,5.125,-0.875,-0.375
1480617550194801,1.375,-0.1875,-0.25
1480617550197308,-0.5625,0.875,-0.5
1480617550233905,-0.75,1.1875,-0.6875
1480617550244934,-0.625,1.5,-0.5
1480617550272508,-0.6875,1.4375,-0.375
1480617550278022,-0.125,1.0625,-0.375
1480617550305595,1.4375,1,-0.1875
1480617550315121,2.1875,0.875,-0.125
1480617550343697,2.1875,0.75,-0.3125
1480617550358737,1.4375,0.625,-0.125
1480617550387312,0.5625,0.8125,0.1875
1480617550398844,0,1,0.25
1480617550417393,-0.3125,1.375,0.25
1480617550439952,-1.125,1.1875,0.125
1480617550466530,-0.3125,1.4375,0.5625
1480617550485073,-0.125,1.8125,0.75
1480617550502119,-1.25,1.9375,0.5625
1480617550523676,-0.875,2.4375,0.3125
1480617550544732,-0.5,2.875,0
1480617550555261,-0.1875,2.9375,0.0625
1480617550592358,0.1875,2.5625,0.125
1480617550598876,0.5625,1.5625,0.4375
1480617550617926,0.1875,0.375,0.375
1480617550637980,-0.125,-0.75,0.1875
1480617550665052,-1.1875,-1.4375,0.0625
1480617550675079,0.25,-1.5,-0.25
1480617550697638,2.1875,-0.8125,0.0625
1480617550717191,2.6875,-0.3125,0.125
1480617550742758,1.875,0,0.4375
1480617550757799,1.1875,0.75,0.625
1480617550780358,0.125,0.3125,0.9375
1480617550802920,2.625,-0.6875,1
1480617550824476,2.5625,-1.3125,0.9375
1480617550838013,1.625,-1.5,0.5
1480617550862076,0.0625,-1.1875,-0.1875
1480617550883132,-1.0625,-0.5625,-0.6875
1480617550899676,-1.1875,-0.25,-0.8125
1480617550915218,-0.375,-0.125,-0.75
1480617550944295,0.3125,0.1875,-0.5625
1480617550966353,0.375,0.3125,-0.5
1480617550974375,0.9375,0.5625,0.125
1480617550996934,0.625,0.375,0.5625
1480617551019495,-0.125,0.1875,0.3125
1480617551034535,-0.25,0.1875,0
1480617551057596,0.9375,0.125,0
1480617551086674,1.4375,-0.25,-0.1875
1480617551103720,0.625,-0.5625,-0.0625
1480617551117756,0.75,-0.1875,0.0625
1480617551140317,0.9375,0.125,0.1875
1480617551160369,0.3125,0.1875,0.3125
1480617551176913,-0.125,0.0625,0.25
1480617551207495,-0.25,0.1875,0.1875
1480617551222034,-0.125,0.125,0.1875
1480617551243591,-0.875,-0.0625,0
1480617551259633,-0.625,-0.125,-0.25
1480617551274673,0.25,-0.0625,-0.125
1480617551298237,0.625,-0.25,0.1875
1480617551319794,-0.0625,-0.4375,-0.125
1480617551334332,0.0625,-0.625,0
1480617551358898,0,-0.75,0.0625
1480617551380957,-0.5625,-0.9375,0.125
1480617551402012,-1,-1.0625,-0.25
1480617551417554,-1.125,-1.0625,-0.4375
1480617551440114,-0.5625,-1,-0.4375
1480617551453650,-0.1875,-1.0625,-0.4375
1480617551477212,-0.8125,-1.1875,-0.625
1480617551501276,-0.125,-1.1875,-0.5
1480617551514312,0.0625,-1.1875,-0.3125
1480617551536871,-0.5,-1,-0.3125
1480617551573969,-0.9375,-0.9375,-0.5
1480617551591015,-0.75,-0.625,-0.5
1480617551605555,-0.5625,-0.5625,-0.3125
1480617551620594,-0.75,-0.5,-0.1875
1480617551640647,-0.9375,-0.5,-0.25
1480617551657191,-0.625,-0.5,-0.5
1480617551680252,-0.25,-0.375,-0.1875
1480617551700807,0.1875,0,0.0625
1480617551716850,0.4375,0.5,0.4375
1480617551740415,-0.3125,0.3125,0.375
1480617551760967,-0.625,0.125,-0.0625
1480617551778513,-0.3125,0.125,-0.0625
1480617551799570,0.3125,-0.125,0.125
1480617551828145,-0.0625,-0.75,0.0625
1480617551836668,-1,-0.8125,-0.1875
1480617551859730,-0.875,-0.375,-0.375
1480617551888307,-0.1875,0.1875,0
1480617551897832,0,0.3125,0.375
1480617551919389,-0.5625,-0.0625,0.25
1480617551940445,-0.25,0.0625,0.3125
1480617551957991,-0.3125,0.1875,0.0625
1480617551979549,-0.5,0.1875,0.125
1480617552002109,0.0625,0.25,0.0625
1480617552017149,0.3125,0.1875,0.0625
1480617552054249,0.1875,0,0.0625
1480617552060263,0.1875,0.125,0.3125
1480617552082824,0.1875,0.3125,0.375
1480617552101372,-0.1875,0.25,0.125
1480617552129949,-0.25,0.25,-0.0625
1480617552136467,-0.0625,0.3125,0.0625
1480617552160029,-0.25,0.125,0.1875
1480617552198632,-0.5,0.0625,0.125
1480617552210664,-0.125,-0.125,0
1480617552219688,0.125,-0.0625,0
1480617552249266,0.6875,-0.125,0.3125
1480617552256288,0.125,-0.0625,0.125
1480617552279346,-0.25,0,0.125
1480617552301907,-0.6875,0,0
1480617552341010,-0.8125,-0.125,0
1480617552353042,-0.625,-0.25,0.125
1480617552362568,-0.125,-0.1875,0.125
1480617552383123,0.0625,-0.0625,0.0625
1480617552407187,0.125,0.125,0.125
1480617552422727,0.3125,0.4375,0.1875
1480617552436264,0.4375,0.5,0.5
1480617552465341,-0.5625,0.1875,0.5
1480617552489911,-0.9375,0,0
1480617552496424,-0.125,0,-0.125
1480617552519986,0.0625,-0.3125,-0.0625
1480617552542546,-0.0625,-0.5625,-0.0625
1480617552573630,-0.25,-0.5,0.0625
1480617552587166,0.0625,-0.1875,0
1480617552609725,0.0625,0,0.1875
1480617552623266,-0.375,0.25,0.0625
1480617552639305,-0.375,0.125,0.1875
1480617552661864,0.125,0.125,0.1875
1480617552685427,-0.1875,0.125,0.3125
1480617552699966,-0.5625,0,0
1480617552723027,-0.0625,0.125,-0.1875
1480617552743080,0.5,0.1875,0
1480617552767144,0.125,0.1875,0.1875
1480617552783689,-0.5625,0.0625,0.125
1480617552803741,-0.125,0.0625,0.125
1480617552821288,0.0625,-0.0625,0.1875
1480617552842845,-0.25,0.125,0.125
1480617552862899,-0.5625,0.1875,0.0625
1480617552879444,-0.3125,0.0625,0
1480617552902002,-0.375,-0.0625,0
1480617552923063,-0.375,-0.375,-0.0625
1480617552939602,0.0625,-0.25,-0.125
1480617552962664,0.1875,-0.1875,0
1480617552983721,0.0625,0,0.125
1480617553000265,-0.125,0,0
1480617553022827,-0.375,0,0.0625
1480617553045384,-0.4375,-0.1875,0.0625
1480617553059421,-0.125,-0.125,0.1875
1480617553081982,-0.0625,-0.125,0.1875
1480617553104542,0,-0.0625,0
1480617553134622,0.0625,-0.0625,-0.0625
1480617553142143,0.25,0.0625,-0.0625
1480617553165203,0.1875,0.3125,0.5
1480617553185758,-0.4375,0.375,0.5625
1480617553201801,-0.875,0.25,0.125
1480617553224362,-0.5625,0.125,0
1480617553238899,0,0,0.25
1480617553261961,0.375,-0.375,0.25
1480617553284521,-0.3125,-0.4375,0
1480617553306079,-0.25,-0.0625,-0.3125
1480617553322121,0.3125,0.0625,-0.0625
1480617553344681,0.125,0.125,0.1875
1480617553359721,-0.375,0.0625,0.125
1480617553381779,-0.1875,0.125,0
1480617553405343,0,0.1875,0.125
1480617553418878,-0.5625,-0.0625,-0.0625
1480617553441939,0.0625,-0.125,-0.1875
1480617553465502,0.5,0.125,-0.1875
1480617553485555,0.5625,-0.0625,0.1875
1480617553502100,-0.25,0.0625,0.0625
1480617553524660,0.0625,0.0625,0
1480617553547220,0.1875,0.125,0.125
1480617553561759,-0.5,0.125,0
1480617553584318,-0.9375,0.125,-0.125
1480617553606377,-0.5,0.125,-0.125
1480617553621920,-0.0625,0,-0.125
1480617553644478,0.125,-0.0625,-0.0625
1480617553665534,0.1875,0.125,0.0625
1480617553682078,0.125,0.1875,0.0625
1480617553712158,-0.25,0.125,0
1480617553725694,-0.4375,0.125,-0.0625
1480617553749257,-0.625,0.125,0
1480617553764798,-0.4375,0.25,0.125
1480617553794377,-0.4375,0.25,0.1875
1480617553801897,0,0.25,0.0625
1480617553824457,0.3125,0.3125,0.125
1480617553845513,0.4375,0.3125,0
1480617553876094,0,0.5,0
1480617553884619,-0.0625,0.75,0.0625
1480617553905672,-0.3125,0.6875,0.375
1480617553921716,-0.5625,0.5625,0.4375
1480617553944276,-0.5,0.5,0.1875
1480617553965332,0,0.3125,0.0625
1480617553981875,0.75,0.125,0
1480617554004436,0.4375,0,0
1480617554026996,-0.25,0.125,-0.375
1480617554043039,-0.25,0.1875,-0.1875
1480617554064114,-0.4375,0.3125,0.1875
1480617554087658,-0.5625,0.1875,0.25
1480617554102195,-0.3125,0.25,0.125
1480617554124756,0.375,0.4375,0.1875
1480617554156344,-0.5625,0.25,0.125
1480617554162858,-0.875,0.125,-0.0625
1480617554184415,-0.0625,0,-0.125
1480617554206974,0.25,0.125,-0.125
1480617554229033,0.1875,0.0625,0
1480617554245577,0.125,0.0625,-0.125
1480617554267135,0.375,0.125,0.0625
1480617554281172,-0.25,0.125,0.0625
1480617554304735,-0.625,0.125,0
1480617554327796,-0.5,0.125,-0.0625
1480617554341332,-0.3125,-0.0625,-0.25
1480617554364394,-0.125,-0.0625,-0.3125
1480617554386955,0.1875,-0.0625,-0.1875
1480617554402997,0.5,0.125,-0.0625
1480617554433076,0.3125,-0.0625,0.0625
1480617554448618,0,-0.0625,0.0625
1480617554461652,-0.4375,0,-0.0625
1480617554484714,-0.4375,0,-0.0625
1480617554506772,-0.0625,-0.1875,0
1480617554535348,0.25,0.125,0
1480617554545375,0.0625,0.0625,-0.0625
1480617554566932,0.1875,0.0625,0.0625
1480617554589603,0.5,-0.125,0
1480617554604532,0.875,-0.125,-0.0625
1480617554627594,-0.3125,0.0625,-0.1875
1480617554648148,-0.5,0.125,-0.0625
1480617554664692,-0.125,0.125,0.3125
1480617554695274,-0.3125,-0.0625,0.0625
1480617554715327,-0.5,-0.1875,-0.125
1480617554724360,0.25,0,-0.3125
1480617554746914,0.125,-0.375,-0.125
1480617554767967,-0.375,-0.4375,-0.3125
1480617554785013,-0.25,-0.25,-0.3125
1480617554807071,0.5,0,0.125
1480617554828127,-0.125,-0.0625,0.375
1480617554844671,-0.6875,-0.3125,-0.0625
1480617554867231,0.3125,-0.0625,-0.1875
1480617554888288,0.375,-0.0625,0
1480617554905833,-0.4375,0.0625,-0.1875
1480617554926890,-0.4375,0,-0.25
1480617554949451,0.75,-0.0625,-0.0625
1480617554963988,0.6875,0,0.0625
1480617554987050,-0.0625,0.0625,-0.0625
1480617555010111,-0.3125,0.0625,-0.0625
1480617555032671,0,0.125,0
1480617555048714,-0.25,0.125,0.125
1480617555069770,-0.0625,-0.0625,0.125
1480617555083808,-0.0625,-0.3125,-0.1875
1480617555106868,-0.25,-0.25,-0.1875
1480617555129428,0,-0.25,-0.25
1480617555143967,0.25,-0.3125,-0.0625
1480617555192597,0.0625,-0.4375,-0.125
1480617555204630,-0.375,-0.1875,-0.1875
1480617555207135,-1,-0.125,-0.1875
1480617555227189,-0.125,-0.125,0.0625
1480617555264287,0.4375,-0.0625,0.0625
1480617555272310,0.5625,0,-0.0625
1480617555294367,0.0625,-0.125,-0.0625
1480617555309407,-0.375,-0.125,-0.0625
1480617555323946,-0.5,-0.1875,-0.25
1480617555347008,0.0625,0.25,-0.25
1480617555369066,-0.4375,0.0625,-0.125
1480617555384106,-0.5,0.125,0.125
1480617555407168,0.125,0.4375,0.5
1480617555429226,0.0625,0.25,0.3125
1480617555450282,0,0.125,0.125
1480617555474346,-0.0625,-0.0625,-0.0625
1480617555489889,1.125,-0.25,0.125
1480617555510444,0.625,-0.4375,-0.0625
1480617555540523,-0.0625,-0.25,-0.1875
1480617555549547,-0.4375,-0.0625,-0.125
1480617555572106,-0.0625,0.1875,0.125
1480617555587147,-0.6875,0.5,0.0625
1480617555609706,-1.6875,-0.0625,0
1480617555630762,0.4375,0.25,0.125
1480617555647309,0.0625,0.25,0.25
1480617555684406,-0.625,0.3125,0.0625
1480617555691925,-0.4375,0.375,0.125
1480617555706965,0,0.3125,0
1480617555737045,0.3125,0.4375,0.125
1480617555750581,-0.6875,0.75,-0.0625
1480617555767126,-0.3125,0.5625,0.125
1480617555789686,0.0625,0.1875,0.1875
1480617555812747,0.0625,-0.0625,0.125
1480617555826784,-0.25,-0.25,0.125
1480617555849343,-0.5625,-0.25,0.0625
1480617555870400,-0.625,-0.375,0
1480617555886947,-0.3125,-0.375,-0.3125
1480617555924545,0.4375,-0.1875,0
1480617555940085,0.75,-0.0625,0.0625
1480617555947605,0.3125,0.0625,0
1480617555969665,0.1875,0,-0.0625
1480617555991723,-0.0625,-0.1875,-0.125
1480617556015787,-0.4375,-0.125,-0.125
1480617556029323,-0.5,0,-0.1875
1480617556051883,0,-0.125,-0.3125
1480617556066422,0.5,-0.1875,-0.1875
1480617556103019,0.75,-0.25,-0.3125
1480617556112043,0.5625,-0.0625,-0.3125
1480617556133098,0.75,-0.0625,-0.125
1480617556149645,0.125,0.0625,0
1480617556172203,-0.1875,0.125,-0.0625
1480617556186242,0.125,0.0625,0.125
1480617556216821,-0.0625,-0.1875,0.125
1480617556231862,-0.3125,-0.125,-0.1875
1480617556246400,0.1875,-0.3125,-0.25
1480617556269463,1.375,-0.3125,-0.3125
1480617556292022,0.9375,-0.375,-0.0625
1480617556306562,-0.4375,-0.0625,-0.125
1480617556330124,-0.5,0.0625,0
1480617556358197,-0.3125,0.125,0.125
1480617556373237,-0.125,0.0625,0.125
1480617556389782,0.125,0.25,0.125
1480617556417857,0.125,0.25,0.125
1480617556432896,-0.75,-0.0625,0
1480617556450442,-0.0625,-0.125,-0.0625
1480617556478017,0,-0.1875,0
1480617556493057,-0.1875,-0.4375,-0.125
1480617556509600,-0.125,-0.3125,-0.0625
1480617556533163,0.4375,-0.0625,0.1875
1480617556553217,0.125,0.0625,0.1875
1480617556575776,-0.5625,-0.125,0.125
1480617556591819,-0.625,-0.0625,-0.1875
1480617556620396,-0.5625,-0.25,-0.1875
1480617556633430,-0.125,-0.3125,-0.125
1480617556651979,0,-0.4375,-0.1875
1480617556673035,0.25,-0.5,-0.25
1480617556689579,0.4375,-0.6875,-0.25
1480617556719660,0.25,-0.5625,-0.3125
1480617556733698,0.25,-0.4375,-0.25
1480617556749238,0.1875,-0.375,-0.1875
1480617556771803,-0.125,-0.375,-0.125
1480617556792854,-0.125,-0.4375,-0.0625
1480617556809398,-0.1875,-0.4375,-0.25
1480617556839477,-0.375,-0.5,-0.3125
1480617556854519,0.125,-0.375,-0.4375
1480617556870060,0.4375,-0.5,-0.4375
1480617556892119,0.4375,-0.5,-0.25
1480617556930219,0.125,-0.4375,-0.3125
1480617556933230,-0.375,-0.4375,-0.375
1480617556965314,-0.5,-0.1875,-0.3125
1480617556975339,0.375,0,0.125
1480617556988879,0.25,0,0.3125
1480617557011937,-0.125,0.1875,-0.0625
1480617557040513,0.25,-0.125,-0.125
1480617557050039,0.8125,-0.5,-0.1875
1480617557078113,0.4375,-0.8125,-0.25
1480617557094657,-0.5625,-0.8125,-0.4375
1480617557108694,-0.3125,-0.5,-0.5
1480617557132258,0.5625,-0.25,-0.1875
1480617557154317,0,-0.4375,0
1480617557169356,-0.125,-0.5,-0.125
1480617557192919,0.1875,-0.5,0
1480617557215479,-0.75,-0.5,-0.25
1480617557229014,-0.5,-0.5,-0.5625
1480617557253080,0.1875,-0.5,-0.375
1480617557274636,0.6875,-0.625,-0.1875
1480617557305219,0.25,-0.75,-0.125
1480617557320257,-0.1875,-0.5625,-0.1875
1480617557334294,-0.125,-0.375,-0.125
1480617557355854,-0.125,-0.25,-0.125
1480617557371895,-0.25,-0.0625,-0.125
1480617557394956,-0.375,-0.1875,-0.1875
1480617557415510,-0.125,-0.25,-0.0625
1480617557432054,-0.125,-0.4375,0.0625
1480617557462134,-0.0625,-0.375,0.0625
1480617557484193,-0.0625,-0.375,-0.125
1480617557494220,-0.25,-0.375,-0.1875
1480617557514273,-0.4375,-0.25,-0.1875
1480617557535329,-0.375,-0.375,-0.0625
1480617557551873,-0.5,-0.375,0.0625
1480617557574433,-0.1875,-0.1875,0.125
1480617557595990,-0.0625,-0.1875,0.125
1480617557612034,0.0625,-0.0625,0.125
1480617557634093,0.0625,-0.25,0.125
1480617557657154,-0.4375,-0.25,-0.0625
1480617557678210,-1,-0.3125,-0.625
1480617557694252,-0.25,-0.125,-0.25
1480617557715308,0.1875,0.3125,0.125
1480617557731852,0.4375,0.4375,0.625
1480617557754413,-0.5625,0.125,0.3125
1480617557778477,-0.3125,0,-0.1875
1480617557798529,0.125,-0.25,-0.3125
1480617557824599,0,-0.625,-0.1875
1480617557836631,-0.3125,-0.8125,-0.0625
1480617557852172,-0.6875,-0.5625,-0.0625
1480617557875233,0.125,-0.0625,0
1480617557897794,0.4375,0.25,0.125
1480617557912834,0.125,0.3125,0.125
1480617557934391,-0.0625,0.3125,0.1875
1480617557957954,-0.3125,0.5625,0.25
1480617557978007,-0.1875,-0.4375,0.0625
1480617557994551,2.4375,-0.375,-0.0625
1480617558017111,1.875,0.125,-0.375
1480617558032150,-0.0625,0.1875,-0.25
1480617558054711,-1.0625,0.0625,0
1480617558076770,-0.1875,0,0.25
1480617558099331,0,0,0.125
1480617558128406,-0.4375,0.0625,-0.0625
1480617558138936,-0.125,-0.0625,0.0625
1480617558151468,0.1875,-0.25,0
1480617558174529,0.0625,-0.25,-0.125
1480617558197090,0.0625,-0.125,-0.25
1480617558211127,0,0,-0.1875
1480617558240706,0.1875,0.125,0
1480617558266274,0,0.3125,0.125
1480617558277804,0.125,0.25,0.125
1480617558295853,-0.0625,0.125,0.0625
1480617558316909,-0.125,0.1875,-0.0625
1480617558337965,-0.125,-0.125,-0.1875
1480617558360524,-0.1875,-0.375,-0.125
1480617558377069,0,-0.25,-0.125
1480617558400130,0.5,-0.25,0.0625
1480617558437731,0.3125,-0.125,-0.0625
1480617558439735,0.25,-0.125,-0.1875
1480617558457783,0.1875,0.125,0
1480617558474327,0.5625,0.3125,0.375
1480617558502903,-0.5625,0.125,0.25
1480617558520451,-0.6875,0,-0.1875
1480617558540503,0.4375,-0.0625,-0.375
1480617558557549,0.875,-0.375,0
1480617558586124,0,-0.5,-0.0625
1480617558596151,-0.6875,-0.3125,-0.0625
1480617558622722,-0.1875,0.125,-0.125
1480617558638270,0.375,0.25,0.0625
1480617558660322,0.25,0.0625,0.25
1480617558678370,-0.125,-0.1875,0.125
1480617558705943,0.25,0,0.1875
1480617558715970,-0.4375,-0.0625,-0.0625
1480617558738534,-0.6875,-0.375,-0.1875
1480617558765602,0.0625,-0.125,-0.25
1480617558774125,0.625,-0.0625,-0.0625
1480617558797186,0,0,0.125
1480617558820249,-0.25,0.125,0.125
1480617558841805,0,0.25,0.0625
1480617558870382,-0.1875,0.125,0
1480617558879405,-0.6875,0.0625,-0.0625
1480617558894445,-0.5,0,-0.125
1480617558917507,-0.0625,-0.0625,-0.125
1480617558947085,0.25,-0.0625,-0.125
1480617558960620,0.3125,0,-0.0625
1480617558990703,-0.25,0.125,-0.1875
1480617558999726,-0.625,-0.1875,0
1480617559014264,0,-0.25,-0.0625
1480617559037328,-0.3125,0,0.0625
1480617559066905,-0.375,0,-0.1875
1480617559073923,0,-0.0625,-0.0625
1480617559096984,0.1875,-0.1875,0
1480617559119543,-0.0625,-0.1875,-0.0625
1480617559149624,-0.25,-0.1875,-0.125
1480617559157646,-0.375,-0.0625,-0.3125
1480617559179705,-0.125,-0.1875,-0.25
1480617559193742,-0.0625,0,-0.0625
1480617559216802,0.25,0.25,0.1875
1480617559240365,-0.3125,0.25,0.125
1480617559267938,-0.4375,0,-0.1875
1480617559292002,-0.375,-0.375,-0.1875
1480617559299523,0.75,-0.375,0
1480617559320578,0.4375,-0.625,-0.125
1480617559345144,-0.6875,-0.4375,-0.1875
1480617559359683,-0.5,-0.125,-0.375
1480617559382242,0.125,0.0625,-0.0625
1480617559398285,0.1875,0.0625,0.1875
1480617559433880,-0.0625,0.0625,0.1875
1480617559440397,0.25,0.1875,-0.125
1480617559462957,0.4375,0.125,0.0625
1480617559487026,-0.375,-0.125,-0.0625
1480617559500056,-0.3125,-0.0625,-0.1875
1480617559518605,0.375,0.0625,-0.1875
1480617559548186,0.25,0,0.0625
1480617559568237,-0.0625,0.1875,0.0625
1480617559577763,0.0625,0.125,-0.0625
1480617559599320,0.125,-0.125,-0.25
1480617559629400,-0.3125,-0.25,-0.375
1480617559636923,-0.4375,-0.125,-0.3125
1480617559659481,-0.375,0,-0.125
1480617559682541,-0.125,0,-0.0625
1480617559713123,0,-0.125,0
1480617559719641,-0.4375,-0.25,-0.125
1480617559742200,0.125,-0.0625,-0.1875
1480617559757241,0.0625,0.125,-0.0625
1480617559779801,0.0625,0.1875,-0.0625
1480617559807875,-0.0625,0,-0.0625
1480617559825923,0.0625,-0.0625,-0.0625
1480617559840962,0.0625,-0.125,0.125
1480617559877059,-0.125,-0.125,0
1480617559879566,-0.1875,-0.1875,-0.125
1480617559899619,-0.25,-0.1875,-0.1875
1480617559922182,0.125,-0.3125,-0.125
1480617559936217,-0.25,-0.25,0.0625
1480617559959779,-0.125,0,0.125
1480617559988356,-0.0625,0,0.3125
1480617559997881,-0.4375,0.125,0
1480617560026958,-0.4375,0.0625,0
1480617560041998,0.5,-0.0625,-0.0625
1480617560056536,0.6875,-0.25,0
1480617560079598,-0.375,-0.3125,-0.3125
1480617560103662,-0.6875,-0.125,-0.1875
1480617560118202,-0.4375,0.0625,0.0625
1480617560140259,-0.375,0.25,0.375
1480617560162318,-0.375,0.25,0.375
1480617560185881,-0.1875,0.25,0.0625
1480617560200420,0.625,0.0625,0.0625
1480617560222480,0.1875,-0.125,0
1480617560243037,0.0625,-0.0625,0.0625
1480617560259077,0.1875,0.0625,-0.0625
1480617560297678,0.0625,0.0625,0.0625
1480617560303694,-0.4375,-0.1875,0.0625
1480617560319738,0.125,-0.0625,0.1875
1480617560341800,0.1875,-0.0625,0.1875
1480617560379897,-0.4375,0.0625,0
1480617560382404,-0.75,0.125,-0.1875
1480617560402962,-0.625,0.125,-0.25
1480617560430532,-0.25,0,0
1480617560439556,-0.0625,-0.125,-0.0625
1480617560462115,0.125,-0.125,-0.1875
1480617560483674,0,-0.0625,-0.125
1480617560514254,-0.1875,-0.0625,0
1480617560536312,-0.5,-0.0625,0
1480617560542830,-0.4375,-0.0625,-0.0625
1480617560565390,-0.1875,-0.1875,0
1480617560581934,-0.125,0,-0.0625
1480617560602991,0,-0.125,-0.0625
1480617560618531,-0.0625,-0.0625,0
1480617560651620,-0.125,0,-0.125
1480617560665156,0,0.0625,-0.125
1480617560679695,0,0.0625,-0.125
1480617560701753,0,0.4375,0.125
1480617560732335,-0.125,0.5,0.25
1480617560739353,-0.3125,0.3125,0.3125
1480617560763920,-0.5625,0.1875,0.0625
1480617560784475,-0.625,-0.125,-0.125
1480617560799012,0.75,-0.25,0.0625
1480617560822073,0.5,-0.25,0
1480617560845636,-0.625,-0.1875,-0.125
1480617560865689,-0.5625,-0.125,0
1480617560889252,-0.5,-0.0625,0.25
1480617560905294,-0.625,0.0625,0.25
1480617560925348,-0.4375,0.125,0.1875
1480617560941893,-0.0625,0.1875,-0.0625
1480617560964452,0.125,0,0.0625
1480617560985508,-0.3125,-0.125,0.125
1480617561003556,-0.375,0,0
1480617561024612,-0.375,0.125,-0.125
1480617561038649,-0.1875,0.125,0
1480617561071237,0,0.125,0.125
1480617561092292,0.125,0.125,0.1875
1480617561100314,-0.0625,0.1875,0.1875
1480617561121871,-0.625,0.1875,0.1875
1480617561145434,-0.625,0.1875,-0.1875
1480617561165487,-0.375,-0.0625,-0.0625
1480617561182030,-0.0625,-0.125,-0.125
1480617561205092,-0.125,-0.1875,-0.125
1480617561227652,0.125,-0.125,-0.0625
1480617561241691,0.0625,-0.125,0
1480617561264250,-0.3125,-0.1875,-0.125
1480617561287812,-0.4375,0,-0.0625
1480617561301850,-0.3125,-0.125,0
1480617561331930,-0.4375,-0.1875,-0.0625
1480617561345465,-0.125,-0.125,0
1480617561369530,0.125,-0.0625,-0.125
1480617561392591,0.125,0,-0.0625
1480617561405627,-0.125,-0.0625,-0.1875
1480617561429689,-0.4375,-0.125,-0.1875
1480617561453754,0.125,-0.25,-0.125
1480617561465285,-0.0625,-0.0625,0.0625
1480617561483332,0.125,0.1875,0.1875
1480617561504388,-0.1875,0.1875,0.1875
1480617561525445,-0.25,-0.0625,0.0625
1480617561543994,-0.5625,0,0
1480617561579589,0.0625,-0.3125,0
1480617561595130,0.5625,-0.4375,0.0625
1480617561602149,-0.3125,-0.5625,-0.125
1480617561630725,-0.8125,-0.25,-0.3125
1480617561647268,-0.1875,0,-0.0625
1480617561676847,0.1875,-0.125,0.1875
1480617561685370,-0.25,-0.0625,0.125
1480617561706928,-0.25,0,0
1480617561721466,0.125,0.0625,0.0625
1480617561758566,-0.625,-0.25,-0.0625
1480617561768591,-0.5,-0.3125,0
1480617561781124,0.25,-0.25,-0.0625
1480617561804188,0.125,-0.1875,0.125
1480617561833766,0.0625,-0.125,0.0625
1480617561850309,0,0,0.0625
1480617561864346,-0.25,-0.125,0.0625
1480617561887408,-0.5625,-0.3125,-0.0625
1480617561909467,-0.5,-0.375,-0.125
1480617561924507,-0.3125,-0.1875,0
1480617561947066,-0.4375,-0.375,-0.125
1480617561961114,-0.3125,-0.375,-0.25
1480617561990683,0.0625,-0.5,-0.25
1480617562006726,0.25,-0.5,-0.1875
1480617562021264,-0.0625,-0.25,-0.1875
1480617562044325,-0.3125,-0.25,-0.3125
1480617562066887,-0.3125,-0.1875,-0.0625
1480617562087941,-0.25,-0.25,0.125
1480617562103984,-0.375,-0.25,0.125
1480617562127045,-0.5625,-0.125,-0.125
1480617562148602,-0.4375,-0.1875,-0.25
1480617562179685,0.25,-0.1875,-0.1875
1480617562194223,0.1875,-0.3125,-0.125
1480617562208266,0.1875,-0.3125,-0.1875
1480617562225807,-0.25,-0.3125,-0.1875
1480617562246863,-0.25,-0.1875,-0.1875
1480617562267923,-0.25,-0.125,-0.125
1480617562284463,0.125,0.25,0.1875
1480617562323568,-0.3125,0.0625,0.1875
1480617562335600,-0.4375,-0.0625,-0.0625
1480617562344624,-0.25,-0.25,-0.1875
1480617562366683,0.8125,-0.375,0
1480617562398267,0.5625,-0.6875,-0.125
1480617562404283,-0.5,-0.6875,-0.375
1480617562426843,-0.75,-0.5,-0.3125
1480617562447898,-0.1875,-0.25,-0.0625
1480617562472464,-0.0625,-0.125,0.25
1480617562487003,0,-0.25,0
1480617562508059,0.5,-0.125,-0.0625
1480617562524605,-0.0625,-0.1875,-0.0625
1480617562547162,-0.6875,-0.375,-0.125
1480617562569727,-0.375,-0.3125,-0.1875
1480617562584763,-0.125,-0.25,-0.1875
1480617562606822,-0.1875,-0.25,-0.0625
1480617562629382,-0.125,-0.125,-0.0625
1480617562644421,0.25,0,0
1480617562674501,-0.0625,0.0625,0.125
1480617562689543,-0.5,0,0
1480617562706086,-0.8125,-0.1875,-0.125
1480617562727643,-0.5625,-0.25,-0.1875
1480617562755719,-0.5,-0.3125,-0.125
1480617562763740,-0.3125,-0.3125,-0.125
1480617562794321,0,-0.25,-0.125
1480617562809862,0.25,-0.3125,-0.125
1480617562823901,0,-0.25,-0.0625
1480617562846960,-0.5,-0.1875,0.125
1480617562893083,-0.625,0.0625,0
1480617562898096,-0.5625,-0.125,0
1480617562920656,-0.25,-0.125,-0.1875
1480617562930183,-0.125,-0.125,-0.0625
1480617562958257,0,-0.0625,0.0625
1480617562967281,0.0625,-0.1875,0.0625
1480617562989339,-0.125,-0.0625,0
1480617563003878,-0.1875,-0.0625,-0.125
1480617563034460,-0.375,0,-0.0625
1480617563049499,-0.0625,0.25,0
1480617563071561,0.25,0.3125,0.375
1480617563087603,0.3125,0.4375,0.625
1480617563109658,-0.9375,0.0625,0.1875
1480617563130715,-0.875,0,-0.25
1480617563148261,0.375,-0.0625,-0.25
1480617563175337,0.75,-0.375,0.1875
1480617563190375,-0.125,-0.4375,0.0625
1480617563206918,-0.4375,-0.0625,0.0625
1480617563229478,-0.375,-0.0625,-0.0625
1480617563250533,-0.375,0.125,0.125
1480617563267579,-0.5,0.1875,0.0625
1480617563289639,-0.5,0.125,0.0625
1480617563310694,0.125,0.25,0.25
1480617563326736,-0.375,-0.0625,0.1875
1480617563350300,0.0625,-0.0625,-0.125
1480617563370353,0.5625,0,-0.0625
1480617563401937,0,0,0
1480617563415473,-0.5,-0.125,0.125
1480617563430512,-0.0625,0.0625,0.25
1480617563447056,0,-0.0625,0.1875
1480617563471625,-0.6875,0,0.0625
1480617563491676,-0.875,-0.0625,-0.1875
1480617563506715,-0.3125,-0.0625,-0.125
1480617563529275,-0.3125,-0.125,-0.0625
1480617563552839,-0.1875,-0.3125,-0.125
1480617563567878,0,-0.125,-0.1875
1480617563589436,0.3125,0,-0.125
1480617563618513,-0.0625,0,-0.0625
1480617563629543,-0.3125,-0.0625,0
1480617563649596,-0.4375,-0.0625,0.0625
1480617563672156,-0.375,-0.1875,0.0625
1480617563686194,-0.125,-0.125,-0.0625
1480617563711761,-0.0625,-0.125,0
1480617563714769,0,-0.0625,0.0625
1480617563737331,0.375,-0.0625,0.0625
1480617563753873,0.0625,-0.0625,-0.0625
1480617563776432,-0.375,-0.0625,-0.1875
1480617563797489,-0.375,0,-0.125
1480617563814033,-0.125,-0.0625,0.0625
1480617563834587,-0.0625,0.0625,0
1480617563857650,0.1875,0.5,0.1875
1480617563881212,-0.5,0.6875,0.375
1480617563894747,-1.1875,0.4375,0.0625
1480617563917307,-0.5625,0.25,0.1875
1480617563933851,-0.25,0,0.25
1480617563963935,-0.625,-0.25,0.4375
1480617563977468,-1.5,-0.4375,0.1875
1480617563994011,-1.1875,-0.25,-0.0625
1480617564040135,-0.0625,-0.125,0.3125
1480617564042640,0.375,0.25,0.4375
1480617564053671,-0.0625,0.25,0.3125
1480617564074727,-0.75,0.25,0.0625
1480617564097285,-0.4375,0.3125,0.0625
1480617564115335,-1.375,-0.125,0.125
1480617564134886,-0.8125,-0.125,0.1875
1480617564157448,-0.3125,-0.0625,0.0625
1480617564189035,0.0625,0.1875,0.1875
1480617564204075,0.25,0.1875,0.25
1480617564217106,0.25,0.4375,0.25
1480617564235155,-0.125,0.375,0.3125
1480617564255208,-0.5,0.3125,0.125
1480617564277265,-0.625,0.0625,0.0625
1480617564308849,-0.3125,-0.0625,0.125
1480617564314865,-0.3125,-0.125,0
1480617564344945,0.1875,-0.1875,-0.0625
1480617564359986,0.5625,0.125,-0.25
1480617564375026,0.375,0.1875,-0.1875
1480617564397084,-0.25,0.3125,-0.25
1480617564423155,-0.375,0.125,-0.0625
1480617564434684,-0.3125,0.0625,0
1480617564464764,-0.3125,-0.0625,-0.1875
1480617564479804,-0.4375,-0.0625,-0.25
1480617564494844,0,-0.125,0
1480617564517404,0.1875,-0.0625,0.0625
1480617564540970,-0.0625,-0.1875,-0.125
1480617564555006,-0.1875,-0.0625,-0.125
1480617564577564,0.25,0,-0.0625
1480617564610652,-0.1875,0.0625,0.0625
1480617564616167,-0.3125,0.125,0.1875
1480617564644743,-0.4375,0.4375,0.125
1480617564661287,-0.125,0.8125,0.4375
1480617564676327,-0.75,0.875,0.5
1480617564700392,-0.9375,0.5625,0.3125
1480617564719943,-0.25,0.6875,0.25
1480617564737505,0.25,0.5,0.1875
1480617564757543,0.625,-0.125,0.1875
1480617564781106,-0.875,-0.0625,0.125
1480617564817704,-0.4375,0.25,0.125
1480617564828232,-0.4375,0.5625,0.25
1480617564841265,-0.4375,0.4375,0.1875
1480617564854803,-0.4375,0.1875,0
1480617564887389,0.125,0.25,0.1875
1480617564899922,0,0.5625,0.5
1480617564914962,-0.75,0.5,0.3125
1480617564939026,-0.6875,0.3125,-0.0625
1480617564977628,-0.1875,0.375,-0.125
1480617564980135,-0.1875,0.1875,0
1480617565006205,-0.0625,0.1875,0.0625
1480617565019742,0,0.375,0.25
1480617565037788,-0.0625,0.3125,0.1875
1480617565067868,-0.625,0.125,0.125
1480617565079900,-0.6875,0,-0.125
1480617565102462,-0.25,0,0
1480617565117500,-0.125,0.125,-0.0625
1480617565142567,-0.3125,0,-0.1875
1480617565162121,0.3125,-0.1875,-0.3125
1480617565184679,0.5625,-0.1875,-0.125
1480617565199719,0.125,-0.4375,0
1480617565216263,0.25,0,-0.125
1480617565237320,-1.3125,0,-0.5
1480617565267901,-1,-0.0625,0.1875
1480617565282439,0.75,-0.1875,0.1875
1480617565297479,0.8125,-0.125,-0.1875
1480617565320041,0.125,0.0625,-0.375
1480617565337591,0.4375,-0.0625,-0.125
1480617565361149,0.875,-0.1875,0
1480617565379698,-0.375,0.25,-0.375
1480617565397746,-1.9375,-0.125,0
1480617565424820,0.5,-0.0625,0.125
1480617565447378,0.6875,0.125,0.3125
1480617565457906,0.8125,0.25,0
1480617565477458,-0.1875,0.0625,0.25
1480617565500018,-0.375,-0.125,0.125
1480617565517565,-0.375,-0.625,0.0625
1480617565538621,-0.125,0.1875,-0.125
1480617565562685,-1.4375,0,-0.3125
1480617565582236,-0.9375,-0.625,-0.0625
1480617565597277,0.375,-0.4375,0.0625
1480617565619838,0.9375,0,0.125
1480617565637887,0,0.1875,0.125
1480617565657437,-0.375,0.125,0.125
1480617565679997,-0.25,0.1875,0.0625
1480617565697544,-0.1875,0.1875,0.125
1480617565733640,-0.75,0,0.0625
1480617565739656,-0.5,-0.1875,0
1480617565771242,0.1875,-0.1875,-0.125
1480617565777256,0.75,-0.0625,0.125
1480617565803329,0.1875,-0.1875,0.0625
1480617565817864,-0.25,-0.0625,0.0625
1480617565837420,-0.25,0,0
1480617565867496,-0.5,0,-0.0625
1480617565891058,-0.5625,0.0625,-0.0625
1480617565897075,-0.375,0.125,-0.1875
1480617565923144,-0.3125,0,-0.1875
1480617565945203,-0.375,-0.375,-0.1875
1480617565964754,-0.5,-0.1875,-0.125
1480617565979794,-0.4375,0.1875,-0.0625
1480617566002355,-0.1875,0.5625,-0.1875
1480617566036446,-0.1875,0.5625,-0.1875
1480617566047475,0.1875,0.5625,-0.25
1480617566062514,0.625,0.1875,-0.125
1480617566078561,0.0625,-0.125,-0.125
1480617566107132,0,-0.25,0
1480617566122677,-0.0625,-0.25,0.0625
1480617566138718,-0.25,-0.4375,0
1480617566168797,-0.375,-0.375,-0.125
1480617566182333,0,-0.25,-0.1875
1480617566200382,0.5,-0.125,-0.125
1480617566219934,0.75,-0.0625,0.25
1480617566242492,-0.0625,0,0.0625
1480617566259038,-0.375,0.3125,-0.0625
1480617566281096,-0.375,0.3125,0.1875
1480617566302152,-0.25,0.1875,0.25
1480617566320203,-0.4375,0,0.1875
1480617566342760,0.125,-0.25,-0.0625
1480617566369832,0.75,-0.3125,-0.1875
1480617566387881,0.375,-0.25,-0.0625
1480617566402920,-0.5,-0.375,-0.125
1480617566422473,-0.25,-0.375,-0.1875
1480617566442526,-0.1875,-0.375,0
1480617566459571,-0.375,-0.1875,0.0625
1480617566487163,-0.25,-0.3125,0.125
1480617566500178,0.25,-0.25,0.1875
1480617566519732,-0.3125,-0.25,0
1480617566549811,-0.4375,-0.375,-0.1875
1480617566560340,0,-0.25,-0.1875
1480617566587412,0.1875,-0.125,-0.1875
1480617566602451,0.375,0,-0.0625
1480617566620500,0.1875,0.25,-0.0625
1480617566640051,0.25,0.375,0.1875
1480617566671134,-0.4375,0.25,0.125
1480617566681666,-0.625,0.1875,-0.0625
1480617566699709,-0.4375,0,-0.1875
1480617566722272,-0.25,-0.125,-0.0625
1480617566747838,0,-0.1875,-0.0625
1480617566759870,0.5,-0.3125,0
1480617566782430,0.0625,-0.1875,0
1480617566800478,-0.25,-0.125,-0.0625
1480617566836073,-0.4375,-0.1875,0
1480617566842088,-0.5625,-0.25,0.0625
1480617566864649,-0.4375,-0.0625,0
1480617566899240,-0.1875,0,-0.0625
1480617566903756,-0.0625,0.125,0
1480617566920297,-0.1875,0,0.0625
1480617566941352,0,-0.0625,-0.0625
1480617566979454,0,0,0.125
1480617566981961,-0.1875,-0.0625,-0.0625
1480617567007529,-0.5625,0.0625,-0.1875
1480617567022070,0.125,0,0.1875
1480617567044627,0,0,0.25
1480617567061171,-0.125,0.1875,0.1875
1480617567082227,-0.3125,0.125,0.1875
1480617567106793,-0.5625,0.0625,0.1875
1480617567121332,-0.625,-0.125,-0.0625
1480617567146398,0.0625,-0.1875,-0.0625
1480617567173971,0.75,-0.25,0
1480617567187508,0.0625,-0.25,0.0625
1480617567202047,-0.5625,-0.125,-0.0625
1480617567220094,-0.3125,0.0625,-0.0625
1480617567241150,-0.125,0.125,0.125
1480617567265214,-0.3125,0.25,0.0625
1480617567286774,-0.0625,0.0625,0.0625
1480617567310835,0.375,0.25,0.25
1480617567322368,0,-0.1875,0.0625
1480617567339913,-0.125,-0.3125,-0.125
1480617567362974,0,-0.375,-0.1875
1480617567382527,0,-0.25,-0.125
1480617567400073,-0.25,-0.1875,0.125
1480617567424638,0,0,0.125
1480617567442184,0.0625,0,0.125
1480617567482793,-0.3125,0,0
1480617567485801,-0.5625,-0.0625,-0.125
1480617567502346,-0.3125,-0.1875,-0.1875
1480617567524905,-0.25,-0.3125,-0.25
1480617567542953,0.0625,-0.1875,-0.1875
1480617567570029,-0.125,-0.0625,-0.1875
1480617567585065,0.0625,-0.125,-0.125
1480617567603622,0.25,-0.25,-0.125
1480617567622166,0.1875,-0.1875,-0.25
1480617567650239,0.1875,-0.1875,-0.1875
1480617567670296,0.125,-0.125,0.0625
1480617567682324,-0.125,-0.3125,0.0625
1480617567705385,0,-0.3125,-0.125
1480617567722935,0.25,-0.3125,-0.0625
1480617567742484,0.375,-0.25,-0.0625
1480617567765545,0.0625,-0.25,-0.1875
1480617567787102,0.1875,-0.5,-0.25
1480617567811167,0.5625,-0.5,-0.375
1480617567826207,0.5,-0.625,-0.25
1480617567842750,0,-0.5625,-0.25
1480617567869825,0.4375,-0.375,-0.125
1480617567884863,0.4375,-0.375,0.125
1480617567910431,-0.1875,-0.5,0
1480617567923969,-0.5625,-0.625,-0.3125
1480617567945022,0.1875,-0.875,-0.125
1480617567962570,1.1875,-0.875,-0.125
1480617567985631,0.4375,-1.0625,-0.25
1480617568005183,-0.375,-1.0625,-0.375
1480617568027242,-0.1875,-0.75,-0.375
1480617568049805,-0.0625,-0.4375,-0.125
1480617568072361,-0.0625,-0.375,0.0625
1480617568102945,0.0625,-0.25,-0.125
1480617568118484,0.0625,-0.1875,-0.125
1480617568132521,-0.4375,-0.375,-0.125
1480617568142548,0.4375,-0.375,-0.1875
1480617568164608,0.6875,-0.375,-0.1875
1480617568203716,0.1875,-0.5,-0.3125
1480617568207221,-0.125,-0.375,-0.0625
1480617568238302,0,-0.25,0.0625
1480617568246325,-0.3125,-0.125,0.125
1480617568274900,-0.4375,-0.125,0
1480617568285429,-0.375,-0.125,-0.125
1480617568307487,-0.0625,-0.1875,-0.1875
1480617568323532,0,-0.375,-0.1875
1480617568345087,0.0625,-0.5,-0.125
1480617568364639,-0.0625,-0.5,-0.25
1480617568396223,-0.0625,-0.4375,-0.1875
1480617568405247,-0.125,-0.375,-0.0625
1480617568424799,-0.375,-0.1875,-0.1875
1480617568442847,-0.125,-0.375,-0.3125
1480617568479946,-0.0625,-0.4375,-0.25
1480617568485461,-0.0625,-0.3125,-0.125
1480617568502507,-0.0625,-0.1875,-0.0625
1480617568532586,0.0625,-0.375,0
1480617568552138,-0.0625,-0.375,-0.0625
1480617568565173,-0.1875,-0.375,-0.0625
1480617568585727,-0.1875,-0.3125,-0.1875
1480617568604777,-0.25,-0.3125,-0.25
1480617568637865,-0.125,-0.125,-0.25
1480617568645385,0,0.0625,-0.125
1480617568668950,0.1875,0.25,0.3125
1480617568698528,-0.4375,0.1875,0.25
1480617568706047,-0.5625,0.0625,-0.125
1480617568727605,-0.125,-0.125,-0.1875
1480617568750165,0.375,-0.4375,-0.0625
1480617568769720,-0.125,-0.8125,0.125
1480617568792276,-0.5625,-0.375,0
1480617568802807,-0.4375,0,0
1480617568838901,0.125,0.1875,0.0625
1480617568847424,0.1875,0.25,0.25
1480617568869987,-0.125,0.25,0.0625
1480617568890037,-0.0625,0.25,0.25
1480617568906580,-0.4375,0.125,0.125
1480617568922625,0,0.125,0.0625
1480617568952202,0.4375,0,-0.1875
1480617568972255,0.1875,-0.0625,-0.0625
1480617569004343,0,0.0625,0.1875
1480617569006847,0.3125,0.25,0.25
1480617569033920,0.3125,0.375,0.0625
1480617569047455,-0.1875,0.1875,0
1480617569065003,-0.5625,0.0625,0.0625
1480617569086562,-0.625,0,0.0625
1480617569114634,-0.125,-0.125,-0.125
1480617569125163,0.125,-0.1875,-0.1875
1480617569152235,0.625,0,-0.0625
1480617569168778,0.4375,0,0.0625
1480617569185323,-0.0625,0.125,-0.0625
1480617569222422,-0.0625,-0.0625,-0.0625
1480617569227434,-0.1875,-0.0625,-0.0625
1480617569253004,-0.5,-0.0625,-0.0625
1480617569273557,-0.125,0.0625,-0.125
1480617569287594,0.125,0,0.0625
1480617569306645,0.3125,-0.125,0
1480617569332214,0.1875,-0.1875,-0.125
1480617569347253,0.3125,-0.0625,-0.1875
1480617569365301,-0.1875,0,-0.125
1480617569395381,-0.125,-0.0625,-0.0625
1480617569407413,-0.125,0.125,0
1480617569424960,0.375,0.25,0.3125
1480617569447521,-0.5625,0.3125,0.1875
1480617569476096,-0.3125,0.25,0
1480617569493141,0.6875,0.125,-0.125
1480617569508182,0.8125,-0.1875,-0.0625
1480617569528235,-0.3125,-0.4375,-0.0625
1480617569545781,-0.75,-0.3125,-0.125
1480617569567849,0,-0.0625,0
1480617569587393,0.5,0.1875,0.1875
1480617569624992,0.1875,0.1875,0.25
1480617569644043,-0.3125,0.0625,0
1480617569648053,0.125,0.0625,0.125
1480617569667606,-0.1875,0,0.0625
1480617569687659,-0.4375,-0.1875,-0.0625
1480617569707210,0.1875,-0.1875,-0.25
1480617569729770,0.5625,0,-0.125
1480617569753835,0.25,-0.125,0
1480617569777898,0.25,0.0625,0.1875
1480617569785922,0.0625,0.1875,0.1875
1480617569809984,-0.5,0.1875,-0.125
1480617569828534,-0.75,0.125,0.0625
1480617569845078,-0.375,-0.0625,0
1480617569867637,0,-0.125,-0.0625
1480617569887692,0.1875,-0.25,-0.125
1480617569906241,0.375,-0.3125,-0.1875
1480617569927798,0.625,-0.3125,-0.125
1480617569947851,0.25,-0.3125,-0.25
1480617569973418,-0.4375,-0.375,-0.125
1480617569986956,0.375,-0.375,0.0625
1480617570008011,0.0625,-0.0625,-0.1875
1480617570025056,-0.5625,0,-0.125
1480617570047115,-0.5,-0.0625,0
1480617570068172,-0.0625,-0.1875,0.0625
1480617570085720,0,-0.1875,0
1480617570107275,0,-0.0625,-0.1875
1480617570129334,0.25,-0.125,-0.1875
1480617570143874,0.5,0.125,-0.0625
1480617570166934,0.0625,0.1875,0.0625
1480617570195510,-0.125,0.25,0.3125
1480617570210549,-0.5,0.0625,0.3125
1480617570242635,-0.875,0,-0.0625
1480617570250155,0.1875,-0.125,-0.1875
1480617570277729,1,-0.125,0
1480617570286752,0.1875,-0.5,0
1480617570309813,-0.75,-0.375,-0.1875
1480617570330368,-0.125,-0.1875,-0.1875
1480617570348417,-0.0625,0,0
1480617570369978,-0.0625,0.25,0.125
1480617570385516,-0.125,0.0625,0.0625
1480617570413088,0.25,0,0.0625
1480617570437155,0,0.0625,0.125
1480617570450688,-0.6875,-0.25,-0.0625
1480617570466733,-0.3125,0,-0.25
1480617570489292,0.5625,0.125,0.0625
1480617570504332,0.375,0.0625,0.3125
1480617570540428,0.0625,0.125,0.1875
1480617570548950,0.375,0.125,0.3125
1480617570571510,-0.25,0.0625,0.1875
1480617570588055,-0.9375,0.0625,0
1480617570609611,-0.75,0.125,-0.125
1480617570630667,-0.3125,0.1875,-0.125
1480617570646710,-0.25,0.1875,-0.3125
1480617570669775,0.375,-0.0625,-0.125
1480617570690326,0.5625,-0.25,-0.0625
1480617570712886,0,-0.125,0
1480617570735447,-0.5,-0.125,-0.125
1480617570750487,-0.75,-0.0625,0.125
1480617570767031,-0.625,0.0625,0.1875
1480617570789590,-0.3125,-0.0625,0
1480617570810647,0.3125,-0.0625,-0.0625
1480617570834209,0.1875,-0.1875,-0.125
1480617570851756,0.0625,0,0.0625
1480617570887351,-0.1875,0,0
1480617570889857,-0.0625,0,-0.0625
1480617570916929,-0.125,0,-0.0625
1480617570930465,0.375,0.375,0.25
1480617570947009,0,0.5625,0.3125
1480617570969575,-0.25,0.25,0.1875
1480617570991126,-0.125,-0.0625,-0.125
1480617571008172,0.75,-0.125,0
1480617571030230,1,-0.25,0
1480617571050284,0.1875,-0.25,0
1480617571074348,-0.3125,-0.875,-0.375
1480617571089481,0.8125,0.6875,-0.1875
1480617571111948,-1.6875,0.4375,0.125
1480617571126988,0.5,0.3125,0.3125
1480617571149551,0.875,0.1875,0.5625
1480617571172608,1.5,0.4375,-0.125
1480617571187148,-0.5625,0.125,-0.1875
1480617571209707,-0.3125,-0.3125,-0.3125
1480617571231767,0.625,0.25,-0.0625
1480617571246306,-0.75,0.3125,-0.25
1480617571269873,-0.5625,0.0625,0.0625
1480617571291927,0.75,0,0.1875
1480617571308471,1,0.125,0.125
1480617571329527,-0.0625,0.1875,-0.125
1480617571359607,-0.875,0.25,-0.3125
1480617571380663,-0.4375,0.1875,-0.0625
1480617571389187,0.0625,-0.0625,-0.0625
1480617571412748,0,0.0625,-0.0625
1480617571426284,-0.1875,0.125,-0.1875
1480617571449346,0.3125,0.0625,-0.0625
1480617571471905,0.375,0.0625,-0.0625
1480617571486447,-0.0625,0,-0.125
1480617571509505,-0.5,-0.125,-0.0625
1480617571532065,-0.25,-0.0625,0.0625
1480617571546103,-0.125,0,0.125
1480617571569667,0,0,0.125
1480617571591725,-0.3125,0,-0.0625
1480617571612780,-0.125,0,-0.0625
1480617571629826,0.0625,0.125,-0.125
1480617571666925,-0.25,0.0625,-0.125
1480617571672941,0.3125,0,-0.125
1480617571689484,0.3125,0.1875,-0.125
1480617571712044,0.3125,0.375,0.0625
1480617571733100,-0.625,0.3125,0.25
1480617571749645,-0.5,0.1875,0
1480617571772706,0.0625,0.125,-0.0625
1480617571794263,0.375,-0.0625,-0.0625
1480617571810306,0.9375,-0.125,-0.125
1480617571831863,-0.0625,-0.25,-0.125
1480617571860439,-0.375,-0.125,-0.125
1480617571869467,-0.125,0.0625,0
1480617571892023,-0.0625,0.1875,0.25
1480617571913080,-0.4375,0.1875,0.125
1480617571929625,-0.4375,0.125,-0.0625
1480617571952687,0.4375,0.1875,0.0625
1480617571974744,0,-0.0625,0
1480617571989283,-0.375,-0.125,-0.0625
1480617572011843,-0.1875,0,-0.125
1480617572034402,0.25,-0.0625,0
1480617572057464,0.1875,-0.0625,0.1875
1480617572079523,0.0625,0,0.0625
1480617572103586,0.1875,0.0625,-0.0625
1480617572109601,-0.125,0.0625,0.0625
1480617572131661,-0.3125,0.1875,0.0625
1480617572154222,-0.5625,-0.0625,-0.0625
1480617572168760,-0.3125,-0.0625,-0.0625
1480617572193826,-0.0625,-0.1875,-0.125
1480617572238444,0.3125,-0.125,-0.125
1480617572242956,0.125,0,-0.125
1480617572260002,0.1875,0.0625,-0.0625
1480617572274541,0.0625,-0.0625,-0.125
1480617572288580,0.125,-0.1875,-0.0625
1480617572312141,0,-0.1875,0.0625
1480617572335203,-0.125,-0.125,-0.0625
1480617572348738,0,-0.0625,-0.0625
1480617572377815,0.25,-0.125,-0.125
1480617572401879,0.0625,-0.1875,-0.125
1480617572416920,0.125,-0.125,-0.125
1480617572431959,0.3125,-0.0625,-0.125
1480617572454521,0.125,0,-0.1875
1480617572468558,0.25,0,-0.0625
1480617572493123,-0.25,0.125,-0.0625
1480617572514179,0,0.375,0.1875
1480617572542754,-0.1875,0.1875,0.125
1480617572553784,-0.375,-0.0625,-0.125
1480617572590882,-0.3125,-0.3125,-0.1875
1480617572596898,0.75,-0.3125,-0.125
1480617572611938,0.75,-0.5625,-0.0625
1480617572634500,-0.5,-0.5,-0.1875
1480617572655555,-0.4375,-0.25,-0.1875
1480617572672098,0.0625,0.0625,0
1480617572694157,-0.125,0.125,0.3125
1480617572715714,-0.4375,0.0625,0
1480617572740280,0.0625,0.0625,-0.125
1480617572754317,0.5,0.0625,0
1480617572782893,-0.3125,-0.1875,-0.125
1480617572791917,-0.0625,-0.1875,-0.1875
1480617572814477,0.5,-0.0625,-0.125
1480617572835535,0.5,0,0.125
1480617572852078,0.125,0.125,0.125
1480617572875139,-0.0625,0.125,0
1480617572904717,0,0,-0.0625
1480617572911735,-0.25,-0.1875,0.0625
1480617572940312,-0.5,-0.3125,-0.0625
1480617572956856,-0.1875,-0.1875,-0.1875
1480617572971896,0,-0.1875,-0.25
1480617572994458,0.0625,-0.125,-0.1875
1480617573040578,0.25,-0.25,-0.0625
1480617573046093,0.0625,-0.375,-0.0625
1480617573057124,-0.3125,-0.375,-0.1875
1480617573076674,-0.1875,-0.3125,-0.1875
1480617573091715,-0.25,-0.25,-0.0625
1480617573114275,-0.125,-0.125,-0.0625
1480617573136835,-0.1875,-0.1875,-0.0625
1480617573151374,0.25,-0.1875,-0.125
1480617573188473,0.3125,-0.1875,-0.0625
1480617573220559,-0.125,-0.3125,-0.125
1480617573235097,-0.4375,-0.25,-0.125
1480617573237603,0.25,0.125,-0.0625
1480617573257657,0.5,0.125,0.125
1480617573271693,0.4375,0.125,0.1875
1480617573294755,0.1875,-0.0625,-0.0625
1480617573322830,0,-0.125,-0.0625
1480617573332356,-0.375,-0.25,0.0625
1480617573360930,-1.125,-0.1875,0.0625
1480617573383993,-0.8125,0.25,0.0625
1480617573392515,0.375,0.1875,0.125
1480617573414574,1.6875,-0.0625,-0.0625
1480617573437134,1.3125,-0.4375,-0.25
1480617573457689,0.125,-0.25,-0.3125
1480617573474233,-0.375,0.0625,-0.0625
1480617573496792,-0.5,0.5,0.375
1480617573518855,-0.75,0.5625,0.3125
1480617573540408,-0.5625,0.125,0.1875
1480617573556954,0,-0.0625,0
1480617573580014,-0.1875,-0.125,-0.125
1480617573602073,-0.5625,-0.125,-0.125
1480617573617615,-0.3125,-0.0625,-0.25
1480617573637667,0,-0.0625,-0.0625
1480617573669752,-0.125,-0.0625,0
1480617573677777,-0.375,-0.0625,0
1480617573700835,-0.4375,0.0625,0.125
1480617573714372,-0.75,0.0625,0.125
1480617573736932,-0.875,0.1875,-0.1875
1480617573765507,-0.1875,0.125,0
1480617573774530,0.0625,0.125,0.0625
1480617573804111,-0.125,-0.0625,-0.125
1480617573819654,0.1875,0.0625,0
1480617573834192,0.5,0.3125,0
1480617573856751,0.0625,0.1875,0.0625
1480617573879310,0.3125,0.125,0.0625
1480617573894350,0.0625,-0.0625,0.125
1480617573917913,-0.1875,-0.125,0.0625
1480617573939470,-0.25,0,-0.1875
1480617573954011,0,0,-0.125
1480617573978073,0.375,-0.0625,0.0625
1480617573999129,0.25,-0.125,-0.125
1480617574014169,0,-0.0625,-0.25
1480617574044248,0.0625,0.25,-0.1875
1480617574059289,0.125,0.1875,-0.0625
1480617574073834,0.0625,0.0625,0.125
1480617574096889,-0.1875,0.1875,-0.0625
1480617574126969,0.125,0.3125,0.125
1480617574140505,-0.125,0.1875,0.3125
1480617574157050,-0.4375,0.0625,0.125
1480617574179609,-0.1875,-0.0625,-0.0625
1480617574193647,1.0625,-0.0625,0
1480617574224228,0.8125,-0.1875,0
1480617574239268,-0.875,-0.125,-0.0625
1480617574253806,-1.1875,-0.1875,0
1480617574277369,-0.375,0,0.125
1480617574299428,-0.125,0.3125,0.3125
1480617574313966,-0.125,0.375,0.25
1480617574337030,0,0.3125,0.25
1480617574360089,-0.1875,0.25,0.0625
1480617574380644,-0.3125,0.125,0.125
1480617574404206,-0.375,0.0625,0
1480617574420250,-0.3125,0,0
1480617574442308,-0.125,0,0.125
1480617574462864,0.125,0.0625,0.25
1480617574486926,0,0.125,0.25
1480617574500463,-0.3125,0.1875,0.125
1480617574523022,-0.6875,0.4375,0.0625
1480617574539567,-0.5625,0.4375,0.1875
1480617574560623,-0.1875,0.375,0.1875
1480617574577166,0.125,0,-0.0625
1480617574606745,-0.1875,-0.1875,-0.125
1480617574620282,-0.1875,-0.1875,-0.125
1480617574636826,0,0,0
1480617574659385,-0.5,0.3125,0.25
1480617574680442,-0.125,-0.4375,0.375
1480617574696985,2.125,0,-0.0625
1480617574719546,-0.4375,0.0625,-0.1875
1480617574748623,-1.0625,-0.1875,-0.4375
1480617574763161,-0.5625,-0.3125,0.125
1480617574779204,0.5625,-0.0625,0.1875
1480617574800761,0,0,0.0625
1480617574816804,0.375,0,-0.1875
1480617574839364,0.4375,0.125,-0.1875
1480617574860420,0.4375,0.25,-0.0625
1480617574884989,0,0.1875,0
1480617574902033,-0.5,-0.0625,0
1480617574923089,-0.375,0,-0.1875
1480617574937130,0.5625,0,-0.0625
1480617574966703,0.9375,-0.0625,0.0625
1480617574981743,0.1875,-0.4375,0
1480617574996783,-0.5625,-0.3125,-0.125
1480617575019343,-0.3125,-0.0625,-0.125
1480617575047919,-0.0625,0.0625,-0.0625
1480617575056943,0.0625,0.125,0.0625
1480617575081508,0.125,0.125,0.1875
1480617575108079,0.0625,0.1875,0.0625
1480617575116100,-0.0625,-0.0625,-0.0625
1480617575139161,0.1875,-0.0625,-0.125
1480617575161722,0.0625,-0.1875,-0.1875
1480617575176260,-0.125,-0.1875,0
1480617575199322,0,-0.125,0.0625
1480617575222383,-0.0625,-0.0625,-0.0625
1480617575244441,-0.3125,0,0.0625
1480617575273017,-0.4375,0.0625,0.0625
1480617575282042,-0.5,-0.125,0
1480617575304602,-0.3125,-0.125,-0.1875
1480617575319642,0,-0.1875,-0.25
1480617575342202,0,-0.125,-0.1875
1480617575363258,0.3125,-0.0625,-0.125
1480617575379801,0.1875,-0.0625,-0.125
1480617575401863,0.0625,-0.125,-0.125
1480617575422917,-0.1875,-0.0625,-0.375
1480617575439461,0.375,-0.25,-0.3125
1480617575462021,0.75,-0.25,-0.25
1480617575483077,0.1875,-0.3125,-0.25
1480617575499621,-0.0625,-0.3125,-0.3125
1480617575543237,0.25,-0.5,-0.3125
1480617575560783,0.0625,-0.375,-0.25
1480617575566299,0.1875,-0.1875,-0.25
1480617575581840,0.25,-0.125,-0.25
1480617575602895,0.3125,0.1875,-0.125
1480617575619440,0.0625,0.375,0
1480617575649519,-0.375,0.4375,-0.0625
1480617575664559,-0.0625,0.5625,-0.25
1480617575680100,0.125,0.5,-0.25
1480617575708175,0.375,0.375,-0.4375
1480617575722716,0.0625,0.0625,-0.4375
1480617575739259,0.0625,-0.125,-0.5
1480617575761818,0.5,-0.25,-0.3125
1480617575782874,0.25,-0.25,-0.0625
1480617575800422,-0.5,-0.125,-0.1875
1480617575823485,-0.5,-0.125,0
1480617575845040,-0.5,0.0625,0.0625
1480617575868606,-0.5,0.0625,-0.0625
1480617575881636,-0.0625,0.125,-0.25
1480617575904197,0.875,0.0625,-0.3125
1480617575919237,1.25,-0.125,-0.0625
1480617575943802,0.625,-0.0625,0
1480617575964357,0,0,0.0625
1480617575985915,-0.3125,0.1875,0
1480617576002461,-0.75,0.1875,-0.0625
1480617576024517,-0.625,0.1875,-0.125
1480617576038554,-0.125,0.0625,-0.1875
1480617576061616,0.3125,-0.1875,-0.25
1480617576084677,0.625,-0.125,-0.25
1480617576098716,0.3125,-0.3125,-0.3125
1480617576121777,0.1875,-0.1875,-0.25
1480617576144837,0.0625,-0.1875,-0.125
1480617576158874,-0.375,-0.25,0
1480617576181936,-0.3125,-0.25,-0.0625
1480617576204496,0.25,-0.25,-0.1875
1480617576218536,0.25,-0.375,-0.1875
1480617576241594,0.5,-0.4375,-0.0625
1480617576264155,0.75,-0.5,-0.0625
1480617576285213,0.8125,-0.375,0.0625
1480617576302259,0.375,-0.6875,0
1480617576331834,-0.0625,-0.75,-0.3125
1480617576345371,0.375,-0.5,-0.1875
1480617576361915,0.4375,-0.3125,0.125
1480617576384475,-0.1875,-0.375,0.25
1480617576405530,-0.4375,-0.5,-0.125
1480617576422075,0,-0.875,-0.3125
1480617576444133,0.9375,-0.9375,-0.3125
1480617576467696,0.625,-1.0625,-0.3125
1480617576482736,-0.1875,-0.75,-0.3125
1480617576504294,-0.375,-0.375,-0.25
1480617576525350,-0.3125,0,-0.0625
1480617576542395,-0.25,0,0
1480617576565457,0.3125,-0.1875,0.1875
1480617576601051,-0.1875,-0.5,0.0625
1480617576610075,-0.9375,-0.6875,-0.125
1480617576630629,0.125,-0.625,-0.3125
1480617576645169,1,-0.6875,-0.1875
1480617576662214,1.0625,-0.625,-0.0625
1480617576684273,0.4375,-0.8125,-0.0625
1480617576705328,0,-0.625,-0.0625
1480617576721873,0,-0.6875,-0.125
1480617576744432,0.125,-0.5,0
1480617576766995,0.0625,-0.375,0
1480617576782034,-0.125,-0.375,-0.125
1480617576804593,-0.125,-0.5,-0.25
1480617576829158,-0.125,-0.625,-0.1875
1480617576841691,0.5625,-0.8125,-0.0625
1480617576864251,0.4375,-0.875,0
1480617576886811,-0.25,-0.75,-0.3125
1480617576901855,-0.875,-0.6875,-0.5
1480617576924411,-0.5,-0.6875,-0.4375
1480617576948475,-0.375,-0.6875,-0.1875
1480617576961511,-0.125,-0.75,0
1480617576991590,-0.25,-0.75,-0.1875
1480617577014150,-0.375,-0.6875,-0.3125
1480617577029190,-0.0625,-0.6875,-0.0625
1480617577045232,0.1875,-0.5625,0
1480617577066791,-0.375,-0.5,-0.125
1480617577082332,0,-0.375,0.125
1480617577104891,-0.4375,-0.3125,0.1875
1480617577134470,-0.5,-0.375,-0.0625
1480617577157030,-0.0625,-0.625,-0.375
1480617577165053,0.5625,-1,-0.3125
1480617577187613,0.5625,-1.125,-0.0625
1480617577201149,-0.4375,-0.9375,0.1875
1480617577225713,-0.9375,-0.5625,0.125
1480617577247772,-0.375,-0.375,-0.0625
1480617577268330,-0.3125,-0.375,-0.3125
1480617577284873,-0.0625,-0.5,-0.0625
1480617577307430,0.375,-0.4375,0.1875
1480617577327985,-0.5,-0.4375,0.125
1480617577344529,-0.4375,-0.4375,-0.25
1480617577381126,0.25,-0.3125,-0.4375
1480617577388145,0.6875,-0.375,-0.125
1480617577404187,0.25,-0.4375,-0.125
1480617577426747,0,-0.5,0
1480617577448807,-0.1875,-0.5,-0.25
1480617577472369,-0.375,-0.625,-0.4375
1480617577494428,-0.25,-0.5625,-0.4375
1480617577507963,-0.3125,-0.6875,-0.375
1480617577524508,-0.375,-0.6875,-0.25
1480617577547068,-0.25,-0.6875,-0.3125
1480617577567623,0.1875,-0.5625,-0.25
1480617577584672,0.5625,-0.4375,-0.125
1480617577607228,0.3125,-0.375,-0.1875
1480617577627783,-0.375,-0.375,-0.625
1480617577652348,-0.375,-0.375,-0.5
1480617577666887,0,-0.25,-0.5
1480617577689447,0.125,-0.3125,-0.1875
1480617577704488,0.125,-0.4375,-0.0625
1480617577727548,0.375,-0.375,-0.1875
1480617577749608,0.125,-0.25,-0.0625
1480617577764145,-0.125,0,0.1875
1480617577787709,-1,-0.1875,-0.125
1480617577809265,-0.5625,-0.3125,-0.375
1480617577825308,0.1875,-0.375,-0.375
1480617577854887,0.8125,-0.5,0.25
1480617577875441,0.625,-0.5,0.375
1480617577884975,0.25,-0.375,0.1875
1480617577907025,-0.1875,-0.1875,0.0625
1480617577930086,-0.4375,0.0625,0
1480617577943622,-0.625,0.0625,0.25
1480617577966686,-0.5,-0.125,0.3125
1480617577989244,0.375,-0.0625,0.4375
1480617578011804,-0.125,-0.0625,0.25
1480617578028849,0.0625,0.125,0.125
1480617578049404,0.5,0.25,0
1480617578063943,0,0.0625,0.0625
1480617578094022,-0.1875,0,0.0625
1480617578116583,0,0.1875,0.3125
1480617578126108,-0.375,-0.125,0.375
1480617578148166,-0.875,-0.3125,0.1875
1480617578169724,-0.5,-0.3125,0
1480617578190279,-0.1875,-0.1875,0
1480617578212839,-0.0625,-0.1875,0.0625
1480617578229884,-0.25,-0.1875,0.0625
1480617578250440,0.1875,-0.0625,0.0625
1480617578268992,0.1875,0,0.0625
1480617578289544,-0.125,-0.0625,0.1875
1480617578310598,-0.3125,-0.1875,0
1480617578326641,-0.25,-0.125,-0.125
1480617578356722,-0.3125,-0.1875,-0.125
1480617578370759,0.25,-0.125,0.1875
1480617578409863,0.25,-0.125,0.25
1480617578413373,0.375,0.125,0.3125
1480617578430417,-0.375,0.125,0.1875
1480617578447463,-0.375,0.125,-0.1875
1480617578470525,0.3125,-0.125,-0.3125
1480617578492584,0.75,-0.375,-0.0625
1480617578507121,0.625,-0.5625,0.0625
1480617578529682,0.0625,-0.375,0.0625
1480617578551743,-0.125,0,0.1875
1480617578574300,-0.1875,-0.0625,-0.125
1480617578590847,-0.25,0.125,0
1480617578634965,-0.0625,0,0.125
1480617578637468,0.25,-0.0625,0.25
1480617578664541,0.5,0,0.25
1480617578673064,0,-0.0625,0.1875
1480617578694119,0.5625,0.125,-0.0625
1480617578709158,0.625,0.0625,0.0625
1480617578731719,-0.0625,0,0.25
1480617578746759,-0.625,0.1875,0.25
1480617578769319,-0.3125,0.1875,0.1875
1480617578791883,-0.125,0,0.25
1480617578814941,-0.125,-0.125,0.125
1480617578836999,-0.3125,-0.0625,0.125
1480617578858056,-0.375,-0.125,0
1480617578873095,-0.375,-0.25,-0.1875
1480617578889639,-0.1875,-0.3125,-0.125
1480617578911698,0.125,-0.125,-0.0625
1480617578926236,0.25,0,0.0625
1480617578955314,-0.125,0,0.0625
1480617578972359,-0.375,-0.0625,0.0625
1480617578994920,-0.0625,-0.125,0.0625
1480617579009459,-0.0625,-0.0625,0.1875
1480617579032018,0.3125,0.125,0.4375
1480617579046056,-0.375,0.0625,0.25
1480617579070119,-0.5,-0.125,-0.125
1480617579092679,0.375,-0.0625,-0.0625
1480617579106215,0.9375,-0.125,0.0625
1480617579129279,0.25,-0.4375,-0.0625
1480617579159859,-0.5625,-0.3125,-0.125
1480617579172892,-0.25,0,-0.125
1480617579189437,0.125,0.0625,0.0625
1480617579211997,0.25,0.0625,0.3125
1480617579242076,0.125,-0.0625,0.3125
1480617579251605,0.25,0.0625,0.0625
1480617579271656,0.3125,0.125,0
1480617579292713,-0.375,-0.125,0
1480617579309256,-0.125,-0.25,-0.0625
1480617579331817,0.75,-0.0625,0.125
1480617579353373,0.375,0,0.125
1480617579375432,0.1875,-0.0625,0.3125
1480617579392478,-0.25,0.1875,0.375
1480617579415037,-0.75,-0.25,0.1875
1480617579430079,1.375,-0.375,0.4375
1480617579458152,0.1875,0.0625,-0.1875
1480617579474195,-1,0.25,-0.125
1480617579490237,-0.8125,-0.0625,0
1480617579511794,0.375,-0.1875,0.3125
1480617579532850,0.4375,-0.1875,0.0625
1480617579556413,-0.3125,0,0.0625
1480617579573960,-0.25,0.125,-0.125
1480617579601035,-0.1875,0,0
1480617579608553,-0.125,-0.125,0.125
1480617579631613,-0.0625,-0.1875,0.0625
1480617579654174,-0.25,0.0625,0.1875
1480617579669213,0.0625,0.3125,0.3125
1480617579691773,0,0.125,0.375
1480617579721856,-0.1875,-0.1875,0.1875
1480617579752936,-0.125,-0.3125,-0.0625
1480617579774994,0.8125,-0.0625,0.0625
1480617579777501,0.6875,-0.25,0.125
1480617579788532,-0.25,-0.1875,0.0625
1480617579812094,-0.4375,0,-0.1875
1480617579840669,-0.0625,0.1875,-0.25
1480617579865235,-0.125,0.125,0
1480617579879272,0.25,0.125,0.1875
1480617579894312,0.4375,-0.0625,0.1875
1480617579915368,0.75,0.125,0.25
1480617579932413,-0.1875,-0.125,0.1875
1480617579969014,-0.1875,-0.125,0.1875
1480617579971518,0.4375,0.0625,0.25
1480617579992575,0,0.125,0.0625
1480617580014131,-0.125,0.0625,0.125
1480617580029171,0.25,0.0625,0.25
1480617580051734,0,0,0.3125
1480617580074294,-0.6875,0,-0.0625
1480617580088830,-0.6875,-0.125,-0.125
1480617580111891,-0.1875,0,0.125
1480617580134456,-0.1875,-0.1875,0
1480617580155508,-0.125,-0.1875,-0.125
1480617580178568,0.125,-0.3125,-0.1875
1480617580197118,0.125,-0.125,0.125
1480617580215166,-0.5,-0.0625,0.0625
1480617580237726,-0.5625,-0.0625,0.0625
1480617580270814,-0.0625,0,0.1875
1480617580275326,-0.125,0,0.3125
1480617580291870,0.0625,-0.125,0.1875
1480617580314431,0.25,-0.125,0
1480617580344009,0.3125,-0.0625,0.125
1480617580352531,0,0.0625,0.0625
1480617580380606,0,0.25,0.375
1480617580396649,-0.25,0.1875,0.3125
1480617580411688,0.0625,0.1875,0.25
1480617580434252,-0.1875,-0.0625,0.125
1480617580455304,0.25,0,0
1480617580472851,0.75,-0.25,0
1480617580494910,0.25,-0.4375,-0.1875
1480617580518472,-0.1875,-0.3125,-0.125
1480617580532009,-0.125,-0.0625,0
1480617580556574,0,0.125,0.375
1480617580577128,0,0.1875,0.4375
1480617580591668,0,-0.0625,0.25
1480617580621748,0,-0.0625,0.0625
1480617580638292,0.125,-0.125,0
1480617580665865,-0.1875,-0.1875,0.0625
1480617580681406,0.25,-0.0625,0.125
1480617580696948,0.375,0,0.125
1480617580711987,0.4375,0,0.1875
1480617580734549,-0.0625,0.0625,0
1480617580758110,0.125,-0.125,0.125
1480617580779166,-0.3125,-0.1875,0.1875
1480617580795210,-0.5,0,0.125
1480617580839827,-0.25,0,0
1480617580855871,0,-0.125,0.0625
1480617580860382,-0.25,-0.25,0.0625
1480617580884446,-0.25,-0.1875,-0.0625
1480617580891466,0.25,-0.125,0
1480617580914526,0.4375,-0.125,0.0625
1480617580936585,-0.25,-0.0625,0.125
1480617580953631,-0.625,-0.25,0.125
1480617580981705,-0.125,-0.0625,0.0625
1480617580996745,-0.0625,-0.25,0.125
1480617581011284,-0.3125,0,0
1480617581034364,0.0625,0.0625,0.0625
1480617581058409,0.1875,0.0625,-0.0625
1480617581077961,0.25,-0.0625,0
1480617581108040,0.125,0.0625,-0.0625
1480617581123084,-0.125,0,-0.0625
1480617581138121,0,0.125,0
1480617581154165,0.0625,0.125,0.25
1480617581176724,-0.3125,0.25,0.375
1480617581197780,-0.1875,0.1875,0.25
1480617581214324,-0.4375,0.125,0.125
1480617581243902,-0.125,-0.25,0.1875
1480617581265460,0.8125,-0.125,0.1875
1480617581282505,0.4375,-0.375,0.125
1480617581298549,-0.375,-0.375,-0.1875
1480617581318099,0.0625,-0.25,-0.125
1480617581334146,0.125,-0.125,0.375
1480617581365727,-0.25,0.125,0.375
1480617581377758,-0.625,0.25,0.0625
1480617581394303,0.1875,0.375,-0.0625
1480617581424884,0.4375,0.1875,0.125
1480617581437919,-0.125,0,0.0625
1480617581455512,-0.0625,-0.0625,-0.125
1480617581477023,0.1875,0.0625,-0.125
1480617581499081,0.3125,-0.0625,0.1875
1480617581514121,-0.0625,0,-0.0625
1480617581544202,0.375,-0.0625,0.125
1480617581559241,0,0.0625,0.0625
1480617581574282,-0.4375,0.0625,-0.0625
1480617581604362,-0.25,-0.125,-0.1875
1480617581626420,0.3125,0.1875,-0.1875
1480617581637451,0.3125,0.1875,-0.125
1480617581663018,-0.125,0.25,-0.1875
1480617581679562,-0.125,0.375,-0.1875
1480617581693599,0,0.5625,-0.1875
1480617581717163,-0.25,0.5,0
1480617581739722,-0.1875,0.4375,0.125
1480617581760778,-0.125,0.3125,0.1875
1480617581782837,-0.0625,0.125,0
1480617581822442,0.0625,0,-0.0625
1480617581824949,0.1875,0.125,-0.25
1480617581836980,0.25,0.0625,-0.0625
1480617581860042,0.625,0.1875,-0.1875
1480617581873578,0.125,0.5,-0.25
1480617581910176,-0.75,0.25,0.0625
1480617581926719,0.0625,0.3125,-0.0625
1480617581940255,0.6875,0.25,0.1875
1480617581956800,0.5625,0.1875,-0.0625
1480617581979359,0.1875,0.4375,0.0625
1480617581993898,0.25,0.5,0.1875
1480617582016959,0.4375,0.25,0.4375
1480617582039519,-0.1875,0.0625,0.3125
1480617582060575,-0.25,-0.375,-0.1875
1480617582077120,0.6875,-0.75,-0.1875
1480617582102687,0.5,-0.8125,-0.3125
1480617582121238,-0.5625,-0.875,-0.5
1480617582137279,0.3125,-0.625,-0.5
1480617582159337,0.5,-0.3125,-0.3125
1480617582180895,-0.0625,-0.1875,-0.25
1480617582196938,-0.625,-0.0625,-0.1875
1480617582219999,0.3125,0,-0.25
1480617582241055,0.625,0,-0.25
1480617582256597,0.5625,0,-0.25
1480617582281664,0.9375,0.375,-0.3125
1480617582301717,1.1875,0.5,-0.1875
1480617582316761,0.5625,0.25,-0.125
1480617582345332,0.25,0.0625,-0.125
1480617582360379,0.25,0,-0.25
1480617582376916,0.25,-0.0625,-0.0625
1480617582399477,0,0,0
1480617582420535,-0.125,-0.0625,0
1480617582438079,0.0625,-0.1875,-0.125
1480617582459136,-0.375,-0.25,-0.0625
1480617582482197,-0.9375,-0.1875,0.0625
1480617582504756,-0.875,0,0.125
1480617582519797,-0.0625,0.125,0.0625
1480617582542358,0.3125,0.0625,0
1480617582564415,-0.125,0.0625,-0.125
1480617582579456,-0.1875,-0.0625,-0.0625
1480617582602015,0,-0.125,0.125
1480617582616555,-0.3125,-0.25,0.0625
1480617582646634,-0.375,-0.25,0.0625
1480617582661675,-0.4375,-0.1875,0.0625
1480617582676213,-0.5,-0.0625,0.125
1480617582699275,-0.1875,0,0.125
1480617582729354,0.0625,-0.0625,-0.0625
1480617582736374,0.3125,-0.0625,-0.1875
1480617582759435,0.625,0.0625,0
1480617582781995,0.625,0.25,0.125
1480617582796032,-0.1875,0.25,-0.125
1480617582820096,-0.375,0.4375,-0.0625
1480617582844160,-0.5625,0.0625,0.1875
1480617582856192,-0.25,0.0625,0.0625
1480617582879253,-0.125,-0.375,-0.1875
1480617582901813,0.75,-0.125,-0.3125
1480617582907327,0.375,-0.3125,0
1480617582931393,0.5,-0.375,-0.0625
1480617582944928,0.0625,-0.375,0
1480617582967491,-0.0625,-0.3125,-0.375
1480617582985536,-0.625,-0.125,-0.0625
1480617583005589,-0.3125,0.125,0.125
1480617583027146,0.3125,0.125,0.25
1480617583046197,0.375,0.125,0.0625
1480617583064747,-0.375,-0.1875,-0.1875
1480617583087308,0.0625,0,-0.1875
1480617583105355,-0.125,0,-0.0625
1480617583124906,0.375,-0.1875,0
1480617583150980,0.0625,-0.1875,0.125
1480617583178549,-0.0625,0,-0.125
1480617583184565,0.3125,0.0625,0.0625
1480617583214646,-0.5625,0.125,0.0625
1480617583246731,-0.5,0,0
1480617583249237,-0.125,0,0.0625
1480617583274806,0.1875,-0.25,-0.125
1480617583293355,-0.375,-0.375,-0.25
1480617583308394,0.25,-0.4375,-0.25
1480617583327445,0.5,-0.375,-0.0625
1480617583350010,0.1875,-0.125,-0.0625
1480617583367556,-0.125,-0.0625,-0.1875
1480617583387115,-0.1875,0,-0.25
1480617583409664,-0.25,0,-0.0625
1480617583441248,0.0625,0,0.0625
1480617583454784,-0.1875,-0.125,-0.125
1480617583471328,-0.0625,-0.1875,-0.1875
1480617583487873,0.125,-0.125,-0.125
1480617583507424,0.375,0,-0.125
1480617583529985,0.1875,-0.125,-0.125
1480617583569088,-0.125,-0.125,-0.25
1480617583571595,0.0625,-0.125,-0.125
1480617583589643,0.1875,0,-0.0625
1480617583604683,-0.0625,0,0
1480617583627243,-0.3125,-0.0625,-0.125
1480617583650306,0.4375,0.25,0.125
1480617583664843,0.1875,0.125,0.375
1480617583687405,-0.25,0.125,0.125
1480617583712470,-0.1875,0.0625,0.0625
1480617583729014,0.3125,0,-0.0625
1480617583763605,0.375,-0.1875,-0.3125
1480617583769623,-0.25,-0.25,-0.25
1480617583792182,-0.3125,-0.1875,-0.1875
1480617583807222,-0.125,-0.3125,-0.1875
1480617583829782,-0.25,-0.125,0
1480617583847830,-0.125,0.0625,0.0625
1480617583876407,0.125,0.25,0.1875
1480617583889440,-0.25,0.1875,0.125
1480617583904481,-0.625,-0.0625,-0.0625
1480617583934562,-0.0625,-0.1875,-0.125
1480617583952108,0.1875,-0.1875,-0.1875
1480617583967651,0.0625,-0.25,-0.0625
1480617583987201,-0.0625,-0.125,0.0625
1480617584009760,0,0.0625,0.1875
1480617584026305,-0.1875,0.0625,0.0625
1480617584047361,-0.5,0.1875,-0.0625
1480617584077942,-0.375,0,-0.125
1480617584085964,-0.0625,0,-0.125
1480617584107019,-0.3125,-0.125,-0.1875
1480617584129580,-0.0625,-0.1875,-0.125
1480617584146123,0.0625,-0.1875,0
1480617584167183,0,-0.1875,-0.0625
1480617584189858,0.0625,-0.125,-0.1875
1480617584207787,-0.125,-0.0625,-0.125
1480617584230347,0.1875,0,-0.0625
1480617584249904,0.125,-0.0625,0
1480617584266446,-0.0625,-0.25,-0.0625
1480617584288502,-0.25,-0.3125,-0.125
1480617584309558,-0.125,-0.25,-0.125
1480617584326102,0,-0.1875,-0.0625
1480617584347159,0.125,0,-0.1875
1480617584369718,0.3125,0,-0.1875
1480617584392279,0.375,0.125,-0.125
1480617584407318,0.125,0,-0.125
1480617584429879,0,0.0625,-0.125
1480617584447425,-0.4375,0,-0.1875
1480617584469985,-0.125,0.1875,0.0625
1480617584491041,0.1875,0,0.1875
1480617584524129,0.375,0.0625,0.0625
1480617584528643,0.25,-0.0625,-0.1875
1480617584549698,0.5,-0.1875,-0.1875
1480617584567745,0.375,-0.3125,-0.0625
1480617584587299,-0.3125,-0.4375,-0.1875
1480617584609857,-0.3125,-0.3125,-0.25
1480617584627404,0.0625,-0.0625,-0.125
1480617584647457,-0.4375,0.125,-0.0625
1480617584669516,-0.375,0.0625,-0.1875
1480617584693580,0.1875,0.0625,-0.125
1480617584708619,0.3125,0,-0.0625
1480617584729675,0,-0.125,-0.0625
1480617584761260,0.125,-0.125,-0.3125
1480617584774796,0.0625,-0.1875,-0.375
1480617584791340,0,-0.0625,-0.125
1480617584815405,0.0625,-0.0625,0.0625
1480617584827436,0.0625,0.1875,0.125
1480617584849996,-0.125,0.1875,0.0625
1480617584872055,-0.5,0.25,-0.125
1480617584887095,-0.25,0.1875,-0.125
1480617584909654,-0.0625,-0.0625,-0.1875
1480617584932217,-0.25,0,-0.1875
1480617584947256,-0.3125,-0.125,-0.1875
1480617584969815,-0.375,-0.125,-0.3125
1480617584992375,0.0625,-0.125,-0.1875
1480617585009921,-0.3125,-0.1875,-0.1875
1480617585049025,-0.5,-0.125,-0.1875
1480617585069582,-0.5625,0,-0.0625
1480617585072087,-0.625,-0.125,-0.125
1480617585089633,-0.375,-0.3125,-0.125
1480617585112194,0,-0.4375,-0.125
1480617585128737,-0.125,-0.625,-0.25
1480617585151298,0.125,-0.625,-0.125
1480617585172353,0,-0.375,-0.125
1480617585188900,-0.0625,-0.1875,-0.0625
1480617585209453,-0.375,-0.1875,-0.1875
1480617585232012,-0.4375,-0.3125,-0.3125
1480617585248557,-0.25,-0.25,-0.25
1480617585269612,0.1875,-0.1875,-0.125
1480617585293677,-0.0625,-0.375,-0.0625
1480617585317742,-0.125,-0.375,-0.1875
1480617585331277,-0.0625,-0.5,-0.125
1480617585352333,0.4375,-0.8125,-0.0625
1480617585369879,0.1875,-0.9375,-0.1875
1480617585389936,-0.625,-0.875,-0.375
1480617585419511,-0.4375,-0.6875,-0.375
1480617585438562,0.3125,-0.4375,-0.0625
1480617585449595,0.4375,-0.375,0.0625
1480617585472152,0,-0.375,-0.3125
1480617585490201,0.25,-0.3125,-0.0625
1480617585509751,-0.1875,-0.5625,-0.0625
1480617585533316,-0.3125,-0.75,-0.0625
1480617585550861,-0.0625,-0.625,-0.5
1480617585569911,0.1875,-0.5625,-0.5
1480617585595479,0.4375,-0.4375,-0.25
1480617585633581,0.375,-0.375,-0.125
1480617585637090,0.125,-0.375,-0.25
1480617585652130,-0.25,-0.5625,-0.375
1480617585670178,-0.5,-0.5,-0.25
1480617585689730,-0.25,-0.625,-0.125
1480617585712290,-0.125,-0.625,-0.25
1480617585731842,-0.3125,-0.75,-0.5625
1480617585749893,0.25,-0.75,-0.625
1480617585772450,0.625,-0.75,-0.375
1480617585791004,0.625,-0.8125,-0.25
1480617585809553,0.3125,-0.8125,-0.375
1480617585832116,-0.375,-0.8125,-0.625
1480617585850162,-0.375,-0.5625,-0.5625
1480617585869713,0,-0.6875,-0.25
1480617585903304,0.3125,-0.75,-0.125
1480617585910322,0.125,-0.75,-0.4375
1480617585937396,0,-0.625,-0.625
1480617585953939,0.25,-0.625,-0.5
1480617585977500,0,-0.625,-0.3125
1480617585991036,-0.25,-0.6875,-0.4375
1480617586012092,0.125,-0.5625,-0.375
1480617586030141,0.5,-0.25,-0.125
1480617586051196,-0.125,-0.0625,0.25
1480617586072252,-0.75,-0.125,-0.0625
1480617586105340,0.1875,-0.3125,-0.3125
1480617586110855,0.375,-0.75,-0.3125
1480617586132412,0.3125,-0.875,-0.4375
1480617586150462,-0.3125,-0.8125,-0.375
1480617586172519,-0.6875,-0.4375,-0.125
1480617586192071,-0.8125,-0.25,0
1480617586210120,-0.375,0,-0.1875
1480617586237192,-0.1875,-0.25,-0.125
1480617586252232,0.125,-0.125,0.125
1480617586275793,-0.3125,-0.125,0.25
1480617586294343,-0.6875,-0.0625,0.125
1480617586312391,0.125,0.0625,-0.125
1480617586337458,-0.0625,0,-0.1875
1480617586353502,-0.3125,-0.125,0
1480617586372050,-0.125,-0.1875,0.0625
1480617586394610,-0.0625,-0.125,0
1480617586417174,0,0.0625,0
1480617586432210,-0.3125,0.1875,-0.0625
1480617586458281,-0.625,0.0625,0
1480617586472818,-0.875,0,-0.0625
1480617586492370,-0.625,-0.0625,-0.0625
1480617586514933,-0.25,-0.125,0
1480617586532477,0.25,-0.0625,-0.0625
1480617586552028,0.25,0,0
1480617586576093,0,-0.0625,0.0625
1480617586592637,-0.25,-0.0625,-0.0625
1480617586612189,-0.3125,-0.25,-0.125
1480617586634748,-0.5625,-0.125,-0.25
1480617586652797,-0.3125,-0.125,-0.125
1480617586672349,0,-0.25,0
1480617586701928,0.3125,-0.25,-0.125
1480617586719976,0.0625,-0.125,-0.1875
1480617586733514,0.5,0.25,0
1480617586765096,-0.3125,0.25,0.125
1480617586777127,-0.375,0.1875,-0.1875
1480617586792168,0.5625,0,-0.3125
1480617586815229,0.5,-0.3125,-0.125
1480617586832780,0.375,-0.4375,-0.0625
1480617586852328,0,-0.25,0.1875
1480617586874888,-0.0625,0.0625,0.125
1480617586899954,0,0.375,-0.0625
1480617586913490,0,0.25,0
1480617586934547,0.0625,-0.0625,0
1480617586953600,0.8125,-0.1875,0.125
1480617586973651,-0.4375,0.125,0.0625
1480617586994707,-0.3125,0.1875,-0.0625
1480617587012754,0.375,0.25,-0.25
1480617587041330,0.4375,0.0625,-0.25
1480617587054867,0,-0.0625,0
1480617587075421,-0.0625,0.125,0.0625
1480617587100990,0.375,0.375,0.0625
1480617587114525,-0.875,0.0625,0.125
1480617587132574,-0.375,0,0
1480617587153630,-0.5625,0.1875,-0.0625
1480617587178194,-0.875,0,-0.0625
1480617587193235,-0.3125,-0.0625,-0.1875
1480617587215794,0.4375,-0.1875,-0.25
1480617587234845,0.4375,-0.125,-0.1875
1480617587252392,0,0.0625,0
1480617587274952,-0.75,0.0625,0
1480617587294504,-0.75,-0.1875,-0.0625
1480617587320573,-0.4375,-0.0625,-0.125
1480617587354666,-0.25,-0.1875,-0.125
1480617587363689,0.125,0.0625,0
1480617587372713,0.3125,0.125,0.0625
1480617587395272,0.4375,0.0625,0.1875
1480617587414824,-0.1875,0.0625,0.0625
1480617587432876,-0.375,-0.0625,-0.125
1480617587455433,0.125,-0.0625,-0.0625
1480617587482004,0.5625,-0.25,0.0625
1480617587493033,-0.1875,-0.4375,-0.125
1480617587519603,-0.375,-0.1875,-0.125
1480617587543667,0.0625,0.125,0.0625
1480617587552691,0.625,-0.0625,0.125
1480617587575251,0.5,0.1875,0
1480617587596307,-0.25,0.1875,0
1480617587619870,-0.125,0.1875,0.0625
1480617587639422,-0.625,0.0625,0.0625
1480617587655464,-0.3125,-0.125,-0.0625
1480617587678526,0.4375,-0.125,-0.1875
1480617587701086,0.4375,0,-0.1875
1480617587731667,0.0625,-0.0625,0.0625
1480617587734176,0.125,0,0.25
1480617587762750,0.3125,0.125,0.1875
1480617587774783,-0.375,0.0625,0.0625
1480617587793331,-0.75,0.0625,0.0625
1480617587815891,-0.5625,0.0625,0
1480617587841960,-0.1875,-0.1875,0
1480617587857000,0.0625,-0.3125,-0.0625
1480617587875049,0.3125,-0.1875,-0.0625
1480617587897609,0.3125,0,0
1480617587920169,0,0.0625,-0.0625
1480617587935209,-0.375,0.1875,-0.0625
1480617587956767,-0.125,0.4375,0.125
1480617587977320,-0.5,0.6875,0.375
1480617587994867,-0.1875,0.5625,0.4375
1480617588016427,0.125,0.375,0.125
1480617588036979,0.4375,0.0625,0.125
1480617588055028,-0.1875,-0.125,0.0625
1480617588076083,-0.75,-0.1875,-0.0625
1480617588097644,-0.125,-0.125,-0.25
1480617588129225,0.5,-0.1875,0.0625
1480617588136243,0.0625,-0.3125,0
1480617588164820,-0.75,-0.25,-0.0625
1480617588176350,-0.125,-0.0625,0.0625
1480617588203422,0.1875,0.0625,0.0625
1480617588216960,-0.0625,0.0625,0.125
1480617588236010,-0.5,0.0625,0.0625
1480617588257566,-0.25,0.0625,0.125
1480617588280627,-0.0625,0.0625,0.25
1480617588295166,-0.875,-0.125,0.125
1480617588317727,-0.125,0,-0.0625
1480617588337279,0.8125,0.0625,0.0625
1480617588355330,0.5,0.0625,0.125
1480617588379391,0.0625,0.0625,0.0625
1480617588396937,-0.0625,0.125,0
1480617588414985,-0.0625,-0.0625,0.0625
1480617588440554,-0.5,-0.0625,0
1480617588473140,-0.5625,0.0625,-0.125
1480617588488682,-0.25,0,-0.125
1480617588497705,-0.125,0,0
1480617588517257,-0.125,-0.125,0
1480617588535305,0,-0.125,-0.125
1480617588573908,0.125,-0.125,-0.125
1480617588579423,0,-0.125,-0.0625
1480617588602484,-0.125,-0.125,0.0625
1480617588617524,-0.1875,-0.125,-0.0625
1480617588644596,0,0,-0.125
1480617588656127,-0.0625,-0.0625,0
1480617588679689,-0.3125,-0.0625,-0.0625
1480617588697236,0.125,0.125,0.0625
1480617588725814,0.1875,0.1875,0.0625
1480617588737844,-0.3125,0,0
1480617588757396,-0.125,-0.0625,-0.25
1480617588779454,0.625,-0.0625,-0.0625
1480617588797503,0.8125,-0.25,0.0625
1480617588820063,-0.5,-0.375,-0.0625
1480617588835103,-0.4375,-0.125,-0.125
1480617588857663,0.125,0.0625,-0.0625
1480617588893257,0.0625,0.1875,0.0625
1480617588907294,-0.125,0.25,0.1875
1480617588922336,-0.1875,-0.0625,0.0625
1480617588938879,0.375,0.0625,0.0625
1480617588955924,-0.4375,-0.0625,0.0625
1480617588977481,-0.3125,-0.0625,-0.0625
1480617589004554,0.25,0.0625,-0.0625
1480617589015081,0.4375,0.0625,0.1875
1480617589051178,0.125,0.0625,0.0625
1480617589064715,-0.0625,0.0625,0.0625
1480617589079753,-0.125,0.1875,0.0625
1480617589100308,-0.375,0.0625,0.125
1480617589119860,-0.375,0.0625,0
1480617589134900,-0.125,-0.1875,-0.0625
1480617589156461,-0.125,0,-0.125
1480617589179017,-0.0625,-0.0625,0.0625
1480617589201076,0.0625,0,-0.0625
1480617589216618,0.1875,0,0
1480617589240682,0.125,0,-0.125
1480617589261738,-0.1875,0,0
1480617589282796,-0.1875,0.0625,0.0625
1480617589322399,0.0625,0.0625,0.0625
1480617589325908,-0.0625,-0.125,-0.0625
1480617589336938,0,-0.125,0
1480617589373535,0.0625,0.0625,0.0625
1480617589388075,0.1875,0.0625,-0.0625
1480617589396597,0,0.0625,-0.0625
1480617589426677,0.3125,0.125,0
1480617589440212,0.3125,0.375,0.1875
1480617589456758,-0.125,0.4375,0.25
1480617589486836,-0.625,0.0625,0.0625
1480617589501877,-0.25,-0.0625,-0.0625
1480617589516917,0.8125,-0.25,0.0625
1480617589539477,0.375,-0.375,0.0625
1480617589560532,-0.3125,-0.125,0.0625
1480617589582594,-0.4375,0.0625,0
1480617589599137,-0.4375,0.125,0.0625
1480617589620192,-0.4375,0.25,0.3125
1480617589644255,-0.1875,0.125,0.1875
1480617589666315,0.25,0.1875,0.1875
1480617589683861,-0.25,0.0625,0.0625
1480617589696896,-0.5625,0.0625,0.0625
1480617589719456,-0.0625,0.0625,0.0625
1480617589740511,0.3125,0.1875,0.0625
1480617589766079,0.125,0.3125,0.125
1480617589795157,-0.25,0.3125,0.0625
1480617589801173,-0.25,0.3125,0.125
1480617589816714,-0.1875,0.3125,0.125
1480617589839274,-0.5625,0.3125,0.0625
1480617589860330,-0.6875,0.375,0.0625
1480617589876874,-0.3125,0.25,-0.0625
1480617589899436,-0.125,0.125,-0.125
1480617589920490,0.0625,0.0625,-0.0625
1480617589945056,0,0.0625,-0.1875
1480617589959093,0.125,0,-0.1875
1480617589980149,-0.125,0,-0.1875
1480617589997195,-0.25,0.0625,-0.0625
1480617590025268,0,0.125,0.0625
1480617590040309,0.0625,0.3125,0.0625
1480617590056853,-0.0625,0.3125,0.0625
1480617590079413,-0.5625,0.125,0
1480617590109492,-0.25,0.125,-0.125
1480617590117014,0.3125,0.0625,0.0625
1480617590139072,0.375,0.0625,0.125
1480617590161632,0,0.125,-0.0625
1480617590176170,0,0,0
1480617590199232,-0.1875,0.0625,0.0625
1480617590229312,-0.1875,0.25,0.25
1480617590236330,-0.3125,0.25,0.4375
1480617590259392,-0.5625,0.3125,0.25
1480617590288469,-0.1875,0.0625,0.0625
1480617590295989,0.8125,0.0625,0
1480617590319552,0.5,-0.1875,-0.0625
1480617590342613,-0.3125,-0.1875,-0.1875
1480617590356149,-0.3125,-0.0625,-0.1875
1480617590385728,0.0625,0.125,0.25
1480617590409290,-0.125,0.3125,0.4375
1480617590416312,-0.5625,0.1875,0.1875
1480617590454912,-0.125,0.125,0.0625
1480617590464438,-0.0625,-0.0625,-0.125
1480617590476970,-0.25,-0.25,-0.125
1480617590499533,-0.0625,-0.1875,0
1480617590536629,0.1875,-0.125,0
1480617590540139,0.125,-0.25,-0.0625
1480617590559190,-0.125,-0.0625,-0.3125
1480617590587767,-0.5,0.125,-0.375
1480617590604811,-0.3125,0.1875,-0.25
1480617590619349,-0.3125,0.0625,0
1480617590641909,-0.25,0.0625,-0.125
1480617590666477,-0.0625,0,-0.125
1480617590680011,0.1875,0,0
1480617590701568,0.1875,-0.0625,0.0625
1480617590723125,0.25,-0.375,-0.125
1480617590739168,0.25,-0.25,-0.3125
1480617590762731,0.0625,-0.0625,-0.125
1480617590782787,-0.25,0,0.0625
1480617590799328,-0.3125,-0.125,-0.125
1480617590821888,0.125,-0.25,0
1480617590842944,-0.125,-0.1875,0
1480617590859489,-0.3125,-0.0625,0.0625
1480617590882050,-0.125,-0.125,0.0625
1480617590902603,0.25,0,-0.0625
1480617590928673,0.0625,0,-0.125
1480617590942209,0,0.0625,0
1480617590962763,0,0,0.0625
1480617590979809,-0.375,-0.0625,0
1480617591001867,0,0.0625,0.125
1480617591024429,-0.3125,0.3125,0.3125
1480617591039467,-0.625,0.1875,0.1875
1480617591061526,-0.6875,0,0
1480617591092107,0.375,-0.125,0.0625
1480617591100630,0.875,-0.25,0.125
1480617591122187,0,-0.3125,0
1480617591144246,-0.6875,-0.1875,-0.25
1480617591165805,-0.5,0.0625,-0.1875
1480617591182350,-0.1875,0.0625,0.1875
1480617591204406,-0.375,0.125,0.25
1480617591226966,-0.4375,0.1875,0.0625
1480617591249025,0.3125,0.375,0.125
1480617591264065,-0.25,0,0.0625
1480617591285120,-0.625,-0.25,-0.125
1480617591301666,0,-0.25,-0.25
1480617591324726,0.5625,-0.0625,-0.0625
1480617591338763,0.25,0.0625,0.0625
1480617591368843,0,0.125,0.0625
1480617591390401,0.0625,0.0625,0
1480617591398423,-0.375,-0.0625,0.0625
1480617591421985,-0.875,-0.125,-0.1875
1480617591444545,-0.8125,-0.0625,-0.3125
1480617591459585,-0.1875,0.0625,-0.1875
1480617591481644,0.125,0,0
1480617591504203,-0.1875,-0.25,0
1480617591532781,0.25,-0.4375,-0.1875
1480617591541804,0.5,-0.1875,0
1480617591564365,0,-0.0625,0
1480617591585419,-0.4375,-0.125,0
1480617591625026,-0.3125,-0.1875,-0.0625
1480617591627031,0.125,-0.0625,0
1480617591645078,0.125,0.0625,0.0625
1480617591661623,0.125,0.125,0
1480617591684683,0.25,0.125,0.125
1480617591705238,0.125,0,0.0625
1480617591721784,-0.1875,-0.0625,0.0625
1480617591744343,0.25,-0.1875,0.1875
1480617591765902,1.5,0,0.1875
1480617591781943,1.0625,0.5,0.1875
1480617591804001,0.125,0.75,0.625
1480617591825558,-0.25,0.5625,0.9375
1480617591842604,0.1875,0.75,1.4375
1480617591872685,0.5,0.6875,1.3125
1480617591885217,1,0.5625,1.0625
1480617591901761,1.4375,0.5625,1.1875
1480617591923820,0.625,0,0.8125
1480617591945878,-0.25,0,0.5625
1480617591967937,-0.3125,-0.0625,0.375
1480617591984481,-0.9375,0.0625,0.1875
1480617592007042,-1.375,0,0.125
1480617592022082,-0.625,0.125,-0.0625
1480617592044140,-0.0625,0.25,0.0625
1480617592066700,-0.375,0.125,0
1480617592089761,-0.625,0.0625,-0.25
1480617592104303,-0.125,0,-0.3125
1480617592127863,0.1875,-0.125,-0.125
1480617592140898,0,0.0625,-0.1875
1480617592164964,-0.1875,0.0625,0.0625
1480617592188524,-0.1875,-0.1875,0
1480617592201057,-0.4375,-0.25,-0.125
1480617592224119,0.125,-0.3125,-0.25
1480617592246679,0.25,-0.375,-0.4375
1480617592261218,0.0625,-0.625,-0.4375
1480617592284279,0.25,-0.6875,-0.3125
1480617592307339,0.6875,-0.6875,-0.3125
1480617592334913,0.3125,-0.75,-0.4375
1480617592345441,-0.625,-0.625,-0.6875
1480617592366498,-0.4375,-0.1875,-0.4375
1480617592381036,0,-0.1875,-0.125
1480617592404097,0.125,-0.25,-0.1875
1480617592426657,-0.3125,-0.4375,-0.1875
1480617592441697,-0.4375,-0.5625,-0.375
1480617592471778,-0.1875,-0.625,-0.3125
1480617592487821,-0.0625,-0.5625,-0.0625
1480617592507873,-0.125,-0.625,-0.125
1480617592524418,-0.1875,-0.375,-0.125
1480617592546977,-0.0625,-0.375,0
1480617592575553,-0.375,-0.5625,-0.25
1480617592585079,-0.9375,-0.625,-0.5
1480617592614157,-0.25,-0.375,-0.25
1480617592635214,-0.0625,-0.375,0.0625
1480617592645740,-0.6875,-0.4375,-0.1875
1480617592667298,-0.75,-0.5625,-0.75
1480617592687853,0.3125,-0.6875,-0.625
1480617592704398,1,-0.8125,-0.125
1480617592726956,-0.625,-1.1875,-0.25
1480617592755532,-1.4375,-1.125,-0.625
1480617592765061,-0.4375,-0.875,-0.8125
1480617592787117,0.375,-0.5625,-0.4375
1480617592807672,0.4375,-0.625,-0.25
1480617592824216,0.625,-0.5625,-0.1875
1480617592846775,0.4375,-0.625,-0.25
1480617592867832,-0.25,-0.9375,-0.25
1480617592899415,-0.3125,-0.875,-0.5625
1480617592912952,0.3125,-0.8125,-0.4375
1480617592928994,0.3125,-0.6875,-0.3125
1480617592944034,0.1875,-0.75,-0.3125
1480617592966594,0.3125,-0.75,-0.4375
1480617592995170,-0.125,-0.4375,-0.5
1480617593006200,-0.125,-0.375,-0.3125
1480617593032771,-0.5,-0.3125,-0.1875
1480617593056945,-0.625,-0.5,-0.5
1480617593070871,-0.25,-0.6875,-0.4375
1480617593087917,0,-0.9375,-0.4375
1480617593109474,0.375,-0.6875,-0.3125
1480617593123511,0.25,-0.6875,-0.25
1480617593147576,-0.4375,-0.5,-0.5
1480617593170138,-0.6875,-0.5625,-0.5
1480617593192696,-0.75,-0.375,-0.4375
1480617593206733,-0.625,-0.5,-0.375
1480617593229293,-0.1875,-0.5,-0.125
1480617593244333,0.3125,-0.5625,-0.25
1480617593267394,-0.0625,-0.6875,-0.4375
1480617593289453,-0.125,-0.625,-0.4375
1480617593303492,-0.5625,-0.5625,-0.4375
1480617593326552,-0.25,-0.4375,-0.1875
1480617593349111,-0.25,-0.3125,-0.125
1480617593363651,0,-0.0625,0.0625
1480617593394232,-0.25,-0.1875,0
1480617593409773,-0.25,-0.25,-0.4375
1480617593430327,0.5625,-0.3125,-0.6875
1480617593446873,0.5625,-0.5,-0.5
1480617593475448,0.0625,-0.75,-0.25
1480617593490488,-0.6875,-0.625,-0.25
1480617593507031,-0.3125,-0.3125,-0.25
1480617593529090,0,-0.1875,-0.1875
1480617593557666,-0.25,-0.4375,-0.125
1480617593566690,-0.5625,-0.75,-0.3125
1480617593589252,0.25,-0.5,0
1480617593610306,-0.4375,-0.375,-0.3125
1480617593626851,-0.375,-0.4375,-0.3125
1480617593657432,0.375,-0.5,-0.5
1480617593671971,0.125,-0.4375,-0.4375
1480617593696539,-0.125,-0.125,-0.25
1480617593723609,0,0.1875,-0.125
1480617593730125,-0.3125,0.125,-0.1875
1480617593754189,-0.625,-0.0625,-0.4375
1480617593769229,-0.8125,-0.0625,-0.5
1480617593790285,-0.5,-0.125,-0.375
1480617593806830,0,-0.125,-0.3125
1480617593829390,0.0625,-0.25,-0.25
1480617593850446,0.1875,-0.4375,-0.5
1480617593873005,0.3125,-0.375,-0.3125
1480617593889550,-0.0625,-0.4375,-0.3125
1480617593912109,-0.1875,-0.375,-0.3125
1480617593927651,-0.25,-0.3125,-0.3125
1480617593949709,0.125,-0.1875,-0.3125
1480617593971768,0.125,-0.1875,-0.1875
1480617593986307,-0.1875,-0.375,-0.3125
1480617594010371,-0.125,-0.625,-0.5
1480617594037944,0.625,-0.375,-0.3125
1480617594045965,0.8125,0,0
1480617594069027,0.25,0,0
1480617594091587,0.25,0.125,-0.25
1480617594107129,0.0625,-0.125,-0.625
1480617594129187,-0.1875,-0.4375,-0.5625
1480617594152749,0.5625,-0.6875,-0.0625
1480617594166787,0.1875,-0.6875,0.0625
1480617594202883,0.125,-0.25,0.0625
1480617594219427,0.25,0.0625,-0.125
1480617594226948,-0.125,0.1875,-0.1875
1480617594249507,-0.25,0.125,0.125
1480617594272069,0.25,0.125,0.1875
1480617594286105,1.1875,0.25,0.5
1480617594309165,0.625,0.25,0.5
1480617594337742,0.8125,0.5625,0.25
1480617594352782,0.5,0.4375,-0.0625
1480617594369827,-0.1875,0.4375,-0.0625
1480617594391888,-0.3125,0.1875,0.0625
1480617594412942,0.1875,0.125,0.1875
1480617594428985,0.1875,-0.0625,0
1480617594451544,0.0625,-0.125,0
1480617594472600,0,0,-0.0625
1480617594489146,-0.25,-0.1875,0
1480617594511705,-0.3125,-0.1875,-0.0625
1480617594532760,-0.25,-0.3125,-0.3125
1480617594549806,0,-0.1875,-0.1875
1480617594580387,0.125,-0.0625,-0.125
1480617594592922,0.0625,-0.0625,-0.125
1480617594608963,0.0625,-0.0625,-0.0625
1480617594631528,0,-0.125,-0.125
1480617594653080,-0.125,-0.1875,-0.0625
1480617594670127,0.1875,0.25,0.1875
1480617594692185,0.5625,0.1875,0.375
1480617594712740,0.5,0.1875,0.125
1480617594729284,0.625,0,-0.3125
1480617594752345,0.625,-0.1875,-0.0625
1480617594772900,0.5625,-0.4375,0
1480617594789444,-0.1875,-0.375,0
1480617594812004,0,-0.0625,-0.125
1480617594835566,0.5,0.0625,-0.1875
1480617594856622,0.5,0.25,-0.125
1480617594871662,0.4375,0.1875,0.125
1480617594896227,-0.25,-0.125,0.1875
1480617594909262,0.4375,0.125,0.125
1480617594937838,0,0.0625,0.0625
1480617594954383,0,0,-0.0625
1480617594968420,0.4375,0.1875,-0.1875
1480617595014545,0.4375,-0.0625,0
1480617595017049,0.3125,-0.0625,-0.0625
1480617595028580,0.3125,0.125,0.0625
1480617595059662,0,0.0625,0.125
1480617595075705,-0.5,0.0625,-0.0625
1480617595088739,-0.625,0.0625,-0.125
1480617595111801,-0.5,-0.125,-0.3125
1480617595134361,-0.3125,-0.125,-0.1875
1480617595148399,0.0625,-0.125,-0.125
1480617595171961,0.4375,-0.125,-0.0625
1480617595194020,0.1875,-0.125,-0.125
1480617595208558,-0.3125,0,-0.25
1480617595231624,-0.3125,0.0625,-0.0625
1480617595254180,-0.375,0.125,-0.125
1480617595276740,0.25,0.3125,0.125
1480617595291780,0.3125,0.25,0.4375
1480617595320357,-0.625,-0.0625,0.125
1480617595335395,-0.4375,-0.1875,-0.375
1480617595351940,1,-0.0625,-0.1875
1480617595380517,1.125,-0.1875,0.0625
1480617595395054,0,-0.25,0
1480617595411598,-0.375,0.0625,-0.1875
1480617595435161,-0.125,0.3125,-0.3125
1480617595456720,0.25,0.1875,0.0625
1480617595471758,0.25,0.125,0.3125
1480617595494318,0.0625,-0.0625,0.1875
1480617595515374,0.6875,0.1875,0.0625
1480617595531922,0.1875,0.125,-0.125
1480617595554479,-0.5625,-0.25,-0.25
1480617595575534,-0.0625,-0.0625,-0.25
1480617595592580,0.75,0.0625,0
1480617595614138,0.625,0.125,0
1480617595635193,0.375,0.1875,0.125
1480617595657753,0.1875,0.25,0.125
1480617595674297,-0.5,0.1875,-0.0625
1480617595695353,-0.6875,0.25,-0.125
1480617595711898,-0.5,0.1875,-0.125
1480617595734457,-0.125,0.125,0
1480617595758020,0.1875,-0.0625,0
1480617595772058,0.4375,0.0625,-0.0625
1480617595809156,0.1875,0.0625,-0.125
1480617595816677,-0.3125,-0.0625,-0.125
1480617595831720,-0.5625,0.0625,0
1480617595855282,-0.375,0.0625,0.0625
1480617595883353,-0.25,0.0625,0.125
1480617595897895,-0.125,0.25,0.0625
