timestamp,roll,pitch,yaw
1480617529995966,-0.894453,-0.338277,1.6809
1480617530011508,-0.896145,-0.337677,1.68105
1480617530025044,-0.896847,-0.337042,1.68114
1480617530043092,-0.896839,-0.336059,1.68131
1480617530064148,-0.896718,-0.335452,1.68159
1480617530086708,-0.895988,-0.33527,1.68195
1480617530103252,-0.894965,-0.335884,1.68223
1480617530124809,-0.894792,-0.3368,1.68271
1480617530144865,-0.89539,-0.337613,1.68318
1480617530163412,-0.895718,-0.337593,1.6834
1480617530183966,-0.895216,-0.337285,1.68402
1480617530215550,-0.895428,-0.338171,1.68546
1480617530223070,-0.896003,-0.339944,1.68712
1480617530245631,-0.896505,-0.342112,1.68858
1480617530269194,-0.896298,-0.343845,1.68969
1480617530290249,-0.895104,-0.345198,1.6905
1480617530305290,-0.893389,-0.346233,1.69134
1480617530324842,-0.892122,-0.347186,1.69209
1480617530342890,-0.890922,-0.347783,1.69243
1480617530365450,-0.889264,-0.347706,1.69239
1480617530385001,-0.887581,-0.34752,1.69237
1480617530403554,-0.88682,-0.347589,1.69285
1480617530431625,-0.887174,-0.347807,1.69394
1480617530445161,-0.887753,-0.348158,1.6951
1480617530462709,-0.888754,-0.3485,1.69692
1480617530487273,-0.890441,-0.349295,1.69986
1480617530507828,-0.894687,-0.351039,1.70416
1480617530528888,-0.903162,-0.35447,1.71057
1480617530545428,-0.915075,-0.359342,1.71808
1480617530567989,-0.924719,-0.363531,1.72467
1480617530583029,-0.930241,-0.365104,1.7303
1480617530605588,-0.930266,-0.363697,1.73324
1480617530626645,-0.920813,-0.359986,1.73355
1480617530650708,-0.905623,-0.356806,1.73158
1480617530672767,-0.885313,-0.353466,1.72852
1480617530684801,-0.866683,-0.350478,1.72388
1480617530710366,-0.855066,-0.349906,1.71895
1480617530725406,-0.853644,-0.349065,1.71594
1480617530752480,-0.86072,-0.34759,1.7141
1480617530769023,-0.871685,-0.346433,1.71305
1480617530790079,-0.878503,-0.345527,1.71219
1480617530805119,-0.877229,-0.345248,1.71134
1480617530835202,-0.873455,-0.346109,1.71019
1480617530845727,-0.873764,-0.347304,1.70943
1480617530866282,-0.87988,-0.347669,1.70978
1480617530882826,-0.889412,-0.347114,1.71097
1480617530905386,-0.898459,-0.346341,1.71267
1480617530933962,-0.905886,-0.345206,1.71424
1480617530958026,-0.912497,-0.343309,1.71614
1480617530966549,-0.919713,-0.340744,1.71861
1480617530986602,-0.927037,-0.337823,1.72142
1480617531015178,-0.934481,-0.334817,1.72482
1480617531033226,-0.941483,-0.332894,1.72803
1480617531046261,-0.946313,-0.332075,1.73023
1480617531067317,-0.948205,-0.33309,1.73148
1480617531097397,-0.944787,-0.337455,1.73228
1480617531122965,-0.937417,-0.343827,1.73219
1480617531127480,-0.932112,-0.351181,1.73136
1480617531145525,-0.93162,-0.357937,1.73013
1480617531181119,-0.933868,-0.362598,1.72828
1480617531187637,-0.936887,-0.364326,1.72559
1480617531205685,-0.937337,-0.363611,1.72328
1480617531227747,-0.935296,-0.362921,1.72121
1480617531248799,-0.930542,-0.36287,1.71919
1480617531269859,-0.923922,-0.36328,1.71723
1480617531289909,-0.917549,-0.363554,1.71556
1480617531327007,-0.913005,-0.363971,1.71409
1480617531337535,-0.909686,-0.363926,1.71271
1480617531361099,-0.905557,-0.363656,1.71094
1480617531367615,-0.900958,-0.363195,1.70887
1480617531385664,-0.896057,-0.362192,1.70666
1480617531408224,-0.892605,-0.361117,1.70444
1480617531428778,-0.890028,-0.360069,1.70263
1480617531450335,-0.888072,-0.359647,1.70149
1480617531483925,-0.886706,-0.359798,1.70088
1480617531488938,-0.885495,-0.360218,1.70034
1480617531507488,-0.884976,-0.360217,1.70016
1480617531528043,-0.884508,-0.360156,1.69983
1480617531555616,-0.883725,-0.360302,1.69923
1480617531565642,-0.882569,-0.3604,1.69873
1480617531595722,-0.881324,-0.360224,1.698
1480617531607755,-0.880767,-0.359888,1.69743
1480617531632821,-0.88109,-0.359731,1.69677
1480617531647861,-0.881837,-0.359789,1.69612
1480617531670421,-0.88255,-0.359867,1.69533
1480617531687968,-0.883048,-0.359681,1.69463
1480617531708021,-0.883382,-0.359396,1.69414
1480617531729077,-0.883503,-0.359295,1.69428
1480617531753141,-0.883588,-0.359215,1.69427
1480617531781216,-0.883435,-0.358721,1.69393
1480617531796256,-0.88389,-0.358336,1.69358
1480617531805280,-0.884626,-0.357764,1.69335
1480617531827844,-0.885511,-0.357108,1.69294
1480617531849397,-0.886554,-0.356461,1.6928
1480617531864437,-0.88715,-0.356068,1.69226
1480617531894521,-0.887499,-0.35584,1.69176
1480617531909558,-0.887375,-0.355457,1.6914
1480617531924598,-0.887375,-0.355457,1.6914
1480617531954679,-0.887461,-0.355377,1.6914
1480617531968214,-0.887051,-0.354995,1.6911
1480617531984758,-0.886412,-0.354738,1.69054
1480617532007318,-0.886276,-0.354301,1.69019
1480617532035893,-0.886684,-0.353753,1.68973
1480617532044416,-0.886822,-0.353037,1.68906
1480617532066977,-0.886715,-0.352486,1.68843
1480617532088032,-0.886091,-0.352284,1.68786
1480617532104576,-0.886164,-0.35215,1.68786
1480617532127138,-0.885528,-0.351893,1.6873
1480617532150198,-0.885278,-0.351741,1.68664
1480617532164235,-0.885732,-0.35162,1.6861
1480617532200832,-0.885827,-0.351633,1.68562
1480617532209857,-0.885913,-0.351553,1.68561
1480617532232416,-0.885813,-0.351447,1.68566
1480617532247456,-0.885885,-0.351313,1.68566
1480617532269515,-0.885911,-0.351238,1.68491
1480617532316139,-0.885984,-0.351196,1.6843
1480617532320652,-0.886028,-0.351268,1.68398
1480617532330677,-0.8857,-0.351419,1.68373
1480617532344213,-0.885606,-0.351629,1.68357
1480617532368277,-0.885678,-0.351495,1.68357
1480617532395851,-0.885191,-0.35186,1.68332
1480617532403873,-0.884702,-0.352095,1.6831
1480617532433452,-0.884737,-0.352073,1.68325
1480617532451499,-0.884737,-0.352073,1.68325
1480617532472556,-0.88481,-0.351939,1.68325
1480617532487094,-0.88481,-0.351939,1.68325
1480617532509654,-0.88481,-0.351939,1.68325
1480617532524192,-0.884896,-0.351859,1.68325
1480617532547254,-0.884896,-0.351859,1.68325
1480617532577337,-0.88449,-0.351475,1.68296
1480617532592374,-0.883791,-0.351221,1.68256
1480617532622956,-0.883804,-0.351276,1.68256
1480617532629473,-0.883804,-0.351276,1.68256
1480617532652033,-0.883669,-0.351191,1.68245
1480617532667574,-0.883656,-0.351137,1.68246
1480617532695648,-0.883777,-0.351036,1.6826
1480617532710689,-0.883777,-0.351036,1.6826
1480617532727234,-0.883777,-0.351036,1.6826
1480617532757313,-0.883642,-0.350952,1.6825
1480617532770848,-0.883728,-0.350872,1.68249
1480617532787394,-0.883763,-0.350851,1.68264
1480617532809955,-0.883628,-0.350766,1.68253
1480617532830507,-0.883628,-0.350766,1.68253
1480617532847052,-0.883714,-0.350687,1.68253
1480617532869612,-0.883714,-0.350687,1.68253
1480617532890668,-0.883687,-0.350447,1.68257
1480617532914731,-0.8837,-0.350501,1.68256
1480617532930273,-0.883955,-0.3503,1.68208
1480617532950827,-0.884474,-0.349953,1.68202
1480617532966870,-0.885235,-0.349665,1.68218
1480617532989430,-0.886052,-0.34928,1.68266
1480617533010487,-0.886149,-0.349031,1.68328
1480617533033046,-0.885402,-0.348928,1.68348
1480617533049590,-0.884351,-0.349123,1.68294
1480617533070646,-0.884419,-0.348766,1.68254
1480617533087693,-0.884848,-0.348406,1.68205
1480617533109752,-0.884713,-0.348321,1.68194
1480617533139830,-0.884713,-0.348321,1.68194
1480617533146347,-0.884747,-0.3483,1.68209
1480617533169409,-0.884834,-0.34822,1.68208
1480617533199489,-0.884907,-0.348086,1.68209
1480617533207511,-0.884772,-0.348002,1.68198
1480617533235585,-0.884772,-0.348002,1.68198
1480617533258647,-0.885297,-0.34797,1.68171
1480617533267670,-0.885467,-0.347719,1.68127
1480617533293741,-0.885206,-0.346844,1.68058
1480617533312288,-0.88478,-0.345867,1.6801
1480617533326329,-0.883713,-0.345115,1.67914
1480617533350892,-0.883503,-0.344404,1.67857
1480617533371948,-0.884097,-0.343793,1.67854
1480617533386488,-0.88485,-0.3431,1.67847
1480617533425089,-0.885471,-0.342729,1.67839
1480617533433612,-0.885844,-0.342113,1.67826
1480617533447649,-0.885844,-0.342113,1.67826
1480617533471212,-0.88571,-0.342029,1.67816
1480617533492268,-0.885704,-0.341491,1.67796
1480617533506305,-0.885582,-0.340833,1.67735
1480617533529366,-0.885796,-0.340339,1.67679
1480617533559952,-0.886396,-0.340085,1.67609
1480617533572984,-0.887332,-0.339459,1.67538
1480617533589527,-0.88861,-0.338869,1.67489
1480617533619608,-0.889862,-0.338042,1.67444
1480617533633143,-0.890722,-0.337237,1.67393
1480617533649687,-0.890901,-0.336321,1.67346
1480617533680769,-0.891167,-0.335458,1.67295
1480617533693307,-0.891441,-0.334334,1.67264
1480617533710349,-0.892218,-0.333033,1.67253
1480617533732407,-0.892791,-0.332187,1.67255
1480617533752962,-0.892658,-0.332103,1.67245
1480617533769506,-0.892658,-0.332103,1.67245
1480617533792066,-0.892658,-0.332103,1.67245
1480617533814626,-0.892779,-0.332001,1.67259
1480617533830167,-0.89283,-0.33154,1.67221
1480617533852225,-0.892657,-0.331566,1.67225
1480617533880300,-0.892657,-0.331566,1.67225
1480617533891329,-0.892745,-0.331487,1.67225
1480617533912386,-0.892819,-0.331355,1.67225
1480617533934444,-0.892807,-0.331169,1.67229
1480617533950488,-0.892807,-0.331169,1.67229
1480617533973548,-0.892807,-0.331169,1.67229
1480617533995105,-0.892906,-0.331276,1.67224
1480617534017666,-0.892719,-0.331248,1.67229
1480617534032706,-0.892807,-0.331169,1.67229
1480617534054765,-0.892807,-0.331169,1.67229
1480617534092868,-0.892192,-0.331186,1.67213
1480617534094871,-0.892192,-0.331186,1.67213
1480617534120941,-0.892092,-0.33108,1.67218
1480617534129463,-0.89218,-0.331001,1.67217
1480617534152023,-0.892268,-0.330922,1.67217
1480617534191628,-0.89218,-0.331001,1.67217
1480617534203190,-0.892047,-0.330917,1.67207
1480617534212213,-0.892168,-0.330815,1.67221
1480617534234773,-0.892035,-0.330731,1.67211
1480617534248810,-0.892035,-0.330731,1.67211
1480617534274880,-0.892035,-0.330731,1.67211
1480617534294933,-0.892035,-0.330731,1.67211
1480617534317996,-0.892024,-0.330546,1.67215
1480617534332533,-0.892009,-0.330492,1.67215
1480617534371135,-0.892097,-0.330413,1.67215
1480617534384170,-0.891964,-0.330329,1.67204
1480617534392192,-0.891964,-0.330329,1.67204
1480617534415253,-0.891998,-0.330307,1.67219
1480617534444831,-0.891953,-0.330144,1.67208
1480617534453354,-0.891953,-0.330144,1.67208
1480617534481930,-0.891953,-0.330144,1.67208
1480617534488949,-0.891953,-0.330144,1.67208
1480617534512010,-0.89182,-0.33006,1.67198
1480617534536074,-0.891853,-0.330038,1.67213
1480617534556631,-0.891941,-0.329958,1.67212
1480617534572171,-0.891941,-0.329958,1.67212
1480617534594734,-0.891941,-0.329958,1.67212
1480617534617793,-0.891941,-0.329958,1.67212
1480617534632331,-0.891896,-0.329796,1.67201
1480617534655392,-0.891882,-0.329742,1.67202
1480617534675948,-0.892003,-0.32964,1.67216
1480617534691991,-0.89187,-0.329557,1.67206
1480617534728085,-0.89187,-0.329557,1.67206
1480617534738613,-0.89187,-0.329557,1.67206
1480617534758166,-0.891825,-0.329394,1.67195
1480617534774709,-0.891825,-0.329394,1.67195
1480617534803285,-0.891859,-0.329371,1.6721
1480617534813312,-0.891771,-0.32945,1.6721
1480617534843893,-0.891859,-0.329371,1.6721
1480617534857930,-0.891622,-0.329271,1.67247
1480617534885503,-0.891577,-0.329108,1.67236
1480617534894528,-0.891523,-0.329164,1.67251
1480617534923104,-0.89139,-0.329081,1.67241
1480617534932128,-0.891347,-0.329323,1.67252
1480617534955190,-0.891511,-0.329516,1.67274
1480617534975744,-0.891508,-0.329605,1.67317
1480617535007328,-0.891324,-0.329983,1.67345
1480617535014848,-0.8908,-0.330326,1.67351
1480617535044427,-0.890231,-0.330506,1.67347
1480617535051946,-0.890231,-0.330506,1.67347
1480617535074507,-0.890537,-0.330564,1.67353
1480617535098571,-0.890521,-0.331045,1.6736
1480617535125644,-0.89023,-0.331578,1.67372
1480617535135168,-0.890013,-0.331979,1.67385
1480617535157227,-0.889971,-0.332221,1.67396
1480617535171264,-0.889962,-0.332441,1.67423
1480617535202849,-0.889933,-0.332868,1.6743
1480617535216885,-0.889422,-0.333397,1.67433
1480617535231424,-0.889418,-0.334064,1.67436
1480617535255488,-0.88951,-0.33439,1.67458
1480617535277548,-0.889597,-0.334311,1.67457
1480617535291585,-0.889464,-0.334227,1.67447
1480617535314646,-0.889464,-0.334227,1.67447
1480617535337206,-0.889464,-0.334227,1.67447
1480617535351244,-0.889464,-0.334227,1.67447
1480617535375309,-0.889537,-0.334094,1.67447
1480617535397366,-0.889537,-0.334094,1.67447
1480617535411406,-0.889003,-0.334253,1.67457
1480617535441986,-0.888579,-0.334703,1.67459
1480617535457024,-0.888497,-0.335188,1.67483
1480617535480086,-0.888763,-0.335356,1.67503
1480617535494625,-0.889082,-0.335598,1.67506
1480617535517184,-0.889187,-0.33611,1.67524
1480617535545760,-0.889257,-0.336644,1.67527
1480617535562305,-0.88925,-0.336864,1.67554
1480617535591884,-0.88949,-0.336925,1.67576
1480617535598902,-0.889556,-0.337012,1.67603
1480617535614444,-0.889515,-0.337254,1.67615
1480617535637003,-0.889515,-0.337254,1.67615
1480617535658059,-0.8893,-0.337656,1.67628
1480617535676609,-0.889254,-0.337492,1.67617
1480617535697163,-0.889288,-0.33747,1.67631
1480617535718219,-0.889154,-0.337386,1.67621
1480617535735266,-0.889154,-0.337386,1.67621
1480617535758326,-0.889154,-0.337386,1.67621
1480617535778380,-0.889507,-0.337606,1.67638
1480617535794422,-0.88986,-0.337826,1.67656
1480617535816982,-0.890127,-0.338126,1.67674
1480617535839542,-0.89016,-0.338771,1.67692
1480617535854583,-0.890179,-0.339362,1.67711
1480617535877142,-0.890151,-0.33979,1.67719
1480617535898700,-0.890044,-0.340036,1.67747
1480617535920759,-0.890004,-0.340279,1.67758
1480617535944320,-0.890004,-0.340279,1.67758
1480617535959864,-0.890004,-0.340279,1.67758
1480617535973900,-0.890064,-0.340628,1.67766
1480617536005484,-0.890064,-0.340628,1.67766
1480617536019521,-0.890418,-0.340848,1.67783
1480617536034561,-0.890492,-0.341251,1.6779
1480617536057627,-0.890371,-0.341352,1.67775
1480617536080183,-0.890405,-0.34133,1.6779
1480617536094221,-0.890492,-0.341251,1.6779
1480617536117782,-0.890492,-0.341251,1.6779
1480617536139339,-0.890492,-0.341251,1.6779
1480617536153880,-0.890238,-0.341805,1.67771
1480617536176939,-0.890004,-0.342282,1.67768
1480617536207521,-0.890151,-0.342552,1.67775
1480617536237600,-0.890185,-0.34253,1.6779
1480617536241110,-0.890185,-0.34253,1.6779
1480617536259665,-0.890185,-0.34253,1.6779
1480617536282220,-0.890151,-0.342552,1.67775
1480617536310796,-0.890151,-0.342552,1.67775
1480617536319821,-0.890224,-0.342418,1.67775
1480617536333857,-0.890358,-0.342502,1.67786
1480617536356918,-0.890271,-0.342582,1.67786
1480617536379980,-0.890271,-0.342582,1.67786
1480617536400534,-0.88979,-0.342684,1.67781
1480617536423095,-0.889656,-0.3426,1.67771
1480617536441142,-0.88969,-0.342578,1.67785
1480617536461697,-0.889991,-0.342765,1.67775
1480617536477740,-0.8906,-0.343008,1.67772
1480617536500801,-0.891047,-0.342928,1.67762
1480617536520854,-0.891047,-0.342928,1.67762
1480617536543414,-0.891134,-0.342849,1.67762
1480617536559958,-0.891134,-0.342849,1.67762
1480617536590541,-0.891134,-0.342849,1.67762
1480617536597057,-0.891134,-0.342849,1.67762
1480617536619618,-0.891034,-0.342743,1.67766
1480617536640674,-0.891494,-0.34218,1.67749
1480617536670754,-0.891943,-0.341969,1.67743
1480617536680279,-0.892518,-0.342103,1.67727
1480617536700833,-0.893033,-0.342021,1.67701
1480617536716876,-0.893314,-0.341748,1.67669
1480617536739436,-0.89326,-0.341047,1.67638
1480617536760492,-0.893214,-0.340127,1.67581
1480617536777036,-0.893329,-0.33953,1.67529
1480617536799596,-0.893365,-0.338792,1.67451
1480617536821153,-0.893543,-0.337877,1.67404
1480617536837196,-0.893895,-0.336936,1.67353
1480617536867277,-0.894501,-0.336108,1.67323
1480617536880813,-0.895326,-0.335953,1.67307
1480617536896855,-0.895326,-0.335953,1.67307
1480617536919415,-0.895326,-0.335953,1.67307
1480617536942478,-0.895113,-0.335687,1.67316
1480617536957015,-0.894572,-0.335439,1.67304
1480617536980578,-0.894384,-0.335411,1.67309
1480617537010156,-0.894384,-0.335411,1.67309
1480617537018680,-0.894384,-0.335411,1.67309
1480617537047255,-0.894472,-0.335332,1.67308
1480617537063297,-0.894545,-0.335199,1.67308
1480617537076332,-0.894545,-0.335199,1.67308
1480617537099394,-0.894472,-0.335332,1.67308
1480617537122455,-0.894472,-0.335332,1.67308
1480617537153037,-0.894545,-0.335199,1.67308
1480617537161559,-0.894545,-0.335199,1.67308
1480617537182114,-0.894633,-0.33512,1.67308
1480617537196653,-0.894633,-0.33512,1.67308
1480617537225733,-0.894175,-0.33555,1.67341
1480617537242276,-0.893683,-0.336002,1.67359
1480617537256311,-0.893588,-0.336301,1.67386
1480617537281378,-0.893392,-0.336625,1.67414
1480617537339534,-0.893406,-0.336679,1.67414
1480617537348556,-0.893406,-0.336679,1.67414
1480617537352567,-0.893076,-0.336919,1.67432
1480617537362093,-0.89244,-0.336971,1.67446
1480617537390670,-0.892307,-0.336887,1.67436
1480617537400695,-0.892307,-0.336887,1.67436
1480617537422754,-0.892219,-0.336966,1.67436
1480617537452332,-0.892324,-0.337478,1.67454
1480617537460855,-0.892511,-0.337595,1.67493
1480617537481911,-0.892931,-0.337902,1.67537
1480617537502967,-0.893785,-0.338611,1.67579
1480617537519512,-0.893542,-0.33944,1.67599
1480617537542074,-0.894091,-0.340092,1.67635
1480617537563127,-0.895216,-0.340433,1.67692
1480617537586691,-0.895155,-0.340842,1.67731
1480617537602232,-0.895558,-0.341225,1.6776
1480617537623789,-0.895666,-0.341736,1.67778
1480617537639831,-0.896504,-0.341854,1.67802
1480617537662393,-0.897255,-0.342051,1.67825
1480617537699991,-0.897342,-0.341972,1.67825
1480617537705004,-0.897342,-0.341972,1.67825
1480617537722050,-0.897255,-0.342051,1.67825
1480617537744610,-0.897791,-0.341892,1.67815
1480617537760151,-0.897791,-0.341892,1.67815
1480617537789730,-0.898516,-0.341718,1.67847
1480617537810786,-0.899247,-0.341992,1.67855
1480617537819811,-0.899396,-0.342392,1.67859
1480617537842373,-0.899451,-0.342961,1.67893
1480617537864429,-0.900016,-0.343131,1.67922
1480617537879469,-0.900036,-0.343054,1.67938
1480617537902029,-0.900345,-0.34311,1.67944
1480617537924589,-0.900697,-0.343549,1.67989
1480617537939629,-0.900475,-0.343545,1.67979
1480617537978733,-0.901329,-0.343847,1.67999
1480617537986252,-0.902156,-0.343779,1.68026
1480617538005806,-0.902156,-0.343779,1.68026
1480617538022349,-0.902761,-0.343706,1.68043
1480617538051928,-0.903011,-0.344082,1.68046
1480617538067970,-0.903233,-0.344086,1.68056
1480617538082008,-0.903233,-0.344086,1.68056
1480617538104568,-0.903172,-0.343868,1.68045
1480617538119106,-0.903172,-0.343868,1.68045
1480617538142168,-0.903818,-0.344091,1.68057
1480617538180771,-0.903731,-0.34417,1.68058
1480617538185784,-0.903818,-0.344091,1.68057
1480617538201827,-0.903804,-0.344036,1.68058
1480617538225390,-0.903892,-0.343957,1.68058
1480617538253965,-0.903756,-0.343873,1.68047
1480617538261986,-0.903307,-0.343952,1.68056
1480617538305604,-0.903307,-0.343952,1.68056
1480617538316632,-0.90338,-0.343818,1.68056
1480617538328163,-0.90338,-0.343818,1.68056
1480617538344707,-0.903627,-0.343526,1.68055
1480617538373784,-0.903028,-0.343337,1.68058
1480617538382317,-0.903028,-0.343337,1.68058
1480617538404868,-0.903115,-0.343258,1.68057
1480617538425529,-0.904223,-0.342917,1.68052
1480617538466136,-0.904223,-0.342917,1.68052
1480617538470649,-0.904223,-0.342917,1.68052
1480617538485688,-0.904223,-0.342917,1.68052
1480617538501731,-0.903649,-0.342431,1.68043
1480617538532814,-0.903042,-0.341836,1.68022
1480617538545848,-0.903042,-0.341836,1.68022
1480617538563896,-0.902477,-0.341667,1.67994
1480617538585955,-0.902477,-0.341667,1.67994
1480617538607011,-0.902477,-0.341667,1.67994
1480617538622051,-0.902597,-0.341566,1.68008
1480617538652137,-0.902463,-0.341482,1.67997
1480617538673187,-0.902376,-0.341561,1.67998
1480617538682212,-0.902376,-0.341561,1.67998
1480617538704772,-0.902463,-0.341482,1.67997
1480617538733347,-0.902078,-0.341023,1.67984
1480617538742373,-0.901506,-0.340536,1.67975
1480617538764430,-0.900641,-0.340716,1.67963
1480617538786990,-0.900641,-0.340716,1.67963
1480617538817070,-0.900641,-0.340716,1.67963
1480617538824590,-0.901082,-0.3401,1.67933
1480617538848654,-0.901746,-0.33962,1.67911
1480617538861689,-0.901746,-0.33962,1.67911
1480617538885252,-0.901611,-0.339537,1.679
1480617538908815,-0.901746,-0.33962,1.67911
1480617538923353,-0.901718,-0.33938,1.67915
1480617538944409,-0.901718,-0.33938,1.67915
1480617538966968,-0.901671,-0.339218,1.67904
1480617538983011,-0.901671,-0.339218,1.67904
1480617539012590,-0.901705,-0.339195,1.67919
1480617539028131,-0.901302,-0.338813,1.6789
1480617539041670,-0.901777,-0.338306,1.67873
1480617539064728,-0.902845,-0.338121,1.67836
1480617539087791,-0.902992,-0.337811,1.67883
1480617539115864,-0.902341,-0.337721,1.67854
1480617539125891,-0.900993,-0.337246,1.6779
1480617539147950,-0.900946,-0.337083,1.67779
1480617539171512,-0.901402,-0.336742,1.67789
1480617539184548,-0.900403,-0.336836,1.67766
1480617539216131,-0.90033,-0.33697,1.67766
1480617539228164,-0.900269,-0.336753,1.67756
1480617539253231,-0.901115,-0.33652,1.67755
1480617539267769,-0.901188,-0.336387,1.67755
1480617539289828,-0.901088,-0.336281,1.67759
1480617539310884,-0.900364,-0.336323,1.67731
1480617539341465,-0.90023,-0.336239,1.67721
1480617539350489,-0.901251,-0.335849,1.67719
1480617539364526,-0.90119,-0.335632,1.67709
1480617539393102,-0.901102,-0.335711,1.67709
1480617539408146,-0.900433,-0.335654,1.67712
1480617539424686,-0.900433,-0.335654,1.67712
1480617539447246,-0.900352,-0.335514,1.67686
1480617539483843,-0.900352,-0.335514,1.67686
1480617539493374,-0.900352,-0.335514,1.67686
1480617539514425,-0.900366,-0.335568,1.67685
1480617539529465,-0.900386,-0.335491,1.677
1480617539544506,-0.900473,-0.335412,1.677
1480617539567567,-0.900072,-0.33503,1.67671
1480617539614692,-0.900072,-0.33503,1.67671
1480617539622213,-0.900072,-0.33503,1.67671
1480617539641766,-0.899938,-0.334946,1.67661
1480617539650287,-0.899865,-0.335079,1.6766
1480617539671342,-0.899336,-0.335018,1.67644
1480617539686884,-0.898833,-0.335196,1.67623
1480617539708444,-0.898699,-0.335112,1.67612
1480617539725487,-0.898699,-0.335112,1.67612
1480617539747044,-0.89882,-0.335011,1.67627
1480617539786148,-0.899042,-0.335015,1.67637
1480617539790669,-0.898908,-0.334931,1.67626
1480617539807204,-0.898908,-0.334931,1.67626
1480617539845305,-0.898908,-0.334931,1.67626
1480617539847311,-0.898908,-0.334931,1.67626
1480617539872878,-0.898908,-0.334931,1.67626
1480617539890927,-0.898881,-0.334692,1.67631
1480617539919503,-0.898881,-0.334692,1.67631
1480617539927524,-0.898895,-0.334746,1.6763
1480617539949583,-0.898532,-0.334877,1.67636
1480617539964122,-0.897882,-0.334874,1.67651
1480617539987183,-0.896924,-0.334815,1.6766
1480617540009743,-0.89679,-0.334732,1.67649
1480617540032302,-0.89679,-0.334732,1.67649
1480617540053359,-0.89679,-0.334732,1.67649
1480617540083940,-0.896878,-0.334652,1.67649
1480617540092464,-0.896751,-0.334307,1.67658
1480617540131567,-0.896256,-0.334223,1.67656
1480617540136079,-0.895467,-0.334268,1.67645
1480617540144100,-0.894763,-0.334365,1.67629
1480617540174683,-0.894763,-0.334365,1.67629
1480617540197745,-0.894851,-0.334285,1.67629
1480617540205764,-0.894851,-0.334285,1.67629
1480617540227823,-0.894885,-0.334263,1.67644
1480617540257903,-0.894751,-0.334179,1.67633
1480617540270436,-0.894885,-0.334263,1.67644
1480617540286980,-0.894838,-0.3341,1.67633
1480617540310042,-0.894838,-0.3341,1.67633
1480617540330597,-0.894738,-0.333994,1.67637
1480617540355163,-0.894738,-0.333994,1.67637
1480617540369700,-0.894605,-0.33391,1.67627
1480617540398276,-0.894692,-0.333831,1.67626
1480617540413317,-0.895248,-0.333596,1.67631
1480617540429359,-0.895248,-0.333596,1.67631
1480617540450415,-0.895262,-0.33365,1.67631
1480617540476485,-0.895128,-0.333566,1.6762
1480617540489519,-0.895114,-0.333512,1.67621
1480617540510576,-0.895201,-0.333433,1.6762
1480617540527119,-0.895235,-0.333411,1.67635
1480617540557201,-0.895101,-0.333327,1.67625
1480617540571236,-0.895116,-0.333381,1.67624
1480617540594799,-0.895101,-0.333327,1.67625
1480617540609338,-0.895101,-0.333327,1.67625
1480617540630394,-0.895101,-0.333327,1.67625
1480617540646943,-0.895116,-0.333381,1.67624
1480617540679025,-0.895028,-0.33346,1.67625
1480617540692559,-0.895116,-0.333381,1.67624
1480617540707600,-0.895121,-0.333251,1.6764
1480617540730160,-0.895121,-0.333251,1.6764
1480617540760239,-0.894914,-0.3333,1.6763
1480617540767258,-0.895011,-0.33287,1.67606
1480617540789819,-0.895011,-0.33287,1.67606
1480617540812379,-0.895011,-0.33287,1.67606
1480617540826917,-0.895084,-0.332737,1.67606
1480617540864517,-0.894965,-0.332707,1.67595
1480617540872538,-0.895143,-0.333085,1.67613
1480617540894597,-0.895055,-0.333164,1.67614
1480617540909637,-0.895143,-0.333085,1.67613
1480617540932197,-0.894902,-0.333115,1.67634
1480617540955760,-0.894683,-0.333604,1.67689
1480617540969797,-0.894371,-0.334393,1.67772
1480617540992357,-0.893305,-0.335248,1.67812
1480617541009402,-0.89275,-0.335573,1.6785
1480617541038982,-0.893137,-0.335812,1.67836
1480617541058535,-0.891466,-0.336154,1.67751
1480617541073071,-0.89237,-0.336179,1.67714
1480617541089617,-0.892382,-0.336941,1.67671
1480617541112676,-0.892382,-0.336941,1.67671
1480617541135237,-0.892503,-0.33684,1.67685
1480617541150277,-0.892576,-0.336706,1.67685
1480617541172838,-0.891788,-0.336751,1.67674
1480617541194896,-0.891788,-0.336751,1.67674
1480617541233499,-0.891788,-0.336751,1.67674
1480617541238010,-0.891788,-0.336751,1.67674
1480617541256058,-0.891306,-0.336853,1.67668
1480617541269595,-0.891172,-0.336769,1.67658
1480617541315717,-0.891085,-0.336849,1.67658
1480617541321232,-0.891206,-0.336747,1.67673
1480617541333265,-0.891206,-0.336747,1.67673
1480617541352315,-0.89186,-0.336708,1.67717
1480617541372869,-0.890977,-0.337144,1.67776
1480617541389414,-0.889213,-0.33734,1.67754
1480617541412975,-0.889126,-0.337419,1.67755
1480617541433029,-0.889447,-0.337439,1.67717
1480617541449573,-0.890389,-0.337311,1.67712
1480617541472134,-0.890783,-0.337288,1.67718
1480617541510736,-0.890783,-0.337288,1.67718
1480617541517253,-0.890596,-0.337261,1.67723
1480617541532293,-0.890176,-0.337045,1.67722
1480617541556358,-0.889482,-0.33679,1.67683
1480617541569392,-0.889482,-0.33679,1.67683
1480617541597968,-0.889362,-0.33676,1.67672
1480617541622032,-0.889782,-0.336977,1.67673
1480617541629553,-0.890456,-0.337308,1.67696
1480617541659131,-0.890544,-0.337228,1.67695
1480617541676176,-0.890089,-0.337034,1.67679
1480617541690217,-0.890089,-0.337034,1.67679
1480617541712273,-0.890089,-0.337034,1.67679
1480617541749873,-0.890089,-0.337034,1.67679
1480617541756891,-0.890089,-0.337034,1.67679
1480617541786471,-0.889955,-0.33695,1.67669
1480617541797000,-0.889955,-0.33695,1.67669
1480617541815547,-0.889969,-0.337004,1.67668
1480617541832091,-0.890003,-0.336982,1.67683
1480617541860667,-0.890076,-0.336848,1.67683
1480617541868688,-0.889943,-0.336764,1.67673
1480617541893257,-0.89003,-0.336685,1.67672
1480617541914309,-0.889943,-0.336764,1.67673
1480617541928848,-0.889943,-0.336764,1.67673
1480617541965446,-0.889943,-0.336764,1.67673
1480617541974974,-0.89003,-0.336685,1.67672
1480617541990512,-0.88993,-0.336579,1.67676
1480617542013573,-0.88993,-0.336579,1.67676
1480617542034630,-0.88993,-0.336579,1.67676
1480617542063206,-0.88993,-0.336579,1.67676
1480617542072229,-0.890137,-0.33653,1.67687
1480617542094790,-0.890137,-0.33653,1.67687
1480617542108827,-0.890018,-0.3365,1.67676
1480617542131889,-0.88993,-0.336579,1.67676
1480617542154449,-0.890018,-0.3365,1.67676
1480617542175504,-0.890004,-0.336446,1.67677
1480617542192550,-0.890004,-0.336446,1.67677
1480617542215610,-0.890004,-0.336446,1.67677
1480617542235664,-0.890004,-0.336446,1.67677
1480617542252710,-0.890004,-0.336446,1.67677
1480617542275270,-0.889965,-0.336021,1.67685
1480617542296325,-0.889831,-0.335937,1.67675
1480617542311867,-0.889845,-0.335991,1.67674
1480617542342449,-0.889745,-0.335885,1.67678
1480617542363003,-0.889745,-0.335885,1.67678
1480617542372528,-0.889818,-0.335752,1.67679
1480617542394588,-0.889906,-0.335673,1.67678
1480617542417147,-0.889906,-0.335673,1.67678
1480617542432187,-0.889818,-0.335752,1.67679
1480617542455749,-0.889818,-0.335752,1.67679
1480617542483324,-0.889818,-0.335752,1.67679
1480617542492347,-0.889906,-0.335673,1.67678
1480617542514406,-0.889806,-0.335567,1.67682
1480617542535462,-0.889806,-0.335567,1.67682
1480617542559526,-0.889806,-0.335567,1.67682
1480617542582587,-0.889806,-0.335567,1.67682
1480617542611165,-0.889893,-0.335487,1.67682
1480617542628710,-0.89036,-0.335331,1.67688
1480617542642246,-0.890407,-0.335495,1.67699
1480617542657286,-0.891072,-0.336177,1.67745
1480617542672328,-0.892741,-0.337169,1.67837
1480617542694886,-0.895047,-0.338107,1.67915
1480617542723966,-0.897359,-0.338914,1.67996
1480617542740508,-0.899974,-0.339502,1.68058
1480617542755046,-0.902196,-0.339981,1.68117
1480617542777105,-0.903936,-0.339895,1.68168
1480617542791644,-0.904158,-0.339899,1.68178
1480617542814705,-0.903714,-0.339847,1.68204
1480617542837264,-0.903265,-0.340058,1.68211
1480617542851804,-0.902245,-0.34032,1.68215
1480617542898428,-0.902111,-0.340236,1.68204
1480617542903441,-0.902902,-0.339971,1.68176
1480617542913970,-0.903519,-0.339995,1.68146
1480617542934524,-0.904166,-0.340347,1.68155
1480617542972123,-0.904591,-0.340652,1.682
1480617542974631,-0.904544,-0.340576,1.68232
1480617542994684,-0.904631,-0.340497,1.68231
1480617543024767,-0.904718,-0.340418,1.68231
1480617543038302,-0.904718,-0.340418,1.68231
1480617543056348,-0.905365,-0.34077,1.6824
1480617543077905,-0.904876,-0.341223,1.68258
1480617543097958,-0.904857,-0.341387,1.68286
1480617543114502,-0.905872,-0.341345,1.68308
1480617543138568,-0.905824,-0.341182,1.68297
1480617543158620,-0.905824,-0.341182,1.68297
1480617543176668,-0.905824,-0.341182,1.68297
1480617543197223,-0.905824,-0.341182,1.68297
1480617543220786,-0.905824,-0.341182,1.68297
1480617543248358,-0.905945,-0.34108,1.68311
1480617543256883,-0.905945,-0.34108,1.68311
1480617543277937,-0.90581,-0.340997,1.683
1480617543294481,-0.905298,-0.340859,1.68299
1480617543324563,-0.905298,-0.340859,1.68299
1480617543338097,-0.905385,-0.34078,1.68299
1480617543354643,-0.905419,-0.340758,1.68314
1480617543391238,-0.905284,-0.340674,1.68303
1480617543398258,-0.905284,-0.340674,1.68303
1480617543414801,-0.905009,-0.340726,1.68308
1480617543444380,-0.904646,-0.340727,1.68317
1480617543458418,-0.904646,-0.340727,1.68317
1480617543474460,-0.904511,-0.340644,1.68306
1480617543497020,-0.904424,-0.340723,1.68307
1480617543525596,-0.904511,-0.340644,1.68306
1480617543536128,-0.904511,-0.340644,1.68306
1480617543557181,-0.904598,-0.340564,1.68306
1480617543579740,-0.904584,-0.34051,1.68307
1480617543594780,-0.903632,-0.34077,1.68295
1480617543616839,-0.903632,-0.34077,1.68295
1480617543639399,-0.903705,-0.340636,1.68295
1480617543661959,-0.903739,-0.340613,1.6831
1480617543683015,-0.903705,-0.340636,1.68295
1480617543701063,-0.903705,-0.340636,1.68295
1480617543722119,-0.903086,-0.340524,1.68282
1480617543737160,-0.903159,-0.34039,1.68282
1480617543767239,-0.903193,-0.340368,1.68297
1480617543773757,-0.903193,-0.340368,1.68297
1480617543804839,-0.903193,-0.340368,1.68297
1480617543820883,-0.902415,-0.3406,1.68281
1480617543833917,-0.902415,-0.3406,1.68281
1480617543856979,-0.902415,-0.3406,1.68281
1480617543879538,-0.902502,-0.340521,1.6828
1480617543900594,-0.901595,-0.340407,1.68273
1480617543925159,-0.902106,-0.340544,1.68274
1480617543947218,-0.902106,-0.340544,1.68274
1480617543954738,-0.901856,-0.340169,1.68272
1480617543977298,-0.901708,-0.340031,1.68262
1480617544014397,-0.901708,-0.340031,1.68262
1480617544023926,-0.901722,-0.340086,1.68261
1480617544036956,-0.901829,-0.339929,1.68276
1480617544059517,-0.901915,-0.33985,1.68275
1480617544083080,-0.901915,-0.33985,1.68275
1480617544097117,-0.901781,-0.339766,1.68265
1480617544120681,-0.901028,-0.339571,1.68241
1480617544140733,-0.900894,-0.339487,1.6823
1480617544164797,-0.901014,-0.339386,1.68245
1480617544186856,-0.901101,-0.339307,1.68244
1480617544200894,-0.900088,-0.339349,1.68222
1480617544218440,-0.900396,-0.339316,1.68185
1480617544239997,-0.900396,-0.339316,1.68185
1480617544260551,-0.900469,-0.339183,1.68186
1480617544279603,-0.900094,-0.339129,1.68195
1480617544299655,-0.899598,-0.339046,1.68194
1480617544328232,-0.899598,-0.339046,1.68194
1480617544337256,-0.900391,-0.339536,1.68212
1480617544368339,-0.900464,-0.339402,1.68212
1480617544381875,-0.900551,-0.339323,1.68212
1480617544396914,-0.900551,-0.339323,1.68212
1480617544419475,-0.900686,-0.339407,1.68222
1480617544442034,-0.900155,-0.339347,1.68206
1480617544457074,-0.900142,-0.339292,1.68206
1480617544479634,-0.900262,-0.33919,1.68221
1480617544502195,-0.899819,-0.339051,1.68204
1480617544517234,-0.899101,-0.338964,1.68192
1480617544539796,-0.898445,-0.339094,1.6819
1480617544561853,-0.898445,-0.339094,1.6819
1480617544576893,-0.898518,-0.338961,1.68191
1480617544605468,-0.898518,-0.338961,1.68191
1480617544622013,-0.898518,-0.338961,1.68191
1480617544638056,-0.898384,-0.338877,1.6818
1480617544659616,-0.897546,-0.338761,1.68157
1480617544665128,-0.897546,-0.338761,1.68157
1480617544687688,-0.897667,-0.338659,1.68171
1480617544703730,-0.897667,-0.338659,1.68171
1480617544724787,-0.897667,-0.338659,1.68171
1480617544752360,-0.897532,-0.338575,1.68161
1480617544763890,-0.897619,-0.338496,1.6816
1480617544784947,-0.89711,-0.338228,1.68162
1480617544807507,-0.896573,-0.337762,1.68123
1480617544840095,-0.896573,-0.337762,1.68123
1480617544845106,-0.896814,-0.337732,1.68103
1480617544867667,-0.896935,-0.33763,1.68117
1480617544884712,-0.896935,-0.33763,1.68117
1480617544912285,-0.897022,-0.337551,1.68116
1480617544927325,-0.896888,-0.337467,1.68106
1480617544943870,-0.896198,-0.33762,1.68089
1480617544964927,-0.896218,-0.337543,1.68105
1480617544990496,-0.896218,-0.337543,1.68105
1480617545007040,-0.896305,-0.337464,1.68105
1480617545035113,-0.896305,-0.337464,1.68105
1480617545047646,-0.895803,-0.337643,1.68084
1480617545063688,-0.895669,-0.337559,1.68073
1480617545092263,-0.895669,-0.337559,1.68073
1480617545115827,-0.89579,-0.337458,1.68087
1480617545123850,-0.895214,-0.337234,1.6806
1480617545147913,-0.894465,-0.337038,1.68036
1480617545167466,-0.894826,-0.336906,1.6803
1480617545195539,-0.894913,-0.336827,1.6803
1480617545205064,-0.894545,-0.336553,1.68013
1480617545228126,-0.893997,-0.336528,1.68027
1480617545251689,-0.893889,-0.336815,1.68009
1480617545281267,-0.895148,-0.336927,1.67993
1480617545287283,-0.894332,-0.336734,1.67986
1480617545309842,-0.895294,-0.336749,1.68036
1480617545324883,-0.894592,-0.336806,1.68067
1480617545355465,-0.893274,-0.336792,1.68039
1480617545371507,-0.893027,-0.336994,1.67997
1480617545394068,-0.89407,-0.336972,1.67987
1480617545407604,-0.894927,-0.337012,1.68026
1480617545431667,-0.894927,-0.337012,1.68026
1480617545469268,-0.894499,-0.337016,1.68051
1480617545474281,-0.89393,-0.337198,1.68047
1480617545489822,-0.89393,-0.337198,1.68047
1480617545520904,-0.893816,-0.337038,1.68052
1480617545530429,-0.893816,-0.337038,1.68052
1480617545558505,-0.893682,-0.336954,1.68041
1480617545581064,-0.893883,-0.337035,1.68035
1480617545587582,-0.893883,-0.337035,1.68035
1480617545610142,-0.893883,-0.337035,1.68035
1480617545624688,-0.89397,-0.336956,1.68035
1480617545647240,-0.89397,-0.336956,1.68035
1480617545672809,-0.89397,-0.336956,1.68035
1480617545684841,-0.893749,-0.336951,1.68025
1480617545707405,-0.89397,-0.336956,1.68035
1480617545729961,-0.89397,-0.336956,1.68035
1480617545748008,-0.893836,-0.336872,1.68024
1480617545767561,-0.894123,-0.337004,1.68015
1480617545790122,-0.894123,-0.337004,1.68015
1480617545805160,-0.894257,-0.337088,1.68026
1480617545852286,-0.894378,-0.336986,1.6804
1480617545858803,-0.894244,-0.336903,1.68029
1480617545864819,-0.894244,-0.336903,1.68029
1480617545887380,-0.894244,-0.336903,1.68029
1480617545909940,-0.894244,-0.336903,1.68029
1480617545925481,-0.89423,-0.336849,1.6803
1480617545953054,-0.894318,-0.336769,1.6803
1480617545970100,-0.894318,-0.336769,1.6803
1480617545995667,-0.89423,-0.336849,1.6803
1480617546024745,-0.894244,-0.336903,1.68029
1480617546032766,-0.894318,-0.336769,1.6803
1480617546054825,-0.894318,-0.336769,1.6803
1480617546067361,-0.894318,-0.336769,1.6803
1480617546089920,-0.894318,-0.336769,1.6803
1480617546106463,-0.894318,-0.336769,1.6803
1480617546127518,-0.894318,-0.336769,1.6803
1480617546150079,-0.894405,-0.33669,1.68029
1480617546166622,-0.894405,-0.33669,1.68029
1480617546188681,-0.894405,-0.33669,1.68029
1480617546226782,-0.894405,-0.33669,1.68029
1480617546229290,-0.894405,-0.33669,1.68029
1480617546247337,-0.894973,-0.336508,1.68034
1480617546270900,-0.894839,-0.336424,1.68023
1480617546286441,-0.894839,-0.336424,1.68023
1480617546307497,-0.894839,-0.336424,1.68023
1480617546331561,-0.894839,-0.336424,1.68023
1480617546346602,-0.894839,-0.336424,1.68023
1480617546367658,-0.894912,-0.336291,1.68023
1480617546389717,-0.89496,-0.336323,1.68037
1480617546407764,-0.894873,-0.336402,1.68038
1480617546428318,-0.894739,-0.336318,1.68028
1480617546449876,-0.894873,-0.336402,1.68038
1480617546481460,-0.89496,-0.336323,1.68037
1480617546503518,-0.89496,-0.336323,1.68037
1480617546510036,-0.894739,-0.336318,1.68028
1480617546528084,-0.894739,-0.336318,1.68028
1480617546547636,-0.894739,-0.336318,1.68028
1480617546583231,-0.895615,-0.335526,1.68035
1480617546588745,-0.896298,-0.334968,1.68029
1480617546607797,-0.896847,-0.334863,1.68018
1480617546631358,-0.896165,-0.334753,1.68021
1480617546647903,-0.896165,-0.334753,1.68021
1480617546667455,-0.896827,-0.334362,1.68042
1480617546690015,-0.897262,-0.334097,1.68036
1480617546708564,-0.897189,-0.33423,1.68035
1480617546727614,-0.897189,-0.33423,1.68035
1480617546750174,-0.897189,-0.33423,1.68035
1480617546781258,-0.897262,-0.334097,1.68036
1480617546794794,-0.898869,-0.333577,1.68051
1480617546809834,-0.898085,-0.333492,1.68056
1480617546827882,-0.897462,-0.333731,1.68067
1480617546863978,-0.897476,-0.333785,1.68066
1480617546869993,-0.897462,-0.333731,1.68067
1480617546888543,-0.897549,-0.333652,1.68066
1480617546907596,-0.897362,-0.333625,1.68071
1480617546930154,-0.897376,-0.333679,1.6807
1480617546961236,-0.897342,-0.333701,1.68055
1480617546974772,-0.897328,-0.333647,1.68056
1480617547000340,-0.898251,-0.333685,1.68079
1480617547012374,-0.898251,-0.333685,1.68079
1480617547028916,-0.89785,-0.333927,1.68099
1480617547051476,-0.897729,-0.334029,1.68085
1480617547080052,-0.897763,-0.334007,1.681
1480617547091081,-0.897716,-0.333844,1.68089
1480617547110133,-0.897716,-0.333844,1.68089
1480617547135700,-0.897716,-0.333844,1.68089
1480617547149237,-0.897763,-0.334007,1.681
1480617547169790,-0.897763,-0.334007,1.681
1480617547193855,-0.89785,-0.333927,1.68099
1480617547210901,-0.89785,-0.333927,1.68099
1480617547237471,-0.897716,-0.333844,1.68089
1480617547255018,-0.897643,-0.333977,1.68088
1480617547276575,-0.897643,-0.333977,1.68088
1480617547290111,-0.897643,-0.333977,1.68088
1480617547330218,-0.897716,-0.333844,1.68089
1480617547335732,-0.897716,-0.333844,1.68089
1480617547349770,-0.897716,-0.333844,1.68089
1480617547379849,-0.897716,-0.333844,1.68089
1480617547410934,-0.897716,-0.333844,1.68089
1480617547418954,-0.89785,-0.333927,1.68099
1480617547440013,-0.897716,-0.333844,1.68089
1480617547450538,-0.897643,-0.333977,1.68088
1480617547479114,-0.897643,-0.333977,1.68088
1480617547492650,-0.897643,-0.333977,1.68088
1480617547510197,-0.897716,-0.333844,1.68089
1480617547529750,-0.897716,-0.333844,1.68089
1480617547552309,-0.897047,-0.33392,1.68088
1480617547583893,-0.897061,-0.333974,1.68088
1480617547589909,-0.897061,-0.333974,1.68088
1480617547612469,-0.897047,-0.33392,1.68088
1480617547636533,-0.897047,-0.33392,1.68088
1480617547650069,-0.897355,-0.333844,1.68098
1480617547689674,-0.897355,-0.333844,1.68098
1480617547691680,-0.897321,-0.333867,1.68083
1480617547709729,-0.89791,-0.333609,1.68103
1480617547732289,-0.898599,-0.333456,1.68119
1480617547750336,-0.898599,-0.333456,1.68119
1480617547769888,-0.898512,-0.333535,1.6812
1480617547792949,-0.898512,-0.333535,1.6812
1480617547810496,-0.898512,-0.333535,1.6812
1480617547830048,-0.89898,-0.333379,1.68126
1480617547854613,-0.898994,-0.333433,1.68125
1480617547876671,-0.898907,-0.333512,1.68126
1480617547889707,-0.898907,-0.333512,1.68126
1480617547913770,-0.898907,-0.333512,1.68126
1480617547930315,-0.898994,-0.333433,1.68125
1480617547958890,-0.898994,-0.333433,1.68125
1480617547980449,-0.898907,-0.333512,1.68126
1480617547990478,-0.898907,-0.333512,1.68126
1480617548012032,-0.898907,-0.333512,1.68126
1480617548034091,-0.899496,-0.333254,1.68146
1480617548055147,-0.899496,-0.333254,1.68146
1480617548071691,-0.899496,-0.333254,1.68146
1480617548092245,-0.900077,-0.333346,1.6819
1480617548125835,-0.900077,-0.333346,1.6819
1480617548131349,-0.900165,-0.333267,1.6819
1480617548152405,-0.900165,-0.333267,1.6819
1480617548170955,-0.900165,-0.333267,1.6819
1480617548199531,-0.900044,-0.333368,1.68175
1480617548212565,-0.900774,-0.333598,1.68229
1480617548235125,-0.901074,-0.333338,1.68256
1480617548251169,-0.901074,-0.333338,1.68256
1480617548282250,-0.902045,-0.332913,1.6824
1480617548306315,-0.902079,-0.33289,1.68255
1480617548312832,-0.901235,-0.333037,1.68212
1480617548332384,-0.901698,-0.333011,1.68202
1480617548357952,-0.903226,-0.332974,1.68241
1480617548372993,-0.903957,-0.333246,1.68249
1480617548392544,-0.90477,-0.333702,1.68237
1480617548410592,-0.905589,-0.333895,1.68245
1480617548446149,-0.906381,-0.333849,1.68257
1480617548469712,-0.907415,-0.333729,1.68294
1480617548471717,-0.907897,-0.333714,1.68343
1480617548494277,-0.908253,-0.333932,1.68361
1480617548513829,-0.908166,-0.334011,1.68361
1480617548534885,-0.908046,-0.333982,1.6835
1480617548554938,-0.909061,-0.333984,1.68326
1480617548572485,-0.910903,-0.333916,1.68329
1480617548595045,-0.911697,-0.33387,1.68341
1480617548613092,-0.91276,-0.33399,1.68375
1480617548640169,-0.9135,-0.333999,1.68403
1480617548654705,-0.91354,-0.333889,1.68388
1480617548672752,-0.913191,-0.334074,1.68393
1480617548692303,-0.913191,-0.334074,1.68393
1480617548715866,-0.912983,-0.334125,1.68382
1480617548732911,-0.912895,-0.334204,1.68383
1480617548752464,-0.913845,-0.334077,1.68378
1480617548776528,-0.914161,-0.333784,1.68361
1480617548801093,-0.914626,-0.33376,1.68351
1480617548820144,-0.91444,-0.334399,1.6836
1480617548835184,-0.914705,-0.334959,1.68359
1480617548854738,-0.915973,-0.335292,1.68385
1480617548872283,-0.917545,-0.335278,1.68394
1480617548894843,-0.919442,-0.335374,1.68409
1480617548912890,-0.920957,-0.33568,1.68415
1480617548942469,-0.919994,-0.336286,1.68427
1480617548964026,-0.918969,-0.336546,1.68431
1480617548973055,-0.91799,-0.336347,1.68397
1480617548994106,-0.917422,-0.336179,1.68367
1480617549017670,-0.917048,-0.336706,1.68338
1480617549032709,-0.917562,-0.336975,1.68337
1480617549053765,-0.9178,-0.337249,1.68386
1480617549074821,-0.918595,-0.337157,1.68445
1480617549106912,-0.919066,-0.337,1.68451
1480617549119943,-0.91978,-0.336685,1.6844
1480617549137991,-0.920407,-0.336448,1.6843
1480617549153029,-0.920495,-0.33637,1.68429
1480617549181605,-0.920495,-0.33637,1.68429
1480617549195142,-0.920033,-0.336045,1.68415
1480617549218703,-0.920033,-0.336045,1.68415
1480617549250790,-0.919567,-0.336069,1.68425
1480617549272849,-0.918776,-0.335982,1.68429
1480617549275355,-0.918329,-0.335797,1.68457
1480617549296411,-0.918329,-0.335797,1.68457
1480617549314960,-0.918577,-0.335506,1.68456
1480617549333509,-0.918577,-0.335506,1.68456
1480617549364091,-0.91799,-0.335501,1.68455
1480617549375121,-0.91799,-0.335501,1.68455
1480617549392667,-0.918077,-0.335422,1.68454
1480617549416230,-0.917064,-0.335201,1.68451
1480617549434779,-0.915817,-0.335457,1.68445
1480617549464859,-0.914935,-0.335583,1.68433
1480617549475387,-0.914005,-0.335546,1.6841
1480617549497947,-0.913459,-0.335301,1.68397
1480617549512987,-0.913552,-0.334873,1.68372
1480617549550085,-0.913552,-0.334873,1.68372
1480617549555099,-0.912859,-0.335026,1.68356
1480617549584678,-0.912859,-0.335026,1.68356
1480617549603230,-0.912502,-0.334808,1.68338
1480617549615259,-0.912589,-0.334729,1.68337
1480617549633308,-0.912589,-0.334729,1.68337
1480617549661384,-0.910995,-0.335171,1.68336
1480617549674918,-0.909974,-0.335431,1.68341
1480617549692966,-0.909349,-0.335669,1.68351
1480617549716026,-0.909935,-0.335586,1.68309
1480617549736582,-0.908663,-0.33569,1.68351
1480617549753628,-0.909745,-0.335905,1.68487
1480617549775185,-0.907799,-0.336798,1.68472
1480617549797744,-0.907465,-0.337169,1.68474
1480617549813787,-0.907749,-0.337521,1.68492
1480617549836347,-0.908619,-0.338007,1.68508
1480617549858406,-0.909073,-0.33855,1.68549
1480617549880966,-0.909098,-0.33927,1.68566
1480617549910545,-0.909592,-0.339572,1.68594
1480617549918065,-0.909761,-0.339763,1.68617
1480617549940624,-0.909761,-0.339763,1.68617
1480617549968198,-0.909761,-0.339763,1.68617
1480617549993264,-0.909011,-0.340236,1.68597
1480617549997275,-0.909011,-0.340236,1.68597
1480617550019836,-0.908164,-0.340341,1.686
1480617550052423,-0.906462,-0.340275,1.68581
1480617550058940,-0.905288,-0.340532,1.68559
1480617550081500,-0.904698,-0.340792,1.68538
1480617550112582,-0.903717,-0.340813,1.68531
1480617550125116,-0.902559,-0.341344,1.68549
1480617550135142,-0.901575,-0.341586,1.68568
1480617550156199,-0.899318,-0.34211,1.68567
1480617550194801,-0.898194,-0.342531,1.68557
1480617550197308,-0.897952,-0.342603,1.68531
1480617550233905,-0.897964,-0.342569,1.68487
1480617550244934,-0.898025,-0.341939,1.68421
1480617550272508,-0.898096,-0.341586,1.6838
1480617550278022,-0.898094,-0.341496,1.68337
1480617550305595,-0.897308,-0.341323,1.68298
1480617550315121,-0.896557,-0.341128,1.68275
1480617550343697,-0.895806,-0.340933,1.68251
1480617550358737,-0.895176,-0.340636,1.68242
1480617550387312,-0.894954,-0.340631,1.68232
1480617550398844,-0.894592,-0.340674,1.68194
1480617550417393,-0.894317,-0.340506,1.6816
1480617550439952,-0.894549,-0.340069,1.68116
1480617550466530,-0.894628,-0.339584,1.68093
1480617550485073,-0.894466,-0.33904,1.68046
1480617550502119,-0.89454,-0.338686,1.68006
1480617550523676,-0.894445,-0.33827,1.67941
1480617550544732,-0.894493,-0.337586,1.67862
1480617550555261,-0.894173,-0.336629,1.67767
1480617550592358,-0.893541,-0.335836,1.67693
1480617550598876,-0.892888,-0.335339,1.67642
1480617550617926,-0.892888,-0.335339,1.67642
1480617550637980,-0.892888,-0.335339,1.67642
1480617550665052,-0.893689,-0.335438,1.67696
1480617550675079,-0.893788,-0.335634,1.67735
1480617550697638,-0.892964,-0.335791,1.67751
1480617550717191,-0.891775,-0.336079,1.6776
1480617550742758,-0.890992,-0.335995,1.67765
1480617550757799,-0.890379,-0.335346,1.67747
1480617550780358,-0.890367,-0.33516,1.6775
1480617550802920,-0.889318,-0.334868,1.67781
1480617550824476,-0.888451,-0.334823,1.67833
1480617550838013,-0.887829,-0.335153,1.67887
1480617550862076,-0.887867,-0.335668,1.67921
1480617550883132,-0.888081,-0.335934,1.67911
1480617550899676,-0.888479,-0.336357,1.67894
1480617550915218,-0.888406,-0.33649,1.67893
1480617550944295,-0.88854,-0.336574,1.67904
1480617550966353,-0.88854,-0.336574,1.67904
1480617550974375,-0.888613,-0.336441,1.67904
1480617550996934,-0.88854,-0.336574,1.67904
1480617551019495,-0.88854,-0.336574,1.67904
1480617551034535,-0.888406,-0.33649,1.67893
1480617551057596,-0.888406,-0.33649,1.67893
1480617551086674,-0.888033,-0.336438,1.67903
1480617551103720,-0.887899,-0.336354,1.67893
1480617551117756,-0.887899,-0.336354,1.67893
1480617551140317,-0.887826,-0.336487,1.67893
1480617551160369,-0.887692,-0.336403,1.67882
1480617551176913,-0.887726,-0.336381,1.67897
1480617551207495,-0.887726,-0.336381,1.67897
1480617551222034,-0.887726,-0.336381,1.67897
1480617551243591,-0.887593,-0.336298,1.67887
1480617551259633,-0.887726,-0.336381,1.67897
1480617551274673,-0.887726,-0.336381,1.67897
1480617551298237,-0.887593,-0.336298,1.67887
1480617551319794,-0.887593,-0.336298,1.67887
1480617551334332,-0.887593,-0.336298,1.67887
1480617551358898,-0.887459,-0.336214,1.67876
1480617551380957,-0.887459,-0.336214,1.67876
1480617551402012,-0.887933,-0.336332,1.67908
1480617551417554,-0.888112,-0.33671,1.67926
1480617551440114,-0.888126,-0.336764,1.67926
1480617551453650,-0.888011,-0.337272,1.67934
1480617551477212,-0.888465,-0.337597,1.67947
1480617551501276,-0.888652,-0.337715,1.67985
1480617551514312,-0.888612,-0.337958,1.67997
1480617551536871,-0.888612,-0.337958,1.67997
1480617551573969,-0.888525,-0.338037,1.67997
1480617551591015,-0.888525,-0.338037,1.67997
1480617551605555,-0.888525,-0.338037,1.67997
1480617551620594,-0.888525,-0.338037,1.67997
1480617551640647,-0.888525,-0.338037,1.67997
1480617551657191,-0.888452,-0.33817,1.67997
1480617551680252,-0.888452,-0.33817,1.67997
1480617551700807,-0.888452,-0.33817,1.67997
1480617551716850,-0.888452,-0.33817,1.67997
1480617551740415,-0.888365,-0.33825,1.67998
1480617551760967,-0.888365,-0.33825,1.67998
1480617551778513,-0.888278,-0.33833,1.67998
1480617551799570,-0.888365,-0.33825,1.67998
1480617551828145,-0.888231,-0.338166,1.67987
1480617551836668,-0.888231,-0.338166,1.67987
1480617551859730,-0.888158,-0.3383,1.67987
1480617551888307,-0.888071,-0.338379,1.67987
1480617551897832,-0.888158,-0.3383,1.67987
1480617551919389,-0.888158,-0.3383,1.67987
1480617551940445,-0.888158,-0.3383,1.67987
1480617551957991,-0.888071,-0.338379,1.67987
1480617551979549,-0.888205,-0.338463,1.67998
1480617552002109,-0.88817,-0.338485,1.67983
1480617552017149,-0.888205,-0.338463,1.67998
1480617552054249,-0.888205,-0.338463,1.67998
1480617552060263,-0.888071,-0.338379,1.67987
1480617552082824,-0.888071,-0.338379,1.67987
1480617552101372,-0.888071,-0.338379,1.67987
1480617552129949,-0.888071,-0.338379,1.67987
1480617552136467,-0.888071,-0.338379,1.67987
1480617552160029,-0.887984,-0.338459,1.67988
1480617552198632,-0.887864,-0.338429,1.67977
1480617552210664,-0.887864,-0.338429,1.67977
1480617552219688,-0.887864,-0.338429,1.67977
1480617552249266,-0.887937,-0.338295,1.67977
1480617552256288,-0.887951,-0.338349,1.67976
1480617552279346,-0.88773,-0.338345,1.67966
1480617552301907,-0.887643,-0.338424,1.67967
1480617552341010,-0.88773,-0.338345,1.67966
1480617552353042,-0.88773,-0.338345,1.67966
1480617552362568,-0.88773,-0.338345,1.67966
1480617552383123,-0.887643,-0.338424,1.67967
1480617552407187,-0.887643,-0.338424,1.67967
1480617552422727,-0.887643,-0.338424,1.67967
1480617552436264,-0.887677,-0.338402,1.67982
1480617552465341,-0.88763,-0.338239,1.67971
1480617552489911,-0.887557,-0.338373,1.6797
1480617552496424,-0.887557,-0.338373,1.6797
1480617552519986,-0.887557,-0.338373,1.6797
1480617552542546,-0.887557,-0.338373,1.6797
1480617552573630,-0.88763,-0.338239,1.67971
1480617552587166,-0.88751,-0.338209,1.67959
1480617552609725,-0.887423,-0.338289,1.6796
1480617552623266,-0.887423,-0.338289,1.6796
1480617552639305,-0.887423,-0.338289,1.6796
1480617552661864,-0.887423,-0.338289,1.6796
1480617552685427,-0.887336,-0.338368,1.6796
1480617552699966,-0.887336,-0.338368,1.6796
1480617552723027,-0.887336,-0.338368,1.6796
1480617552743080,-0.887336,-0.338368,1.6796
1480617552767144,-0.887336,-0.338368,1.6796
1480617552783689,-0.887336,-0.338368,1.6796
1480617552803741,-0.887216,-0.338338,1.67949
1480617552821288,-0.887129,-0.338418,1.6795
1480617552842845,-0.887129,-0.338418,1.6795
1480617552862899,-0.887216,-0.338338,1.67949
1480617552879444,-0.887216,-0.338338,1.67949
1480617552902002,-0.887216,-0.338338,1.67949
1480617552923063,-0.887129,-0.338418,1.6795
1480617552939602,-0.887129,-0.338418,1.6795
1480617552962664,-0.887116,-0.338232,1.67954
1480617552983721,-0.887116,-0.338232,1.67954
1480617553000265,-0.887029,-0.338312,1.67954
1480617553022827,-0.887029,-0.338312,1.67954
1480617553045384,-0.887029,-0.338312,1.67954
1480617553059421,-0.887029,-0.338312,1.67954
1480617553081982,-0.887029,-0.338312,1.67954
1480617553104542,-0.887029,-0.338312,1.67954
1480617553134622,-0.886956,-0.338445,1.67954
1480617553142143,-0.886823,-0.338362,1.67943
1480617553165203,-0.886823,-0.338362,1.67943
1480617553185758,-0.886823,-0.338362,1.67943
1480617553201801,-0.886823,-0.338362,1.67943
1480617553224362,-0.886736,-0.338441,1.67944
1480617553238899,-0.886736,-0.338441,1.67944
1480617553261961,-0.886823,-0.338362,1.67943
1480617553284521,-0.886689,-0.338278,1.67933
1480617553306079,-0.886689,-0.338278,1.67933
1480617553322121,-0.886689,-0.338278,1.67933
1480617553344681,-0.886602,-0.338357,1.67933
1480617553359721,-0.886602,-0.338357,1.67933
1480617553381779,-0.886602,-0.338357,1.67933
1480617553405343,-0.886689,-0.338278,1.67933
1480617553418878,-0.886689,-0.338278,1.67933
1480617553441939,-0.886602,-0.338357,1.67933
1480617553465502,-0.886616,-0.338411,1.67933
1480617553485555,-0.886602,-0.338357,1.67933
1480617553502100,-0.886689,-0.338278,1.67933
1480617553524660,-0.886468,-0.338273,1.67923
1480617553547220,-0.886516,-0.338305,1.67937
1480617553561759,-0.886516,-0.338305,1.67937
1480617553584318,-0.886516,-0.338305,1.67937
1480617553606377,-0.886603,-0.338226,1.67936
1480617553621920,-0.886603,-0.338226,1.67936
1480617553644478,-0.886516,-0.338305,1.67937
1480617553665534,-0.886382,-0.338221,1.67927
1480617553682078,-0.886382,-0.338221,1.67927
1480617553712158,-0.886382,-0.338221,1.67927
1480617553725694,-0.886382,-0.338221,1.67927
1480617553749257,-0.886249,-0.338137,1.67916
1480617553764798,-0.886249,-0.338137,1.67916
1480617553794377,-0.886249,-0.338137,1.67916
1480617553801897,-0.886249,-0.338137,1.67916
1480617553824457,-0.886369,-0.338036,1.6793
1480617553845513,-0.886249,-0.338137,1.67916
1480617553876094,-0.886283,-0.338116,1.67931
1480617553884619,-0.886149,-0.338032,1.67921
1480617553905672,-0.886149,-0.338032,1.67921
1480617553921716,-0.886149,-0.338032,1.67921
1480617553944276,-0.886149,-0.338032,1.67921
1480617553965332,-0.886149,-0.338032,1.67921
1480617553981875,-0.886149,-0.338032,1.67921
1480617554004436,-0.886102,-0.337868,1.6791
1480617554026996,-0.886136,-0.337846,1.67924
1480617554043039,-0.886136,-0.337846,1.67924
1480617554064114,-0.886049,-0.337926,1.67925
1480617554087658,-0.886063,-0.33798,1.67924
1480617554102195,-0.886136,-0.337846,1.67924
1480617554124756,-0.886002,-0.337762,1.67914
1480617554156344,-0.886002,-0.337762,1.67914
1480617554162858,-0.886002,-0.337762,1.67914
1480617554184415,-0.886002,-0.337762,1.67914
1480617554206974,-0.886002,-0.337762,1.67914
1480617554229033,-0.88599,-0.337577,1.67918
1480617554245577,-0.88599,-0.337577,1.67918
1480617554267135,-0.88599,-0.337577,1.67918
1480617554281172,-0.885903,-0.337657,1.67918
1480617554304735,-0.885769,-0.337573,1.67908
1480617554327796,-0.885856,-0.337493,1.67907
1480617554341332,-0.885856,-0.337493,1.67907
1480617554364394,-0.885856,-0.337493,1.67907
1480617554386955,-0.885856,-0.337493,1.67907
1480617554402997,-0.885856,-0.337493,1.67907
1480617554433076,-0.885977,-0.337392,1.67922
1480617554448618,-0.885843,-0.337308,1.67911
1480617554461652,-0.885843,-0.337308,1.67911
1480617554484714,-0.885843,-0.337308,1.67911
1480617554506772,-0.885756,-0.337388,1.67912
1480617554535348,-0.885843,-0.337308,1.67911
1480617554545375,-0.885843,-0.337308,1.67911
1480617554566932,-0.885843,-0.337308,1.67911
1480617554589603,-0.885843,-0.337308,1.67911
1480617554604532,-0.88571,-0.337224,1.67901
1480617554627594,-0.88571,-0.337224,1.67901
1480617554648148,-0.885831,-0.337123,1.67915
1480617554664692,-0.885831,-0.337123,1.67915
1480617554695274,-0.885697,-0.337039,1.67905
1480617554715327,-0.885697,-0.337039,1.67905
1480617554724360,-0.885697,-0.337039,1.67905
1480617554746914,-0.885784,-0.336959,1.67904
1480617554767967,-0.885784,-0.336959,1.67904
1480617554785013,-0.885651,-0.336875,1.67894
1480617554807071,-0.885564,-0.336955,1.67894
1480617554828127,-0.885564,-0.336955,1.67894
1480617554844671,-0.885685,-0.336854,1.67909
1480617554867231,-0.885685,-0.336854,1.67909
1480617554888288,-0.885685,-0.336854,1.67909
1480617554905833,-0.885685,-0.336854,1.67909
1480617554926890,-0.885564,-0.336955,1.67894
1480617554949451,-0.885685,-0.336854,1.67909
1480617554963988,-0.885685,-0.336854,1.67909
1480617554987050,-0.885685,-0.336854,1.67909
1480617555010111,-0.885551,-0.33677,1.67898
1480617555032671,-0.885551,-0.33677,1.67898
1480617555048714,-0.885638,-0.33669,1.67897
1480617555069770,-0.885658,-0.336614,1.67913
1480617555083808,-0.885612,-0.336451,1.67902
1480617555106868,-0.885525,-0.336531,1.67903
1480617555129428,-0.885538,-0.336584,1.67902
1480617555143967,-0.885538,-0.336584,1.67902
1480617555192597,-0.885612,-0.336451,1.67902
1480617555204630,-0.885478,-0.336367,1.67892
1480617555207135,-0.885492,-0.336421,1.67891
1480617555227189,-0.885492,-0.336421,1.67891
1480617555264287,-0.885526,-0.336399,1.67906
1480617555272310,-0.885526,-0.336399,1.67906
1480617555294367,-0.885379,-0.336262,1.67896
1480617555309407,-0.885379,-0.336262,1.67896
1480617555323946,-0.885392,-0.336315,1.67895
1480617555347008,-0.885392,-0.336315,1.67895
1480617555369066,-0.885392,-0.336315,1.67895
1480617555384106,-0.885346,-0.336152,1.67884
1480617555407168,-0.885332,-0.336098,1.67885
1480617555429226,-0.885259,-0.336231,1.67885
1480617555450282,-0.885259,-0.336231,1.67885
1480617555474346,-0.885366,-0.336076,1.679
1480617555489889,-0.885153,-0.335811,1.6791
1480617555510444,-0.885107,-0.335648,1.67899
1480617555540523,-0.885033,-0.335781,1.67899
1480617555549547,-0.885033,-0.335781,1.67899
1480617555572106,-0.885033,-0.335781,1.67899
1480617555587147,-0.885054,-0.335705,1.67914
1480617555609706,-0.886014,-0.3355,1.67925
1480617555630762,-0.886014,-0.3355,1.67925
1480617555647309,-0.885807,-0.335549,1.67914
1480617555684406,-0.885807,-0.335549,1.67914
1480617555691925,-0.885894,-0.33547,1.67913
1480617555706965,-0.885967,-0.335336,1.67914
1480617555737045,-0.885967,-0.335336,1.67914
1480617555750581,-0.885747,-0.335332,1.67904
1480617555767126,-0.885795,-0.335364,1.67918
1480617555789686,-0.885868,-0.335231,1.67918
1480617555812747,-0.885734,-0.335147,1.67908
1480617555826784,-0.885734,-0.335147,1.67908
1480617555849343,-0.885734,-0.335147,1.67908
1480617555870400,-0.885734,-0.335147,1.67908
1480617555886947,-0.885734,-0.335147,1.67908
1480617555924545,-0.885955,-0.335151,1.67917
1480617555940085,-0.885822,-0.335067,1.67907
1480617555947605,-0.885822,-0.335067,1.67907
1480617555969665,-0.885822,-0.335067,1.67907
1480617555991723,-0.885822,-0.335067,1.67907
1480617556015787,-0.885855,-0.335045,1.67922
1480617556029323,-0.885943,-0.334966,1.67921
1480617556051883,-0.885943,-0.334966,1.67921
1480617556066422,-0.885943,-0.334966,1.67921
1480617556103019,-0.885943,-0.334966,1.67921
1480617556112043,-0.885943,-0.334966,1.67921
1480617556133098,-0.885929,-0.334912,1.67922
1480617556149645,-0.885795,-0.334828,1.67912
1480617556172203,-0.885809,-0.334882,1.67911
1480617556186242,-0.885809,-0.334882,1.67911
1480617556216821,-0.885809,-0.334882,1.67911
1480617556231862,-0.885882,-0.334749,1.67911
1480617556246400,-0.885882,-0.334749,1.67911
1480617556269463,-0.885143,-0.334959,1.67911
1480617556292022,-0.885009,-0.334875,1.67901
1480617556306562,-0.885009,-0.334875,1.67901
1480617556330124,-0.885009,-0.334875,1.67901
1480617556358197,-0.885009,-0.334875,1.67901
1480617556373237,-0.885009,-0.334875,1.67901
1480617556389782,-0.885009,-0.334875,1.67901
1480617556417857,-0.885009,-0.334875,1.67901
1480617556432896,-0.885009,-0.334875,1.67901
1480617556450442,-0.885096,-0.334795,1.679
1480617556478017,-0.885096,-0.334795,1.679
1480617556493057,-0.884876,-0.334791,1.6789
1480617556509600,-0.88491,-0.334769,1.67905
1480617556533163,-0.88491,-0.334769,1.67905
1480617556553217,-0.884997,-0.33469,1.67904
1480617556575776,-0.884997,-0.33469,1.67904
1480617556591819,-0.884997,-0.33469,1.67904
1480617556620396,-0.884997,-0.33469,1.67904
1480617556633430,-0.884997,-0.33469,1.67904
1480617556651979,-0.884997,-0.33469,1.67904
1480617556673035,-0.88495,-0.334526,1.67893
1480617556689579,-0.88495,-0.334526,1.67893
1480617556719660,-0.884863,-0.334606,1.67894
1480617556733698,-0.88495,-0.334526,1.67893
1480617556749238,-0.884984,-0.334504,1.67908
1480617556771803,-0.884984,-0.334504,1.67908
1480617556792854,-0.884851,-0.334421,1.67898
1480617556809398,-0.884897,-0.334584,1.67909
1480617556839477,-0.884984,-0.334504,1.67908
1480617556854519,-0.884984,-0.334504,1.67908
1480617556870060,-0.884984,-0.334504,1.67908
1480617556892119,-0.884984,-0.334504,1.67908
1480617556930219,-0.884764,-0.3345,1.67898
1480617556933230,-0.884863,-0.334606,1.67894
1480617556965314,-0.884863,-0.334606,1.67894
1480617556975339,-0.88495,-0.334526,1.67893
1480617556988879,-0.88495,-0.334526,1.67893
1480617557011937,-0.884863,-0.334606,1.67894
1480617557040513,-0.884863,-0.334606,1.67894
1480617557050039,-0.884897,-0.334584,1.67909
1480617557078113,-0.884851,-0.334421,1.67898
1480617557094657,-0.884851,-0.334421,1.67898
1480617557108694,-0.884764,-0.3345,1.67898
1480617557132258,-0.884778,-0.334554,1.67898
1480617557154317,-0.884764,-0.3345,1.67898
1480617557169356,-0.884764,-0.3345,1.67898
1480617557192919,-0.884631,-0.334416,1.67888
1480617557215479,-0.884645,-0.33447,1.67887
1480617557229014,-0.884691,-0.334633,1.67898
1480617557253080,-0.884691,-0.334633,1.67898
1480617557274636,-0.884778,-0.334554,1.67898
1480617557305219,-0.884778,-0.334554,1.67898
1480617557320257,-0.884778,-0.334554,1.67898
1480617557334294,-0.884691,-0.334633,1.67898
1480617557355854,-0.884691,-0.334633,1.67898
1480617557371895,-0.884691,-0.334633,1.67898
1480617557394956,-0.884691,-0.334633,1.67898
1480617557415510,-0.884657,-0.334655,1.67883
1480617557432054,-0.884657,-0.334655,1.67883
1480617557462134,-0.88457,-0.334735,1.67884
1480617557484193,-0.884657,-0.334655,1.67883
1480617557494220,-0.884657,-0.334655,1.67883
1480617557514273,-0.884657,-0.334655,1.67883
1480617557535329,-0.88457,-0.334735,1.67884
1480617557551873,-0.88457,-0.334735,1.67884
1480617557574433,-0.88457,-0.334735,1.67884
1480617557595990,-0.884703,-0.334819,1.67894
1480617557612034,-0.884703,-0.334819,1.67894
1480617557634093,-0.88457,-0.334735,1.67884
1480617557657154,-0.884584,-0.334788,1.67883
1480617557678210,-0.884703,-0.334819,1.67894
1480617557694252,-0.884703,-0.334819,1.67894
1480617557715308,-0.884703,-0.334819,1.67894
1480617557731852,-0.884703,-0.334819,1.67894
1480617557754413,-0.88463,-0.334952,1.67894
1480617557778477,-0.88463,-0.334952,1.67894
1480617557798529,-0.884616,-0.334898,1.67895
1480617557824599,-0.884703,-0.334819,1.67894
1480617557836631,-0.884703,-0.334819,1.67894
1480617557852172,-0.88463,-0.334952,1.67894
1480617557875233,-0.884509,-0.335053,1.6788
1480617557897794,-0.88473,-0.335057,1.6789
1480617557912834,-0.884716,-0.335004,1.6789
1480617557934391,-0.884716,-0.335004,1.6789
1480617557957954,-0.884642,-0.335137,1.6789
1480617557978007,-0.884776,-0.335221,1.67901
1480617557994551,-0.884183,-0.335164,1.67901
1480617558017111,-0.88347,-0.335078,1.6789
1480617558032150,-0.883383,-0.335157,1.6789
1480617558054711,-0.88345,-0.335153,1.67874
1480617558076770,-0.88345,-0.335153,1.67874
1480617558099331,-0.88345,-0.335153,1.67874
1480617558128406,-0.883583,-0.335237,1.67885
1480617558138936,-0.883656,-0.335104,1.67885
1480617558151468,-0.883656,-0.335104,1.67885
1480617558174529,-0.883583,-0.335237,1.67885
1480617558197090,-0.883583,-0.335237,1.67885
1480617558211127,-0.883717,-0.335321,1.67895
1480617558240706,-0.88379,-0.335188,1.67895
1480617558266274,-0.883703,-0.335267,1.67896
1480617558277804,-0.883583,-0.335237,1.67885
1480617558295853,-0.883583,-0.335237,1.67885
1480617558316909,-0.883717,-0.335321,1.67895
1480617558337965,-0.883703,-0.335267,1.67896
1480617558360524,-0.883703,-0.335267,1.67896
1480617558377069,-0.883717,-0.335321,1.67895
1480617558400130,-0.883596,-0.335422,1.67881
1480617558437731,-0.883596,-0.335422,1.67881
1480617558439735,-0.883683,-0.335343,1.6788
1480617558457783,-0.883596,-0.335422,1.67881
1480617558474327,-0.883596,-0.335422,1.67881
1480617558502903,-0.883596,-0.335422,1.67881
1480617558520451,-0.883596,-0.335422,1.67881
1480617558540503,-0.883729,-0.335506,1.67891
1480617558557549,-0.883816,-0.335426,1.6789
1480617558586124,-0.883729,-0.335506,1.67891
1480617558596151,-0.883729,-0.335506,1.67891
1480617558622722,-0.883729,-0.335506,1.67891
1480617558638270,-0.883729,-0.335506,1.67891
1480617558660322,-0.883729,-0.335506,1.67891
1480617558678370,-0.883729,-0.335506,1.67891
1480617558705943,-0.883642,-0.335586,1.67892
1480617558715970,-0.883642,-0.335586,1.67892
1480617558738534,-0.883642,-0.335586,1.67892
1480617558765602,-0.883729,-0.335506,1.67891
1480617558774125,-0.883642,-0.335586,1.67892
1480617558797186,-0.883642,-0.335586,1.67892
1480617558820249,-0.883642,-0.335586,1.67892
1480617558841805,-0.883642,-0.335586,1.67892
1480617558870382,-0.883642,-0.335586,1.67892
1480617558879405,-0.883729,-0.335506,1.67891
1480617558894445,-0.883642,-0.335586,1.67892
1480617558917507,-0.883642,-0.335586,1.67892
1480617558947085,-0.883775,-0.335669,1.67902
1480617558960620,-0.883775,-0.335669,1.67902
1480617558990703,-0.883642,-0.335586,1.67892
1480617558999726,-0.883642,-0.335586,1.67892
1480617559014264,-0.883642,-0.335586,1.67892
1480617559037328,-0.883741,-0.335691,1.67887
1480617559066905,-0.883741,-0.335691,1.67887
1480617559073923,-0.883828,-0.335612,1.67886
1480617559096984,-0.883775,-0.335669,1.67902
1480617559119543,-0.883775,-0.335669,1.67902
1480617559149624,-0.883642,-0.335586,1.67892
1480617559157646,-0.883642,-0.335586,1.67892
1480617559179705,-0.883775,-0.335669,1.67902
1480617559193742,-0.883741,-0.335691,1.67887
1480617559216802,-0.883741,-0.335691,1.67887
1480617559240365,-0.883741,-0.335691,1.67887
1480617559267938,-0.883741,-0.335691,1.67887
1480617559292002,-0.883741,-0.335691,1.67887
1480617559299523,-0.883741,-0.335691,1.67887
1480617559320578,-0.883741,-0.335691,1.67887
1480617559345144,-0.883668,-0.335825,1.67887
1480617559359683,-0.883654,-0.335771,1.67888
1480617559382242,-0.883654,-0.335771,1.67888
1480617559398285,-0.883741,-0.335691,1.67887
1480617559433880,-0.883654,-0.335771,1.67888
1480617559440397,-0.883654,-0.335771,1.67888
1480617559462957,-0.883668,-0.335825,1.67887
1480617559487026,-0.883788,-0.335855,1.67898
1480617559500056,-0.883788,-0.335855,1.67898
1480617559518605,-0.883654,-0.335771,1.67888
1480617559548186,-0.883668,-0.335825,1.67887
1480617559568237,-0.883581,-0.335904,1.67887
1480617559577763,-0.883581,-0.335904,1.67887
1480617559599320,-0.883668,-0.335825,1.67887
1480617559629400,-0.883654,-0.335771,1.67888
1480617559636923,-0.883535,-0.335741,1.67876
1480617559659481,-0.883448,-0.33582,1.67877
1480617559682541,-0.883448,-0.33582,1.67877
1480617559713123,-0.883668,-0.335825,1.67887
1480617559719641,-0.883535,-0.335741,1.67876
1480617559742200,-0.883535,-0.335741,1.67876
1480617559757241,-0.883448,-0.33582,1.67877
1480617559779801,-0.883448,-0.33582,1.67877
1480617559807875,-0.883448,-0.33582,1.67877
1480617559825923,-0.883448,-0.33582,1.67877
1480617559840962,-0.883448,-0.33582,1.67877
1480617559877059,-0.883448,-0.33582,1.67877
1480617559879566,-0.883448,-0.33582,1.67877
1480617559899619,-0.883448,-0.33582,1.67877
1480617559922182,-0.883448,-0.33582,1.67877
1480617559936217,-0.883448,-0.33582,1.67877
1480617559959779,-0.883375,-0.335953,1.67877
1480617559988356,-0.883375,-0.335953,1.67877
1480617559997881,-0.883361,-0.3359,1.67878
1480617560026958,-0.883448,-0.33582,1.67877
1480617560041998,-0.883448,-0.33582,1.67877
1480617560056536,-0.883448,-0.33582,1.67877
1480617560079598,-0.883241,-0.33587,1.67866
1480617560103662,-0.883375,-0.335953,1.67877
1480617560118202,-0.883361,-0.3359,1.67878
1480617560140259,-0.883361,-0.3359,1.67878
1480617560162318,-0.883375,-0.335953,1.67877
1480617560185881,-0.883375,-0.335953,1.67877
1480617560200420,-0.883375,-0.335953,1.67877
1480617560222480,-0.883375,-0.335953,1.67877
1480617560243037,-0.883375,-0.335953,1.67877
1480617560259077,-0.883241,-0.33587,1.67866
1480617560297678,-0.883241,-0.33587,1.67866
1480617560303694,-0.883241,-0.33587,1.67866
1480617560319738,-0.883275,-0.335848,1.67881
1480617560341800,-0.883275,-0.335848,1.67881
1480617560379897,-0.883275,-0.335848,1.67881
1480617560382404,-0.883142,-0.335764,1.67871
1480617560402962,-0.883275,-0.335848,1.67881
1480617560430532,-0.883275,-0.335848,1.67881
1480617560439556,-0.883362,-0.335768,1.67881
1480617560462115,-0.883349,-0.335715,1.67881
1480617560483674,-0.883275,-0.335848,1.67881
1480617560514254,-0.883275,-0.335848,1.67881
1480617560536312,-0.883275,-0.335848,1.67881
1480617560542830,-0.883349,-0.335715,1.67881
1480617560565390,-0.883349,-0.335715,1.67881
1480617560581934,-0.883275,-0.335848,1.67881
1480617560602991,-0.883241,-0.33587,1.67866
1480617560618531,-0.883241,-0.33587,1.67866
1480617560651620,-0.883241,-0.33587,1.67866
1480617560665156,-0.883241,-0.33587,1.67866
1480617560679695,-0.883241,-0.33587,1.67866
1480617560701753,-0.883154,-0.335949,1.67867
1480617560732335,-0.883154,-0.335949,1.67867
1480617560739353,-0.883241,-0.33587,1.67866
1480617560763920,-0.883275,-0.335848,1.67881
1480617560784475,-0.883275,-0.335848,1.67881
1480617560799012,-0.883275,-0.335848,1.67881
1480617560822073,-0.883055,-0.335844,1.67871
1480617560845636,-0.883142,-0.335764,1.67871
1480617560865689,-0.883142,-0.335764,1.67871
1480617560889252,-0.883275,-0.335848,1.67881
1480617560905294,-0.883142,-0.335764,1.67871
1480617560925348,-0.883188,-0.335927,1.67882
1480617560941893,-0.883142,-0.335764,1.67871
1480617560964452,-0.883142,-0.335764,1.67871
1480617560985508,-0.883142,-0.335764,1.67871
1480617561003556,-0.883142,-0.335764,1.67871
1480617561024612,-0.883055,-0.335844,1.67871
1480617561038649,-0.883055,-0.335844,1.67871
1480617561071237,-0.883142,-0.335764,1.67871
1480617561092292,-0.883142,-0.335764,1.67871
1480617561100314,-0.883009,-0.33568,1.6786
1480617561121871,-0.883009,-0.33568,1.6786
1480617561145434,-0.883009,-0.33568,1.6786
1480617561165487,-0.883043,-0.335658,1.67875
1480617561182030,-0.88313,-0.335579,1.67875
1480617561205092,-0.883043,-0.335658,1.67875
1480617561227652,-0.883043,-0.335658,1.67875
1480617561241691,-0.883043,-0.335658,1.67875
1480617561264250,-0.882909,-0.335574,1.67865
1480617561287812,-0.882909,-0.335574,1.67865
1480617561301850,-0.882909,-0.335574,1.67865
1480617561331930,-0.882909,-0.335574,1.67865
1480617561345465,-0.882909,-0.335574,1.67865
1480617561369530,-0.882909,-0.335574,1.67865
1480617561392591,-0.882909,-0.335574,1.67865
1480617561405627,-0.882996,-0.335495,1.67864
1480617561429689,-0.882909,-0.335574,1.67865
1480617561453754,-0.882909,-0.335574,1.67865
1480617561465285,-0.882909,-0.335574,1.67865
1480617561483332,-0.882996,-0.335495,1.67864
1480617561504388,-0.882996,-0.335495,1.67864
1480617561525445,-0.882996,-0.335495,1.67864
1480617561543994,-0.882776,-0.335491,1.67854
1480617561579589,-0.882909,-0.335574,1.67865
1480617561595130,-0.882863,-0.335411,1.67854
1480617561602149,-0.882897,-0.335389,1.67869
1480617561630725,-0.882897,-0.335389,1.67869
1480617561647268,-0.882863,-0.335411,1.67854
1480617561676847,-0.882776,-0.335491,1.67854
1480617561685370,-0.882776,-0.335491,1.67854
1480617561706928,-0.882897,-0.335389,1.67869
1480617561721466,-0.882897,-0.335389,1.67869
1480617561758566,-0.88281,-0.335469,1.67869
1480617561768591,-0.88279,-0.335544,1.67854
1480617561781124,-0.882824,-0.335522,1.67868
1480617561804188,-0.882897,-0.335389,1.67869
1480617561833766,-0.882897,-0.335389,1.67869
1480617561850309,-0.882897,-0.335389,1.67869
1480617561864346,-0.882691,-0.335438,1.67858
1480617561887408,-0.882691,-0.335438,1.67858
1480617561909467,-0.882764,-0.335305,1.67858
1480617561924507,-0.882764,-0.335305,1.67858
1480617561947066,-0.882778,-0.335359,1.67858
1480617561961114,-0.882691,-0.335438,1.67858
1480617561990683,-0.882824,-0.335522,1.67868
1480617562006726,-0.882897,-0.335389,1.67869
1480617562021264,-0.882764,-0.335305,1.67858
1480617562044325,-0.882778,-0.335359,1.67858
1480617562066887,-0.882691,-0.335438,1.67858
1480617562087941,-0.882691,-0.335438,1.67858
1480617562103984,-0.882691,-0.335438,1.67858
1480617562127045,-0.882824,-0.335522,1.67868
1480617562148602,-0.882897,-0.335389,1.67869
1480617562179685,-0.882824,-0.335522,1.67868
1480617562194223,-0.882824,-0.335522,1.67868
1480617562208266,-0.882824,-0.335522,1.67868
1480617562225807,-0.882897,-0.335389,1.67869
1480617562246863,-0.882897,-0.335389,1.67869
1480617562267923,-0.882897,-0.335389,1.67869
1480617562284463,-0.882824,-0.335522,1.67868
1480617562323568,-0.882824,-0.335522,1.67868
1480617562335600,-0.882897,-0.335389,1.67869
1480617562344624,-0.882897,-0.335389,1.67869
1480617562366683,-0.882897,-0.335389,1.67869
1480617562398267,-0.882778,-0.335359,1.67858
1480617562404283,-0.882824,-0.335522,1.67868
1480617562426843,-0.882897,-0.335389,1.67869
1480617562447898,-0.882897,-0.335389,1.67869
1480617562472464,-0.882897,-0.335389,1.67869
1480617562487003,-0.882691,-0.335438,1.67858
1480617562508059,-0.882691,-0.335438,1.67858
1480617562524605,-0.882691,-0.335438,1.67858
1480617562547162,-0.882824,-0.335522,1.67868
1480617562569727,-0.882691,-0.335438,1.67858
1480617562584763,-0.882691,-0.335438,1.67858
1480617562606822,-0.882691,-0.335438,1.67858
1480617562629382,-0.882691,-0.335438,1.67858
1480617562644421,-0.882691,-0.335438,1.67858
1480617562674501,-0.882691,-0.335438,1.67858
1480617562689543,-0.882691,-0.335438,1.67858
1480617562706086,-0.882691,-0.335438,1.67858
1480617562727643,-0.882691,-0.335438,1.67858
1480617562755719,-0.882691,-0.335438,1.67858
1480617562763740,-0.882691,-0.335438,1.67858
1480617562794321,-0.882691,-0.335438,1.67858
1480617562809862,-0.882691,-0.335438,1.67858
1480617562823901,-0.882604,-0.335518,1.67859
1480617562846960,-0.882691,-0.335438,1.67858
1480617562893083,-0.882691,-0.335438,1.67858
1480617562898096,-0.882691,-0.335438,1.67858
1480617562920656,-0.882604,-0.335518,1.67859
1480617562930183,-0.882604,-0.335518,1.67859
1480617562958257,-0.88257,-0.33554,1.67844
1480617562967281,-0.88279,-0.335544,1.67854
1480617562989339,-0.882824,-0.335522,1.67868
1480617563003878,-0.882703,-0.335624,1.67854
1480617563034460,-0.882703,-0.335624,1.67854
1480617563049499,-0.882703,-0.335624,1.67854
1480617563071561,-0.882703,-0.335624,1.67854
1480617563087603,-0.88257,-0.33554,1.67844
1480617563109658,-0.882604,-0.335518,1.67859
1480617563130715,-0.882604,-0.335518,1.67859
1480617563148261,-0.88257,-0.33554,1.67844
1480617563175337,-0.882604,-0.335518,1.67859
1480617563190375,-0.882604,-0.335518,1.67859
1480617563206918,-0.882703,-0.335624,1.67854
1480617563229478,-0.882703,-0.335624,1.67854
1480617563250533,-0.882703,-0.335624,1.67854
1480617563267579,-0.882703,-0.335624,1.67854
1480617563289639,-0.882703,-0.335624,1.67854
1480617563310694,-0.882703,-0.335624,1.67854
1480617563326736,-0.882616,-0.335703,1.67855
1480617563350300,-0.882616,-0.335703,1.67855
1480617563370353,-0.882616,-0.335703,1.67855
1480617563401937,-0.882703,-0.335624,1.67854
1480617563415473,-0.882703,-0.335624,1.67854
1480617563430512,-0.882703,-0.335624,1.67854
1480617563447056,-0.882616,-0.335703,1.67855
1480617563471625,-0.882616,-0.335703,1.67855
1480617563491676,-0.882703,-0.335624,1.67854
1480617563506715,-0.882703,-0.335624,1.67854
1480617563529275,-0.882703,-0.335624,1.67854
1480617563552839,-0.882703,-0.335624,1.67854
1480617563567878,-0.882836,-0.335708,1.67865
1480617563589436,-0.882836,-0.335708,1.67865
1480617563618513,-0.882923,-0.335628,1.67864
1480617563629543,-0.882836,-0.335708,1.67865
1480617563649596,-0.882703,-0.335624,1.67854
1480617563672156,-0.882836,-0.335708,1.67865
1480617563686194,-0.882836,-0.335708,1.67865
1480617563711761,-0.882836,-0.335708,1.67865
1480617563714769,-0.882836,-0.335708,1.67865
1480617563737331,-0.882836,-0.335708,1.67865
1480617563753873,-0.882836,-0.335708,1.67865
1480617563776432,-0.882836,-0.335708,1.67865
1480617563797489,-0.883057,-0.335712,1.67874
1480617563814033,-0.882909,-0.335574,1.67865
1480617563834587,-0.882836,-0.335708,1.67865
1480617563857650,-0.882836,-0.335708,1.67865
1480617563881212,-0.882836,-0.335708,1.67865
1480617563894747,-0.883563,-0.335312,1.67869
1480617563917307,-0.883563,-0.335312,1.67869
1480617563933851,-0.883563,-0.335312,1.67869
1480617563963935,-0.883444,-0.335282,1.67857
1480617563977468,-0.883956,-0.335289,1.67874
1480617563994011,-0.884655,-0.335322,1.67886
1480617564040135,-0.884875,-0.335327,1.67896
1480617564042640,-0.884655,-0.335322,1.67886
1480617564053671,-0.884669,-0.335376,1.67885
1480617564074727,-0.884582,-0.335456,1.67886
1480617564097285,-0.884669,-0.335376,1.67885
1480617564115335,-0.885268,-0.335303,1.67902
1480617564134886,-0.885355,-0.335224,1.67901
1480617564157448,-0.885268,-0.335303,1.67902
1480617564189035,-0.885268,-0.335303,1.67902
1480617564204075,-0.885268,-0.335303,1.67902
1480617564217106,-0.885355,-0.335224,1.67901
1480617564235155,-0.885222,-0.33514,1.67891
1480617564255208,-0.885222,-0.33514,1.67891
1480617564277265,-0.885222,-0.33514,1.67891
1480617564308849,-0.885355,-0.335224,1.67901
1480617564314865,-0.885428,-0.335091,1.67901
1480617564344945,-0.885428,-0.335091,1.67901
1480617564359986,-0.885428,-0.335091,1.67901
1480617564375026,-0.885309,-0.33506,1.6789
1480617564397084,-0.885309,-0.33506,1.6789
1480617564423155,-0.885295,-0.335007,1.67891
1480617564434684,-0.885382,-0.334927,1.6789
1480617564464764,-0.885382,-0.334927,1.6789
1480617564479804,-0.885295,-0.335007,1.67891
1480617564494844,-0.885295,-0.335007,1.67891
1480617564517404,-0.885295,-0.335007,1.67891
1480617564540970,-0.885516,-0.335011,1.67901
1480617564555006,-0.885382,-0.334927,1.6789
1480617564577564,-0.885295,-0.335007,1.67891
1480617564610652,-0.885295,-0.335007,1.67891
1480617564616167,-0.885295,-0.335007,1.67891
1480617564644743,-0.885382,-0.334927,1.6789
1480617564661287,-0.885416,-0.334905,1.67905
1480617564676327,-0.885416,-0.334905,1.67905
1480617564700392,-0.88521,-0.334955,1.67895
1480617564719943,-0.885196,-0.334901,1.67895
1480617564737505,-0.885283,-0.334821,1.67895
1480617564757543,-0.885283,-0.334821,1.67895
1480617564781106,-0.885283,-0.334821,1.67895
1480617564817704,-0.885283,-0.334821,1.67895
1480617564828232,-0.885283,-0.334821,1.67895
1480617564841265,-0.885283,-0.334821,1.67895
1480617564854803,-0.88537,-0.334742,1.67894
1480617564887389,-0.88537,-0.334742,1.67894
1480617564899922,-0.885149,-0.334738,1.67884
1480617564914962,-0.885149,-0.334738,1.67884
1480617564939026,-0.885236,-0.334658,1.67884
1480617564977628,-0.88527,-0.334636,1.67899
1480617564980135,-0.885357,-0.334557,1.67898
1480617565006205,-0.885357,-0.334557,1.67898
1480617565019742,-0.885137,-0.334552,1.67888
1480617565037788,-0.885224,-0.334473,1.67888
1480617565067868,-0.885297,-0.33434,1.67888
1480617565079900,-0.885297,-0.33434,1.67888
1480617565102462,-0.885297,-0.33434,1.67888
1480617565117500,-0.885297,-0.33434,1.67888
1480617565142567,-0.885331,-0.334318,1.67903
1480617565162121,-0.885331,-0.334318,1.67903
1480617565184679,-0.885418,-0.334238,1.67902
1480617565199719,-0.885418,-0.334238,1.67902
1480617565216263,-0.885285,-0.334154,1.67892
1480617565237320,-0.885585,-0.33434,1.67882
1480617565267901,-0.885658,-0.334207,1.67882
1480617565282439,-0.885745,-0.334127,1.67881
1480617565297479,-0.885745,-0.334127,1.67881
1480617565320041,-0.885658,-0.334207,1.67882
1480617565337591,-0.885658,-0.334207,1.67882
1480617565361149,-0.885658,-0.334207,1.67882
1480617565379698,-0.885611,-0.334044,1.67871
1480617565397746,-0.886312,-0.333945,1.67886
1480617565424820,-0.886312,-0.333945,1.67886
1480617565447378,-0.886312,-0.333945,1.67886
1480617565457906,-0.886312,-0.333945,1.67886
1480617565477458,-0.886399,-0.333866,1.67885
1480617565500018,-0.886385,-0.333812,1.67886
1480617565517565,-0.886266,-0.333782,1.67875
1480617565538621,-0.886179,-0.333861,1.67875
1480617565562685,-0.886673,-0.333812,1.67879
1480617565582236,-0.886746,-0.333679,1.6788
1480617565597277,-0.886746,-0.333679,1.6788
1480617565619838,-0.886746,-0.333679,1.6788
1480617565637887,-0.88654,-0.333729,1.67869
1480617565657437,-0.88654,-0.333729,1.67869
1480617565679997,-0.886627,-0.333649,1.67869
1480617565697544,-0.886613,-0.333596,1.67869
1480617565733640,-0.886613,-0.333596,1.67869
1480617565739656,-0.886613,-0.333596,1.67869
1480617565771242,-0.886627,-0.333649,1.67869
1480617565777256,-0.886613,-0.333596,1.67869
1480617565803329,-0.8867,-0.333516,1.67869
1480617565817864,-0.8866,-0.33341,1.67873
1480617565837420,-0.8866,-0.33341,1.67873
1480617565867496,-0.886614,-0.333464,1.67872
1480617565891058,-0.8866,-0.33341,1.67873
1480617565897075,-0.8866,-0.33341,1.67873
1480617565923144,-0.886554,-0.333247,1.67862
1480617565945203,-0.886554,-0.333247,1.67862
1480617565964754,-0.886467,-0.333327,1.67863
1480617565979794,-0.886467,-0.333327,1.67863
1480617566002355,-0.886554,-0.333247,1.67862
1480617566036446,-0.886675,-0.333145,1.67877
1480617566047475,-0.886675,-0.333145,1.67877
1480617566062514,-0.886675,-0.333145,1.67877
1480617566078561,-0.886455,-0.333141,1.67867
1480617566107132,-0.886542,-0.333062,1.67866
1480617566122677,-0.886542,-0.333062,1.67866
1480617566138718,-0.886542,-0.333062,1.67866
1480617566168797,-0.886542,-0.333062,1.67866
1480617566182333,-0.886409,-0.332978,1.67856
1480617566200382,-0.886409,-0.332978,1.67856
1480617566219934,-0.886409,-0.332978,1.67856
1480617566242492,-0.886443,-0.332956,1.67871
1480617566259038,-0.886443,-0.332956,1.67871
1480617566281096,-0.886309,-0.332872,1.6786
1480617566302152,-0.886309,-0.332872,1.6786
1480617566320203,-0.886309,-0.332872,1.6786
1480617566342760,-0.886396,-0.332793,1.6786
1480617566369832,-0.886396,-0.332793,1.6786
1480617566387881,-0.886263,-0.332709,1.67849
1480617566402920,-0.886263,-0.332709,1.67849
1480617566422473,-0.886263,-0.332709,1.67849
1480617566442526,-0.886297,-0.332687,1.67864
1480617566459571,-0.886297,-0.332687,1.67864
1480617566487163,-0.886297,-0.332687,1.67864
1480617566500178,-0.886297,-0.332687,1.67864
1480617566519732,-0.886164,-0.332603,1.67854
1480617566549811,-0.886164,-0.332603,1.67854
1480617566560340,-0.886164,-0.332603,1.67854
1480617566587412,-0.886164,-0.332603,1.67854
1480617566602451,-0.886164,-0.332603,1.67854
1480617566620500,-0.886164,-0.332603,1.67854
1480617566640051,-0.886164,-0.332603,1.67854
1480617566671134,-0.886118,-0.33244,1.67843
1480617566681666,-0.886118,-0.33244,1.67843
1480617566699709,-0.886064,-0.332498,1.67858
1480617566722272,-0.886152,-0.332418,1.67858
1480617566747838,-0.886152,-0.332418,1.67858
1480617566759870,-0.886239,-0.332339,1.67857
1480617566782430,-0.886152,-0.332418,1.67858
1480617566800478,-0.886152,-0.332418,1.67858
1480617566836073,-0.886018,-0.332334,1.67847
1480617566842088,-0.886018,-0.332334,1.67847
1480617566864649,-0.886018,-0.332334,1.67847
1480617566899240,-0.886106,-0.332255,1.67847
1480617566903756,-0.886018,-0.332334,1.67847
1480617566920297,-0.886018,-0.332334,1.67847
1480617566941352,-0.886106,-0.332255,1.67847
1480617566979454,-0.886092,-0.332201,1.67848
1480617566981961,-0.886125,-0.332179,1.67862
1480617567007529,-0.886139,-0.332233,1.67862
1480617567022070,-0.886006,-0.332149,1.67851
1480617567044627,-0.886006,-0.332149,1.67851
1480617567061171,-0.886079,-0.332016,1.67852
1480617567082227,-0.886079,-0.332016,1.67852
1480617567106793,-0.886079,-0.332016,1.67852
1480617567121332,-0.886093,-0.33207,1.67851
1480617567146398,-0.886079,-0.332016,1.67852
1480617567173971,-0.886079,-0.332016,1.67852
1480617567187508,-0.886167,-0.331937,1.67851
1480617567202047,-0.885946,-0.331932,1.67841
1480617567220094,-0.885946,-0.331932,1.67841
1480617567241150,-0.88596,-0.331986,1.6784
1480617567265214,-0.886033,-0.331853,1.67841
1480617567286774,-0.886167,-0.331937,1.67851
1480617567310835,-0.886067,-0.331831,1.67855
1480617567322368,-0.886067,-0.331831,1.67855
1480617567339913,-0.886067,-0.331831,1.67855
1480617567362974,-0.886067,-0.331831,1.67855
1480617567382527,-0.886154,-0.331751,1.67855
1480617567400073,-0.886154,-0.331751,1.67855
1480617567424638,-0.886021,-0.331668,1.67844
1480617567442184,-0.885934,-0.331747,1.67845
1480617567482793,-0.885934,-0.331747,1.67845
1480617567485801,-0.886021,-0.331668,1.67844
1480617567502346,-0.886021,-0.331668,1.67844
1480617567524905,-0.886055,-0.331646,1.67859
1480617567542953,-0.886021,-0.331668,1.67844
1480617567570029,-0.886021,-0.331668,1.67844
1480617567585065,-0.886142,-0.331566,1.67859
1480617567603622,-0.886128,-0.331512,1.6786
1480617567622166,-0.886128,-0.331512,1.6786
1480617567650239,-0.886142,-0.331566,1.67859
1480617567670296,-0.885922,-0.331562,1.67849
1480617567682324,-0.886009,-0.331482,1.67848
1480617567705385,-0.886128,-0.331512,1.6786
1480617567722935,-0.886128,-0.331512,1.6786
1480617567742484,-0.885995,-0.331429,1.67849
1480617567765545,-0.886009,-0.331482,1.67848
1480617567787102,-0.885995,-0.331429,1.67849
1480617567811167,-0.886082,-0.331349,1.67849
1480617567826207,-0.886082,-0.331349,1.67849
1480617567842750,-0.886082,-0.331349,1.67849
1480617567869825,-0.885995,-0.331429,1.67849
1480617567884863,-0.886009,-0.331482,1.67848
1480617567910431,-0.885949,-0.331266,1.67838
1480617567923969,-0.885983,-0.331244,1.67853
1480617567945022,-0.885983,-0.331244,1.67853
1480617567962570,-0.885462,-0.331589,1.6786
1480617567985631,-0.88528,-0.331969,1.67887
1480617568005183,-0.885545,-0.332268,1.67905
1480617568027242,-0.885664,-0.332298,1.67916
1480617568049805,-0.885664,-0.332298,1.67916
1480617568072361,-0.885678,-0.332351,1.67915
1480617568102945,-0.885678,-0.332351,1.67915
1480617568118484,-0.885664,-0.332298,1.67916
1480617568132521,-0.885664,-0.332298,1.67916
1480617568142548,-0.885751,-0.332218,1.67916
1480617568164608,-0.885664,-0.332298,1.67916
1480617568203716,-0.885678,-0.332351,1.67915
1480617568207221,-0.885664,-0.332298,1.67916
1480617568238302,-0.885664,-0.332298,1.67916
1480617568246325,-0.885664,-0.332298,1.67916
1480617568274900,-0.885531,-0.332214,1.67906
1480617568285429,-0.885678,-0.332351,1.67915
1480617568307487,-0.885678,-0.332351,1.67915
1480617568323532,-0.885664,-0.332298,1.67916
1480617568345087,-0.885664,-0.332298,1.67916
1480617568364639,-0.885678,-0.332351,1.67915
1480617568396223,-0.885678,-0.332351,1.67915
1480617568405247,-0.885678,-0.332351,1.67915
1480617568424799,-0.885678,-0.332351,1.67915
1480617568442847,-0.885664,-0.332298,1.67916
1480617568479946,-0.885664,-0.332298,1.67916
1480617568485461,-0.885678,-0.332351,1.67915
1480617568502507,-0.885591,-0.332431,1.67916
1480617568532586,-0.885591,-0.332431,1.67916
1480617568552138,-0.885678,-0.332351,1.67915
1480617568565173,-0.885664,-0.332298,1.67916
1480617568585727,-0.885591,-0.332431,1.67916
1480617568604777,-0.885591,-0.332431,1.67916
1480617568637865,-0.885557,-0.332453,1.67901
1480617568645385,-0.885591,-0.332431,1.67916
1480617568668950,-0.885591,-0.332431,1.67916
1480617568698528,-0.885591,-0.332431,1.67916
1480617568706047,-0.88547,-0.332532,1.67902
1480617568727605,-0.885557,-0.332453,1.67901
1480617568750165,-0.885557,-0.332453,1.67901
1480617568769720,-0.885557,-0.332453,1.67901
1480617568792276,-0.885557,-0.332453,1.67901
1480617568802807,-0.88569,-0.332537,1.67912
1480617568838901,-0.885603,-0.332616,1.67912
1480617568847424,-0.88569,-0.332537,1.67912
1480617568869987,-0.88569,-0.332537,1.67912
1480617568890037,-0.885603,-0.332616,1.67912
1480617568906580,-0.885603,-0.332616,1.67912
1480617568922625,-0.885603,-0.332616,1.67912
1480617568952202,-0.885603,-0.332616,1.67912
1480617568972255,-0.885736,-0.3327,1.67923
1480617569004343,-0.885736,-0.3327,1.67923
1480617569006847,-0.885736,-0.3327,1.67923
1480617569033920,-0.885736,-0.3327,1.67923
1480617569047455,-0.885603,-0.332616,1.67912
1480617569065003,-0.885603,-0.332616,1.67912
1480617569086562,-0.885823,-0.33262,1.67922
1480617569114634,-0.885736,-0.3327,1.67923
1480617569125163,-0.885702,-0.332722,1.67908
1480617569152235,-0.885702,-0.332722,1.67908
1480617569168778,-0.885702,-0.332722,1.67908
1480617569185323,-0.885702,-0.332722,1.67908
1480617569222422,-0.885702,-0.332722,1.67908
1480617569227434,-0.885702,-0.332722,1.67908
1480617569253004,-0.885702,-0.332722,1.67908
1480617569273557,-0.885702,-0.332722,1.67908
1480617569287594,-0.885702,-0.332722,1.67908
1480617569306645,-0.885702,-0.332722,1.67908
1480617569332214,-0.885702,-0.332722,1.67908
1480617569347253,-0.885702,-0.332722,1.67908
1480617569365301,-0.885702,-0.332722,1.67908
1480617569395381,-0.885836,-0.332805,1.67918
1480617569407413,-0.885836,-0.332805,1.67918
1480617569424960,-0.885836,-0.332805,1.67918
1480617569447521,-0.885749,-0.332885,1.67919
1480617569476096,-0.885749,-0.332885,1.67919
1480617569493141,-0.885836,-0.332805,1.67918
1480617569508182,-0.885836,-0.332805,1.67918
1480617569528235,-0.885836,-0.332805,1.67918
1480617569545781,-0.885836,-0.332805,1.67918
1480617569567849,-0.885749,-0.332885,1.67919
1480617569587393,-0.885836,-0.332805,1.67918
1480617569624992,-0.885836,-0.332805,1.67918
1480617569644043,-0.885836,-0.332805,1.67918
1480617569648053,-0.885749,-0.332885,1.67919
1480617569667606,-0.885749,-0.332885,1.67919
1480617569687659,-0.885749,-0.332885,1.67919
1480617569707210,-0.885836,-0.332805,1.67918
1480617569729770,-0.885836,-0.332805,1.67918
1480617569753835,-0.885836,-0.332805,1.67918
1480617569777898,-0.885749,-0.332885,1.67919
1480617569785922,-0.885749,-0.332885,1.67919
1480617569809984,-0.885836,-0.332805,1.67918
1480617569828534,-0.885836,-0.332805,1.67918
1480617569845078,-0.885836,-0.332805,1.67918
1480617569867637,-0.885749,-0.332885,1.67919
1480617569887692,-0.885836,-0.332805,1.67918
1480617569906241,-0.885969,-0.332889,1.67928
1480617569927798,-0.885969,-0.332889,1.67928
1480617569947851,-0.885969,-0.332889,1.67928
1480617569973418,-0.885749,-0.332885,1.67919
1480617569986956,-0.885749,-0.332885,1.67919
1480617570008011,-0.885882,-0.332969,1.67929
1480617570025056,-0.885882,-0.332969,1.67929
1480617570047115,-0.885882,-0.332969,1.67929
1480617570068172,-0.885848,-0.332991,1.67914
1480617570085720,-0.885848,-0.332991,1.67914
1480617570107275,-0.885848,-0.332991,1.67914
1480617570129334,-0.885935,-0.332911,1.67914
1480617570143874,-0.886054,-0.332941,1.67925
1480617570166934,-0.885848,-0.332991,1.67914
1480617570195510,-0.885848,-0.332991,1.67914
1480617570210549,-0.885848,-0.332991,1.67914
1480617570242635,-0.885848,-0.332991,1.67914
1480617570250155,-0.885935,-0.332911,1.67914
1480617570277729,-0.885356,-0.332908,1.67913
1480617570286752,-0.885269,-0.332988,1.67914
1480617570309813,-0.885269,-0.332988,1.67914
1480617570330368,-0.885269,-0.332988,1.67914
1480617570348417,-0.885269,-0.332988,1.67914
1480617570369978,-0.885269,-0.332988,1.67914
1480617570385516,-0.885269,-0.332988,1.67914
1480617570413088,-0.885402,-0.333072,1.67924
1480617570437155,-0.885402,-0.333072,1.67924
1480617570450688,-0.885489,-0.332992,1.67923
1480617570466733,-0.885475,-0.332938,1.67924
1480617570489292,-0.885402,-0.333072,1.67924
1480617570504332,-0.885368,-0.333094,1.67909
1480617570540428,-0.885402,-0.333072,1.67924
1480617570548950,-0.885402,-0.333072,1.67924
1480617570571510,-0.885489,-0.332992,1.67923
1480617570588055,-0.885402,-0.333072,1.67924
1480617570609611,-0.885269,-0.332988,1.67914
1480617570630667,-0.885402,-0.333072,1.67924
1480617570646710,-0.885402,-0.333072,1.67924
1480617570669775,-0.885489,-0.332992,1.67923
1480617570690326,-0.885489,-0.332992,1.67923
1480617570712886,-0.885402,-0.333072,1.67924
1480617570735447,-0.885269,-0.332988,1.67914
1480617570750487,-0.885402,-0.333072,1.67924
1480617570767031,-0.885489,-0.332992,1.67923
1480617570789590,-0.885489,-0.332992,1.67923
1480617570810647,-0.885402,-0.333072,1.67924
1480617570834209,-0.885402,-0.333072,1.67924
1480617570851756,-0.885402,-0.333072,1.67924
1480617570887351,-0.885402,-0.333072,1.67924
1480617570889857,-0.885402,-0.333072,1.67924
1480617570916929,-0.885402,-0.333072,1.67924
1480617570930465,-0.885402,-0.333072,1.67924
1480617570947009,-0.885402,-0.333072,1.67924
1480617570969575,-0.885489,-0.332992,1.67923
1480617570991126,-0.885475,-0.332938,1.67924
1480617571008172,-0.885489,-0.332992,1.67923
1480617571030230,-0.884908,-0.333121,1.6792
1480617571050284,-0.884908,-0.333121,1.6792
1480617571074348,-0.884995,-0.333041,1.67919
1480617571089481,-0.884995,-0.333041,1.67919
1480617571111948,-0.885455,-0.333014,1.67908
1480617571126988,-0.885455,-0.333014,1.67908
1480617571149551,-0.885368,-0.333094,1.67909
1480617571172608,-0.88483,-0.332848,1.67897
1480617571187148,-0.88483,-0.332848,1.67897
1480617571209707,-0.88505,-0.332852,1.67907
1480617571231767,-0.88483,-0.332848,1.67897
1480617571246306,-0.88483,-0.332848,1.67897
1480617571269873,-0.88505,-0.332852,1.67907
1480617571291927,-0.88505,-0.332852,1.67907
1480617571308471,-0.884718,-0.332557,1.67905
1480617571329527,-0.884718,-0.332557,1.67905
1480617571359607,-0.884718,-0.332557,1.67905
1480617571380663,-0.884718,-0.332557,1.67905
1480617571389187,-0.884803,-0.332609,1.67902
1480617571412748,-0.884837,-0.332587,1.67917
1480617571426284,-0.884718,-0.332557,1.67905
1480617571449346,-0.884718,-0.332557,1.67905
1480617571471905,-0.884718,-0.332557,1.67905
1480617571486447,-0.884718,-0.332557,1.67905
1480617571509505,-0.884718,-0.332557,1.67905
1480617571532065,-0.884718,-0.332557,1.67905
1480617571546103,-0.884718,-0.332557,1.67905
1480617571569667,-0.884718,-0.332557,1.67905
1480617571591725,-0.884718,-0.332557,1.67905
1480617571612780,-0.884791,-0.332424,1.67906
1480617571629826,-0.884791,-0.332424,1.67906
1480617571666925,-0.884704,-0.332503,1.67906
1480617571672941,-0.884718,-0.332557,1.67905
1480617571689484,-0.884837,-0.332587,1.67917
1480617571712044,-0.884791,-0.332424,1.67906
1480617571733100,-0.884791,-0.332424,1.67906
1480617571749645,-0.884791,-0.332424,1.67906
1480617571772706,-0.884791,-0.332424,1.67906
1480617571794263,-0.884791,-0.332424,1.67906
1480617571810306,-0.884791,-0.332424,1.67906
1480617571831863,-0.884878,-0.332344,1.67905
1480617571860439,-0.884791,-0.332424,1.67906
1480617571869467,-0.884791,-0.332424,1.67906
1480617571892023,-0.884791,-0.332424,1.67906
1480617571913080,-0.884791,-0.332424,1.67906
1480617571929625,-0.884878,-0.332344,1.67905
1480617571952687,-0.884878,-0.332344,1.67905
1480617571974744,-0.884658,-0.33234,1.67895
1480617571989283,-0.884658,-0.33234,1.67895
1480617572011843,-0.884658,-0.33234,1.67895
1480617572034402,-0.884745,-0.332261,1.67895
1480617572057464,-0.884779,-0.332238,1.6791
1480617572079523,-0.884779,-0.332238,1.6791
1480617572103586,-0.884692,-0.332318,1.6791
1480617572109601,-0.884692,-0.332318,1.6791
1480617572131661,-0.884779,-0.332238,1.6791
1480617572154222,-0.884779,-0.332238,1.6791
1480617572168760,-0.884779,-0.332238,1.6791
1480617572193826,-0.884646,-0.332155,1.67899
1480617572238444,-0.884646,-0.332155,1.67899
1480617572242956,-0.884646,-0.332155,1.67899
1480617572260002,-0.884733,-0.332075,1.67899
1480617572274541,-0.884733,-0.332075,1.67899
1480617572288580,-0.884733,-0.332075,1.67899
1480617572312141,-0.884646,-0.332155,1.67899
1480617572335203,-0.884733,-0.332075,1.67899
1480617572348738,-0.884733,-0.332075,1.67899
1480617572377815,-0.884733,-0.332075,1.67899
1480617572401879,-0.884733,-0.332075,1.67899
1480617572416920,-0.884733,-0.332075,1.67899
1480617572431959,-0.884733,-0.332075,1.67899
1480617572454521,-0.884806,-0.331942,1.67899
1480617572468558,-0.88484,-0.33192,1.67914
1480617572493123,-0.88484,-0.33192,1.67914
1480617572514179,-0.884721,-0.33189,1.67903
1480617572542754,-0.88484,-0.33192,1.67914
1480617572553784,-0.884927,-0.331841,1.67913
1480617572590882,-0.884794,-0.331757,1.67903
1480617572596898,-0.884794,-0.331757,1.67903
1480617572611938,-0.884707,-0.331837,1.67904
1480617572634500,-0.884707,-0.331837,1.67904
1480617572655555,-0.884794,-0.331757,1.67903
1480617572672098,-0.884927,-0.331841,1.67913
1480617572694157,-0.884927,-0.331841,1.67913
1480617572715714,-0.884927,-0.331841,1.67913
1480617572740280,-0.884927,-0.331841,1.67913
1480617572754317,-0.884927,-0.331841,1.67913
1480617572782893,-0.885014,-0.331761,1.67913
1480617572791917,-0.885,-0.331708,1.67914
1480617572814477,-0.884927,-0.331841,1.67913
1480617572835535,-0.884794,-0.331757,1.67903
1480617572852078,-0.884794,-0.331757,1.67903
1480617572875139,-0.884867,-0.331624,1.67903
1480617572904717,-0.884954,-0.331544,1.67903
1480617572911735,-0.884867,-0.331624,1.67903
1480617572940312,-0.884867,-0.331624,1.67903
1480617572956856,-0.884867,-0.331624,1.67903
1480617572971896,-0.884988,-0.331522,1.67918
1480617572994458,-0.884988,-0.331522,1.67918
1480617573040578,-0.884988,-0.331522,1.67918
1480617573046093,-0.884855,-0.331439,1.67907
1480617573057124,-0.884855,-0.331439,1.67907
1480617573076674,-0.884855,-0.331439,1.67907
1480617573091715,-0.884942,-0.331359,1.67907
1480617573114275,-0.884942,-0.331359,1.67907
1480617573136835,-0.884855,-0.331439,1.67907
1480617573151374,-0.884855,-0.331439,1.67907
1480617573188473,-0.884855,-0.331439,1.67907
1480617573220559,-0.885075,-0.331443,1.67917
1480617573235097,-0.885075,-0.331443,1.67917
1480617573237603,-0.885075,-0.331443,1.67917
1480617573257657,-0.884988,-0.331522,1.67918
1480617573271693,-0.885075,-0.331443,1.67917
1480617573294755,-0.885061,-0.331389,1.67918
1480617573322830,-0.885149,-0.33131,1.67917
1480617573332356,-0.884942,-0.331359,1.67907
1480617573360930,-0.885294,-0.331579,1.67924
1480617573383993,-0.88526,-0.331601,1.67909
1480617573392515,-0.88548,-0.331605,1.67919
1480617573414574,-0.884875,-0.331363,1.67923
1480617573437134,-0.884209,-0.33144,1.67923
1480617573457689,-0.884223,-0.331493,1.67922
1480617573474233,-0.884223,-0.331493,1.67922
1480617573496792,-0.884209,-0.33144,1.67923
1480617573518855,-0.884296,-0.33136,1.67923
1480617573540408,-0.884296,-0.33136,1.67923
1480617573556954,-0.884296,-0.33136,1.67923
1480617573580014,-0.884296,-0.33136,1.67923
1480617573602073,-0.884296,-0.33136,1.67923
1480617573617615,-0.884296,-0.33136,1.67923
1480617573637667,-0.884383,-0.331281,1.67922
1480617573669752,-0.884383,-0.331281,1.67922
1480617573677777,-0.884296,-0.33136,1.67923
1480617573700835,-0.884296,-0.33136,1.67923
1480617573714372,-0.884383,-0.331281,1.67922
1480617573736932,-0.884369,-0.331227,1.67923
1480617573765507,-0.884369,-0.331227,1.67923
1480617573774530,-0.884383,-0.331281,1.67922
1480617573804111,-0.884369,-0.331227,1.67923
1480617573819654,-0.884589,-0.331231,1.67933
1480617573834192,-0.884456,-0.331148,1.67922
1480617573856751,-0.88449,-0.331126,1.67937
1480617573879310,-0.88449,-0.331126,1.67937
1480617573894350,-0.88449,-0.331126,1.67937
1480617573917913,-0.884577,-0.331046,1.67937
1480617573939470,-0.884577,-0.331046,1.67937
1480617573954011,-0.884563,-0.330993,1.67937
1480617573978073,-0.884577,-0.331046,1.67937
1480617573999129,-0.884577,-0.331046,1.67937
1480617574014169,-0.884577,-0.331046,1.67937
1480617574044248,-0.88465,-0.330913,1.67937
1480617574059289,-0.88465,-0.330913,1.67937
1480617574073834,-0.88465,-0.330913,1.67937
1480617574096889,-0.88465,-0.330913,1.67937
1480617574126969,-0.88465,-0.330913,1.67937
1480617574140505,-0.88465,-0.330913,1.67937
1480617574157050,-0.884738,-0.330834,1.67936
1480617574179609,-0.884738,-0.330834,1.67936
1480617574193647,-0.884258,-0.330936,1.67931
1480617574224228,-0.884258,-0.330936,1.67931
1480617574239268,-0.884258,-0.330936,1.67931
1480617574253806,-0.884944,-0.330784,1.67947
1480617574277369,-0.884944,-0.330784,1.67947
1480617574299428,-0.884857,-0.330864,1.67947
1480617574313966,-0.884857,-0.330864,1.67947
1480617574337030,-0.884944,-0.330784,1.67947
1480617574360089,-0.884944,-0.330784,1.67947
1480617574380644,-0.884944,-0.330784,1.67947
1480617574404206,-0.884944,-0.330784,1.67947
1480617574420250,-0.884811,-0.330701,1.67937
1480617574442308,-0.884811,-0.330701,1.67937
1480617574462864,-0.884898,-0.330621,1.67936
1480617574486926,-0.884932,-0.330599,1.67951
1480617574500463,-0.884932,-0.330599,1.67951
1480617574523022,-0.884845,-0.330679,1.67951
1480617574539567,-0.884932,-0.330599,1.67951
1480617574560623,-0.884918,-0.330546,1.67952
1480617574577166,-0.885005,-0.330466,1.67951
1480617574606745,-0.885005,-0.330466,1.67951
1480617574620282,-0.885005,-0.330466,1.67951
1480617574636826,-0.885005,-0.330466,1.67951
1480617574659385,-0.885005,-0.330466,1.67951
1480617574680442,-0.885092,-0.330386,1.67951
1480617574696985,-0.884293,-0.33038,1.6794
1480617574719546,-0.884206,-0.330459,1.67941
1480617574748623,-0.884505,-0.330644,1.6793
1480617574763161,-0.884624,-0.330675,1.67942
1480617574779204,-0.884712,-0.330595,1.67941
1480617574800761,-0.884712,-0.330595,1.67941
1480617574816804,-0.884612,-0.330489,1.67946
1480617574839364,-0.884612,-0.330489,1.67946
1480617574860420,-0.884612,-0.330489,1.67946
1480617574884989,-0.884699,-0.33041,1.67945
1480617574902033,-0.884699,-0.33041,1.67945
1480617574923089,-0.884833,-0.330493,1.67955
1480617574937130,-0.884833,-0.330493,1.67955
1480617574966703,-0.884818,-0.33044,1.67956
1480617574981743,-0.884906,-0.33036,1.67956
1480617574996783,-0.884906,-0.33036,1.67956
1480617575019343,-0.884906,-0.33036,1.67956
1480617575047919,-0.884906,-0.33036,1.67956
1480617575056943,-0.884906,-0.33036,1.67956
1480617575081508,-0.884906,-0.33036,1.67956
1480617575108079,-0.884993,-0.330281,1.67955
1480617575116100,-0.884993,-0.330281,1.67955
1480617575139161,-0.88486,-0.330197,1.67945
1480617575161722,-0.88486,-0.330197,1.67945
1480617575176260,-0.88486,-0.330197,1.67945
1480617575199322,-0.884933,-0.330064,1.67945
1480617575222383,-0.884967,-0.330042,1.6796
1480617575244441,-0.884967,-0.330042,1.6796
1480617575273017,-0.884967,-0.330042,1.6796
1480617575282042,-0.884967,-0.330042,1.6796
1480617575304602,-0.885054,-0.329963,1.67959
1480617575319642,-0.88526,-0.329913,1.6797
1480617575342202,-0.885274,-0.329967,1.67969
1480617575363258,-0.885187,-0.330046,1.6797
1480617575379801,-0.88526,-0.329913,1.6797
1480617575401863,-0.88526,-0.329913,1.6797
1480617575422917,-0.885347,-0.329834,1.67969
1480617575439461,-0.885347,-0.329834,1.67969
1480617575462021,-0.88526,-0.329913,1.6797
1480617575483077,-0.885127,-0.32983,1.6796
1480617575499621,-0.88526,-0.329913,1.6797
1480617575543237,-0.885347,-0.329834,1.67969
1480617575560783,-0.885347,-0.329834,1.67969
1480617575566299,-0.885347,-0.329834,1.67969
1480617575581840,-0.885347,-0.329834,1.67969
1480617575602895,-0.885347,-0.329834,1.67969
1480617575619440,-0.885553,-0.329784,1.6798
1480617575649519,-0.885553,-0.329784,1.6798
1480617575664559,-0.88542,-0.329701,1.6797
1480617575680100,-0.88542,-0.329701,1.6797
1480617575708175,-0.88542,-0.329701,1.6797
1480617575722716,-0.885508,-0.329621,1.67969
1480617575739259,-0.885595,-0.329542,1.67969
1480617575761818,-0.885595,-0.329542,1.67969
1480617575782874,-0.885508,-0.329621,1.67969
1480617575800422,-0.885508,-0.329621,1.67969
1480617575823485,-0.885595,-0.329542,1.67969
1480617575845040,-0.885581,-0.329488,1.67969
1480617575868606,-0.885581,-0.329488,1.67969
1480617575881636,-0.885581,-0.329488,1.67969
1480617575904197,-0.885714,-0.329572,1.6798
1480617575919237,-0.885307,-0.329542,1.67975
1480617575943802,-0.885428,-0.32944,1.67989
1480617575964357,-0.885428,-0.32944,1.67989
1480617575985915,-0.885428,-0.32944,1.67989
1480617576002461,-0.885428,-0.32944,1.67989
1480617576024517,-0.885428,-0.32944,1.67989
1480617576038554,-0.885634,-0.32939,1.68
1480617576061616,-0.885634,-0.32939,1.68
1480617576084677,-0.885634,-0.32939,1.68
1480617576098716,-0.885634,-0.32939,1.68
1480617576121777,-0.885634,-0.32939,1.68
1480617576144837,-0.885634,-0.32939,1.68
1480617576158874,-0.885721,-0.329311,1.68
1480617576181936,-0.885721,-0.329311,1.68
1480617576204496,-0.885721,-0.329311,1.68
1480617576218536,-0.885721,-0.329311,1.68
1480617576241594,-0.885721,-0.329311,1.68
1480617576264155,-0.885721,-0.329311,1.68
1480617576285213,-0.885721,-0.329311,1.68
1480617576302259,-0.885588,-0.329227,1.67989
1480617576331834,-0.885588,-0.329227,1.67989
1480617576345371,-0.885808,-0.329231,1.67999
1480617576361915,-0.885661,-0.329095,1.67989
1480617576384475,-0.885661,-0.329095,1.67989
1480617576405530,-0.885661,-0.329095,1.67989
1480617576422075,-0.885661,-0.329095,1.67989
1480617576444133,-0.885661,-0.329095,1.67989
1480617576467696,-0.885773,-0.329345,1.68027
1480617576482736,-0.88586,-0.329265,1.68027
1480617576504294,-0.885773,-0.329345,1.68027
1480617576525350,-0.885773,-0.329345,1.68027
1480617576542395,-0.885773,-0.329345,1.68027
1480617576565457,-0.885773,-0.329345,1.68027
1480617576601051,-0.885773,-0.329345,1.68027
1480617576610075,-0.885773,-0.329345,1.68027
1480617576630629,-0.885773,-0.329345,1.68027
1480617576645169,-0.885484,-0.32988,1.6804
1480617576662214,-0.885231,-0.329858,1.68061
1480617576684273,-0.885318,-0.329778,1.6806
1480617576705328,-0.885318,-0.329778,1.6806
1480617576721873,-0.885318,-0.329778,1.6806
1480617576744432,-0.885231,-0.329858,1.68061
1480617576766995,-0.885318,-0.329778,1.6806
1480617576782034,-0.885318,-0.329778,1.6806
1480617576804593,-0.885318,-0.329778,1.6806
1480617576829158,-0.885451,-0.329862,1.68071
1480617576841691,-0.885318,-0.329778,1.6806
1480617576864251,-0.885318,-0.329778,1.6806
1480617576886811,-0.885318,-0.329778,1.6806
1480617576901855,-0.885318,-0.329778,1.6806
1480617576924411,-0.885318,-0.329778,1.6806
1480617576948475,-0.885451,-0.329862,1.68071
1480617576961511,-0.885364,-0.329941,1.68071
1480617576991590,-0.885364,-0.329941,1.68071
1480617577014150,-0.885451,-0.329862,1.68071
1480617577029190,-0.885417,-0.329884,1.68056
1480617577045232,-0.88533,-0.329964,1.68056
1480617577066791,-0.88533,-0.329964,1.68056
1480617577082332,-0.88533,-0.329964,1.68056
1480617577104891,-0.885463,-0.330047,1.68067
1480617577134470,-0.885463,-0.330047,1.68067
1480617577157030,-0.885463,-0.330047,1.68067
1480617577165053,-0.885463,-0.330047,1.68067
1480617577187613,-0.885267,-0.330374,1.68095
1480617577201149,-0.885401,-0.330457,1.68106
1480617577225713,-0.885488,-0.330377,1.68105
1480617577247772,-0.885401,-0.330457,1.68106
1480617577268330,-0.885367,-0.330479,1.68091
1480617577284873,-0.8855,-0.330563,1.68101
1480617577307430,-0.885413,-0.330642,1.68102
1480617577327985,-0.885413,-0.330642,1.68102
1480617577344529,-0.885546,-0.330726,1.68112
1480617577381126,-0.885512,-0.330748,1.68097
1480617577388145,-0.885439,-0.330881,1.68097
1480617577404187,-0.885425,-0.330827,1.68098
1480617577426747,-0.885512,-0.330748,1.68097
1480617577448807,-0.885512,-0.330748,1.68097
1480617577472369,-0.885425,-0.330827,1.68098
1480617577494428,-0.885425,-0.330827,1.68098
1480617577507963,-0.885558,-0.330911,1.68108
1480617577524508,-0.885558,-0.330911,1.68108
1480617577547068,-0.885558,-0.330911,1.68108
1480617577567623,-0.885558,-0.330911,1.68108
1480617577584672,-0.885451,-0.331066,1.68093
1480617577607228,-0.885451,-0.331066,1.68093
1480617577627783,-0.885585,-0.33115,1.68103
1480617577652348,-0.885585,-0.33115,1.68103
1480617577666887,-0.885585,-0.33115,1.68103
1480617577689447,-0.885498,-0.331229,1.68104
1480617577704488,-0.885597,-0.331335,1.681
1480617577727548,-0.885597,-0.331335,1.681
1480617577749608,-0.885597,-0.331335,1.681
1480617577764145,-0.885597,-0.331335,1.681
1480617577787709,-0.885643,-0.331498,1.6811
1480617577809265,-0.885643,-0.331498,1.6811
1480617577825308,-0.885742,-0.331604,1.68106
1480617577854887,-0.885742,-0.331604,1.68106
1480617577875441,-0.885742,-0.331604,1.68106
1480617577884975,-0.885742,-0.331604,1.68106
1480617577907025,-0.885789,-0.331767,1.68117
1480617577930086,-0.885755,-0.331789,1.68102
1480617577943622,-0.885888,-0.331872,1.68112
1480617577966686,-0.886108,-0.331876,1.68122
1480617577989244,-0.886021,-0.331956,1.68123
1480617578011804,-0.886021,-0.331956,1.68123
1480617578028849,-0.8859,-0.332058,1.68109
1480617578049404,-0.886034,-0.332141,1.68119
1480617578063943,-0.886121,-0.332061,1.68118
1480617578094022,-0.886121,-0.332061,1.68118
1480617578116583,-0.886034,-0.332141,1.68119
1480617578126108,-0.886034,-0.332141,1.68119
1480617578148166,-0.886034,-0.332141,1.68119
1480617578169724,-0.886034,-0.332141,1.68119
1480617578190279,-0.886167,-0.332225,1.68129
1480617578212839,-0.886167,-0.332225,1.68129
1480617578229884,-0.88618,-0.33241,1.68125
1480617578250440,-0.88618,-0.33241,1.68125
1480617578268992,-0.886267,-0.33233,1.68125
1480617578289544,-0.8864,-0.332414,1.68135
1480617578310598,-0.8864,-0.332414,1.68135
1480617578326641,-0.886279,-0.332516,1.68121
1480617578356722,-0.886412,-0.332599,1.68131
1480617578370759,-0.886412,-0.332599,1.68131
1480617578409863,-0.886412,-0.332599,1.68131
1480617578413373,-0.886412,-0.332599,1.68131
1480617578430417,-0.886412,-0.332599,1.68131
1480617578447463,-0.886459,-0.332762,1.68142
1480617578470525,-0.886425,-0.332784,1.68127
1480617578492584,-0.886512,-0.332705,1.68127
1480617578507121,-0.886512,-0.332705,1.68127
1480617578529682,-0.886558,-0.332868,1.68138
1480617578551743,-0.886471,-0.332948,1.68138
1480617578574300,-0.886558,-0.332868,1.68138
1480617578590847,-0.886692,-0.332951,1.68148
1480617578634965,-0.886644,-0.33292,1.68134
1480617578637468,-0.886658,-0.332974,1.68133
1480617578664541,-0.886571,-0.333053,1.68134
1480617578673064,-0.886704,-0.333137,1.68144
1480617578694119,-0.886704,-0.333137,1.68144
1480617578709158,-0.886791,-0.333057,1.68144
1480617578731719,-0.886704,-0.333137,1.68144
1480617578746759,-0.886704,-0.333137,1.68144
1480617578769319,-0.886704,-0.333137,1.68144
1480617578791883,-0.886704,-0.333137,1.68144
1480617578814941,-0.886791,-0.333057,1.68144
1480617578836999,-0.886704,-0.333137,1.68144
1480617578858056,-0.886704,-0.333137,1.68144
1480617578873095,-0.886838,-0.33322,1.68155
1480617578889639,-0.886804,-0.333242,1.6814
1480617578911698,-0.886804,-0.333242,1.6814
1480617578926236,-0.88679,-0.333189,1.68141
1480617578955314,-0.886804,-0.333242,1.6814
1480617578972359,-0.886717,-0.333322,1.6814
1480617578994920,-0.88685,-0.333406,1.68151
1480617579009459,-0.886937,-0.333326,1.6815
1480617579032018,-0.886923,-0.333272,1.68151
1480617579046056,-0.886923,-0.333272,1.68151
1480617579070119,-0.886937,-0.333326,1.6815
1480617579092679,-0.88695,-0.333511,1.68146
1480617579106215,-0.887057,-0.333356,1.68162
1480617579129279,-0.887057,-0.333356,1.68162
1480617579159859,-0.887071,-0.33341,1.68161
1480617579172892,-0.88695,-0.333511,1.68146
1480617579189437,-0.88695,-0.333511,1.68146
1480617579211997,-0.88695,-0.333511,1.68146
1480617579242076,-0.88695,-0.333511,1.68146
1480617579251605,-0.88695,-0.333511,1.68146
1480617579271656,-0.88695,-0.333511,1.68146
1480617579292713,-0.886863,-0.333591,1.68147
1480617579309256,-0.886996,-0.333674,1.68157
1480617579331817,-0.887083,-0.333595,1.68157
1480617579353373,-0.887083,-0.333595,1.68157
1480617579375432,-0.886996,-0.333674,1.68157
1480617579392478,-0.886863,-0.333591,1.68147
1480617579415037,-0.886863,-0.333591,1.68147
1480617579430079,-0.886816,-0.333519,1.68179
1480617579458152,-0.886816,-0.333519,1.68179
1480617579474195,-0.88683,-0.333573,1.68178
1480617579490237,-0.88683,-0.333573,1.68178
1480617579511794,-0.886876,-0.333736,1.68189
1480617579532850,-0.886876,-0.333736,1.68189
1480617579556413,-0.886929,-0.333678,1.68174
1480617579573960,-0.886949,-0.333603,1.6819
1480617579601035,-0.886842,-0.333758,1.68174
1480617579608553,-0.886842,-0.333758,1.68174
1480617579631613,-0.886842,-0.333758,1.68174
1480617579654174,-0.886976,-0.333842,1.68185
1480617579669213,-0.886976,-0.333842,1.68185
1480617579691773,-0.886976,-0.333842,1.68185
1480617579721856,-0.886976,-0.333842,1.68185
1480617579752936,-0.886976,-0.333842,1.68185
1480617579774994,-0.886976,-0.333842,1.68185
1480617579777501,-0.886962,-0.333788,1.68186
1480617579788532,-0.886962,-0.333788,1.68186
1480617579812094,-0.886976,-0.333842,1.68185
1480617579840669,-0.886889,-0.333921,1.68185
1480617579865235,-0.886976,-0.333842,1.68185
1480617579879272,-0.886962,-0.333788,1.68186
1480617579894312,-0.886976,-0.333842,1.68185
1480617579915368,-0.886889,-0.333921,1.68185
1480617579932413,-0.886855,-0.333943,1.6817
1480617579969014,-0.886989,-0.334027,1.68181
1480617579971518,-0.887062,-0.333893,1.68181
1480617579992575,-0.887062,-0.333893,1.68181
1480617580014131,-0.887109,-0.333925,1.68195
1480617580029171,-0.886889,-0.333921,1.68185
1480617580051734,-0.886889,-0.333921,1.68185
1480617580074294,-0.886889,-0.333921,1.68185
1480617580088830,-0.886976,-0.333842,1.68185
1480617580111891,-0.886976,-0.333842,1.68185
1480617580134456,-0.886889,-0.333921,1.68185
1480617580155508,-0.886889,-0.333921,1.68185
1480617580178568,-0.886976,-0.333842,1.68185
1480617580197118,-0.886976,-0.333842,1.68185
1480617580215166,-0.886976,-0.333842,1.68185
1480617580237726,-0.886976,-0.333842,1.68185
1480617580270814,-0.886976,-0.333842,1.68185
1480617580275326,-0.886976,-0.333842,1.68185
1480617580291870,-0.887096,-0.333871,1.68196
1480617580314431,-0.887096,-0.333871,1.68196
1480617580344009,-0.887109,-0.333925,1.68195
1480617580352531,-0.886889,-0.333921,1.68185
1480617580380606,-0.886889,-0.333921,1.68185
1480617580396649,-0.886889,-0.333921,1.68185
1480617580411688,-0.886976,-0.333842,1.68185
1480617580434252,-0.886976,-0.333842,1.68185
1480617580455304,-0.886976,-0.333842,1.68185
1480617580472851,-0.886889,-0.333921,1.68185
1480617580494910,-0.886976,-0.333842,1.68185
1480617580518472,-0.886962,-0.333788,1.68186
1480617580532009,-0.886976,-0.333842,1.68185
1480617580556574,-0.886976,-0.333842,1.68185
1480617580577128,-0.886889,-0.333921,1.68185
1480617580591668,-0.886976,-0.333842,1.68185
1480617580621748,-0.887096,-0.333871,1.68196
1480617580638292,-0.887049,-0.333708,1.68185
1480617580665865,-0.887096,-0.333871,1.68196
1480617580681406,-0.887109,-0.333925,1.68195
1480617580696948,-0.886976,-0.333842,1.68185
1480617580711987,-0.886962,-0.333788,1.68186
1480617580734549,-0.886962,-0.333788,1.68186
1480617580758110,-0.886976,-0.333842,1.68185
1480617580779166,-0.886976,-0.333842,1.68185
1480617580795210,-0.886976,-0.333842,1.68185
1480617580839827,-0.886976,-0.333842,1.68185
1480617580855871,-0.886962,-0.333788,1.68186
1480617580860382,-0.886962,-0.333788,1.68186
1480617580884446,-0.886976,-0.333842,1.68185
1480617580891466,-0.886976,-0.333842,1.68185
1480617580914526,-0.886976,-0.333842,1.68185
1480617580936585,-0.886829,-0.333704,1.68175
1480617580953631,-0.886916,-0.333625,1.68175
1480617580981705,-0.886842,-0.333758,1.68174
1480617580996745,-0.886842,-0.333758,1.68174
1480617581011284,-0.886842,-0.333758,1.68174
1480617581034364,-0.886916,-0.333625,1.68175
1480617581058409,-0.887049,-0.333708,1.68185
1480617581077961,-0.886829,-0.333704,1.68175
1480617581108040,-0.886842,-0.333758,1.68174
1480617581123084,-0.886842,-0.333758,1.68174
1480617581138121,-0.886842,-0.333758,1.68174
1480617581154165,-0.886829,-0.333704,1.68175
1480617581176724,-0.886842,-0.333758,1.68174
1480617581197780,-0.886842,-0.333758,1.68174
1480617581214324,-0.886842,-0.333758,1.68174
1480617581243902,-0.886842,-0.333758,1.68174
1480617581265460,-0.886916,-0.333625,1.68175
1480617581282505,-0.886916,-0.333625,1.68175
1480617581298549,-0.886842,-0.333758,1.68174
1480617581318099,-0.886842,-0.333758,1.68174
1480617581334146,-0.886842,-0.333758,1.68174
1480617581365727,-0.886963,-0.333656,1.68189
1480617581377758,-0.886949,-0.333603,1.6819
1480617581394303,-0.886963,-0.333656,1.68189
1480617581424884,-0.886876,-0.333736,1.68189
1480617581437919,-0.886876,-0.333736,1.68189
1480617581455512,-0.886949,-0.333603,1.6819
1480617581477023,-0.886949,-0.333603,1.6819
1480617581499081,-0.886816,-0.333519,1.68179
1480617581514121,-0.886816,-0.333519,1.68179
1480617581544202,-0.88683,-0.333573,1.68178
1480617581559241,-0.886816,-0.333519,1.68179
1480617581574282,-0.886903,-0.333439,1.68179
1480617581604362,-0.886903,-0.333439,1.68179
1480617581626420,-0.886903,-0.333439,1.68179
1480617581637451,-0.886816,-0.333519,1.68179
1480617581663018,-0.886816,-0.333519,1.68179
1480617581679562,-0.886903,-0.333439,1.68179
1480617581693599,-0.886903,-0.333439,1.68179
1480617581717163,-0.886803,-0.333334,1.68183
1480617581739722,-0.88673,-0.333467,1.68183
1480617581760778,-0.886817,-0.333387,1.68182
1480617581782837,-0.886803,-0.333334,1.68183
1480617581822442,-0.88689,-0.333254,1.68182
1480617581824949,-0.88667,-0.33325,1.68173
1480617581836980,-0.88667,-0.33325,1.68173
1480617581860042,-0.88667,-0.33325,1.68173
1480617581873578,-0.88667,-0.33325,1.68173
1480617581910176,-0.886757,-0.333171,1.68172
1480617581926719,-0.886757,-0.333171,1.68172
1480617581940255,-0.886757,-0.333171,1.68172
1480617581956800,-0.886757,-0.333171,1.68172
1480617581979359,-0.886791,-0.333149,1.68187
1480617581993898,-0.886657,-0.333065,1.68176
1480617582016959,-0.886657,-0.333065,1.68176
1480617582039519,-0.886524,-0.332981,1.68166
1480617582060575,-0.886524,-0.332981,1.68166
1480617582077120,-0.886611,-0.332902,1.68165
1480617582102687,-0.886645,-0.33288,1.6818
1480617582121238,-0.886732,-0.3328,1.6818
1480617582137279,-0.886645,-0.33288,1.6818
1480617582159337,-0.886511,-0.332796,1.6817
1480617582180895,-0.886511,-0.332796,1.6817
1480617582196938,-0.886511,-0.332796,1.6817
1480617582219999,-0.886732,-0.3328,1.6818
1480617582241055,-0.886598,-0.332717,1.68169
1480617582256597,-0.886511,-0.332796,1.6817
1480617582281664,-0.886511,-0.332796,1.6817
1480617582301717,-0.886026,-0.332494,1.68142
1480617582316761,-0.886146,-0.332392,1.68157
1480617582345332,-0.886146,-0.332392,1.68157
1480617582360379,-0.885926,-0.332388,1.68147
1480617582376916,-0.88594,-0.332442,1.68146
1480617582399477,-0.885926,-0.332388,1.68147
1480617582420535,-0.885926,-0.332388,1.68147
1480617582438079,-0.885926,-0.332388,1.68147
1480617582459136,-0.885807,-0.332358,1.68136
1480617582482197,-0.88572,-0.332438,1.68136
1480617582504756,-0.885807,-0.332358,1.68136
1480617582519797,-0.885793,-0.332304,1.68136
1480617582542358,-0.885914,-0.332203,1.68151
1480617582564415,-0.885914,-0.332203,1.68151
1480617582579456,-0.885841,-0.332336,1.68151
1480617582602015,-0.885707,-0.332252,1.6814
1480617582616555,-0.885707,-0.332252,1.6814
1480617582646634,-0.88578,-0.332119,1.6814
1480617582661675,-0.88578,-0.332119,1.6814
1480617582676213,-0.88578,-0.332119,1.6814
1480617582699275,-0.885707,-0.332252,1.6814
1480617582729354,-0.88578,-0.332119,1.6814
1480617582736374,-0.88578,-0.332119,1.6814
1480617582759435,-0.885867,-0.33204,1.6814
1480617582781995,-0.88578,-0.332119,1.6814
1480617582796032,-0.885647,-0.332036,1.6813
1480617582820096,-0.885647,-0.332036,1.6813
1480617582844160,-0.885647,-0.332036,1.6813
1480617582856192,-0.885901,-0.332018,1.68155
1480617582879253,-0.885768,-0.331934,1.68144
1480617582901813,-0.885768,-0.331934,1.68144
1480617582907327,-0.885768,-0.331934,1.68144
1480617582931393,-0.885768,-0.331934,1.68144
1480617582944928,-0.885855,-0.331854,1.68144
1480617582967491,-0.885855,-0.331854,1.68144
1480617582985536,-0.885635,-0.33185,1.68134
1480617583005589,-0.885635,-0.33185,1.68134
1480617583027146,-0.885635,-0.33185,1.68134
1480617583046197,-0.885635,-0.33185,1.68134
1480617583064747,-0.885722,-0.331771,1.68133
1480617583087308,-0.885635,-0.33185,1.68134
1480617583105355,-0.885635,-0.33185,1.68134
1480617583124906,-0.885668,-0.331828,1.68149
1480617583150980,-0.885755,-0.331749,1.68148
1480617583178549,-0.885622,-0.331665,1.68138
1480617583184565,-0.885622,-0.331665,1.68138
1480617583214646,-0.885622,-0.331665,1.68138
1480617583246731,-0.885489,-0.331582,1.68127
1480617583249237,-0.885489,-0.331582,1.68127
1480617583274806,-0.88561,-0.33148,1.68142
1480617583293355,-0.88561,-0.33148,1.68142
1480617583308394,-0.885477,-0.331397,1.68131
1480617583327445,-0.88539,-0.331476,1.68132
1480617583350010,-0.885477,-0.331397,1.68131
1480617583367556,-0.885477,-0.331397,1.68131
1480617583387115,-0.885477,-0.331397,1.68131
1480617583409664,-0.885477,-0.331397,1.68131
1480617583441248,-0.885477,-0.331397,1.68131
1480617583454784,-0.885477,-0.331397,1.68131
1480617583471328,-0.885477,-0.331397,1.68131
1480617583487873,-0.885564,-0.331317,1.68131
1480617583507424,-0.885477,-0.331397,1.68131
1480617583529985,-0.885477,-0.331397,1.68131
1480617583569088,-0.885477,-0.331397,1.68131
1480617583571595,-0.88543,-0.331233,1.6812
1480617583589643,-0.88545,-0.331158,1.68136
1480617583604683,-0.88545,-0.331158,1.68136
1480617583627243,-0.885464,-0.331211,1.68135
1480617583650306,-0.885464,-0.331211,1.68135
1480617583664843,-0.885464,-0.331211,1.68135
1480617583687405,-0.885537,-0.331078,1.68136
1480617583712470,-0.885537,-0.331078,1.68136
1480617583729014,-0.885537,-0.331078,1.68136
1480617583763605,-0.885331,-0.331128,1.68125
