timestamp,x,y,z
1480535257521120,-0.194336,-0.976563,0.306152
1480535257531649,-0.191895,-0.986816,0.308105
1480535257563235,-0.189941,-0.968262,0.305664
1480535257573259,-0.187012,-0.962891,0.297852
1480535257595820,-0.189941,-0.980957,0.289551
1480535257613867,-0.189453,-0.989746,0.289551
1480535257643948,-0.186035,-0.969238,0.292969
1480535257651468,-0.185059,-0.954102,0.287109
1480535257674028,-0.188965,-0.96582,0.289063
1480535257693580,-0.195801,-0.98291,0.29248
1480535257711627,-0.191406,-0.968262,0.299316
1480535257756246,-0.19043,-0.956543,0.287598
1480535257764268,-0.192871,-0.967773,0.299805
1480535257775798,-0.196777,-0.98584,0.30127
1480535257793846,-0.19043,-0.980957,0.291016
1480535257813399,-0.194824,-0.962402,0.294434
1480535257840972,-0.191895,-0.964355,0.301758
1480535257854006,-0.193848,-0.984375,0.300781
1480535257875062,-0.195801,-0.978027,0.301758
1480535257913668,-0.188477,-0.960449,0.298828
1480535257918678,-0.184082,-0.960449,0.306152
1480535257935724,-0.189453,-0.975586,0.294434
1480535257955777,-0.199219,-0.977539,0.296387
1480535257978337,-0.194824,-0.962402,0.297852
1480535258000897,-0.186523,-0.952148,0.294922
1480535258017441,-0.188965,-0.97998,0.287598
1480535258041505,-0.204102,-0.984863,0.287109
1480535258057548,-0.20752,-0.975586,0.296875
1480535258076097,-0.193848,-0.956543,0.294434
1480535258106678,-0.187988,-0.964844,0.299316
1480535258114700,-0.188477,-0.982422,0.297363
1480535258143276,-0.195313,-0.978516,0.296875
1480535258153804,-0.189453,-0.958496,0.296875
1480535258174860,-0.187988,-0.959473,0.293945
1480535258195920,-0.194824,-0.97998,0.29248
1480535258213968,-0.202148,-0.978027,0.294434
1480535258236526,-0.196777,-0.958008,0.300293
1480535258256077,-0.191406,-0.959961,0.291016
1480535258274124,-0.187988,-0.978027,0.295898
1480535258297687,-0.196777,-0.981445,0.294434
1480535258317238,-0.203125,-0.969727,0.300293
1480535258334284,-0.191406,-0.95752,0.289551
1480535258356343,-0.193848,-0.967285,0.291016
1480535258375894,-0.202637,-0.98291,0.289063
1480535258393942,-0.202637,-0.972656,0.291504
1480535258418508,-0.189941,-0.961426,0.288086
1480535258436054,-0.193848,-0.970703,0.294434
1480535258460118,-0.19873,-0.987305,0.291504
1480535258481175,-0.194824,-0.979004,0.291504
1480535258503233,-0.197266,-0.969727,0.299805
1480535258513764,-0.203125,-0.972656,0.299805
1480535258536322,-0.194824,-0.97998,0.296387
1480535258555874,-0.188965,-0.977539,0.296387
1480535258585954,-0.19043,-0.956543,0.292969
1480535258596982,-0.188965,-0.954102,0.291504
1480535258616033,-0.196289,-0.96875,0.292969
1480535258634081,-0.205078,-0.992676,0.287598
1480535258664161,-0.200684,-0.978027,0.280762
1480535258675692,-0.188965,-0.960938,0.285156
1480535258693740,-0.187988,-0.964844,0.291992
1480535258716299,-0.194336,-0.978027,0.291016
1480535258743873,-0.195801,-0.973145,0.29248
1480535258753900,-0.193848,-0.964844,0.291016
1480535258783980,-0.197266,-0.969727,0.293945
1480535258796016,-0.196289,-0.977539,0.291504
1480535258818571,-0.194336,-0.978027,0.288086
1480535258838125,-0.195313,-0.958496,0.28418
1480535258857174,-0.198242,-0.955078,0.289063
1480535258873719,-0.194824,-0.979004,0.28418
1480535258910817,-0.197754,-0.986328,0.280273
1480535258918338,-0.191895,-0.97168,0.286133
1480535258947415,-0.196289,-0.959961,0.291992
1480535258956444,-0.196289,-0.970215,0.291504
1480535258987521,-0.19873,-0.984863,0.290527
1480535258994039,-0.196289,-0.971191,0.290527
1480535259016599,-0.199219,-0.958984,0.290527
1480535259037654,-0.197754,-0.970215,0.288086
1480535259060716,-0.203613,-0.980469,0.286133
1480535259084279,-0.203613,-0.977539,0.286621
1480535259103329,-0.193848,-0.962891,0.289551
1480535259113858,-0.192383,-0.96875,0.288086
1480535259148951,-0.200684,-0.985352,0.291016
1480535259163491,-0.20166,-0.982422,0.288574
1480535259181538,-0.196777,-0.966797,0.293457
1480535259218636,-0.195313,-0.962891,0.293945
1480535259221143,-0.195801,-0.974609,0.294922
1480535259238689,-0.20166,-0.980957,0.290527
1480535259256236,-0.20752,-0.967285,0.29248
1480535259283308,-0.19043,-0.964844,0.285156
1480535259305869,-0.191406,-0.980957,0.289551
1480535259316397,-0.200195,-0.987793,0.291016
1480535259346983,-0.206055,-0.967773,0.29248
1480535259374049,-0.201172,-0.955566,0.287598
1480535259385079,-0.194336,-0.963867,0.288086
1480535259430199,-0.197266,-0.976563,0.293945
1480535259435212,-0.195801,-0.978027,0.282227
1480535259441228,-0.192383,-0.961426,0.283691
1480535259463289,-0.191406,-0.960938,0.280762
1480535259478327,-0.19873,-0.973633,0.286133
1480535259496876,-0.202148,-0.978027,0.283203
1480535259524951,-0.205566,-0.961426,0.292969
1480535259539991,-0.196777,-0.963379,0.294434
1480535259556535,-0.194824,-0.975098,0.293457
1480535259578092,-0.20166,-0.98584,0.300781
1480535259599148,-0.202148,-0.97168,0.299805
1480535259615692,-0.194336,-0.959961,0.294922
1480535259652289,-0.198242,-0.971191,0.289063
1480535259659316,-0.208496,-0.980957,0.294922
1480535259690892,-0.202148,-0.975098,0.291992
1480535259697911,-0.192383,-0.952637,0.291992
1480535259726487,-0.192383,-0.960938,0.292969
1480535259745538,-0.199219,-0.976074,0.287598
1480535259758572,-0.20166,-0.979492,0.286621
1480535259779127,-0.199707,-0.959473,0.285156
1480535259795673,-0.190918,-0.959473,0.294434
1480535259818231,-0.198242,-0.980957,0.286621
1480535259839788,-0.19873,-0.980957,0.290039
1480535259862852,-0.196777,-0.966797,0.290527
1480535259877890,-0.194824,-0.95459,0.290527
1480535259898945,-0.194336,-0.972168,0.291016
1480535259921506,-0.206055,-0.976563,0.29248
1480535259938051,-0.201172,-0.971191,0.296875
1480535259959105,-0.189941,-0.963379,0.287109
1480535259984674,-0.192871,-0.971191,0.291504
1480535260013751,-0.203125,-0.987305,0.29541
1480535260019265,-0.208984,-0.976074,0.293457
1480535260035810,-0.197266,-0.961914,0.300781
1480535260057869,-0.192383,-0.964844,0.291504
1480535260080430,-0.196289,-0.97998,0.293945
1480535260095470,-0.19873,-0.977539,0.295898
1480535260119031,-0.190918,-0.966797,0.292969
1480535260141592,-0.193848,-0.962402,0.296387
1480535260162147,-0.20166,-0.979492,0.290039
1480535260178189,-0.203125,-0.981445,0.291016
1480535260218295,-0.197754,-0.966309,0.291992
1480535260222314,-0.195801,-0.961914,0.290039
1480535260253389,-0.195313,-0.976563,0.287109
1480535260262415,-0.202148,-0.984863,0.296875
1480535260299511,-0.200684,-0.972168,0.292969
1480535260304027,-0.194336,-0.957031,0.294434
1480535260328087,-0.195313,-0.968262,0.292969
1480535260335106,-0.200684,-0.983398,0.301758
1480535260358167,-0.199219,-0.980957,0.296875
1480535260380728,-0.196777,-0.964355,0.297363
1480535260394765,-0.192871,-0.962402,0.293945
1480535260418327,-0.201172,-0.978516,0.291992
1480535260448909,-0.20166,-0.979492,0.296387
1480535260454924,-0.199219,-0.958984,0.292969
1480535260491521,-0.194336,-0.95166,0.293457
1480535260500546,-0.196289,-0.976074,0.291992
1480535260515084,-0.19873,-0.983887,0.290039
1480535260538147,-0.197754,-0.967285,0.292969
1480535260561710,-0.191895,-0.963867,0.289063
1480535260581762,-0.191406,-0.973633,0.288086
1480535260607330,-0.200195,-0.983398,0.298828
1480535260620867,-0.202637,-0.977539,0.299805
1480535260641421,-0.196777,-0.954102,0.297852
1480535260657964,-0.191406,-0.966309,0.297852
1480535260681026,-0.196777,-0.991699,0.288574
1480535260702082,-0.197266,-0.980957,0.290039
1480535260724140,-0.199707,-0.959473,0.288086
1480535260740685,-0.196289,-0.960449,0.290527
1480535260761239,-0.193848,-0.975098,0.289063
1480535260778284,-0.193848,-0.977539,0.284668
1480535260800844,-0.196777,-0.961914,0.281738
1480535260829424,-0.189453,-0.95752,0.288086
1480535260851479,-0.19043,-0.976563,0.291992
1480535260861005,-0.19873,-0.986328,0.290527
1480535260883566,-0.200684,-0.968262,0.290039
1480535260898103,-0.195801,-0.956055,0.292969
1480535260920663,-0.189941,-0.972656,0.293945
1480535260941721,-0.194824,-0.986816,0.292969
1480535260959768,-0.197266,-0.977539,0.296875
1480535260980824,-0.197266,-0.959961,0.288574
1480535261010402,-0.194336,-0.964355,0.291992
1480535261018424,-0.193848,-0.981445,0.29541
1480535261040482,-0.194824,-0.979004,0.289551
1480535261071064,-0.195313,-0.956543,0.289063
1480535261077584,-0.191406,-0.962402,0.28418
1480535261108163,-0.196777,-0.976563,0.28125
1480535261123703,-0.195801,-0.980957,0.282715
1480535261138242,-0.20166,-0.963867,0.288086
1480535261162309,-0.192383,-0.959961,0.293457
1480535261182864,-0.194824,-0.974609,0.292969
1480535261197399,-0.203125,-0.991211,0.292969
1480535261221464,-0.194824,-0.977539,0.293945
1480535261258061,-0.196289,-0.960938,0.29248
1480535261260568,-0.198242,-0.964844,0.285645
1480535261280621,-0.19873,-0.98291,0.283691
1480535261303182,-0.198242,-0.977539,0.288574
1480535261317218,-0.19873,-0.95752,0.283691
1480535261349373,-0.191895,-0.962891,0.289063
1480535261364344,-0.196777,-0.983887,0.286621
1480535261386402,-0.196289,-0.986328,0.286133
1480535261400440,-0.194336,-0.966309,0.289063
1480535261447064,-0.200195,-0.958008,0.290527
1480535261451575,-0.197266,-0.974609,0.291016
1480535261460600,-0.202148,-0.986816,0.289063
1480535261483160,-0.200684,-0.966309,0.29248
1480535261497199,-0.192383,-0.95752,0.292969
1480535261529285,-0.194336,-0.976563,0.290039
1480535261566882,-0.201172,-0.984375,0.289063
1480535261571896,-0.200684,-0.974121,0.29248
1480535261580919,-0.191895,-0.955566,0.291016
1480535261602978,-0.200684,-0.967773,0.289551
1480535261624035,-0.203613,-0.986816,0.284668
1480535261641079,-0.194824,-0.974609,0.285156
1480535261664643,-0.191895,-0.963867,0.29248
1480535261684194,-0.202637,-0.962402,0.290527
1480535261700739,-0.194336,-0.981934,0.289551
1480535261723299,-0.203125,-0.977539,0.286133
1480535261744355,-0.20166,-0.966309,0.287598
1480535261760899,-0.194336,-0.958984,0.286621
1480535261796496,-0.196289,-0.978027,0.284668
1480535261808024,-0.198242,-0.986328,0.286621
1480535261835598,-0.199219,-0.97168,0.29248
1480535261843117,-0.198242,-0.959473,0.288574
1480535261864173,-0.19873,-0.970703,0.289063
1480535261880717,-0.202148,-0.980957,0.291504
1480535261903278,-0.202637,-0.977051,0.289551
1480535261924333,-0.196289,-0.961426,0.288574
1480535261940376,-0.195313,-0.967773,0.287598
1480535261962942,-0.203125,-0.986328,0.291992
1480535261984994,-0.205078,-0.97998,0.287598
1480535262000536,-0.199219,-0.961914,0.283203
1480535262024099,-0.194824,-0.957031,0.287109
1480535262045677,-0.202637,-0.978027,0.280762
1480535262060696,-0.20166,-0.979004,0.286133
1480535262083256,-0.197754,-0.966309,0.287598
1480535262121357,-0.186523,-0.96582,0.290039
1480535262123362,-0.20166,-0.974121,0.286621
1480535262150435,-0.211426,-0.981934,0.288086
1480535262165475,-0.20166,-0.968262,0.292969
1480535262189539,-0.197266,-0.959961,0.28418
1480535262204077,-0.196289,-0.969727,0.289063
1480535262225635,-0.199707,-0.978027,0.289551
1480535262239672,-0.199707,-0.980957,0.289063
1480535262269254,-0.192871,-0.958984,0.286621
1480535262285795,-0.192383,-0.962891,0.286133
1480535262306536,-0.202637,-0.982422,0.28418
1480535262323395,-0.206055,-0.976563,0.290039
1480535262362003,-0.192383,-0.96582,0.290527
1480535262367512,-0.192383,-0.969727,0.287109
1480535262390573,-0.203125,-0.983398,0.282715
1480535262406617,-0.208984,-0.98584,0.288574
1480535262428174,-0.201172,-0.978027,0.293457
1480535262443718,-0.193359,-0.969238,0.299316
1480535262466275,-0.200684,-0.96875,0.300781
1480535262486829,-0.207031,-0.976074,0.301758
1480535262504449,-0.209473,-0.970703,0.283691
1480535262526434,-0.192871,-0.959961,0.28125
1480535262555512,-0.196289,-0.968262,0.282715
1480535262564035,-0.197754,-0.981445,0.275391
1480535262593112,-0.195801,-0.972168,0.283203
1480535262607149,-0.191895,-0.959473,0.283691
1480535262638733,-0.194336,-0.961914,0.283691
1480535262645756,-0.197754,-0.98291,0.291016
1480535262668313,-0.20459,-0.984375,0.294434
1480535262684355,-0.19873,-0.969727,0.302246
1480535262711932,-0.193848,-0.962891,0.302246
1480535262733987,-0.197266,-0.972656,0.296387
1480535262743011,-0.205078,-0.985352,0.302246
1480535262765571,-0.197266,-0.975586,0.30127
1480535262788131,-0.191895,-0.960449,0.296875
1480535262803171,-0.198242,-0.961914,0.296875
1480535262833251,-0.20166,-0.973633,0.288086
1480535262846286,-0.192871,-0.976563,0.281738
1480535262872356,-0.187988,-0.959473,0.279297
1480535262885390,-0.197754,-0.963379,0.288086
1480535262906451,-0.202637,-0.979492,0.282715
1480535262922989,-0.202637,-0.969238,0.293457
1480535262946053,-0.193359,-0.955078,0.291504
1480535262968110,-0.1875,-0.962891,0.296387
1480535262983149,-0.197754,-0.979004,0.298828
1480535263011725,-0.201172,-0.97998,0.303223
1480535263035289,-0.201172,-0.964844,0.293945
1480535263043310,-0.193359,-0.954102,0.290039
1480535263065368,-0.198242,-0.967285,0.291016
1480535263102468,-0.204102,-0.987793,0.291016
1480535263108984,-0.195801,-0.976563,0.296875
1480535263149592,-0.196777,-0.962402,0.29248
1480535263154105,-0.195313,-0.968262,0.29248
1480535263162627,-0.19873,-0.985352,0.296875
1480535263191704,-0.199707,-0.976563,0.298828
1480535263208248,-0.192383,-0.95459,0.289063
1480535263222286,-0.194824,-0.956543,0.286621
1480535263246851,-0.196777,-0.976563,0.291016
1480535263267907,-0.200684,-0.978027,0.288086
1480535263290468,-0.199219,-0.965332,0.289551
1480535263311523,-0.188965,-0.962402,0.284668
1480535263328068,-0.197266,-0.976563,0.296387
1480535263351129,-0.20459,-0.97998,0.29834
1480535263388728,-0.197754,-0.966309,0.29541
1480535263391235,-0.193359,-0.961914,0.290039
1480535263425827,-0.200195,-0.974609,0.290527
1480535263428337,-0.209473,-0.982422,0.290527
1480535263448388,-0.202148,-0.974121,0.288086
1480535263471449,-0.200684,-0.959961,0.29248
1480535263486990,-0.197266,-0.966797,0.293945
1480535263508047,-0.205078,-0.977051,0.289551
1480535263529102,-0.208496,-0.977051,0.285645
1480535263545648,-0.193359,-0.963379,0.291504
1480535263568206,-0.195801,-0.963379,0.285156
1480535263589262,-0.208008,-0.980469,0.289063
1480535263605305,-0.210449,-0.974121,0.288574
1480535263628370,-0.203613,-0.961426,0.286621
1480535263665966,-0.200684,-0.958496,0.291016
1480535263668473,-0.20166,-0.977051,0.285645
1480535263696049,-0.20166,-0.985352,0.290039
1480535263709081,-0.20459,-0.969727,0.290527
1480535263726126,-0.196777,-0.964355,0.287598
1480535263748185,-0.202148,-0.967285,0.291504
1480535263769743,-0.20752,-0.983398,0.289063
1480535263785785,-0.205566,-0.975098,0.294434
1480535263808749,-0.199219,-0.962402,0.286133
1480535263828904,-0.200195,-0.969238,0.285645
1480535263845445,-0.206055,-0.981445,0.287598
1480535263868505,-0.206055,-0.975098,0.286621
1480535263907107,-0.203613,-0.955078,0.286621
1480535263911623,-0.198242,-0.953613,0.289063
1480535263943203,-0.202637,-0.977539,0.286621
1480535263959246,-0.20459,-0.980469,0.285645
1480535263967267,-0.200684,-0.967773,0.28418
1480535263987821,-0.198242,-0.964355,0.286621
1480535264025923,-0.202637,-0.975098,0.286133
1480535264028434,-0.206055,-0.983887,0.293457
1480535264055502,-0.199707,-0.966797,0.296387
1480535264071550,-0.195313,-0.960938,0.29248
1480535264093103,-0.198242,-0.973145,0.293945
1480535264108644,-0.208496,-0.98877,0.291504
1480535264130203,-0.206055,-0.973145,0.29541
1480535264146243,-0.199219,-0.958496,0.290527
1480535264174319,-0.196777,-0.962402,0.283691
1480535264190360,-0.208496,-0.981445,0.284668
1480535264218936,-0.20752,-0.96875,0.284668
1480535264227961,-0.200195,-0.961914,0.284668
1480535264250520,-0.193848,-0.969238,0.28125
1480535264265060,-0.197754,-0.987793,0.284668
1480535264288622,-0.208008,-0.984863,0.287109
1480535264310681,-0.206055,-0.963867,0.291504
1480535264325720,-0.199219,-0.960938,0.289551
1480535264349283,-0.205566,-0.968262,0.291992
1480535264373991,-0.208984,-0.981934,0.289063
1480535264400419,-0.20459,-0.96875,0.287109
1480535264424484,-0.192383,-0.962891,0.289063
1480535264430502,-0.20459,-0.966309,0.282227
1480535264461081,-0.205566,-0.97998,0.287598
1480535264468099,-0.20752,-0.97168,0.286133
1480535264491161,-0.202148,-0.962891,0.280762
1480535264519236,-0.195801,-0.972656,0.288574
1480535264528763,-0.196289,-0.983887,0.290039
1480535264550820,-0.207031,-0.975098,0.291504
1480535264579400,-0.204102,-0.956055,0.290039
1480535264587918,-0.196777,-0.959473,0.292969
1480535264610478,-0.20459,-0.979004,0.283691
1480535264631534,-0.211426,-0.984863,0.28418
1480535264648078,-0.20459,-0.965332,0.294922
1480535264685177,-0.19873,-0.965332,0.285645
1480535264701721,-0.198242,-0.976074,0.287598
1480535264730798,-0.206543,-0.983398,0.290039
1480535264733305,-0.20166,-0.978516,0.291504
1480535264766894,-0.197754,-0.962402,0.290527
1480535264775918,-0.196777,-0.96875,0.287598
1480535264798478,-0.201172,-0.983887,0.289551
1480535264813518,-0.203125,-0.980469,0.28418
1480535264834073,-0.197754,-0.962891,0.293945
1480535264850617,-0.197266,-0.960938,0.290527
1480535264873177,-0.206055,-0.97168,0.290039
1480535264894234,-0.202637,-0.972656,0.287598
1480535264910778,-0.200684,-0.946777,0.285645
1480535264935343,-0.193848,-0.963867,0.283203
1480535264954894,-0.196289,-0.979492,0.287598
1480535264978459,-0.208496,-0.989746,0.288086
1480535264992995,-0.206543,-0.97168,0.29541
1480535265007535,-0.198242,-0.960449,0.295898
1480535265031097,-0.192383,-0.973145,0.292969
1480535265053155,-0.201172,-0.984375,0.302734
1480535265074713,-0.200684,-0.973633,0.29541
1480535265090755,-0.199707,-0.95752,0.301758
1480535265120836,-0.189941,-0.962402,0.290039
1480535265135375,-0.196777,-0.977539,0.287598
1480535265150417,-0.205566,-0.974121,0.282715
1480535265172974,-0.197266,-0.963379,0.287109
1480535265194031,-0.1875,-0.965332,0.281738
1480535265212079,-0.196289,-0.980957,0.288574
1480535265233636,-0.201172,-0.980957,0.290039
1480535265247172,-0.197754,-0.963379,0.290527
1480535265270736,-0.190918,-0.960938,0.29248
1480535265293295,-0.192383,-0.976074,0.293945
1480535265307332,-0.202637,-0.981445,0.298828
1480535265331397,-0.20166,-0.967773,0.286133
1480535265353454,-0.191406,-0.958496,0.290039
1480535265374010,-0.193848,-0.969727,0.285645
1480535265390553,-0.206543,-0.983398,0.296387
1480535265413113,-0.199707,-0.982422,0.286133
1480535265434169,-0.191895,-0.949219,0.288086
1480535265450714,-0.194336,-0.968262,0.281738
1480535265473273,-0.202637,-0.98291,0.287598
1480535265494332,-0.197266,-0.979004,0.287598
1480535265510873,-0.193848,-0.962402,0.290039
1480535265532932,-0.19043,-0.95752,0.291992
1480535265554489,-0.197754,-0.977539,0.287109
1480535265570533,-0.203125,-0.977539,0.291504
1480535265593593,-0.197754,-0.964844,0.291016
1480535265614148,-0.1875,-0.961426,0.283691
1480535265630693,-0.191895,-0.975098,0.285645
1480535265653252,-0.207031,-0.990234,0.300293
1480535265673806,-0.208008,-0.966309,0.285645
1480535265692858,-0.19043,-0.95752,0.286133
1480535265729455,-0.192871,-0.96875,0.286621
1480535265733966,-0.208496,-0.985352,0.290527
1480535265759033,-0.199219,-0.980469,0.29248
1480535265773096,-0.192383,-0.961426,0.282227
1480535265795631,-0.194336,-0.964355,0.287109
1480535265810671,-0.202148,-0.974609,0.283203
1480535265833230,-0.20166,-0.976074,0.283203
1480535265856292,-0.195313,-0.967773,0.284668
1480535265870832,-0.187988,-0.962402,0.285645
1480535265894394,-0.199707,-0.977539,0.289063
1480535265921465,-0.206055,-0.980469,0.291992
1480535265931492,-0.200684,-0.967285,0.286621
1480535265961070,-0.200684,-0.963379,0.29248
1480535265975610,-0.19873,-0.96875,0.291016
1480535265990148,-0.200684,-0.97998,0.287598
1480535266013210,-0.197754,-0.970703,0.288574
1480535266041786,-0.194824,-0.960449,0.287598
1480535266049808,-0.193359,-0.966797,0.282715
1480535266073369,-0.200684,-0.978516,0.282227
1480535266095930,-0.20166,-0.976563,0.289551
1480535266109968,-0.19873,-0.960449,0.288086
1480535266133530,-0.203125,-0.957031,0.288574
1480535266161604,-0.204102,-0.982422,0.286621
1480535266170127,-0.203125,-0.982422,0.294922
1480535266202212,-0.201172,-0.970215,0.293457
1480535266216250,-0.197266,-0.958496,0.288086
1480535266230289,-0.194336,-0.972168,0.286621
1480535266252847,-0.204102,-0.992188,0.289063
1480535266281425,-0.201172,-0.974121,0.288574
1480535266289946,-0.200684,-0.958008,0.287598
1480535266320527,-0.208984,-0.970703,0.289063
1480535266343589,-0.206543,-0.979004,0.290039
1480535266364144,-0.194824,-0.970703,0.287109
1480535266373669,-0.194824,-0.959473,0.285645
1480535266396229,-0.199219,-0.964355,0.285645
1480535266416783,-0.205566,-0.979492,0.288574
1480535266432825,-0.200195,-0.980957,0.279297
1480535266470927,-0.201172,-0.956543,0.288574
1480535266477945,-0.203125,-0.956055,0.288086
1480535266517050,-0.197266,-0.982422,0.287109
1480535266522063,-0.205078,-0.983398,0.291504
1480535266536602,-0.206055,-0.967285,0.297852
1480535266562170,-0.20166,-0.95459,0.295898
1480535266576208,-0.202148,-0.97168,0.291016
1480535266596763,-0.205566,-0.983398,0.290039
1480535266620324,-0.205078,-0.969238,0.290039
1480535266636368,-0.202637,-0.961914,0.289063
1480535266657924,-0.200684,-0.963379,0.28125
1480535266680489,-0.202148,-0.979004,0.284668
1480535266695525,-0.203613,-0.979492,0.291016
1480535266716580,-0.20166,-0.960449,0.289551
1480535266733124,-0.196777,-0.965332,0.290039
1480535266756185,-0.201172,-0.980957,0.289063
1480535266779248,-0.203125,-0.977051,0.293457
1480535266799301,-0.200195,-0.960938,0.286133
1480535266823865,-0.195801,-0.959473,0.287598
1480535266837903,-0.203125,-0.97998,0.288574
1480535266853445,-0.209473,-0.977051,0.283203
1480535266875503,-0.203125,-0.967773,0.285645
1480535266900070,-0.192383,-0.967773,0.28125
1480535266912603,-0.197754,-0.973145,0.276855
1480535266935663,-0.213867,-0.985352,0.283203
1480535266960229,-0.209961,-0.96875,0.288086
1480535266972260,-0.198242,-0.959961,0.291016
1480535266995322,-0.200684,-0.962891,0.291992
1480535267017882,-0.204102,-0.97998,0.292969
1480535267032422,-0.206543,-0.977051,0.291504
1480535267063504,-0.198242,-0.962891,0.290527
1480535267079045,-0.199707,-0.96582,0.29541
1480535267108124,-0.206055,-0.984375,0.293457
1480535267115645,-0.205078,-0.979004,0.286133
1480535267153242,-0.203613,-0.965332,0.29248
1480535267155247,-0.200684,-0.959473,0.290527
1480535267188836,-0.199219,-0.97168,0.294922
1480535267197861,-0.205566,-0.984863,0.291016
1480535267212401,-0.201172,-0.967285,0.294434
1480535267235461,-0.199219,-0.957031,0.293945
1480535267259525,-0.200684,-0.966797,0.288574
1480535267279078,-0.208008,-0.984375,0.285156
1480535267296124,-0.206055,-0.975586,0.281738
1480535267318180,-0.198242,-0.962891,0.291016
1480535267346758,-0.194336,-0.966309,0.290527
1480535267355279,-0.20459,-0.987793,0.294922
1480535267377839,-0.205078,-0.980469,0.288574
1480535267398897,-0.198242,-0.96582,0.291504
1480535267416443,-0.196777,-0.963867,0.289551
1480535267438501,-0.200195,-0.980469,0.295898
1480535267460560,-0.206543,-0.986816,0.290527
1480535267477103,-0.205566,-0.966797,0.29248
1480535267512197,-0.195313,-0.953125,0.289063
1480535267519215,-0.199707,-0.967773,0.293457
1480535267535759,-0.205078,-0.980957,0.289551
1480535267558320,-0.199707,-0.967773,0.290039
1480535267578875,-0.197754,-0.949707,0.284668
1480535267595420,-0.19873,-0.953125,0.286621
1480535267626000,-0.201172,-0.972168,0.276367
1480535267639035,-0.196777,-0.968262,0.287598
1480535267661601,-0.199219,-0.956055,0.287109
1480535267678149,-0.208984,-0.96582,0.282227
1480535267699202,-0.198242,-0.982422,0.291016
1480535267715745,-0.20166,-0.984863,0.299805
1480535267738305,-0.202637,-0.971191,0.296875
1480535267766881,-0.199707,-0.958008,0.296875
1480535267784429,-0.203125,-0.974609,0.304688
1480535267797967,-0.203613,-0.986328,0.300781
1480535267820523,-0.20459,-0.967285,0.293945
1480535267835563,-0.199219,-0.952637,0.29834
1480535267858124,-0.199219,-0.965332,0.285156
1480535267886699,-0.213867,-0.983398,0.296875
1480535267895222,-0.211914,-0.978027,0.280273
1480535267920289,-0.199707,-0.960449,0.285645
1480535267941345,-0.191406,-0.960938,0.283691
1480535267954881,-0.205078,-0.984375,0.293945
1480535267977942,-0.203613,-0.979492,0.291504
1480535268001505,-0.196289,-0.959473,0.293945
1480535268015043,-0.199219,-0.958008,0.289551
1480535268038102,-0.20459,-0.978516,0.295898
1480535268061169,-0.208496,-0.98291,0.293945
1480535268081734,-0.203125,-0.964844,0.285645
1480535268104278,-0.195313,-0.956055,0.29248
1480535268127841,-0.20459,-0.973633,0.282227
1480535268148399,-0.212891,-0.980469,0.287109
1480535268164943,-0.203125,-0.970215,0.287598
1480535268188502,-0.193848,-0.959961,0.282715
1480535268201537,-0.198242,-0.971191,0.287598
1480535268219585,-0.208008,-0.983398,0.29248
1480535268240641,-0.214355,-0.968262,0.295898
1480535268261698,-0.205078,-0.958496,0.291992
1480535268278242,-0.202148,-0.961426,0.289063
1480535268306817,-0.204102,-0.979004,0.288086
1480535268338400,-0.202148,-0.979004,0.284668
1480535268345421,-0.199219,-0.964355,0.285156
1480535268368481,-0.201172,-0.962402,0.283691
1480535268383521,-0.205078,-0.977051,0.279297
1480535268406081,-0.208984,-0.974609,0.287109
1480535268422625,-0.205078,-0.970215,0.287109
1480535268441676,-0.197266,-0.962402,0.28418
1480535268464237,-0.194824,-0.97168,0.286621
1480535268480279,-0.210449,-0.983398,0.287598
1480535268501334,-0.215332,-0.969238,0.290527
1480535268518380,-0.203613,-0.953613,0.285645
1480535268540439,-0.196289,-0.967285,0.281738
1480535268562501,-0.205566,-0.983398,0.277344
1480535268578540,-0.208008,-0.976074,0.282227
1480535268600598,-0.206543,-0.968262,0.287598
1480535268621654,-0.202637,-0.966797,0.286133
1480535268638199,-0.208984,-0.979492,0.28418
1480535268660759,-0.208984,-0.980957,0.282715
1480535268683825,-0.203613,-0.964844,0.282715
1480535268698359,-0.20166,-0.963867,0.278809
1480535268720919,-0.205078,-0.978516,0.281738
1480535268742977,-0.210938,-0.983398,0.283691
1480535268758017,-0.201172,-0.970215,0.288574
1480535268780579,-0.199219,-0.958008,0.283691
1480535268803639,-0.205078,-0.963867,0.285156
1480535268824193,-0.207031,-0.982422,0.288086
1480535268843244,-0.212891,-0.980469,0.285645
1480535268863298,-0.202148,-0.964844,0.277344
1480535268877334,-0.203125,-0.960938,0.287109
1480535268901402,-0.209961,-0.980957,0.279785
1480535268939500,-0.206543,-0.976074,0.284668
1480535268944012,-0.202637,-0.968262,0.28418
1480535268968076,-0.203613,-0.967773,0.290527
1480535268983118,-0.200195,-0.97998,0.287598
1480535269004171,-0.206055,-0.979004,0.286621
1480535269020716,-0.20459,-0.964355,0.281738
1480535269043013,-0.206055,-0.952148,0.288086
1480535269057313,-0.20166,-0.973145,0.291016
1480535269087894,-0.206543,-0.989746,0.284668
1480535269103436,-0.205566,-0.973145,0.283691
1480535269131513,-0.206055,-0.959473,0.285645
1480535269140534,-0.205078,-0.966797,0.28418
1480535269178636,-0.205078,-0.98291,0.283691
1480535269184655,-0.20459,-0.978027,0.290527
1480535269201196,-0.202637,-0.961426,0.291504
1480535269222754,-0.198242,-0.959473,0.28418
1480535269246320,-0.203125,-0.977539,0.288086
1480535269260353,-0.210938,-0.979492,0.292969
1480535269282914,-0.200684,-0.960938,0.286621
1480535269303971,-0.195801,-0.957031,0.289063
1480535269321015,-0.208008,-0.979492,0.287598
1480535269343073,-0.205566,-0.983887,0.285645
1480535269373154,-0.203125,-0.966797,0.286621
1480535269380676,-0.196289,-0.961914,0.283691
1480535269419276,-0.199707,-0.974609,0.287598
1480535269438829,-0.20752,-0.981445,0.289063
1480535269456876,-0.205566,-0.96875,0.289063
1480535269463394,-0.199707,-0.955566,0.288086
1480535269492972,-0.198242,-0.960938,0.285156
1480535269500492,-0.203125,-0.98584,0.29248
1480535269523052,-0.204102,-0.986328,0.28418
1480535269544109,-0.197266,-0.963379,0.287598
1480535269574188,-0.208496,-0.959961,0.286621
1480535269583212,-0.208008,-0.975586,0.293945
1480535269607276,-0.209961,-0.979492,0.290527
1480535269620311,-0.200684,-0.964355,0.286621
1480535269650391,-0.202148,-0.955078,0.285645
1480535269679971,-0.199219,-0.974609,0.282227
1480535269694007,-0.203613,-0.984375,0.28418
1480535269733612,-0.205078,-0.966309,0.285156
1480535269736119,-0.201172,-0.960449,0.286133
1480535269742136,-0.200195,-0.967773,0.287598
1480535269770712,-0.208008,-0.983887,0.292969
1480535269791766,-0.208984,-0.976563,0.289551
1480535269799788,-0.200195,-0.963379,0.29834
1480535269828865,-0.206543,-0.968262,0.287598
1480535269851425,-0.208984,-0.97998,0.292969
1480535269859948,-0.207031,-0.97998,0.292969
1480535269883010,-0.196777,-0.960449,0.294922
1480535269906074,-0.200195,-0.963867,0.286621
1480535269929633,-0.205078,-0.976074,0.286621
1480535269950188,-0.208984,-0.98584,0.287109
1480535269971746,-0.206543,-0.961914,0.287109
1480535269979767,-0.196777,-0.953613,0.278809
1480535270010851,-0.197266,-0.97168,0.287598
1480535270042433,-0.207031,-0.980957,0.288086
1480535270046444,-0.20166,-0.970703,0.288574
1480535270062988,-0.194336,-0.961914,0.291016
1480535270086050,-0.202637,-0.970703,0.290039
1480535270106604,-0.204102,-0.983887,0.291504
1480535270129170,-0.20166,-0.978027,0.288086
1480535270145206,-0.200684,-0.959473,0.291504
1480535270166764,-0.199707,-0.962402,0.291504
1480535270183809,-0.206543,-0.980469,0.286133
1480535270205368,-0.208496,-0.972168,0.291504
1480535270227927,-0.203125,-0.962891,0.287109
1480535270243972,-0.194824,-0.969238,0.285156
1480535270289591,-0.200684,-0.981934,0.289063
1480535270294107,-0.212402,-0.986816,0.288086
1480535270304130,-0.208984,-0.967773,0.286621
1480535270325687,-0.200684,-0.959473,0.288086
1480535270347746,-0.199219,-0.969727,0.289551
1480535270362785,-0.206543,-0.983887,0.289551
1480535270385847,-0.20752,-0.973145,0.291016
1480535270408407,-0.196289,-0.961426,0.285645
1480535270422946,-0.202637,-0.966309,0.289063
1480535270445506,-0.207031,-0.981445,0.289063
1480535270466060,-0.212402,-0.976563,0.288086
1480535270483106,-0.206055,-0.966797,0.289551
1480535270529229,-0.195313,-0.96582,0.285645
1480535270566327,-0.206055,-0.97998,0.282715
1480535270568332,-0.214355,-0.975586,0.288086
1480535270573847,-0.206055,-0.961914,0.293945
1480535270595404,-0.203125,-0.959961,0.286133
1480535270602924,-0.203125,-0.974609,0.282227
1480535270640525,-0.210449,-0.983398,0.289551
1480535270649047,-0.202148,-0.966309,0.284668
1480535270663084,-0.194824,-0.959473,0.287598
1480535270685644,-0.208496,-0.969727,0.283691
1480535270708204,-0.212891,-0.984863,0.288574
1480535270722743,-0.205566,-0.970215,0.291504
1480535270758839,-0.203613,-0.963379,0.290039
1480535270767863,-0.205078,-0.96875,0.287598
1480535270798946,-0.206055,-0.980469,0.285645
1480535270805463,-0.208984,-0.979492,0.290527
1480535270835041,-0.205566,-0.967285,0.291016
1480535270845069,-0.199707,-0.961914,0.286621
1480535270865623,-0.208496,-0.973145,0.284668
1480535270890189,-0.208496,-0.981445,0.286133
1480535270903224,-0.208496,-0.961426,0.274902
1480535270925281,-0.199707,-0.95752,0.283203
1480535270947841,-0.19873,-0.976563,0.286621
1480535270962381,-0.20752,-0.987793,0.27832
1480535270992964,-0.210449,-0.972656,0.290039
1480535271008395,-0.211426,-0.955566,0.286621
1480535271046103,-0.205078,-0.963867,0.285156
1480535271049613,-0.206543,-0.983887,0.291992
1480535271068663,-0.209961,-0.974121,0.28125
1480535271089217,-0.204102,-0.95752,0.289551
1480535271106264,-0.196777,-0.964844,0.281738
1480535271127821,-0.209473,-0.978516,0.286133
1480535271148877,-0.209473,-0.980957,0.28418
1480535271165420,-0.211426,-0.963867,0.287109
1480535271187981,-0.206055,-0.960449,0.286621
1480535271209038,-0.200684,-0.977051,0.285645
1480535271225581,-0.209473,-0.986816,0.282715
1480535271248141,-0.208496,-0.97168,0.290039
1480535271279224,-0.203125,-0.958008,0.282715
1480535271285741,-0.20166,-0.974121,0.28125
1480535271307799,-0.213379,-0.978027,0.285645
1480535271328855,-0.211426,-0.97168,0.286621
1480535271345399,-0.204102,-0.962891,0.288574
1480535271367959,-0.195313,-0.971191,0.283203
1480535271389015,-0.210938,-0.988281,0.28418
1480535271405559,-0.211426,-0.978027,0.290527
1480535271429122,-0.199707,-0.963867,0.286621
1480535271457196,-0.203125,-0.959961,0.291016
1480535271468728,-0.210449,-0.974609,0.287598
1480535271487778,-0.211426,-0.972656,0.286621
1480535271519362,-0.207031,-0.964844,0.282715
1480535271525378,-0.196777,-0.95752,0.283691
1480535271548941,-0.202637,-0.971191,0.278809
1480535271571501,-0.208496,-0.981934,0.275391
1480535271594562,-0.205078,-0.967773,0.276367
1480535271614115,-0.202637,-0.960449,0.287598
1480535271630658,-0.206055,-0.967285,0.289063
1480535271651714,-0.208496,-0.981445,0.291504
1480535271668259,-0.210449,-0.970215,0.291016
1480535271690317,-0.200195,-0.963379,0.29541
1480535271704857,-0.20166,-0.976074,0.290039
1480535271735437,-0.206055,-0.990234,0.287598
1480535271750979,-0.217773,-0.981934,0.288574
1480535271796599,-0.206543,-0.95459,0.280273
1480535271800610,-0.200195,-0.957031,0.277832
1480535271835202,-0.202148,-0.977539,0.27832
1480535271839212,-0.205078,-0.981445,0.279297
1480535271849240,-0.197754,-0.961426,0.283691
1480535271870297,-0.197754,-0.959961,0.281738
1480535271891352,-0.206543,-0.976563,0.285645
1480535271907896,-0.20752,-0.98291,0.292969
1480535271937977,-0.20752,-0.966797,0.291992
1480535271944995,-0.200684,-0.964355,0.290527
1480535271968056,-0.194824,-0.975586,0.29248
1480535271990615,-0.208984,-0.987793,0.289551
1480535272013178,-0.216309,-0.984863,0.298828
1480535272027714,-0.229492,-0.992676,0.297852
1480535272057794,-0.237305,-0.989258,0.28125
1480535272074339,-0.193848,-0.984863,0.28418
1480535272101410,-0.163086,-0.975098,0.293945
1480535272116952,-0.150391,-0.950684,0.288574
1480535272139010,-0.166992,-0.94873,0.285156
1480535272148537,-0.197266,-0.959473,0.276855
1480535272170595,-0.218262,-0.97168,0.275391
1480535272193154,-0.226074,-0.967773,0.269531
1480535272208194,-0.196777,-0.960449,0.269043
1480535272230756,-0.186035,-0.980469,0.277832
1480535272251812,-0.1875,-0.989746,0.283691
1480535272268355,-0.185547,-0.974121,0.292969
1480535272297933,-0.186035,-0.958984,0.300293
1480535272311469,-0.192871,-0.973145,0.293945
1480535272334029,-0.203125,-0.987305,0.29834
1480535272350573,-0.204102,-0.979004,0.296387
1480535272379149,-0.193848,-0.965332,0.291992
1480535272388173,-0.188965,-0.958984,0.286621
1480535272410738,-0.186035,-0.982422,0.285156
1480535272431796,-0.1875,-0.984863,0.28125
1480535272447831,-0.186523,-0.963867,0.291016
1480535272470894,-0.191895,-0.951172,0.283691
1480535272493956,-0.195313,-0.971191,0.288086
1480535272507991,-0.197266,-0.988281,0.29248
1480535272530553,-0.188965,-0.968262,0.291504
1480535272553111,-0.186523,-0.95459,0.289063
1480535272568653,-0.191406,-0.968262,0.288086
1480535272590712,-0.193848,-0.984375,0.287109
1480535272612770,-0.198242,-0.981934,0.288574
1480535272633826,-0.194824,-0.958984,0.281738
1480535272657890,-0.189453,-0.962402,0.287109
1480535272673631,-0.194336,-0.990234,0.291016
1480535272695491,-0.194336,-0.986328,0.290039
1480535272710533,-0.186035,-0.96582,0.293457
1480535272742115,-0.189941,-0.961426,0.289063
1480535272747127,-0.191406,-0.982422,0.289063
1480535272778211,-0.199219,-0.986816,0.283203
1480535272793254,-0.194336,-0.967773,0.290039
1480535272807288,-0.192871,-0.965332,0.287598
1480535272830349,-0.187012,-0.977539,0.28125
1480535272852909,-0.196777,-0.983398,0.291016
1480535272867449,-0.202637,-0.970703,0.28418
1480535272904046,-0.19873,-0.958984,0.288086
1480535272913069,-0.192383,-0.969238,0.283691
1480535272941647,-0.197754,-0.98877,0.289551
1480535272950670,-0.195313,-0.97998,0.282227
1480535272980248,-0.190918,-0.969238,0.285156
1480535272993788,-0.193848,-0.96875,0.28125
1480535273010331,-0.200195,-0.980957,0.288086
1480535273033891,-0.199707,-0.986328,0.288574
1480535273061464,-0.194336,-0.958984,0.289551
1480535273070490,-0.192383,-0.961426,0.289063
1480535273101069,-0.189941,-0.983887,0.282227
1480535273114106,-0.200684,-0.983887,0.28125
1480535273138169,-0.200684,-0.966309,0.27832
1480535273183789,-0.20166,-0.962891,0.279785
1480535273185796,-0.196777,-0.970703,0.28418
1480535273192814,-0.199707,-0.987305,0.285645
1480535273213869,-0.203125,-0.975098,0.283203
1480535273234925,-0.192871,-0.963379,0.283691
1480535273250467,-0.192871,-0.967773,0.291016
1480535273279042,-0.20166,-0.988281,0.287109
1480535273295089,-0.200195,-0.974121,0.286133
1480535273310632,-0.199707,-0.958496,0.288574
1480535273334690,-0.194824,-0.967773,0.288086
1480535273354244,-0.200195,-0.983887,0.28418
1480535273370286,-0.20459,-0.98291,0.287598
1480535273394851,-0.196777,-0.967285,0.285156
1480535273415407,-0.194824,-0.962402,0.286133
1480535273437967,-0.203125,-0.975586,0.27832
1480535273461026,-0.201172,-0.981445,0.28125
1480535273476571,-0.199707,-0.967285,0.285645
1480535273490606,-0.196777,-0.961426,0.27832
1480535273513166,-0.194336,-0.973145,0.282715
1480535273536227,-0.200684,-0.985352,0.277832
1480535273559793,-0.200684,-0.976563,0.290039
1480535273580344,-0.196289,-0.960938,0.290527
1480535273595384,-0.193359,-0.973145,0.282227
1480535273616440,-0.20166,-0.986816,0.283691
1480535273632984,-0.206055,-0.980469,0.284668
1480535273656046,-0.199707,-0.963867,0.285645
1480535273677104,-0.20166,-0.966309,0.279785
1480535273693147,-0.198242,-0.979004,0.276855
1480535273716707,-0.202637,-0.980469,0.282715
1480535273722221,-0.199707,-0.963867,0.279297
1480535273739997,-0.189941,-0.966797,0.283691
1480535273758318,-0.192383,-0.984375,0.273926
1480535273780878,-0.202148,-0.991699,0.283203
1480535273797422,-0.208008,-0.974121,0.284668
1480535273818477,-0.19873,-0.958984,0.286621
1480535273842542,-0.197754,-0.969238,0.287598
1480535273859085,-0.204102,-0.985352,0.289551
1480535273894699,-0.20166,-0.979492,0.285156
1480535273900696,-0.195313,-0.956543,0.287598
1480535273932280,-0.19043,-0.967773,0.28125
1480535273938297,-0.200684,-0.984863,0.276367
1480535273972888,-0.20166,-0.979004,0.280273
1480535273983416,-0.200684,-0.963867,0.280273
1480535273998457,-0.196777,-0.972168,0.280762
1480535274021016,-0.194336,-0.984375,0.280762
1480535274039341,-0.203125,-0.983887,0.289551
1480535274058617,-0.201172,-0.964844,0.282227
1480535274081176,-0.196289,-0.960938,0.285156
1480535274098723,-0.195801,-0.975098,0.280762
1480535274118275,-0.203613,-0.981445,0.285645
1480535274140836,-0.20459,-0.976563,0.28125
1480535274174926,-0.202148,-0.962402,0.282715
1480535274179939,-0.196289,-0.977051,0.281738
1480535274210022,-0.20459,-0.981934,0.281738
1480535274232078,-0.203613,-0.983887,0.284668
1480535274238095,-0.194824,-0.962891,0.291992
1480535274261155,-0.189453,-0.963379,0.283203
1480535274295246,-0.20166,-0.98584,0.290527
1480535274300762,-0.199707,-0.982422,0.283691
1480535274320813,-0.197266,-0.963867,0.288574
1480535274343376,-0.196777,-0.956543,0.282715
1480535274365935,-0.198242,-0.967285,0.286133
1480535274388493,-0.201172,-0.983398,0.286621
1480535274415064,-0.197754,-0.971191,0.287598
1480535274426096,-0.189941,-0.962891,0.286133
1480535274452163,-0.197266,-0.976074,0.291504
1480535274463192,-0.211426,-0.983887,0.29248
1480535274488761,-0.202148,-0.973145,0.294922
1480535274500793,-0.190918,-0.95752,0.292969
1480535274523352,-0.194336,-0.96582,0.287598
1480535274538392,-0.197754,-0.976563,0.287598
1480535274571481,-0.193848,-0.975586,0.286621
1480535274593041,-0.193848,-0.962891,0.283691
1480535274598553,-0.19873,-0.963867,0.278809
1480535274620611,-0.201172,-0.976563,0.283691
1480535274644174,-0.204102,-0.979492,0.282715
1480535274658211,-0.190918,-0.968262,0.287109
1480535274691802,-0.187988,-0.961426,0.283691
1480535274703333,-0.200195,-0.978516,0.288086
1480535274728899,-0.205566,-0.986328,0.29248
1480535274740931,-0.203613,-0.975586,0.291016
1480535274764995,-0.189941,-0.961914,0.290039
1480535274781038,-0.194824,-0.970703,0.289063
1480535274801091,-0.203125,-0.981934,0.282227
1480535274823651,-0.196777,-0.974121,0.279297
1480535274845710,-0.197266,-0.961426,0.283691
1480535274860750,-0.196289,-0.96875,0.27832
1480535274884313,-0.198242,-0.97998,0.285645
1480535274905870,-0.20166,-0.97998,0.288086
1480535274922414,-0.191406,-0.962891,0.287598
1480535274968036,-0.192383,-0.963867,0.285156
1480535274970542,-0.199219,-0.980469,0.289551
1480535274981070,-0.20459,-0.98584,0.284668
1480535275003630,-0.199219,-0.966309,0.293457
1480535275019672,-0.196289,-0.952148,0.28125
1480535275040730,-0.196289,-0.974121,0.279785
1480535275063288,-0.193359,-0.991211,0.281738
1480535275081337,-0.192871,-0.974121,0.28125
1480535275100889,-0.194824,-0.95752,0.283203
1480535275126457,-0.203125,-0.961914,0.282227
1480535275154531,-0.203613,-0.979004,0.285645
1480535275161049,-0.199219,-0.976563,0.286621
1480535275183608,-0.195313,-0.96582,0.279785
1480535275202159,-0.191895,-0.968262,0.279785
1480535275228227,-0.197266,-0.983887,0.289063
1480535275244771,-0.20752,-0.979492,0.288086
1480535275261817,-0.205078,-0.959473,0.287598
1480535275283876,-0.197754,-0.966797,0.28418
1480535275303428,-0.199219,-0.993652,0.283203
1480535275321977,-0.199707,-0.993164,0.291992
1480535275357070,-0.201172,-0.968262,0.292969
1480535275371109,-0.198242,-0.956543,0.285645
1480535275382143,-0.197754,-0.966797,0.287598
1480535275402190,-0.205566,-0.979492,0.285156
1480535275423246,-0.208496,-0.97168,0.286621
1480535275441295,-0.204102,-0.961426,0.286133
1480535275464356,-0.196777,-0.965332,0.284668
1480535275483406,-0.202637,-0.98584,0.283691
1480535275505967,-0.206055,-0.98291,0.285645
1480535275528526,-0.202637,-0.964355,0.288086
1480535275547076,-0.197266,-0.967773,0.288574
1480535275562116,-0.209961,-0.98291,0.288086
1480535275580665,-0.204102,-0.98291,0.286621
1480535275603226,-0.197266,-0.96875,0.288574
1480535275625787,-0.197754,-0.959961,0.28125
1480535275640825,-0.200195,-0.970703,0.284668
1480535275666894,-0.208496,-0.983398,0.276855
1480535275685945,-0.207031,-0.967285,0.283203
1480535275708506,-0.195801,-0.959961,0.277832
1480535275723545,-0.193359,-0.972656,0.271484
1480535275746106,-0.203125,-0.984863,0.276855
1480535275763652,-0.208008,-0.974609,0.280762
1480535275792229,-0.199707,-0.958984,0.284668
1480535275806394,-0.203125,-0.967773,0.283203
1480535275837349,-0.206055,-0.97998,0.288086
1480535275843366,-0.201172,-0.980469,0.286621
1480535275865925,-0.200684,-0.968262,0.285645
1480535275882468,-0.197754,-0.962402,0.285645
1480535275903524,-0.202148,-0.973633,0.285645
1480535275934105,-0.205078,-0.981934,0.292969
1480535275942127,-0.212402,-0.970703,0.282715
1480535275964686,-0.196289,-0.964844,0.279785
1480535275995267,-0.195801,-0.979004,0.280762
1480535276008304,-0.206543,-0.986328,0.284668
1480535276023343,-0.208008,-0.970703,0.279785
1480535276045903,-0.197754,-0.958008,0.286621
1480535276062446,-0.200684,-0.969727,0.285156
1480535276085006,-0.204102,-0.98291,0.283203
1480535276106159,-0.199707,-0.980469,0.285645
1480535276122105,-0.200195,-0.966309,0.288086
1480535276160207,-0.196777,-0.963379,0.28125
1480535276174244,-0.199219,-0.98291,0.287109
1480535276182266,-0.20459,-0.985352,0.287598
1480535276203322,-0.199707,-0.970703,0.287109
1480535276233401,-0.192383,-0.964355,0.290039
1480535276243929,-0.196777,-0.979004,0.296387
1480535276266490,-0.206055,-0.98584,0.292969
1480535276287545,-0.20459,-0.964355,0.285156
1480535276304592,-0.192383,-0.950684,0.279297
1480535276331161,-0.202637,-0.958984,0.285156
1480535276353220,-0.208984,-0.976074,0.282715
1480535276369765,-0.200195,-0.97168,0.280762
1480535276390820,-0.196777,-0.959473,0.275391
1480535276413882,-0.188965,-0.969727,0.277344
1480535276431428,-0.190918,-0.994141,0.28125
1480535276443462,-0.19873,-0.987793,0.286133
1480535276473541,-0.203125,-0.961426,0.295898
1480535276488580,-0.203125,-0.962402,0.299316
1480535276503621,-0.197754,-0.981445,0.291992
1480535276526681,-0.201172,-0.978027,0.289063
1480535276548239,-0.201172,-0.959473,0.291016
1480535276563279,-0.190918,-0.953613,0.287109
1480535276585838,-0.194336,-0.975098,0.278809
1480535276618425,-0.200684,-0.987793,0.272461
1480535276623438,-0.19873,-0.972168,0.28125
1480535276645999,-0.196777,-0.958496,0.285645
1480535276664548,-0.194336,-0.972168,0.289551
1480535276684602,-0.195313,-0.990723,0.290039
1480535276706158,-0.199219,-0.979004,0.289551
1480535276728217,-0.199707,-0.959961,0.292969
1480535276744761,-0.192383,-0.965332,0.290039
1480535276773509,-0.20166,-0.97998,0.283203
1480535276784366,-0.196289,-0.977051,0.286621
1480535276810937,-0.197754,-0.966797,0.275879
1480535276825978,-0.189941,-0.960938,0.282227
1480535276848537,-0.196777,-0.976563,0.285156
1480535276866085,-0.200684,-0.985352,0.285645
1480535276896165,-0.195313,-0.971191,0.289063
1480535276904687,-0.194336,-0.964844,0.282715
1480535276925242,-0.20166,-0.972168,0.289063
1480535276945798,-0.204102,-0.986816,0.293945
1480535276968357,-0.196289,-0.973633,0.29541
1480535276984900,-0.195801,-0.963379,0.289551
1480535277005956,-0.196289,-0.969238,0.289063
1480535277024506,-0.202148,-0.984863,0.287109
1480535277044559,-0.203125,-0.975586,0.290039
1480535277065615,-0.189941,-0.960938,0.281738
1480535277099705,-0.197266,-0.974121,0.290527
1480535277105220,-0.20166,-0.986816,0.288086
1480535277126778,-0.197266,-0.986816,0.275879
1480535277148335,-0.194336,-0.96875,0.285156
1480535277164879,-0.186035,-0.969727,0.27832
1480535277193455,-0.195313,-0.969238,0.28125
1480535277210500,-0.202637,-0.963867,0.282715
1480535277226543,-0.206543,-0.959961,0.282227
1480535277264144,-0.204102,-0.958984,0.280273
1480535277268153,-0.206543,-0.972168,0.278809
1480535277286703,-0.206055,-1.00195,0.286621
1480535277305794,-0.208496,-0.989258,0.278809
1480535277328313,-0.203125,-0.975098,0.280273
1480535277346362,-0.214844,-0.968262,0.280273
1480535277365914,-0.218262,-0.964355,0.293945
1480535277395994,-0.207031,-0.971191,0.297363
1480535277412538,-0.217285,-0.953613,0.279297
1480535277426076,-0.21875,-0.978516,0.284668
1480535277448133,-0.215332,-0.995605,0.28125
1480535277470694,-0.216797,-0.967773,0.282227
1480535277494756,-0.208008,-0.942383,0.29248
1480535277508293,-0.208008,-0.92334,0.29248
1480535277530853,-0.211426,-0.933105,0.29248
1480535277547396,-0.223145,-0.950684,0.300293
1480535277568452,-0.225586,-0.960449,0.309082
1480535277586500,-0.222168,-0.959961,0.307129
1480535277615077,-0.224609,-0.964355,0.299316
1480535277635631,-0.227051,-0.969238,0.299805
1480535277646160,-0.217285,-0.968262,0.297852
1480535277665711,-0.205078,-0.960449,0.299805
1480535277705316,-0.200684,-0.967773,0.294922
1480535277707823,-0.21875,-0.979492,0.293457
1480535277725871,-0.229004,-0.987305,0.287109
1480535277748431,-0.217285,-0.980957,0.287109
1480535277770992,-0.215332,-0.975586,0.282715
1480535277788037,-0.215332,-0.97168,0.290527
1480535277808090,-0.222168,-0.972656,0.295898
1480535277831152,-0.230469,-0.955078,0.294922
1480535277854713,-0.219727,-0.952148,0.288574
1480535277900836,-0.206543,-0.99707,0.28418
1480535277904347,-0.208496,-1.01953,0.282227
1480535277913370,-0.209473,-0.984863,0.286621
1480535277935930,-0.206055,-0.945801,0.287598
1480535277947461,-0.210449,-0.958984,0.285156
1480535277975034,-0.219238,-0.986328,0.28125
1480535277996090,-0.214844,-0.992188,0.27832
1480535278007119,-0.19043,-0.95752,0.291504
1480535278028677,-0.207031,-0.95459,0.286133
1480535278050736,-0.220703,-0.971191,0.283203
1480535278066277,-0.200684,-0.961426,0.293945
1480535278094853,-0.196289,-0.960938,0.289551
1480535278108389,-0.209961,-0.96582,0.287598
1480535278126439,-0.209961,-0.976074,0.290039
1480535278147493,-0.210449,-0.974121,0.29541
1480535278177573,-0.221191,-0.954102,0.308594
1480535278186095,-0.214355,-0.957031,0.303711
1480535278213167,-0.212891,-0.96582,0.295898
1480535278228207,-0.219727,-0.983398,0.29834
1480535278246255,-0.206055,-0.986816,0.296387
1480535278268817,-0.19043,-0.965332,0.297363
1480535278288368,-0.181641,-0.972656,0.287109
1480535278306415,-0.208984,-0.960449,0.295898
1480535278338502,-0.225098,-0.947266,0.299316
1480535278348527,-0.214355,-0.924316,0.294922
1480535278366074,-0.204102,-0.932129,0.299316
1480535278388634,-0.197266,-0.967285,0.293457
1480535278409694,-0.191406,-0.967773,0.293945
1480535278426234,-0.187012,-0.944336,0.29541
1480535278462831,-0.197754,-0.955566,0.300293
1480535278484890,-0.206543,-0.987305,0.287598
1480535278490907,-0.206543,-0.984375,0.30127
1480535278516474,-0.203613,-0.958496,0.311035
1480535278530010,-0.208008,-0.935547,0.314941
1480535278561093,-0.208008,-0.947266,0.312012
1480535278568613,-0.207031,-0.975586,0.311523
1480535278595686,-0.208008,-0.972656,0.30957
1480535278612230,-0.212891,-0.961426,0.301758
1480535278636294,-0.218262,-0.959473,0.304199
1480535278648324,-0.212402,-0.970215,0.302734
1480535278689435,-0.21875,-0.969727,0.300293
1480535278693444,-0.228516,-0.950684,0.304688
1480535278733051,-0.20752,-0.961914,0.29248
1480535278735055,-0.207031,-0.985352,0.302734
1480535278757114,-0.223633,-0.975098,0.300781
1480535278771152,-0.224121,-0.957031,0.306641
1480535278801232,-0.21582,-0.938965,0.30957
1480535278808755,-0.222168,-0.958496,0.301758
1480535278835824,-0.225586,-0.974609,0.308105
1480535278850875,-0.224121,-0.962402,0.308594
1480535278881445,-0.222656,-0.951172,0.309082
1480535278889968,-0.223145,-0.963379,0.297363
1480535278913530,-0.229492,-0.979004,0.293945
1480535278928570,-0.231445,-0.972656,0.29834
1480535278955643,-0.224609,-0.961914,0.293457
1480535278970683,-0.217773,-0.963867,0.289551
1480535279001264,-0.225586,-0.980469,0.287109
1480535279011290,-0.23291,-0.983398,0.290039
1480535279041875,-0.234375,-0.969238,0.285645
1480535279048891,-0.227539,-0.962891,0.296387
1480535279070448,-0.223145,-0.972656,0.291016
1480535279091007,-0.228027,-0.970703,0.29834
1480535279113563,-0.231934,-0.951172,0.29541
1480535279132117,-0.229492,-0.946777,0.29834
1480535279162693,-0.232422,-0.960449,0.291992
1480535279168709,-0.236816,-0.973633,0.29248
1480535279204806,-0.231445,-0.960449,0.290039
1480535279210821,-0.226074,-0.955078,0.282227
1480535279234885,-0.226563,-0.959473,0.281738
1480535279251429,-0.229004,-0.983398,0.279297
1480535279270982,-0.226563,-0.986816,0.276855
1480535279288528,-0.218262,-0.974121,0.284668
1480535279311088,-0.21875,-0.962402,0.286621
1480535279338161,-0.228027,-0.974121,0.294922
1480535279363728,-0.231445,-0.973633,0.294922
1480535279371251,-0.229004,-0.963379,0.302246
1480535279408348,-0.231445,-0.955078,0.297852
1480535279410854,-0.23291,-0.970215,0.304199
1480535279444443,-0.234863,-0.981934,0.304199
1480535279450960,-0.229492,-0.975586,0.304688
1480535279473520,-0.225098,-0.95166,0.296387
1480535279491067,-0.226563,-0.950684,0.302246
1480535279510619,-0.230469,-0.966309,0.300293
1480535279528667,-0.231445,-0.958984,0.291016
1480535279558749,-0.223145,-0.935547,0.290039
1480535279571790,-0.221191,-0.939453,0.285645
1480535279588826,-0.225098,-0.968262,0.286621
1480535279611387,-0.224609,-0.970703,0.287598
1480535279641467,-0.220215,-0.959473,0.289551
1480535279648987,-0.221191,-0.95459,0.300293
1480535279684080,-0.229004,-0.973145,0.299316
1480535279722683,-0.234375,-0.974609,0.310059
1480535279725192,-0.23291,-0.952637,0.312988
1480535279731707,-0.227539,-0.945313,0.307617
1480535279752762,-0.23291,-0.955566,0.308594
1480535279768805,-0.240723,-0.967773,0.312988
1480535279791365,-0.235352,-0.961426,0.308105
1480535279819941,-0.228516,-0.945801,0.311523
1480535279831472,-0.225098,-0.956543,0.296875
1480535279864059,-0.224121,-0.97998,0.296875
1480535279872349,-0.228516,-0.970703,0.29834
1480535279900656,-0.236328,-0.956543,0.297363
1480535279918704,-0.237793,-0.95459,0.29541
1480535279962821,-0.231445,-0.966797,0.297852
1480535279965328,-0.229004,-0.969238,0.30127
1480535280000421,-0.224609,-0.944824,0.299316
1480535280003931,-0.221191,-0.943359,0.300293
1480535280008947,-0.223145,-0.965332,0.300293
1480535280031505,-0.224121,-0.975098,0.299316
1480535280067098,-0.23291,-0.959473,0.293945
1480535280073616,-0.240723,-0.946777,0.296387
1480535280112721,-0.237305,-0.961914,0.304199
1480535280115227,-0.231934,-0.970703,0.306152
1480535280133274,-0.227539,-0.965332,0.298828
1480535280151322,-0.223633,-0.946777,0.302734
1480535280197445,-0.220215,-0.956055,0.304199
1480535280202459,-0.23877,-0.975586,0.306152
1480535280234043,-0.237305,-0.961914,0.304199
1480535280238556,-0.228516,-0.937988,0.308105
1480535280270642,-0.236328,-0.955078,0.296387
1480535280275657,-0.236816,-0.978027,0.294922
1480535280299718,-0.232422,-0.977051,0.296875
1480535280313253,-0.228027,-0.956543,0.301758
1480535280343334,-0.227539,-0.945313,0.304199
1480535280358376,-0.230469,-0.964844,0.300293
1480535280382940,-0.235352,-0.979492,0.302734
1480535280391462,-0.22998,-0.970215,0.30127
1480535280421542,-0.228027,-0.954102,0.297852
1480535280433574,-0.224609,-0.95752,0.29541
1480535280473179,-0.231934,-0.970703,0.294922
1480535280478193,-0.235352,-0.967285,0.29541
1480535280517798,-0.22998,-0.952148,0.299805
1480535280519302,-0.226563,-0.95166,0.29541
1480535280555899,-0.23291,-0.967285,0.294922
1480535280558408,-0.236816,-0.975586,0.29248
1480535280571441,-0.229004,-0.956055,0.293945
1480535280592998,-0.227539,-0.94873,0.297363
1480535280614054,-0.229492,-0.966797,0.298828
1480535280630597,-0.234375,-0.972168,0.299316
1480535280654161,-0.233398,-0.953613,0.301758
1480535280674214,-0.22998,-0.951172,0.297852
1480535280696272,-0.227539,-0.963379,0.301758
1480535280712816,-0.234863,-0.977051,0.306152
1480535280750918,-0.23584,-0.961426,0.305176
1480535280753424,-0.23584,-0.940918,0.299805
1480535280797542,-0.229004,-0.949707,0.300781
1480535280817094,-0.231934,-0.962402,0.29248
1480535280834140,-0.233887,-0.969727,0.291992
1480535280839156,-0.229492,-0.956543,0.289063
1480535280854192,-0.228516,-0.95459,0.292969
1480535280876752,-0.229004,-0.966797,0.29834
1480535280892795,-0.241211,-0.96875,0.303711
1480535280913851,-0.237305,-0.957031,0.309082
1480535280932400,-0.228516,-0.953125,0.30957
1480535280952955,-0.230469,-0.966309,0.30957
1480535280983036,-0.236816,-0.972656,0.311523
1480535280991056,-0.238281,-0.957031,0.305664
1480535281028155,-0.225586,-0.947754,0.299316
1480535281036680,-0.224609,-0.955566,0.291992
1480535281064252,-0.23291,-0.972656,0.294434
1480535281074278,-0.232422,-0.967773,0.291992
1480535281095835,-0.229004,-0.952148,0.291016
1480535281110375,-0.227051,-0.949707,0.296387
1480535281132934,-0.241211,-0.96875,0.30127
1480535281155494,-0.237305,-0.972656,0.30127
1480535281169532,-0.216309,-0.953125,0.302734
1480535281193093,-0.225098,-0.953125,0.295898
1480535281216658,-0.237793,-0.969727,0.296875
1480535281229692,-0.235352,-0.969238,0.303711
1480535281260272,-0.232422,-0.952148,0.299805
1480535281275313,-0.22998,-0.94873,0.292969
1480535281305393,-0.232422,-0.956055,0.293457
1480535281313414,-0.239746,-0.979492,0.294434
1480535281343996,-0.226074,-0.96582,0.294434
1480535281351014,-0.224121,-0.948242,0.29541
1480535281374577,-0.233887,-0.95752,0.295898
1480535281395632,-0.237305,-0.973145,0.29834
1480535281410172,-0.23877,-0.967773,0.298828
1480535281433233,-0.236328,-0.94873,0.29248
1480535281456294,-0.226563,-0.949219,0.295898
1480535281491891,-0.233398,-0.96875,0.302246
1480535281507931,-0.234375,-0.970703,0.29834
1480535281515451,-0.22998,-0.963867,0.293457
1480535281546033,-0.227539,-0.948242,0.293457
1480535281553051,-0.230469,-0.967773,0.294434
1480535281590150,-0.234863,-0.973145,0.29248
1480535281604188,-0.235352,-0.966309,0.293945
1480535281618726,-0.228027,-0.950684,0.298828
1480535281635270,-0.22998,-0.960938,0.288574
1480535281656827,-0.23291,-0.976563,0.29248
1480535281673376,-0.236816,-0.969727,0.298828
1480535281695430,-0.231934,-0.943359,0.292969
1480535281716486,-0.233398,-0.950195,0.29248
1480535281733030,-0.237793,-0.972656,0.29248
1480535281770632,-0.237793,-0.973633,0.291992
1480535281784167,-0.231445,-0.959961,0.300293
1480535281792689,-0.23291,-0.954102,0.296875
1480535281823271,-0.237793,-0.974609,0.294922
1480535281853350,-0.236328,-0.978516,0.302734
1480535281855857,-0.23291,-0.963867,0.291016
1480535281882929,-0.228516,-0.95166,0.293945
1480535281896966,-0.23291,-0.962402,0.29834
1480535281936069,-0.233887,-0.972168,0.294434
1480535281938578,-0.233887,-0.956055,0.290527
1480535281965649,-0.231934,-0.948242,0.292969
1480535281973671,-0.214844,-0.963379,0.285645
1480535281996230,-0.234375,-0.984863,0.293945
1480535282017788,-0.243164,-0.973633,0.290039
1480535282064411,-0.233398,-0.956543,0.295898
1480535282068926,-0.227539,-0.944336,0.299805
1480535282091987,-0.239258,-0.963867,0.302246
1480535282101009,-0.237793,-0.967773,0.300293
1480535282123070,-0.233887,-0.956543,0.299316
1480535282138108,-0.225098,-0.951172,0.302246
1480535282166684,-0.226563,-0.966797,0.297852
1480535282175710,-0.237305,-0.967773,0.297852
1480535282205287,-0.234863,-0.951172,0.300293
1480535282212305,-0.227539,-0.949219,0.295898
1480535282242886,-0.227539,-0.96582,0.299805
1480535282257929,-0.232422,-0.977539,0.301758
1480535282279985,-0.235352,-0.967773,0.305664
1480535282297031,-0.231445,-0.94873,0.301758
1480535282341653,-0.226563,-0.951172,0.299805
1480535282378747,-0.229004,-0.967773,0.302734
1480535282380753,-0.234375,-0.970703,0.29834
1480535282386268,-0.226563,-0.95752,0.298828
1480535282401308,-0.226074,-0.950684,0.306641
1480535282415345,-0.227539,-0.971191,0.293945
1480535282439033,-0.234863,-0.969238,0.29834
1480535282458962,-0.224609,-0.956543,0.293945
1480535282483025,-0.222656,-0.949707,0.300293
1480535282498067,-0.227051,-0.956055,0.303223
1480535282520625,-0.234863,-0.970703,0.306641
1480535282535665,-0.233887,-0.958984,0.303711
1480535282572262,-0.222168,-0.94873,0.306152
1480535282579281,-0.225098,-0.945801,0.303711
1480535282602845,-0.228027,-0.973633,0.300781
1480535282619388,-0.230469,-0.976563,0.303223
1480535282646459,-0.218262,-0.953125,0.306641
1480535282655484,-0.236328,-0.95459,0.30957
1480535282679047,-0.230957,-0.965332,0.304199
1480535282699101,-0.228516,-0.967773,0.312012
1480535282716146,-0.228516,-0.947754,0.305664
1480535282738204,-0.223633,-0.94873,0.302734
1480535282760263,-0.225586,-0.968262,0.303711
1480535282776305,-0.226563,-0.973145,0.314941
1480535282798365,-0.223633,-0.955078,0.29834
1480535282818919,-0.224121,-0.945801,0.300293
1480535282834961,-0.226074,-0.965332,0.306152
1480535282858024,-0.234863,-0.976563,0.300293
1480535282897126,-0.22998,-0.966309,0.299805
1480535282903143,-0.216797,-0.946777,0.304688
1480535282919186,-0.221191,-0.955078,0.302246
1480535282940241,-0.226074,-0.970703,0.310547
1480535282961297,-0.229492,-0.967285,0.309082
1480535282977841,-0.224609,-0.949707,0.303711
1480535283000401,-0.220703,-0.95166,0.303711
1480535283015441,-0.226074,-0.97168,0.309082
1480535283046023,-0.224121,-0.969238,0.305176
1480535283060561,-0.220215,-0.953125,0.306152
1480535283075104,-0.217773,-0.943359,0.304199
1480535283098161,-0.224609,-0.966797,0.300781
1480535283127740,-0.228027,-0.974121,0.305664
1480535283135763,-0.221191,-0.957031,0.304199
1480535283165842,-0.219238,-0.940918,0.306152
1480535283180381,-0.225586,-0.953613,0.307617
1480535283194918,-0.231445,-0.968262,0.310547
1480535283217980,-0.224609,-0.962891,0.310547
1480535283240039,-0.218262,-0.955566,0.307617
1480535283254577,-0.220703,-0.961426,0.306152
1480535283278140,-0.226074,-0.969727,0.310059
1480535283300198,-0.234375,-0.967285,0.312012
1480535283315239,-0.230957,-0.952637,0.310547
1480535283338802,-0.227051,-0.95166,0.309082
1480535283361865,-0.226074,-0.969727,0.307129
1480535283388934,-0.227051,-0.972656,0.308105
1480535283406983,-0.216309,-0.958008,0.304199
1480535283443580,-0.21582,-0.948242,0.304199
1480535283447089,-0.222168,-0.952637,0.296875
1480535283458121,-0.225586,-0.964844,0.296387
1480535283480177,-0.220703,-0.966309,0.29248
1480535283508757,-0.219238,-0.94873,0.305176
1480535283517777,-0.228516,-0.958984,0.299805
1480535283548359,-0.235352,-0.972168,0.300293
1480535283561394,-0.230469,-0.969727,0.305664
1480535283577937,-0.229004,-0.949219,0.313965
1480535283608019,-0.222656,-0.953125,0.303711
1480535283628573,-0.229492,-0.970703,0.307617
1480535283644122,-0.237793,-0.972168,0.309082
1480535283669180,-0.229492,-0.953613,0.308105
1480535283683218,-0.225586,-0.946777,0.301758
1480535283703773,-0.226074,-0.962402,0.303711
1480535283720818,-0.231934,-0.972168,0.293945
1480535283741373,-0.233887,-0.964355,0.299316
1480535283757921,-0.223145,-0.95166,0.29834
1480535283780978,-0.216309,-0.967285,0.300781
1480535283801532,-0.226074,-0.971191,0.29834
1480535283818076,-0.227051,-0.958008,0.294434
1480535283840636,-0.231445,-0.94043,0.290527
1480535283885756,-0.22998,-0.95752,0.30127
1480535283888280,-0.240234,-0.978516,0.296875
1480535283924362,-0.23877,-0.971191,0.303711
1480535283929372,-0.230957,-0.957031,0.297852
1480535283952935,-0.222656,-0.950195,0.293457
1480535283960455,-0.219727,-0.962402,0.294922
1480535283983015,-0.229492,-0.971191,0.295898
1480535283997052,-0.234863,-0.956055,0.296875
1480535284028135,-0.236328,-0.949219,0.297852
1480535284042675,-0.229492,-0.968262,0.293457
1480535284065233,-0.224121,-0.97998,0.301758
1480535284080274,-0.229492,-0.959961,0.29541
1480535284102834,-0.229492,-0.941895,0.303711
1480535284119378,-0.228027,-0.957031,0.305664
1480535284154972,-0.231934,-0.984375,0.302734
1480535284164498,-0.230469,-0.97998,0.296875
1480535284185052,-0.226074,-0.953613,0.29834
1480535284200594,-0.230469,-0.950195,0.299316
1480535284229170,-0.23584,-0.967773,0.30127
1480535284244711,-0.228516,-0.974121,0.305176
1480535284268275,-0.227539,-0.951172,0.297363
1480535284282813,-0.229492,-0.95459,0.29248
1480535284311389,-0.229004,-0.96875,0.289063
1480535284320412,-0.234375,-0.972656,0.291992
1480535284343474,-0.234375,-0.961426,0.291016
1480535284364028,-0.224121,-0.952148,0.298828
1480535284388093,-0.227051,-0.961914,0.296875
1480535284404136,-0.231445,-0.977051,0.301758
1480535284431708,-0.233398,-0.962891,0.299316
1480535284441235,-0.224609,-0.94873,0.299805
1480535284468808,-0.228027,-0.958008,0.293457
1480535284484349,-0.23291,-0.976563,0.297852
1480535284501895,-0.226563,-0.974609,0.294922
1480535284524956,-0.226074,-0.959473,0.29541
1480535284544008,-0.227051,-0.961426,0.296875
1480535284560551,-0.234375,-0.96875,0.294922
1480535284583112,-0.236328,-0.968262,0.296387
1480535284604169,-0.231934,-0.952637,0.297363
1480535284628231,-0.226074,-0.949219,0.296387
1480535284642770,-0.227051,-0.964844,0.292969
1480535284682375,-0.231934,-0.977051,0.29541
1480535284686386,-0.224121,-0.963379,0.303223
1480535284716967,-0.224609,-0.955078,0.297363
1480535284723986,-0.228516,-0.953613,0.301758
1480535284755570,-0.233398,-0.971191,0.300781
1480535284763090,-0.224609,-0.972168,0.29834
1480535284785149,-0.224121,-0.952148,0.304199
1480535284802696,-0.228027,-0.953125,0.299316
1480535284822749,-0.223145,-0.972656,0.290039
1480535284846311,-0.230957,-0.970703,0.293457
1480535284860850,-0.231934,-0.951172,0.300781
1480535284882909,-0.221191,-0.950195,0.29834
1480535284905471,-0.226074,-0.970703,0.297852
1480535284920509,-0.231445,-0.973633,0.299316
1480535284949086,-0.223633,-0.959473,0.300293
1480535284982674,-0.222168,-0.945801,0.300781
1480535284986685,-0.224121,-0.961426,0.301758
1480535285016263,-0.233398,-0.969727,0.299316
1480535285025287,-0.23291,-0.960449,0.29834
1480535285039826,-0.225098,-0.946289,0.296875
1480535285062887,-0.228027,-0.954102,0.304199
1480535285101491,-0.226074,-0.974121,0.299805
1480535285106503,-0.22998,-0.967285,0.297363
1480535285123047,-0.220215,-0.960938,0.30127
1480535285146109,-0.222168,-0.958984,0.306641
1480535285160648,-0.231934,-0.971191,0.305664
1480535285184210,-0.235352,-0.964844,0.303711
1480535285213287,-0.227539,-0.953613,0.304199
1480535285219805,-0.220215,-0.943848,0.296387
1480535285243367,-0.227051,-0.959473,0.303711
1480535285265426,-0.233887,-0.972656,0.298828
1480535285294002,-0.228027,-0.964355,0.299316
1480535285309042,-0.222656,-0.950684,0.29834
1480535285333106,-0.230469,-0.960938,0.294922
1480535285348147,-0.23291,-0.973633,0.29834
1480535285370206,-0.22998,-0.964844,0.306152
1480535285385244,-0.22168,-0.952148,0.304688
1480535285413821,-0.224609,-0.95752,0.30127
1480535285423849,-0.22998,-0.97168,0.300293
1480535285452925,-0.231445,-0.967773,0.302734
1480535285466962,-0.224609,-0.953125,0.297852
1480535285496541,-0.224609,-0.956055,0.298828
1480535285505565,-0.228516,-0.976074,0.30127
1480535285528125,-0.232422,-0.978516,0.300781
1480535285545170,-0.226074,-0.958984,0.303223
1480535285582270,-0.223633,-0.95166,0.304688
1480535285586781,-0.225098,-0.963379,0.301758
1480535285610344,-0.233887,-0.974121,0.30957
1480535285625885,-0.227539,-0.960938,0.299805
1480535285646439,-0.220215,-0.945801,0.299805
1480535285669000,-0.225098,-0.95459,0.29541
1480535285701086,-0.226563,-0.969238,0.305176
1480535285707101,-0.225098,-0.96582,0.302246
1480535285730664,-0.220215,-0.957031,0.304199
1480535285745202,-0.220215,-0.958008,0.296875
1480535285768265,-0.236816,-0.970215,0.304688
1480535285782802,-0.236328,-0.969727,0.306152
1480535285812882,-0.225586,-0.953613,0.303711
1480535285828925,-0.222168,-0.94873,0.299805
1480535285867528,-0.224121,-0.960449,0.298828
1480535285871538,-0.227051,-0.972168,0.307617
1480535285888082,-0.224121,-0.960449,0.300781
1480535285902120,-0.219238,-0.949707,0.302246
1480535285932701,-0.224121,-0.960449,0.297363
1480535285948248,-0.227539,-0.973145,0.302246
1480535285979326,-0.227051,-0.963867,0.296875
1480535285985346,-0.220215,-0.953125,0.300293
1480535286008405,-0.220703,-0.957031,0.303711
1480535286022440,-0.225586,-0.972168,0.299805
1480535286046002,-0.229492,-0.971191,0.302246
1480535286068061,-0.225098,-0.952148,0.300781
1480535286082098,-0.213867,-0.95166,0.293457
1480535286106663,-0.213379,-0.970215,0.287109
1480535286128722,-0.218262,-0.969727,0.293945
1480535286142258,-0.241699,-0.952148,0.297363
1480535286165821,-0.23877,-0.959473,0.298828
1480535286187879,-0.219238,-0.974609,0.312012
1480535286210440,-0.219238,-0.973633,0.319336
1480535286225981,-0.227539,-0.95752,0.311035
1480535286265587,-0.213867,-0.941895,0.316406
1480535286269598,-0.223633,-0.956055,0.311035
1480535286286142,-0.236816,-0.974121,0.309082
1480535286308701,-0.225586,-0.975586,0.299316
1480535286336275,-0.205078,-0.963867,0.296387
1480535286345299,-0.20752,-0.955566,0.291016
1480535286367859,-0.225098,-0.963867,0.288574
1480535286413480,-0.238281,-0.961914,0.296387
1480535286416989,-0.219727,-0.953613,0.297363
1480535286428520,-0.207031,-0.955566,0.303223
1480535286451582,-0.218262,-0.964355,0.303711
1480535286465619,-0.231934,-0.970215,0.308105
1480535286495699,-0.219238,-0.960449,0.305664
1480535286508734,-0.207031,-0.953125,0.304199
1480535286533303,-0.220703,-0.960449,0.300781
1480535286562376,-0.230469,-0.973145,0.29834
1480535286568894,-0.226074,-0.967285,0.293945
1480535286585939,-0.207031,-0.949219,0.296387
1480535286608000,-0.214355,-0.950684,0.29834
1480535286644595,-0.226074,-0.970215,0.302734
1480535286659133,-0.227051,-0.966309,0.30127
1480535286668157,-0.220215,-0.957031,0.307129
1480535286690218,-0.218262,-0.950195,0.306641
1480535286705258,-0.225098,-0.967773,0.307129
1480535286728317,-0.230469,-0.975586,0.307617
1480535286767421,-0.220215,-0.962891,0.298828
1480535286770932,-0.217285,-0.953613,0.29834
1480535286787475,-0.223145,-0.96582,0.300293
1480535286810536,-0.236328,-0.977539,0.305176
1480535286825576,-0.232422,-0.961426,0.304688
1480535286854152,-0.213867,-0.949219,0.302246
1480535286883730,-0.219238,-0.960449,0.310059
1480535286901780,-0.228516,-0.972168,0.300293
1480535286915320,-0.224609,-0.960449,0.304199
1480535286930857,-0.219238,-0.95459,0.299316
1480535286945396,-0.223633,-0.962891,0.294434
1480535286968456,-0.226563,-0.983887,0.289551
1480535286998035,-0.214844,-0.97168,0.299805
1480535287011571,-0.234863,-0.955078,0.283203
1480535287042654,-0.249512,-0.953125,0.288086
1480535287052680,-0.214355,-0.942871,0.297852
1480535287065715,-0.215332,-0.945313,0.300293
1480535287088779,-0.245117,-0.96582,0.291992
1480535287117854,-0.227539,-0.976074,0.282715
1480535287124872,-0.214355,-0.976563,0.299316
1480535287155955,-0.225098,-0.969238,0.297852
1480535287170494,-0.23291,-0.949707,0.297363
1480535287208596,-0.233887,-0.950195,0.285645
1480535287211101,-0.227051,-0.972168,0.28418
1480535287238175,-0.230469,-0.983887,0.282227
1480535287251208,-0.221191,-0.971191,0.285156
1480535287275272,-0.220215,-0.942871,0.287598
1480535287290313,-0.234863,-0.954102,0.279297
1480535287320392,-0.239746,-0.967285,0.276367
1480535287335433,-0.233887,-0.970703,0.279785
1480535287358494,-0.23584,-0.979004,0.275879
1480535287371529,-0.225586,-0.981445,0.267578
1480535287394088,-0.206543,-0.974121,0.27832
1480535287410640,-0.22998,-0.955078,0.291504
1480535287449235,-0.248047,-0.961426,0.286133
1480535287453747,-0.240723,-0.963867,0.286133
1480535287484830,-0.244629,-0.972168,0.282227
1480535287491347,-0.246582,-0.977051,0.287109
1480535287513907,-0.243652,-0.964355,0.282227
1480535287530451,-0.242676,-0.955566,0.280762
1480535287551507,-0.241211,-0.960938,0.276855
1480535287568052,-0.237793,-0.983398,0.276855
1480535287591114,-0.23291,-0.986816,0.266602
1480535287611166,-0.23291,-0.966797,0.273438
1480535287628211,-0.238281,-0.965332,0.274414
1480535287650270,-0.236816,-0.975586,0.277344
1480535287680350,-0.245605,-0.975586,0.286133
1480535287687869,-0.243164,-0.963867,0.286133
1480535287710932,-0.23877,-0.95752,0.288574
1480535287734995,-0.239258,-0.963867,0.288086
1480535287762067,-0.239258,-0.96875,0.286621
1480535287770591,-0.233398,-0.959961,0.28125
1480535287800169,-0.232422,-0.946777,0.27832
1480535287808693,-0.235352,-0.95752,0.279297
1480535287830249,-0.241211,-0.986328,0.27832
1480535287852809,-0.233887,-0.974609,0.274414
1480535287873865,-0.230957,-0.958984,0.276855
1480535287890412,-0.237305,-0.956543,0.278809
1480535287920488,-0.239746,-0.976074,0.288086
1480535287928509,-0.234375,-0.974121,0.285645
1480535287965609,-0.23291,-0.953125,0.29248
1480535287973129,-0.23584,-0.946777,0.289551
1480535287993685,-0.23584,-0.964844,0.287109
1480535288010729,-0.239746,-0.980469,0.287598
1480535288034291,-0.234375,-0.962891,0.287598
1480535288047326,-0.225586,-0.952637,0.291016
1480535288070388,-0.230957,-0.966309,0.283203
1480535288095454,-0.231445,-0.976563,0.289551
1480535288123531,-0.23291,-0.964355,0.291504
1480535288132051,-0.229492,-0.95166,0.293457
1480535288160627,-0.227051,-0.958496,0.293945
1480535288174168,-0.229492,-0.966797,0.29541
1480535288190710,-0.229004,-0.959961,0.294434
1480535288212766,-0.225098,-0.944336,0.288574
1480535288233822,-0.223633,-0.955078,0.294434
1480535288250366,-0.228516,-0.983887,0.289551
1480535288278942,-0.231445,-0.981934,0.293457
1480535288294984,-0.231934,-0.960938,0.294922
1480535288324064,-0.222656,-0.945313,0.303223
1480535288333086,-0.227539,-0.960449,0.297852
1480535288356148,-0.231445,-0.967285,0.303223
1480535288386241,-0.225098,-0.95752,0.30127
1480535288394249,-0.21875,-0.94873,0.299805
1480535288414803,-0.217773,-0.958008,0.296875
1480535288430346,-0.224121,-0.972656,0.297363
1480535288452905,-0.229492,-0.961426,0.291504
1480535288476468,-0.230469,-0.948242,0.298828
1480535288490506,-0.223145,-0.962891,0.305664
1480535288514067,-0.224121,-0.975586,0.300293
1480535288541645,-0.227539,-0.974121,0.305176
1480535288550165,-0.227539,-0.954102,0.308105
1480535288572724,-0.224609,-0.946289,0.312012
1480535288595283,-0.221191,-0.96582,0.3125
1480535288610328,-0.226074,-0.969238,0.304199
1480535288638900,-0.223633,-0.956543,0.294922
1480535288670985,-0.221191,-0.943848,0.296875
1480535288684020,-0.223633,-0.959473,0.294434
1480535288693545,-0.228027,-0.972656,0.291992
1480535288717608,-0.21875,-0.96582,0.292969
1480535288732148,-0.215332,-0.952148,0.296875
1480535288760223,-0.221191,-0.95459,0.30127
1480535288798323,-0.229492,-0.97168,0.306641
1480535288803339,-0.22998,-0.968262,0.302734
1480535288820884,-0.223145,-0.947754,0.302246
1480535288834924,-0.227051,-0.947754,0.300781
1480535288873525,-0.229492,-0.966797,0.300293
1480535288876030,-0.231934,-0.971191,0.302246
1480535288910121,-0.220703,-0.959961,0.303223
1480535288913630,-0.219238,-0.955078,0.291992
1480535288947721,-0.226563,-0.962891,0.302734
1480535288955241,-0.234375,-0.974609,0.30127
1480535288969780,-0.228516,-0.965332,0.305664
1480535288996852,-0.222656,-0.946289,0.299316
1480535289022921,-0.229492,-0.962891,0.305176
1480535289029939,-0.231934,-0.974609,0.299316
1480535289061022,-0.227051,-0.972168,0.299805
1480535289075561,-0.221191,-0.953125,0.299316
1480535289103636,-0.225586,-0.949219,0.299316
1480535289120179,-0.230469,-0.970703,0.294434
1480535289159285,-0.231934,-0.970215,0.293945
1480535289163796,-0.225586,-0.958984,0.29541
1480535289181342,-0.220215,-0.955078,0.294922
1480535289195881,-0.229492,-0.97168,0.299316
1480535289217940,-0.231934,-0.975098,0.297852
1480535289234485,-0.22998,-0.954102,0.299316
1480535289256544,-0.221191,-0.946289,0.300293
1480535289276596,-0.224609,-0.967285,0.30127
1480535289316702,-0.22998,-0.98291,0.29541
1480535289321715,-0.227539,-0.961914,0.292969
1480535289337759,-0.220703,-0.947266,0.29834
1480535289353801,-0.227539,-0.958008,0.296875
1480535289398420,-0.230469,-0.97998,0.29248
1480535289400927,-0.225098,-0.975098,0.300293
1480535289436020,-0.227539,-0.947266,0.294922
1480535289441534,-0.225586,-0.956055,0.295898
1480535289458078,-0.22998,-0.976563,0.296875
1480535289473121,-0.235352,-0.97168,0.298828
1480535289495679,-0.224609,-0.959473,0.304688
1480535289516734,-0.217285,-0.949219,0.29834
1480535289540297,-0.217285,-0.959961,0.295898
1480535289555338,-0.226074,-0.970703,0.289551
1480535289577898,-0.228516,-0.96875,0.292969
1480535289592937,-0.230469,-0.955566,0.297852
1480535289615998,-0.224609,-0.96875,0.295898
1480535289638058,-0.222168,-0.976563,0.304199
1480535289668137,-0.227051,-0.958008,0.304688
1480535289696714,-0.226563,-0.945313,0.302734
1480535289714260,-0.226074,-0.955566,0.297852
1480535289718772,-0.230469,-0.980469,0.303223
1480535289735316,-0.226563,-0.978027,0.297363
1480535289757876,-0.225098,-0.954102,0.294922
1480535289772916,-0.225098,-0.947754,0.292969
1480535289796518,-0.222656,-0.964355,0.291992
1480535289819039,-0.228516,-0.979492,0.296387
1480535289833076,-0.232422,-0.96582,0.297852
1480535289855636,-0.228516,-0.958008,0.298828
1480535289878196,-0.227539,-0.965332,0.302246
1480535289892735,-0.230957,-0.976074,0.29834
1480535289915294,-0.222656,-0.958496,0.302246
1480535289954901,-0.222656,-0.946289,0.298828
1480535289958911,-0.227539,-0.959473,0.29541
1480535289982975,-0.225098,-0.976074,0.295898
1480535290021076,-0.227051,-0.967285,0.293945
1480535290023603,-0.225098,-0.95166,0.294434
1480535290035615,-0.221191,-0.956543,0.291504
1480535290058175,-0.226563,-0.973145,0.289063
1480535290078729,-0.237305,-0.972656,0.301758
1480535290103296,-0.229492,-0.959961,0.301758
1480535290117833,-0.218262,-0.952637,0.299805
1480535290138891,-0.21875,-0.970703,0.303711
1480535290155434,-0.237305,-0.973145,0.303711
1480535290187519,-0.230469,-0.960449,0.29541
1480535290223618,-0.224121,-0.949219,0.29834
1480535290226622,-0.234375,-0.963379,0.296875
1480535290238656,-0.230957,-0.96875,0.297852
1480535290260713,-0.21582,-0.964844,0.295898
1480535290275753,-0.220703,-0.958008,0.29541
1480535290298815,-0.227539,-0.957031,0.294434
1480535290326389,-0.232422,-0.976563,0.299316
1480535290335412,-0.231445,-0.969727,0.302246
1480535290358477,-0.220215,-0.951172,0.303711
1480535290379028,-0.223145,-0.95459,0.297852
1480535290395572,-0.230469,-0.969727,0.300293
1480535290418133,-0.228516,-0.977051,0.302246
1480535290446206,-0.220215,-0.958984,0.306641
1480535290455231,-0.21875,-0.952637,0.29248
1480535290485832,-0.230469,-0.958984,0.296387
1480535290507871,-0.235352,-0.970215,0.30127
1480535290515397,-0.225586,-0.964844,0.298828
1480535290545471,-0.217773,-0.956543,0.300781
1480535290568031,-0.220703,-0.964355,0.302734
1480535290575551,-0.228027,-0.975098,0.299805
1480535290605633,-0.231445,-0.963379,0.30127
1480535290621172,-0.224609,-0.952637,0.296387
1480535290635209,-0.22168,-0.955566,0.294922
1480535290657770,-0.227051,-0.973633,0.299316
1480535290687850,-0.23291,-0.97168,0.298828
1480535290694869,-0.218262,-0.950195,0.29541
1480535290725450,-0.215332,-0.955078,0.298828
1480535290740494,-0.227051,-0.966797,0.294434
1480535290776084,-0.233887,-0.968262,0.304688
1480535290787619,-0.230957,-0.963379,0.300781
1480535290808169,-0.220703,-0.946777,0.295898
1480535290823712,-0.217773,-0.962402,0.302734
1480535290846271,-0.224121,-0.975098,0.305176
1480535290860308,-0.226563,-0.966309,0.296387
1480535290882870,-0.220703,-0.954102,0.296875
1480535290897909,-0.221191,-0.960938,0.302246
1480535290927988,-0.229004,-0.974609,0.30127
1480535290934506,-0.229492,-0.966797,0.302734
1480535290972607,-0.213867,-0.959473,0.296387
1480535290981631,-0.217285,-0.958984,0.296387
1480535291018228,-0.229492,-0.969238,0.295898
1480535291021739,-0.237305,-0.970703,0.303711
1480535291064351,-0.217285,-0.951172,0.306152
1480535291068863,-0.223145,-0.94873,0.301758
1480535291085408,-0.233398,-0.969727,0.29541
1480535291100948,-0.23291,-0.980469,0.301758
1480535291123013,-0.226074,-0.964355,0.302246
1480535291138048,-0.214844,-0.955566,0.298828
1480535291161108,-0.224609,-0.956543,0.29541
1480535291181164,-0.239258,-0.970215,0.295898
1480535291204225,-0.229492,-0.97168,0.300293
1480535291220266,-0.223145,-0.958496,0.296875
1480535291259872,-0.223145,-0.958984,0.299316
1480535291264384,-0.233887,-0.969727,0.290527
1480535291295967,-0.236328,-0.968262,0.30127
1480535291301482,-0.22168,-0.950684,0.298828
1480535291318527,-0.219238,-0.95459,0.29541
1480535291340586,-0.235352,-0.970215,0.294434
1480535291364149,-0.23291,-0.97168,0.293945
1480535291378186,-0.225098,-0.960449,0.293945
1480535291400245,-0.220703,-0.95459,0.297363
1480535291421300,-0.230469,-0.964355,0.297363
1480535291444863,-0.234863,-0.974609,0.292969
1480535291460404,-0.230957,-0.961426,0.29541
1480535291483466,-0.22168,-0.949707,0.29248
1480535291499008,-0.221191,-0.961914,0.293945
1480535291535605,-0.23584,-0.975098,0.291992
1480535291543627,-0.237305,-0.971191,0.295898
1480535291564181,-0.224121,-0.950195,0.288574
1480535291580223,-0.219727,-0.952148,0.296875
1480535291619328,-0.230957,-0.964844,0.290527
1480535291624341,-0.23291,-0.973145,0.291992
1480535291641889,-0.227539,-0.967285,0.294922
1480535291662944,-0.223145,-0.958496,0.296875
1480535291684000,-0.23291,-0.969727,0.294434
1480535291700544,-0.23877,-0.974609,0.293945
1480535291724106,-0.228516,-0.958008,0.30127
1480535291737141,-0.228516,-0.95166,0.292969
1480535291773739,-0.225098,-0.959473,0.29541
1480535291782762,-0.233398,-0.975586,0.29248
1480535291811338,-0.225586,-0.966797,0.298828
1480535291820362,-0.226563,-0.949707,0.292969
1480535291850442,-0.225586,-0.952148,0.287109
1480535291856959,-0.236328,-0.969727,0.287598
1480535291886538,-0.229492,-0.972168,0.29248
1480535291919125,-0.226074,-0.960449,0.291504
1480535291924138,-0.226074,-0.955566,0.296387
1480535291940683,-0.226563,-0.971191,0.29541
1480535291962741,-0.230957,-0.975098,0.296875
1480535291991316,-0.224609,-0.962891,0.29834
1480535292000340,-0.228516,-0.947266,0.29541
1480535292038443,-0.229492,-0.964844,0.291504
1480535292052981,-0.226563,-0.976563,0.289551
1480535292060500,-0.226563,-0.963867,0.286621
1480535292083060,-0.221191,-0.950195,0.294922
1480535292111637,-0.227051,-0.960938,0.285156
1480535292120160,-0.22998,-0.976074,0.293457
1480535292158260,-0.230469,-0.970215,0.290039
1480535292164277,-0.228027,-0.956543,0.296875
1480535292204384,-0.222168,-0.958008,0.286621
1480535292208895,-0.230957,-0.973633,0.295898
1480535292240984,-0.22998,-0.974121,0.294922
1480535292243487,-0.229004,-0.953125,0.29541
1480535292270560,-0.224121,-0.955078,0.300293
1480535292284096,-0.230469,-0.967285,0.298828
1480535292313674,-0.231445,-0.971191,0.300293
1480535292329216,-0.230469,-0.959473,0.289063
1480535292351776,-0.220215,-0.957031,0.291992
1480535292361803,-0.223145,-0.969727,0.290527
1480535292390378,-0.229004,-0.979004,0.289063
1480535292405419,-0.234863,-0.964355,0.290039
1480535292428480,-0.228027,-0.947266,0.291992
1480535292443019,-0.217285,-0.953125,0.294922
1480535292472829,-0.231934,-0.971191,0.296387
1480535292481120,-0.229492,-0.97168,0.291504
1480535292510197,-0.222168,-0.95166,0.30127
1480535292525237,-0.220215,-0.952148,0.291504
1480535292555317,-0.231445,-0.969238,0.297852
1480535292562837,-0.23877,-0.970215,0.291504
1480535292600938,-0.22998,-0.960449,0.300293
1480535292606453,-0.218262,-0.957031,0.295898
1480535292646058,-0.22998,-0.97168,0.293945
1480535292648565,-0.232422,-0.979492,0.298828
1480535292667615,-0.226074,-0.964355,0.295898
1480535292682656,-0.224121,-0.95166,0.293457
1480535292707223,-0.229492,-0.961426,0.291992
1480535292719754,-0.225098,-0.973633,0.300781
1480535292757856,-0.228516,-0.968262,0.29541
1480535292765377,-0.236328,-0.949219,0.29541
1480535292787935,-0.227051,-0.957031,0.292969
1480535292803478,-0.223633,-0.978027,0.291504
1480535292843082,-0.223633,-0.971191,0.287109
1480535292846591,-0.231445,-0.948242,0.296387
1480535292886698,-0.226563,-0.950684,0.291504
1480535292908256,-0.230957,-0.973633,0.300293
1480535292910764,-0.229004,-0.978027,0.297363
1480535292924299,-0.22998,-0.960449,0.298828
1480535292945856,-0.225586,-0.953125,0.291992
1480535292966411,-0.225586,-0.964355,0.294434
1480535292983456,-0.229492,-0.977539,0.296875
1480535293005515,-0.232422,-0.965332,0.298828
1480535293035594,-0.231445,-0.949707,0.299805
1480535293043115,-0.228027,-0.955566,0.289551
1480535293065674,-0.225586,-0.974609,0.292969
1480535293087232,-0.224121,-0.977539,0.294434
1480535293108790,-0.218262,-0.962891,0.286133
1480535293125835,-0.219727,-0.959961,0.297363
1480535293165944,-0.245605,-0.976563,0.293457
1480535293185995,-0.240234,-0.970703,0.300293
1480535293193013,-0.217773,-0.953613,0.297852
1480535293206678,-0.214355,-0.947266,0.293945
1480535293223097,-0.229004,-0.96875,0.294434
1480535293245152,-0.232422,-0.974609,0.298828
1480535293266208,-0.227539,-0.966797,0.29248
1480535293282752,-0.222168,-0.950684,0.291504
1480535293313333,-0.225586,-0.952637,0.287109
1480535293326368,-0.226563,-0.973633,0.291992
1480535293356450,-0.226074,-0.96875,0.296387
1480535293365472,-0.223633,-0.953125,0.29834
1480535293398059,-0.221191,-0.955078,0.297363
1480535293403072,-0.232422,-0.968262,0.300293
1480535293433152,-0.233398,-0.97168,0.30127
1480535293462730,-0.226563,-0.953613,0.308594
1480535293471755,-0.221191,-0.950684,0.297363
1480535293486295,-0.225586,-0.970215,0.298828
1480535293508352,-0.231445,-0.980957,0.293457
1480535293522391,-0.223633,-0.964355,0.291504
1480535293546955,-0.216309,-0.952148,0.30127
1480535293582549,-0.228027,-0.963379,0.296387
1480535293585056,-0.229492,-0.975098,0.296387
1480535293605611,-0.227051,-0.959961,0.299805
1480535293635691,-0.224609,-0.952148,0.297363
1480535293643211,-0.228516,-0.959961,0.297852
1480535293676300,-0.226074,-0.975098,0.296387
1480535293703873,-0.223633,-0.969727,0.293945
1480535293709387,-0.216797,-0.953613,0.291992
1480535293725429,-0.219727,-0.95752,0.293457
1480535293747990,-0.226074,-0.965332,0.295898
1480535293763030,-0.230957,-0.971191,0.291016
1480535293786091,-0.217285,-0.958496,0.293457
1480535293817674,-0.219238,-0.946289,0.293945
1480535293822188,-0.229004,-0.958008,0.29541
1480535293845249,-0.229004,-0.975098,0.300781
1480535293875329,-0.23291,-0.958496,0.300293
1480535293896384,-0.228516,-0.95459,0.296875
1480535293912928,-0.229492,-0.975586,0.299805
1480535293936492,-0.23291,-0.98291,0.302246
1480535293950528,-0.229004,-0.970215,0.308105
1480535293980107,-0.226074,-0.961426,0.301758
1480535293988128,-0.220215,-0.952637,0.296875
1480535294017707,-0.228027,-0.969727,0.297363
1480535294025227,-0.227539,-0.969238,0.290039
1480535294055809,-0.220215,-0.949707,0.28418
1480535294068843,-0.21875,-0.953613,0.289551
1480535294092907,-0.225586,-0.969727,0.289551
1480535294107947,-0.224609,-0.967773,0.297852
1480535294136022,-0.226563,-0.949219,0.299316
1480535294153067,-0.226563,-0.946777,0.297852
1480535294191671,-0.228027,-0.96875,0.294922
1480535294196182,-0.233398,-0.976563,0.30127
1480535294230283,-0.230957,-0.966309,0.298828
1480535294233782,-0.223633,-0.953125,0.301758
1480535294257846,-0.228027,-0.959473,0.302734
1480535294265366,-0.230469,-0.976074,0.30127
1480535294302966,-0.222656,-0.97168,0.30127
1480535294310486,-0.220215,-0.94873,0.29541
1480535294333547,-0.219238,-0.955078,0.299316
1480535294350091,-0.227539,-0.977051,0.29248
1480535294370647,-0.228027,-0.969238,0.292969
1480535294385185,-0.220703,-0.954102,0.292969
1480535294432309,-0.222656,-0.949707,0.291504
1480535294436320,-0.225098,-0.96582,0.292969
1480535294468406,-0.23291,-0.971191,0.293457
1480535294470914,-0.224121,-0.969727,0.29834
1480535294498486,-0.220215,-0.960938,0.291992
1480535294504502,-0.224121,-0.962402,0.291992
1480535294529067,-0.233398,-0.972656,0.296875
1480535294557644,-0.235352,-0.968262,0.299805
1480535294573264,-0.220215,-0.950684,0.297363
1480535294587723,-0.217773,-0.955078,0.296387
1480535294610785,-0.230469,-0.972656,0.297363
1480535294624822,-0.228027,-0.967285,0.293945
1480535294649889,-0.226074,-0.953125,0.295898
1480535294670444,-0.221191,-0.95459,0.294922
1480535294701025,-0.228516,-0.965332,0.285645
1480535294703532,-0.233887,-0.975586,0.300293
1480535294729601,-0.222656,-0.962402,0.293457
1480535294744139,-0.22168,-0.955566,0.293945
1480535294752161,-0.219727,-0.96582,0.29834
1480535294773221,-0.23584,-0.98291,0.303711
1480535294811318,-0.231934,-0.970215,0.300781
1480535294829867,-0.224121,-0.945801,0.297852
1480535294834881,-0.222656,-0.960938,0.300293
1480535294855939,-0.228516,-0.975098,0.299316
1480535294873984,-0.228027,-0.96582,0.295898
1480535294893035,-0.223633,-0.953125,0.293457
1480535294923115,-0.223633,-0.958496,0.304199
1480535294950187,-0.230957,-0.976074,0.319336
1480535294954700,-0.23584,-0.987793,0.344238
1480535294976257,-0.267578,-0.948242,0.280273
1480535295006840,-0.258301,-0.914063,0.25
1480535295022382,-0.237305,-0.979004,0.287598
1480535295059979,-0.246582,-1.02686,0.273438
1480535295062486,-0.246582,-0.983398,0.282715
1480535295090060,-0.224609,-0.941895,0.298828
1480535295103094,-0.219727,-0.986328,0.289063
1480535295142700,-0.265137,-1.00293,0.263184
1480535295145206,-0.284668,-0.984863,0.255371
1480535295163254,-0.255371,-0.930176,0.227539
1480535295178294,-0.222656,-0.946289,0.240723
1480535295200854,-0.219727,-1.0249,0.274902
1480535295218401,-0.231445,-1.02051,0.276367
1480535295246977,-0.213379,-0.956543,0.284668
1480535295260513,-0.225098,-0.944824,0.287598
1480535295275552,-0.228027,-0.945801,0.286621
1480535295298114,-0.224121,-0.974121,0.294434
1480535295322178,-0.199707,-0.94873,0.308105
1480535295335712,-0.179199,-0.932617,0.305664
1480535295358274,-0.208984,-0.910645,0.303711
1480535295382337,-0.208008,-0.910156,0.313965
1480535295395873,-0.165527,-0.951172,0.317871
1480535295426956,-0.155762,-0.94873,0.308105
1480535295448512,-0.185059,-0.932129,0.320801
1480535295458539,-0.23877,-0.942383,0.314941
1480535295496641,-0.254883,-0.964355,0.306152
1480535295501655,-0.252441,-0.946777,0.308105
1480535295515692,-0.255371,-0.955566,0.297363
1480535295541260,-0.287109,-1.00635,0.265137
1480535295562316,-0.26123,-0.995117,0.255371
1480535295583372,-0.231445,-0.960938,0.272949
1480535295606043,-0.262695,-0.970703,0.256348
1480535295617964,-0.252441,-1.00537,0.258301
1480535295643030,-0.257324,-0.973145,0.279785
1480535295659575,-0.248535,-0.924316,0.289063
1480535295680631,-0.245117,-0.922852,0.305176
1480535295697174,-0.246094,-0.946777,0.301758
1480535295721239,-0.246582,-0.963379,0.311523
1480535295736279,-0.244629,-0.955078,0.321289
1480535295757335,-0.237305,-0.949219,0.327148
1480535295778390,-0.230469,-0.962402,0.330566
1480535295795436,-0.230957,-0.97998,0.324219
1480535295815990,-0.242188,-0.962402,0.316406
1480535295841057,-0.232422,-0.943848,0.309082
1480535295855094,-0.229004,-0.939941,0.303711
1480535295883171,-0.233398,-0.970703,0.297363
1480535295898209,-0.232422,-0.979492,0.296387
1480535295914753,-0.236328,-0.965332,0.291504
1480535295937314,-0.239746,-0.947754,0.293457
1480535295959873,-0.242188,-0.956055,0.300781
1480535295974913,-0.239746,-0.972656,0.297852
1480535296004492,-0.234863,-0.961914,0.305664
1480535296018027,-0.229004,-0.949707,0.310547
1480535296048609,-0.236816,-0.95752,0.310547
1480535296058635,-0.244629,-0.967773,0.312012
1480535296095233,-0.243164,-0.966797,0.303711
1480535296097740,-0.234375,-0.952637,0.299805
1480535296123308,-0.227539,-0.955078,0.297363
1480535296138349,-0.238281,-0.968262,0.291992
1480535296156395,-0.239258,-0.972656,0.294922
1480535296175948,-0.230957,-0.955566,0.30127
1480535296216555,-0.233398,-0.956543,0.294434
1480535296220568,-0.243164,-0.967773,0.289551
1480535296238615,-0.239746,-0.969238,0.297363
1480535296258667,-0.233887,-0.954102,0.297852
1480535296276215,-0.228027,-0.950684,0.296875
1480535296295766,-0.23877,-0.963379,0.297363
1480535296325846,-0.252441,-0.970215,0.294922
1480535296336376,-0.246094,-0.961914,0.300293
1480535296373988,-0.237305,-0.948242,0.300781
1480535296379991,-0.240723,-0.955566,0.294922
1480535296409569,-0.240234,-0.963867,0.301758
1480535296415585,-0.236328,-0.964355,0.310059
1480535296438146,-0.239258,-0.949707,0.298828
1480535296468727,-0.23877,-0.952637,0.303711
1480535296492290,-0.243652,-0.964355,0.303711
1480535296498305,-0.242188,-0.970215,0.304688
1480535296532898,-0.239258,-0.952637,0.306641
1480535296537410,-0.236816,-0.941406,0.301758
1480535296557964,-0.244141,-0.95459,0.299316
1480535296590049,-0.244629,-0.974121,0.302734
1480535296595564,-0.240723,-0.964355,0.290039
1480535296618124,-0.233887,-0.94873,0.291016
1480535296649708,-0.240723,-0.955566,0.288574
1480535296655725,-0.248535,-0.97168,0.294434
1480535296679794,-0.252441,-0.965332,0.297363
1480535296700850,-0.241699,-0.952637,0.290527
1480535296715890,-0.234375,-0.954102,0.291504
1480535296738450,-0.241699,-0.968262,0.299805
1480535296769533,-0.241211,-0.96875,0.303711
1480535296777053,-0.242188,-0.954102,0.298828
1480535296810163,-0.239746,-0.94873,0.291992
1480535296829191,-0.24707,-0.964844,0.298828
1480535296844732,-0.245117,-0.976074,0.29541
1480535296865788,-0.239746,-0.960449,0.286133
1480535296888854,-0.241699,-0.949707,0.288086
1480535296897372,-0.242188,-0.956055,0.295898
1480535296925948,-0.245117,-0.971191,0.293457
1480535296949010,-0.240723,-0.958984,0.298828
1480535296957031,-0.23877,-0.944824,0.294434
1480535296985607,-0.242676,-0.95752,0.29541
1480535297000647,-0.248535,-0.968262,0.294434
1480535297017191,-0.242676,-0.973145,0.291992
1480535297055293,-0.241211,-0.949219,0.297852
1480535297068828,-0.234375,-0.954102,0.297363
1480535297078855,-0.244141,-0.966797,0.300293
1480535297105928,-0.245605,-0.966797,0.296387
1480535297120967,-0.244141,-0.950684,0.297363
1480535297143026,-0.240234,-0.947266,0.29248
1480535297158065,-0.240234,-0.967773,0.291992
1480535297188148,-0.238281,-0.974121,0.298828
1480535297206195,-0.242676,-0.963867,0.288086
1480535297226748,-0.240234,-0.950684,0.298828
1480535297240788,-0.236328,-0.959473,0.293457
1480535297274876,-0.242188,-0.969238,0.296875
1480535297279890,-0.244629,-0.960938,0.296875
1480535297301447,-0.240723,-0.949707,0.289063
1480535297318493,-0.235352,-0.956543,0.296387
1480535297345564,-0.236816,-0.97998,0.292969
1480535297360604,-0.240234,-0.967285,0.293457
1480535297386173,-0.243652,-0.95166,0.290527
1480535297398204,-0.246094,-0.950195,0.291992
1480535297422272,-0.241699,-0.963867,0.288574
1480535297443324,-0.240723,-0.968262,0.293945
1480535297465885,-0.240234,-0.956055,0.294922
1480535297481928,-0.239258,-0.95166,0.293945
1480535297515517,-0.237793,-0.969238,0.29248
1480535297519528,-0.244141,-0.977051,0.29248
1480535297542089,-0.235352,-0.956055,0.294922
1480535297564647,-0.240723,-0.946777,0.296387
1480535297578183,-0.237305,-0.956543,0.29834
1480535297603250,-0.235352,-0.976563,0.295898
1480535297626311,-0.242188,-0.966797,0.293457
1480535297638345,-0.237793,-0.944336,0.297363
1480535297663410,-0.236328,-0.947266,0.300781
1480535297678450,-0.234863,-0.966797,0.299316
1480535297716050,-0.241699,-0.972656,0.296875
1480535297720564,-0.238281,-0.949219,0.296387
1480535297739617,-0.234375,-0.944824,0.29834
1480535297788745,-0.236816,-0.962402,0.298828
1480535297799773,-0.247559,-0.975098,0.299316
1480535297829351,-0.241699,-0.958496,0.295898
1480535297834365,-0.23291,-0.948242,0.300293
1480535297840882,-0.237305,-0.95752,0.297363
1480535297859431,-0.243164,-0.970215,0.294434
1480535297879485,-0.244141,-0.970215,0.300781
1480535297903550,-0.241211,-0.957031,0.298828
1480535297920595,-0.231445,-0.961914,0.300293
1480535297954685,-0.248047,-0.970703,0.295898
1480535297960701,-0.239746,-0.971191,0.306641
1480535297994293,-0.227539,-0.946289,0.299316
1480535297999805,-0.235352,-0.945313,0.304199
1480535298022366,-0.239258,-0.967773,0.29541
1480535298043421,-0.237305,-0.969727,0.29248
1480535298084029,-0.232422,-0.958008,0.290039
1480535298097064,-0.236328,-0.953125,0.289063
1480535298103080,-0.236328,-0.961914,0.285645
1480535298121129,-0.244141,-0.961914,0.292969
1480535298140680,-0.243164,-0.958984,0.290527
1480535298163239,-0.237793,-0.946777,0.299805
1480535298181789,-0.220703,-0.95752,0.304199
1480535298200839,-0.229004,-0.96875,0.308594
1480535298240446,-0.243652,-0.963867,0.30957
1480535298242453,-0.243164,-0.936523,0.302246
1480535298260499,-0.233887,-0.945313,0.313965
1480535298298599,-0.240723,-0.96582,0.315918
1480535298317650,-0.26123,-0.974609,0.301758
1480535298322163,-0.268066,-0.949219,0.263184
1480535298350746,-0.239258,-0.956543,0.279785
1480535298361267,-0.208984,-0.972656,0.28125
1480535298388339,-0.202637,-0.958984,0.304688
1480535298403379,-0.229492,-0.946777,0.311523
1480535298437470,-0.24707,-0.946777,0.303223
1480535298442487,-0.230469,-0.958496,0.309082
1480535298468552,-0.232422,-0.970215,0.310547
1480535298482088,-0.245605,-0.968262,0.31543
1480535298511165,-0.243652,-0.949219,0.302734
1480535298530717,-0.241211,-0.956543,0.299805
1480535298541246,-0.23877,-0.961914,0.293945
1480535298577345,-0.234863,-0.960449,0.302734
1480535298583357,-0.231445,-0.944824,0.300293
1480535298631485,-0.231934,-0.950195,0.29541
1480535298637502,-0.242188,-0.962402,0.30127
1480535298652040,-0.244141,-0.973633,0.304199
1480535298661064,-0.239258,-0.958496,0.300781
1480535298705683,-0.226074,-0.949707,0.311523
1480535298710696,-0.233887,-0.953613,0.305664
1480535298733757,-0.24707,-0.962891,0.317871
1480535298742282,-0.246094,-0.950684,0.304688
1480535298770856,-0.228516,-0.940918,0.307617
1480535298787400,-0.229492,-0.961426,0.303223
1480535298808458,-0.230957,-0.975098,0.297852
1480535298827006,-0.236816,-0.97168,0.304688
1480535298841043,-0.248047,-0.946777,0.30127
1480535298864104,-0.246094,-0.947266,0.297363
1480535298890677,-0.239258,-0.966797,0.30127
1480535298901202,-0.241699,-0.97168,0.30957
1480535298930281,-0.234375,-0.946777,0.304688
1480535298943314,-0.23291,-0.938965,0.300781
1480535298962384,-0.238281,-0.955078,0.304199
1480535298995954,-0.244629,-0.96875,0.303223
1480535299013502,-0.244629,-0.95459,0.308105
1480535299026039,-0.235352,-0.943359,0.313965
1480535299051101,-0.239746,-0.95459,0.30127
1480535299063134,-0.23877,-0.967285,0.312988
1480535299111763,-0.245117,-0.96875,0.306641
1480535299116274,-0.245117,-0.947754,0.310059
1480535299133821,-0.237793,-0.951172,0.304199
1480535299178440,-0.240723,-0.96582,0.30127
1480535299180947,-0.243164,-0.965332,0.308594
1480535299185960,-0.242188,-0.948242,0.303223
1480535299214536,-0.241699,-0.948242,0.304688
1480535299223561,-0.238281,-0.966309,0.300293
1480535299250633,-0.242188,-0.970215,0.307617
1480535299261160,-0.243652,-0.955078,0.304199
1480535299299763,-0.231445,-0.951172,0.296387
1480535299305277,-0.241211,-0.958496,0.298828
1480535299336360,-0.243164,-0.971191,0.307129
1480535299343881,-0.237305,-0.95752,0.302734
1480535299389000,-0.235352,-0.947754,0.305664
1480535299393012,-0.237793,-0.95459,0.308105
1480535299427603,-0.241699,-0.969727,0.303223
1480535299447657,-0.243164,-0.96582,0.311523
1480535299450163,-0.238281,-0.944336,0.306641
1480535299464200,-0.239258,-0.946289,0.306152
1480535299499795,-0.238281,-0.967773,0.306641
1480535299505811,-0.244629,-0.968262,0.302734
1480535299531381,-0.239258,-0.949707,0.305664
1480535299543414,-0.231934,-0.943359,0.304199
1480535299573691,-0.237305,-0.969238,0.29834
1480535299585022,-0.236328,-0.974609,0.303711
1480535299606174,-0.243652,-0.956055,0.306152
1480535299628637,-0.248047,-0.937988,0.304688
1480535299659721,-0.237793,-0.94873,0.303223
1480535299664734,-0.23877,-0.969238,0.306641
1480535299704841,-0.238281,-0.967773,0.299805
1480535299741439,-0.227051,-0.947266,0.304199
1480535299747955,-0.23584,-0.950195,0.306641
1480535299750964,-0.241699,-0.969238,0.304688
1480535299763997,-0.237793,-0.966309,0.306152
1480535299792076,-0.233887,-0.949219,0.305176
1480535299808619,-0.234375,-0.949219,0.307129
1480535299823657,-0.236328,-0.967773,0.308105
1480535299846718,-0.236328,-0.973633,0.308105
1480535299865768,-0.235352,-0.952637,0.303223
1480535299884336,-0.236816,-0.938965,0.301758
1480535299920414,-0.235352,-0.95166,0.300781
1480535299944980,-0.240234,-0.966797,0.302246
1480535299948490,-0.243652,-0.960938,0.296875
1480535299983081,-0.235352,-0.949707,0.302246
1480535300002633,-0.22998,-0.956543,0.29834
1480535300008148,-0.237793,-0.967773,0.303223
1480535300026196,-0.239258,-0.962402,0.308594
1480535300049260,-0.238281,-0.942871,0.310547
1480535300063795,-0.236816,-0.949219,0.314941
1480535300086355,-0.244141,-0.968262,0.312012
1480535300105907,-0.239746,-0.970703,0.309082
1480535300129469,-0.239746,-0.952637,0.310059
1480535300146014,-0.232422,-0.950195,0.30957
1480535300168574,-0.237305,-0.962891,0.304199
1480535300185118,-0.248047,-0.975586,0.302246
1480535300222216,-0.232422,-0.956543,0.302734
1480535300227733,-0.235352,-0.943359,0.299805
1480535300280873,-0.240234,-0.950195,0.302246
1480535300283379,-0.239746,-0.973145,0.294922
1480535300288895,-0.239258,-0.968262,0.305664
1480535300325495,-0.232422,-0.950195,0.30127
1480535300327498,-0.241699,-0.946289,0.29834
1480535300362590,-0.244141,-0.960938,0.303711
1480535300365099,-0.242188,-0.961426,0.298828
1480535300399688,-0.233887,-0.949707,0.299316
1480535300406207,-0.233398,-0.949707,0.299316
1480535300423753,-0.244141,-0.963379,0.30127
1480535300446313,-0.240723,-0.963379,0.308594
1480535300489929,-0.233887,-0.953613,0.300293
1480535300495443,-0.23877,-0.946289,0.305176
1480535300506974,-0.244629,-0.959961,0.300781
1480535300537055,-0.248047,-0.974609,0.29541
1480535300544073,-0.234375,-0.962402,0.302246
1480535300566131,-0.240234,-0.944336,0.307617
1480535300595208,-0.239746,-0.949707,0.29834
1480535300611753,-0.245117,-0.967285,0.304199
1480535300638826,-0.248047,-0.965332,0.303711
1480535300647347,-0.243652,-0.944824,0.294922
1480535300663390,-0.231934,-0.94873,0.296387
1480535300686953,-0.23877,-0.967285,0.300293
1480535300716532,-0.245605,-0.966309,0.297852
1480535300723551,-0.236816,-0.956543,0.296387
1480535300760147,-0.23291,-0.947754,0.297852
1480535300776190,-0.238281,-0.960449,0.300781
1480535300821812,-0.243164,-0.972168,0.299316
1480535300834846,-0.243164,-0.955566,0.302246
1480535300844371,-0.241211,-0.946289,0.300293
1480535300848381,-0.240723,-0.958008,0.305176
1480535300873966,-0.242676,-0.969727,0.306152
1480535300887003,-0.242676,-0.967773,0.29834
1480535300917082,-0.236328,-0.945801,0.307617
1480535300927110,-0.239746,-0.953613,0.300293
1480535300956188,-0.248535,-0.961914,0.29834
1480535300971728,-0.242188,-0.966797,0.299316
1480535301009833,-0.242188,-0.945801,0.303711
1480535301037404,-0.236328,-0.956055,0.293457
1480535301054949,-0.230957,-0.974609,0.29248
1480535301059461,-0.241699,-0.970703,0.299805
1480535301084027,-0.245605,-0.955078,0.304199
1480535301089042,-0.242188,-0.942871,0.298828
1480535301121125,-0.238281,-0.956055,0.299805
1480535301127642,-0.241211,-0.969238,0.300781
1480535301153214,-0.244141,-0.958496,0.302246
1480535301166746,-0.236816,-0.947266,0.300781
1480535301196325,-0.242188,-0.950195,0.300293
1480535301208357,-0.242188,-0.971191,0.300781
1480535301249968,-0.242676,-0.966309,0.300293
1480535301263504,-0.242188,-0.951172,0.305176
1480535301287567,-0.238281,-0.950195,0.302734
1480535301292081,-0.241699,-0.967285,0.301758
1480535301332688,-0.239746,-0.97168,0.306152
1480535301352740,-0.242188,-0.950684,0.305664
1480535301357255,-0.236816,-0.946777,0.300293
1480535301390341,-0.241699,-0.956055,0.30127
1480535301392847,-0.243652,-0.96875,0.303223
1480535301406384,-0.240723,-0.962891,0.299805
1480535301428943,-0.239258,-0.953125,0.295898
1480535301447994,-0.240234,-0.953613,0.304199
1480535301473063,-0.24707,-0.97168,0.296387
1480535301487600,-0.237305,-0.968262,0.30127
1480535301517680,-0.240723,-0.947266,0.302246
1480535301527204,-0.23877,-0.954102,0.303223
1480535301563302,-0.239746,-0.964355,0.309082
1480535301568816,-0.242188,-0.967285,0.304199
1480535301585862,-0.241699,-0.952148,0.30127
1480535301607921,-0.23584,-0.950195,0.304199
1480535301630480,-0.237793,-0.966797,0.297852
1480535301645520,-0.244141,-0.971191,0.303223
1480535301676603,-0.244629,-0.960938,0.302246
1480535301689157,-0.23877,-0.942383,0.29834
1480535301705682,-0.23877,-0.952637,0.300293
1480535301727738,-0.243164,-0.97998,0.293457
1480535301750299,-0.237305,-0.974609,0.302246
1480535301794418,-0.232422,-0.946777,0.297852
1480535301804944,-0.23877,-0.95166,0.299316
1480535301810459,-0.246582,-0.966797,0.306641
1480535301841040,-0.249023,-0.964844,0.306641
1480535301847557,-0.234863,-0.95459,0.307617
1480535301868614,-0.239746,-0.950195,0.305664
1480535301891176,-0.249512,-0.969238,0.306641
1480535301907717,-0.224609,-0.961914,0.296875
1480535301930277,-0.228027,-0.945313,0.308594
1480535301945317,-0.229492,-0.951172,0.300781
1480535301967877,-0.240234,-0.95459,0.303223
1480535301990437,-0.258789,-0.971191,0.305664
1480535302006156,-0.253906,-0.961426,0.307617
1480535302042576,-0.230469,-0.957031,0.305176
1480535302051099,-0.22168,-0.958496,0.300781
1480535302080176,-0.234863,-0.969727,0.300293
1480535302087697,-0.242188,-0.960938,0.307129
1480535302110257,-0.23584,-0.94873,0.294434
1480535302124795,-0.231445,-0.953125,0.299316
1480535302149360,-0.23584,-0.975098,0.29541
1480535302176433,-0.23584,-0.967773,0.296387
1480535302191472,-0.234375,-0.947754,0.301758
1480535302208019,-0.228516,-0.947266,0.297852
1480535302230075,-0.239746,-0.960449,0.304688
1480535302244614,-0.240234,-0.969727,0.304199
1480535302268678,-0.239258,-0.955078,0.307129
1480535302290234,-0.231445,-0.946777,0.307129
1480535302306280,-0.229004,-0.960938,0.309082
1480535302327834,-0.240234,-0.973633,0.303223
1480535302351899,-0.241699,-0.964844,0.303223
1480535302378971,-0.231445,-0.946777,0.302246
1480535302395515,-0.23291,-0.944336,0.299316
1480535302417573,-0.241211,-0.964355,0.304199
1480535302431611,-0.234375,-0.970215,0.300293
1480535302461190,-0.226563,-0.954102,0.296387
1480535302470214,-0.231934,-0.952637,0.303711
1480535302498790,-0.244141,-0.966309,0.300293
1480535302513829,-0.24707,-0.96875,0.310059
1480535302538397,-0.239746,-0.950684,0.308105
1480535302554438,-0.233398,-0.947266,0.303223
1480535302581509,-0.232422,-0.959473,0.308105
1480535302598555,-0.236816,-0.967773,0.316895
1480535302619113,-0.235352,-0.954102,0.307129
1480535302633651,-0.232422,-0.942871,0.303223
1480535302658715,-0.236816,-0.952148,0.298828
1480535302672755,-0.242676,-0.977051,0.303711
1480535302703836,-0.240234,-0.969727,0.303711
1480535302710352,-0.234375,-0.953125,0.302246
1480535302738929,-0.239258,-0.949219,0.304688
1480535302747952,-0.248535,-0.964355,0.30957
1480535302776528,-0.245117,-0.963867,0.310547
1480535302791568,-0.243164,-0.94873,0.3125
1480535302831676,-0.242188,-0.944824,0.304199
1480535302836188,-0.231445,-0.964844,0.303223
1480535302876795,-0.23584,-0.95752,0.300293
1480535302881808,-0.241211,-0.952637,0.292969
1480535302921414,-0.236816,-0.951172,0.294922
1480535302935953,-0.237305,-0.972656,0.292969
1480535302938462,-0.246582,-0.972656,0.291504
1480535302950491,-0.239746,-0.964355,0.293945
1480535302981072,-0.23584,-0.934082,0.302246
1480535302993605,-0.233398,-0.949219,0.304199
1480535303026192,-0.244629,-0.96875,0.303223
1480535303034215,-0.249512,-0.97168,0.295898
1480535303055270,-0.23584,-0.959473,0.299805
1480535303070311,-0.235352,-0.952637,0.299805
1480535303094374,-0.231934,-0.961426,0.294922
1480535303106908,-0.251953,-0.967285,0.293457
1480535303151025,-0.24707,-0.963867,0.290527
1480535303161553,-0.247559,-0.947754,0.286621
1480535303175093,-0.259766,-0.980957,0.291016
1480535303191131,-0.264648,-0.970703,0.258301
1480535303212689,-0.242676,-0.964355,0.269043
1480535303233745,-0.212891,-0.935059,0.288086
1480535303251793,-0.195313,-0.939941,0.302246
1480535303272850,-0.213379,-0.956055,0.318359
1480535303303932,-0.251953,-0.967773,0.316895
1480535303311451,-0.233398,-0.956055,0.321777
1480535303347547,-0.220215,-0.960449,0.319336
1480535303354066,-0.249512,-0.971191,0.324707
1480535303383658,-0.266602,-0.964844,0.30127
1480535303392667,-0.258789,-0.935547,0.306152
1480535303422747,-0.245117,-0.953613,0.297852
1480535303430268,-0.238281,-0.974121,0.286133
1480535303460347,-0.245117,-0.971191,0.282227
1480535303474388,-0.23877,-0.946777,0.298828
1480535303490428,-0.22998,-0.933105,0.290527
1480535303512987,-0.234863,-0.95459,0.296875
1480535303535547,-0.240723,-0.975098,0.296875
1480535303550086,-0.235352,-0.960938,0.304199
1480535303572963,-0.234863,-0.940918,0.313477
1480535303593702,-0.241699,-0.946777,0.306641
1480535303610250,-0.242676,-0.972656,0.303711
1480535303633307,-0.240234,-0.970703,0.306152
1480535303664390,-0.233887,-0.950684,0.306641
1480535303670409,-0.239258,-0.9375,0.306641
1480535303692969,-0.240234,-0.962891,0.306152
1480535303714026,-0.243164,-0.975586,0.302734
1480535303745105,-0.242188,-0.95166,0.305664
1480535303752628,-0.231934,-0.937988,0.313965
1480535303775188,-0.236328,-0.957031,0.3125
1480535303790226,-0.248047,-0.976074,0.30957
1480535303812785,-0.25,-0.961426,0.306152
1480535303835846,-0.241211,-0.943848,0.302734
1480535303851889,-0.237305,-0.947266,0.301758
1480535303872945,-0.239746,-0.96875,0.304199
1480535303902022,-0.242676,-0.961426,0.30127
1480535303910545,-0.234375,-0.945313,0.29834
1480535303941628,-0.22998,-0.94873,0.305176
1480535303963686,-0.240234,-0.969727,0.303223
1480535303971708,-0.246094,-0.970215,0.310059
1480535304000284,-0.243652,-0.947266,0.305664
1480535304015324,-0.243652,-0.942871,0.309082
1480535304029862,-0.248535,-0.963867,0.310059
1480535304052924,-0.250488,-0.96875,0.310547
1480535304098043,-0.236328,-0.958984,0.310547
1480535304100551,-0.237305,-0.948242,0.311523
1480535304143163,-0.239746,-0.961426,0.307617
1480535304145671,-0.245605,-0.971191,0.310059
1480535304163719,-0.253906,-0.956055,0.307129
1480535304181769,-0.242188,-0.945801,0.307129
1480535304210342,-0.235352,-0.953613,0.306152
1480535304212348,-0.241699,-0.972656,0.300781
1480535304240924,-0.244629,-0.961426,0.306641
1480535304255965,-0.240723,-0.948242,0.302246
1480535304278025,-0.239258,-0.950195,0.300781
1480535304293062,-0.244141,-0.966309,0.299805
1480535304322642,-0.250488,-0.969238,0.304199
1480535304336177,-0.241211,-0.94873,0.297363
1480535304361250,-0.23584,-0.952148,0.302246
1480535304375285,-0.238281,-0.957031,0.300293
1480535304403857,-0.243652,-0.963867,0.305664
1480535304412380,-0.240234,-0.955078,0.308105
1480535304459004,-0.239258,-0.943848,0.307129
1480535304464017,-0.246094,-0.954102,0.303711
1480535304480561,-0.249512,-0.96875,0.305664
1480535304495099,-0.244629,-0.966797,0.305176
1480535304517661,-0.234863,-0.948242,0.309082
1480535304532700,-0.23291,-0.948242,0.303223
1480535304562780,-0.244629,-0.967773,0.307617
1480535304576316,-0.244629,-0.963379,0.312012
1480535304592859,-0.242676,-0.95166,0.30957
1480535304615419,-0.242188,-0.947754,0.301758
1480535304638986,-0.241699,-0.959473,0.306641
1480535304660540,-0.246094,-0.962402,0.303711
1480535304698139,-0.23584,-0.95752,0.296387
1480535304702150,-0.232422,-0.953125,0.302246
1480535304712678,-0.234375,-0.956543,0.304688
1480535304736744,-0.249023,-0.957031,0.30127
1480535304774343,-0.253418,-0.94873,0.304199
1480535304778855,-0.244141,-0.945313,0.306641
1480535304795398,-0.23291,-0.952637,0.310547
1480535304818459,-0.239746,-0.971191,0.309082
1480535304832999,-0.245117,-0.971191,0.310059
1480535304855059,-0.242676,-0.946289,0.314941
1480535304877617,-0.257324,-0.939941,0.28418
1480535304892156,-0.27002,-0.963379,0.283691
1480535304928753,-0.248047,-0.989258,0.291504
1480535304937778,-0.195801,-0.966309,0.298828
1480535304966353,-0.199707,-0.929199,0.304688
1480535304975377,-0.254395,-0.97998,0.302246
1480535304998940,-0.252441,-0.972168,0.295898
1480535305011975,-0.23877,-0.937012,0.303223
1480535305035036,-0.248047,-0.94043,0.302246
1480535305057596,-0.26123,-0.967773,0.30957
1480535305078652,-0.246582,-0.977051,0.303223
1480535305095196,-0.234863,-0.961426,0.304199
1480535305117756,-0.243164,-0.941406,0.297363
1480535305133799,-0.241699,-0.945313,0.304199
1480535305154855,-0.242188,-0.965332,0.297852
1480535305177916,-0.246094,-0.967773,0.307617
1480535305200977,-0.244141,-0.949219,0.29541
1480535305216519,-0.23584,-0.944824,0.310547
1480535305238077,-0.24707,-0.956055,0.308594
1480535305258631,-0.250977,-0.968262,0.305664
1480535305288711,-0.240723,-0.958008,0.313965
1480535305297735,-0.240723,-0.947754,0.313477
1480535305327814,-0.244629,-0.95166,0.304199
1480535305335335,-0.248535,-0.971191,0.304688
1480535305357896,-0.243652,-0.961426,0.305176
1480535305379452,-0.241699,-0.945313,0.29541
1480535305395495,-0.239746,-0.942871,0.296387
1480535305417554,-0.23877,-0.956543,0.295898
1480535305438610,-0.25,-0.962891,0.293945
1480535305455153,-0.244629,-0.957031,0.291504
1480535305478716,-0.241211,-0.95459,0.301758
1480535305507292,-0.244141,-0.961914,0.312012
1480535305516818,-0.253418,-0.961426,0.30957
1480535305551910,-0.256348,-0.954102,0.311523
1480535305566449,-0.248535,-0.945801,0.303223
1480535305575975,-0.239746,-0.95459,0.296387
1480535305598033,-0.257813,-0.962891,0.294434
1480535305635132,-0.256836,-0.96582,0.289551
1480535305641149,-0.225098,-0.958984,0.303711
1480535305657693,-0.245605,-0.955566,0.302246
1480535305680253,-0.27832,-0.969238,0.274902
1480535305695292,-0.251953,-0.958984,0.270996
1480535305717853,-0.229004,-0.957031,0.288086
1480535305756455,-0.202637,-0.953613,0.296387
1480535305761468,-0.220703,-0.955566,0.310059
1480535305778013,-0.245117,-0.957031,0.310547
1480535305801575,-0.249512,-0.945801,0.314453
1480535305814609,-0.23877,-0.952637,0.311523
1480535305839177,-0.245605,-0.980957,0.313477
1480535305875773,-0.244141,-0.976563,0.310059
1480535305882793,-0.253906,-0.94873,0.303223
1480535305906354,-0.248047,-0.932617,0.298828
1480535305921895,-0.238281,-0.945313,0.29541
1480535305934428,-0.248047,-0.968262,0.29541
1480535305957489,-0.240234,-0.959473,0.29541
1480535305987070,-0.23877,-0.947266,0.300781
1480535305994588,-0.250488,-0.952637,0.297363
1480535306041714,-0.243164,-0.968262,0.305664
1480535306046225,-0.246094,-0.957031,0.309082
1480535306064274,-0.236816,-0.947754,0.306641
1480535306079313,-0.244141,-0.953125,0.31543
1480535306106666,-0.249512,-0.963379,0.311523
1480535306122929,-0.254395,-0.959961,0.312012
1480535306145490,-0.243164,-0.950684,0.308594
1480535306160529,-0.236816,-0.943359,0.309082
1480535306188604,-0.242676,-0.962891,0.305664
1480535306197628,-0.249512,-0.962402,0.305176
1480535306236231,-0.24707,-0.955078,0.308594
1480535306244754,-0.236328,-0.951172,0.307617
1480535306258791,-0.236328,-0.95752,0.30127
1480535306280348,-0.255371,-0.966797,0.302734
1480535306327473,-0.252441,-0.950195,0.304199
1480535306331484,-0.238281,-0.942383,0.310059
1480535306355047,-0.240723,-0.948242,0.306641
1480535306364072,-0.253418,-0.96875,0.305176
1480535306385127,-0.248535,-0.964355,0.314941
1480535306400167,-0.232422,-0.950195,0.312012
1480535306422728,-0.231445,-0.949219,0.306641
1480535306438772,-0.242188,-0.962891,0.311035
1480535306475368,-0.253418,-0.966797,0.305664
1480535306481383,-0.245605,-0.949707,0.308594
1480535306511463,-0.231445,-0.95166,0.300781
1480535306520489,-0.23584,-0.961426,0.302246
1480535306543047,-0.246582,-0.961914,0.300781
1480535306557586,-0.243652,-0.952148,0.311035
1480535306586163,-0.236816,-0.943848,0.312988
1480535306601202,-0.242676,-0.957031,0.303711
1480535306625266,-0.244141,-0.966797,0.308105
1480535306640306,-0.239746,-0.958008,0.30957
1480535306668883,-0.23584,-0.946777,0.309082
1480535306678412,-0.233398,-0.949707,0.307129
1480535306700466,-0.243164,-0.96582,0.312012
1480535306723527,-0.243164,-0.962402,0.303223
1480535306745586,-0.239258,-0.942871,0.305664
1480535306761128,-0.236816,-0.945801,0.306152
1480535306789202,-0.237793,-0.959961,0.306641
1480535306798727,-0.245605,-0.962402,0.30127
1480535306820292,-0.242676,-0.950684,0.302246
1480535306842844,-0.235352,-0.943848,0.302734
1480535306857385,-0.237793,-0.959961,0.302734
1480535306880445,-0.242188,-0.96582,0.305664
1480535306910525,-0.243164,-0.956543,0.304199
1480535306924061,-0.245117,-0.940918,0.304199
1480535306941005,-0.237305,-0.945801,0.302734
1480535306962663,-0.23877,-0.96875,0.308105
1480535306984220,-0.238281,-0.972656,0.301758
1480535307000263,-0.231445,-0.943359,0.303711
1480535307023325,-0.242676,-0.945801,0.303711
1480535307037362,-0.248535,-0.963379,0.301758
1480535307060423,-0.246582,-0.969238,0.308594
1480535307082984,-0.24707,-0.958984,0.311523
1480535307105042,-0.243164,-0.945313,0.307129
1480535307120585,-0.242188,-0.95752,0.305176
1480535307149159,-0.244141,-0.969727,0.305176
1480535307164199,-0.239746,-0.954102,0.307617
1480535307181746,-0.243652,-0.947266,0.300293
1480535307211826,-0.243652,-0.956543,0.307129
1480535307224359,-0.243652,-0.973145,0.307617
1480535307240403,-0.249023,-0.96582,0.303223
1480535307262965,-0.240723,-0.940918,0.298828
1480535307291538,-0.235352,-0.945801,0.301758
1480535307310088,-0.247559,-0.962891,0.306152
1480535307322620,-0.249512,-0.964844,0.305664
1480535307343676,-0.246582,-0.949219,0.306152
1480535307360222,-0.243164,-0.95166,0.307129
1480535307384786,-0.24707,-0.96582,0.304199
1480535307428402,-0.256348,-0.968262,0.30127
1480535307430910,-0.242676,-0.958984,0.302246
1480535307456977,-0.246094,-0.944336,0.303711
1480535307463996,-0.250977,-0.975586,0.29834
1480535307482045,-0.26416,-0.969727,0.288574
1480535307502600,-0.288574,-0.956055,0.266113
1480535307531176,-0.23877,-0.955078,0.272461
1480535307540703,-0.154785,-0.928223,0.305664
1480535307586826,-0.227051,-0.952637,0.313965
1480535307592840,-0.273926,-0.993652,0.303711
1480535307600360,-0.247559,-0.953125,0.309082
1480535307622920,-0.213379,-0.94043,0.314453
1480535307653504,-0.24707,-0.952637,0.32373
1480535307660520,-0.286133,-0.952148,0.301758
1480535307697619,-0.276367,-0.947266,0.290039
1480535307713661,-0.240234,-0.964355,0.290039
1480535307719677,-0.227539,-0.978027,0.279297
1480535307743742,-0.241211,-0.964844,0.29248
1480535307779837,-0.258301,-0.938965,0.291016
1480535307786354,-0.254395,-0.930664,0.298828
1480535307816434,-0.248535,-0.953613,0.30127
1480535307825459,-0.245605,-0.975586,0.310547
1480535307863058,-0.246582,-0.963379,0.310547
1480535307865565,-0.239746,-0.94043,0.305664
1480535307908178,-0.240723,-0.937012,0.3125
1480535307910685,-0.249023,-0.961914,0.308105
1480535307930237,-0.248047,-0.96875,0.307129
1480535307945278,-0.245605,-0.952148,0.310547
1480535307968342,-0.239746,-0.948242,0.297852
1480535307982877,-0.244141,-0.961426,0.304199
1480535308021480,-0.254883,-0.971191,0.305176
1480535308026493,-0.241699,-0.949219,0.308594
1480535308065597,-0.242188,-0.942871,0.30127
1480535308069106,-0.248535,-0.955566,0.307617
1480535308088158,-0.25293,-0.964844,0.305664
1480535308103198,-0.25,-0.957031,0.305664
1480535308125757,-0.239746,-0.94043,0.306152
1480535308147816,-0.241699,-0.951172,0.298828
1480535308170376,-0.249512,-0.968262,0.300781
1480535308185416,-0.250977,-0.963379,0.299805
1480535308223517,-0.241699,-0.944336,0.304199
1480535308225523,-0.237305,-0.950195,0.29834
1480535308245576,-0.249023,-0.966309,0.305176
1480535308266646,-0.246094,-0.968262,0.308594
1480535308290195,-0.249512,-0.951172,0.306641
1480535308307240,-0.242676,-0.940918,0.313965
1480535308335317,-0.246094,-0.959473,0.307129
1480535308342835,-0.248535,-0.970215,0.3125
1480535308365896,-0.254883,-0.950684,0.3125
1480535308386457,-0.241699,-0.938477,0.304199
1480535308409011,-0.236816,-0.960449,0.302246
1480535308425053,-0.244629,-0.980469,0.29834
1480535308449118,-0.246094,-0.963379,0.299805
1480535308462654,-0.246094,-0.943848,0.302246
1480535308491229,-0.244629,-0.944824,0.302734
1480535308506847,-0.244629,-0.96582,0.302246
1480535308535848,-0.246094,-0.965332,0.307617
1480535308546877,-0.244629,-0.942383,0.304199
1480535308567934,-0.237305,-0.939941,0.311035
1480535308584477,-0.242676,-0.969727,0.310059
1480535308611048,-0.250488,-0.974609,0.312012
1480535308627592,-0.242188,-0.95166,0.308594
1480535308643133,-0.244141,-0.934082,0.301758
1480535308665192,-0.245117,-0.95752,0.303711
1480535308687754,-0.250488,-0.977539,0.306152
1480535308702291,-0.245605,-0.958496,0.302734
1480535308725352,-0.237305,-0.939453,0.299316
1480535308747913,-0.243652,-0.946777,0.309082
1480535308770473,-0.251953,-0.968262,0.300781
1480535308785512,-0.250977,-0.960938,0.301758
1480535308813587,-0.240234,-0.943848,0.297363
1480535308830132,-0.23877,-0.950684,0.303223
1480535308845672,-0.241211,-0.962402,0.303223
1480535308883272,-0.248047,-0.962891,0.302246
1480535308897810,-0.248535,-0.948242,0.309082
1480535308905331,-0.240234,-0.943359,0.309082
1480535308927890,-0.249512,-0.960449,0.305664
1480535308941928,-0.25293,-0.970703,0.300293
1480535308965491,-0.24707,-0.958496,0.305664
1480535308988056,-0.241699,-0.949707,0.297363
1480535309002591,-0.242188,-0.956055,0.299316
1480535309025149,-0.24707,-0.963379,0.299805
1480535309047710,-0.250977,-0.958984,0.304199
1480535309100851,-0.249023,-0.945801,0.302246
1480535309106013,-0.246582,-0.94873,0.296387
1480535309118398,-0.24707,-0.970215,0.298828
1480535309136448,-0.24707,-0.970703,0.300781
1480535309145470,-0.243652,-0.943848,0.307617
1480535309168030,-0.252441,-0.947266,0.304688
1480535309196605,-0.257324,-0.95752,0.299805
1480535309206132,-0.250977,-0.96875,0.299316
1480535309235710,-0.250488,-0.95752,0.29834
1480535309248745,-0.240234,-0.945801,0.29541
1480535309278825,-0.249512,-0.966309,0.298828
1480535309288851,-0.250977,-0.970703,0.307129
1480535309308915,-0.249512,-0.961426,0.300293
1480535309325458,-0.246094,-0.941895,0.300293
1480535309355036,-0.246094,-0.948242,0.30127
1480535309376092,-0.250488,-0.97168,0.300293
1480535309400157,-0.250977,-0.966797,0.306641
1480535309416700,-0.250488,-0.946289,0.297852
1480535309444274,-0.251465,-0.948242,0.299316
1480535309452805,-0.250488,-0.964355,0.305664
1480535309467837,-0.253418,-0.96875,0.304199
1480535309490397,-0.255371,-0.952148,0.299805
1480535309512957,-0.243164,-0.945801,0.296387
1480535309527997,-0.249512,-0.957031,0.293945
1480535309550060,-0.255859,-0.970215,0.297363
1480535309566099,-0.248535,-0.956055,0.297363
1480535309593671,-0.246582,-0.941895,0.297363
1480535309610216,-0.25293,-0.95459,0.296875
1480535309655837,-0.250977,-0.975098,0.29834
1480535309658344,-0.248047,-0.960938,0.302734
1480535309695944,-0.244629,-0.947266,0.308594
1480535309700456,-0.251465,-0.950195,0.299805
1480535309731538,-0.252441,-0.966797,0.297363
1480535309736556,-0.248535,-0.964844,0.305664
1480535309751092,-0.254883,-0.938965,0.302246
1480535309767634,-0.253906,-0.947266,0.292969
1480535309790195,-0.251465,-0.956543,0.292969
1480535309812755,-0.258301,-0.970703,0.284668
1480535309835315,-0.26709,-0.959473,0.285156
1480535309850354,-0.229492,-0.942383,0.290527
1480535309872914,-0.218262,-0.947266,0.300293
1480535309893970,-0.242188,-0.96582,0.304199
1480535309916530,-0.261719,-0.971191,0.294434
1480535309933576,-0.239258,-0.945801,0.302246
1480535309962653,-0.236816,-0.944336,0.307617
1480535309970174,-0.255371,-0.965332,0.306152
1480535310008274,-0.26123,-0.969727,0.294922
1480535310010782,-0.248047,-0.958008,0.301758
1480535310030835,-0.246094,-0.943848,0.300781
1480535310051389,-0.257324,-0.956543,0.293457
1480535310067933,-0.254883,-0.961426,0.291992
1480535310090994,-0.249023,-0.95459,0.29248
1480535310111549,-0.241211,-0.947754,0.300781
1480535310127591,-0.248535,-0.95752,0.295898
