timestamp,emg1,emg2,emg3,emg4,emg5,emg6,emg7,emg8
1480535257529644,2,-8,-5,-3,-1,-1,1,2
1480535257529644,0,4,4,1,-1,-1,-1,-1
1480535257530646,1,-3,-2,-1,-3,-1,-1,1
1480535257530646,-1,-1,-1,-1,-1,0,-1,-1
1480535257559724,5,4,-1,1,0,-2,-3,-2
1480535257559724,2,8,-2,-4,-1,-2,-2,0
1480535257561728,0,-22,-3,-1,0,-1,0,-1
1480535257561728,-1,13,-2,-1,-1,0,1,-1
1480535257566741,-6,-12,3,0,-1,0,0,-2
1480535257566741,-10,1,6,2,0,1,2,-1
1480535257567243,-3,-14,-1,-1,0,0,1,-1
1480535257567243,-4,26,5,0,-2,0,1,1
1480535257589302,4,-9,-1,-1,-1,-1,-2,-1
1480535257589302,3,-61,-6,-4,-1,-2,-2,-5
1480535257590305,-1,15,-3,-1,0,0,0,0
1480535257590305,-1,3,0,-1,-2,0,-1,0
1480535257612363,-1,-11,-2,-2,0,-1,-2,0
1480535257612363,-3,-15,-6,0,-1,0,0,0
1480535257613369,-5,9,-1,-1,1,1,-1,-1
1480535257613369,-2,-18,0,-1,-2,-2,-3,1
1480535257642444,3,-8,-6,-2,-1,-1,-2,-4
1480535257642444,-1,15,1,0,0,0,1,2
1480535257642945,2,-4,-1,-1,1,-1,-1,-1
1480535257642945,-2,-10,-1,0,-1,0,-2,-2
1480535257649963,-4,3,0,1,0,0,2,-1
1480535257649963,2,5,1,0,-2,-1,-2,-1
1480535257650466,0,11,7,2,-2,-1,2,2
1480535257650466,1,-11,-2,0,1,-2,-1,-4
1480535257672022,2,41,9,2,0,2,3,3
1480535257672022,0,7,1,-1,0,-1,-1,0
1480535257673025,0,-9,0,-2,-1,-1,-3,-2
1480535257673025,-1,6,-1,-1,1,0,-1,0
1480535257686561,0,-14,-7,-2,-2,-1,0,-2
1480535257686561,-4,32,7,2,0,2,1,1
1480535257687564,0,8,-4,-1,-2,-1,0,0
1480535257687564,-6,3,0,2,2,0,2,1
1480535257710123,-2,5,-2,-3,-1,-1,1,-1
1480535257710123,-7,-4,-1,-1,1,0,0,0
1480535257710625,1,-4,-2,1,-1,0,-1,-1
1480535257710625,0,5,3,1,-1,1,-1,0
1480535257739702,-7,-15,-1,-1,1,-1,-1,-2
1480535257739702,3,6,0,1,-1,-2,1,0
1480535257755243,0,1,-7,-2,0,0,0,-1
1480535257755243,1,-34,-3,-2,-2,-2,-1,-2
1480535257762262,3,14,-3,0,0,-1,-4,-2
1480535257762262,0,-10,-1,0,1,-1,1,0
1480535257763268,0,-5,3,0,0,-1,-1,-2
1480535257763268,0,-9,-4,-3,-1,0,-1,1
1480535257769281,1,-5,-2,2,1,-1,-2,1
1480535257769281,6,11,-6,-3,1,-1,-2,-2
1480535257769783,0,-6,1,-1,-1,-1,3,1
1480535257769783,10,3,-12,-2,-1,-2,-1,-3
1480535257792342,-9,3,3,0,2,2,2,-1
1480535257792342,3,-13,-8,1,-1,0,-1,0
1480535257793345,0,1,-1,-1,-2,-2,-2,-1
1480535257793345,-2,-5,1,-2,-2,0,0,-1
1480535257806379,1,-16,-2,-2,-2,-3,-1,0
1480535257806379,1,7,1,0,-1,-1,-2,-1
1480535257807382,-2,3,0,0,-1,0,1,-2
1480535257807382,-2,-3,3,1,0,-2,1,0
1480535257838465,-3,2,2,0,-2,-2,-1,0
1480535257838465,-2,1,3,0,0,0,2,0
1480535257839969,4,8,7,2,0,0,0,0
1480535257839969,2,1,-4,-4,-2,0,-2,0
1480535257852502,0,-6,-1,-1,-1,-1,1,0
1480535257852502,1,1,-6,-1,0,-1,-2,-1
1480535257853006,-3,-10,0,0,0,2,-1,-1
1480535257853006,0,3,1,0,1,-1,-2,-1
1480535257866038,-1,10,0,0,-1,-1,-1,2
1480535257866038,2,-7,-5,-3,0,-1,-2,-1
1480535257874059,-3,1,-1,-1,0,0,1,0
1480535257874059,-2,-14,0,-1,-1,-1,1,-1
1480535257889100,3,23,2,1,0,2,0,2
1480535257889100,-2,-3,2,-1,-3,-3,-1,-3
1480535257890104,0,-4,-1,0,2,-1,-3,0
1480535257890104,-1,-5,0,-1,0,-1,-2,-1
1480535257914168,0,-17,-1,-2,-1,-3,-2,-2
1480535257914168,-1,1,0,-1,1,1,1,1
1480535257915169,2,2,-3,-2,-3,-1,0,0
1480535257915169,-1,-2,3,2,-1,-1,0,0
1480535257925697,0,-9,-5,-2,1,0,-1,-2
1480535257925697,-3,0,2,2,0,2,1,1
1480535257934720,0,-7,-1,0,-1,-3,-4,2
1480535257934720,-1,4,0,0,1,-1,0,-2
1480535257949761,-1,-8,-1,0,0,1,0,0
1480535257949761,-1,-9,0,0,0,-2,0,1
1480535257951268,-1,-3,2,2,1,3,0,0
1480535257951268,-1,1,0,0,-1,0,-1,1
1480535257972823,0,-9,-1,-2,0,-2,-1,0
1480535257972823,0,-7,0,-1,-1,0,0,2
1480535257974066,1,-2,0,0,-1,1,0,-1
1480535257974066,0,3,-5,0,-1,0,-2,0
1480535257995382,2,-33,-2,-5,-2,0,-1,-1
1480535257995382,-5,2,1,0,0,1,1,1
1480535257995883,-6,-6,2,0,2,1,2,0
1480535257995883,2,-8,-1,0,0,-2,-1,-1
1480535258008918,-1,-10,-2,-1,-4,-1,-2,-4
1480535258008918,4,-1,-6,1,-1,-3,-1,-1
1480535258016438,0,-1,-1,-2,-3,-3,0,-1
1480535258016438,-6,-3,4,0,0,1,1,1
1480535258039499,-3,6,-1,2,1,1,1,-1
1480535258039499,0,-5,3,0,0,1,0,-3
1480535258040502,-1,7,-2,-1,-2,-2,-1,-1
1480535258040502,0,-1,0,0,-1,-3,-2,-1
1480535258055041,0,4,2,0,-1,-2,1,1
1480535258055041,-2,2,-4,-2,-1,-1,-3,-2
1480535258056545,1,-6,-3,-1,0,-1,0,-1
1480535258056545,1,-2,-1,-1,-2,0,-1,-2
1480535258069078,1,5,1,1,-2,0,-1,0
1480535258069078,-3,-3,0,-1,-1,0,0,-2
1480535258070081,0,-1,-2,0,0,0,-1,-1
1480535258070081,0,9,-3,-1,1,-1,-1,1
1480535258092641,-1,3,1,0,-2,0,0,0
1480535258092641,0,-5,0,-1,-2,-1,-2,0
1480535258093643,-1,8,2,0,0,-1,0,-2
1480535258093643,-1,-3,-3,0,-1,1,-1,0
1480535258107681,1,-2,-3,-1,-1,-1,0,-2
1480535258107681,-3,-4,4,0,-2,-1,-1,-2
1480535258114202,-3,8,-7,-3,0,0,0,-2
1480535258114202,3,1,-4,-2,-2,-2,-1,-1
1480535258130241,5,39,1,-1,0,-1,0,0
1480535258130241,1,2,0,0,-2,-2,1,1
1480535258136257,0,-8,1,1,-1,0,0,-3
1480535258136257,-3,-1,0,-2,-1,-1,0,-1
1480535258152299,-1,-6,-1,0,-1,-1,-1,0
1480535258152299,0,1,-1,-1,0,0,-1,-1
1480535258152802,1,2,1,-1,-2,-1,-2,0
1480535258152802,0,4,-4,0,-1,0,0,-2
1480535258165836,-4,-9,1,-2,-2,-1,0,1
1480535258165836,-1,3,-1,-1,1,-1,0,-1
1480535258174358,-1,-5,-2,-2,0,-1,0,1
1480535258174358,-1,-15,0,-2,0,0,-1,1
1480535258189899,-1,-13,-1,-2,-1,-3,0,-1
1480535258189899,0,0,-2,-2,-1,1,-3,-2
1480535258190902,3,3,1,-2,-2,-1,-2,-2
1480535258190902,2,1,-6,-1,-2,-1,1,0
1480535258212460,0,-8,-1,1,1,0,-1,-1
1480535258212460,5,15,-4,-2,0,-1,1,1
1480535258212964,-2,4,4,-1,-2,-1,-3,-1
1480535258212964,0,-8,3,-1,-1,0,0,1
1480535258235019,-2,-48,-4,-2,1,2,-1,-2
1480535258235019,2,7,-4,-1,-1,0,0,-1
1480535258235521,-1,-9,3,0,-1,0,-1,1
1480535258235521,-2,5,0,-1,-1,0,-1,-2
1480535258249056,-2,-9,1,-2,-1,1,-2,-1
1480535258249056,-2,-15,0,-3,-2,0,1,0
1480535258250059,0,-3,-2,2,0,-1,0,1
1480535258250059,-7,-9,2,1,1,0,0,0
1480535258272119,1,1,0,0,2,-2,-1,1
1480535258272119,-1,0,-8,0,0,1,-1,0
1480535258273387,1,8,0,-1,-1,-1,1,0
1480535258273387,4,18,2,1,-1,0,1,-1
1480535258296187,-1,8,-1,0,-1,0,-2,0
1480535258296187,-2,-3,0,-1,-2,-3,-3,0
1480535258296686,0,-3,-3,0,1,-1,0,1
1480535258296686,-1,-3,0,1,-1,0,0,2
1480535258309720,0,-6,-1,2,0,0,1,0
1480535258309720,-1,0,3,-1,1,-1,-3,1
1480535258316737,-1,-7,-1,0,-2,-1,0,0
1480535258316737,1,-4,0,-1,0,-1,0,-2
1480535258332780,0,9,0,-1,1,0,1,0
1480535258332780,-2,-5,2,0,-1,-2,0,-1
1480535258333783,-1,-4,-2,-1,1,1,0,0
1480535258333783,-1,0,0,-3,1,-1,-1,0
1480535258354838,1,3,1,-2,-3,0,-1,0
1480535258354838,-3,-14,-2,-1,1,0,1,-4
1480535258355339,-1,-2,0,-1,0,1,1,-2
1480535258355339,1,-3,0,0,-3,-2,-1,0
1480535258368875,-2,-5,0,-1,-1,-2,-1,-1
1480535258368875,3,1,0,0,-1,-1,-3,-1
1480535258369879,-2,-3,-1,2,0,0,0,-2
1480535258369879,4,24,0,0,1,1,-1,0
1480535258392438,-1,-1,-6,-2,-1,-2,-2,-1
1480535258392438,-3,-9,1,1,0,0,2,0
1480535258392939,2,6,-6,0,0,0,0,-2
1480535258392939,-4,-11,-1,-2,-1,-1,0,-2
1480535258415506,1,2,0,0,-2,0,0,-1
1480535258415506,-2,3,0,-1,-1,-2,1,1
1480535258417003,0,0,0,-1,-1,-3,0,0
1480535258417003,-1,-6,3,0,1,-1,-1,-2
1480535258429540,1,-1,-1,-1,0,-2,-1,-1
1480535258429540,1,7,-5,-4,-3,-1,-1,-1
1480535258430540,-10,-18,6,2,0,-1,0,-2
1480535258430540,0,-4,-2,-1,0,-1,0,0
1480535258452097,2,1,2,-1,0,-1,1,-1
1480535258452097,2,13,2,-1,-1,2,0,1
1480535258459116,1,2,-3,-2,-2,-2,-2,0
1480535258459116,0,-1,0,0,0,2,-1,-1
1480535258476162,-5,-10,-2,0,2,3,1,-1
1480535258476162,0,0,2,1,-1,-4,-2,-2
1480535258476663,1,3,-3,-1,1,3,0,-1
1480535258476663,0,1,0,-1,-2,-2,-1,-2
1480535258489196,1,2,-2,0,0,0,1,-1
1480535258489196,-1,-1,0,0,0,1,0,-2
1480535258489697,0,9,-2,0,-1,-2,-1,1
1480535258489697,2,3,-2,1,-1,-2,-3,-1
1480535258512258,-1,3,-3,2,0,1,1,1
1480535258512258,-2,-3,0,0,-1,0,2,-1
1480535258513262,0,-6,0,-3,-2,-1,-1,-1
1480535258513262,-3,-11,-5,0,0,1,1,-1
1480535258534816,-1,7,0,-2,-4,-3,-3,-1
1480535258534816,0,-5,-1,-1,1,1,-1,-1
1480535258535318,1,2,1,-1,0,-1,-1,-1
1480535258535318,-2,-4,-4,0,0,1,-1,-1
1480535258549356,-3,2,-1,0,0,-1,-2,0
1480535258549356,2,-1,-2,1,0,-1,-1,0
1480535258549858,0,0,-2,-2,-1,0,-2,-1
1480535258549858,-6,-9,0,1,1,2,2,0
1480535258571916,-1,0,0,0,-3,0,0,0
1480535258571916,0,0,0,0,-1,0,-1,0
1480535258572918,0,2,-3,1,0,-2,0,-2
1480535258572918,-2,1,2,0,0,-2,-1,0
1480535258595479,2,0,0,-1,0,1,1,0
1480535258595479,0,19,1,-1,1,1,-1,0
1480535258595981,2,3,0,-2,-2,-2,0,0
1480535258595981,1,-5,0,1,-3,-1,-2,0
1480535258609015,1,2,-3,-4,-2,-3,-1,-3
1480535258609015,-2,-3,1,-2,-1,0,-1,-1
1480535258610017,5,-1,-2,-1,-1,-2,-2,-2
1480535258610017,-7,-14,5,-2,0,1,3,1
1480535258632076,2,5,0,-1,-1,0,-2,0
1480535258632076,-3,-11,-5,-1,-2,0,-1,0
1480535258633078,1,2,0,0,-1,-2,-1,-1
1480535258633078,4,1,-5,-1,-1,0,-1,-1
1480535258662156,0,2,-1,-1,0,-1,-2,1
1480535258662156,-8,-15,5,-1,-1,0,2,0
1480535258663160,-4,-4,0,0,0,0,-2,-1
1480535258663160,4,5,-5,-2,-1,-1,0,-1
1480535258669174,-5,-1,2,4,1,-1,0,-1
1480535258669174,2,5,-1,1,-1,-1,0,0
1480535258669676,-2,14,-3,-1,0,1,0,-1
1480535258669676,-5,-2,6,1,-1,-2,0,-1
1480535258692236,0,0,0,0,0,-1,-1,1
1480535258692236,2,0,1,-1,0,-2,1,-1
1480535258693239,0,-10,0,0,1,-1,0,-1
1480535258693239,1,-1,-3,-1,1,0,-1,-2
1480535258714796,-3,-3,1,-1,0,3,2,1
1480535258714796,-2,-11,0,0,-3,-1,-3,-1
1480535258715799,0,-3,-1,-1,-1,0,0,0
1480535258715799,-2,-2,0,-1,-2,1,-1,-2
1480535258729335,3,5,-2,-2,-2,-1,-1,-1
1480535258729335,0,1,-3,-3,-1,0,0,0
1480535258729836,-2,-7,1,0,1,0,0,0
1480535258729836,0,-3,0,0,-2,-2,0,1
1480535258752396,-2,-1,0,1,0,-1,0,-1
1480535258752396,-7,-10,3,0,0,0,-1,1
1480535258752898,0,-8,-1,-3,-2,-1,-1,0
1480535258752898,0,-6,-2,-1,-1,-1,-1,-1
1480535258782476,-4,-7,0,0,1,1,1,0
1480535258782476,1,0,-5,0,1,1,-2,0
1480535258782977,-3,1,1,-1,-2,1,1,0
1480535258782977,-1,-1,0,0,-2,-1,-1,0
1480535258788993,2,1,-1,0,-2,0,-3,1
1480535258788993,3,-4,-1,0,-1,-3,-2,-2
1480535258789996,0,7,-2,-2,-1,-2,-2,0
1480535258789996,1,-8,-2,-2,-1,0,0,-1
1480535258812055,-1,1,1,-2,-2,-1,-1,-2
1480535258812055,-1,2,-2,-1,0,-1,-1,-2
1480535258813059,-1,-8,-2,1,-1,2,-2,-1
1480535258813059,1,1,1,-2,-1,-1,0,0
1480535258835619,-2,-2,-2,-1,-2,1,1,0
1480535258835619,1,2,0,0,0,-1,-2,-2
1480535258837122,1,4,0,-2,-3,-2,0,2
1480535258837122,0,7,-2,-1,0,-1,-2,0
1480535258849154,-1,-3,0,0,0,-1,0,-1
1480535258849154,3,-1,-9,-1,1,-1,-2,-1
1480535258856673,0,-2,0,-1,-2,0,0,-2
1480535258856673,0,1,-2,1,1,1,1,-1
1480535258872214,-2,-1,0,-1,-1,-1,-1,0
1480535258872214,-1,0,1,0,-1,-2,0,1
1480535258873217,-1,-3,-2,-2,1,-2,-2,0
1480535258873217,-1,3,-1,-2,-1,0,-2,-1
1480535258902294,3,-5,-1,1,-1,0,-1,-1
1480535258902294,-2,-1,2,0,0,0,2,1
1480535258909814,3,-1,-1,0,-2,-2,-2,-1
1480535258909814,-4,-5,0,0,-1,2,1,2
1480535258911319,-3,-9,-2,-1,-1,-1,-1,0
1480535258911319,1,2,-1,-2,-1,-3,-3,-2
1480535258916833,-6,-9,1,2,0,0,2,-1
1480535258916833,0,0,-1,-1,1,-2,-2,-2
1480535258938892,-2,1,0,-1,1,-3,0,0
1480535258938892,-2,2,-6,0,0,1,0,0
1480535258946414,-2,-4,2,0,0,0,0,-2
1480535258946414,-1,-4,1,0,-1,-2,-1,-1
1480535258954934,0,-1,0,0,0,0,1,-2
1480535258954934,0,1,3,0,-1,-1,0,0
1480535258955436,1,-1,-1,0,-1,-1,0,0
1480535258955436,-1,-3,-2,-2,-1,0,-1,-1
1480535258984513,1,-7,1,-2,-2,-1,-2,1
1480535258984513,0,-1,-1,-1,0,0,2,-1
1480535258985516,-2,0,-2,1,0,-1,-1,-1
1480535258985516,-2,1,0,-2,-2,-2,0,0
1480535258992033,0,-4,-3,1,0,1,0,-3
1480535258992033,5,11,1,-1,-2,-1,-3,-2
1480535258993037,1,-1,-3,0,-1,0,0,2
1480535258993037,0,0,-2,-1,0,-2,-2,-1
1480535259014593,1,6,-3,-2,0,-1,-2,1
1480535259014593,1,-4,0,0,-4,0,-1,-1
1480535259015595,-2,-2,2,-1,0,1,1,-1
1480535259015595,3,0,0,-2,-1,-2,0,0
1480535259028637,0,2,0,1,1,1,1,0
1480535259028637,-3,-15,2,-2,0,-2,-1,-1
1480535259036652,-1,9,0,0,0,-2,-1,-1
1480535259036652,-1,-3,0,1,-1,1,-1,1
1480535259052193,1,3,-3,-2,-1,-2,-4,-1
1480535259052193,-7,-11,2,1,2,2,0,1
1480535259059714,0,-5,-1,-2,0,-2,-1,0
1480535259059714,-1,0,-2,2,0,0,-1,0
1480535259082273,-1,-2,0,-1,-1,-4,1,-1
1480535259082273,-1,-1,-1,0,-1,0,1,1
1480535259083276,1,0,-1,-2,-1,1,-1,-2
1480535259083276,1,1,1,-1,0,-1,-1,-1
1480535259096812,-1,3,-4,-1,-2,-2,0,-3
1480535259096812,-1,0,0,0,0,-1,1,0
1480535259097817,1,-4,0,1,0,-2,-1,0
1480535259097817,-2,-8,0,-3,-2,1,0,-1
1480535259112354,-4,-5,-1,-1,2,2,1,0
1480535259112354,3,5,0,0,-2,-1,0,-1
1480535259112854,1,6,-2,-4,0,-1,-2,1
1480535259112854,-5,-6,4,1,0,0,2,0
1480535259134412,0,-3,0,-2,-1,-1,-2,0
1480535259134412,-2,-3,0,0,-1,1,-3,-1
1480535259136419,-1,-9,0,0,-2,-1,-1,1
1480535259136419,0,-1,-2,1,1,0,1,-1
1480535259149954,0,1,0,-1,-3,-2,-2,-2
1480535259149954,-5,-3,-2,-1,-1,2,0,-1
1480535259156471,-3,1,-3,-2,-2,-2,-2,-2
1480535259156471,0,0,-3,-1,-1,0,1,-1
1480535259180036,3,-2,-2,-1,-2,0,-1,0
1480535259180036,0,6,3,-1,0,-1,1,1
1480535259180537,1,-7,0,1,-1,0,-1,-1
1480535259180537,5,8,-6,-1,0,0,0,1
1480535259195074,1,2,2,-3,-5,-3,-2,-1
1480535259195074,0,-5,-4,-1,0,0,0,-1
1480535259201591,-3,0,1,-2,-1,-1,0,-2
1480535259201591,1,0,-1,-1,0,-1,-2,0
1480535259219638,-1,3,0,-2,0,-1,-1,-1
1480535259219638,4,-6,-1,-3,0,-2,-3,-1
1480535259220140,-1,-2,-1,-1,0,0,0,0
1480535259220140,0,-9,-1,-1,0,-1,-3,0
1480535259231670,1,-2,0,1,0,2,0,1
1480535259231670,1,9,-4,-2,-2,-3,-1,-2
1480535259232172,-1,-9,0,0,-1,1,0,0
1480535259232172,-2,-2,-1,-1,-1,-1,-1,0
1480535259254732,0,-2,2,-1,-1,-3,-1,0
1480535259254732,0,-4,-7,-1,0,0,0,0
1480535259255735,-1,0,0,2,-1,-1,-1,-1
1480535259255735,-2,5,1,0,-1,-4,-1,-3
1480535259276791,0,-9,-2,0,2,1,-1,-1
1480535259276791,3,10,-3,0,1,-1,0,0
1480535259277793,-3,-1,0,-1,-1,1,0,-1
1480535259277793,1,-11,0,-1,-3,0,-1,-1
1480535259299351,-4,-7,1,0,-2,-1,1,0
1480535259299351,-9,-12,2,-1,-1,1,-1,0
1480535259300355,1,18,-2,0,0,0,2,1
1480535259300355,0,-5,1,-1,-2,-3,0,0
1480535259314892,-4,-8,-4,-3,-1,1,1,1
1480535259314892,1,-1,2,1,-1,0,-2,0
1480535259315393,3,-6,0,0,-1,-2,-1,-1
1480535259315393,-6,-7,-6,-1,1,1,0,-1
1480535259344973,-1,-3,-1,2,1,2,1,-2
1480535259344973,0,-2,1,-1,-2,-1,-1,-1
1480535259345977,1,-1,1,-2,-1,-1,-1,-1
1480535259345977,3,13,0,0,1,-1,-2,-1
1480535259351490,0,-6,0,-1,0,-2,-1,-2
1480535259351490,-3,-7,-1,2,2,3,2,-1
1480535259352492,-1,1,-2,0,-1,1,0,-2
1480535259352492,-2,4,3,0,-2,0,1,0
1480535259382071,0,-1,1,1,-1,-2,-2,0
1480535259382071,-1,-3,1,-1,-1,-2,-2,-2
1480535259384076,2,-3,-2,-2,-1,-2,-3,1
1480535259384076,0,-4,0,0,-2,-1,0,1
1480535259397111,0,0,0,1,0,-2,-2,-1
1480535259397111,7,6,-3,0,-3,-1,-2,0
1480535259428695,-1,-1,-1,0,1,1,1,-1
1480535259428695,0,0,-1,-2,-1,-1,-1,-3
1480535259432205,-2,-6,0,0,-3,2,1,3
1480535259432205,-1,-6,-2,0,1,1,-1,-1
1480535259433207,0,-3,2,-2,-3,0,-1,0
1480535259433207,-3,-4,0,1,2,1,0,-1
1480535259436215,2,0,-5,-1,0,-1,0,-2
1480535259436215,-1,-2,3,1,-1,-1,-1,0
1480535259436716,-6,-9,1,1,0,-1,0,-2
1480535259436716,0,1,-3,0,-2,0,-2,0
1480535259457271,-3,-13,-2,-2,0,0,0,1
1480535259457271,-2,-2,0,0,0,1,0,-1
1480535259457772,3,0,-1,1,-1,-1,-2,-2
1480535259457772,4,-3,-2,1,-1,-1,0,1
1480535259471308,1,-5,2,-1,2,-1,-2,-1
1480535259471308,-3,-3,-2,-6,-1,-3,-1,-1
1480535259472311,-2,-4,-1,1,0,-1,-1,-2
1480535259472311,-3,-13,4,-1,0,0,0,0
1480535259495372,0,2,-2,0,-1,-2,-1,0
1480535259495372,2,0,-2,-1,0,-1,0,-1
1480535259496382,0,-7,0,-2,2,-1,-1,-1
1480535259496382,4,2,-2,1,-2,-3,-1,-1
1480535259516929,-1,-2,0,-1,-2,2,-2,-2
1480535259516929,-1,1,-1,-2,-3,-2,-1,-1
1480535259523948,0,-2,-2,-2,-1,-1,2,0
1480535259523948,-2,-2,0,-1,1,1,0,0
1480535259532471,1,2,-1,-2,0,0,0,-2
1480535259532471,0,-5,1,1,1,-1,-1,1
1480535259538988,0,-1,-2,1,0,-1,-1,-1
1480535259538988,1,-2,-1,-1,-2,-2,0,0
1480535259556033,-4,-5,0,-1,-1,-1,-1,-2
1480535259556033,2,-1,-2,-2,-2,1,0,0
1480535259561047,1,-1,-5,-1,-1,0,-3,1
1480535259561047,1,4,1,-2,-1,1,0,-2
1480535259577089,0,3,-1,-1,-1,0,0,0
1480535259577089,-1,-2,2,2,-2,0,0,-3
1480535259579098,-1,3,-2,1,-1,-1,-3,0
1480535259579098,0,-5,-4,-1,-1,1,0,0
1480535259591126,-2,-8,-1,-2,-1,-2,0,2
1480535259591126,-6,-8,1,0,0,2,0,0
1480535259600652,0,-3,-1,-2,-3,0,-1,-1
1480535259600652,-5,-6,2,-1,-2,0,0,0
1480535259614689,1,1,0,1,-1,0,-2,-2
1480535259614689,2,20,-1,1,1,-1,-1,1
1480535259616695,-2,-6,2,-1,0,-1,1,1
1480535259616695,-1,0,0,-3,-2,-2,1,0
1480535259636247,2,1,-3,-2,-2,-1,0,-2
1480535259636247,1,-9,2,0,-2,0,1,-1
1480535259653292,2,2,-8,-3,-1,0,1,-1
1480535259653292,-1,0,-1,-1,2,1,1,1
1480535259653794,-4,-7,1,0,0,-1,-2,-2
1480535259653794,2,1,-4,0,1,-2,-3,1
1480535259659809,-7,-2,6,-1,-1,1,0,1
1480535259659809,-1,-5,-2,1,0,1,1,0
1480535259689889,0,-7,-2,-1,-2,0,-1,1
1480535259689889,0,0,-1,-1,2,-2,-2,0
1480535259691895,3,0,-2,-3,-1,0,0,1
1480535259691895,0,1,0,0,-1,-2,-2,-1
1480535259696908,-1,-6,2,1,-1,0,-1,0
1480535259696908,1,-3,-4,0,-1,0,1,-1
1480535259703426,1,-1,0,0,1,0,0,-2
1480535259703426,-3,-12,0,-1,0,0,-3,-4
1480535259711447,2,5,-1,-1,-2,-1,0,0
1480535259711447,-1,-1,3,1,0,-1,-2,0
1480535259743532,1,0,-4,-1,-1,0,0,-1
1480535259743532,0,5,-1,1,2,3,1,0
1480535259744535,-2,-1,0,1,0,-1,1,-1
1480535259744535,-3,-10,0,-3,0,-1,0,-1
1480535259746039,-2,0,1,-2,-1,0,0,-2
1480535259746039,1,-2,-3,-1,1,0,-2,-1
1480535259758071,-1,-5,-1,0,1,-1,-1,1
1480535259758071,-6,-6,1,-2,0,2,2,-1
1480535259759575,1,0,-4,1,-2,0,0,0
1480535259759575,-3,-9,1,-1,-4,-2,0,-1
1480535259771607,-11,-15,4,1,1,0,1,-1
1480535259771607,-1,-1,-2,-1,0,0,-1,-1
1480535259780133,2,2,1,-1,-1,0,1,0
1480535259780133,0,-3,3,-1,-1,0,-2,0
1480535259794668,1,-2,-5,-1,-1,0,-1,-1
1480535259794668,0,-9,-1,-1,-2,-2,0,-2
1480535259796173,-3,-10,0,0,0,-1,-2,0
1480535259796173,0,0,-1,0,-1,-2,0,1
1480535259817229,-1,0,2,-1,-1,1,-1,-1
1480535259817229,-1,-4,-2,1,-2,-1,-1,0
1480535259818733,-3,-5,2,0,-1,1,0,0
1480535259818733,0,10,-2,0,-1,-3,-1,-2
1480535259830764,3,-1,-4,-1,0,0,-2,0
1480535259830764,-1,-3,0,-1,-1,1,-1,0
1480535259845807,1,-2,1,0,0,-1,-2,-1
1480535259845807,1,-6,0,1,-1,0,0,-2
1480535259862348,2,-1,0,-2,-2,0,1,1
1480535259862348,0,-1,1,-1,0,0,1,-1
1480535259863852,2,-8,-2,0,1,-2,1,-1
1480535259863852,-1,0,-1,-2,0,1,0,1
1480535259877388,-1,-1,2,0,-3,-3,-2,-2
1480535259877388,-5,-10,2,0,0,0,-2,0
1480535259878892,-1,0,0,0,0,0,0,0
1480535259878892,4,-3,-1,0,-1,-2,-2,0
1480535259891425,-2,1,-4,-1,0,-1,2,0
1480535259891425,-4,-1,0,0,-2,-2,-2,-2
1480535259899949,-1,0,0,1,-2,0,-1,0
1480535259899949,-1,-4,1,-1,0,1,1,0
1480535259914487,6,5,-4,0,-2,-3,-3,0
1480535259914487,-2,-4,-1,0,1,1,3,1
1480535259922508,1,1,0,0,-1,-1,0,-1
1480535259922508,-2,1,-3,0,0,-2,-1,0
1480535259937047,0,-1,5,1,0,2,3,1
1480535259937047,3,3,-1,-2,-1,-2,1,0
1480535259939054,-4,16,5,-1,-3,-1,-2,-1
1480535259939054,-1,-1,-6,-1,-2,0,0,0
1480535259951084,-1,2,-1,-2,0,0,0,0
1480535259951084,2,2,-2,-1,0,0,0,-2
1480535259960108,-1,-2,-1,-2,-3,-1,-2,-2
1480535259960108,2,4,0,-1,0,-3,-2,-2
1480535259982668,-2,6,1,-1,-2,-1,5,-1
1480535259982668,1,1,-3,-1,0,-3,-10,-2
1480535259985676,1,1,-2,-3,-2,-3,0,-2
1480535259985676,-1,-4,-1,-2,1,0,0,-1
1480535260012750,0,-4,-3,-2,-2,-1,-1,-1
1480535260012750,-2,0,0,0,0,0,3,1
1480535260015757,1,0,-2,0,-1,0,0,-1
1480535260015757,-5,-4,1,1,-1,1,-1,-1
1480535260017261,0,-2,-1,-2,-2,-3,-1,-1
1480535260017261,-1,4,0,0,-1,0,3,-1
1480535260019767,-1,-3,-1,-1,0,-1,-1,0
1480535260019767,-3,-5,1,0,-1,0,1,-1
1480535260034807,0,1,-4,-3,-1,0,0,0
1480535260034807,0,-9,-2,-1,0,-1,1,-1
1480535260036311,-3,-4,-1,-1,-1,-1,1,0
1480535260036311,1,3,2,1,-1,0,-2,0
1480535260057367,1,1,-1,-2,-1,0,-3,-2
1480535260057367,1,2,-2,0,-1,0,0,-1
1480535260058873,0,-2,-2,0,-1,0,-1,-1
1480535260058873,-3,-2,-1,-1,-1,-2,-1,1
1480535260079927,-1,-3,0,-1,0,0,-1,-2
1480535260079927,-1,1,-2,0,-2,-1,0,0
1480535260081431,-1,-2,-1,-1,-2,1,-1,0
1480535260081431,-1,-2,0,-1,0,-1,0,-1
1480535260094967,-4,-2,2,2,0,-1,2,-1
1480535260094967,-2,-2,0,1,0,0,0,-1
1480535260096471,4,3,-2,-1,-2,-1,-2,0
1480535260096471,-2,5,1,-1,-3,-2,-3,-1
1480535260118028,0,-2,-1,-1,1,1,-1,2
1480535260118028,1,-6,-1,-4,-2,-1,0,1
1480535260120535,0,-2,1,1,2,-1,0,0
1480535260120535,-1,-8,-2,-1,1,1,2,0
1480535260140593,2,2,2,0,0,-1,0,0
1480535260140593,-2,-1,-2,-3,-3,-1,-2,-1
1480535260146110,-2,-1,1,0,1,-2,-1,0
1480535260146110,5,8,-2,-3,-2,1,-1,-2
1480535260154626,-8,-3,5,2,1,0,1,1
1480535260154626,-1,-4,-1,-2,0,-1,1,0
1480535260168163,-1,-3,-1,-2,-1,-1,1,-2
1480535260168163,2,0,-3,-2,-1,-1,0,-2
1480535260177186,2,-4,-4,-1,0,-1,-2,0
1480535260177186,1,2,0,0,1,-1,-1,-1
1480535260179194,-3,-8,4,1,1,0,0,0
1480535260179194,-1,-6,-8,0,-1,-1,-1,-1
1480535260216791,-1,-2,0,-2,-1,0,-2,-2
1480535260216791,-2,-6,1,0,1,1,0,0
1480535260219298,-1,-6,-1,-1,-1,0,2,0
1480535260219298,0,-2,3,-1,-2,-3,-1,1
1480535260220301,0,-1,-2,1,-1,-2,-3,0
1480535260220301,0,1,0,0,0,0,-2,-1
1480535260222807,-10,-13,1,1,0,1,2,-1
1480535260222807,0,-4,-2,-1,-1,0,-1,-2
1480535260252888,3,-1,-1,0,-1,-3,-2,-1
1480535260252888,-2,-11,-1,-1,0,1,1,-4
1480535260260407,2,9,0,-1,-4,-1,0,-1
1480535260260407,-1,0,1,-1,0,0,-1,1
1480535260261410,-1,-10,-6,1,0,-1,-1,-3
1480535260261410,2,-4,-2,0,-1,-2,-1,0
1480535260262914,2,0,-2,-1,-1,-1,-2,-1
1480535260262914,-1,-2,0,2,1,0,-1,0
1480535260298509,0,-2,-1,-3,-3,0,-1,-1
1480535260298509,-1,1,-2,-1,-1,-2,0,0
1480535260300012,0,-4,-1,0,1,-2,-2,0
1480535260300012,-1,-2,1,-3,-3,-1,0,0
1480535260301015,1,3,0,0,0,0,0,-1
1480535260301015,-2,-2,1,1,-1,0,3,0
1480535260305026,-2,-3,1,-2,-4,-2,-2,0
1480535260305026,1,-4,0,0,1,0,-1,-1
1480535260327084,0,4,-2,-2,0,-1,-1,-2
1480535260327084,1,-2,-1,-1,-3,-2,-2,1
1480535260329093,-1,3,0,0,1,1,0,-2
1480535260329093,-4,-9,0,1,0,1,2,-1
1480535260334104,0,6,-3,-1,-2,0,-1,0
1480535260334104,4,3,-4,-2,0,-3,-2,-1
1480535260341122,0,0,-1,0,0,0,-1,-1
1480535260341122,0,-8,-1,-2,-2,1,0,0
1480535260357165,0,0,2,-1,0,1,0,-2
1480535260357165,1,0,-4,-3,-3,-3,-4,-1
1480535260358668,1,1,-2,-2,0,1,0,0
1480535260358668,-4,1,0,0,0,0,0,0
1480535260379726,-4,-7,-2,-1,2,-1,1,0
1480535260379726,-1,8,2,0,-1,0,0,0
1480535260381229,-1,-2,-1,-1,-1,-2,0,-2
1480535260381229,1,5,-2,-1,-1,-2,0,0
1480535260394263,-6,-6,3,-2,0,1,1,-1
1480535260394263,0,1,2,0,0,0,-1,-1
1480535260400782,-3,-8,-2,0,0,1,1,-1
1480535260400782,1,5,-5,0,-2,-2,-3,-1
1480535260417826,3,6,-1,0,-3,-1,-2,1
1480535260417826,-2,-8,0,-2,2,-1,0,1
1480535260423341,0,4,1,0,-2,-2,-2,0
1480535260423341,0,0,-1,-1,1,0,0,-2
1480535260447906,0,8,0,-2,-1,1,1,0
1480535260447906,-1,-2,0,1,-2,1,-1,0
1480535260449410,1,1,-1,0,-1,0,-1,0
1480535260449410,1,1,-1,-2,0,2,-1,-1
1480535260453922,0,2,-1,-1,-2,-2,-2,1
1480535260453922,0,-2,-4,-2,-1,0,0,-2
1480535260460940,-6,-12,2,-2,0,0,-2,-2
1480535260460940,0,2,2,0,-2,-1,-1,-1
1480535260484001,2,0,-5,0,-1,-1,0,-1
1480535260484001,-2,2,-2,-1,1,0,0,0
1480535260492524,2,0,0,0,-1,-1,0,0
1480535260492524,-2,-3,-8,2,0,-2,-1,-1
1480535260499543,1,-1,1,-1,1,-1,-2,0
1480535260499543,-5,-10,3,1,-2,0,1,0
1480535260501549,0,-3,-3,-1,1,0,-1,1
1480535260501549,-3,-1,3,0,-2,-1,0,1
1480535260514082,-4,-7,1,2,2,1,2,0
1480535260514082,-2,-8,-3,-1,0,0,0,-1
1480535260521100,1,1,-1,0,-1,0,-1,0
1480535260521100,1,3,1,-1,-3,0,-1,-1
1480535260537143,-2,-1,-3,-1,-1,-2,-1,0
1480535260537143,0,1,1,0,-1,0,0,-1
1480535260539148,2,1,-2,0,0,0,0,-1
1480535260539148,0,3,0,-2,-1,-1,-2,0
1480535260560706,0,-9,1,0,-1,0,-2,-2
1480535260560706,-2,-2,1,1,-2,-1,0,0
1480535260565719,6,4,-11,-3,-1,-1,-1,-2
1480535260565719,0,2,4,1,0,-1,1,0
1480535260573239,-1,-9,0,-1,-1,0,-1,1
1480535260573239,2,6,1,-1,0,-2,0,0
1480535260582263,0,-3,-1,-1,-1,-2,-1,0
1480535260582263,-3,-9,-3,1,2,1,-2,1
1480535260605325,-1,0,0,-1,-3,0,-1,-1
1480535260605325,2,2,-5,-2,-3,-1,-1,-2
1480535260608834,-2,-7,1,1,0,0,1,1
1480535260608834,1,1,-2,-2,-1,-2,-3,-2
1480535260619863,-2,-5,-3,-1,0,-1,-1,0
1480535260619863,0,-5,0,0,-1,-1,-2,-1
1480535260622370,0,4,-2,-3,2,-1,-1,-3
1480535260622370,1,-2,2,-1,0,-1,-1,-1
1480535260633399,0,-7,-1,0,0,1,0,-2
1480535260633399,-1,-5,-5,-1,-1,1,0,0
1480535260642423,-6,8,4,2,-1,-1,1,0
1480535260642423,0,-5,-3,0,2,-1,0,-1
1480535260657463,-2,7,-1,0,0,-4,-1,-2
1480535260657463,0,-1,-2,-3,-1,0,1,-2
1480535260658967,-8,-14,3,-1,-3,-1,-1,-3
1480535260658967,1,15,3,1,0,0,0,-1
1480535260680524,0,-2,-1,0,0,-1,0,-1
1480535260680524,0,7,1,1,0,-1,0,0
1480535260682029,4,3,-2,-2,1,-1,-3,0
1480535260682029,0,-4,-1,-1,-3,0,-2,-1
1480535260693561,0,0,-1,0,0,0,-2,0
1480535260693561,2,5,0,-1,0,-2,-1,0
1480535260703085,-2,-5,-1,1,2,1,-1,1
1480535260703085,-3,-4,-2,-2,1,-1,1,0
1480535260717123,1,6,-2,-3,-1,0,-1,0
1480535260717123,-5,-15,2,1,1,0,1,-1
1480535260725143,1,-1,-2,-1,-1,-1,0,0
1480535260725143,2,3,-1,0,-2,-2,-1,-1
1480535260739683,3,-3,-3,-2,-1,1,0,-1
1480535260739683,4,7,-3,-2,1,-3,-3,0
1480535260741186,-1,2,3,-1,0,0,0,-1
1480535260741186,-1,-4,-1,0,0,0,-2,-1
1480535260753218,2,-1,-1,-1,-2,0,-1,-1
1480535260753218,-2,-6,-2,1,1,1,-1,1
1480535260768260,1,-5,-3,-2,-3,0,0,0
1480535260768260,-4,-12,-2,-3,1,0,1,2
1480535260777283,-1,-2,0,-2,0,-1,-2,-2
1480535260777283,-6,-4,4,0,0,0,0,-1
1480535260778786,-1,-8,-9,-2,0,2,0,-1
1480535260778786,-2,-2,3,3,0,0,0,-1
1480535260799841,-2,2,-1,-2,0,-1,-1,0
1480535260799841,-1,-10,-2,-2,-1,1,0,0
1480535260801346,0,0,-1,-1,-2,-2,-3,-1
1480535260801346,-3,3,-1,-1,2,-1,0,0
1480535260813380,1,5,1,1,1,0,0,-1
1480535260813380,-1,-3,1,-2,0,-1,0,-2
1480535260829926,0,2,1,0,-1,-1,-2,0
1480535260829926,-11,-5,2,2,-1,2,0,1
1480535260843960,1,-5,-3,-2,0,1,-1,0
1480535260843960,-1,-13,0,-2,-1,2,1,0
1480535260852483,-7,-6,6,2,-1,0,1,0
1480535260852483,1,-5,-5,-1,-1,1,0,-1
1480535260860505,-1,0,1,1,0,-4,-1,-1
1480535260860505,-1,-4,-1,0,0,-1,-2,0
1480535260862008,4,0,-3,-2,-2,0,-1,1
1480535260862008,8,5,0,-1,-1,-3,-3,0
1480535260882561,-3,-5,0,-1,-2,0,1,0
1480535260882561,1,5,-1,0,1,-1,0,0
1480535260884066,1,4,2,-1,0,-3,-2,-1
1480535260884066,0,-1,-2,-1,-1,0,-2,-1
1480535260897101,-4,-4,2,-1,-1,1,1,1
1480535260897101,1,5,-1,0,-2,-2,0,0
1480535260898604,-3,-9,-1,1,1,2,0,-2
1480535260898604,-3,-8,0,-1,-2,-1,0,0
1480535260919661,-3,-6,0,-1,1,-1,1,-1
1480535260919661,1,-6,2,1,-2,0,-1,1
1480535260921165,0,-12,-10,-3,1,-2,-1,1
1480535260921165,0,2,2,2,0,-1,1,2
1480535260933197,-1,0,-3,-1,-1,0,-1,-1
1480535260933197,1,2,-5,-2,-1,0,-3,-3
1480535260942222,1,1,4,0,-3,-1,0,-2
1480535260942222,0,1,0,-3,-1,1,1,1
1480535260957762,4,2,-2,-2,-3,-1,-1,1
1480535260957762,-1,-4,-1,0,1,0,0,-1
1480535260960269,4,4,-2,-2,-2,-3,-1,-2
1480535260960269,0,1,-2,-5,-5,-1,1,-1
1480535260979821,-6,-6,3,1,1,0,1,-1
1480535260979821,-2,0,-3,-3,-1,-1,0,0
1480535260981325,6,6,-3,-1,1,1,-1,0
1480535260981325,1,3,0,-1,-1,-2,-2,-2
1480535261009901,0,-3,-6,-1,0,-1,-3,-1
1480535261009901,-1,5,1,1,-3,-3,-1,-2
1480535261011405,0,-1,-3,0,-2,-2,2,1
1480535261011405,4,0,-1,-1,-1,-2,0,-1
1480535261017421,-2,-3,1,0,-2,-1,-1,-1
1480535261017421,-2,-1,1,1,-1,-1,0,0
1480535261019427,-3,-18,3,-1,-2,-1,-1,-2
1480535261019427,-3,3,-1,1,-1,0,2,-1
1480535261039479,0,1,-1,-1,0,-2,0,-1
1480535261039479,0,0,-5,-2,0,0,2,1
1480535261046499,-2,4,0,-1,1,-1,0,1
1480535261046499,2,-1,-3,-3,-1,-2,-2,-2
1480535261070562,0,3,0,0,-1,-1,-2,0
1480535261070562,-2,-2,2,-1,0,1,1,0
1480535261072066,-5,5,-1,1,-1,0,1,-1
1480535261072066,-3,-9,-2,-1,-1,0,0,0
1480535261076577,1,5,3,0,-3,-2,1,-1
1480535261076577,-2,-3,0,-1,1,1,0,0
1480535261083597,-2,1,0,-2,-1,-2,0,-2
1480535261083597,0,0,0,-1,-1,1,-2,0
1480535261107159,-1,-1,0,-1,0,2,1,-1
1480535261107159,-10,-13,4,0,1,1,-1,-1
1480535261109165,0,1,-2,-1,-2,0,-2,0
1480535261109165,0,1,-2,0,2,-2,0,0
1480535261122701,0,0,-3,-1,0,0,2,0
1480535261122701,2,1,-1,0,-2,-2,-2,-1
1480535261124205,-2,-5,-4,-1,-1,-1,0,0
1480535261124205,-6,-15,4,1,1,0,0,-2
1480535261137240,-1,8,2,-3,-2,-1,0,1
1480535261137240,1,3,-10,-3,-1,-2,-1,-1
1480535261138744,-8,-11,3,1,2,2,1,1
1480535261138744,1,0,0,0,1,-1,0,-2
1480535261161304,1,-5,-2,-1,-1,-1,-2,-1
1480535261161304,0,-3,0,0,-1,-1,1,-1
1480535261162810,-2,3,1,-2,-2,-1,-1,0
1480535261162810,0,2,-1,-1,-2,-2,-1,1
1480535261182363,-2,0,0,1,1,1,-2,-1
1480535261182363,-7,-13,1,1,1,2,1,-1
1480535261183863,5,5,-1,0,0,-2,-3,-1
1480535261183863,1,1,-1,0,-1,0,-1,-1
1480535261196400,-2,-5,1,-1,-1,2,0,-1
1480535261196400,2,-1,-1,-1,-2,-2,-1,1
1480535261203416,-1,-6,-3,-1,1,1,-1,-2
1480535261203416,1,3,-3,0,0,0,0,0
1480535261220461,1,3,-1,-1,1,-2,-2,-2
1480535261220461,-2,5,3,0,-2,-4,0,-1
1480535261221965,0,-4,0,0,-2,1,-2,-1
1480535261221965,-3,22,4,0,-1,0,1,0
1480535261249538,-1,-4,1,-1,-1,-2,0,2
1480535261249538,2,1,-2,-2,-2,-2,-2,-2
1480535261258563,3,6,0,0,-3,-2,0,-2
1480535261258563,-2,-9,-3,-1,1,1,0,1
1480535261259565,4,3,-3,1,-3,-3,-2,-1
1480535261259565,0,5,-1,-1,1,1,0,0
1480535261263577,1,5,3,-1,-2,-1,0,-1
1480535261263577,0,-5,-1,-1,-1,0,-1,-2
1480535261280120,1,2,-6,-1,-1,-2,0,0
1480535261280120,5,1,-5,-1,-1,-2,-2,-1
1480535261286136,-1,-4,-3,0,0,0,0,-2
1480535261286136,-4,-9,3,-1,0,1,1,0
1480535261302180,0,-2,-1,0,-1,-3,-1,-2
1480535261302180,2,-2,-2,-1,-2,0,-1,-1
1480535261303683,-4,-6,2,-2,1,2,1,0
1480535261303683,1,-2,-3,-1,-1,-2,-2,-2
1480535261316724,-3,-6,-1,1,-1,2,0,1
1480535261316724,-2,-18,-1,-3,0,-1,0,0
1480535261323234,-2,1,-1,1,-2,-1,0,1
1480535261323234,3,-3,-4,-3,-1,-3,-3,-2
1480535261347799,-5,-6,2,0,-1,0,-1,0
1480535261347799,-2,-2,-3,-2,0,0,-1,-1
1480535261353314,1,-2,0,-1,-2,-1,1,0
1480535261353314,0,2,-1,0,-3,0,-2,0
1480535261363341,-2,-1,-2,0,0,-2,0,-1
1480535261363341,-5,-4,3,1,0,0,0,-2
1480535261368354,-2,-1,-4,0,0,-1,1,2
1480535261368354,-1,-3,-1,-1,-1,-1,-1,-1
1480535261384898,-7,-10,4,2,-1,1,-2,-1
1480535261384898,2,2,-2,0,-1,1,-3,-1
1480535261388408,2,-4,-3,0,0,-1,-3,-2
1480535261388408,-3,-9,3,1,-1,-1,1,0
1480535261399938,-1,4,1,0,1,-1,0,-2
1480535261399938,-1,4,-4,-1,-3,-2,0,-2
1480535261401442,0,-4,2,0,-1,-3,-2,1
1480535261401442,1,-6,-1,-1,0,-2,-1,0
1480535261446564,3,9,-3,-1,-1,0,1,0
1480535261446564,-2,-1,2,2,0,0,1,1
1480535261448067,1,3,-1,-4,-1,-1,-1,-3
1480535261448067,4,4,-4,0,-1,-1,-1,-1
1480535261448567,-5,-10,0,-1,0,1,1,-1
1480535261448567,0,-1,1,-1,-2,0,0,0
1480535261452578,-1,8,-2,0,-1,0,-1,-2
1480535261452578,3,7,-2,-1,-2,0,0,0
1480535261459596,3,2,-1,-3,-3,-1,-1,-2
1480535261459596,1,4,-3,-1,1,-1,-2,0
1480535261461603,-13,-7,7,2,1,-1,2,1
1480535261461603,-2,1,3,0,0,1,1,-1
1480535261482157,1,0,-7,0,-2,0,-1,-1
1480535261482157,-4,-3,4,2,-1,0,1,-2
1480535261484162,4,5,-3,-2,-3,-2,-2,-1
1480535261484162,-3,-1,0,0,2,-1,-1,0
1480535261496697,-4,-8,0,-2,2,0,2,0
1480535261496697,4,4,-3,-2,-3,0,0,-1
1480535261510733,1,-10,-3,-1,-1,0,-3,-1
1480535261510733,-2,-4,0,-1,0,-1,-2,0
1480535261528280,4,7,-1,1,0,-1,-1,-1
1480535261528280,1,2,-1,0,0,-1,-2,0
1480535261529783,-1,-2,-1,0,-2,-1,1,-1
1480535261529783,-1,5,1,-2,-4,-2,-1,-2
1480535261565879,-1,4,1,-2,0,1,-1,-1
1480535261565879,-2,-10,-7,-2,-1,-2,0,-1
1480535261567885,0,3,-1,-1,1,-1,-2,-1
1480535261567885,1,4,-3,-1,-1,0,0,-2
1480535261568386,4,2,-2,-1,0,0,0,-1
1480535261568386,-1,5,2,0,-1,1,1,-1
1480535261572899,0,2,-3,-2,0,-1,1,0
1480535261572899,-5,-9,-2,3,3,1,-1,-2
1480535261580421,0,-1,-1,-1,-3,-1,-1,0
1480535261580421,1,1,0,-1,-1,-2,-1,-1
1480535261585934,-4,-8,-3,0,2,2,0,-1
1480535261585934,2,5,1,1,-4,-1,-2,-1
1480535261602479,-4,12,0,0,0,0,0,-1
1480535261602479,-2,-6,1,-1,0,-1,-2,0
1480535261603982,1,2,1,-2,0,1,0,0
1480535261603982,0,-3,0,-1,1,-2,1,0
1480535261616013,0,-5,-7,-1,-2,0,-1,0
1480535261616013,0,0,0,-1,-1,0,0,-1
1480535261625037,0,0,0,1,0,-1,0,-1
1480535261625037,-1,-5,0,0,-4,-1,1,0
1480535261640578,1,-3,-1,-1,-2,-2,-2,0
1480535261640578,-1,-10,0,-1,2,1,0,0
1480535261642083,-1,-5,0,0,-4,-2,0,-2
1480535261642083,-1,-2,-3,-1,0,0,-2,-1
1480535261664141,2,-2,0,-1,-4,-1,-1,-2
1480535261664141,3,-5,-2,1,1,-3,-4,0
1480535261665645,-2,-7,-1,0,0,2,0,-1
1480535261665645,1,-4,1,-1,-1,-3,0,1
1480535261676174,1,-3,-7,1,-1,1,0,-1
1480535261676174,2,4,1,-3,-1,-1,0,-2
1480535261684695,6,0,-1,-1,1,0,0,2
1480535261684695,-4,-1,0,-3,-2,-1,1,-1
1480535261699736,1,-3,1,1,0,-2,0,-1
1480535261699736,2,1,-1,-2,-3,1,-1,1
1480535261701241,0,-18,-3,-1,-1,-1,-2,-2
1480535261701241,-1,-1,-1,1,1,-1,-1,-1
1480535261722297,0,-6,0,0,2,-2,-2,1
1480535261722297,0,0,0,1,0,0,0,-2
1480535261723800,-3,-7,0,0,1,-2,-1,-2
1480535261723800,-1,0,0,0,3,3,0,0
1480535261735831,-5,-11,2,-3,0,-1,0,-1
1480535261735831,-2,-8,-2,0,-1,0,0,1
1480535261744856,-2,6,3,1,-2,-2,-2,-1
1480535261744856,5,-1,-9,0,-3,-1,-1,0
1480535261759896,0,0,2,-1,-1,-1,-1,0
1480535261759896,-2,0,-3,0,0,0,-2,-1
1480535261761401,2,3,1,-1,-1,0,-2,-1
1480535261761401,0,4,3,0,-3,-2,0,0
1480535261789475,-1,-2,-1,0,-1,-1,0,-1
1480535261789475,-4,-8,-1,1,-1,-3,0,-1
1480535261805518,0,-5,-2,0,0,0,-2,0
1480535261805518,0,-4,-2,1,2,0,-2,-1
1480535261806520,-1,1,-2,-1,-4,-2,0,0
1480535261806520,0,-2,-1,-2,-2,0,-1,-1
1480535261810029,-2,2,-2,0,-1,-1,1,-1
1480535261810029,-1,-2,-3,-1,0,2,0,-1
1480535261834594,-2,-2,0,-2,0,1,0,-1
1480535261834594,-5,-6,5,0,-1,2,-1,-1
1480535261836601,1,3,-9,-1,-3,-1,0,0
1480535261836601,-3,-3,1,-2,0,-1,-1,-1
1480535261842115,2,0,-1,0,1,1,-2,0
1480535261842115,-1,2,1,0,-1,-1,0,-1
1480535261844120,-3,-1,-2,-1,0,0,0,1
1480535261844120,1,2,-1,1,0,-1,-1,1
1480535261856152,2,-7,-3,-1,0,0,-1,-2
1480535261856152,0,10,-3,0,-1,-2,-1,-1
1480535261864674,-1,-2,2,0,-1,0,1,1
1480535261864674,-2,-1,-3,-3,0,0,0,-1
1480535261879717,1,4,-2,-1,1,-1,0,-2
1480535261879717,0,-2,-2,-2,-2,0,-2,0
1480535261881219,1,-4,3,1,0,-1,1,1
1480535261881219,-14,-9,8,1,0,-2,0,0
1480535261902776,-5,-2,-6,1,-1,0,-1,0
1480535261902776,2,-5,-2,-1,1,-1,-1,0
1480535261904281,-1,9,1,0,-1,-2,-2,0
1480535261904281,3,4,0,0,0,0,-2,0
1480535261915810,0,2,1,1,-2,-2,-1,0
1480535261915810,-1,0,-3,-2,-1,-3,0,1
1480535261924835,-2,-6,0,1,2,0,0,-1
1480535261924835,-2,7,1,-2,-2,-1,-1,-1
1480535261939874,0,-1,1,-2,-2,1,0,-1
1480535261939874,1,0,-1,-2,-1,1,0,0
1480535261941379,-1,-4,-2,1,2,1,-1,-1
1480535261941379,1,-5,0,-1,-1,-1,0,1
1480535261962437,1,4,1,0,-2,-2,-2,0
1480535261962437,-3,-8,5,0,-1,-1,1,1
1480535261963947,4,4,-2,-2,-3,0,-2,1
1480535261963947,-5,-24,-1,0,0,1,0,-1
1480535261975971,0,-1,-1,-3,-3,0,-1,-1
1480535261975971,0,1,-4,1,1,0,1,-2
1480535261985496,-1,-3,1,-1,-3,-2,-1,-1
1480535261985496,5,3,-2,1,-2,0,-1,-1
1480535261999533,-1,-2,0,0,-1,-1,0,1
1480535261999533,-2,-2,0,1,-1,0,-1,0
1480535262001539,0,-2,-2,-2,-1,-3,-1,0
1480535262001539,6,11,-3,-3,-1,-2,-2,-2
1480535262022094,-2,0,1,0,2,1,1,1
1480535262022094,-3,-6,0,1,-1,0,0,-1
1480535262025602,1,2,0,0,0,1,-1,0
1480535262025602,2,0,-4,0,-2,-2,0,0
1480535262044654,-6,-14,3,1,2,1,1,0
1480535262044654,1,1,1,-3,-2,-3,-2,0
1480535262046660,3,5,-10,-2,-1,2,2,-2
1480535262046660,-5,-6,3,0,-1,-2,-1,-1
1480535262059693,2,4,0,-2,-2,-1,0,-2
1480535262059693,-2,4,-2,-1,-2,-3,-2,0
1480535262061199,1,-6,0,1,0,-1,-2,0
1480535262061199,1,6,-2,-1,-2,0,-1,0
1480535262082254,2,1,-2,1,-1,-2,-1,-1
1480535262082254,0,2,-2,-1,-2,-2,1,1
1480535262083757,-3,-7,0,-1,-1,-1,-1,0
1480535262083757,1,-6,-3,-2,0,0,1,0
1480535262112333,-1,-1,1,1,2,0,-2,-1
1480535262112333,2,-2,-2,-2,-1,1,-1,-2
1480535262121858,0,-4,1,-1,-1,-1,0,-2
1480535262121858,-3,-8,0,-2,2,2,1,-1
1480535262122861,0,-2,-8,-1,0,-1,-1,-1
1480535262122861,-1,0,2,1,-2,-1,1,0
1480535262125869,2,1,1,-1,-2,-3,-3,-2
1480535262125869,-2,3,1,1,-1,0,-2,-1
1480535262149933,-6,-10,1,-1,2,-1,0,0
1480535262149933,1,-9,-3,3,1,0,0,0
1480535262151437,-4,-4,2,1,0,0,1,0
1480535262151437,-4,-8,0,-2,-2,-1,1,-1
1480535262164472,1,14,0,-1,-1,-1,0,0
1480535262164472,-4,-3,-2,-3,-1,1,0,-2
1480535262166478,0,3,-2,-2,0,-1,-1,-2
1480535262166478,1,-5,-3,1,1,2,1,-1
1480535262187533,0,5,2,-1,-4,-2,0,-1
1480535262187533,4,4,-1,-1,1,-2,-1,-3
1480535262191544,-1,-2,3,-1,0,0,0,1
1480535262191544,0,1,1,0,-2,-2,-2,0
1480535262202072,-1,-5,-6,-2,-1,-2,-1,-1
1480535262202072,2,5,0,1,0,0,-3,-1
1480535262204579,-3,-7,1,1,1,0,-2,-1
1480535262204579,0,7,1,0,-1,-2,0,1
1480535262224632,0,-1,1,-1,0,0,-2,1
1480535262224632,-2,-6,2,0,0,0,-1,2
1480535262226136,-1,5,-1,-1,-3,-2,-2,0
1480535262226136,-4,2,2,-3,-3,-2,-1,-1
1480535262239171,0,1,2,2,-1,-3,-1,-1
1480535262239171,-5,-8,0,-2,-2,0,-1,-1
1480535262253207,0,0,0,-2,-2,-1,-1,1
1480535262253207,-1,11,-3,0,1,1,2,-2
1480535262262737,2,-1,0,-2,-3,0,0,-4
1480535262262737,0,-3,1,-1,-1,-2,0,0
1480535262269752,-1,-2,-4,1,-3,1,0,0
1480535262269752,1,1,-1,0,-1,-1,-2,0
1480535262284792,-1,-3,0,0,0,1,-2,0
1480535262284792,-3,0,0,1,0,0,1,-1
1480535262286297,-1,-3,0,-1,2,1,-1,-1
1480535262286297,1,-4,-3,-1,-1,-1,-1,1
1480535262298830,-1,1,0,-1,0,0,0,0
1480535262298830,1,-5,-4,-1,-2,-2,0,0
1480535262313878,-4,-6,1,0,-1,1,1,-2
1480535262313878,1,2,-2,0,0,-1,-1,-1
1480535262322893,-1,1,2,-1,-2,-2,0,2
1480535262322893,3,4,-3,-3,-1,-1,-1,-1
1480535262328408,1,3,0,0,-1,0,0,-2
1480535262328408,-6,-4,3,1,1,1,-1,-1
1480535262360995,2,-9,-1,0,-1,0,0,0
1480535262360995,-2,9,3,-1,-1,1,0,2
1480535262363002,2,3,-1,-1,-1,-1,-2,0
1480535262363002,2,-3,-2,-2,-2,-2,-2,-2
1480535262363502,-2,3,0,0,0,0,-3,-2
1480535262363502,-7,-11,-3,-1,2,2,0,0
1480535262369517,-5,-3,2,1,-2,-2,1,0
1480535262369517,0,0,-1,0,-1,-2,0,0
1480535262389570,3,1,-4,-1,1,1,-1,0
1480535262389570,1,4,-1,-2,-1,-3,-1,-1
1480535262391576,-2,-3,-1,-1,0,0,0,-2
1480535262391576,1,-2,-2,-1,-3,-3,-1,0
1480535262404613,1,0,-4,0,-3,-1,1,-1
1480535262404613,0,-4,3,2,0,0,-2,-1
1480535262407117,2,-1,0,-1,-1,-1,-1,0
1480535262407117,-4,2,1,-1,-1,1,1,-2
1480535262427170,-11,-6,5,0,2,1,0,-2
1480535262427170,1,5,-1,-1,-3,-2,-1,-1
1480535262429178,1,5,-9,-1,-1,-2,-2,-2
1480535262429178,8,1,-3,0,1,-1,1,-1
1480535262442712,1,2,-2,-2,-3,-2,-2,0
1480535262442712,-3,-5,0,1,2,0,0,0
1480535262444717,-2,-6,0,-1,0,-3,-1,0
1480535262444717,0,1,-1,-1,-1,-2,-1,0
1480535262465272,-3,0,1,-1,0,1,1,1
1480535262465272,-3,-2,-2,0,0,-1,1,-2
1480535262467277,1,-1,-1,-1,0,-1,-1,0
1480535262467277,-4,-10,-1,-1,-1,0,0,0
1480535262478308,3,-3,-1,-2,-3,-1,-2,-1
1480535262478308,0,5,-2,-1,0,0,-2,-2
1480535262487330,-2,-5,1,-2,-2,0,0,-1
1480535262487330,1,3,2,-1,-2,0,-2,-1
1480535262503393,-2,0,0,0,0,-1,-1,-2
1480535262503393,-1,-4,-5,-3,0,1,0,-1
1480535262508391,5,-2,-1,1,0,0,1,-1
1480535262508391,0,2,-1,0,-2,-2,-4,0
1480535262525432,0,-5,-1,-1,-2,-1,-1,-2
1480535262525432,-1,-8,-2,-1,0,-1,0,0
1480535262527438,0,4,-2,0,0,-2,0,-2
1480535262527438,1,-10,-1,-1,-1,-1,-1,3
1480535262554510,-1,-6,-1,-2,-2,-3,1,-1
1480535262554510,-2,-2,-1,-3,-3,-2,-1,1
1480535262556516,-4,-5,-1,0,0,1,0,0
1480535262556516,-1,-4,0,1,2,0,-1,-2
1480535262562533,0,3,0,-1,1,-1,-1,0
1480535262562533,1,-1,3,2,0,1,-1,0
1480535262565038,-4,2,4,-1,1,-1,1,2
1480535262565038,-5,1,-1,0,-2,0,1,0
1480535262592110,2,6,-1,-2,1,-1,-1,0
1480535262592110,-3,-7,-2,-2,-1,-1,-2,0
1480535262594115,-3,-4,-1,-1,0,0,0,1
1480535262594115,-1,3,2,1,1,0,0,-1
1480535262598626,0,-1,-3,0,0,-1,-1,-1
1480535262598626,-5,-2,3,1,-2,0,1,-1
1480535262608152,0,-1,-1,-1,-3,-1,-1,-1
1480535262608152,-12,-18,3,0,0,-1,-1,0
1480535262638232,1,-8,-2,-2,-1,0,-1,1
1480535262638232,2,-1,-1,1,1,-3,0,-1
1480535262639736,1,-3,-3,-2,-1,1,-1,-3
1480535262639736,2,5,0,-2,-1,-1,-1,-3
1480535262644750,-2,-9,-7,0,-1,-1,-2,-1
1480535262644750,-1,8,2,0,-1,1,0,0
1480535262646255,0,-4,-2,0,0,-1,-1,0
1480535262646255,4,2,1,0,-3,-3,-2,-1
1480535262667309,-1,-8,0,0,-1,-2,-1,0
1480535262667309,-2,-2,1,-1,-1,0,-1,-1
1480535262668815,1,0,0,-1,-2,-2,-2,0
1480535262668815,1,-1,-2,1,2,1,0,0
1480535262682851,1,4,-2,0,-1,1,-1,1
1480535262682851,3,3,-6,-2,-3,-2,-1,-1
1480535262686360,2,-3,2,-1,-2,-1,-1,-1
1480535262686360,-3,0,-3,-1,0,0,0,1
1480535262703907,-2,5,0,1,2,-1,0,0
1480535262703907,-4,-19,5,1,2,1,0,1
1480535262712433,-5,-6,2,-1,-2,-2,-1,1
1480535262712433,3,1,-1,-1,-2,1,-1,0
1480535262718947,0,1,1,2,0,0,0,-1
1480535262718947,1,10,-1,0,-1,0,0,1
1480535262734989,-3,3,1,2,1,0,0,-1
1480535262734989,2,4,0,0,0,-2,-1,0
1480535262742008,2,-1,0,-2,-1,-3,0,0
1480535262742008,-3,-4,-1,-1,0,0,1,-1
1480535262744014,1,-4,-4,-3,0,0,0,0
1480535262744014,-2,0,-4,-2,-1,0,0,0
1480535262764568,-1,-2,-1,-1,0,0,-2,-2
1480535262764568,1,-5,-7,-2,-3,-1,-2,0
1480535262766573,-1,-5,-3,-1,0,-3,-1,1
1480535262766573,-1,-8,0,-1,-1,0,1,-1
1480535262787128,-2,-5,1,-1,-1,-1,0,-1
1480535262787128,-1,-4,0,0,0,-1,-1,-1
1480535262789133,2,2,-2,-1,-1,-2,-2,-3
1480535262789133,0,-2,-2,1,0,0,1,0
1480535262802170,0,-3,3,1,-1,1,1,0
1480535262802170,2,3,2,0,-2,-3,-1,-1
1480535262804174,1,-4,-2,-2,0,1,-1,0
1480535262804174,-4,-10,1,1,1,0,0,-1
1480535262832248,2,0,-1,-1,-1,-2,-2,0
1480535262832248,3,-10,-4,-1,-1,-1,-1,-2
1480535262833752,-5,-8,-1,1,3,1,0,0
1480535262833752,4,11,-2,-4,-3,-2,-3,-1
1480535262838766,-4,-4,-2,0,1,0,0,1
1480535262838766,-2,-2,0,-3,-2,-1,-1,-1
1480535262870851,0,3,0,0,1,-2,-1,-1
1480535262870851,-1,-5,0,-1,0,1,0,-1
1480535262871856,-1,-4,-1,-2,-2,0,0,-1
1480535262871856,2,-2,0,0,0,0,0,-1
1480535262875865,-2,-4,-3,-1,-3,-2,-1,-1
1480535262875865,-3,4,-1,-3,-2,-2,-1,1
1480535262884888,-1,-1,-3,-1,-2,-2,-3,-1
1480535262884888,0,-8,4,0,-2,-1,0,0
1480535262886394,1,4,-1,0,-1,-2,-2,1
1480535262886394,-1,-2,-1,0,-2,-1,0,-2
1480535262898424,-3,1,-1,-2,0,-3,0,-1
1480535262898424,0,4,-1,-2,-3,-2,-1,0
1480535262907448,2,-1,0,-1,-1,-1,-1,-1
1480535262907448,4,20,-1,0,-1,-2,0,-1
1480535262921987,2,3,3,3,0,-1,-2,-1
1480535262921987,-3,-3,-2,0,-1,2,0,1
1480535262923992,0,-2,1,0,0,-1,-1,1
1480535262923992,2,-1,-4,-1,1,0,-2,-2
1480535262945051,-2,2,1,0,-1,-1,0,-1
1480535262945051,5,11,-3,-2,0,-2,-3,-1
1480535262951065,-3,-7,0,1,0,2,3,1
1480535262951065,-2,-6,2,1,-1,-2,0,1
1480535262967106,-3,3,1,-1,0,0,-1,0
1480535262967106,0,0,-1,0,1,0,1,0
1480535262969112,-1,1,-1,-2,0,-1,0,-2
1480535262969112,6,4,-5,-1,0,-2,-2,-1
1480535262982147,2,-6,-1,-4,-3,-1,0,-1
1480535262982147,-2,-2,0,-1,-2,-2,0,-1
1480535262983651,-2,-5,1,-3,-1,1,0,0
1480535262983651,0,-1,0,1,-2,-2,-1,-2
1480535263004707,-4,-8,-8,-1,1,0,1,0
1480535263004707,-2,4,1,2,1,2,1,0
1480535263012229,-3,-1,-1,-1,-2,-2,-1,-1
1480535263012229,-1,-10,0,-1,-1,-1,-1,0
1480535263034787,-1,-5,3,-1,2,3,0,1
1480535263034787,-2,-4,0,-2,-1,-2,0,0
1480535263036291,0,4,-3,-1,-2,0,0,0
1480535263036291,-3,-5,0,1,3,2,0,-2
1480535263042307,-3,5,2,-1,0,-2,-1,-1
1480535263042307,-2,-2,-1,-1,0,-1,-2,-1
1480535263043813,-2,-4,-2,0,-1,-1,-1,0
1480535263043813,0,-2,-2,-2,-2,0,-2,-1
1480535263064867,-1,0,2,-1,-2,0,0,-1
1480535263064867,-2,-2,0,2,-1,-1,-2,1
1480535263066371,1,-4,0,0,0,0,-2,-1
1480535263066371,1,4,1,-1,-1,-1,-1,0
1480535263095472,1,6,0,0,0,-1,-2,-2
1480535263095472,-2,-11,1,0,-2,0,0,-1
1480535263103472,0,2,-2,0,-2,0,-1,-1
1480535263103472,-3,0,3,-1,-2,-2,1,0
1480535263104473,0,-5,-1,0,-3,0,-2,-1
1480535263104473,1,-4,0,-1,1,0,0,-1
1480535263109987,-3,8,4,2,2,1,1,-1
1480535263109987,-2,-10,-3,-2,-2,0,0,0
1480535263148589,-2,0,0,1,-1,-1,1,-1
1480535263148589,0,-3,0,-3,0,-2,0,0
1480535263150093,0,-8,-3,-4,-1,-1,0,0
1480535263150093,-4,-2,1,1,0,-1,0,0
1480535263151096,1,-2,-3,0,1,-1,-1,0
1480535263151096,-2,-7,-2,-2,-1,-1,-1,-1
1480535263155107,0,4,1,-3,1,-1,-4,-1
1480535263155107,0,0,-5,-2,0,0,-2,-3
1480535263161627,-5,-7,3,1,-2,-2,0,-1
1480535263161627,2,4,-5,-2,-1,0,-1,-3
1480535263176163,-7,-19,5,2,0,0,2,-1
1480535263176163,5,-3,-3,-2,-1,1,-1,0
1480535263184686,0,-2,0,-1,-1,-1,0,1
1480535263184686,0,-3,-1,0,1,0,0,-1
1480535263192205,1,-5,-1,-1,1,-2,-2,0
1480535263192205,-1,2,2,-3,-3,-3,-2,0
1480535263207245,0,-7,-1,1,2,2,1,-1
1480535263207245,-4,-2,-6,-3,-3,-1,0,-1
1480535263208749,4,4,-1,0,-1,-2,-2,0
1480535263208749,-5,-6,0,1,1,1,2,0
1480535263221784,2,1,-3,-4,-3,-3,0,0
1480535263221784,1,3,1,-1,1,0,-1,-2
1480535263228305,-1,1,-1,-3,-2,-1,1,-2
1480535263228305,-2,-5,0,0,-1,0,0,1
1480535263245850,-1,1,0,1,1,0,-1,0
1480535263245850,0,-4,1,1,2,1,-1,1
1480535263250862,5,0,-5,-1,-1,-1,1,1
1480535263250862,5,3,3,1,0,-1,-2,0
1480535263267405,-1,-3,2,-2,0,1,1,0
1480535263267405,-1,-1,1,2,0,0,-2,0
1480535263268909,3,-3,-4,0,-3,-1,-2,0
1480535263268909,-3,0,0,1,1,-1,0,-2
1480535263289965,0,-5,-5,-3,-1,-1,-1,0
1480535263289965,-1,-4,1,2,-3,-2,1,1
1480535263291470,-1,0,2,-1,-1,-1,0,-1
1480535263291470,-1,-2,-2,-2,0,-1,-2,-1
1480535263304506,4,-7,-4,1,0,-1,1,-2
1480535263304506,-2,-2,3,-1,-1,-2,0,-1
1480535263312527,-1,2,0,-1,-1,-1,-1,1
1480535263312527,-1,5,0,-1,-2,-3,-1,-1
1480535263327065,2,-1,0,0,-2,-2,0,0
1480535263327065,3,4,-2,-1,-1,-3,-3,-1
1480535263330072,0,2,-2,-3,-1,2,1,0
1480535263330072,-4,-6,-3,0,0,0,1,0
1480535263350125,0,3,0,0,-1,-2,-2,-1
1480535263350125,0,-1,1,-1,2,1,1,0
1480535263351629,2,6,-2,1,-1,-1,-2,-1
1480535263351629,-2,-5,0,-1,-2,-1,1,1
1480535263363662,-4,-2,-1,-1,1,2,0,-1
1480535263363662,1,3,1,-2,-2,-2,-1,-1
1480535263389229,-3,-1,-6,-1,-1,-2,0,0
1480535263389229,0,-1,-2,0,1,0,-1,-2
1480535263390233,3,4,-3,0,-3,-4,-1,-2
1480535263390233,-4,7,1,-1,1,2,2,1
1480535263393240,-4,-1,4,1,-1,-1,0,0
1480535263393240,-1,1,-4,-1,1,0,-2,-1
1480535263409283,-1,-1,-1,-1,0,0,-2,0
1480535263409283,1,-4,-5,-1,0,0,-1,-1
1480535263427331,-3,1,-1,1,1,-1,-1,-1
1480535263427331,-7,-8,3,2,0,1,1,0
1480535263427833,0,2,-1,-2,1,1,-1,-2
1480535263427833,-3,-3,0,0,-1,-1,0,0
1480535263430841,-3,-2,2,-1,0,-1,-1,0
1480535263430841,3,-2,2,-3,-1,-2,-1,-1
1480535263447385,-2,-3,-4,0,0,1,0,1
1480535263447385,-2,-8,-1,-1,0,-1,0,1
1480535263453403,1,-8,0,1,0,1,1,0
1480535263453403,1,2,0,0,1,-1,1,-2
1480535263469945,-1,1,0,-2,-1,-2,0,-2
1480535263469945,0,6,-1,-2,-4,0,-1,0
1480535263472452,2,-16,-2,-2,0,-2,-3,-2
1480535263472452,-2,-4,2,1,-2,0,-1,0
1480535263485485,-6,-2,6,1,0,1,0,-2
1480535263485485,1,-5,-4,0,0,-2,-1,-2
1480535263487993,-5,-1,1,-2,-3,0,-1,0
1480535263487993,-5,-3,1,1,0,-1,0,0
1480535263507043,1,2,-1,-3,-2,-1,1,1
1480535263507043,0,-8,-1,0,-1,2,-1,0
1480535263509049,0,4,-3,0,-1,1,-1,-1
1480535263509049,5,8,-1,-2,-1,-3,-3,-1
1480535263521080,-2,-6,-4,-1,-2,0,-1,0
1480535263521080,-2,0,1,-3,0,-1,-1,-2
1480535263530104,4,6,-4,0,0,1,1,-3
1480535263530104,1,-4,-1,1,-2,0,0,0
1480535263544643,3,1,-2,-1,1,-1,1,1
1480535263544643,-3,-3,0,0,-1,-1,-1,-2
1480535263546148,-4,-2,0,-1,-2,-1,0,-2
1480535263546148,2,1,-1,-3,-1,0,-1,-1
1480535263567202,-2,1,0,1,0,-3,-1,-1
1480535263567202,2,10,-4,0,-2,-1,1,1
1480535263569710,-2,-4,0,-3,-1,-1,1,-2
1480535263569710,-1,0,-3,-2,0,0,-1,-1
1480535263580739,4,4,-4,-2,-2,0,-2,-2
1480535263580739,1,-3,0,0,2,0,0,-2
1480535263589763,0,-1,-1,0,-1,-2,0,0
1480535263589763,0,2,-2,-1,1,-1,-1,-1
1480535263604803,1,-5,-2,-1,-1,0,-1,0
1480535263604803,0,-5,0,0,0,-2,0,1
1480535263618339,2,-1,0,0,0,1,-1,-1
1480535263618339,-1,-3,1,-1,0,0,-1,1
1480535263627364,-3,-2,2,0,0,1,1,-2
1480535263627364,1,-9,-1,2,-2,-3,-1,-2
1480535263628867,-6,-7,0,0,0,-1,2,0
1480535263628867,2,-1,-3,-1,-2,0,-1,-1
1480535263640898,1,-6,0,1,0,-2,-1,0
1480535263640898,-1,-2,0,-1,-3,-1,-1,0
1480535263666969,2,0,0,-1,0,0,-2,-1
1480535263666969,-1,-4,-3,0,2,-1,1,-1
1480535263667470,-5,13,2,-1,0,0,-1,-2
1480535263667470,-4,-5,0,1,-2,-1,-1,-3
1480535263670980,0,1,0,-1,-2,-2,-2,0
1480535263670980,0,0,-3,-1,-2,0,0,-1
1480535263695043,1,1,-3,-1,1,-1,-2,0
1480535263695043,2,-4,-2,-1,-2,0,0,0
1480535263697048,-1,2,3,0,1,1,0,0
1480535263697048,-2,6,-1,-2,-2,-3,-1,-2
1480535263701059,0,-4,2,1,-3,-2,1,-1
1480535263701059,-3,-4,1,0,1,0,0,1
1480535263710083,1,-2,-1,-1,0,1,-1,0
1480535263710083,0,-3,-4,-2,1,1,-1,-1
1480535263725624,-4,-8,-1,-1,0,-1,0,-1
1480535263725624,-2,3,0,-2,-1,-2,-1,-2
1480535263727130,-2,-4,-2,0,0,-1,0,-1
1480535263727130,0,-1,1,1,-2,-2,0,0
1480535263747182,-2,-2,-1,-2,0,0,1,1
1480535263747182,0,-3,1,-1,0,0,-1,-1
1480535263749213,-3,-2,-2,-1,-1,0,-1,-2
1480535263749213,-5,-5,-1,-1,0,2,2,0
1480535263760719,-5,-4,2,2,-2,0,1,1
1480535263760719,1,1,-3,0,0,-1,0,-1
1480535263775758,0,4,0,0,-2,-2,-1,0
1480535263775758,-2,-1,0,-1,0,0,-1,1
1480535263784782,5,0,-3,0,-1,0,0,0
1480535263784782,-4,-6,0,-1,0,-2,-2,-1
1480535263786286,5,0,-2,2,-1,0,-3,-1
1480535263786286,2,4,-3,-1,-1,0,0,2
1480535263807843,-1,-2,2,0,0,-3,-1,0
1480535263807843,4,2,-4,-1,0,2,1,0
1480535263821379,0,0,-2,-2,-2,-1,0,-2
1480535263821379,-1,3,1,-3,-2,0,1,-1
1480535263822395,-3,-6,-1,1,1,0,-1,-1
1480535263822395,1,6,0,1,-1,0,-1,1
1480535263829902,-1,-3,-3,-2,-2,0,0,0
1480535263829902,0,-7,1,0,1,0,-1,-2
1480535263844945,2,7,0,-5,-3,-3,-2,-1
1480535263844945,3,11,-3,-1,1,0,0,-1
1480535263846446,-11,-11,3,0,-2,-1,0,0
1480535263846446,-1,0,-1,-1,-3,-3,-2,1
1480535263868003,2,2,-3,0,2,1,0,-1
1480535263868003,-7,-16,-1,-1,1,1,1,-1
1480535263869508,-2,-1,-3,-3,2,0,-1,0
1480535263869508,1,3,-2,0,0,-1,-1,1
1480535263906106,0,-3,0,-2,-2,-1,-2,-1
1480535263906106,4,2,-10,-3,-2,-2,-3,-1
1480535263907608,0,-1,1,1,0,1,0,-1
1480535263907608,-2,-4,0,0,-1,-1,-1,-2
1480535263908614,2,1,-1,-1,-1,0,0,0
1480535263908614,-2,-5,1,0,-2,-3,-1,-1
1480535263912624,0,4,0,1,0,0,1,0
1480535263912624,-2,0,1,2,2,-1,-1,-2
1480535263942201,3,1,-1,-1,-1,-3,-2,0
1480535263942201,-3,-21,0,0,0,0,-1,-2
1480535263943705,5,1,-4,-3,-1,-3,-1,1
1480535263943705,0,-1,-5,-1,0,1,1,0
1480535263957742,-1,6,0,-1,-1,1,0,-1
1480535263957742,0,-11,-2,0,1,1,0,0
1480535263965262,0,-5,1,-1,-1,-1,-1,0
1480535263965262,-3,-3,-1,3,2,-1,0,-1
1480535263966265,-4,-10,-4,-2,1,1,1,0
1480535263966265,0,2,1,-1,-1,0,0,0
1480535263967768,1,-5,0,2,2,1,-1,0
1480535263967768,-1,9,1,-3,-2,-2,-1,0
1480535263987320,-3,-4,-2,-1,-1,0,-1,-1
1480535263987320,-4,-5,3,-1,-1,0,0,0
1480535263988824,-5,-5,1,2,2,1,1,-2
1480535263988824,0,-3,2,-4,0,-2,-1,-1
1480535264009379,-3,-7,-1,1,-2,-3,0,-1
1480535264009379,-6,-4,-1,2,1,-1,1,-1
1480535264026926,0,0,0,-2,-2,-1,0,0
1480535264026926,2,-1,-2,-2,-1,0,-2,-2
1480535264027428,-4,-12,1,0,-1,1,1,-1
1480535264027428,1,11,0,-3,-4,-3,-3,0
1480535264030937,0,0,0,1,-2,-2,-1,-2
1480535264030937,-1,-9,-1,0,-3,-2,-2,0
1480535264054499,6,21,-2,0,-1,0,0,0
1480535264054499,-9,1,4,0,-2,0,-1,1
1480535264056505,1,-5,-1,0,-1,-1,-1,0
1480535264056505,1,-1,-2,0,0,0,-1,1
1480535264070041,2,4,3,-1,-1,-1,-2,0
1480535264070041,2,-5,-3,-2,0,0,1,1
1480535264072548,-1,0,-2,-2,0,0,2,0
1480535264072548,-1,-1,-1,0,-1,-1,2,0
1480535264092099,-2,-6,2,-1,-1,0,-1,0
1480535264092099,5,-2,-1,-2,0,-1,-1,0
1480535264094105,1,0,1,0,-1,-1,-2,-2
1480535264094105,1,-3,-1,-1,-3,-4,2,1
1480535264108141,-3,-9,1,2,2,-2,1,-2
1480535264108141,1,-4,0,0,-4,-1,-2,1
1480535264109646,2,3,-3,-2,-2,-2,-2,-1
1480535264109646,-2,-2,2,-1,0,1,-1,-1
1480535264129700,2,1,-4,-1,-2,-2,-3,-1
1480535264129700,-1,3,1,0,-1,-1,1,0
1480535264144742,-2,1,0,0,2,0,-1,0
1480535264144742,-2,1,-1,-1,-2,0,0,-1
1480535264145742,-2,3,-1,0,-1,-1,-2,-2
1480535264145742,-1,-10,-9,0,1,0,-1,-2
1480535264150755,-3,-2,3,1,0,1,0,1
1480535264150755,7,12,-3,-2,-1,-1,-2,1
1480535264166297,-5,-8,0,-1,-1,-1,1,-1
1480535264166297,2,-4,-1,-2,0,0,0,-1
1480535264180835,-6,-8,0,-1,-3,0,1,-1
1480535264180835,5,4,-3,1,0,-2,-2,-2
1480535264189860,-2,-2,-2,-2,1,0,1,1
1480535264189860,1,6,1,2,0,0,-1,-1
1480535264191363,-3,-6,-1,-1,0,1,1,0
1480535264191363,-4,-1,3,1,1,0,0,-1
1480535264203897,-2,-6,-1,-1,-1,-1,0,0
1480535264203897,-5,-7,-1,-2,1,1,0,-2
1480535264219940,1,4,-3,-2,-1,-2,-1,0
1480535264219940,-4,-6,0,0,-1,-2,0,0
1480535264226959,3,4,0,-2,-1,0,-2,1
1480535264226959,0,5,4,2,-1,-1,-2,1
1480535264228965,0,-2,-2,0,-1,0,0,0
1480535264228965,4,11,-1,-1,-3,-1,-1,-1
1480535264249519,-1,-2,0,0,-3,-1,-2,-1
1480535264249519,1,-1,1,-1,0,-1,0,1
1480535264256035,2,0,-1,0,-1,-1,-1,-1
1480535264256035,-3,-7,0,1,0,-1,-1,-2
1480535264264056,0,1,-3,-1,-1,0,0,-2
1480535264264056,0,-1,1,0,0,0,0,0
1480535264271076,-9,-18,1,1,1,0,1,0
1480535264271076,-5,-3,1,-1,1,1,2,1
1480535264287619,-1,-3,0,1,-1,-1,0,0
1480535264287619,-2,0,-1,-1,-1,-1,0,0
1480535264289123,4,6,-3,-3,0,-2,-3,-1
1480535264289123,0,-5,-3,-1,-1,-2,-1,0
1480535264309677,-3,-3,1,1,-2,-2,0,0
1480535264309677,-2,-4,0,-1,0,-1,0,1
1480535264311686,4,1,0,0,-3,-1,-1,0
1480535264311686,-2,-2,3,1,1,2,0,0
1480535264324719,3,-2,-3,-3,-2,-1,-1,-2
1480535264324719,0,-2,0,-1,-1,1,1,0
1480535264330733,1,2,0,0,0,-1,2,-1
1480535264330733,-2,-5,0,0,-1,-1,-1,-1
1480535264348281,0,3,-3,-1,1,0,1,1
1480535264348281,-2,-5,-1,-1,-2,-2,-1,-1
1480535264370341,6,23,0,0,0,-1,-1,-2
1480535264370341,0,-2,-1,-1,-2,1,1,-2
1480535264372346,-1,4,-1,-1,0,0,0,0
1480535264372346,-2,-10,-2,-1,0,2,-1,0
1480535264375854,0,-7,-4,-2,0,-2,0,-1
1480535264375854,2,5,-2,0,0,-1,-2,-1
1480535264383373,-1,-1,3,0,-3,-2,1,-1
1480535264383373,2,0,3,-1,-1,-1,-1,0
1480535264422980,-12,-15,-2,1,0,2,1,-1
1480535264422980,0,-6,-2,0,1,2,1,-2
1480535264423481,-1,-5,1,-1,-1,-2,-3,-2
1480535264423481,6,8,-1,-2,-3,-2,-4,-4
1480535264425486,4,-6,0,-1,0,-1,0,1
1480535264425486,-3,-4,0,0,-1,-1,0,0
1480535264429998,-2,-5,1,-2,0,1,-1,-1
1480535264429998,0,2,-2,0,-1,-1,0,-1
1480535264431502,2,5,-1,1,-1,-1,-3,0
1480535264431502,0,-1,-1,1,-1,-1,-1,2
1480535264460580,0,3,3,1,-2,0,-1,-1
1480535264460580,0,2,-2,-1,-1,0,-2,-1
1480535264462085,0,-6,0,-1,0,-2,-2,-1
1480535264462085,0,-3,-9,-1,-2,-3,-2,-1
1480535264467096,3,2,-2,-1,1,-1,-2,0
1480535264467096,-3,0,2,1,0,-1,2,-1
1480535264469101,0,4,1,-2,-2,-1,0,1
1480535264469101,-3,-4,2,-1,-1,0,1,-1
1480535264490659,4,8,-5,-1,1,1,-2,0
1480535264490659,0,-2,-1,0,-2,-2,-1,-1
1480535264492164,1,5,0,0,-1,-2,-3,-2
1480535264492164,4,8,-2,-2,0,-1,0,0
1480535264503215,2,-1,-3,-1,-2,-2,-1,-1
1480535264503215,0,-2,-1,0,-1,-2,0,1
1480535264519737,-2,-2,0,0,-2,0,-1,-2
1480535264519737,-3,-2,4,-1,-2,-1,-1,-1
1480535264527258,-2,-15,0,1,1,-1,-1,0
1480535264527258,0,10,-2,-2,-1,-1,0,-1
1480535264528763,-1,0,-2,0,-2,1,1,1
1480535264528763,2,4,0,0,0,0,0,1
1480535264550318,-4,-6,5,-1,-2,0,0,0
1480535264550318,-2,-2,-4,0,-1,0,-1,0
1480535264551822,1,-1,0,-1,1,-3,-2,-2
1480535264551822,-1,0,1,-1,0,1,0,0
1480535264563353,0,0,-1,-2,0,1,0,0
1480535264563353,1,-2,0,-2,-1,-1,-1,0
1480535264579897,-1,-1,-2,-1,0,-1,-1,-2
1480535264579897,-3,-5,-1,-1,0,0,0,0
1480535264587417,0,3,-1,1,0,-2,0,-1
1480535264587417,-1,-4,-3,-2,-1,1,-1,-1
1480535264588921,-1,-3,0,1,0,-1,0,0
1480535264588921,-3,-4,0,1,2,0,-1,0
1480535264609977,-2,11,-1,0,0,-1,1,-1
1480535264609977,-2,-4,3,-1,2,0,0,1
1480535264611484,0,-2,0,-2,-3,-2,-1,0
1480535264611484,2,3,0,-2,-1,0,0,-1
1480535264623513,-4,-7,-4,-2,-1,-1,1,-2
1480535264623513,1,1,-1,0,0,-1,0,0
1480535264632537,1,11,-1,-1,1,0,0,1
1480535264632537,2,-1,2,1,-2,0,-2,-1
1480535264647075,-7,-4,6,3,0,2,1,0
1480535264647075,2,5,0,0,-1,-3,0,-1
1480535264649081,-4,-10,-4,0,-1,1,0,-2
1480535264649081,0,-6,1,-1,-2,-1,-1,-2
1480535264684675,1,-1,-1,-2,-1,0,0,-1
1480535264684675,-1,-12,-3,-1,-1,0,0,0
1480535264691194,1,1,2,1,-2,-1,-2,-1
1480535264691194,0,-2,-4,-1,0,1,0,-1
1480535264699715,0,-6,-1,1,1,1,1,1
1480535264699715,0,4,0,1,0,-2,-1,-1
1480535264703226,1,0,-1,-1,-2,-1,-1,0
1480535264703226,1,0,-1,-2,-2,-1,-2,-1
1480535264713753,4,-3,-6,-3,-2,0,-3,-1
1480535264713753,-2,-6,1,1,1,1,0,0
1480535264731801,1,1,-4,-1,-2,-1,-1,0
1480535264731801,-5,1,3,-1,0,-3,0,0
1480535264732302,1,7,-5,-1,-2,-2,-1,-2
1480535264732302,1,-2,-1,0,0,1,-1,2
1480535264735811,0,14,-1,-1,0,0,-1,1
1480535264735811,3,-5,-2,1,0,-2,-2,0
1480535264743332,1,-4,0,-1,-2,1,1,1
1480535264743332,-4,-2,3,0,-1,2,3,0
1480535264767897,0,-11,-6,-2,0,-1,0,-2
1480535264767897,1,-2,-1,-1,-1,-2,0,0
1480535264774915,-3,0,4,2,1,-2,-2,2
1480535264774915,-1,-6,2,-2,-1,2,1,-2
1480535264780932,-1,-7,-5,-2,-2,-1,-2,1
1480535264780932,-3,0,-4,1,-2,-1,1,0
1480535264797977,0,-4,2,0,1,-1,-2,-1
1480535264797977,-2,-6,0,1,0,-1,-1,-2
1480535264799481,-2,1,-2,-1,-1,0,-1,0
1480535264799481,-1,5,-4,-1,-1,0,-2,-2
1480535264813017,-1,-3,-3,-2,-1,-1,-1,0
1480535264813017,2,6,0,-2,-2,-3,-1,-1
1480535264814521,-1,-3,5,2,2,2,-1,0
1480535264814521,-1,-3,1,3,-2,0,0,-1
1480535264827054,0,0,-4,-3,-3,0,0,-1
1480535264827054,2,4,0,0,-1,1,-2,1
1480535264835076,0,-10,-1,-1,-1,-2,-2,0
1480535264835076,-3,0,-3,-3,-1,3,2,1
1480535264849614,-1,-2,0,1,-2,-1,-1,-1
1480535264849614,2,4,-3,-1,-3,-1,-2,-1
1480535264851118,-1,-3,1,-2,-1,0,-1,-2
1480535264851118,-1,-1,0,-1,2,-1,-2,-1
1480535264872676,0,-2,-3,0,-2,-1,0,-1
1480535264872676,-4,-5,-3,-2,-1,-2,-1,0
1480535264874180,0,5,-1,-1,-1,-1,0,0
1480535264874180,0,-3,-2,1,-2,-2,-2,0
1480535264886212,-8,-12,4,1,2,1,2,-1
1480535264886212,-2,-4,0,0,0,-2,1,-2
1480535264895235,0,-6,1,1,1,0,2,2
1480535264895235,0,0,2,-2,-2,-2,-2,-1
1480535264910276,3,1,-7,0,-2,-3,0,-2
1480535264910276,1,-2,-1,0,-1,0,0,0
1480535264933337,-3,-1,1,1,0,-1,0,-1
1480535264933337,-1,-6,1,-2,0,1,-1,1
1480535264934340,2,1,-1,0,-1,-1,0,1
1480535264934340,1,3,-4,-2,-1,-2,-1,-1
1480535264935843,-4,-7,0,1,1,0,0,-2
1480535264935843,1,-1,2,-2,-1,-2,-1,1
1480535264946371,2,5,-7,-1,-2,-1,-1,-2
1480535264946371,-6,-10,-1,-1,1,0,0,0
1480535264955396,2,10,5,0,1,-1,0,-1
1480535264955396,-3,-3,2,0,2,0,1,1
1480535264977959,1,3,1,-3,0,-3,-1,-1
1480535264977959,-2,-16,3,0,1,1,-1,-1
1480535264979459,-9,-21,-3,1,-1,1,1,0
1480535264979459,2,3,-4,-2,-2,-2,0,0
1480535264991992,1,1,1,0,1,0,-1,0
1480535264991992,-2,0,-1,-1,-2,-1,1,-2
1480535264993999,3,7,2,-2,1,-1,-2,-1
1480535264993999,-1,1,-2,-1,1,0,-1,-1
1480535265006533,-1,-4,1,0,1,-1,-1,0
1480535265006533,1,6,0,2,0,0,-1,2
1480535265013550,0,-3,-1,-1,-2,1,0,-1
1480535265013550,-3,-7,-2,0,-2,0,0,-2
1480535265030596,0,0,2,-1,-1,-1,1,1
1480535265030596,2,1,-4,-1,-2,-1,0,-2
1480535265032099,0,-3,1,-1,-3,-1,2,0
1480535265032099,-7,-14,-2,-2,-2,-3,-1,-3
1480535265052153,-4,-1,-4,-1,-1,-1,-2,-1
1480535265052153,2,2,0,-2,-1,-4,0,-2
1480535265053657,-2,-9,-3,-2,1,1,-1,0
1480535265053657,3,3,6,1,-3,-1,-1,-1
1480535265067694,0,-3,-1,-1,1,-2,-2,-1
1480535265067694,3,3,-4,0,-1,-1,-1,0
1480535265075715,4,0,-3,-1,-2,-5,-4,-1
1480535265075715,0,0,-2,0,0,0,0,0
1480535265089753,2,-3,-2,-1,-1,-1,-1,0
1480535265089753,-1,5,-2,0,1,0,-1,0
1480535265091257,1,0,-2,-2,0,-1,-2,-1
1480535265091257,-2,-2,-1,0,-1,0,1,0
1480535265120334,0,0,4,-1,-3,-1,-1,-1
1480535265120334,-3,-6,2,0,-1,1,3,0
1480535265126351,-3,-2,-1,-2,-1,0,0,1
1480535265126351,2,-1,-3,-1,-1,-4,-3,0
1480535265134873,-5,-8,1,1,-1,-1,0,-1
1480535265134873,-1,-2,2,1,-1,-1,-1,0
1480535265136377,0,-3,-2,-1,0,-1,-1,0
1480535265136377,2,0,-1,-1,-1,-1,1,0
1480535265149412,0,3,-4,1,0,-1,-1,-2
1480535265149412,-2,-6,0,1,0,1,0,0
1480535265163449,2,-5,-4,-1,-2,-2,-2,0
1480535265163449,0,18,-2,-2,2,1,0,1
1480535265172474,-1,3,5,-1,-3,-2,-1,1
1480535265172474,-2,-3,-2,8,1,0,0,1
1480535265173976,0,-2,-2,-9,-2,-2,0,-1
1480535265173976,0,2,4,3,1,0,1,-1
1480535265186009,-1,-5,-3,0,2,2,1,1
1480535265186009,2,4,-4,-6,-1,-1,-1,-1
1480535265195037,0,4,-1,6,1,0,0,-2
1480535265195037,-7,-2,5,1,-1,0,0,1
1480535265210076,5,5,-5,-2,-2,0,0,0
1480535265210076,0,-5,1,-1,-1,0,-2,0
1480535265212581,-1,0,2,1,1,1,2,1
1480535265212581,0,-2,-12,-4,-2,-1,-2,0
1480535265232633,1,9,2,0,0,1,-1,0
1480535265232633,2,1,-3,-2,-2,-2,-3,-2
1480535265234639,1,-2,-2,-2,-4,-1,1,-1
1480535265234639,2,1,1,0,-1,0,-1,-2
1480535265246670,-2,-5,0,-1,0,0,0,1
1480535265246670,0,0,2,-2,0,-1,-1,-2
1480535265253188,-5,-8,-9,-1,1,-2,-3,0
1480535265253188,-3,8,2,2,2,0,1,-1
1480535265269732,-2,-2,2,-2,-2,0,-1,-2
1480535265269732,-3,0,2,-2,-2,-1,0,0
1480535265271236,0,8,-5,-1,0,-1,-1,-1
1480535265271236,-1,-4,0,-1,-2,-2,-2,0
1480535265292292,2,2,-2,-1,-1,1,0,-1
1480535265292292,4,4,0,-1,2,-1,-1,0
1480535265293796,-5,-2,8,3,-2,1,3,1
1480535265293796,2,-2,-3,-1,-2,-1,-1,0
1480535265306466,-1,-3,3,-1,-1,-2,0,-2
1480535265306466,2,3,-5,-3,-2,-2,-4,-2
1480535265320867,2,-3,2,1,0,1,-2,3
1480535265320867,2,0,2,-2,-1,0,0,-1
1480535265330393,-4,-1,2,0,1,-1,-2,-1
1480535265330393,-3,-4,0,-3,-3,-2,-1,-1
1480535265332900,0,-1,6,1,0,-2,0,-1
1480535265332900,1,-3,-1,-1,-1,-2,-1,0
1480535265352452,2,-1,-6,0,-3,-3,0,-1
1480535265352452,-3,-6,-4,0,2,1,1,-1
1480535265358468,0,-4,4,0,-1,1,0,-1
1480535265358468,-2,-1,1,0,0,0,2,1
1480535265366497,-1,-1,-1,-2,-1,-2,0,-1
1480535265366497,-3,-3,0,1,3,1,2,0
1480535265375012,4,17,-1,2,-3,-3,-2,0
1480535265375012,-1,-7,-2,-1,-2,0,0,-1
1480535265389550,-6,-8,-6,-1,-2,0,-1,-1
1480535265389550,-2,-5,-4,-2,0,0,0,0
1480535265391556,-1,-11,-6,-2,2,-1,-2,-3
1480535265391556,-2,-5,-2,-1,-1,-1,1,-1
1480535265412112,2,-2,-6,-2,0,0,0,-1
1480535265412112,-3,1,3,1,-2,0,-1,-1
1480535265413614,-2,-1,-1,2,1,0,0,1
1480535265413614,2,-2,0,-2,-1,0,-2,0
1480535265426148,6,-2,-3,-1,0,1,-1,0
1480535265426148,0,0,2,-1,-2,-2,-1,-1
1480535265441188,2,-3,-9,-3,-2,-2,-1,-2
1480535265441188,0,-1,-1,0,0,-1,-1,-2
1480535265449711,1,-3,1,-1,2,1,0,0
1480535265449711,0,-7,-1,0,1,1,-1,-1
1480535265451214,1,0,2,-2,1,-1,-2,-2
1480535265451214,-10,-9,5,4,-2,-1,1,1
1480535265472273,-4,4,0,0,-1,0,-3,1
1480535265472273,-4,-16,-6,-2,-2,0,0,-1
1480535265473774,-3,-4,-1,-2,-2,-3,-1,-1
1480535265473774,2,5,-2,-1,1,-1,-1,-2
1480535265485807,-1,-7,1,0,-2,-2,0,2
1480535265485807,-1,1,-2,-1,-1,0,-1,1
1480535265495333,4,1,-3,-2,1,-1,-1,0
1480535265495333,-5,-10,0,1,2,1,1,-3
1480535265510373,-3,-7,2,0,0,1,0,-3
1480535265510373,0,0,2,-1,-1,-2,-1,1
1480535265511876,-2,-10,-5,-2,0,1,0,0
1480535265511876,1,-3,-4,-2,0,-1,0,-1
1480535265532430,-4,-2,2,1,-2,-2,0,0
1480535265532430,0,-2,-2,0,0,0,1,-1
1480535265533934,-1,-4,3,0,0,-1,0,-1
1480535265533934,5,-1,-1,0,0,-2,-1,0
1480535265545966,9,12,-6,-2,-2,-2,0,-1
1480535265545966,-3,-3,-1,-1,-1,0,-1,0
1480535265561007,-2,5,3,0,-1,0,-1,0
1480535265561007,2,8,-5,-2,1,0,0,0
1480535265569530,1,1,3,1,0,0,2,0
1480535265569530,2,0,-2,0,-1,-2,-1,-2
1480535265571534,-1,-4,3,-1,-4,1,0,0
1480535265571534,-4,-1,-1,0,1,0,-1,0
1480535265593092,-2,1,1,-1,0,1,0,2
1480535265593092,-1,1,-1,-1,1,-1,-1,1
1480535265594598,-2,2,3,3,-2,-3,-3,-2
1480535265594598,-4,-6,0,-2,-2,-2,-1,0
1480535265606126,-5,-3,1,-2,-1,0,-1,-2
1480535265606126,0,4,1,-1,-3,0,-1,-1
1480535265614649,2,4,-3,-1,2,-1,0,0
1480535265614649,3,-7,-1,1,0,1,-1,1
1480535265629689,0,-13,-11,-1,0,-1,-3,-3
1480535265629689,4,-12,-1,2,3,2,6,0
1480535265631193,-3,-13,4,1,1,0,-1,-1
1480535265631193,2,41,-1,0,-3,0,2,0
1480535265652249,-2,0,1,-1,0,-1,-1,-3
1480535265652249,2,-7,-4,-1,-1,-1,-1,0
1480535265653754,2,6,-1,-2,0,0,0,0
1480535265653754,-1,-9,-1,-1,-1,-1,-1,-2
1480535265665785,2,3,2,-1,-1,-1,-1,-1
1480535265665785,-1,10,4,0,-4,-1,-2,1
1480535265690852,-3,-3,0,0,-1,0,0,1
1480535265690852,0,0,-8,-3,-3,-4,-2,1
1480535265691854,-3,-1,2,-1,-1,0,2,-1
1480535265691854,-4,-13,0,1,3,2,0,-1
1480535265693861,2,3,-3,-1,-3,0,-1,0
1480535265693861,-2,-18,0,1,0,1,-1,-1
1480535265728454,1,4,-1,1,-2,0,-1,1
1480535265728454,1,-5,-3,-1,-1,-2,-2,0
1480535265729956,0,8,-1,-1,-1,-1,0,0
1480535265729956,0,-2,1,-1,0,1,-2,-1
1480535265730959,-1,0,3,0,-1,-1,0,-1
1480535265730959,1,11,1,0,-1,-1,-2,-1
1480535265740985,-1,-5,-1,0,1,1,0,0
1480535265740985,-6,-3,4,0,-1,-1,0,0
1480535265757028,-1,5,1,2,-2,-3,-3,-1
1480535265757028,3,-1,-10,-2,-2,-1,-1,-3
1480535265760037,3,1,-6,-2,0,0,-1,0
1480535265760037,1,-1,0,-1,-1,1,0,1
1480535265772069,-3,-6,0,-1,1,0,2,-1
1480535265772069,0,-3,-1,-1,-3,-1,-1,0
1480535265774074,-6,-6,2,0,0,1,2,-1
1480535265774074,-2,13,1,1,0,0,-4,-2
1480535265794631,1,-5,-1,-1,0,1,-3,1
1480535265794631,-5,5,5,2,1,-2,1,-1
1480535265796133,0,-1,0,-2,0,-2,-2,-2
1480535265796133,0,-10,1,-2,-1,0,2,0
1480535265809668,2,0,-2,0,-1,0,-1,0
1480535265809668,-1,2,1,-1,0,-2,1,0
1480535265811172,1,-5,2,1,0,0,-2,-1
1480535265811172,0,-2,0,0,-2,-2,-1,0
1480535265832228,2,12,-3,-2,-2,-1,0,-1
1480535265832228,-4,-12,1,0,0,1,0,-1
1480535265833732,-3,-12,0,-1,-3,-2,0,1
1480535265833732,0,-6,-4,-2,3,1,1,-1
1480535265855289,-1,-5,2,1,1,0,0,-1
1480535265855289,-1,3,1,-2,-1,-2,-2,-1
1480535265856793,0,0,-4,-2,-1,0,-1,0
1480535265856793,1,-2,2,-1,-3,-2,-2,-2
1480535265870330,-5,7,3,-2,-1,1,1,1
1480535265870330,0,-7,1,0,0,1,1,-1
1480535265875844,0,-3,2,0,-2,-1,-2,-1
1480535265875844,-1,-1,0,-1,-2,-1,0,-1
1480535265892388,1,-6,-4,0,-1,0,-1,1
1480535265892388,1,-7,-2,-2,-1,-1,-1,-2
1480535265895397,-2,-7,0,1,1,2,2,0
1480535265895397,2,4,1,-1,-1,-1,-2,0
1480535265913946,0,-10,-5,0,0,0,-1,-2
1480535265913946,5,10,-3,-2,-1,0,-2,-1
1480535265923470,-6,-6,-1,1,-3,-1,-1,-2
1480535265923470,2,-5,-1,-2,-2,-1,-1,-2
1480535265929988,-2,-3,3,1,3,1,-1,0
1480535265929988,-1,4,-1,0,-2,0,-1,-1
1480535265932495,1,5,-2,-3,0,0,-1,-3
1480535265932495,5,-8,-5,-1,-2,-3,-3,0
1480535265960069,-3,3,-2,0,-1,-1,0,-1
1480535265960069,-1,-11,0,0,1,1,-1,0
1480535265966084,0,0,0,0,-1,-1,-1,-1
1480535265966084,-1,-2,-3,0,-1,-1,-3,0
1480535265974738,3,-5,2,-3,0,0,0,2
1480535265974738,-4,-3,3,-1,1,1,2,1
1480535265976110,4,3,-5,-2,-2,-3,-3,0
1480535265976110,-2,1,-2,0,-1,1,0,0
1480535265989145,-6,-16,3,2,0,0,0,2
1480535265989145,-2,-5,3,1,0,-1,0,1
1480535265996666,-4,-2,3,1,1,1,-1,-1
1480535265996666,-1,0,-1,-1,0,-2,-1,-1
1480535266012206,0,-1,-2,0,0,-1,-1,-2
1480535266012206,-1,-2,-2,0,-1,-1,-2,-1
1480535266013711,-1,17,-1,1,-1,0,1,2
1480535266013711,-2,-6,-1,-1,-1,-1,-1,-2
1480535266033763,-1,8,-4,0,0,-1,0,-1
1480535266033763,9,-4,-8,-2,-2,-2,-2,0
1480535266043289,6,6,-4,-4,-1,-2,-2,-1
1480535266043289,-7,-12,6,0,1,0,0,0
1480535266048804,1,1,-9,-2,-1,1,0,-2
1480535266048804,0,-11,-2,-1,-2,-1,-1,-2
1480535266063344,2,1,-1,1,0,0,-1,0
1480535266063344,1,7,0,0,0,0,1,0
1480535266072366,1,-13,-1,-1,-2,-5,-3,-3
1480535266072366,-2,8,0,-1,-1,0,-1,-1
1480535266073872,-2,-6,-2,-1,0,0,2,1
1480535266073872,1,9,0,-2,0,0,-1,1
1480535266094930,-3,-4,1,0,-2,-2,-1,-1
1480535266094930,-5,0,-1,-2,-3,0,0,0
1480535266096431,-1,-4,3,0,-1,-2,-2,0
1480535266096431,-3,-3,-3,0,1,2,0,-2
1480535266108963,5,9,-1,-2,-2,-1,-2,-1
1480535266108963,-2,0,2,0,0,1,1,1
1480535266115983,-3,-15,0,-1,-2,-2,0,-2
1480535266115983,-2,2,1,1,-1,-1,-2,-1
1480535266133028,-2,3,1,-2,0,0,0,0
1480535266133028,-2,9,1,-1,-1,-1,-2,-2
1480535266134532,-1,-3,0,0,-1,0,-1,0
1480535266134532,0,1,1,-1,-1,0,1,-1
1480535266154084,1,1,-1,-1,1,-1,-1,-1
1480535266154084,-3,-9,-3,-1,0,0,-1,-2
1480535266162609,-2,2,3,0,-2,0,0,-1
1480535266162609,1,-2,-3,1,0,-1,-1,-1
1480535266169125,-4,-18,1,-4,-1,0,-1,-2
1480535266169125,-2,-6,0,-1,-2,0,0,1
1480535266200207,2,36,-4,0,-1,2,2,2
1480535266200207,1,4,-2,-2,-1,-2,-1,2
1480535266201209,-1,-1,-2,1,-2,-1,0,0
1480535266201209,2,-2,-1,-1,2,-1,-1,-2
1480535266202713,1,-5,-4,-1,-1,-1,-1,-3
1480535266202713,3,-7,-5,-1,-2,0,-1,-2
1480535266215247,-3,7,2,2,0,0,1,0
1480535266215247,-3,0,2,1,-1,-1,0,0
1480535266217253,0,-7,2,0,0,0,-1,0
1480535266217253,2,0,-3,-1,1,0,0,-2
1480535266229284,2,-5,1,-1,-1,0,0,0
1480535266229284,0,7,-3,-1,-1,0,0,-1
1480535266244324,-2,-10,2,1,0,-3,0,-1
1480535266244324,-2,1,2,-2,0,-1,-1,1
1480535266252346,-3,-6,-1,1,1,0,2,-1
1480535266252346,0,-5,-6,-2,-1,-1,-2,-2
1480535266253850,0,-6,-2,-2,0,-1,-1,1
1480535266253850,-3,2,-1,-1,-1,-2,-1,0
1480535266273903,0,-5,-2,-1,3,0,1,-2
1480535266273903,2,3,1,-2,-4,-4,-2,-1
1480535266282426,-2,-8,-2,0,1,-1,1,-2
1480535266282426,0,0,1,0,0,-1,-1,-1
1480535266288943,-2,-5,-4,1,-3,-2,-2,0
1480535266288943,-1,0,1,-2,0,-1,0,0
1480535266295962,-1,-2,-1,-2,0,-1,-1,-1
1480535266295962,-3,-7,-1,-1,0,0,3,0
1480535266319527,-1,20,2,-1,-1,-2,-2,1
1480535266319527,-1,-4,-1,0,0,1,0,0
1480535266321529,0,-5,-1,-1,-2,-1,-2,-1
1480535266321529,-2,8,0,0,-1,0,-1,2
1480535266343086,-1,2,6,0,-1,0,0,-1
1480535266343086,-4,-8,1,2,0,2,2,-1
1480535266344591,1,9,2,-1,0,-1,-1,1
1480535266344591,-1,-3,-2,-2,0,1,1,-1
1480535266356121,3,-2,-3,0,-1,-1,-3,-2
1480535266356121,1,9,0,-2,-1,-1,-1,-1
1480535266365146,-3,-4,0,-1,-2,0,-1,-2
1480535266365146,-1,-5,-6,0,0,0,-1,-1
1480535266372667,0,1,1,0,-2,1,-1,0
1480535266372667,1,7,2,0,-2,-3,-1,0
1480535266378180,-3,-11,-3,-3,1,3,1,0
1480535266378180,4,4,1,-1,-3,-3,-2,-1
1480535266395729,-1,-8,-4,-4,-1,-1,1,0
1480535266395729,1,1,1,2,-1,0,1,0
1480535266400741,-1,1,-2,-1,0,-2,-1,1
1480535266400741,-1,-1,2,-1,-2,0,-1,-1
1480535266408260,-6,0,2,-1,-1,0,0,0
1480535266408260,-3,-5,-2,-1,2,0,0,1
1480535266417285,-5,-6,1,1,0,0,1,0
1480535266417285,0,-1,1,0,-1,0,-1,0
1480535266432325,6,3,-2,-2,-1,-2,-1,0
1480535266432325,-3,-3,2,-1,-1,-2,-2,-2
1480535266433828,-3,-10,-6,-1,0,0,0,0
1480535266433828,-1,2,-1,-1,-1,-2,1,-1
1480535266470425,0,-1,-2,-1,-2,0,0,0
1480535266470425,3,-7,-1,1,-1,-2,-2,0
1480535266471930,1,1,3,1,-1,0,-1,0
1480535266471930,-3,-3,0,-1,1,0,0,-1
1480535266477444,-1,-8,-2,-1,-1,-1,0,-1
1480535266477444,-6,-13,-2,1,1,2,1,-1
1480535266478948,-1,3,1,0,-1,-1,0,0
1480535266478948,-2,-13,-2,0,0,1,0,-1
1480535266516049,-2,1,2,-1,1,1,1,-1
1480535266516049,2,0,-3,-4,0,0,0,-1
1480535266517551,2,3,0,-2,-5,-2,0,-1
1480535266517551,2,-3,-1,-1,-3,-2,-2,0
1480535266518555,-2,-6,-1,1,2,-1,-1,0
1480535266518555,1,11,-1,-1,-1,0,0,-2
1480535266529084,-2,-5,-2,-1,1,0,-2,-1
1480535266529084,1,5,0,-4,-3,-1,-1,1
1480535266529583,4,8,0,1,-1,-1,-2,0
1480535266529583,-1,1,-1,0,0,1,-2,1
1480535266560164,5,-1,-3,0,1,0,-2,-1
1480535266560164,-3,2,1,1,-3,-2,2,0
1480535266561167,3,0,-3,-1,0,-1,-1,-1
1480535266561167,4,-5,-1,-2,-1,-2,0,0
1480535266562672,-3,-4,0,-1,-1,-1,0,-1
1480535266562672,-2,-4,-1,-2,-1,-1,-1,-1
1480535266575204,-4,-8,-1,0,-2,0,-2,-1
1480535266575204,1,0,1,-1,-1,-2,-2,2
1480535266576709,-3,-6,-1,-1,0,0,-1,-1
1480535266576709,-1,7,-9,-1,1,-2,0,-1
1480535266588238,-2,1,0,-4,-4,-1,-1,1
1480535266588238,1,-3,-1,-1,-1,0,-1,-1
1480535266597265,2,1,-1,-3,-3,-3,0,-1
1480535266597265,1,-6,1,-2,0,0,-2,-1
1480535266619823,-6,-15,0,0,0,-1,1,-1
1480535266619823,2,2,-2,0,-2,-1,-3,1
1480535266621327,5,4,-3,0,1,1,0,0
1480535266621327,3,2,3,0,-2,-1,0,0
1480535266635364,-3,3,-1,-1,-2,-1,-1,-1
1480535266635364,-1,-7,0,1,1,1,1,-1
1480535266636870,1,1,1,1,-1,-2,-2,-1
1480535266636870,-2,-1,-3,1,2,1,1,-1
1480535266648399,3,-3,0,0,0,0,1,0
1480535266648399,-1,0,2,-1,-1,-1,1,0
1480535266663440,0,-1,-2,-3,-1,-3,-4,0
1480535266663440,-3,-1,1,1,-2,-2,-1,-1
1480535266679483,0,15,0,-1,1,0,1,1
1480535266679483,0,-4,-2,-2,-3,-4,-2,-1
1480535266681488,1,2,1,-3,0,0,1,-1
1480535266681488,0,1,-1,-1,1,0,-4,-1
1480535266694522,3,-1,-1,-1,-1,-1,-1,-1
1480535266694522,3,7,0,0,0,0,0,-1
1480535266709061,-2,9,-2,1,1,0,1,0
1480535266709061,-1,-6,1,1,-1,0,-1,2
1480535266710063,-3,-5,4,1,2,1,1,-1
1480535266710063,-3,2,-1,-1,0,0,0,0
1480535266717583,-2,-6,0,1,-3,0,1,0
1480535266717583,-1,1,1,0,0,-2,-1,0
1480535266732123,1,-1,1,0,-1,1,0,-1
1480535266732123,-5,-11,-1,0,0,3,2,-1
1480535266734127,-2,-4,-1,2,-1,-2,-1,-1
1480535266734127,-1,4,0,-2,-1,0,0,-1
1480535266754682,-1,-2,0,-1,-2,-1,-1,0
1480535266754682,2,-8,-2,0,0,0,-2,0
1480535266757189,0,5,-1,-2,-2,0,-1,0
1480535266757189,1,-2,-3,0,-2,-2,-1,-2
1480535266777242,0,-2,0,0,0,-2,-1,-1
1480535266777242,-1,-2,-3,-1,2,-1,-2,-3
1480535266780753,2,1,-1,0,-2,-2,0,1
1480535266780753,2,-3,2,1,-1,-2,0,1
1480535266791279,0,-5,-3,1,-1,1,0,-1
1480535266791279,-1,2,-1,-1,-1,-2,0,0
1480535266800805,-1,-6,0,-1,0,1,-1,0
1480535266800805,2,-5,-2,0,1,-2,-3,-2
1480535266822863,-2,0,2,0,-1,1,1,0
1480535266822863,1,1,-10,-2,-2,-3,-1,0
1480535266824367,-16,-23,11,4,-1,2,0,-2
1480535266824367,3,2,-2,-2,-2,0,0,0
1480535266837402,-3,-4,-2,-1,-2,0,-1,0
1480535266837402,-4,1,4,1,-1,2,1,-1
1480535266838907,4,3,-4,-1,-1,0,-1,-1
1480535266838907,-1,-4,-1,-1,-1,1,1,-1
1480535266852441,-2,6,-4,-1,-1,-2,-1,-1
1480535266852441,-1,0,-2,0,0,0,1,-1
1480535266858457,1,1,-4,-3,-1,-3,-2,-2
1480535266858457,-6,0,2,3,0,2,3,0
1480535266874502,4,-3,-5,-1,0,-1,0,0
1480535266874502,0,-6,-2,-1,-1,-2,0,-1
1480535266876507,2,3,2,2,1,-2,1,0
1480535266876507,-4,-5,-9,-2,1,2,0,0
1480535266898568,-1,-4,3,2,-1,-1,-2,0
1480535266898568,0,-2,4,0,0,-1,-1,-1
1480535266901071,-1,-1,-1,-1,0,0,1,-1
1480535266901071,0,9,5,0,-2,-3,1,0
1480535266911599,-10,-11,4,-1,-1,-2,1,-1
1480535266911599,-1,1,-2,-1,0,-1,-1,1
1480535266918618,2,-3,0,0,-1,0,0,-3
1480535266918618,1,-5,-3,-2,0,-1,-2,-2
1480535266934660,5,4,-3,-2,0,0,-2,-1
1480535266934660,-2,-10,-1,-1,-1,0,0,0
1480535266936164,-2,-20,0,-2,-4,-3,1,1
1480535266936164,-1,0,-1,0,-2,0,-1,0
1480535266958223,2,-4,-3,-2,-1,-1,-2,-1
1480535266958223,1,-6,-1,-1,0,0,0,0
1480535266960730,2,4,-9,-1,0,-1,-1,-2
1480535266960730,-2,-2,3,-1,0,0,-1,-2
1480535266971759,0,-1,2,0,-1,-3,1,-2
1480535266971759,0,1,0,-1,0,0,-1,0
1480535266978277,2,3,0,-1,-2,1,-2,0
1480535266978277,-2,-6,1,0,1,0,-1,-3
1480535266994821,-1,4,-2,0,0,-3,-1,1
1480535266994821,-3,-3,1,2,-3,1,1,-1
1480535266996325,-1,4,-1,1,0,-1,-1,0
1480535266996325,2,0,-1,-1,-2,-2,-1,0
1480535267017380,-1,3,1,-2,-2,0,-2,-1
1480535267017380,3,3,-2,0,0,-2,-1,-1
1480535267018888,-2,-2,-2,-3,0,1,-1,0
1480535267018888,1,2,0,-1,0,-2,0,0
1480535267031921,2,-2,-1,0,-1,1,0,0
1480535267031921,-2,-6,-5,-1,-1,0,0,2
1480535267038437,-2,-2,3,-1,0,0,0,-2
1480535267038437,-3,-5,2,0,-2,-1,-3,0
1480535267062503,0,-2,0,-1,2,-1,0,-2
1480535267062503,2,1,0,0,-1,-2,-1,-2
1480535267064506,2,-4,-5,0,-1,1,0,2
1480535267064506,-1,2,0,-1,-1,-2,-1,-1
1480535267078042,-7,-5,-1,1,2,1,0,-1
1480535267078042,-2,-3,3,-1,-2,-2,-2,0
1480535267079546,2,6,0,0,0,1,-1,-2
1480535267079546,-1,-3,-2,-2,-2,0,1,1
1480535267107119,2,5,-3,-1,-2,0,-3,0
1480535267107119,-1,-1,-2,0,2,0,-2,1
1480535267108623,2,6,1,-2,0,-1,-1,0
1480535267108623,-11,-4,1,2,-1,0,1,-1
1480535267114642,2,2,-1,0,-2,0,-1,0
1480535267114642,-1,2,2,1,-1,0,1,-3
1480535267116143,2,2,0,-1,-1,-2,-3,1
1480535267116143,3,-1,-2,1,2,1,-2,-2
1480535267136698,1,4,-2,0,-1,-3,0,-1
1480535267136698,-2,14,2,0,0,-1,0,-2
1480535267153743,-2,-3,-1,0,-1,-2,-1,-2
1480535267153743,0,0,-2,0,0,1,1,2
1480535267154746,-1,-6,0,-2,-2,0,-1,2
1480535267154746,-4,-5,0,-4,-2,0,0,-2
1480535267158757,-1,-4,0,-2,0,-1,-1,-1
1480535267158757,2,11,-2,0,1,0,-2,0
1480535267181317,1,0,3,-1,-2,-2,-2,-1
1480535267181317,0,-4,-7,-1,0,-1,-1,-1
1480535267189839,-2,-6,0,0,-1,1,-1,0
1480535267189839,-3,-6,1,-2,0,-1,-1,-1
1480535267197362,0,0,-1,0,0,1,1,-1
1480535267197362,2,-4,-1,0,-2,-1,-2,1
1480535267198867,-1,2,1,0,0,1,1,-2
1480535267198867,0,-11,-1,0,1,0,0,-1
1480535267211397,-1,3,0,1,-1,0,-1,1
1480535267211397,1,4,1,1,0,0,-1,1
1480535267218415,-4,-2,1,0,-1,0,0,0
1480535267218415,3,2,1,-2,-1,-2,-1,-1
1480535267234959,-1,-2,0,-1,-2,-1,1,0
1480535267234959,2,-2,-1,-1,-1,-2,-1,-1
1480535267236463,4,2,-1,0,-1,-2,-1,-1
1480535267236463,-5,-1,0,-1,1,2,2,-1
1480535267258020,-2,-6,-4,-3,1,-2,0,0
1480535267258020,-3,-7,4,-2,0,-1,0,0
1480535267260026,0,2,-1,1,-1,-4,-1,-1
1480535267260026,2,3,0,0,-1,-2,-2,-1
1480535267271056,2,-4,0,-3,0,0,0,0
1480535267271056,-1,-1,0,-2,0,0,0,1
1480535267280080,-1,-4,0,0,-1,2,1,0
1480535267280080,2,5,-1,-1,-3,-1,-2,-2
1480535267295119,-3,-4,-2,0,-1,0,1,-1
1480535267295119,-1,-4,-1,0,-1,-2,0,-1
1480535267300634,-2,-6,-1,1,0,2,1,0
1480535267300634,2,3,-1,-1,-1,-1,0,1
1480535267317178,-1,-2,0,0,2,0,-2,-1
1480535267317178,-2,-7,-1,-1,0,2,1,0
1480535267318682,-2,-5,-8,-2,-2,-2,-3,0
1480535267318682,-1,-12,-2,0,0,-1,0,-2
1480535267330716,-5,-7,3,1,-1,0,-3,0
1480535267330716,-4,-6,0,1,1,3,1,-2
1480535267347258,0,-3,0,-1,-1,-1,0,1
1480535267347258,-1,-7,1,-1,0,0,0,-1
1480535267354778,1,1,-3,-1,1,-2,-2,0
1480535267354778,0,-6,-1,-1,-2,-1,-2,-2
1480535267356282,0,-1,1,-2,-3,-1,0,0
1480535267356282,1,3,-2,0,0,0,-3,0
1480535267377338,1,-1,0,0,0,-1,2,-1
1480535267377338,-2,0,-3,-1,-2,-1,-1,1
1480535267378842,-1,-2,1,-2,1,-2,-2,-2
1480535267378842,1,-2,-1,-2,0,-2,-2,-1
1480535267390873,2,-4,0,1,1,1,-1,-1
1480535267390873,-2,-1,-1,-1,-1,0,0,-1
1480535267399898,-1,-5,-1,0,-1,-1,-2,-1
1480535267399898,-6,-5,-3,-1,0,2,1,2
1480535267414938,-1,-3,-2,0,-2,0,0,-2
1480535267414938,1,3,1,-1,-1,-2,0,0
1480535267417946,-3,-4,1,-2,-1,-1,-1,-1
1480535267417946,1,3,0,0,-1,-2,-1,-1
1480535267438000,1,2,-3,-1,-1,0,-1,1
1480535267438000,0,-6,-2,0,-2,0,-3,-3
1480535267439503,-2,-19,-3,-2,-2,0,0,1
1480535267439503,-1,4,1,1,-1,-2,-1,1
1480535267459556,2,-3,0,-2,-2,-1,-1,-2
1480535267459556,-1,-1,-4,0,2,-1,-1,0
1480535267461563,0,-2,0,1,1,1,0,-1
1480535267461563,-7,-3,7,-1,-1,0,2,0
1480535267475611,-1,1,-1,-1,0,0,0,0
1480535267475611,1,-1,-2,-1,0,-2,0,0
1480535267479110,-1,1,-1,0,0,0,-1,-1
1480535267479110,1,-3,-1,-1,-1,1,-1,0
1480535267497157,0,4,-1,0,0,0,-1,-1
1480535267497157,-2,-6,1,1,-1,-1,0,-1
1480535267513201,-1,-3,-3,-1,0,-1,2,-1
1480535267513201,-3,4,0,0,0,-1,-1,-2
1480535267513702,-1,3,1,-1,-1,-4,-1,-1
1480535267513702,2,-1,-3,-1,-1,2,-1,0
1480535267520719,-2,-2,-2,0,0,-1,0,-2
1480535267520719,1,0,-2,0,-1,-1,-1,-1
1480535267534756,0,-1,-7,-1,-1,-1,1,-1
1480535267534756,-1,-3,2,0,-3,-1,1,0
1480535267536261,2,-1,2,1,0,0,0,0
1480535267536261,1,-2,-2,-1,-3,0,-1,0
1480535267557316,-1,-3,1,0,0,0,-1,0
1480535267557316,0,-1,0,0,-2,-1,-1,0
1480535267559824,0,3,-2,-2,-1,0,-1,-1
1480535267559824,3,4,-1,0,0,0,0,0
1480535267570853,-2,-2,3,1,-1,1,-2,0
1480535267570853,-1,1,0,-3,-2,-2,-2,-1
1480535267579877,-1,4,0,-2,-1,-1,-1,0
1480535267579877,-1,-2,-2,0,-2,0,-1,0
1480535267594916,0,-2,0,0,-2,0,-1,-1
1480535267594916,0,1,0,-1,1,-1,1,1
1480535267596422,-2,1,4,0,-2,0,-1,1
1480535267596422,0,1,-6,0,0,-1,0,-1
1480535267624996,-2,0,-1,-1,-1,-1,1,-1
1480535267624996,0,3,5,-1,0,0,-1,-3
1480535267632520,0,6,-4,-3,-1,-2,-1,-2
1480535267632520,0,12,1,-1,0,-1,0,2
1480535267634522,-4,-2,-1,0,0,0,-2,-2
1480535267634522,4,2,-5,-2,-2,-3,-4,0
1480535267640036,-5,-5,6,1,-1,0,1,1
1480535267640036,-3,-9,-3,0,2,1,0,0
1480535267653579,-1,2,-1,-2,0,-3,-2,1
1480535267653579,0,7,-1,1,1,-1,0,0
1480535267662606,1,-5,-1,1,0,-1,-2,-2
1480535267662606,-1,-3,-1,0,-2,0,0,-1
1480535267677143,1,0,-1,-2,-1,1,0,1
1480535267677143,-6,-6,1,0,1,1,1,0
1480535267679148,-7,-5,3,0,0,-2,0,-2
1480535267679148,-1,0,-1,1,1,0,0,-1
1480535267690678,4,0,-2,-3,-2,-2,-1,0
1480535267690678,0,0,0,-2,-1,0,-2,1
1480535267699705,3,-4,-1,-1,0,0,0,0
1480535267699705,1,11,3,-2,-3,-1,0,0
1480535267715245,-4,-2,0,-1,0,0,1,-2
1480535267715245,2,-4,-2,-1,-1,-2,0,-1
1480535267716749,-2,-5,-1,0,1,0,-2,0
1480535267716749,-1,-5,-1,-1,0,-3,-1,0
1480535267737804,1,2,0,2,0,-1,1,1
1480535267737804,-3,-8,0,-1,-1,-1,1,-1
1480535267739307,0,4,-1,-2,0,0,-1,-1
1480535267739307,1,-6,-1,-2,0,0,0,-2
1480535267758859,-1,-3,3,0,0,-1,-1,0
1480535267758859,-3,-6,-8,-2,1,0,0,1
1480535267782926,2,5,-4,1,-2,-2,2,1
1480535267782926,-1,-5,2,0,-1,-2,0,0
1480535267783427,1,-4,-1,-1,-1,0,0,-2
1480535267783427,1,1,2,0,0,-1,-1,1
1480535267785430,1,3,-1,-1,0,0,-1,-1
1480535267785430,-2,-5,-2,-1,-2,1,0,-1
1480535267797463,0,2,1,-1,0,-1,-1,-1
1480535267797463,1,0,-1,-2,-1,0,1,-1
1480535267798967,0,-6,-3,-1,-2,0,1,0
1480535267798967,1,-1,0,-1,-2,0,2,5
1480535267819521,1,-3,0,-1,0,2,4,8
1480535267819521,0,3,1,1,-2,-3,-6,-11
1480535267821526,-3,-3,0,-2,-3,-6,-14,-19
1480535267821526,1,6,-1,1,1,-1,-1,-1
1480535267834560,-1,-6,-3,-2,-3,0,0,2
1480535267834560,0,0,2,-1,0,2,5,11
1480535267836566,2,-1,1,0,1,3,5,4
1480535267836566,3,1,-4,-1,0,-2,-3,-5
1480535267857122,1,-1,-3,-1,0,-1,0,2
1480535267857122,-4,-6,3,2,-3,-1,0,-2
1480535267859126,-5,-1,-2,1,0,0,0,3
1480535267859126,0,-3,-3,-2,1,0,-2,-2
1480535267878678,-1,-1,-3,1,2,0,-1,-2
1480535267878678,3,2,-1,-2,-1,-3,-3,-3
1480535267887201,0,-2,-1,-1,1,1,1,1
1480535267887201,0,-3,-2,0,-2,2,-1,2
1480535267894219,-4,-15,-3,-1,-2,-3,-4,-7
1480535267894219,-4,-11,1,0,1,1,3,-1
1480535267918283,0,0,-2,-2,0,0,2,4
1480535267918283,-2,-4,2,2,-1,-1,0,-1
1480535267919287,0,3,2,-1,-1,-1,-3,-3
1480535267919287,0,-3,-3,-1,-2,1,-1,0
1480535267920790,3,5,-2,-1,-3,-2,-1,1
1480535267920790,-12,-15,6,0,2,1,1,0
1480535267939841,-3,2,3,3,-1,0,0,0
1480535267939841,-4,-1,-3,-2,-2,-2,-3,-1
1480535267942348,0,1,-2,-1,-1,1,1,0
1480535267942348,2,5,-2,-1,0,-1,-2,0
1480535267953878,1,4,-2,0,0,0,-2,-1
1480535267953878,0,0,-1,0,-1,-2,0,-1
1480535267968417,0,-6,-4,0,0,-2,-2,-1
1480535267968417,1,-13,-2,-1,-2,0,0,-1
1480535267977441,-1,5,1,1,-1,0,-1,-1
1480535267977441,1,3,1,-1,-2,-1,-1,-1
1480535267978946,-1,1,-1,0,0,1,-1,-2
1480535267978946,1,1,0,-1,-1,-3,1,-1
1480535268001004,0,3,-2,0,-2,-2,-1,-1
1480535268001004,0,-2,0,0,1,1,0,-1
1480535268006017,0,0,2,0,-1,0,-1,1
1480535268006017,7,8,-2,-2,-2,0,-2,-1
1480535268014041,-2,3,2,-1,-1,-1,0,0
1480535268014041,0,-8,-4,1,1,-1,0,0
1480535268021057,-1,-5,4,-1,-1,0,2,1
1480535268021057,-2,2,-3,0,-1,-1,-1,0
1480535268037099,0,-1,-2,-1,-1,0,0,-1
1480535268037099,3,-3,-1,0,0,1,0,-1
1480535268039106,3,6,0,-2,-2,-1,0,0
1480535268039106,-2,-6,0,0,0,-1,-1,0
1480535268060161,1,-7,-4,-2,0,0,0,-1
1480535268060161,0,-1,-1,-2,-1,0,0,0
1480535268062166,-1,-5,1,1,1,0,2,-1
1480535268062166,0,2,1,1,0,0,-2,0
1480535268074702,2,3,0,-1,-1,-1,0,-2
1480535268074702,0,0,0,1,-2,0,0,1
1480535268082223,-1,2,-4,0,-1,-1,0,0
1480535268082223,-1,-14,0,0,-3,0,1,-1
1480535268096258,-4,-3,0,-2,-1,0,0,1
1480535268096258,-2,0,-3,-1,0,-2,-1,-1
1480535268104780,-2,-9,0,-2,0,0,1,0
1480535268104780,0,3,2,-1,0,1,-1,-2
1480535268126838,-1,-1,-9,-1,0,1,-1,0
1480535268126838,-12,-15,7,0,0,2,2,1
1480535268143884,1,-1,-3,1,-2,0,-1,1
1480535268143884,0,8,-2,-3,0,0,-1,0
1480535268145890,3,-2,1,-1,-2,-2,-1,1
1480535268145890,4,0,-2,-2,-1,-2,-1,0
1480535268149899,-2,-1,-2,1,-1,0,-1,-1
1480535268149899,0,0,1,0,0,-1,0,-3
1480535268156417,-3,-8,0,-1,0,0,0,-1
1480535268156417,1,2,-1,-2,0,-1,0,0
1480535268165441,-3,-8,0,0,-1,2,0,-1
1480535268165441,-1,-2,-1,1,-2,-1,-1,-1
1480535268187499,0,-7,-3,-2,1,-2,-1,0
1480535268187499,2,1,-2,0,-1,-1,1,0
1480535268194018,2,8,1,-3,0,-1,-2,-2
1480535268194018,-3,0,-1,-1,0,-1,-1,0
1480535268195020,-5,-5,4,1,1,2,1,-2
1480535268195020,2,29,-1,0,0,-1,0,0
1480535268202539,1,1,-2,-1,0,-2,-2,0
1480535268202539,1,-5,-6,-2,-1,-3,-1,-2
1480535268218582,2,8,-2,-1,-1,-1,0,-1
1480535268218582,1,-7,-3,-2,0,-1,-2,1
1480535268220086,0,-4,0,0,-1,-2,0,-1
1480535268220086,1,4,-8,-2,-1,-2,-1,1
1480535268239638,1,0,-2,-1,1,-2,-1,-1
1480535268239638,-9,-18,4,0,0,0,-1,0
1480535268241144,-1,2,-1,0,-2,1,-1,1
1480535268241144,-5,-1,7,1,-2,1,-3,1
1480535268254178,-2,-3,0,-1,0,0,0,-1
1480535268254178,2,4,-2,0,-2,-1,1,-1
1480535268262199,-1,0,-2,-1,1,-1,0,0
1480535268262199,0,6,2,0,-3,-2,-2,-2
1480535268277239,-6,0,1,2,1,2,0,-2
1480535268277239,0,-4,-2,-2,0,0,-1,-1
1480535268278743,0,2,-1,0,-3,-1,-2,-1
1480535268278743,2,2,-2,0,-1,0,1,1
1480535268298795,0,-1,3,1,0,-3,0,-2
1480535268298795,0,-5,-2,-2,-2,1,-1,-1
1480535268307318,-1,-10,-2,-1,1,1,-2,-3
1480535268307318,-3,3,-1,-1,-1,1,1,0
1480535268313338,0,-2,-2,0,-1,0,-1,0
1480535268313338,2,-2,-9,-1,-3,-1,-1,0
1480535268339622,-2,-11,-1,0,0,0,1,0
1480535268339622,1,5,0,-3,-1,1,1,1
1480535268344918,-1,-2,0,1,0,-2,-1,0
1480535268344918,2,-2,-3,-1,-2,-2,-1,-4
1480535268346423,0,0,-1,2,0,1,-1,-1
1480535268346423,-2,-5,-1,-2,-1,-1,-1,-1
1480535268367479,-2,-4,0,-3,-2,-1,-3,1
1480535268367479,4,2,-2,1,-1,0,-2,-1
1480535268369484,3,4,-1,-2,1,-2,-2,0
1480535268369484,-8,-17,4,1,0,0,0,2
1480535268382518,3,0,-2,-1,-1,0,-1,0
1480535268382518,-1,2,4,-1,-3,-1,1,0
1480535268388534,2,18,1,-1,0,1,2,-1
1480535268388534,0,-3,-2,1,1,-1,0,-2
1480535268405581,0,3,1,1,-1,-1,-2,1
1480535268405581,-2,-4,-2,-2,1,-1,-2,-1
1480535268407083,-2,-11,-3,0,-1,-1,1,-1
1480535268407083,3,1,-4,0,0,1,-1,-1
1480535268420621,2,0,0,-1,-2,1,-1,0
1480535268420621,-4,-2,-7,-2,0,0,0,0
1480535268424128,-1,1,-1,-1,0,-1,-1,0
1480535268424128,-4,-4,2,-1,-1,-1,1,0
1480535268433153,5,1,-4,-2,-1,-1,0,0
1480535268433153,1,-3,1,0,1,0,0,-1
1480535268442177,-2,1,0,-2,-2,0,0,1
1480535268442177,2,2,-2,-1,0,-2,0,-1
1480535268457217,0,-1,0,-2,-1,-2,1,-2
1480535268457217,1,-3,-1,0,0,-1,-1,0
1480535268464740,-3,-10,-2,-1,-1,1,-1,1
1480535268464740,4,-2,2,1,-1,-1,-2,-1
1480535268479778,-1,-5,-2,0,-1,1,1,-1
1480535268479778,0,-12,2,0,0,0,0,0
1480535268482285,-2,-9,-1,-1,-1,-2,0,-1
1480535268482285,1,-5,-3,-1,-1,-2,0,-1
1480535268494316,-3,-3,-1,0,0,-1,1,0
1480535268494316,0,5,2,1,0,0,-2,-2
1480535268502336,1,-1,-1,-1,-1,-3,-1,0
1480535268502336,-1,0,-1,-2,0,0,-1,-2
1480535268517377,-4,-4,1,-2,-1,0,0,-1
1480535268517377,-2,-7,-1,1,0,0,-2,-1
1480535268523392,-2,-4,5,1,-2,-1,-1,-1
1480535268523392,4,5,-7,-1,0,0,-1,0
1480535268539938,-1,-5,0,1,-1,0,0,2
1480535268539938,0,-2,0,-2,-2,-2,0,-2
1480535268541442,-2,2,0,-2,-1,-1,-2,0
1480535268541442,1,3,-1,-2,-1,0,0,0
1480535268553476,1,-1,-1,0,-1,-2,0,0
1480535268553476,-1,2,0,0,-1,0,0,0
1480535268563000,1,2,-2,2,-2,0,-1,0
1480535268563000,-4,-6,3,0,-2,-1,-2,0
1480535268577536,-1,0,-3,-3,0,1,0,0
1480535268577536,-1,5,4,0,-3,0,1,1
1480535268583552,-6,-9,3,1,1,1,1,-1
1480535268583552,-7,11,2,0,-2,1,1,0
1480535268599596,-1,6,-2,1,-1,-2,-2,-2
1480535268599596,-2,-5,1,0,-1,0,1,0
1480535268601099,2,-4,-1,-2,-1,-2,-1,-1
1480535268601099,0,-2,2,0,0,0,0,0
1480535268613132,0,2,-7,-1,-1,-2,-2,-1
1480535268613132,2,3,1,-1,0,0,-2,-2
1480535268622155,0,9,-1,-2,0,1,-1,-2
1480535268622155,-2,-3,1,0,-2,-1,1,0
1480535268637197,-1,1,1,-2,-1,-1,-1,-1
1480535268637197,0,-2,-2,0,0,-1,1,0
1480535268638700,0,-3,-2,-1,-1,-1,0,-1
1480535268638700,4,3,0,-1,0,0,-1,-1
1480535268659756,-2,0,-1,-2,-2,0,-1,2
1480535268659756,-1,-1,-1,0,-1,-2,0,0
1480535268661260,1,3,-1,2,1,1,0,1
1480535268661260,0,-1,-1,0,-2,-1,1,1
1480535268682820,-7,-11,6,1,-1,2,-1,-1
1480535268682820,0,-2,0,-3,-1,-2,-1,-1
1480535268684321,-1,-2,0,-2,0,-2,0,1
1480535268684321,-2,-16,-2,-1,-1,-1,-2,-1
1480535268697356,-1,6,2,3,2,0,1,1
1480535268697356,0,2,-1,-1,-2,1,0,-2
1480535268698861,-1,-11,-2,-1,-1,-2,-1,0
1480535268698861,0,-5,-2,-1,0,0,-1,0
1480535268719916,1,1,-1,-2,-3,-3,-1,0
1480535268719916,2,-2,-1,0,-2,-2,-1,-1
1480535268725934,1,1,-2,-2,-2,1,1,0
1480535268725934,-2,2,0,0,3,1,0,0
1480535268742476,4,-5,-2,-1,0,0,1,0
1480535268742476,0,3,1,0,-1,-1,0,0
1480535268743980,5,4,-4,-1,0,-1,-2,0
1480535268743980,0,6,1,0,-1,-1,-1,0
1480535268757014,0,-1,0,-1,0,0,1,-1
1480535268757014,-4,-4,-1,1,2,1,0,2
1480535268759521,-1,-3,-5,-1,1,-1,1,-1
1480535268759521,3,8,-1,-2,-2,-1,0,0
1480535268779575,-1,-1,1,0,1,0,0,-2
1480535268779575,0,-5,2,-1,-1,0,-2,-1
1480535268781079,-2,-8,1,0,1,0,0,-1
1480535268781079,2,4,-2,-3,0,-3,-1,-2
1480535268802636,1,-1,-3,0,0,-1,0,-1
1480535268802636,-4,-2,2,1,1,0,1,1
1480535268804141,-5,-1,4,-1,-1,0,-1,0
1480535268804141,-1,-5,-2,0,-2,-2,-1,0
1480535268817174,4,0,0,-1,-5,-2,1,1
1480535268817174,-2,-10,-6,1,0,1,-1,0
1480535268824695,1,0,-3,-1,-2,-1,0,-1
1480535268824695,1,-1,3,0,0,-1,0,1
1480535268841239,-5,-6,-6,-2,0,-1,-2,0
1480535268841239,-2,-3,2,-1,0,-3,-1,-1
1480535268844748,-1,-2,-1,0,-1,1,-1,-1
1480535268844748,-7,-6,3,0,-2,-2,0,-1
1480535268862797,0,-2,1,0,0,-1,-1,0
1480535268862797,2,3,-1,-3,-1,0,0,-1
1480535268865304,0,10,3,1,-1,-1,-1,0
1480535268865304,-1,-9,1,0,1,0,-1,0
1480535268876332,-2,-1,0,0,-2,-4,-1,-2
1480535268876332,-2,1,-1,0,-1,-2,0,0
1480535268890870,-1,-8,-2,0,-1,-1,-2,-2
1480535268890870,1,-7,-1,0,0,1,1,-2
1480535268900400,-2,11,-1,-1,-2,0,0,0
1480535268900400,0,-5,-3,-2,-2,-2,-1,1
1480535268901900,-1,-3,0,0,-1,-2,-1,-1
1480535268901900,4,1,-2,-2,-2,-1,-2,0
1480535268938498,1,-9,-1,-1,-1,-1,-1,-1
1480535268938498,1,-8,-1,1,1,0,-2,-1
1480535268940002,-3,-5,-2,-2,1,1,0,1
1480535268940002,1,6,-1,-1,-3,-3,-2,-1
1480535268941004,0,-3,1,-2,-1,1,-1,0
1480535268941004,1,3,-5,-1,1,-2,-1,-1
1480535268945014,-2,-6,0,0,0,1,0,-3
1480535268945014,-6,-6,2,0,1,2,2,0
1480535268967073,-1,-3,-1,-1,-2,0,-2,-1
1480535268967073,-2,-1,-1,-1,2,1,0,-1
1480535268969078,1,9,4,-1,-2,0,0,1
1480535268969078,-1,-6,-6,-2,0,-1,-1,-2
1480535268982114,1,4,-1,0,1,1,0,-2
1480535268982114,-3,0,1,1,-1,0,0,-1
1480535268984118,1,-1,1,-1,1,-2,-1,1
1480535268984118,2,2,0,-1,0,0,-1,0
1480535268997153,1,16,-2,-2,1,-2,1,1
1480535268997153,-1,0,-2,-2,-2,-1,-1,-1
1480535269004673,-1,-5,1,0,-1,-2,1,0
1480535269004673,-1,4,0,1,0,0,-1,-1
1480535269019713,-4,-5,-3,2,1,-1,0,-1
1480535269019713,-1,0,-2,-1,-1,0,-1,-1
1480535269021218,-2,1,-5,-1,1,-1,-2,1
1480535269021218,1,4,-2,-1,0,-1,0,0
1480535269042277,-1,-6,1,-1,1,0,-2,-1
1480535269042277,-4,-2,0,-2,-2,-1,-2,-2
1480535269043778,1,-2,0,-1,-2,-1,-2,0
1480535269043778,-7,2,3,-1,1,1,0,0
1480535269056311,-1,-6,3,2,0,-1,1,0
1480535269056311,2,1,-9,-1,-2,0,-2,-1
1480535269063330,-13,-21,5,0,1,2,2,-1
1480535269063330,2,-1,-1,-1,-1,-1,1,1
1480535269087393,0,-2,-1,-1,-2,-2,-1,0
1480535269087393,0,0,3,-2,0,0,-1,-1
1480535269088898,2,4,-2,0,-1,-3,-1,-1
1480535269088898,2,-1,-4,-1,2,-1,0,-1
1480535269102937,-4,-12,2,-1,-2,0,-2,-2
1480535269102937,0,-7,1,1,-1,0,-3,-1
1480535269104438,3,7,-1,-2,-2,-2,-2,0
1480535269104438,0,1,0,-1,-2,-2,0,1
1480535269116473,5,2,-5,-2,-3,-1,-2,0
1480535269116473,1,3,0,0,0,0,0,0
1480535269132514,-1,-1,1,2,0,-1,1,-1
1480535269132514,-1,-3,-3,0,0,0,-2,-2
1480535269139531,-1,-1,2,0,0,1,0,0
1480535269139531,0,1,-3,0,-1,0,0,0
1480535269141538,4,-2,-4,-3,-1,-1,0,0
1480535269141538,1,4,-1,2,-2,0,-1,0
1480535269177633,-4,-8,2,1,1,0,0,-3
1480535269177633,-2,-6,4,0,-1,0,1,1
1480535269179639,4,4,-2,-2,0,0,-2,-2
1480535269179639,-1,-4,-1,-1,-2,-2,-1,-1
1480535269180142,-2,2,-3,-1,0,0,-1,-2
1480535269180142,-1,-3,0,-1,1,-1,-2,0
1480535269190668,1,-3,-2,2,-1,0,-1,0
1480535269190668,1,-1,1,0,-1,-1,0,-1
1480535269200193,0,3,0,0,-1,0,-1,0
1480535269200193,-1,-8,2,0,-1,-1,1,-1
1480535269205707,-3,-8,1,0,0,0,-1,0
1480535269205707,-1,-7,1,-1,-1,-2,-2,-2
1480535269222251,0,6,-3,0,2,-2,0,-1
1480535269222251,-1,-4,2,0,0,-1,1,1
1480535269223756,-2,1,-2,-1,-1,0,-2,-1
1480535269223756,0,-5,2,0,-1,-1,0,-1
1480535269244812,-2,-6,-3,-2,-3,1,-2,1
1480535269244812,0,0,0,-1,0,-1,-2,0
1480535269248329,-4,10,3,2,-1,0,0,-1
1480535269248329,-3,-3,2,-2,-2,1,2,1
1480535269259852,1,-3,-1,-1,-1,-1,-1,1
1480535269259852,-1,2,-3,1,0,1,0,0
1480535269261355,0,-5,0,-1,-2,-2,-3,-1
1480535269261355,-4,1,0,0,0,1,-1,-1
1480535269282423,1,0,0,-1,0,-2,-1,-1
1480535269282423,-1,-7,0,0,-2,-2,-1,-3
1480535269283916,1,-5,-1,-2,-1,1,1,0
1480535269283916,-1,-5,-5,1,1,0,-1,0
1480535269296450,0,-5,-5,0,-2,0,0,-1
1480535269296450,4,4,-1,-1,-2,-3,-1,-2
1480535269304973,-2,-7,-1,-1,-2,0,-1,-3
1480535269304973,0,3,-3,-1,-1,-1,-2,0
1480535269320513,-1,17,1,1,1,-1,-1,0
1480535269320513,3,-2,-3,-4,-2,-1,-1,-1
1480535269322017,7,7,-5,-1,1,-1,-1,-1
1480535269322017,2,6,-3,-1,-1,-1,-2,-2
1480535269342072,1,-10,1,0,0,-1,1,-2
1480535269342072,-1,-4,-3,0,-1,-2,0,0
1480535269344077,1,6,-2,-2,-2,-1,-1,0
1480535269344077,0,-4,1,-2,-2,0,-2,-2
1480535269372152,1,2,-2,-1,0,0,-1,0
1480535269372152,-1,4,0,1,0,1,0,-1
1480535269373655,-3,-5,-1,-2,-1,1,0,0
1480535269373655,1,2,-3,-1,2,-3,-2,0
1480535269379672,-2,-3,6,-1,-1,0,-1,1
1480535269379672,-2,-4,-2,-1,0,0,2,1
1480535269381175,-1,0,0,-1,1,-1,0,-1
1480535269381175,-1,-4,3,-1,-1,1,1,-2
1480535269418775,-1,-4,-2,-1,-3,-2,-1,-1
1480535269418775,-1,-5,1,-1,-2,-2,-1,0
1480535269420280,-2,-6,0,2,0,-1,0,0
1480535269420280,1,4,1,2,-1,0,-1,0
1480535269423787,-5,-15,4,2,-1,0,1,1
1480535269423787,-1,-5,-4,-3,-2,0,-3,-1
1480535269455373,-2,-4,0,1,0,-2,0,0
1480535269455373,1,3,-2,-1,0,-3,0,1
1480535269456375,-1,-1,0,0,0,-1,0,-1
1480535269456375,1,-7,-3,0,-1,-3,0,-3
1480535269457879,-2,-1,2,0,0,-1,-1,0
1480535269457879,-2,-3,0,-1,-1,0,0,1
1480535269462894,2,-3,0,-1,-1,0,-2,-1
1480535269462894,1,1,3,0,-1,0,-1,2
1480535269476929,-1,1,-4,-2,-1,1,0,-2
1480535269476929,0,-6,-3,-1,-2,-1,0,-2
1480535269491969,2,5,0,-2,-1,0,0,1
1480535269491969,0,7,-1,1,-1,-1,-2,0
1480535269493975,-3,-4,1,-1,-1,0,1,-1
1480535269493975,-1,1,1,0,-1,-2,-1,-1
1480535269499490,-9,-9,3,2,-1,1,0,0
1480535269499490,0,-1,0,-2,-1,-1,0,-1
1480535269501495,1,-2,-2,-1,-1,0,-2,0
1480535269501495,1,2,-1,-2,1,-1,1,1
1480535269522049,5,3,-3,1,2,0,1,1
1480535269522049,-5,-7,2,-1,0,1,1,0
1480535269523553,4,8,-1,-3,-4,-1,-1,1
1480535269523553,1,-5,1,0,-1,-1,-2,0
1480535269535585,-2,12,1,1,1,0,0,0
1480535269535585,-3,-3,-2,0,0,1,0,1
1480535269545111,0,-1,-2,-2,0,-1,-2,-1
1480535269545111,-2,-1,-1,0,0,0,1,-1
1480535269567169,3,-3,-2,-3,-1,-1,-3,-2
1480535269567169,1,1,2,0,-1,-1,-2,0
1480535269574689,-4,-3,0,0,-1,-2,0,0
1480535269574689,0,0,-3,-1,1,-1,-2,-1
1480535269582210,-2,-2,-1,-2,0,-1,-1,0
1480535269582210,0,0,-2,-2,-1,-1,-1,-1
1480535269583714,0,-3,-1,0,-1,0,-1,-2
1480535269583714,-3,-2,0,-1,-1,1,-1,-2
1480535269605772,1,-1,1,-2,-2,-1,1,-1
1480535269605772,-1,-1,0,-1,0,1,0,-1
1480535269609282,0,-1,3,-2,0,0,-1,0
1480535269609282,-2,-3,-3,0,1,0,2,0
1480535269619810,-1,-2,-2,-2,0,-2,-1,0
1480535269619810,2,3,-1,-2,-2,-1,-2,0
1480535269621313,0,0,0,-2,-2,-1,0,0
1480535269621313,-1,0,4,0,-1,-2,-2,-2
1480535269649889,4,-7,-5,-1,2,0,0,-3
1480535269649889,0,0,-2,-3,-2,-2,-1,-1
1480535269651394,1,-7,0,-1,0,0,0,-1
1480535269651394,0,-4,-1,-1,-1,-1,-1,-1
1480535269671447,-2,-2,-4,-1,-1,0,2,0
1480535269671447,0,-6,-1,-1,-1,0,0,-2
1480535269680972,-9,-12,3,1,-3,-2,0,-2
1480535269680972,0,-3,-1,0,0,-1,0,0
1480535269681978,0,-2,-1,-2,-3,0,0,-1
1480535269681978,-5,-7,1,-1,2,2,1,1
1480535269695010,1,2,-1,-1,-1,-1,-1,0
1480535269695010,-1,3,0,0,-2,-1,0,-1
1480535269701026,-3,0,-7,0,-1,-2,0,-2
1480535269701026,1,-5,-1,0,-2,1,-1,-1
1480535269734113,4,5,-2,0,0,0,1,0
1480535269734113,-1,0,0,-2,-1,-2,-3,0
1480535269735116,-4,1,4,-1,-3,0,0,0
1480535269735116,0,-1,-3,0,1,-2,-1,0
1480535269740129,-1,-2,-4,-1,1,-1,1,-2
1480535269740129,2,14,-2,-2,0,-1,1,1
1480535269741132,-3,-1,2,0,-1,0,-1,2
1480535269741132,2,5,2,1,-1,-3,-1,0
1480535269742636,-5,-6,-1,-1,-2,0,-1,-1
1480535269742636,1,-6,-6,0,-3,-2,-1,0
1480535269769708,-6,-10,3,1,0,-1,-1,0
1480535269769708,-2,-2,2,0,0,0,2,1
1480535269771213,5,3,-9,-3,1,-2,-4,0
1480535269771213,-9,-4,4,2,3,2,1,1
1480535269783745,-1,-4,2,-1,-3,-2,0,-1
1480535269783745,1,-3,0,-1,0,-1,1,-1
1480535269792268,0,-5,-2,0,-1,1,-1,0
1480535269792268,0,0,-3,0,-4,0,0,-1
1480535269799286,2,-1,-2,-1,1,-2,-2,0
1480535269799286,-3,-2,0,0,0,2,0,0
1480535269805804,-6,18,4,1,-1,1,2,1
1480535269805804,-2,-7,0,0,0,-1,1,-1
1480535269821345,-2,-2,-4,-1,0,1,-1,-1
1480535269821345,0,4,-1,1,-4,-3,-2,-1
1480535269829868,-3,-7,4,-1,0,1,1,0
1480535269829868,7,4,-3,-1,0,0,-3,0
1480535269843907,-2,0,3,-2,-2,-2,0,-2
1480535269843907,1,-4,-2,-1,1,-1,-1,-2
1480535269852428,0,-5,-6,-1,-2,0,-1,-1
1480535269852428,0,0,2,-2,-2,-2,-2,-2
1480535269858948,3,-2,-7,-2,0,0,-1,0
1480535269858948,-2,0,-1,-2,2,1,-1,-1
1480535269873483,-2,-2,3,1,1,1,-1,0
1480535269873483,-2,-1,0,2,0,1,-2,0
1480535269882007,5,7,-4,-1,-1,0,-1,0
1480535269882007,-4,-5,-2,-2,-2,-2,1,1
1480535269884012,-1,-4,1,2,0,-1,-2,-1
1480535269884012,1,-16,-2,-2,0,1,-1,0
1480535269905070,-4,8,5,4,2,0,2,1
1480535269905070,0,-3,-1,0,-3,1,-1,0
1480535269927628,2,3,-3,-1,-3,-2,-1,0
1480535269927628,-2,-4,-3,-2,0,-2,-2,-1
1480535269928631,-5,-6,3,0,1,1,0,1
1480535269928631,4,2,1,-2,0,-1,-1,-1
1480535269930135,5,0,-1,-1,0,0,1,-1
1480535269930135,-8,-3,5,-1,-2,1,0,-1
1480535269949688,6,-3,0,0,-4,-3,-2,0
1480535269949688,3,8,-4,-1,-1,-2,-2,0
1480535269965729,1,6,-2,-2,0,-1,0,-2
1480535269965729,1,5,-2,-3,-2,-2,0,-2
1480535269966231,3,-10,-3,-1,0,0,0,-3
1480535269966231,-4,-7,0,-1,0,-1,-2,1
1480535269972248,0,-5,-1,0,0,-2,-1,-1
1480535269972248,-1,1,3,0,-2,-1,-1,0
1480535269979265,-2,-3,-8,0,-1,-1,-2,0
1480535269979265,-2,-3,1,0,2,0,0,-1
1480535269986284,-4,2,0,-1,-1,-1,-1,-3
1480535269986284,-1,-2,-3,-3,0,0,2,1
1480535270009847,1,12,2,1,-2,-1,-1,0
1480535270009847,-3,-4,2,2,2,1,-1,0
1480535270012354,-3,-6,-1,0,-1,-1,0,-1
1480535270012354,2,2,-1,0,0,-1,-1,-1
1480535270040931,0,-8,1,-1,-1,0,0,-1
1480535270040931,1,-1,-2,-2,-3,-2,-1,-1
1480535270042433,0,4,0,1,-1,1,-1,1
1480535270042433,-1,-4,1,2,0,0,0,0
1480535270043437,1,-4,-2,-1,-1,0,0,0
1480535270043437,0,0,0,0,2,2,2,-1
1480535270047447,3,-4,2,1,0,-1,-2,-1
1480535270047447,-9,-12,2,-1,-3,-3,-1,0
1480535270061985,-2,-2,2,0,1,-2,-1,0
1480535270061985,1,-2,-1,-2,0,-1,-1,0
1480535270063992,-1,-3,-1,-1,-2,0,-1,0
1480535270063992,5,6,-4,-2,2,-2,-2,0
1480535270085047,4,-1,-1,-2,-1,-1,-2,-1
1480535270085047,-2,-2,1,1,-1,-1,0,1
1480535270087076,-1,-7,-2,-3,0,-2,-2,-1
1480535270087076,1,2,-3,1,0,1,0,0
1480535270098583,0,0,-3,-2,1,1,0,-1
1480535270098583,3,17,-1,-1,0,0,-4,-1
1480535270107607,-1,-6,0,-1,-2,1,1,1
1480535270107607,0,4,2,0,-1,1,-1,-2
1480535270122647,-1,-3,-3,-1,-2,-2,-2,-2
1480535270122647,-1,-7,-2,-1,-2,-2,1,-1
1480535270129678,-2,-1,0,0,-1,0,-2,0
1480535270129678,1,6,0,-2,0,-1,0,-1
1480535270144212,-2,-5,5,1,-1,3,1,0
1480535270144212,-4,-10,1,-1,0,0,2,0
1480535270150721,-10,-11,2,1,2,-1,2,0
1480535270150721,0,3,-2,0,0,0,-1,0
1480535270158242,-1,4,-3,-3,0,-2,0,-1
1480535270158242,-1,-1,0,0,1,-1,0,-1
1480535270167266,4,1,-2,-2,0,-2,-1,0
1480535270167266,-5,1,2,0,0,0,2,-3
1480535270182807,1,1,0,-1,-2,-3,-2,1
1480535270182807,-1,7,3,1,0,0,2,0
1480535270184813,-1,-4,-5,-2,0,-1,-1,0
1480535270184813,0,-1,-2,-1,0,0,-2,0
1480535270204866,2,-2,-3,-1,-1,0,0,0
1480535270204866,0,-12,3,0,-2,0,-1,-2
1480535270206370,-1,-5,1,0,1,2,0,0
1480535270206370,-1,-1,-1,0,-1,0,0,0
1480535270227432,-5,-2,1,-1,0,0,1,0
1480535270227432,4,2,-4,-4,-1,-2,-2,0
1480535270228930,-8,-4,2,-2,-1,0,0,-1
1480535270228930,3,3,-2,1,-1,-3,0,1
1480535270243468,-1,-3,2,0,0,-1,0,-2
1480535270243468,1,1,-3,0,0,-1,-2,-1
1480535270248481,3,-5,-3,1,0,-1,1,0
1480535270248481,1,2,-9,-2,-3,-1,-1,-2
1480535270288588,-3,1,0,-1,-2,0,0,-2
1480535270288588,1,-9,0,-1,-2,-2,-1,-1
1480535270290093,5,-6,1,-1,0,0,0,1
1480535270290093,-3,-5,1,1,2,1,2,-1
1480535270291096,1,1,-5,-1,1,-1,-3,1
1480535270291096,-3,-5,-3,-1,0,1,0,1
1480535270294604,-2,1,1,0,-1,-1,-2,-2
1480535270294604,5,2,1,-1,0,-1,-1,-1
1480535270302125,-5,-3,0,0,-1,1,1,0
1480535270302125,-2,0,-1,-2,-1,0,1,-2
1480535270305634,-1,-3,0,-1,0,0,0,0
1480535270305634,-1,-1,-1,-2,-2,0,0,1
1480535270324684,0,0,3,-1,0,-1,-1,0
1480535270324684,-8,-13,4,0,-1,0,0,1
1480535270326189,1,6,-2,-1,-2,0,1,-1
1480535270326189,1,-4,-1,-1,0,-2,-2,-1
1480535270347245,0,-11,1,-1,-1,-1,0,-1
1480535270347245,-1,-1,-1,-2,-1,-1,0,-2
1480535270348749,1,1,-3,-2,-1,-2,-2,-2
1480535270348749,-2,-14,-1,1,0,-1,1,0
1480535270362284,2,19,0,-1,-2,-1,-1,-1
1480535270362284,2,-2,-2,-3,-1,-1,-1,-1
1480535270363788,-4,-6,-1,0,1,1,1,0
1480535270363788,0,0,-2,0,-2,1,-1,-1
1480535270384844,-2,-1,-1,-1,-1,-3,-2,-2
1480535270384844,-2,-4,-3,0,1,0,1,-1
1480535270387351,0,-2,-2,0,0,0,-1,1
1480535270387351,-1,5,3,0,1,-2,-1,0
1480535270407906,3,-2,-10,-3,-1,0,-2,1
1480535270407906,3,-3,-1,-1,-3,-1,0,-2
1480535270409410,2,-1,0,-2,0,-2,-3,-2
1480535270409410,1,-3,0,-4,-2,-2,-1,-1
1480535270421945,3,-2,-2,-1,-2,-1,0,-2
1480535270421945,1,0,-3,-2,0,-1,-3,0
1480535270428461,0,-2,-4,2,-2,-1,-1,0
1480535270428461,-3,-3,-2,-1,-1,-2,0,-1
1480535270444506,-1,-3,2,1,1,-1,0,-2
1480535270444506,0,0,-4,-2,0,-1,0,0
1480535270446508,-1,-3,0,0,0,0,0,1
1480535270446508,-5,12,0,2,2,1,0,0
1480535270458540,-1,2,2,-1,-2,-3,-1,-1
1480535270458540,1,2,0,-1,0,-1,0,0
1480535270473580,0,3,0,-1,0,0,0,-1
1480535270473580,-1,-2,0,-1,-1,-1,-2,-1
1480535270482103,-1,-3,-8,-2,-1,-1,0,0
1480535270482103,-4,-2,-2,0,0,0,0,2
1480535270484110,2,6,0,0,-1,0,0,-1
1480535270484110,2,-3,-2,-2,-3,-1,-3,-1
1480535270528727,-2,7,4,1,1,-1,-1,-1
1480535270528727,-9,-8,8,0,0,0,-1,-2
1480535270530231,-2,-1,-2,0,0,0,0,-1
1480535270530231,-1,0,0,-3,-3,-2,1,-1
1480535270530733,1,-6,-2,-1,1,1,1,-1
1480535270530733,3,3,-3,-1,-1,0,-1,-2
1480535270566828,-1,3,0,1,-1,-1,-1,1
1480535270566828,-5,19,3,1,2,2,1,2
1480535270567831,-2,-6,-2,-1,1,-3,0,1
1480535270567831,0,-5,0,1,-2,-2,-1,-1
1480535270572344,1,1,-1,-2,-1,-4,-1,-1
1480535270572344,0,-5,-10,-1,-1,-1,0,-1
1480535270572844,-5,-1,4,1,-1,1,1,1
1480535270572844,1,3,-3,0,2,3,1,2
1480535270594903,0,7,2,0,0,1,0,1
1480535270594903,-7,-7,1,-2,-2,-2,-2,-2
1480535270596407,-6,-5,1,0,-1,0,-1,1
1480535270596407,1,-7,-1,1,1,0,0,-2
1480535270602423,-1,-8,-1,0,-4,-1,0,0
1480535270602423,3,2,0,-1,-3,-1,0,0
1480535270603927,0,-15,1,-4,2,0,-2,-2
1480535270603927,-3,-1,0,2,1,1,0,1
1480535270640044,2,4,0,-2,0,0,-3,-2
1480535270640044,2,-8,-2,-1,0,-1,-1,-1
1480535270641528,1,-2,-2,0,-1,-1,0,-1
1480535270641528,1,-3,2,-2,-1,-2,-2,0
1480535270647041,-3,-10,-2,-1,0,1,2,-1
1480535270647041,1,1,-2,0,-3,-2,-1,-1
1480535270649548,-6,4,1,1,0,0,-1,1
1480535270649548,0,-4,-2,0,0,1,-1,-1
1480535270662081,-1,-5,-3,1,1,0,-2,1
1480535270662081,-2,1,-1,0,0,3,2,0
1480535270664087,3,-3,0,1,-2,-2,0,0
1480535270664087,1,-6,-3,-1,0,0,0,-1
1480535270684642,-3,-5,-2,0,1,-1,2,-1
1480535270684642,-3,-9,1,0,2,1,0,0
1480535270687148,0,-1,2,1,0,0,-1,-1
1480535270687148,-2,-18,-7,-1,1,-1,1,-1
1480535270707201,3,-2,1,-1,-2,-1,-2,0
1480535270707201,-1,-1,0,1,0,1,0,0
1480535270708705,1,6,-4,-2,0,0,-3,0
1480535270708705,-4,-11,2,-2,0,-1,1,-1
1480535270721740,0,-5,1,0,-1,-2,-3,-3
1480535270721740,-1,0,-3,-2,-2,-2,-2,-1
1480535270728759,1,-3,-1,0,0,-1,-1,-1
1480535270728759,2,4,-2,-1,0,-2,0,-2
1480535270751319,6,5,-2,0,1,0,0,0
1480535270751319,0,7,0,-1,0,-1,-1,0
1480535270759842,2,1,-2,-4,-2,-2,-1,-1
1480535270759842,0,-2,2,1,0,-1,0,-1
1480535270767362,2,8,1,-2,-1,-2,-1,2
1480535270767362,5,-3,-1,-1,-3,-1,-1,-1
1480535270768866,1,-2,-7,-1,-1,-2,0,-1
1480535270768866,0,20,2,0,-2,-1,-1,0
1480535270797945,-6,-11,-1,1,-1,1,3,0
1480535270797945,-1,-8,-1,-2,1,-1,-1,-2
1480535270799447,-2,0,-2,0,-2,0,-2,-1
1480535270799447,-5,4,1,-1,-4,-1,0,0
1480535270804462,-1,4,0,0,0,-2,-1,-2
1480535270804462,0,2,-1,-1,-1,-2,-1,-3
1480535270806643,-1,-2,0,1,2,0,-1,0
1480535270806643,-1,-2,-1,0,-1,0,-2,-1
1480535270834540,-14,-21,11,1,1,4,4,1
1480535270834540,2,1,-2,-2,-2,-1,0,-1
1480535270842060,1,8,2,-1,-4,-1,0,-2
1480535270842060,-1,-2,4,0,-1,1,-1,0
1480535270843064,-1,6,-1,-2,0,-1,-3,-2
1480535270843064,-1,-1,-1,-1,1,-2,1,0
1480535270848076,-1,0,2,-1,1,-1,0,0
1480535270848076,0,-6,-1,-3,0,-1,0,1
1480535270864620,4,28,-3,-2,-1,-2,-2,-2
1480535270864620,0,-5,-2,1,-2,0,0,1
1480535270866124,2,-9,-3,-2,-1,0,-1,0
1480535270866124,-1,5,0,1,3,0,-2,-2
1480535270888684,1,-4,-2,-1,1,-1,-2,-1
1480535270888684,-1,0,-1,0,-1,-2,0,0
1480535270891191,-3,-3,-1,0,-2,0,0,-2
1480535270891191,-2,-2,-2,-2,0,0,0,-1
1480535270902723,-1,-4,1,0,-3,-1,1,1
1480535270902723,-4,-7,0,2,1,0,-1,1
1480535270915756,-2,-2,0,-1,0,-2,-2,-1
1480535270915756,-8,-9,-4,-1,0,0,0,-1
1480535270924780,1,-6,-3,-2,-1,-1,-1,-1
1480535270924780,-4,-2,1,-1,1,1,1,1
1480535270926285,0,3,-3,-2,-2,-2,0,0
1480535270926285,1,7,2,1,-2,-2,-1,0
1480535270947340,2,0,-6,-3,0,-2,-3,-1
1480535270947340,-2,-5,1,-2,0,1,1,-1
1480535270948844,1,-5,-2,-2,0,0,0,-1
1480535270948844,4,-9,-2,-2,1,-3,-2,-1
1480535270961377,-7,-1,4,3,-1,-1,1,0
1480535270961377,3,5,-2,1,0,0,-1,1
1480535270968396,-1,-5,-2,-2,-1,0,-1,0
1480535270968396,-1,-2,-1,0,0,0,-1,-3
1480535270992462,1,-3,0,1,0,1,-1,0
1480535270992462,1,-3,-5,-1,0,-3,-2,-2
1480535270993968,3,6,-1,0,1,-1,-2,-1
1480535270993968,7,11,-2,2,0,0,-2,-1
1480535271007001,-2,-3,-1,0,1,2,2,0
1480535271007001,-1,0,2,-2,0,-1,1,0
1480535271009005,-3,6,-2,-1,-1,-2,1,1
1480535271009005,1,3,-1,-1,1,0,1,1
1480535271037080,0,-7,-4,0,-2,-2,-1,-2
1480535271037080,4,4,-5,-4,-2,-3,-3,-3
1480535271046605,-2,-2,2,-1,0,0,0,0
1480535271046605,-1,5,1,-2,0,1,1,0
1480535271048610,-3,0,-2,0,0,0,-1,-2
1480535271048610,-1,-2,1,1,-4,0,0,-1
1480535271058135,-4,-6,3,0,0,-1,-1,-1
1480535271058135,-1,-4,-6,-1,-2,-2,-2,-1
1480535271067159,3,3,0,-2,0,-1,0,0
1480535271067159,1,6,0,0,0,0,-2,0
1480535271081698,0,3,2,0,0,-1,-1,0
1480535271081698,-1,-4,2,-2,-1,1,2,0
1480535271082199,9,3,-4,-2,-3,-3,-3,0
1480535271082199,-7,-4,6,0,-2,-1,0,-2
1480535271089719,-4,-11,0,-2,0,1,1,1
1480535271089719,-1,-3,1,3,-1,-1,0,0
1480535271104258,5,1,-1,-2,-2,-2,-3,-1
1480535271104258,0,-10,-2,-1,1,1,0,0
1480535271110775,3,1,-4,-1,-2,-3,-2,-1
1480535271110775,-1,-1,-1,-1,-1,0,-2,-1
1480535271127321,-4,-17,-1,1,2,1,0,1
1480535271127321,5,10,-3,0,-1,-1,0,0
1480535271128823,0,0,1,-1,-2,-3,-2,-1
1480535271128823,-3,-12,1,-4,-1,1,1,0
1480535271140856,-1,0,2,-1,-3,-1,1,-2
1480535271140856,0,3,-5,-3,0,0,-1,-1
1480535271149881,1,0,-2,1,0,-1,-1,-1
1480535271149881,-4,-7,1,1,0,0,0,1
1480535271164418,-1,0,-3,-2,-1,-2,-1,-2
1480535271164418,-3,0,0,-1,-2,1,1,-1
1480535271166424,7,7,-4,-3,0,-1,0,-1
1480535271166424,-3,2,2,-1,-3,-1,-2,-2
1480535271186978,1,-2,-2,-1,-1,-1,1,0
1480535271186978,0,-8,0,1,0,-2,-2,0
1480535271189986,-4,0,-1,-1,-1,1,2,1
1480535271189986,3,0,-2,-3,-2,-2,0,1
1480535271201015,-1,5,-1,0,-1,-1,0,0
1480535271201015,0,2,1,0,-2,0,0,1
1480535271210040,-1,9,3,1,0,0,-1,1
1480535271210040,0,-3,-2,0,3,1,1,0
1480535271224578,-3,0,1,-1,-4,-3,-2,0
1480535271224578,-3,5,0,0,2,0,1,0
1480535271226587,-6,-6,5,3,0,1,1,0
1480535271226587,2,-4,-2,-1,-2,0,-1,-1
1480535271247138,-3,-5,-1,1,2,1,-2,1
1480535271247138,1,-9,-2,-1,-1,-1,-2,-3
1480535271248642,-3,-4,-2,-3,-4,-1,2,0
1480535271248642,-2,2,1,1,0,-2,-1,-2
1480535271277228,2,-1,1,-1,0,-2,0,0
1480535271277228,-1,-1,-8,-2,-2,-2,-2,0
1480535271280727,1,-2,-3,-1,0,-2,-2,-1
1480535271280727,1,5,-2,-1,0,-1,-1,-1
1480535271284738,0,-3,-1,1,0,1,2,0
1480535271284738,-7,-3,3,0,0,0,0,0
1480535271286242,0,-6,-3,-1,2,1,-2,-1
1480535271286242,2,-2,-1,1,-2,-3,-2,0
1480535271306796,-2,-10,-1,-3,-2,-2,-1,-4
1480535271306796,-3,-4,3,0,-2,1,1,-1
1480535271313314,-1,-1,-1,0,0,-1,-1,-1
1480535271313314,1,3,-2,-2,-1,-1,-2,0
1480535271321335,1,-2,0,-1,-1,-1,0,0
1480535271321335,0,0,-3,-2,-4,-3,0,-1
1480535271329859,0,0,-1,0,-2,-1,0,-1
1480535271329859,-2,-2,-1,-1,-1,0,0,-1
1480535271344397,-2,-3,-7,-2,0,0,0,-1
1480535271344397,-3,-4,-2,-2,0,2,-1,0
1480535271346402,1,-4,2,2,-1,-2,-2,1
1480535271346402,0,1,-2,0,-1,-3,0,0
1480535271366957,-7,7,4,-1,-1,-2,1,0
1480535271366957,1,-8,0,-2,0,-4,-2,-2
1480535271368962,3,2,-4,-1,0,-1,0,-1
1480535271368962,-2,0,1,0,0,-2,1,-1
1480535271380994,1,1,-1,-2,-1,1,-2,-2
1480535271380994,-4,-9,1,0,1,1,-1,0
1480535271390019,-2,-4,2,1,3,1,1,0
1480535271390019,0,-7,-1,-2,-2,0,-2,0
1480535271404559,0,3,0,0,2,0,-1,0
1480535271404559,2,6,-2,0,1,-1,-1,0
1480535271406562,-1,-5,-3,-1,0,0,0,-1
1480535271406562,-3,-3,1,0,-2,-2,0,-1
1480535271427116,2,4,-1,1,2,0,-1,0
1480535271427116,0,4,-2,-1,-1,-3,-2,0
1480535271430626,-3,-8,0,1,0,-2,-2,-1
1480535271430626,0,-3,-1,0,0,0,-1,-1
1480535271440653,-1,-3,2,0,-2,0,-1,0
1480535271440653,3,1,1,0,0,0,-1,-1
1480535271466221,0,-5,-2,0,0,0,0,-1
1480535271466221,1,-3,-1,-1,-1,-2,0,0
1480535271467725,0,-2,1,0,1,0,0,0
1480535271467725,1,-3,-2,-2,-1,0,0,0
1480535271469228,-5,-10,-2,1,2,2,0,0
1480535271469228,-4,-8,3,1,-1,0,-1,1
1480535271487277,-4,2,-1,1,-2,-1,-2,1
1480535271487277,1,-7,0,0,-2,-2,-2,-2
1480535271488781,0,6,0,-4,0,0,-1,0
1480535271488781,0,3,0,-2,0,0,0,0
1480535271517858,1,-5,-8,0,-1,-1,0,-2
1480535271517858,1,-14,1,0,0,0,0,0
1480535271521367,2,2,-6,-2,-1,-3,-1,-1
1480535271521367,1,-4,2,0,-1,-1,0,-1
1480535271524876,2,4,0,-4,-3,-3,-3,-1
1480535271524876,-2,0,-1,-1,0,2,2,-1
1480535271526381,0,2,-2,-3,-1,-1,-2,-2
1480535271526381,2,2,-3,-2,-1,-2,-1,-2
1480535271547938,-3,-7,2,0,0,2,2,0
1480535271547938,0,-2,0,2,0,-1,-1,-2
1480535271553456,-1,-10,2,-1,-2,-2,-2,-1
1480535271553456,2,-1,-5,-2,-2,1,-2,0
1480535271570499,-3,7,0,-2,-2,0,-1,-1
1480535271570499,-3,1,2,2,-2,-1,1,1
1480535271593058,-4,-1,2,-1,-2,0,0,0
1480535271593058,0,-1,-1,-2,0,-2,-2,1
1480535271593560,0,-5,1,1,0,1,2,0
1480535271593560,0,-1,0,-1,0,-2,0,-1
1480535271595063,-1,-5,2,1,-1,2,1,1
1480535271595063,-3,-6,-3,0,-1,0,-1,-1
1480535271607095,-5,-10,-2,0,2,-1,0,-1
1480535271607095,0,0,-2,-2,-2,-3,-1,-1
1480535271614615,0,4,-4,0,-1,0,0,1
1480535271614615,-1,1,-1,2,1,0,0,-1
1480535271629656,1,1,0,0,-1,-1,2,1
1480535271629656,0,6,2,-1,0,0,-2,0
1480535271631159,3,6,2,-1,-2,-2,-2,-1
1480535271631159,2,5,0,0,1,0,0,1
1480535271644196,2,3,-1,-1,-3,-1,-1,-2
1480535271644196,2,1,-1,0,0,-1,0,0
1480535271659235,-1,-3,1,-1,-1,0,0,1
1480535271659235,-2,-4,-8,-3,-2,-1,-2,-2
1480535271667757,-1,-3,-2,-1,0,-3,-1,-1
1480535271667757,3,4,-2,-2,0,0,-1,-1
1480535271673271,2,-9,-2,-1,-1,-2,-1,-3
1480535271673271,-3,1,3,-1,1,0,0,0
1480535271689815,1,-3,-2,-3,-1,-3,-1,-1
1480535271689815,-2,-4,-3,0,-2,0,0,0
1480535271691320,-4,-9,-2,-2,0,-1,0,-1
1480535271691320,-4,-2,1,1,0,1,-1,-1
1480535271703853,1,-2,0,0,-2,-2,-2,0
1480535271703853,-5,-5,-1,-1,0,0,-1,0
1480535271710875,2,5,-2,0,-1,-1,-1,-1
1480535271710875,-1,-3,0,0,-1,-1,0,0
1480535271734434,-3,3,1,-2,-1,-1,-2,-1
1480535271734434,4,4,-1,1,-2,0,0,0
1480535271736459,0,1,-2,-2,-1,-1,-1,0
1480535271736459,0,2,0,-1,-1,1,-1,-1
1480535271749976,3,1,1,1,-2,-2,0,0
1480535271749976,0,-3,-7,-2,-1,-1,-2,0
1480535271756494,-1,-2,2,1,-1,-2,-2,0
1480535271756494,-3,-3,5,1,0,0,2,1
1480535271764514,0,3,0,-1,-2,-1,0,0
1480535271764514,-4,-5,1,0,0,-1,1,-1
1480535271798605,-3,-3,1,-1,-2,-4,0,0
1480535271798605,1,-5,0,-1,1,0,-1,-1
1480535271799108,-3,-4,1,2,1,1,0,0
1480535271799108,-1,-3,1,0,-1,0,-1,-1
1480535271801112,2,6,-1,1,1,1,0,-1
1480535271801112,1,15,0,1,-2,-1,-2,0
1480535271834200,1,-4,-3,-2,-1,0,-1,-1
1480535271834200,-3,-7,-3,-3,-2,-1,0,0
1480535271836206,-3,-5,1,2,0,-2,0,0
1480535271836206,-3,-11,1,0,1,2,1,0
1480535271836708,2,0,-8,0,-1,0,-1,-1
1480535271836708,-1,0,2,0,0,0,-1,-1
1480535271839714,4,2,-4,-2,-2,0,0,-2
1480535271839714,-11,-13,7,-1,-2,0,0,0
1480535271848238,-5,-2,0,1,0,1,-1,-1
1480535271848238,1,1,0,1,1,-1,0,-1
1480535271853250,-3,6,1,0,-1,0,0,0
1480535271853250,3,3,-2,0,-1,0,-1,-2
1480535271869795,-1,-2,-1,-2,0,-2,-1,-1
1480535271869795,-1,6,2,0,0,0,0,-1
1480535271871299,5,4,-3,-2,-1,-2,-3,-1
1480535271871299,0,-13,-2,0,1,-1,0,-1
1480535271883831,-2,1,0,0,-1,0,0,0
1480535271883831,1,-1,-1,0,-2,-2,-1,0
1480535271892354,-1,1,0,-1,0,0,0,-1
1480535271892354,3,-2,-1,1,0,-1,-2,-2
1480535271907394,4,-5,-2,-1,0,2,0,0
1480535271907394,-4,-11,4,0,0,-1,-2,0
1480535271908898,-2,-13,-4,-1,-1,2,0,0
1480535271908898,0,5,-2,-3,-2,-2,-1,-1
1480535271936973,5,5,1,0,0,-3,-4,-2
1480535271936973,1,5,-5,-1,2,1,0,-1
1480535271938979,-2,-1,1,-1,2,-1,-1,0
1480535271938979,6,6,-4,-2,-2,-3,-2,0
1480535271943998,-4,-4,2,0,0,-1,-1,1
1480535271943998,-3,-4,2,-1,-2,0,3,0
1480535271951010,-3,-4,-2,0,0,0,-2,-1
1480535271951010,1,2,-2,-1,-1,-1,0,-2
1480535271967053,1,4,0,-2,-2,1,-1,-1
1480535271967053,-4,-10,-2,0,1,1,0,0
1480535271968557,-1,23,3,-2,-2,-2,1,0
1480535271968557,2,0,-3,-3,-2,0,-2,0
1480535271989613,0,2,-5,-4,-1,-1,-1,-1
1480535271989613,1,0,0,-1,-3,-3,-1,-1
1480535271991117,7,9,-3,-2,0,0,-2,-1
1480535271991117,-3,1,0,0,2,2,1,-1
1480535272012173,-2,-3,0,0,0,-3,0,-1
1480535272012173,3,2,-1,0,1,-1,-4,-1
1480535272013677,-5,-2,0,0,-1,0,0,0
1480535272013677,1,0,0,-2,-4,-3,-1,-2
1480535272027213,-3,-5,-2,0,2,1,-1,0
1480535272027213,1,8,-4,-1,-2,-1,-2,0
1480535272028717,-3,-9,-3,-1,0,-2,-2,0
1480535272028717,-4,4,-2,0,0,1,0,0
1480535272056792,-3,-4,1,1,-1,1,0,1
1480535272056792,-2,0,1,-2,0,-1,-1,-2
1480535272072834,-1,-2,0,1,2,1,-1,-3
1480535272072834,-2,-3,1,0,0,-1,0,0
1480535272073837,1,0,-7,-1,-3,-2,-2,-2
1480535272073837,0,1,3,-1,-2,-1,0,0
1480535272075341,-1,-6,0,-3,-1,1,-1,0
1480535272075341,2,3,1,0,0,-2,-1,1
1480535272093896,-3,-6,0,-1,1,1,2,0
1480535272093896,-2,-3,-1,1,-1,0,0,-1
1480535272110438,-1,1,-1,2,-2,-2,-1,-1
1480535272110438,0,5,-1,0,-2,-1,-1,0
1480535272111439,-3,-10,-1,-1,1,-1,0,-1
1480535272111439,2,-5,-2,0,0,0,-2,1
1480535272123971,0,-10,0,2,-2,-1,1,-1
1480535272123971,-1,-1,-1,0,-1,-2,-3,-1
1480535272124973,0,-5,-1,0,-2,-2,-2,0
1480535272124973,0,4,0,-2,0,1,0,1
1480535272140013,1,1,-3,-2,0,0,-2,-1
1480535272140013,-2,-6,1,-1,0,2,1,-1
1480535272148035,1,2,2,-1,-2,-3,0,-2
1480535272148035,-5,-13,1,-1,1,3,2,1
1480535272149538,1,-3,1,1,-3,-4,-2,-1
1480535272149538,5,7,-6,-1,-2,-2,-3,0
1480535272169592,-2,2,2,0,1,0,1,2
1480535272169592,0,1,2,-2,-2,-3,0,-1
1480535272171605,-4,-5,1,1,1,1,2,1
1480535272171605,-1,0,-1,1,1,-1,1,-1
1480535272192152,0,-4,1,1,-1,0,-2,-1
1480535272192152,0,-3,-2,0,1,-2,-2,-1
1480535272193662,-2,5,0,-1,-1,0,-1,0
1480535272193662,-2,-2,0,0,0,-2,0,-1
1480535272207192,-2,-6,-5,-1,1,-1,0,-1
1480535272207192,-1,0,-1,0,0,-2,-1,-1
1480535272208696,-5,-14,0,1,1,-1,0,0
1480535272208696,-1,-1,0,-1,-3,-2,-1,-1
1480535272229752,1,0,-1,-2,0,-1,-1,-1
1480535272229752,-2,-8,-3,1,-1,0,-1,-2
1480535272231256,2,-2,-3,-3,0,-1,-2,-1
1480535272231256,0,-2,0,-1,-1,0,-2,1
1480535272243793,-2,3,4,1,-1,2,1,2
1480535272243793,1,3,-1,0,-1,-1,-1,0
1480535272252313,3,-2,-8,-3,-2,0,0,0
1480535272252313,-6,-5,0,0,-1,0,1,0
1480535272267861,2,-2,-1,0,-2,0,-1,0
1480535272267861,0,-2,0,1,-2,-2,-1,0
1480535272269357,0,-4,1,1,1,1,0,-1
1480535272269357,0,-2,2,-2,-2,0,0,-1
1480535272296930,-1,-1,-7,-2,-1,0,0,0
1480535272296930,-14,-8,8,-1,0,0,2,0
1480535272298936,-2,2,-1,-2,0,-1,1,0
1480535272298936,0,1,-2,0,0,0,-2,-1
1480535272303449,-2,-2,2,-1,1,0,0,-2
1480535272303449,3,7,-5,-2,-2,-2,-2,-1
1480535272312472,-3,-1,2,2,0,-1,-2,-2
1480535272312472,-2,-6,1,-1,1,0,-1,0
1480535272326509,2,-1,0,-1,0,-1,-1,-1
1480535272326509,2,-1,-1,-2,0,1,0,0
1480535272335033,-5,-7,3,0,0,0,1,-1
1480535272335033,1,-1,-6,-1,0,-1,-1,-2
1480535272349570,-2,5,1,0,-1,-2,-1,-2
1480535272349570,-1,-3,2,1,-2,0,0,-1
1480535272351577,2,4,2,1,-1,0,-2,2
1480535272351577,2,1,-9,-2,-1,-1,0,1
1480535272363107,-1,4,-1,0,1,1,0,-2
1480535272363107,0,4,-1,-1,0,-2,-1,-1
1480535272380152,0,1,-1,0,-3,-3,-1,-1
1480535272380152,-4,-3,0,-1,1,0,0,0
1480535272387171,-1,-3,3,2,0,0,0,0
1480535272387171,7,-3,-4,-2,0,-2,-3,0
1480535272388674,-4,2,4,1,0,2,2,-1
1480535272388674,2,8,-2,1,-1,-1,-1,-1
1480535272409730,-2,-9,-4,-4,-2,-1,-2,0
1480535272409730,3,16,-1,0,0,0,-1,0
1480535272411235,4,4,0,-3,-1,-2,-1,-1
1480535272411235,1,-7,0,-1,-1,-2,-1,-2
1480535272423291,3,4,1,-1,-2,-1,-2,-3
1480535272423291,-1,-5,0,0,-1,-1,-1,5
1480535272432290,2,-3,-8,-1,0,-5,5,0
1480535272432290,-9,-15,4,-1,-1,-1,-7,-27
1480535272447330,1,6,1,0,-2,-2,-21,0
1480535272447330,-1,-3,-1,-1,-1,2,15,-4
1480535272448834,0,-4,0,-1,1,1,7,10
1480535272448834,2,-1,1,-1,-1,-1,2,6
1480535272470393,0,0,-3,0,0,-1,6,-3
1480535272470393,1,-6,-4,-2,0,-1,-9,0
1480535272471896,2,10,-3,1,0,-1,-2,-1
1480535272471896,-3,-1,1,0,-1,2,5,5
1480535272492452,2,-5,-1,0,0,-1,-1,-2
1480535272492452,-5,11,1,-1,0,1,1,1
1480535272494957,1,-1,1,-2,-2,0,0,-1
1480535272494957,0,0,-6,-3,-1,-2,-5,1
1480535272506989,2,-6,0,1,0,0,4,3
1480535272506989,-2,-9,-2,-1,-1,0,-1,-4
1480535272508994,-5,-5,0,1,-1,-1,-1,-6
1480535272508994,-15,-6,7,2,1,1,3,6
1480535272529549,9,2,0,-3,1,0,0,6
1480535272529549,-1,-7,-5,1,-1,-2,1,-2
1480535272531054,-2,-2,0,-2,-1,-1,-7,-2
1480535272531054,4,7,-1,0,-2,-2,-1,2
1480535272552109,-6,-5,0,1,2,2,5,-2
1480535272552109,-2,-3,3,-1,-2,-1,-3,-2
1480535272553613,9,8,-2,-1,0,-3,-3,2
1480535272553613,2,4,0,0,-2,1,2,2
1480535272567650,-2,8,-2,-1,-2,-2,1,-2
1480535272567650,0,-2,1,-2,-2,0,-2,0
1480535272569656,0,-10,-4,-1,1,1,2,-3
1480535272569656,2,-4,2,1,-2,-2,-1,0
1480535272589709,-2,-1,1,0,-2,-2,2,-2
1480535272589709,0,-8,-4,0,2,0,0,-1
1480535272591213,-2,-3,-3,-1,-2,-1,-1,-2
1480535272591213,-3,-6,-1,-2,2,1,-1,0
1480535272612270,-5,-6,2,1,-2,-3,-1,0
1480535272612270,-1,0,-3,0,-2,-1,-1,-2
1480535272613774,0,-4,2,1,-2,2,-2,-1
1480535272613774,2,0,0,0,0,0,-1,0
1480535272626307,-2,-3,-1,0,-2,-2,0,-1
1480535272626307,2,1,1,-3,1,-2,-1,-2
1480535272635331,2,5,1,-1,-3,-4,-5,-1
1480535272635331,3,-4,-4,-2,-4,-2,1,-1
1480535272657389,-7,-18,2,2,3,3,2,1
1480535272657389,-4,-4,1,1,0,0,-1,0
1480535272658893,-2,-7,-1,-3,-3,0,-3,-2
1480535272658893,-4,-9,-1,1,1,0,2,-2
1480535272672435,1,1,-1,-1,0,0,-1,-1
1480535272672435,-1,-7,-1,-1,0,-2,-3,-1
1480535272673933,-3,-3,-1,-1,-1,-2,-2,0
1480535272673933,2,0,-2,0,0,-1,1,-1
1480535272694488,2,0,0,-1,1,-1,-1,-2
1480535272694488,-1,-5,1,-1,-1,-1,1,0
1480535272696493,0,2,3,1,0,0,0,0
1480535272696493,1,7,-7,-1,-1,-1,-1,0
1480535272710031,-2,3,0,-3,-5,-2,0,-2
1480535272710031,1,6,3,-1,-1,-3,1,2
1480535272711533,-3,-3,0,0,0,0,0,-3
1480535272711533,0,6,0,0,-1,-2,-1,1
1480535272740611,0,5,-2,-1,-2,1,-2,-2
1480535272740611,1,2,-3,0,0,0,-1,-1
1480535272744124,-8,-5,3,0,-3,1,0,0
1480535272744124,1,1,0,0,2,0,-2,0
1480535272746626,3,1,-5,-2,-3,-2,-1,0
1480535272746626,-3,2,1,1,2,2,3,0
1480535272760665,1,-12,-5,-2,0,-1,-1,0
1480535272760665,0,4,2,1,-1,-1,-2,-2
1480535272777709,-3,-1,0,0,0,1,-2,-1
1480535272777709,-3,-6,-1,0,-1,0,-2,-2
1480535272783227,-5,-11,-3,1,1,1,3,-1
1480535272783227,2,3,-4,-4,-3,-3,-2,-1
1480535272792247,1,2,-2,-3,-2,-2,-1,0
1480535272792247,-2,-8,-1,-1,2,1,-1,-1
1480535272793753,0,7,2,3,0,0,1,-1
1480535272793753,2,-1,3,-1,-2,1,-1,1
1480535272806786,5,10,-2,1,-2,-2,-1,-2
1480535272806786,1,1,-4,-2,-1,1,-2,-2
1480535272813304,-1,1,0,-2,-1,0,1,2
1480535272813304,-1,-1,-1,-3,-1,-1,1,1
1480535272829848,0,-5,-1,0,2,1,1,-1
1480535272829848,2,0,1,-2,-4,-5,-3,0
1480535272831352,2,5,-5,-2,2,2,-1,-2
1480535272831352,-2,-2,-1,-1,-2,0,0,-1
1480535272851907,1,2,1,-1,-2,0,-1,0
1480535272851907,-5,-14,-1,2,0,2,0,-1
1480535272858424,0,1,0,0,0,-2,-2,-1
1480535272858424,-3,-4,2,1,0,-1,0,-1
1480535272866446,-2,-1,0,0,1,1,1,-1
1480535272866446,1,1,0,0,-1,0,-1,0
1480535272873464,4,7,-5,-2,-2,-3,-2,-2
1480535272873464,1,1,1,-1,-1,-2,-1,-1
1480535272888504,-3,-9,0,-1,0,-1,1,0
1480535272888504,2,6,1,-1,0,0,0,0
1480535272905048,3,2,-4,-1,0,0,-1,0
1480535272905048,-4,5,1,2,1,1,-1,0
1480535272912068,-4,-2,1,-1,-1,0,0,0
1480535272912068,-2,2,-1,-1,-3,-3,-1,-1
1480535272913571,1,2,1,-2,0,1,0,-2
1480535272913571,1,12,1,-1,-1,1,-1,0
1480535272934626,-3,-8,-1,0,0,0,0,-1
1480535272934626,2,8,-1,0,1,0,-1,-2
1480535272942147,-9,-10,4,-1,-1,-2,0,1
1480535272942147,-7,-15,-3,1,1,1,2,0
1480535272949667,-1,3,-1,1,-2,-1,0,-1
1480535272949667,2,-2,-4,-3,-2,-2,-1,-1
1480535272952173,1,1,-4,-2,-2,0,0,-3
1480535272952173,1,1,-3,-2,0,-1,-2,-1
1480535272979747,3,2,-1,-1,1,-1,-1,0
1480535272979747,-2,-8,-2,0,-2,-2,0,-1
1480535272981251,3,2,-1,-2,-1,-1,-2,0
1480535272981251,0,-2,-3,-3,-3,-3,-1,-2
1480535272985763,-6,-8,3,1,0,-1,-2,0
1480535272985763,3,4,0,-1,0,-3,-1,1
1480535273000803,-1,-6,-8,-1,0,0,1,-1
1480535273000803,0,-10,2,-1,0,-2,1,-1
1480535273009828,-3,10,0,-1,-1,0,0,-1
1480535273009828,-3,-5,2,1,2,1,1,0
1480535273011331,-1,-3,3,-1,-1,-2,-2,1
1480535273011331,-1,-1,-2,-1,0,-1,0,-2
1480535273032888,3,0,-2,-1,-1,-2,-3,1
1480535273032888,0,-7,-2,-1,-2,-1,-1,0
1480535273034392,-8,-6,3,1,2,1,1,-1
1480535273034392,3,5,-2,0,0,-1,-2,-2
1480535273045923,2,-3,-1,-2,0,-2,-1,-1
1480535273045923,-1,2,1,-2,-2,-1,-1,-1
1480535273062466,2,-4,2,-1,-2,-2,-2,0
1480535273062466,0,-5,-5,0,0,-2,-1,-1
1480535273069486,4,0,-2,-1,1,0,0,0
1480535273069486,-3,-6,1,1,1,1,2,2
1480535273071493,4,5,-1,1,-1,-2,0,0
1480535273071493,-1,0,-8,-1,0,1,0,0
1480535273100067,1,3,-1,-1,-1,-1,-2,-1
1480535273100067,0,2,-3,-1,-2,-3,-1,-2
1480535273101571,-1,-10,-3,-2,-2,0,-2,0
1480535273101571,-1,4,1,1,-2,-1,0,-1
1480535273105581,-6,-9,-2,-2,-2,0,0,0
1480535273105581,4,5,-1,-1,-2,-1,0,-2
1480535273114605,-2,7,-1,0,0,-3,-1,-1
1480535273114605,-3,-7,0,0,-1,0,1,0
1480535273137166,-1,-1,0,-1,1,-1,0,-2
1480535273137166,0,-2,0,0,-1,1,0,0
1480535273139354,-1,0,-1,0,-1,0,-2,-1
1480535273139354,-1,-6,4,2,2,1,-1,-1
1480535273166744,-2,8,1,-1,0,-2,0,-1
1480535273166744,-2,-5,1,0,-1,-1,0,0
1480535273184291,0,5,-4,0,-2,-2,-1,-1
1480535273184291,1,5,0,-2,-2,-1,-2,0
1480535273185293,-2,-5,-1,-2,1,0,1,0
1480535273185293,1,-2,0,-2,0,-1,-1,0
1480535273190808,-12,-8,7,-1,0,2,2,0
1480535273190808,0,-3,-1,-1,0,1,1,-1
1480535273192312,-3,-5,0,0,-5,-1,-1,-1
1480535273192312,0,0,-3,-1,-2,-1,-1,-1
1480535273193316,1,-4,-1,-2,0,0,-1,-2
1480535273193316,0,0,-1,0,1,1,0,0
1480535273212365,-1,4,1,0,0,1,-3,-1
1480535273212365,-2,-8,-2,-2,-1,0,0,-1
1480535273214872,2,0,-1,0,0,-1,-1,0
1480535273214872,0,3,0,-1,-4,-3,-1,0
1480535273226402,0,-5,0,1,1,1,2,0
1480535273226402,-3,4,-6,-2,0,-2,-1,0
1480535273235427,0,-2,1,0,0,0,1,0
1480535273235427,-2,-2,0,0,-2,-1,-1,-2
1480535273249464,1,0,-1,-1,0,0,-1,0
1480535273249464,-2,-6,0,0,1,0,0,-1
1480535273251469,1,0,0,-1,0,-2,0,-1
1480535273251469,0,2,-1,-2,-1,-2,-1,0
1480535273271524,-3,-9,-3,-2,-1,-1,0,-3
1480535273271524,0,-3,0,-1,0,1,-1,0
1480535273280045,0,6,1,0,0,0,-1,0
1480535273280045,4,-4,-2,-1,0,-1,-1,0
1480535273286061,2,-4,-1,-2,0,-2,-1,0
1480535273286061,-1,-1,3,1,-1,-2,1,0
1480535273301101,-2,1,1,1,2,0,0,1
1480535273301101,-1,-7,2,-2,0,0,-1,-2
1480535273309624,-1,0,2,-1,2,0,0,1
1480535273309624,4,6,-4,0,-1,0,-1,1
1480535273311130,-3,-3,4,1,-2,0,0,-1
1480535273311130,-4,0,-1,0,-2,-1,1,1
1480535273333688,1,0,0,0,0,0,-1,-1
1480535273333688,1,0,0,-3,-2,0,-1,-1
1480535273335693,3,-1,-4,-2,-2,-2,0,1
1480535273335693,-1,1,0,1,0,1,-1,0
1480535273345720,0,2,-2,0,-2,0,-1,-1
1480535273345720,-1,-5,1,-1,1,-2,0,2
1480535273354745,-2,-7,-1,-1,0,-2,0,0
1480535273354745,7,9,-3,-1,-3,-3,1,0
1480535273369785,-10,7,4,1,0,2,2,0
1480535273369785,-2,-5,0,2,-1,1,0,-2
1480535273371289,2,-4,-2,-1,1,1,1,1
1480535273371289,4,4,-2,-2,-1,-1,-1,1
1480535273393350,0,-5,1,-2,1,0,0,-1
1480535273393350,2,1,-2,-1,-1,0,-2,-2
1480535273395854,1,3,-4,-2,-2,-1,-3,1
1480535273395854,-3,-7,1,-2,0,-1,0,-1
1480535273414905,-2,-3,0,0,-2,-1,-1,1
1480535273414905,-4,-1,-2,0,1,-1,0,0
1480535273416408,0,-10,-4,-2,0,1,-2,-2
1480535273416408,-3,-6,-1,1,-1,0,-2,-2
1480535273436963,1,-1,-5,-1,-3,-1,-2,0
1480535273436963,0,3,1,-1,-1,-2,-1,-2
1480535273438969,2,-1,-1,-1,-2,0,-2,-3
1480535273438969,2,5,1,2,-1,-1,2,0
1480535273460025,-12,-22,5,1,1,0,1,-1
1480535273460025,0,-8,1,-1,-1,0,0,2
1480535273466040,2,5,-1,0,0,-2,0,-3
1480535273466040,-3,-4,-2,-2,1,2,-1,0
1480535273474563,7,1,-3,-1,0,-3,-2,-2
1480535273474563,-2,4,1,0,-4,0,-1,-2
1480535273477075,3,3,0,-2,-2,1,-1,1
1480535273477075,-4,-9,-3,0,1,2,1,0
1480535273489606,3,10,-1,1,-2,-2,0,0
1480535273489606,-2,-3,1,0,-1,-2,0,1
1480535273491106,-1,0,-1,0,-2,-1,-1,-1
1480535273491106,-2,-5,-1,-1,0,-1,-2,-1
1480535273512664,2,-1,-3,0,-1,0,0,-2
1480535273512664,0,-3,-1,1,1,0,0,-1
1480535273518179,-2,-4,-2,0,0,0,0,0
1480535273518179,2,3,2,0,0,-1,0,-2
1480535273534723,1,15,0,-2,-1,-3,0,-1
1480535273534723,3,14,-4,-2,-2,-2,-1,-1
1480535273537231,-1,0,-2,-2,0,0,1,-2
1480535273537231,0,2,1,-1,-4,-2,-2,-2
1480535273557784,4,-2,-2,1,1,1,-1,2
1480535273557784,1,-7,-2,-4,-1,-1,-1,-1
1480535273560793,0,-5,1,1,0,0,0,0
1480535273560793,-1,0,1,1,1,0,0,-1
1480535273579843,1,-7,-2,0,-1,0,-1,0
1480535273579843,-1,-7,-2,0,-1,0,1,-2
1480535273581347,-4,-5,1,1,0,1,-1,0
1480535273581347,-3,-7,3,0,0,-1,-3,-2
1480535273594882,-2,-4,-1,-1,-2,-4,-2,-1
1480535273594882,0,-4,1,0,2,1,-1,0
1480535273596386,1,2,-7,-3,-1,-2,-3,-1
1480535273596386,0,4,-1,0,-2,-2,1,0
1480535273609424,2,3,-1,-1,1,0,-2,-1
1480535273609424,-3,-5,0,0,0,1,1,0
1480535273617443,-2,-9,1,1,1,0,0,-1
1480535273617443,-2,-2,-2,-1,0,0,0,1
1480535273631982,3,-8,-4,-2,-1,0,-1,0
1480535273631982,-3,-2,1,0,-2,-2,0,-3
1480535273633989,-2,-4,0,0,-1,-1,0,-2
1480535273633989,0,-1,-3,0,1,1,0,0
1480535273655544,0,-3,0,-2,-2,-1,0,-2
