timestamp,x,y,z
1480535257521120,-1,0.1875,0.875
1480535257531649,-0.625,-0.6875,0.625
1480535257563235,0.4375,-0.9375,1
1480535257573259,1.0625,-1.1875,1.25
1480535257595820,0.5,-1.375,0.9375
1480535257613867,0.4375,-1.1875,0.625
1480535257643948,0.9375,-0.375,0.625
1480535257651468,0.625,-0.0625,0.375
1480535257674028,0.5625,0.25,0.3125
1480535257693580,0.375,0.4375,0.5
1480535257711627,0.1875,0.5625,0.6875
1480535257756246,-0.625,0.625,0.875
1480535257764268,-0.8125,0.5625,0.625
1480535257775798,-0.125,0.5625,0.5
1480535257793846,0.5625,0.625,0.4375
1480535257813399,0.5625,0.625,0.375
1480535257840972,0.5625,0.25,0.125
1480535257854006,0.25,0.125,0.125
1480535257875062,0.125,-0.0625,-0.1875
1480535257913668,0.0625,0,-0.125
1480535257918678,0.125,-0.25,-0.3125
1480535257935724,0.375,-0.375,-0.1875
1480535257955777,0.3125,-0.4375,-0.1875
1480535257978337,0.875,-0.375,0.1875
1480535258000897,-0.875,-0.6875,0.6875
1480535258017441,-0.3125,-0.625,0.75
1480535258041505,0.8125,0.125,0.875
1480535258057548,0.875,0.3125,0.375
1480535258076097,0.125,-0.25,-0.375
1480535258106678,-0.375,-0.375,-0.5
1480535258114700,-0.5,-0.5,-0.125
1480535258143276,-0.8125,-0.5,-0.0625
1480535258153804,-0.75,-0.375,-0.0625
1480535258174860,-0.25,-0.4375,-0.0625
1480535258195920,-0.1875,-0.375,0.0625
1480535258213968,-0.0625,-0.1875,0.3125
1480535258236526,-0.4375,-0.125,0.5
1480535258256077,-1.25,-0.5625,0.125
1480535258274124,-0.6875,-0.1875,0.25
1480535258297687,-0.125,0.1875,0.6875
1480535258317238,-0.125,0.25,0.5
1480535258334284,-0.625,-0.0625,0.4375
1480535258356343,-0.6875,-0.0625,0.75
1480535258375894,-0.875,0.3125,0.75
1480535258393942,-1.0625,0.375,0.5625
1480535258418508,-1.0625,0.4375,0.6875
1480535258436054,-1,0.5625,0.5625
1480535258460118,-0.25,0.8125,0.0625
1480535258481175,-0.25,0.875,-0.0625
1480535258503233,-0.75,1.0625,-0.375
1480535258513764,-0.4375,1.0625,-0.4375
1480535258536322,0.0625,0.0625,-1.4375
1480535258555874,0.375,-0.1875,-1.5
1480535258585954,0.125,-0.4375,-0.4375
1480535258596982,-0.4375,-0.75,0.1875
1480535258616033,-1.3125,-0.8125,0.5
1480535258634081,-1.4375,-0.5,0.5
1480535258664161,-0.125,0,0
1480535258675692,1.75,0.1875,0.1875
1480535258693740,1.25,0.5,-0.125
1480535258716299,-0.0625,0.4375,-0.1875
1480535258743873,-1.5625,0.1875,0.0625
1480535258753900,-2.125,0.25,-0.1875
1480535258783980,-0.8125,0.375,-0.1875
1480535258796016,0.0625,0.3125,-0.25
1480535258818571,0.4375,0.375,-0.0625
1480535258838125,0,0.625,0.25
1480535258857174,-0.8125,0.625,0.5625
1480535258873719,-1.5,0.625,0.25
1480535258910817,-0.5,0.875,0.1875
1480535258918338,0.6875,1.125,0.125
1480535258947415,0.4375,1.25,0.125
1480535258956444,-0.125,0.8125,0.375
1480535258987521,-0.375,0.625,0.1875
1480535258994039,-0.3125,0.4375,0.3125
1480535259016599,0.3125,0.375,0.4375
1480535259037654,0.5625,0.5,0.25
1480535259060716,0.25,0.25,0.3125
1480535259084279,-0.375,0.3125,0.4375
1480535259103329,-0.25,0.0625,0.5625
1480535259113858,0,0.125,0.375
1480535259148951,0.4375,0.3125,0.25
1480535259163491,0.1875,0.3125,0.125
1480535259181538,-0.1875,0.3125,0.125
1480535259218636,-0.25,0.1875,0
1480535259221143,0.0625,0.4375,-0.25
1480535259238689,0.3125,0.6875,0
1480535259256236,-0.5,0.3125,0.25
1480535259283308,-1.5,-0.625,0.125
1480535259305869,0.125,0,-0.0625
1480535259316397,2.25,0.4375,0.1875
1480535259346983,2.3125,0.3125,-0.25
1480535259374049,1.25,-0.1875,-0.4375
1480535259385079,0.25,-0.75,-0.25
1480535259430199,-0.4375,-0.5625,-0.0625
1480535259435212,-0.5,-0.3125,-0.0625
1480535259441228,-0.125,0,-0.25
1480535259463289,0.875,0.625,-0.125
1480535259478327,0.625,0.875,-0.0625
1480535259496876,-0.125,1,-0.0625
1480535259524951,-0.375,0.9375,0.25
1480535259539991,-0.5,0.75,0
1480535259556535,0,0.625,-0.3125
1480535259578092,0.625,0.6875,0.125
1480535259599148,0.375,0.4375,-0.25
1480535259615692,0.3125,0,-0.25
1480535259652289,0.5,-0.3125,-0.25
1480535259659316,0.4375,-0.4375,-0.1875
1480535259690892,0.1875,-0.5,-0.375
1480535259697911,0.5,-0.3125,-0.3125
1480535259726487,0.4375,-0.0625,-0.3125
1480535259745538,0.375,0.125,-0.0625
1480535259758572,0.3125,0.125,0.0625
1480535259779127,0.4375,0.125,-0.1875
1480535259795673,0.4375,0,0
1480535259818231,0.1875,0.0625,-0.0625
1480535259839788,0.1875,0.0625,-0.25
1480535259862852,0.3125,0.1875,-0.0625
1480535259877890,0.3125,0.1875,-0.125
1480535259898945,0,0,0.125
1480535259921506,0.1875,-0.125,0.125
1480535259938051,0.0625,-0.125,0.5
1480535259959105,-0.1875,-0.1875,0.125
1480535259984674,0.625,0.25,0.3125
1480535260013751,1.3125,0.625,0.8125
1480535260019265,0.6875,0.5625,0
1480535260035810,0.125,0,-0.3125
1480535260057869,-0.1875,-0.1875,-0.25
1480535260080430,-0.375,-0.125,-0.1875
1480535260095470,-0.5,-0.4375,-0.0625
1480535260119031,-0.0625,-0.3125,0.125
1480535260141592,0.6875,-0.1875,0.125
1480535260162147,0.625,-0.1875,0.25
1480535260178189,0.625,-0.25,0
1480535260218295,0.5625,-0.25,0.125
1480535260222314,0.0625,-0.3125,0.0625
1480535260253389,0.375,-0.1875,-0.0625
1480535260262415,0.4375,0.0625,0
1480535260299511,0.4375,-0.0625,-0.5
1480535260304027,0.4375,-0.1875,-0.0625
1480535260328087,0.5625,-0.25,0
1480535260335106,0.375,-0.3125,-0.125
1480535260358167,-0.25,-0.3125,-0.25
1480535260380728,0,-0.25,-0.25
1480535260394765,0.25,-0.1875,-0.375
1480535260418327,0.5,-0.0625,-0.3125
1480535260448909,0.375,0,-0.375
1480535260454924,-0.125,-0.1875,0
1480535260491521,-0.3125,-0.25,-0.0625
1480535260500546,-0.75,-0.3125,0.125
1480535260515084,-0.5625,-0.1875,0.125
1480535260538147,-0.4375,0.0625,0.1875
1480535260561710,-0.4375,0,0.125
1480535260581762,-0.6875,-0.0625,-0.0625
1480535260607330,-0.125,-0.125,0.0625
1480535260620867,0.0625,-0.25,-0.0625
1480535260641421,0.1875,-0.6875,-0.125
1480535260657964,-0.1875,-0.8125,0
1480535260681026,-0.25,-0.6875,-0.3125
1480535260702082,0.875,-0.1875,0.125
1480535260724140,0.8125,0.25,-0.1875
1480535260740685,0.625,-0.0625,-0.625
1480535260761239,-0.0625,-0.3125,-0.625
1480535260778284,-0.5625,-0.0625,-0.1875
1480535260800844,-1,0.1875,-0.0625
1480535260829424,-1.0625,0.125,-0.0625
1480535260851479,-0.375,0.5625,0
1480535260861005,-0.125,0.625,0.0625
1480535260883566,-0.125,0.875,0.0625
1480535260898103,-0.75,0.625,0.125
1480535260920663,-0.875,0.5,-0.25
1480535260941721,-0.125,0.625,-0.0625
1480535260959768,-0.1875,0.5625,0
1480535260980824,-0.25,0.1875,-0.5
1480535261010402,-0.125,0,-0.5625
1480535261018424,0.3125,-0.0625,-0.3125
1480535261040482,0.25,-0.125,-0.375
1480535261071064,0,-0.1875,0
1480535261077584,-0.25,-0.125,0.125
1480535261108163,-0.3125,0.0625,0.125
1480535261123703,-0.1875,0.25,0.1875
1480535261138242,0,0.625,0.5625
1480535261162309,-0.3125,0.5,0.3125
1480535261182864,-0.6875,0.5625,0.1875
1480535261197399,-0.5625,0.4375,0.125
1480535261221464,0,0.25,0.125
1480535261258061,0,0.25,0.125
1480535261260568,-0.25,-0.125,0.125
1480535261280621,-0.3125,-0.25,0.125
1480535261303182,0,-0.125,0.125
1480535261317218,0,-0.0625,0.125
1480535261349373,-0.25,0.125,0.3125
1480535261364344,-0.6875,0.1875,0.25
1480535261386402,-0.25,0.5,0.25
1480535261400440,0.625,0.875,0.625
1480535261447064,0.3125,0.9375,-0.0625
1480535261451575,-0.125,0.375,-0.3125
1480535261460600,-0.375,0.125,-0.0625
1480535261483160,-0.625,0.125,-0.0625
1480535261497199,-0.875,0,-0.125
1480535261529285,-0.625,-0.0625,0.125
1480535261566882,0.125,0.1875,0.125
1480535261571896,0.3125,0.125,0
1480535261580919,0.1875,0.125,0.0625
1480535261602978,-0.25,-0.0625,0.25
1480535261624035,-0.4375,-0.125,-0.0625
1480535261641079,0.0625,-0.25,-0.125
1480535261664643,0.0625,0.1875,0.25
1480535261684194,0.0625,0.1875,-0.0625
1480535261700739,-0.125,-0.0625,-0.0625
1480535261723299,-0.125,0.0625,0.1875
1480535261744355,-0.1875,0.25,0.125
1480535261760899,-0.375,0.0625,0.0625
1480535261796496,-0.375,0.1875,0.1875
1480535261808024,-0.375,0.375,0.125
1480535261835598,-0.3125,0.4375,0.0625
1480535261843117,-0.0625,0.375,0.0625
1480535261864173,0.25,0.25,0
1480535261880717,0.125,0.25,0.0625
1480535261903278,-0.25,0.0625,0.125
1480535261924333,-0.25,-0.0625,0.1875
1480535261940376,-0.25,-0.125,0
1480535261962942,-0.125,-0.1875,0
1480535261984994,0.375,-0.25,-0.125
1480535262000536,0.375,-0.3125,-0.125
1480535262024099,0.25,-0.1875,0.0625
1480535262045677,-0.5625,-0.375,0.1875
1480535262060696,-0.1875,-0.1875,0.3125
1480535262083256,-0.125,-0.1875,0.3125
1480535262121357,0.125,0.0625,0.125
1480535262123362,0.8125,0.375,0.5
1480535262150435,0.625,0.3125,0.375
1480535262165475,0.25,-0.0625,-0.0625
1480535262189539,-0.0625,-0.5,-0.125
1480535262204077,0.125,-0.5,0
1480535262225635,-0.3125,-0.4375,0.0625
1480535262239672,-0.3125,-0.625,0.25
1480535262269254,-0.125,-0.4375,0.375
1480535262285795,0.75,-0.3125,0.625
1480535262306536,0.5,-0.25,0.8125
1480535262323395,0.25,-0.3125,0.8125
1480535262362003,-0.375,-0.5625,0.625
1480535262367512,-0.375,-0.0625,0.5
1480535262390573,0.25,0.1875,0.5625
1480535262406617,-0.1875,0.1875,0.125
1480535262428174,-0.25,-0.125,-0.125
1480535262443718,1.375,-0.625,-0.75
1480535262466275,2.8125,-0.8125,-0.6875
1480535262486829,1.6875,-1.375,-0.625
1480535262504449,0.5,-2,-0.3125
1480535262526434,0.5625,-2,-0.3125
1480535262555512,1.0625,-1.75,-0.1875
1480535262564035,1.5625,-1.1875,-0.375
1480535262593112,1.4375,-0.5625,-0.125
1480535262607149,0.75,0.0625,0
1480535262638733,-0.1875,0.375,0.0625
1480535262645756,-0.5,0.5,-0.1875
1480535262668313,-0.375,0.625,-0.0625
1480535262684355,0.1875,0.5,0
1480535262711932,0.375,0.3125,0
1480535262733987,0.5625,0.0625,0
1480535262743011,0.25,-0.4375,-0.0625
1480535262765571,0.4375,-0.8125,-0.25
1480535262788131,1.875,-1.0625,-0.6875
1480535262803171,2.5,-1.0625,-0.5
1480535262833251,1.4375,-1.125,-0.3125
1480535262846286,0.125,-1.1875,-0.3125
1480535262872356,0.625,-0.4375,-0.0625
1480535262885390,1.25,0.1875,0.3125
1480535262906451,1.125,0.375,-0.3125
1480535262922989,1,0.375,-0.375
1480535262946053,-0.25,0.25,0.0625
1480535262968110,-1.3125,0.0625,0.125
1480535262983149,-0.9375,0.125,0.125
1480535263011725,0.0625,0.25,0.5
1480535263035289,0.3125,0.375,0.375
1480535263043310,-0.0625,0.25,0.4375
1480535263065368,-0.1875,0.1875,0.9375
1480535263102468,-1,-0.125,0.75
1480535263108984,-0.25,-1.875,0.1875
1480535263149592,-1.8125,-1.75,0.6875
1480535263154105,-2.1875,-0.9375,-0.375
1480535263162627,-1.625,-0.6875,-0.3125
1480535263191704,-0.25,-0.4375,0.0625
1480535263208248,0.1875,0,0.125
1480535263222286,-0.375,0.0625,0.3125
1480535263246851,-1.25,0.4375,0.6875
1480535263267907,-1.3125,0.6875,0.75
1480535263290468,-0.8125,0.75,0.9375
1480535263311523,-0.25,1,0.5625
1480535263328068,-0.1875,1.25,0.5
1480535263351129,-0.25,1.0625,0.625
1480535263388728,-0.625,0.8125,0.625
1480535263391235,-0.4375,0.5625,0.6875
1480535263425827,-0.25,0.5,0.8125
1480535263428337,-0.4375,0.25,0.4375
1480535263448388,-0.0625,0.0625,0.5625
1480535263471449,0.4375,0.0625,0.625
1480535263486990,0,0,0.5
1480535263508047,-0.1875,0.1875,0.4375
1480535263529102,-0.25,0.125,0.9375
1480535263545648,-0.5,0.1875,0.1875
1480535263568206,0.375,0.5625,0.875
1480535263589262,0.3125,0.875,0.9375
1480535263605305,0.0625,0.75,0.125
1480535263628370,-0.25,0.4375,0.25
1480535263665966,-0.9375,0.3125,0.1875
1480535263668473,-1.125,0.25,0.125
1480535263696049,-0.875,0.1875,0.1875
1480535263709081,-0.25,0,0.3125
1480535263726126,0.5,0.1875,0.0625
1480535263748185,0.6875,0.375,-0.0625
1480535263769743,-0.0625,0.3125,0.25
1480535263785785,-0.375,-0.0625,-0.375
1480535263808749,0.1875,0.125,-0.1875
1480535263828904,0.625,0.375,-0.125
1480535263845445,0.125,0.1875,-0.625
1480535263868505,-0.125,0.0625,-0.5
1480535263907107,0.25,0.1875,-0.1875
1480535263911623,0,0,-0.0625
1480535263943203,-0.375,0.0625,0.125
1480535263959246,-0.375,0.375,0.375
1480535263967267,-0.75,0.4375,0.375
1480535263987821,-0.8125,0.75,0.25
1480535264025923,-0.5,0.875,0.1875
1480535264028434,0,1,0.125
1480535264055502,0,0.6875,0
1480535264071550,-0.375,0.5,-0.0625
1480535264093103,-0.5,0.25,0.125
1480535264108644,-0.25,-0.125,-0.0625
1480535264130203,0.5625,-0.25,-0.1875
1480535264146243,0.375,-0.3125,-0.3125
1480535264174319,0.375,-0.4375,-0.25
1480535264190360,0.3125,-0.4375,0
1480535264218936,0.625,-0.3125,0
1480535264227961,-0.125,-0.375,0.125
1480535264250520,-0.4375,-0.125,-0.0625
1480535264265060,1,0.4375,0.4375
1480535264288622,1.25,0.6875,0.125
1480535264310681,0.75,0.4375,-0.4375
1480535264325720,0.5,0.25,-0.4375
1480535264349283,0.0625,0.25,-0.375
1480535264373991,-0.75,0.0625,-0.5625
1480535264400419,-0.6875,-0.125,-0.5
1480535264424484,0.375,0.125,-0.0625
1480535264430502,0.6875,0.375,0.125
1480535264461081,-0.1875,0.25,0.0625
1480535264468099,-0.125,0.1875,0.125
1480535264491161,-0.25,0.25,0.3125
1480535264519236,-0.25,-0.0625,-0.25
1480535264528763,0.625,0,0.125
1480535264550820,0.375,0.1875,0.125
1480535264579400,0,-0.1875,-0.0625
1480535264587918,-0.125,-0.375,0.125
1480535264610478,-0.125,-0.25,0.4375
1480535264631534,0.125,-0.375,0.1875
1480535264648078,0,-0.4375,0.125
1480535264685177,0.25,-0.25,-0.125
1480535264701721,0.5,-0.3125,-0.375
1480535264730798,0.625,-0.375,-0.3125
1480535264733305,0.3125,-0.4375,-0.6875
1480535264766894,0.375,-0.5,-1
1480535264775918,0.5625,-0.5,-1.1875
1480535264798478,0.4375,-0.4375,-1.4375
1480535264813518,0.6875,-0.4375,-1.5
1480535264834073,1.25,-0.5,-1.4375
1480535264850617,1.25,-0.25,-1.625
1480535264873177,0.8125,-0.25,-1.25
1480535264894234,1.125,-0.1875,-0.9375
1480535264910778,0.25,0.125,0.1875
1480535264935343,-0.875,0,0.125
1480535264954894,-0.5,0.5625,0.125
1480535264978459,0.75,1,0.4375
1480535264992995,0.75,1.3125,-0.4375
1480535265007535,0.1875,0.875,-1
1480535265031097,-0.25,0.3125,-1
1480535265053155,-0.3125,0.125,-0.75
1480535265074713,-0.3125,-0.25,-0.875
1480535265090755,-0.125,-0.5,-0.5
1480535265120836,0.5,-0.75,-0.4375
1480535265135375,0.5,-0.625,-0.1875
1480535265150417,0.6875,-0.4375,0
1480535265172974,-0.3125,-0.25,0.125
1480535265194031,-0.75,-0.125,-0.25
1480535265212079,0.0625,0.3125,0.125
1480535265233636,0.1875,0.625,0.25
1480535265247172,-0.75,0.1875,-0.1875
1480535265270736,-0.8125,0,-0.4375
1480535265293295,0.125,0,-0.125
1480535265307332,0.4375,-0.0625,0.125
1480535265331397,-0.5625,-0.5,-0.0625
1480535265353454,-0.9375,-0.4375,0.0625
1480535265374010,-0.3125,-0.375,0.125
1480535265390553,0.8125,-0.3125,0.125
1480535265413113,-0.5625,-0.0625,-0.5
1480535265434169,-0.9375,-0.125,-0.3125
1480535265450714,-0.8125,0.25,0.3125
1480535265473273,-0.75,-0.0625,-0.125
1480535265494332,-0.25,-0.25,-0.0625
1480535265510873,-0.0625,-0.25,0
1480535265532932,0.375,-0.4375,0.125
1480535265554489,0.3125,-0.625,0.1875
1480535265570533,0.5625,-0.6875,0.1875
1480535265593593,-0.25,-0.6875,0.375
1480535265614148,-0.75,-0.5,0
1480535265630693,0.0625,0.1875,0.3125
1480535265653252,0.6875,0.6875,0.5625
1480535265673806,0.3125,0.625,-0.125
1480535265692858,-0.625,-0.125,-0.0625
1480535265729455,-1.125,-0.0625,0.25
1480535265733966,-0.9375,0,0.125
1480535265759033,-0.75,-0.4375,-0.0625
1480535265773096,-0.125,-0.1875,0.125
1480535265795631,0.5,0.0625,0.1875
1480535265810671,0.5,0.375,0.125
1480535265833230,-0.125,0.375,0.8125
1480535265856292,-0.9375,0.1875,0.3125
1480535265870832,-0.25,0.1875,0.125
1480535265894394,0.3125,0.5,0.375
1480535265921465,0.0625,0.5625,0.0625
1480535265931492,-0.25,0.3125,0.125
1480535265961070,-0.125,0.125,0.4375
1480535265975610,0.1875,0.0625,0.25
1480535265990148,0.0625,-0.0625,0.3125
1480535266013210,-0.125,-0.1875,0.3125
1480535266041786,-0.3125,0.0625,0.375
1480535266049808,0.1875,0.4375,0.625
1480535266073369,0.5625,0.625,0.375
1480535266095930,0.8125,0.6875,0.5625
1480535266109968,0.4375,0.5,0.6875
1480535266133530,-0.0625,0.25,0.75
1480535266161604,-0.3125,0.25,0.3125
1480535266170127,0.125,0.25,0.3125
1480535266202212,0.0625,0.375,0.3125
1480535266216250,0.375,0.1875,0.125
1480535266230289,0.1875,0.0625,0.3125
1480535266252847,-0.1875,0.25,0.125
1480535266281425,0.625,0.4375,0.125
1480535266289946,1,0.375,0.125
1480535266320527,1,0.25,-0.3125
1480535266343589,0.6875,-0.3125,-0.5
1480535266364144,-0.125,-0.4375,-0.25
1480535266373669,-0.5625,-0.3125,-0.0625
1480535266396229,-0.1875,0,0.125
1480535266416783,0.3125,0.1875,0.125
1480535266432825,0.4375,0.3125,0.0625
1480535266470927,0.375,0.6875,0.125
1480535266477945,-0.25,0.375,0.3125
1480535266517050,-0.5,0.4375,-0.0625
1480535266522063,0.375,0.5625,0.125
1480535266536602,0.625,0.4375,0.125
1480535266562170,0.25,0.375,-0.125
1480535266576208,-0.125,0.125,0
1480535266596763,0.25,-0.0625,0
1480535266620324,0.0625,0.3125,0.125
1480535266636368,-0.1875,0.1875,0.125
1480535266657924,-0.125,0.125,0.125
1480535266680489,0.125,0.4375,0.0625
1480535266695525,-0.0625,0.625,0.3125
1480535266716580,-0.125,0.375,0
1480535266733124,-0.25,0.375,0.375
1480535266756185,0.1875,0.3125,0.125
1480535266779248,0.25,0.125,0.125
1480535266799301,-0.0625,0.0625,0
1480535266823865,0,0.0625,0.0625
1480535266837903,0.1875,-0.125,0.125
1480535266853445,0.1875,0,0.25
1480535266875503,0,-0.0625,0.4375
1480535266900070,-0.3125,-0.0625,0.125
1480535266912603,0.5,0.5,0.4375
1480535266935663,1.125,0.625,0.5625
1480535266960229,0.8125,0.5,-0.3125
1480535266972260,0.3125,0.0625,-0.5625
1480535266995322,0.25,0,-0.375
1480535267017882,-0.375,-0.0625,-0.375
1480535267032422,-0.5,-0.125,-0.25
1480535267063504,-0.0625,0.0625,0
1480535267079045,0.25,0.125,0.125
1480535267108124,0.1875,0.1875,0.0625
1480535267115645,0.5,0.25,-0.3125
1480535267153242,0.5,0.1875,-0.125
1480535267155247,0.375,0.1875,-0.25
1480535267188836,0.4375,0.0625,-0.0625
1480535267197861,0.1875,-0.0625,-0.125
1480535267212401,0.0625,-0.25,0
1480535267235461,0.5625,-0.25,0.0625
1480535267259525,0.3125,-0.0625,0.0625
1480535267279078,-0.0625,0.0625,0.0625
1480535267296124,-0.125,0,-0.125
1480535267318180,-0.0625,0.3125,-0.125
1480535267346758,0.375,0.1875,-0.25
1480535267355279,0.5625,0.3125,-0.25
1480535267377839,0.0625,0.0625,-0.4375
1480535267398897,-0.125,-0.1875,-0.625
1480535267416443,0.25,-0.1875,-0.5
1480535267438501,0.625,-0.1875,-0.6875
1480535267460560,0.75,-0.1875,-0.875
1480535267477103,0.4375,-0.4375,-0.9375
1480535267512197,0.75,-0.625,-1.0625
1480535267519215,0.875,-0.6875,-0.5625
1480535267535759,0.875,-0.6875,-0.5625
1480535267558320,1.375,-0.375,-0.125
1480535267578875,1.5625,-0.125,0.3125
1480535267595420,1,-0.0625,0.1875
1480535267626000,0.25,0.0625,0.6875
1480535267639035,-0.5,0.3125,1.3125
1480535267661601,-1.125,0.75,1.5
1480535267678149,-1.625,1.25,1.375
1480535267699202,-1.5,1,0.5625
1480535267715745,-0.9375,1.5625,0.3125
1480535267738305,-0.875,1.4375,0.0625
1480535267766881,-0.25,1.0625,0.125
1480535267784429,-0.75,0.3125,-0.0625
1480535267797967,-0.9375,-0.375,-0.1875
1480535267820523,0.25,-0.625,0.0625
1480535267835563,1.0625,-0.8125,0.5
1480535267858124,1.4375,-0.5625,0.875
1480535267886699,-0.5,-0.8125,0.1875
1480535267895222,-0.375,-0.875,0.375
1480535267920289,-0.25,-0.375,-0.25
1480535267941345,-0.8125,0,0.0625
1480535267954881,-1,0.125,0.125
1480535267977942,-0.5625,0.375,-0.125
1480535268001505,-0.9375,0.3125,0.0625
1480535268015043,-0.75,0.375,0.125
1480535268038102,-0.4375,0.125,0.25
1480535268061169,-0.5625,-0.25,0.4375
1480535268081734,-0.6875,-0.5,0.1875
1480535268104278,-0.5,-0.625,0.125
1480535268127841,0,-0.5,0.4375
1480535268148399,-0.5,-0.5,0.4375
1480535268164943,-0.5625,-0.625,0.5
1480535268188502,-0.6875,-0.5,0.375
1480535268201537,-0.25,0.0625,0.25
1480535268219585,0.9375,0.25,0.75
1480535268240641,0.625,0.3125,0.4375
1480535268261698,-0.25,-0.375,0
1480535268278242,-0.875,-0.5625,0.25
1480535268306817,-1.1875,-0.5625,0.125
1480535268338400,-1.0625,-0.375,0.125
1480535268345421,-0.625,-0.25,0.3125
1480535268368481,0.0625,0.0625,0.375
1480535268383521,-0.125,0.3125,0.3125
1480535268406081,-0.4375,0.4375,0.25
1480535268422625,-1.0625,0.375,0.4375
1480535268441676,-0.875,0.1875,-0.0625
1480535268464237,0.1875,0.375,0.1875
1480535268480279,0.0625,0.5625,0.3125
1480535268501334,-0.25,0.1875,0.125
1480535268518380,-0.3125,-0.125,0.25
1480535268540439,-0.3125,-0.25,0.125
1480535268562501,-0.25,0.0625,0.5625
1480535268578540,-0.25,0.125,0.5
1480535268600598,-0.5625,0.25,0.375
1480535268621654,-0.25,0.4375,0.25
1480535268638199,-0.0625,0.625,0.0625
1480535268660759,0,0.5625,0.0625
1480535268683825,0.1875,0.5,0.125
1480535268698359,-0.25,0.5,0.1875
1480535268720919,-0.3125,0.3125,-0.125
1480535268742977,0.0625,0.5625,-0.25
1480535268758017,0.625,0.4375,-0.5
1480535268780579,0.5,0.5625,-0.5
1480535268803639,0.875,0.1875,-0.1875
1480535268824193,-0.3125,-0.25,0
1480535268843244,-0.3125,0.0625,-0.5625
1480535268863298,1.625,0.125,-0.125
1480535268877334,2.0625,0.5625,-0.25
1480535268901402,1.0625,0.375,-0.5
1480535268939500,-0.25,-0.0625,-0.5
1480535268944012,-0.875,0.0625,-0.4375
1480535268968076,-0.5,-0.0625,-0.8125
1480535268983118,0.5625,-0.0625,-0.8125
1480535269004171,1.625,0.4375,-0.625
1480535269020716,0.9375,0.375,-0.625
1480535269043013,0.1875,0.3125,-0.4375
1480535269057313,-0.375,0.125,-0.375
1480535269087894,0.25,0.3125,-0.375
1480535269103436,0.875,0.4375,-0.375
1480535269131513,0.375,0.5625,-0.1875
1480535269140534,-0.0625,0.4375,-0.625
1480535269178636,0.25,0.25,-0.5625
1480535269184655,0.625,0.4375,-0.4375
1480535269201196,0.4375,0.3125,-0.375
1480535269222754,0.1875,0.125,-0.5625
1480535269246320,0,0.0625,-0.3125
1480535269260353,0.375,0.0625,-0.25
1480535269282914,0.4375,0.0625,-0.375
1480535269303971,0.5625,0.25,-0.125
1480535269321015,0.5625,0.125,-0.125
1480535269343073,0.3125,0.0625,-0.125
1480535269373154,0.125,0.1875,-0.125
1480535269380676,0.1875,0.125,-0.4375
1480535269419276,0.3125,0.375,-0.25
1480535269438829,0.5,0.3125,-0.3125
1480535269456876,0.125,0.125,-0.25
1480535269463394,-0.1875,-0.0625,-0.0625
1480535269492972,-0.1875,0.125,0
1480535269500492,-0.5625,0,0.3125
1480535269523052,-0.25,-0.125,0.0625
1480535269544109,1.1875,0.125,0.25
1480535269574188,1.625,0.4375,0.25
1480535269583212,0.75,-0.25,-0.4375
1480535269607276,0.3125,-0.6875,-0.25
1480535269620311,0,-0.625,0.0625
1480535269650391,-0.25,-0.4375,-0.0625
1480535269679971,-0.25,-0.5,0.1875
1480535269694007,-0.25,-0.25,0.25
1480535269733612,0.125,0.125,0.1875
1480535269736119,0.125,0.3125,0.3125
1480535269742136,0.375,0.375,0.125
1480535269770712,-0.625,0.3125,0.3125
1480535269791766,-0.875,0.0625,-0.125
1480535269799788,-0.0625,0,0
1480535269828865,0.375,0,0
1480535269851425,0.1875,-0.375,-0.5
1480535269859948,-0.125,-0.5625,-0.3125
1480535269883010,0.25,-0.6875,0.1875
1480535269906074,0.0625,-0.75,0.25
1480535269929633,-0.25,-0.8125,0.125
1480535269950188,0,-0.5,0
1480535269971746,0.6875,-0.4375,0.0625
1480535269979767,0.1875,-0.5625,0
1480535270010851,-0.25,-0.375,0.25
1480535270042433,-0.1875,-0.25,0.4375
1480535270046444,-0.0625,-0.25,0.3125
1480535270062988,0.1875,-0.1875,0.25
1480535270086050,0.4375,-0.1875,0.4375
1480535270106604,0.0625,-0.3125,0.125
1480535270129170,-0.25,-0.25,0.25
1480535270145206,-0.0625,-0.1875,0.3125
1480535270166764,0,-0.3125,0.125
1480535270183809,0,-0.4375,0.125
1480535270205368,0.5625,-0.4375,0.125
1480535270227927,-0.0625,-0.4375,0.875
1480535270243972,-1,-0.625,0.1875
1480535270289591,0.0625,-0.1875,0.5625
1480535270294107,0.8125,0.375,0.5625
1480535270304130,0.8125,0.1875,0.0625
1480535270325687,0.0625,-0.25,0
1480535270347746,-0.875,-0.4375,0
1480535270362785,-0.9375,-0.3125,0.0625
1480535270385847,-0.5,-0.25,0.0625
1480535270408407,0,-0.125,0.25
1480535270422946,0.125,0,0.1875
1480535270445506,-0.125,-0.125,0.25
1480535270466060,-0.25,0.125,0.5
1480535270483106,-0.875,-0.0625,0.1875
1480535270529229,-0.4375,0,0.125
1480535270566327,-0.0625,0.25,0.4375
1480535270568332,-0.6875,0.5625,0.125
1480535270573847,-0.5,0.4375,0.125
1480535270595404,-0.25,0.4375,0.375
1480535270602924,-0.375,0.625,0.375
1480535270640525,-0.8125,0.375,0.4375
1480535270649047,-0.875,0.3125,0.3125
1480535270663084,-0.4375,0.5,0.25
1480535270685644,0.1875,0.6875,0.375
1480535270708204,0.1875,0.625,0.1875
1480535270722743,-0.25,0.4375,0.1875
1480535270758839,-0.375,0.375,0.3125
1480535270767863,-0.1875,0.25,0.0625
1480535270798946,-0.0625,0.25,0.125
1480535270805463,-0.25,0.1875,0.0625
1480535270835041,0,0.1875,0.125
1480535270845069,0.125,0,0
1480535270865623,0.25,0.0625,0
1480535270890189,0,0,0.0625
1480535270903224,0.4375,0.125,0.125
1480535270925281,-0.125,0.125,0.375
1480535270947841,-0.625,0.25,0
1480535270962381,0.4375,0.625,0.375
1480535270992964,1.125,0.9375,0.4375
1480535271008395,0.6875,0.8125,-0.3125
1480535271046103,0.125,0.4375,-0.4375
1480535271049613,-0.25,0.25,-0.375
1480535271068663,-0.5625,0.1875,-0.3125
1480535271089217,-0.8125,-0.0625,-0.3125
1480535271106264,-0.375,0.0625,0
1480535271127821,0.375,0.25,0.125
1480535271148877,0.5,0.3125,0.0625
1480535271165420,0.25,0.25,0.1875
1480535271187981,-0.25,0,-0.0625
1480535271209038,-0.25,0.125,0.0625
1480535271225581,-0.0625,0.3125,0.25
1480535271248141,0.125,0.25,-0.0625
1480535271279224,0.0625,0.25,-0.25
1480535271285741,0.0625,0.0625,0
1480535271307799,0.0625,0,0.125
1480535271328855,-0.375,0,0.0625
1480535271345399,-0.375,-0.25,-0.3125
1480535271367959,0,-0.125,-0.5
1480535271389015,0.3125,0.125,-0.5
1480535271405559,0.375,0.125,-0.8125
1480535271429122,0.1875,-0.125,-1
1480535271457196,0.3125,-0.125,-1
1480535271468728,0.75,-0.1875,-0.625
1480535271487778,0.0625,-0.5,-0.6875
1480535271519362,-0.3125,-0.5,-0.5625
1480535271525378,0.0625,-0.375,-0.5
1480535271548941,-0.3125,0.1875,-0.1875
1480535271571501,-1.3125,0.4375,-0.375
1480535271594562,-1.0625,0.8125,-0.1875
1480535271614115,-0.875,1.3125,-0.375
1480535271630658,-0.8125,1.3125,-0.4375
1480535271651714,-0.875,1,-0.375
1480535271668259,-0.3125,0.75,-0.1875
1480535271690317,-0.5,0.1875,-0.125
1480535271704857,-0.3125,0.0625,-0.4375
1480535271735437,1.4375,0.0625,0.125
1480535271750979,1.625,0.0625,-0.25
1480535271796599,1.375,-0.1875,-0.9375
1480535271800610,0.6875,-0.375,-0.8125
1480535271835202,0.125,-0.25,-0.4375
1480535271839212,-0.5,-0.1875,-0.1875
1480535271849240,-0.3125,-0.0625,-0.0625
1480535271870297,0.375,0.3125,0.0625
1480535271891352,0.9375,0.5625,0.1875
1480535271907896,0.3125,0.3125,0
1480535271937977,0,0.3125,0.1875
1480535271944995,-0.5625,0,0
1480535271968056,-0.125,-0.1875,-0.4375
1480535271990615,0.8125,0.125,-0.25
1480535272013178,0.25,-0.125,-1.3125
1480535272027714,-1.125,-0.125,-2.8125
1480535272057794,-1.5625,-0.5,-4.875
1480535272074339,-2.3125,-1.75,-7.375
1480535272101410,-0.75,-2.125,-5.3125
1480535272116952,2.25,-2.1875,-2.125
1480535272139010,4.625,-1.3125,-1.5625
1480535272148537,3.75,-0.8125,-0.75
1480535272170595,1.25,-0.1875,0
1480535272193154,-0.8125,-0.5,-0.3125
1480535272208194,-1.0625,-0.6875,-0.3125
1480535272230756,0.0625,0.25,-0.75
1480535272251812,1.25,1,-0.5
1480535272268355,1.875,1,-0.3125
1480535272297933,0.9375,1.125,-0.3125
1480535272311469,0,0.5625,-0.5
1480535272334029,0.125,-0.3125,-0.625
1480535272350573,0.875,-0.625,-0.9375
1480535272379149,1.1875,-0.8125,-0.8125
1480535272388173,1.5,-0.75,-0.75
1480535272410738,1,-0.625,-0.625
1480535272431796,1.1875,-0.0625,-0.75
1480535272447831,2.125,0.625,-0.0625
1480535272470894,1,1,-0.0625
1480535272493956,-0.8125,0.625,-0.375
1480535272507991,-0.6875,0.1875,-0.125
1480535272530553,-0.25,0.3125,-0.0625
1480535272553111,-0.125,0.3125,0.125
1480535272568653,-1.5625,-0.0625,0.625
1480535272590712,-2.25,0.125,0.5625
1480535272612770,-1.375,0,0.4375
1480535272633826,0.375,0.4375,0.5
1480535272657890,0.1875,0.5625,0.625
1480535272673631,-1.0625,0.1875,0.125
1480535272695491,-0.625,0.1875,0.5625
1480535272710533,-0.1875,0.375,0.5625
1480535272742115,-0.75,0.4375,0.3125
1480535272747127,-0.75,0.3125,0.4375
1480535272778211,-0.5,0.1875,0.4375
1480535272793254,-0.625,0.125,0.5
1480535272807288,-1.1875,0.0625,0.5625
1480535272830349,-0.75,0.1875,0.4375
1480535272852909,0.125,0.625,0.6875
1480535272867449,0.25,0.5625,0.625
1480535272904046,-0.1875,0.125,0.6875
1480535272913069,-0.375,-0.1875,0.8125
1480535272941647,-0.625,0,0.875
1480535272950670,-0.75,0.0625,0.625
1480535272980248,-0.5,0.25,0.5625
1480535272993788,-0.4375,0.625,0.5
1480535273010331,-0.3125,0.625,0.1875
1480535273033891,0,0.5,0.5
1480535273061464,0.25,0.4375,0.4375
1480535273070490,-0.125,0.375,0.5625
1480535273101069,-0.5625,0.0625,0.125
1480535273114106,0.375,0.5,0.5625
1480535273138169,1.0625,0.625,0.6875
1480535273183789,0.9375,0.625,0
1480535273185796,0.375,0.625,-0.125
1480535273192814,-0.25,0.5625,0.0625
1480535273213869,-0.625,0.75,0.0625
1480535273234925,-0.375,0.5625,0
1480535273250467,-0.0625,0.625,0.25
1480535273279042,-0.25,0.6875,0.125
1480535273295089,0.1875,0.625,0.125
1480535273310632,0,0.5625,0.5
1480535273334690,-0.625,0.3125,0
1480535273354244,-0.25,0.125,0.125
1480535273370286,0,0.1875,0.1875
1480535273394851,0,0.1875,-0.0625
1480535273415407,-0.25,0.0625,-0.0625
1480535273437967,-0.3125,-0.0625,0.25
1480535273461026,-0.375,-0.125,0.1875
1480535273476571,-0.5,0.0625,0.1875
1480535273490606,-0.5625,0.0625,0.25
1480535273513166,-0.3125,0.125,0.3125
1480535273536227,-0.25,0.25,0.1875
1480535273559793,-0.1875,0.25,0.25
1480535273580344,-0.1875,0.125,0.1875
1480535273595384,-0.125,0,0.125
1480535273616440,0.125,0.0625,0.1875
1480535273632984,-0.25,0.0625,-0.0625
1480535273656046,-0.3125,0.0625,0.0625
1480535273677104,0,0.0625,0
1480535273693147,0.4375,0,-0.1875
1480535273716707,0.3125,0.25,0.0625
1480535273722221,-0.125,0,0.375
1480535273739997,-0.5625,-0.1875,0.125
1480535273758318,0.1875,0.3125,-0.125
1480535273780878,1,0.625,0.5
1480535273797422,0.875,0.625,0
1480535273818477,0.375,0.3125,-0.5
1480535273842542,0.0625,-0.125,-0.375
1480535273859085,-0.125,0,-0.1875
1480535273894699,-0.375,-0.125,-0.375
1480535273900696,0.125,-0.1875,-0.0625
1480535273932280,0.375,-0.125,-0.125
1480535273938297,0.6875,0.0625,0.1875
1480535273972888,0.5625,0.1875,0.125
1480535273983416,-0.1875,0.25,0.3125
1480535273998457,-0.6875,0.125,-0.25
1480535274021016,0.3125,0.1875,-0.0625
1480535274039341,0.8125,0.4375,0.125
1480535274058617,0.3125,0.3125,-0.0625
1480535274081176,0.25,-0.0625,-0.0625
1480535274098723,0.9375,-0.1875,0.1875
1480535274118275,0.875,-0.1875,0.375
1480535274140836,0.9375,-0.1875,0.4375
1480535274174926,0.4375,-0.3125,0.625
1480535274179939,1.1875,-0.125,0.125
1480535274210022,0.875,0.375,-0.0625
1480535274232078,0.5,-0.0625,-0.1875
1480535274238095,0.625,0,-0.5
1480535274261155,0.1875,0.4375,-0.5625
1480535274295246,-0.875,-0.25,-0.9375
1480535274300762,0.375,-0.3125,-0.8125
1480535274320813,0.8125,0.0625,-1.1875
1480535274343376,1.1875,-0.125,-0.8125
1480535274365935,0.9375,-0.3125,-0.5625
1480535274388493,0.75,-0.3125,0.0625
1480535274415064,-0.25,-0.3125,-0.25
1480535274426096,0.3125,0.0625,-0.4375
1480535274452163,1.375,0.625,0.0625
1480535274463192,0.8125,0.625,-0.6875
1480535274488761,0.3125,-0.0625,-1.3125
1480535274500793,0.125,-0.3125,-0.875
1480535274523352,-0.5,-0.5,-0.5625
1480535274538392,-0.875,-0.75,-0.5
1480535274571481,-0.4375,-0.6875,-0.125
1480535274593041,0.0625,-0.3125,0.1875
1480535274598553,0.25,-0.0625,0.375
1480535274620611,0,0.0625,0.4375
1480535274644174,-0.9375,-0.1875,0.5
1480535274658211,-0.875,-0.1875,0.125
1480535274691802,-0.25,0.0625,0.5
1480535274703333,0,-0.0625,0.625
1480535274728899,-0.3125,-0.25,0.3125
1480535274740931,-0.375,-0.8125,0.0625
1480535274764995,0.125,-0.75,-0.1875
1480535274781038,0.4375,-0.875,-0.1875
1480535274801091,0.4375,-0.875,0.1875
1480535274823651,0.125,-0.8125,0.125
1480535274845710,-0.25,-0.5625,0.125
1480535274860750,0.0625,-0.3125,0.0625
1480535274884313,0.5,-0.0625,0
1480535274905870,0.375,0.1875,0.125
1480535274922414,0.0625,-0.3125,0.1875
1480535274968036,-0.25,-0.125,0.3125
1480535274970542,-0.25,-0.0625,0.3125
1480535274981070,0.1875,-0.1875,0.125
1480535275003630,0.4375,-0.1875,0.25
1480535275019672,0.75,-0.125,0.25
1480535275040730,0.125,-0.1875,0.375
1480535275063288,-0.25,-0.25,0.125
1480535275081337,0.8125,0.3125,0.625
1480535275100889,1.25,0.625,0.5625
1480535275126457,0.6875,0.625,0.1875
1480535275154531,-0.5,0.4375,0.5
1480535275161049,-1.3125,0.5625,0.5
1480535275183608,-1.8125,0.75,0.375
1480535275202159,-0.75,0.8125,0.5
1480535275228227,-0.0625,1.1875,0.6875
1480535275244771,-0.25,1.25,0.6875
1480535275261817,-0.5,1.1875,1.0625
1480535275283876,-1.3125,0.8125,1.125
1480535275303428,-1.375,0.625,0.5
1480535275321977,-0.1875,0.75,0.125
1480535275357070,0,1.0625,-0.125
1480535275371109,-0.25,0.875,-0.375
1480535275382143,-0.625,0.5,0
1480535275402190,-0.5625,0.3125,0.125
1480535275423246,-0.625,0.25,0.3125
1480535275441295,-0.4375,0,0.4375
1480535275464356,-0.4375,-0.0625,0.375
1480535275483406,-0.5,0.1875,0.5
1480535275505967,-0.125,0.3125,0.4375
1480535275528526,0.125,0.3125,0.4375
1480535275547076,0.125,0.125,0.25
1480535275562116,0.0625,-0.0625,0.125
1480535275580665,-0.0625,-0.375,-0.125
1480535275603226,0,-0.375,-0.1875
1480535275625787,0.625,-0.3125,-0.125
1480535275640825,0.6875,-0.3125,-0.0625
1480535275666894,0.1875,-0.1875,0.0625
1480535275685945,0.3125,-0.0625,0.25
1480535275708506,-0.0625,0.0625,0.1875
1480535275723545,0.125,0.5,0.0625
1480535275746106,1.0625,1,0.5625
1480535275763652,0.875,1.125,0.125
1480535275792229,0.5,0.9375,-0.3125
1480535275806394,0,0.625,-0.125
1480535275837349,-0.4375,0.3125,-0.4375
1480535275843366,-0.625,0.1875,-0.5625
1480535275865925,-0.0625,0.0625,-0.25
1480535275882468,0.75,0.0625,-0.1875
1480535275903524,0.75,0.1875,0
1480535275934105,0.3125,0,0
1480535275942127,0.25,-0.125,0.1875
1480535275964686,-0.0625,-0.4375,-0.375
1480535275995267,0.375,-0.25,-0.1875
1480535276008304,0.875,0,0
1480535276023343,0.375,0,-0.4375
1480535276045903,0.3125,-0.125,-0.375
1480535276062446,0.5625,0,-0.125
1480535276085006,0.3125,-0.0625,-0.25
1480535276106159,-0.0625,-0.0625,-0.25
1480535276122105,-0.0625,0.125,-0.375
1480535276160207,0.1875,0.25,-0.375
1480535276174244,0.5,0.1875,-0.625
1480535276182266,0.375,0.1875,-0.5
1480535276203322,0.125,-0.125,-0.75
1480535276233401,0,-0.3125,-1.1875
1480535276243929,0.5,-0.25,-1.3125
1480535276266490,0.8125,-0.4375,-1.375
1480535276287545,0.75,-0.6875,-1.4375
1480535276304592,1.375,-0.8125,-1.0625
1480535276331161,0.8125,-0.75,-0.4375
1480535276353220,0.125,-0.75,0.125
1480535276369765,-0.125,-0.625,0.4375
1480535276390820,-0.3125,-0.25,0.5625
1480535276413882,-0.8125,0.25,0.4375
1480535276431428,-0.125,0.6875,-0.0625
1480535276443462,1.1875,1.3125,0.1875
1480535276473541,0.625,1.375,-0.3125
1480535276488580,-0.3125,0.5,-1.0625
1480535276503621,-0.25,-0.125,-1
1480535276526681,0.125,-0.3125,-0.5625
1480535276548239,-0.25,-0.5,-0.375
1480535276563279,-0.4375,-0.6875,0
1480535276585838,0.0625,-0.375,0.125
1480535276618425,0.5,0.125,0.125
1480535276623438,0,0.1875,0.125
1480535276645999,-0.125,0.25,0.4375
1480535276664548,-0.75,-0.0625,-0.1875
1480535276684602,-0.3125,-0.0625,-0.1875
1480535276706158,0.6875,-0.0625,-0.0625
1480535276728217,0.6875,-0.375,-0.375
1480535276744761,0.3125,-0.6875,-0.3125
1480535276773509,0.375,-0.875,-0.0625
1480535276784366,-0.25,-0.75,-0.1875
1480535276810937,-0.5625,-0.6875,0
1480535276825978,0.0625,-0.4375,0.0625
1480535276848537,0.1875,-0.0625,0.125
1480535276866085,-0.5,0.125,0.25
1480535276896165,-1.0625,0,0.125
1480535276904687,-0.375,0.25,0.4375
1480535276925242,-0.25,0.25,0.375
1480535276945798,-0.125,-0.0625,0.1875
1480535276968357,0,0.0625,0.125
1480535276984900,0.1875,-0.375,0.125
1480535277005956,0.375,-0.8125,-0.0625
1480535277024506,0.625,-0.8125,0.0625
1480535277044559,0.5,-0.8125,0
1480535277065615,0.125,-0.8125,0.125
1480535277099705,-0.25,-0.5,0.4375
1480535277105220,-1.125,0,0.875
1480535277126778,-4.0625,0.625,2.5
1480535277148335,-2,0.75,1.375
1480535277164879,0.5,1,0.75
1480535277193455,1.75,1.75,0.75
1480535277210500,1.9375,2.25,0.5
1480535277226543,-1.875,2.1875,1.5
1480535277264144,-5.375,2.4375,2.0625
1480535277268153,-3.625,1.5,1.6875
1480535277286703,-1.125,1.8125,1.9375
1480535277305794,-2.5,2.8125,3.375
1480535277328313,4.5,0.6875,5.125
1480535277346362,7.375,0.5,5.5
1480535277365914,10.75,1.5,5.5
1480535277395994,4.9375,1.8125,4.75
1480535277412538,-1.4375,1.6875,5
1480535277426076,0.625,-0.3125,5.9375
1480535277448133,4.5625,0.0625,5.375
1480535277470694,8.9375,-0.625,3.8125
1480535277494756,10.375,1.375,3.1875
1480535277508293,7.375,1.75,0.5625
1480535277530853,0.1875,0.875,1.8125
1480535277547396,-6.4375,1.625,1.4375
1480535277568452,-6.3125,1.4375,0.5
1480535277586500,-3.9375,0.875,1.3125
1480535277615077,-0.875,0.5625,0.625
1480535277635631,-0.375,-0.3125,-0.5
1480535277646160,-1.5,-0.5625,-1.25
1480535277665711,-2.4375,-0.3125,-2.1875
1480535277705316,-1.75,0.625,-2
1480535277707823,-3.25,1.25,-2.5625
1480535277725871,-5.125,1,-2.8125
1480535277748431,-3.6875,-0.5,-2.25
1480535277770992,1.1875,-1.4375,-2.4375
1480535277788037,5,-1.625,-2.1875
1480535277808090,5.0625,0.375,-2.3125
1480535277831152,-0.25,1.625,-1.375
1480535277854713,-7.9375,0.6875,-3.3125
1480535277900836,-10.8125,-0.3125,-3.6875
1480535277904347,-2.625,-1.125,-2.625
1480535277913370,4.5625,0.4375,-2.9375
1480535277935930,7,-0.0625,-2.0625
1480535277947461,2.3125,-1.5,-1.875
1480535277975034,-1.3125,-1.8125,-2.5625
1480535277996090,1.75,-1.5625,-2.875
1480535278007119,5.0625,-0.1875,-3.25
1480535278028677,6.25,0,-1.125
1480535278050736,1.9375,0.75,-0.75
1480535278066277,-0.1875,0.875,-1.9375
1480535278094853,-2.125,0.9375,-0.4375
1480535278108389,-3.3125,1.125,-0.8125
1480535278126439,1.5625,0.375,-1.25
1480535278147493,3.625,-0.0625,-1.0625
1480535278177573,2.375,-0.3125,0
1480535278186095,1.9375,-0.1875,-0.75
1480535278213167,0.375,-0.375,-1
1480535278228207,-1.5,-1.1875,-1
1480535278246255,-2,-2.25,-1.5625
1480535278268817,0.5,-4.6875,0.3125
1480535278288368,7.9375,-5.625,1.9375
1480535278306415,14.6875,-3.5,1.1875
1480535278338502,12,-2.625,0.4375
1480535278348527,2.75,-2.875,-0.0625
1480535278366074,0.25,-2.5625,0.125
1480535278388634,1.25,-2.1875,1.25
1480535278409694,2.75,-1.25,2
1480535278426234,0.875,-0.5,1.8125
1480535278462831,-1.5625,-0.3125,2.5
1480535278484890,-1.625,-1.75,2.375
1480535278490907,1.125,-1.0625,2.25
1480535278516474,1,0.625,1.5625
1480535278530010,-1.5,1.375,1.875
1480535278561093,-4.5625,1,2.125
1480535278568613,-5.875,0.5625,2.5
1480535278595686,-3.875,-0.625,4.625
1480535278612230,0.125,-1.375,5.625
1480535278636294,1.625,-1.5,4.9375
1480535278648324,2.3125,-1.8125,3.6875
1480535278689435,-0.1875,-1.75,4.875
1480535278693444,-3.4375,-2.8125,4.9375
1480535278733051,-5.375,-4.4375,4.875
1480535278735055,-1.9375,-4.625,4.375
1480535278757114,1.5625,-2.9375,4.5
1480535278771152,0.75,-1.5625,2.75
1480535278801232,-1.625,-1.1875,2.1875
1480535278808755,-3.625,-1.75,3
1480535278835824,-4.5625,-2.125,2.9375
1480535278850875,-3.75,-1.9375,2.25
1480535278881445,-2.4375,-2,2.6875
1480535278889968,-2.4375,-1.6875,2.4375
1480535278913530,-2.75,-1.625,2.25
1480535278928570,-3.5,-1.75,1.8125
1480535278955643,-3.25,-1.625,1.875
1480535278970683,-3.5625,-0.8125,1.125
1480535279001264,-3.875,-0.0625,0.5
1480535279011290,-3.75,0,0.5625
1480535279041875,-2.875,-0.5,0.4375
1480535279048891,-0.5625,-0.6875,-0.0625
1480535279070448,2.3125,-0.5625,-0.1875
1480535279091007,3.125,-0.375,0.3125
1480535279113563,0.6875,-0.375,0.3125
1480535279132117,-1.5625,-1.6875,0.5625
1480535279162693,-1.5,-2.375,1
1480535279168709,-0.6875,-2.25,0.875
1480535279204806,-0.125,-2.25,1.1875
1480535279210821,-0.25,-2.375,1.5
1480535279234885,-0.25,-2.25,1.6875
1480535279251429,-0.4375,-1.375,1.875
1480535279270982,-0.5,-0.4375,1.0625
1480535279288528,1.75,0.625,1.0625
1480535279311088,3.4375,2.4375,1.4375
1480535279338161,3.3125,2.6875,0.125
1480535279363728,1.5,2.125,-0.1875
1480535279371251,0.25,1.8125,-0.75
1480535279408348,0.4375,1.3125,-0.875
1480535279410854,0.8125,1,-1.125
1480535279444443,0.875,0.4375,-1.1875
1480535279450960,2.3125,-0.375,-1.0625
1480535279473520,3.6875,-0.4375,-1.6875
1480535279491067,4.5,-0.625,-1.9375
1480535279510619,3.3125,-1,-1.4375
1480535279528667,2.1875,-1.25,-1
1480535279558749,1.5,-0.8125,-0.5
1480535279571790,0.5625,0,0.125
1480535279588826,0.75,0.75,0.625
1480535279611387,1.3125,1.375,0.875
1480535279641467,0.875,2.0625,0.625
1480535279648987,0.375,2.5625,0.375
1480535279684080,0,2.875,0.125
1480535279722683,-0.25,2.75,-0.25
1480535279725192,-0.4375,2.0625,-0.5625
1480535279731707,0.1875,1.125,-0.3125
1480535279752762,0.6875,0.4375,-0.0625
1480535279768805,0.6875,-0.25,0
1480535279791365,0.375,-1.0625,0.375
1480535279819941,0.3125,-1.6875,0.4375
1480535279831472,0,-1.5,0.5
1480535279864059,-0.0625,-1.875,0.0625
1480535279872349,0.125,-1.625,0.5625
1480535279900656,-0.0625,-0.75,0.25
1480535279918704,-0.625,-0.9375,-0.3125
1480535279962821,-0.3125,-1.8125,-0.5625
1480535279965328,0.5625,-1.75,-0.25
1480535280000421,1.125,-1.25,0.125
1480535280003931,-0.0625,-1.3125,1.125
1480535280008947,-1.0625,-1.5,1.0625
1480535280031505,-0.125,-0.625,1.625
1480535280067098,0.875,0.1875,1.875
1480535280073616,0.4375,-0.25,1.625
1480535280112721,-0.625,-0.6875,0.625
1480535280115227,-0.6875,-0.25,0.1875
1480535280133274,-1.5,-0.125,0.3125
1480535280151322,-1.8125,-0.125,0.375
1480535280197445,-1.1875,-0.25,0.625
1480535280202459,-0.1875,-0.75,1.125
1480535280234043,0.125,-0.625,0.625
1480535280238556,-1.75,-0.125,0.1875
1480535280270642,-2.875,-1.25,1.4375
1480535280275657,-1.5,-2.0625,1.3125
1480535280299718,1.3125,-1.9375,1
1480535280313253,2.375,-1.5,1.125
1480535280343334,1.625,-1.1875,1.1875
1480535280358376,-0.1875,-1.4375,0.875
1480535280382940,-0.75,-1.875,0.6875
1480535280391462,-0.375,-1.75,0
1480535280421542,0.1875,-1.5,0.125
1480535280433574,0,-1.6875,0.0625
1480535280473179,0.25,-1.3125,-0.0625
1480535280478193,0,-1.125,0.125
1480535280517798,-0.0625,-0.8125,-0.125
1480535280519302,0.75,-0.625,-0.3125
1480535280555899,0.75,-0.3125,-0.25
1480535280558408,0.125,-0.3125,-0.125
1480535280571441,-0.5625,0.1875,-0.25
1480535280592998,-0.25,0.6875,-0.125
1480535280614054,0.0625,0.9375,-0.25
1480535280630597,0.5625,1.1875,-0.1875
1480535280654161,0.125,1.3125,-0.25
1480535280674214,-0.3125,1.375,-0.25
1480535280696272,-0.375,1.3125,-0.5625
1480535280712816,1.5625,1.625,-0.25
1480535280750918,2.375,2.3125,-0.3125
1480535280753424,1.8125,1.8125,-0.5
1480535280797542,-0.125,1.25,-0.8125
1480535280817094,-1.6875,1.5625,-0.875
1480535280834140,-3.3125,1.8125,-0.625
1480535280839156,-2.375,1.75,-0.25
1480535280854192,-0.8125,2.3125,-0.4375
1480535280876752,0.1875,2.75,-0.625
1480535280892795,0.5,2.75,-0.5
1480535280913851,-0.3125,2.1875,-0.625
1480535280932400,0,1.25,-0.75
1480535280952955,0.875,1,-0.6875
1480535280983036,1.375,0.6875,-0.5625
1480535280991056,0.5625,0.625,-0.75
1480535281028155,-0.125,0.1875,-0.5
1480535281036680,-0.0625,0.3125,-0.5
1480535281064252,0,0.3125,-0.0625
1480535281074278,-0.1875,0.75,-0.3125
1480535281095835,0.125,1.3125,-0.5
1480535281110375,-0.25,1.1875,-0.25
1480535281132934,-0.5625,1,0.125
1480535281155494,-1,0.75,0.125
1480535281169532,-1.125,1.5,-1.25
1480535281193093,0.125,1,0.4375
1480535281216658,0.6875,-0.0625,0.3125
1480535281229692,0.9375,-0.0625,-0.4375
1480535281260272,0.6875,0,-0.125
1480535281275313,-0.5,-0.375,-0.0625
1480535281305393,-0.9375,-0.1875,0.3125
1480535281313414,-1,-0.375,0.5
1480535281343996,-0.4375,0.125,0.125
1480535281351014,1.1875,0.875,0.75
1480535281374577,1.3125,1,1.125
1480535281395632,0.25,0.9375,-0.0625
1480535281410172,0.25,0.625,0.0625
1480535281433233,-0.5,0,0.125
1480535281456294,-1.5,-0.0625,-0.0625
1480535281491891,-1.4375,-0.0625,0.0625
1480535281507931,-0.5625,-0.1875,0.5625
1480535281515451,-0.6875,-0.125,0.5
1480535281546033,-0.3125,0.1875,0.4375
1480535281553051,-0.1875,0.25,0.6875
1480535281590150,-0.8125,0.1875,0.375
1480535281604188,-0.5625,0.5,0.25
1480535281618726,-0.25,0.5625,0.4375
1480535281635270,-0.625,0.625,-0.0625
1480535281656827,-0.0625,0.4375,-0.125
1480535281673376,0.6875,0.4375,0.0625
1480535281695430,0.875,0.3125,0.125
1480535281716486,-0.4375,0,0.375
1480535281733030,-1.25,-0.1875,0.125
1480535281770632,-0.875,-0.125,0.125
1480535281784167,-0.125,0.125,0.1875
1480535281792689,0.5,0.3125,0.125
1480535281823271,0.3125,0.375,-0.3125
1480535281853350,0.375,0.25,-0.5625
1480535281855857,0.625,0.125,-0.75
1480535281882929,0.5,-0.0625,-0.4375
1480535281896966,0.9375,-0.25,-1.125
1480535281936069,0.9375,-0.25,-0.75
1480535281938578,0.5625,-0.25,-0.4375
1480535281965649,0.0625,-0.625,0.4375
1480535281973671,-0.5,0.6875,-1.125
1480535281996230,1.375,1.5625,-0.25
1480535282017788,2.375,1.1875,0.4375
1480535282064411,3.8125,0.625,-1.125
1480535282068926,3.8125,1.1875,-1.3125
1480535282091987,1.6875,0.625,-1.5625
1480535282101009,-0.5,0.375,-1.25
1480535282123070,-0.625,0.1875,-1.0625
1480535282138108,0.3125,-0.0625,-0.75
1480535282166684,1.75,0.625,-0.875
1480535282175710,1.875,0.5625,-0.5625
1480535282205287,0.8125,0.125,-0.3125
1480535282212305,-0.0625,0.125,-0.6875
1480535282242886,0.0625,0.0625,-0.625
1480535282257929,0.8125,0.125,-0.375
1480535282279985,0.9375,0.375,-0.8125
1480535282297031,1.1875,0,-0.8125
1480535282341653,1.375,-0.125,-0.375
1480535282378747,0.5625,-0.375,-0.5625
1480535282380753,0.25,-0.5,-0.3125
1480535282386268,0.25,-0.625,-0.25
1480535282401308,0.75,-0.375,-0.4375
1480535282415345,1,-0.1875,-0.5
1480535282439033,0.625,-0.25,-0.5
1480535282458962,0.75,-0.375,-0.5
1480535282483025,0.875,-0.125,-0.5
1480535282498067,0.4375,-0.125,-0.3125
1480535282520625,-0.3125,-0.3125,-0.25
1480535282535665,-0.0625,-0.1875,-0.375
1480535282572262,0.375,0.1875,-0.125
1480535282579281,0.1875,0.0625,0.1875
1480535282602845,-0.75,-0.125,0.375
1480535282619388,-0.5625,-0.25,-0.0625
1480535282646459,1.375,0.5625,0.125
1480535282655484,1.875,0.125,0.5
1480535282679047,1.5,-0.3125,-0.4375
1480535282699101,0.5,-0.5625,-1.25
1480535282716146,0.375,-1.125,-0.125
1480535282738204,-0.4375,-1.375,-0.6875
1480535282760263,-0.1875,-1.4375,-0.375
1480535282776305,1.125,-1.125,-0.1875
1480535282798365,1.3125,-0.5625,-0.5
1480535282818919,1.25,-0.3125,-0.4375
1480535282834961,0.9375,-0.75,0.125
1480535282858024,0.375,-0.5,-0.3125
1480535282897126,0.5,-0.4375,-0.5625
1480535282903143,0.8125,-0.1875,-0.5
1480535282919186,1,0.125,-0.375
1480535282940241,1.0625,-0.25,-0.3125
1480535282961297,1,-0.25,-0.25
1480535282977841,0.1875,-0.1875,-0.5
1480535283000401,-0.3125,-0.4375,-0.25
1480535283015441,-0.0625,-0.25,-0.3125
1480535283046023,0.875,0,-0.25
1480535283060561,0.8125,0.375,-0.4375
1480535283075104,0.125,0.4375,-0.0625
1480535283098161,-0.125,0.375,-0.125
1480535283127740,0.0625,0.625,-0.4375
1480535283135763,0.0625,0.9375,-0.0625
1480535283165842,0,1.0625,0
1480535283180381,-0.5625,0.875,0.125
1480535283194918,-1.0625,1.0625,0.4375
1480535283217980,-1.375,1.0625,0.6875
1480535283240039,-1.75,1.125,0.25
1480535283254577,-0.125,1.375,0.4375
1480535283278140,1.125,1.75,0.9375
1480535283300198,0.625,1.5625,0.375
1480535283315239,-0.25,0.5625,-0.125
1480535283338802,-0.875,0.25,-0.4375
1480535283361865,-1,0.25,-0.5
1480535283388934,-1.6875,0.3125,-0.5
1480535283406983,-0.4375,0.125,-0.25
1480535283443580,0,1.125,0.0625
1480535283447089,0.0625,1.375,-0.25
1480535283458121,-1.3125,1.375,0.25
1480535283480177,-2.5,1.5,0.5625
1480535283508757,-1.75,2.125,0.5625
1480535283517777,-0.5625,2.3125,0.9375
1480535283548359,-0.875,2.1875,0.25
1480535283561394,-1.125,2.0625,0.125
1480535283577937,-1.625,2.125,-0.25
1480535283608019,-1.3125,1.6875,-0.1875
1480535283628573,-1.375,1.1875,0.125
1480535283644122,-1.25,0.6875,0.0625
1480535283669180,-0.875,0.0625,0.0625
1480535283683218,-1,0.25,0.1875
1480535283703773,-1.3125,0.5,0.1875
1480535283720818,-1.6875,0.375,0.625
1480535283741373,-1.75,0.375,0.5
1480535283757921,-1.375,0.375,0.25
1480535283780978,-1.375,0.8125,0.125
1480535283801532,-0.4375,1.1875,0
1480535283818076,-0.4375,1.25,0.0625
1480535283840636,-1.375,1.1875,0.625
1480535283885756,-2.5625,0.8125,1
1480535283888280,-2.375,0.25,0.625
1480535283924362,-1.375,0.3125,1.1875
1480535283929372,0.375,0.25,1
1480535283952935,1.1875,0.375,0.0625
1480535283960455,1.0625,0.25,0
1480535283983015,-0.125,0.0625,0.5
1480535283997052,-1.9375,-0.0625,0.375
1480535284028135,-2.875,-0.25,0.3125
1480535284042675,-1.75,-0.375,0.0625
1480535284065233,0.125,-0.0625,-0.1875
1480535284080274,1.875,0.5625,0.3125
1480535284102834,0.9375,0.875,0.75
1480535284119378,-2.3125,0.3125,0.75
1480535284154972,-2.875,0.0625,0.3125
1480535284164498,-0.3125,0.375,0.0625
1480535284185052,1.3125,0.5,0
1480535284200594,0.6875,0.375,0.1875
1480535284229170,-1,-0.3125,0.1875
1480535284244711,-1.75,-0.4375,0.1875
1480535284268275,-0.9375,0,0.4375
1480535284282813,-0.5625,0.1875,0.4375
1480535284311389,-0.3125,0.0625,0.375
1480535284320412,-0.6875,0.25,0.25
1480535284343474,-0.5,0.3125,0.3125
1480535284364028,-0.875,0.3125,0.3125
1480535284388093,-0.8125,0.1875,0.25
1480535284404136,0.1875,0.3125,0.375
1480535284431708,0,0.25,0.125
1480535284441235,-0.375,0.1875,0.0625
1480535284468808,-0.625,0,0.1875
1480535284484349,-0.3125,0,0.1875
1480535284501895,-0.25,0,0.3125
1480535284524956,0.1875,0.5,-0.0625
1480535284544008,1.4375,0.875,0.5
1480535284560551,1.5625,0.8125,-0.0625
1480535284583112,0.3125,0.4375,-0.5625
1480535284604169,-0.375,-0.375,-0.1875
1480535284628231,-0.5625,-0.1875,-0.4375
1480535284642770,-0.6875,-0.0625,-0.5
1480535284682375,-0.875,-0.0625,-0.5
1480535284686386,0.25,0.1875,-0.5
1480535284716967,0.75,0.375,-0.3125
1480535284723986,0.8125,0.375,-0.4375
1480535284755570,0.0625,0.125,-0.5
1480535284763090,-0.5,-0.125,-0.5
1480535284785149,0.5,0.125,-0.0625
1480535284802696,0.25,0.25,-0.0625
1480535284822749,0.25,0.125,-0.5
1480535284846311,0.4375,0.25,-0.125
1480535284860850,0.3125,0.3125,-0.1875
1480535284882909,-0.25,0.375,-0.375
1480535284905471,-0.4375,0.25,-0.125
1480535284920509,-0.5,0.25,-0.25
1480535284949086,-0.5625,0.5,-0.5625
1480535284982674,-0.375,0.4375,-0.375
1480535284986685,-0.0625,0.3125,-0.125
1480535285016263,-0.1875,0.25,-0.0625
1480535285025287,-0.6875,0.1875,0.125
1480535285039826,-1,0.0625,0
1480535285062887,-1.0625,0.3125,0.125
1480535285101491,-0.875,0.1875,0.3125
1480535285106503,-0.5,0.25,0.5625
1480535285123047,-0.9375,0.375,0.1875
1480535285146109,0.125,0.75,0.5
1480535285160648,1.125,1,0.5625
1480535285184210,0.75,0.75,0.125
1480535285213287,-0.4375,0.3125,-0.125
1480535285219805,-1.0625,0.0625,0.0625
1480535285243367,-1.125,0.25,0.125
1480535285265426,-1.3125,0.3125,0.4375
1480535285294002,-0.8125,-0.0625,0.5
1480535285309042,-0.5625,0.3125,0.375
1480535285333106,-0.4375,0.5,0.125
1480535285348147,-0.125,0.4375,0.25
1480535285370206,-0.5,0.3125,-0.0625
1480535285385244,-0.5,0.0625,0.3125
1480535285413821,-0.5625,-0.1875,0.3125
1480535285423849,-0.125,0.1875,0
1480535285452925,0.25,0.25,-0.25
1480535285466962,-0.125,-0.125,0.0625
1480535285496541,-0.25,0,-0.1875
1480535285505565,-0.375,0.25,-0.125
1480535285528125,-0.3125,0.3125,-0.5
1480535285545170,0,0.4375,-0.4375
1480535285582270,0.5,0.5,-0.75
1480535285586781,0.625,0.5625,-0.375
1480535285610344,-0.25,0.5625,-0.6875
1480535285625885,-0.125,0.5,-0.5625
1480535285646439,0.25,0.3125,-0.375
1480535285669000,-0.25,0.375,-0.25
1480535285701086,-0.25,0.3125,-0.25
1480535285707101,-0.5625,0.25,0.1875
1480535285730664,-0.25,0.25,-0.125
1480535285745202,1,0.75,0.375
1480535285768265,1.0625,0.8125,0.4375
1480535285782802,0.4375,0.1875,-0.3125
1480535285812882,0.1875,-0.25,-0.5625
1480535285828925,-0.0625,-0.5,-0.4375
1480535285867528,-1,-0.5,-0.375
1480535285871538,-0.75,-0.6875,-0.0625
1480535285888082,-0.0625,-0.5625,0.0625
1480535285902120,0.4375,-0.375,-0.125
1480535285932701,0.3125,-0.25,0.125
1480535285948248,-0.875,-0.25,0
1480535285979326,-0.75,-0.1875,0.0625
1480535285985346,-0.375,-0.0625,0.375
1480535286008405,-0.3125,0.25,0
1480535286022440,0,0.1875,-0.3125
1480535286046002,0,-0.0625,0
1480535286068061,-0.1875,0.1875,-0.5
1480535286082098,-1.5,0.6875,-1.25
1480535286106663,-1.3125,1.5,-1
1480535286128722,-1.75,1.3125,-0.3125
1480535286142258,-3.75,2.125,-0.0625
1480535286165821,-3.5625,1.875,-0.75
1480535286187879,-1.4375,0.9375,-1.375
1480535286210440,1.3125,0.6875,-0.3125
1480535286225981,2.3125,0.1875,0
1480535286265587,0.9375,-1,0.125
1480535286269598,-0.75,-1.9375,0.625
1480535286286142,-0.625,-2.5625,0.8125
1480535286308701,0.5,-3.125,0.5625
1480535286336275,2.25,-2.875,0.0625
1480535286345299,3.6875,-1.4375,0.5
1480535286367859,2.6875,-0.625,0.75
1480535286413480,-0.6875,-0.5,0.4375
1480535286416989,-2.0625,-1.0625,-0.1875
1480535286428520,-0.5,-0.5,-0.25
1480535286451582,0.25,0.5,0.3125
1480535286465619,-0.9375,0.1875,0.375
1480535286495699,-1.4375,-0.3125,0.125
1480535286508734,-0.3125,0.125,0.125
1480535286533303,0.3125,0.3125,0.75
1480535286562376,-1,0,0.625
1480535286568894,-1.875,0,0.0625
1480535286585939,-0.6875,0.4375,0.375
1480535286608000,-0.1875,1.5625,0.4375
1480535286644595,-0.6875,1.5625,0.5
1480535286659133,-0.875,1.3125,0.5625
1480535286668157,-0.9375,1.0625,0.6875
1480535286690218,-0.6875,1.125,0.8125
1480535286705258,-1.375,1.125,0.5
1480535286728317,-1.8125,0.9375,0.8125
1480535286767421,-1.125,1,0.1875
1480535286770932,-0.375,1.375,0.375
1480535286787475,-0.5625,1.875,0.5
1480535286810536,-1.8125,1.375,0.75
1480535286825576,-1.5625,1.0625,0.1875
1480535286854152,-0.875,0.6875,-0.1875
1480535286883730,-0.625,0.1875,0.5
1480535286901780,-0.375,0.0625,0.3125
1480535286915320,0,0.125,0.625
1480535286930857,-1.1875,0,0.875
1480535286945396,-1.6875,0.25,0.875
1480535286968456,-0.4375,-0.625,1.0625
1480535286998035,-0.875,0.1875,0.4375
1480535287011571,-0.0625,-0.3125,1.75
1480535287042654,-1.0625,-1.0625,2.3125
1480535287052680,-4.4375,2.125,-0.8125
1480535287065715,-9.75,4.3125,-1.0625
1480535287088779,-12.625,1.125,3
1480535287117854,-7.5,-1.9375,1.625
1480535287124872,0.1875,-0.6875,0
1480535287155955,2.25,0.3125,0.5625
1480535287170494,-1.5,-0.25,1.625
1480535287208596,-5.3125,-0.6875,1.875
1480535287211101,-6.125,-1.4375,1.6875
1480535287238175,-2.5,-0.75,1.5625
1480535287251208,0,0.375,1.5
1480535287275272,-1.1875,1.375,1.8125
1480535287290313,-4.5625,1.375,2.5
1480535287320392,-6.375,0.625,3.4375
1480535287335433,-6.375,0.9375,3.4375
1480535287358494,-3.125,0.3125,3.4375
1480535287371529,1.8125,-1.1875,4.125
1480535287394088,4.9375,-0.3125,2.0625
1480535287410640,2.9375,2.5625,1.4375
1480535287449235,-3.5,1.8125,1.9375
1480535287453747,-4.75,0.9375,1.375
1480535287484830,-3.1875,1.25,0.875
1480535287491347,-0.8125,1.0625,0.9375
1480535287513907,-0.75,0.125,0.875
1480535287530451,-0.875,-0.875,1.5
1480535287551507,-0.75,-1.0625,1.875
1480535287568052,-0.25,-0.5625,1.0625
1480535287591114,0.0625,-0.25,0.6875
1480535287611166,0.4375,0.6875,0.4375
1480535287628211,0.375,1.1875,-0.0625
1480535287650270,0,0.9375,-1.375
1480535287680350,-0.4375,0.8125,-0.9375
1480535287687869,-0.6875,0.625,-1.4375
1480535287710932,-0.1875,-0.25,-0.9375
1480535287734995,0.875,-0.6875,-0.875
1480535287762067,2.3125,-0.8125,-0.3125
1480535287770591,2.6875,-0.75,-0.0625
1480535287800169,2,-1.25,0.375
1480535287808693,0.9375,-1.0625,0.375
1480535287830249,-0.125,-0.8125,-0.125
1480535287852809,0.75,-0.5625,-0.4375
1480535287873865,1.5,0.3125,-0.6875
1480535287890412,1.6875,0.375,-1.1875
1480535287920488,2.0625,0.375,-1.375
1480535287928509,2.125,0.5625,-1.4375
1480535287965609,1.8125,0.1875,-1.25
1480535287973129,0.6875,0.0625,-1.1875
1480535287993685,0.5,0.0625,-1.5625
1480535288010729,0.8125,0.1875,-1.5
1480535288034291,0.875,0.1875,-1.875
1480535288047326,1.375,0.5,-1.75
1480535288070388,2.1875,0.4375,-2
1480535288095454,2.5,0.1875,-1.75
1480535288123531,1.9375,-0.0625,-1.625
1480535288132051,1.4375,-0.375,-1.6875
1480535288160627,1.875,-0.375,-1.6875
1480535288174168,2.375,-0.25,-1.5
1480535288190710,2.125,-0.25,-1.1875
1480535288212766,1.1875,-0.375,-0.625
1480535288233822,0.25,-0.5,-0.5
1480535288250366,0.8125,-0.375,-0.1875
1480535288278942,3.0625,0.0625,-0.25
1480535288294984,3.625,0.25,-0.75
1480535288324064,2.6875,-0.3125,-1.25
1480535288333086,1.5625,-0.5,-0.9375
1480535288356148,0.3125,-0.9375,-0.625
1480535288386241,0.0625,-1.0625,-0.3125
1480535288394249,0.125,-0.8125,-0.1875
1480535288414803,0.625,-0.5,-0.25
1480535288430346,0.9375,-0.0625,-0.125
1480535288452905,0.875,0.3125,0.625
1480535288476468,-0.875,0.0625,0.625
1480535288490506,-1.625,-0.0625,0.3125
1480535288514067,-0.25,-0.125,-0.0625
1480535288541645,0.75,-0.125,-0.25
1480535288550165,0.75,-0.1875,0.0625
1480535288572724,-0.125,-1.1875,0.125
1480535288595283,-0.25,-1.375,-0.25
1480535288610328,0.5625,-1.25,-0.125
1480535288638900,0.8125,-0.875,0.25
1480535288670985,-0.125,-0.8125,0.625
1480535288684020,-1.3125,-0.6875,0.5
1480535288693545,-1.75,-0.375,0.5625
1480535288717608,-1.0625,0.375,0.5
1480535288732148,0.125,1.1875,0.4375
1480535288760223,-0.375,1.3125,0.625
1480535288798323,-1.8125,1.25,0.4375
1480535288803339,-1.8125,0.9375,0.1875
1480535288820884,-1.4375,1.0625,0.375
1480535288834924,-1.125,1.0625,0.625
1480535288873525,-1.5,0.625,0.875
1480535288876030,-1.5,0.375,0.875
1480535288910121,-1.5625,0.5625,0.75
1480535288913630,-0.4375,1.1875,1.125
1480535288947721,-0.375,1.5,1.5625
1480535288955241,-1.125,1.3125,0.6875
1480535288969780,-0.75,0.875,0.3125
1480535288996852,-0.875,0.6875,0.25
1480535289022921,-1.75,0.4375,0.1875
1480535289029939,-1.9375,0.1875,-0.0625
1480535289061022,-0.8125,0.1875,0.125
1480535289075561,-0.0625,0.1875,0.0625
1480535289103636,0.125,0.4375,-0.0625
1480535289120179,-1,0.25,0.4375
1480535289159285,-1.6875,0.1875,0.1875
1480535289163796,-1.1875,0.3125,0.125
1480535289181342,-0.5,0.8125,0.0625
1480535289195881,0,1.1875,-0.3125
1480535289217940,0,1.125,-0.0625
1480535289234485,-1,0.75,0.0625
1480535289256544,-1.6875,0.5,-0.125
1480535289276596,-1.125,0.4375,-0.1875
1480535289316702,-0.125,0.5625,0
1480535289321715,0,0.25,-0.0625
1480535289337759,-0.4375,0.4375,0.1875
1480535289353801,-1.25,0.5,0
1480535289398420,-1,0.25,0.125
1480535289400927,0.0625,0.0625,-0.0625
1480535289436020,0,0.25,0
1480535289441534,0,0.1875,0.0625
1480535289458078,-0.25,0.0625,-0.25
1480535289473121,-0.375,-0.125,-0.0625
1480535289495679,0.0625,-0.125,-0.375
1480535289516734,0.625,-0.0625,-0.25
1480535289540297,0.8125,0.1875,0.1875
1480535289555338,-0.1875,0.5,0.8125
1480535289577898,-1.875,0.75,0.6875
1480535289592937,-1.9375,0.8125,0.8125
1480535289615998,-0.3125,0.5,-0.125
1480535289638058,1.625,0.6875,-0.5625
1480535289668137,2.0625,0.75,-0.375
1480535289696714,-0.125,0.25,0.25
1480535289714260,-2.5625,-0.375,0.1875
1480535289718772,-2.375,-0.5,0.1875
1480535289735316,-0.1875,-0.25,0.125
1480535289757876,1,0.3125,0.125
1480535289772916,0.875,0.3125,0.25
1480535289796518,-0.5,0.4375,0.1875
1480535289819039,-1.8125,0.5,0
1480535289833076,-0.8125,0.3125,0.3125
1480535289855636,-0.1875,0.25,-0.1875
1480535289878196,0.1875,0.0625,-0.75
1480535289892735,0.125,-0.125,-0.25
1480535289915294,0.375,-0.1875,-0.375
1480535289954901,-0.3125,-0.125,0.25
1480535289958911,-1.1875,-0.5,-0.0625
1480535289982975,-0.625,-0.375,0.125
1480535290021076,-0.375,0,0.0625
1480535290023603,-0.375,0.4375,0.1875
1480535290035615,-0.4375,0.5,0.25
1480535290058175,-0.125,0.8125,0.3125
1480535290078729,-0.625,0.8125,0.4375
1480535290103296,-0.5625,0.3125,0.3125
1480535290117833,-0.4375,0.1875,-0.1875
1480535290138891,-0.5625,0.4375,-0.125
1480535290155434,-0.375,0.375,0.25
1480535290187519,-0.25,-0.5,-0.125
1480535290223618,-0.1875,-0.4375,0
1480535290226622,-0.125,-0.5,0.4375
1480535290238656,-0.375,-0.75,0.125
1480535290260713,-0.5625,-0.5,0.3125
1480535290275753,-0.4375,0.0625,0.625
1480535290298815,0.5625,0.3125,0.75
1480535290326389,0.25,0.1875,0.1875
1480535290335412,0.125,0.0625,-0.25
1480535290358477,0.1875,-0.0625,-0.1875
1480535290379028,-1,-0.3125,0
1480535290395572,-1.6875,-0.5625,0.1875
1480535290418133,-1.375,-0.75,0
1480535290446206,-0.125,-0.3125,0.125
1480535290455231,0.625,-0.0625,0.125
1480535290485832,0.375,0.125,0.4375
1480535290507871,-0.6875,-0.25,0.4375
1480535290515397,-1.625,-0.9375,0.125
1480535290545471,-0.3125,-0.5,0.1875
1480535290568031,0.8125,-0.0625,-0.0625
1480535290575551,0.6875,-0.1875,0.125
1480535290605633,-0.25,-0.4375,0.125
1480535290621172,-1.25,-0.75,0.3125
1480535290635209,-1.25,-0.8125,0.1875
1480535290657770,-0.5625,-0.5,0.25
1480535290687850,-0.0625,-0.5625,0.3125
1480535290694869,-0.375,-0.75,0.125
1480535290725450,-0.375,-0.1875,0.1875
1480535290740494,0.0625,0,0.625
1480535290776084,-0.4375,-0.375,0.8125
1480535290787619,-0.3125,-0.625,0.3125
1480535290808169,-0.25,-0.375,0.3125
1480535290823712,-0.25,-0.375,0.4375
1480535290846271,-0.375,-0.1875,0.25
1480535290860308,-0.4375,-0.125,0.5
1480535290882870,-0.1875,0.125,0.3125
1480535290897909,-0.0625,0.0625,0.25
1480535290927988,-0.4375,0.3125,0.3125
1480535290934506,-0.625,0.3125,0.75
1480535290972607,-1.4375,0.4375,0.1875
1480535290981631,-0.625,0.875,0.375
1480535291018228,0.625,1.4375,0.875
1480535291021739,0.25,1.5,0.375
1480535291064351,-0.5,1,0.25
1480535291068863,-1.75,1,0.8125
1480535291085408,-2.4375,0.5625,0.625
1480535291100948,-1.9375,0.3125,0.375
1480535291123013,-0.625,1.125,0.4375
1480535291138048,-0.375,0.875,0.25
1480535291161108,-0.3125,1.125,1
1480535291181164,-1.125,1,1
1480535291204225,-2.25,0.125,0.3125
1480535291220266,-1,0.375,0.375
1480535291259872,0.4375,0.875,0.75
1480535291264384,-0.5,0.625,0.5
1480535291295967,-1.375,0.1875,0.1875
1480535291301482,-1,0.125,0.1875
1480535291318527,-0.5,0.4375,0.375
1480535291340586,-1,0.4375,0.5
1480535291364149,-1.375,0.3125,0.5625
1480535291378186,-1.625,0.4375,0.25
1480535291400245,-1,0.8125,0.375
1480535291421300,-1.0625,0.75,0.5
1480535291444863,-0.6875,0.3125,0.3125
1480535291460404,-0.3125,0.625,0.25
1480535291483466,-0.4375,0.5,0.375
1480535291499008,-1,0.3125,0.4375
1480535291535605,-1.125,0.5625,0.4375
1480535291543627,-1,0.0625,0.375
1480535291564181,-0.5,-0.125,0.0625
1480535291580223,-0.25,0.125,0.125
1480535291619328,-0.1875,0.25,0.625
1480535291624341,-1.4375,0.0625,0.875
1480535291641889,-1.6875,0,0.25
1480535291662944,0.0625,0.5625,0.5
1480535291684000,0.8125,0.75,0.5
1480535291700544,0.5,0.4375,-0.5
1480535291724106,0,0.125,-0.5625
1480535291737141,-0.625,-0.0625,-0.25
1480535291773739,-1,-0.4375,-0.6875
1480535291782762,-1.125,-0.0625,-0.4375
1480535291811338,-0.1875,0.0625,-0.1875
1480535291820362,0.5,0.25,0.125
1480535291850442,0.0625,0.625,0
1480535291856959,-0.625,0.375,0.3125
1480535291886538,-1.375,0.25,0.25
1480535291919125,-0.5,0.5625,0.25
1480535291924138,0.375,0.5625,0.5625
1480535291940683,-0.625,0.5,-0.0625
1480535291962741,-0.5625,0.125,-0.0625
1480535291991316,0,-0.0625,0.1875
1480535292000340,0.125,0.125,0.0625
1480535292038443,-0.8125,-0.375,0
1480535292052981,-0.875,-0.625,0
1480535292060500,0,-0.375,-0.1875
1480535292083060,0.3125,0.125,-0.0625
1480535292111637,0.1875,0.125,0.1875
1480535292120160,-0.375,0,0.25
1480535292158260,-0.5625,0.25,0.125
1480535292164277,-0.5625,0.3125,0.25
1480535292204384,0,0.25,0.25
1480535292208895,-0.1875,0.3125,0.0625
1480535292240984,-0.5,0.375,0.1875
1480535292243487,-0.5,0.125,0.1875
1480535292270560,-0.0625,0.0625,0.125
1480535292284096,0.25,0,-0.125
1480535292313674,0.125,-0.0625,0.25
1480535292329216,-0.5625,-0.1875,0.625
1480535292351776,-1.25,-0.375,0.5625
1480535292361803,-0.6875,0.25,0.25
1480535292390378,0.875,0.6875,0.8125
1480535292405419,0.75,0.8125,0.25
1480535292428480,-0.25,0.5625,-0.1875
1480535292443019,-0.6875,0.0625,0.125
1480535292472829,-1.375,0.25,0.3125
1480535292481120,-1.8125,-0.0625,0.125
1480535292510197,-0.75,0.0625,0.125
1480535292525237,0.0625,0.25,0.5
1480535292555317,-0.1875,0.1875,0.375
1480535292562837,-0.8125,0.0625,0.4375
1480535292600938,-1,-0.3125,0.6875
1480535292606453,-1,0,0.125
1480535292646058,-0.375,-0.125,0.5625
1480535292648565,-0.25,-0.1875,0.125
1480535292667615,-0.5,0,-0.375
1480535292682656,0.125,0.0625,0.125
1480535292707223,-0.375,-0.6875,0.1875
1480535292719754,-0.8125,-0.375,-0.1875
1480535292757856,-0.5,0.1875,0.25
1480535292765377,-0.875,-0.375,0.6875
1480535292787935,-1.5625,-0.25,0.1875
1480535292803478,-0.75,-0.0625,-0.125
1480535292843082,0.375,0.375,0.5
1480535292846591,0.3125,0.75,0.5625
1480535292886698,-0.9375,0.1875,0.5
1480535292908256,-1.875,-0.375,0.125
1480535292910764,-0.625,-0.3125,0.25
1480535292924299,0.4375,-0.375,0.3125
1480535292945856,0,-0.4375,0.125
1480535292966411,-1.0625,-0.8125,0.125
1480535292983456,-0.75,-0.6875,-0.125
1480535293005515,0.125,-0.5,0.1875
1480535293035594,0.1875,-0.5625,0.25
1480535293043115,-0.1875,-0.875,-0.125
1480535293065674,-0.25,-0.75,0.3125
1480535293087232,-0.75,-0.5,0.125
1480535293108790,-0.5625,0.0625,-0.125
1480535293125835,0.375,0.75,0.5
1480535293165944,0,0.1875,0.125
1480535293185995,0.25,-0.625,-0.75
1480535293193013,0.625,-0.625,-0.875
1480535293206678,0.125,-0.3125,-0.1875
1480535293223097,-1,-0.4375,-0.125
1480535293245152,-0.5625,-0.375,0.125
1480535293266208,-0.125,-0.375,-0.125
1480535293282752,0.3125,-0.0625,-0.3125
1480535293313333,0.875,0.375,-0.0625
1480535293326368,-0.0625,0.25,0
1480535293356450,-0.8125,0.375,-0.0625
1480535293365472,-0.0625,0.8125,-0.0625
1480535293398059,0.8125,1.125,-0.25
1480535293403072,0.125,0.6875,0.0625
1480535293433152,-0.125,0.125,0.1875
1480535293462730,-0.0625,0,0.25
1480535293471755,-0.25,0,0.4375
1480535293486295,-0.0625,-0.4375,0.4375
1480535293508352,-0.25,-0.375,0.3125
1480535293522391,0.25,-0.3125,0
1480535293546955,0.3125,-0.125,0
1480535293582549,0.125,0,-0.0625
1480535293585056,0.0625,0,-0.3125
1480535293605611,-0.0625,-0.125,-0.0625
1480535293635691,-0.1875,-0.0625,0.0625
1480535293643211,-0.25,-0.25,0
1480535293676300,-0.25,-0.1875,0
1480535293703873,-0.4375,0,-0.0625
1480535293709387,-0.625,0.25,-0.1875
1480535293725429,-0.625,0.5,-0.1875
1480535293747990,-0.125,0.875,0.0625
1480535293763030,-0.4375,0.9375,0.1875
1480535293786091,-0.6875,1,0.125
1480535293817674,0.0625,1.5,1.1875
1480535293822188,-0.875,1.5,1.0625
1480535293845249,-1.625,1.75,0.6875
1480535293875329,-1.6875,1.1875,1.4375
1480535293896384,-2,0.75,1
1480535293912928,-1.875,0.4375,0.25
1480535293936492,-0.6875,0.3125,0.0625
1480535293950528,-0.125,-0.125,-0.1875
1480535293980107,0.1875,-0.375,-0.5625
1480535293988128,1.25,-0.5,-0.5625
1480535294017707,0.8125,-0.4375,-0.375
1480535294025227,-0.4375,-0.5,-0.5
1480535294055809,0.0625,-0.25,-0.0625
1480535294068843,0.25,0.5,0
1480535294092907,0.5,1.125,0.0625
1480535294107947,0.3125,1.375,0
1480535294136022,-0.3125,1.8125,0.3125
1480535294153067,-1.125,1.4375,0.3125
1480535294191671,-1.125,1.125,0.125
1480535294196182,-1,0.875,0.3125
1480535294230283,-0.75,0.6875,0.0625
1480535294233782,-0.125,0.25,0.0625
1480535294257846,-0.125,-0.125,0
1480535294265366,-0.25,-0.4375,0.0625
1480535294302966,0,-0.5,-0.25
1480535294310486,0.1875,-0.125,0.125
1480535294333547,-0.5,-0.25,0.0625
1480535294350091,-0.75,-0.125,0.125
1480535294370647,-0.4375,0.0625,0.0625
1480535294385185,-0.125,0.25,0
1480535294432309,-0.0625,0.4375,0.3125
1480535294436320,-1,0.4375,0.375
1480535294468406,-1.3125,0.125,0.6875
1480535294470914,-1.3125,0.1875,0.4375
1480535294498486,-0.4375,0.5625,0.125
1480535294504502,0.5,0.9375,0.4375
1480535294529067,-0.0625,0.6875,0.4375
1480535294557644,-0.75,0.3125,-0.1875
1480535294573264,-0.625,0.0625,-0.25
1480535294587723,-1.0625,0.125,0
1480535294610785,-1.125,0.0625,-0.125
1480535294624822,-0.5,0,0.125
1480535294649889,-0.3125,0.125,0.5
1480535294670444,-0.5625,0.1875,0.5
1480535294701025,-0.9375,0.3125,0.625
1480535294703532,-0.8125,0.375,0.625
1480535294729601,-0.5625,0.1875,0.4375
1480535294744139,-0.25,0.1875,0.625
1480535294752161,-0.625,0.25,0.5
1480535294773221,-1,0.125,0.3125
1480535294811318,-0.375,-0.1875,0.25
1480535294829867,0.25,-0.3125,0.3125
1480535294834881,-0.3125,-0.5,0.125
1480535294855939,0.1875,-0.9375,0.0625
1480535294873984,0.8125,-1,0.4375
1480535294893035,0.625,-0.9375,0.375
1480535294923115,0.6875,-0.8125,0.3125
1480535294950187,2.3125,1.125,0.5
1480535294954700,2.3125,8.6875,-0.625
1480535294976257,-6.625,9.5,-1.4375
1480535295006840,-11.75,-2.3125,1.75
1480535295022382,-13.125,-8.6875,3
1480535295059979,-4.8125,-6.125,4.6875
1480535295062486,8.375,-4.125,3
1480535295090060,10.125,-3.0625,1.5625
1480535295103094,3.5,0.75,1.6875
1480535295142700,-1.4375,0.3125,5.0625
1480535295145206,-4.625,-3.0625,4.0625
1480535295163254,-16.1875,-3,4
1480535295178294,-16.625,-2.4375,1.5
1480535295200854,-16.125,3,5.0625
1480535295218401,-4.9375,4.1875,7.875
1480535295246977,0.875,1.9375,9
1480535295260513,-5.25,1.25,7.6875
1480535295275552,-8.625,-1.0625,8.375
1480535295298114,-8.5625,-4.25,7.3125
1480535295322178,-7.6875,-3.25,2.5
1480535295335712,3,-2,0.25
1480535295358274,8.25,-2.1875,0.3125
1480535295382337,6.6875,-6.5,-5.3125
1480535295395873,5.4375,-6.25,-11.9375
1480535295426956,15.875,-0.1875,-8.3125
1480535295448512,22.5625,7.9375,-5.125
1480535295458539,11.375,16.5,-6.8125
1480535295496641,6.1875,20,-8.1875
1480535295501655,11.9375,21.0625,-12.3125
1480535295515692,13.3125,18,-15.625
1480535295541260,9.5625,10.9375,-6.5
1480535295562316,9.125,1.6875,2.4375
1480535295583372,6.6875,-2,3.3125
1480535295606043,-5.1875,-2.75,3.6875
1480535295617964,5.625,-3.5,1.8125
1480535295643030,13.8125,1.4375,1.25
1480535295659575,10,4.875,-0.125
1480535295680631,-1.8125,5.6875,-0.5625
1480535295697174,-3.875,3.4375,0.625
1480535295721239,-5.25,2.3125,2.25
1480535295736279,-5.4375,3.125,0.5625
1480535295757335,-3.625,2.8125,0.375
1480535295778390,-2.1875,0.1875,0.375
1480535295795436,0.9375,-0.1875,0.3125
1480535295815990,1.25,-0.375,0.8125
1480535295841057,-0.5,-0.1875,0.125
1480535295855094,-3.625,0.5,-0.3125
1480535295883171,-4.6875,0.0625,-0.375
1480535295898209,-2.6875,0.5,0.875
1480535295914753,-0.1875,0.9375,1.3125
1480535295937314,-0.0625,1.9375,1.125
1480535295959873,-1.5,1.5625,0.125
1480535295974913,-3.1875,1.3125,-0.3125
1480535296004492,-3.3125,1.5625,-0.375
1480535296018027,-2.5625,1.3125,0.1875
1480535296048609,-1.75,0.6875,1.0625
1480535296058635,-1.9375,0.25,0.6875
1480535296095233,-2.375,-0.0625,0.625
1480535296097740,-1.3125,-0.5625,0.5
1480535296123308,-0.6875,-0.5625,0.375
1480535296138349,-0.8125,-0.6875,0.9375
1480535296156395,-1.625,-0.625,0.5625
1480535296175948,-1.8125,-0.625,-0.125
1480535296216555,-1.25,0.0625,0.75
1480535296220568,-0.25,0.25,0.375
1480535296238615,-0.1875,0.25,-0.125
1480535296258667,-0.875,-0.0625,-0.4375
1480535296276215,-0.4375,-0.5,-0.0625
1480535296295766,-0.0625,0.6875,0.6875
1480535296325846,-0.875,1.5,0.75
1480535296336376,-1.3125,0.5,-0.4375
1480535296373988,-1.3125,0.3125,0.625
1480535296379991,-0.0625,0.125,0.4375
1480535296409569,0.1875,-0.5,0.4375
1480535296415585,-0.125,-0.5,0.5625
1480535296438146,-0.0625,0.125,1
1480535296468727,0.1875,0.375,1.125
1480535296492290,-0.875,0.1875,0.125
1480535296498305,-1.5,-0.1875,-0.0625
1480535296532898,-1.0625,0,0.3125
1480535296537410,-0.8125,-0.25,0.5625
1480535296557964,-1.25,-0.8125,1.125
1480535296590049,-1.8125,-0.5,1.125
1480535296595564,-1.6875,-0.3125,0.9375
1480535296618124,0,-0.25,1.5
1480535296649708,0.125,0.625,1.5625
1480535296655725,-0.9375,0.9375,1
1480535296679794,-2.3125,0.625,0.6875
1480535296700850,-2,0.4375,0.6875
1480535296715890,-1.5,0.6875,0.5
1480535296738450,-1.3125,0.5625,0.6875
1480535296769533,-1.5,0.5625,0.75
1480535296777053,-1.1875,0,0.9375
1480535296810163,-1.125,0.125,0.5625
1480535296829191,-1.125,0,0.5625
1480535296844732,-1.25,-0.1875,0.375
1480535296865788,-0.25,0.1875,0.125
1480535296888854,-0.125,0.25,0.4375
1480535296897372,-0.75,-0.0625,0.0625
1480535296925948,-1.1875,-0.5,0.3125
1480535296949010,-0.75,-0.4375,0.25
1480535296957031,-1,-0.375,0.25
1480535296985607,-1.4375,-0.5625,0.3125
1480535297000647,-1.625,-0.875,0.5625
1480535297017191,-1.125,-0.1875,0.125
1480535297055293,-0.5625,-0.375,0.1875
1480535297068828,-0.1875,-0.5,0
1480535297078855,0,-0.625,0.0625
1480535297105928,-0.125,-0.6875,0.4375
1480535297120967,-0.5,-0.625,0.375
1480535297143026,-0.75,-0.8125,0.5
1480535297158065,-0.875,-0.8125,0.5
1480535297188148,0.1875,-0.5625,0
1480535297206195,0.0625,-0.5,0.5625
1480535297226748,0.0625,-0.625,0.25
1480535297240788,0,-1,-0.0625
1480535297274876,-0.125,-1.125,0.1875
1480535297279890,-0.6875,-1.0625,0.375
1480535297301447,-0.125,-1,0
1480535297318493,0.4375,-1.1875,0.4375
1480535297345564,0.0625,-0.75,-0.25
1480535297360604,0.5,-0.5625,0.375
1480535297386173,0.4375,-0.0625,0.5625
1480535297398204,0.8125,-0.0625,-0.3125
1480535297422272,0.9375,-0.5625,-0.5
1480535297443324,-0.0625,-0.75,-0.3125
1480535297465885,-1.625,-0.8125,-0.1875
1480535297481928,-1.4375,-0.6875,-0.25
1480535297515517,0,-0.3125,-0.3125
1480535297519528,0.8125,-0.375,0
1480535297542089,1.1875,0.125,-0.3125
1480535297564647,0.8125,0.3125,0.4375
1480535297578183,0.3125,-0.125,-0.4375
1480535297603250,0.875,0.5,-0.4375
1480535297626311,1.0625,1.25,0.25
1480535297638345,0.875,1.3125,-0.5
1480535297663410,0,1,-0.3125
1480535297678450,-0.875,0.9375,0.0625
1480535297716050,-0.4375,0.8125,0.0625
1480535297720564,-0.1875,0.75,-0.0625
1480535297739617,-0.6875,0.375,0.0625
1480535297788745,-1.3125,0.3125,0.0625
1480535297799773,-1.0625,0.6875,0.125
1480535297829351,-0.1875,0.1875,-0.0625
1480535297834365,0.1875,0.125,-0.125
1480535297840882,0.375,0.375,0.1875
1480535297859431,-0.125,1,0.1875
1480535297879485,-1,0.625,0.125
1480535297903550,-0.9375,-0.3125,0.375
1480535297920595,0.0625,0.6875,-0.5625
1480535297954685,0.3125,0.9375,-0.4375
1480535297960701,-0.3125,-0.75,-0.5
1480535297994293,-1.0625,-0.5625,-1.25
1480535297999805,0.25,-0.3125,-0.5
1480535298022366,-0.4375,-0.5,0.875
1480535298043421,-2.125,-0.75,-0.125
1480535298084029,-1.0625,-0.5,-0.0625
1480535298097064,1.125,-0.8125,1.375
1480535298103080,2.25,-0.5625,0.125
1480535298121129,2.625,0.0625,0.0625
1480535298140680,0.375,-0.5,0.5
1480535298163239,-0.4375,-1.4375,0.5
1480535298181789,0.625,-1.125,0
1480535298200839,1.875,0.5625,-0.25
1480535298240446,1.875,1,0
1480535298242453,0.6875,0,0.5625
1480535298260499,-2.375,0.25,0.4375
1480535298298599,-4.1875,2.375,-0.1875
1480535298317650,-5.8125,3.0625,0.1875
1480535298322163,-7,-3.125,2.1875
1480535298350746,-4.5,-7.25,3.4375
1480535298361267,0.375,-5.375,1.125
1480535298388339,4.9375,-0.75,-0.125
1480535298403379,4.8125,1.9375,0
1480535298437470,1.5625,0.25,1.125
1480535298442487,0.875,-1.8125,1
1480535298468552,0.8125,-0.375,-0.125
1480535298482088,1.25,0.375,0
1480535298511165,2.3125,-0.0625,0.125
1480535298530717,2.9375,-0.25,-0.5
1480535298541246,2.75,-0.375,-0.4375
1480535298577345,1.0625,0.0625,-0.25
1480535298583357,-0.0625,0.4375,-0.0625
1480535298631485,-0.375,1.625,-0.1875
1480535298637502,-0.5625,1.125,0.6875
1480535298652040,-1.5625,0.375,0.5
1480535298661064,-1.4375,0,0.1875
1480535298705683,1.3125,0.5,-0.3125
1480535298710696,1.875,1.3125,0.25
1480535298733757,0.1875,0.6875,0.375
1480535298742282,-1.3125,-0.375,0.375
1480535298770856,-1.9375,-0.1875,0.625
1480535298787400,-2.1875,-0.125,0.3125
1480535298808458,-0.6875,0.375,0.25
1480535298827006,1.375,1.125,0.9375
1480535298841043,1.3125,1.0625,0.6875
1480535298864104,-0.5,0.25,0.1875
1480535298890677,-1.75,0.1875,0
1480535298901202,-1.5,0.25,-0.25
1480535298930281,-0.0625,0.5,0.25
1480535298943314,0,0.5625,0.875
1480535298962384,-1.375,0.125,1
1480535298995954,-1.8125,0.4375,0.6875
1480535299013502,-0.9375,0.375,0.6875
1480535299026039,0,0.5625,0.75
1480535299051101,-0.8125,0.625,0.6875
1480535299063134,-0.9375,0.4375,0.9375
1480535299111763,-1.1875,0.4375,0.5625
1480535299116274,-0.8125,0.0625,0.375
1480535299133821,-0.4375,0.1875,0.25
1480535299178440,-0.3125,0.125,0.25
1480535299180947,-0.875,0,0.3125
1480535299185960,-1.5,0.0625,0.25
1480535299214536,-1.6875,-0.4375,0.125
1480535299223561,-0.875,-0.25,-0.3125
1480535299250633,0,-0.0625,-0.1875
1480535299261160,0,-0.1875,0
1480535299299763,0,-0.125,0.0625
1480535299305277,-0.5625,-0.3125,0.0625
1480535299336360,-0.5,-0.375,-0.25
1480535299343881,-0.1875,-0.3125,0
1480535299389000,-0.3125,-0.0625,-0.0625
1480535299393012,-0.25,-0.4375,0.1875
1480535299427603,0.125,-0.625,0
1480535299447657,0.4375,-0.8125,0.125
1480535299450163,0.1875,-0.6875,0
1480535299464200,-0.625,-0.875,-0.1875
1480535299499795,-0.5,-0.6875,-0.3125
1480535299505811,0.3125,-0.625,-0.1875
1480535299531381,0.75,-0.4375,-0.1875
1480535299543414,0.375,-0.75,0.3125
1480535299573691,-0.9375,-0.625,-0.1875
1480535299585022,0.5625,-0.4375,0.0625
1480535299606174,1.0625,0.6875,0.3125
1480535299628637,1.1875,0.0625,-0.4375
1480535299659721,0.0625,-0.1875,-0.6875
1480535299664734,-0.5625,-0.5,-0.5
1480535299704841,-0.9375,0,-0.625
1480535299741439,-0.75,-0.125,-0.125
1480535299747955,-0.1875,-0.0625,0.0625
1480535299750964,-0.3125,-0.125,-0.125
1480535299763997,0.125,-0.125,-0.3125
1480535299792076,0.1875,0,0.1875
1480535299808619,-0.5625,-0.1875,0.0625
1480535299823657,-1.25,0.0625,0
1480535299846718,-0.1875,-0.25,-0.1875
1480535299865768,0.5,0.0625,-0.0625
1480535299884336,0.375,0.0625,0.0625
1480535299920414,-0.75,-0.3125,0.1875
1480535299944980,-0.9375,0.25,0.0625
1480535299948490,-1.3125,1.125,0.5
1480535299983081,-0.9375,0.875,0.5
1480535300002633,-0.75,1.1875,0.125
1480535300008148,-0.1875,1,0.375
1480535300026196,-0.3125,1.0625,0.6875
1480535300049260,-1.3125,0.8125,0.5625
1480535300063795,-1.3125,0.75,0.75
1480535300086355,-0.6875,0.875,0.9375
1480535300105907,-0.4375,0.9375,0.375
1480535300129469,-0.5,0.625,0.5625
1480535300146014,-0.4375,0.875,0.5
1480535300168574,-0.3125,1.125,0.5625
1480535300185118,-0.1875,0,0.75
1480535300222216,-0.375,-0.1875,0.1875
1480535300227733,-0.1875,0.375,0.3125
1480535300280873,-0.8125,0.4375,0.5625
1480535300283379,-1.5625,0.1875,0.625
1480535300288895,-1.375,0.3125,0.125
1480535300325495,0.125,0.8125,0.75
1480535300327498,0.6875,1.25,1.0625
1480535300362590,0.1875,1,0.25
1480535300365099,-0.9375,0.625,0.125
1480535300399688,-1.75,1.375,0
1480535300406207,-2.625,1.5625,0.1875
1480535300423753,-2.5,1.3125,0.5625
1480535300446313,-1.6875,0.5625,0.625
1480535300489929,-2.0625,0.9375,0.5625
1480535300495443,-1.4375,0.875,0.1875
1480535300506974,-1.25,-0.0625,0.9375
1480535300537055,-0.5625,-0.9375,0.4375
1480535300544073,0.5,-0.5,-0.0625
1480535300566131,0.625,-0.3125,0.4375
1480535300595208,-0.1875,-0.5625,0.375
1480535300611753,-0.375,-0.25,0.3125
1480535300638826,0.25,0.25,0.3125
1480535300647347,0,-0.375,0.375
1480535300663390,0.375,0,0
1480535300686953,0.1875,0.625,0.375
1480535300716532,-0.1875,0.75,0.3125
1480535300723551,-0.5625,0.625,0.1875
1480535300760147,-0.4375,0.5,0.3125
1480535300776190,-0.0625,0.375,0.0625
1480535300821812,0.3125,0.9375,0.1875
1480535300834846,-0.0625,0.5,0.5625
1480535300844371,-0.6875,0.3125,0.1875
1480535300848381,-0.5625,0.1875,0.125
1480535300873966,-0.3125,-0.25,0.1875
1480535300887003,-0.25,0,0.0625
1480535300917082,0.125,-0.25,0.1875
1480535300927110,-0.125,0.5625,0
1480535300956188,-0.375,-0.375,0.1875
1480535300971728,-0.25,-0.0625,-0.0625
1480535301009833,-0.375,0.0625,0.4375
1480535301037404,-0.8125,-0.4375,0.5625
1480535301054949,-0.4375,0.4375,-0.25
1480535301059461,0.75,0.5,0.6875
1480535301084027,0.6875,0.75,0.3125
1480535301089042,0.0625,0.5625,-0.25
1480535301121125,-0.375,0.0625,0.1875
1480535301127642,-1.1875,-0.0625,0.1875
1480535301153214,-1.6875,-0.3125,-0.1875
1480535301166746,-0.5,0.375,0.25
1480535301196325,0.3125,0.5625,0.625
1480535301208357,-0.3125,0.3125,-0.0625
1480535301249968,-0.75,0.125,0.375
1480535301263504,-0.375,0.25,0.5625
1480535301287567,-0.75,0.1875,0.4375
1480535301292081,-0.5625,0.25,0.125
1480535301332688,-0.25,0.0625,0.125
1480535301352740,0.1875,0,-0.125
1480535301357255,0.3125,0.0625,0.3125
1480535301390341,-0.4375,-0.3125,0.4375
1480535301392847,-0.9375,0.0625,0.1875
1480535301406384,-0.5625,0.25,0.375
1480535301428943,0.125,0.4375,0.0625
1480535301447994,-0.3125,0.3125,0.125
1480535301473063,-0.6875,0.25,0.25
1480535301487600,-0.0625,0.875,-0.125
1480535301517680,0.0625,0.625,0
1480535301527204,-0.1875,0.125,0.0625
1480535301563302,-0.3125,0.0625,-0.0625
1480535301568816,-0.1875,-0.125,0.0625
1480535301585862,-0.125,-0.25,0.0625
1480535301607921,-0.375,-0.8125,-0.125
1480535301630480,-0.375,-0.8125,-0.375
1480535301645520,0.375,-0.8125,-0.0625
1480535301676603,0.6875,-1,0.0625
1480535301689157,0.1875,-1.0625,-0.1875
1480535301705682,0,-0.3125,-0.1875
1480535301727738,-0.25,-0.4375,0.125
1480535301750299,0.375,-0.25,-0.625
1480535301794418,1.5625,0.375,0
1480535301804944,1.1875,0.625,0.1875
1480535301810459,0.625,0.5625,-0.4375
1480535301841040,0.1875,0.5,-0.5
1480535301847557,-0.875,1.0625,-0.5
1480535301868614,-1.1875,0.875,-0.1875
1480535301891176,0.25,-1.375,0.5625
1480535301907717,0.8125,-0.25,-0.3125
1480535301930277,-0.75,0.5625,-1
1480535301945317,-0.9375,-0.6875,-0.3125
1480535301967877,0.6875,-1,0.4375
1480535301990437,0.25,0.4375,0.0625
1480535302006156,-1.375,-0.1875,-0.875
1480535302042576,-0.4375,-1.1875,-0.25
1480535302051099,1.5625,-0.1875,-0.625
1480535302080176,2.25,-0.3125,0
1480535302087697,0.5,-0.375,0.125
1480535302110257,-0.375,-0.5625,-0.125
1480535302124795,-1,-0.5,-0.25
1480535302149360,0.1875,-0.5,-0.1875
1480535302176433,0.625,0,-0.25
1480535302191472,0.1875,0.375,-0.125
1480535302208019,0.125,0.4375,-0.0625
1480535302230075,-0.0625,0.625,0
1480535302244614,0.875,0.375,-0.1875
1480535302268678,0.0625,0.4375,-0.0625
1480535302290234,0,0.1875,-0.1875
1480535302306280,0.3125,0.375,-0.25
1480535302327834,-0.25,0.4375,0.125
1480535302351899,0.0625,0,0.1875
1480535302378971,0.875,0.25,-0.1875
1480535302395515,0.6875,0.375,0.125
1480535302417573,-0.125,-0.0625,0.5625
1480535302431611,-1.1875,0.0625,0.4375
1480535302461190,-1,0.3125,0.5625
1480535302470214,0.875,1.3125,0.875
1480535302498790,0.75,1.4375,0.75
1480535302513829,0.3125,1.125,0.125
1480535302538397,-0.9375,0.9375,0
1480535302554438,-1.4375,0.625,0.125
1480535302581509,-1,1,0.25
1480535302598555,-0.25,0.4375,0.5
1480535302619113,-0.6875,0.5625,0.5625
1480535302633651,-0.625,0.5625,0.6875
1480535302658715,-1.125,0.5625,0.9375
1480535302672755,-1.8125,0.875,0.6875
1480535302703836,-1.3125,0.875,0.3125
1480535302710352,0,0.75,0.625
1480535302738929,-0.4375,1.1875,0.5625
1480535302747952,-1.3125,0.6875,0.125
1480535302776528,-1.1875,0.3125,0.5
1480535302791568,-0.625,0.625,0.125
1480535302831676,-0.9375,0.625,-0.125
1480535302836188,-2.25,1,-0.3125
1480535302876795,-3.0625,1.8125,0.1875
1480535302881808,-4.5,1.25,0.8125
1480535302921414,-4.25,0.0625,0.8125
1480535302935953,-1.375,0.6875,0.1875
1480535302938462,1.4375,0.8125,0
1480535302950491,2.3125,0.125,0.0625
1480535302981072,0.4375,-0.4375,-0.125
1480535302993605,-1,-1.5,0.3125
1480535303026192,-1.875,-1.3125,0.5625
1480535303034215,-1.375,-2.125,1.25
1480535303055270,-1.3125,-2.0625,0.6875
1480535303070311,1.1875,-1.6875,0.4375
1480535303094374,2.125,-0.75,-0.0625
1480535303106908,-0.5,-1.0625,1.5625
1480535303151025,-0.4375,0.0625,1.3125
1480535303161553,-2.375,0.0625,2.3125
1480535303175093,-3.3125,0.125,2.4375
1480535303191131,-4,-2.6875,3.5625
1480535303212689,-1.4375,-3.1875,3.5625
1480535303233745,-1.3125,-1.9375,0.5
1480535303251793,-0.375,0.625,-0.5625
1480535303272850,-0.375,4,-0.3125
1480535303303932,-1.25,2.875,0.375
1480535303311451,-0.4375,0.375,-0.5625
1480535303347547,3.875,1.4375,-1.6875
1480535303354066,5.6875,1.8125,0.5
1480535303383658,5.4375,0.3125,-0.375
1480535303392667,1.0625,-0.125,-1
1480535303422747,-0.75,-0.8125,-1.25
1480535303430268,1.5,-0.9375,-1.375
1480535303460347,4.625,-0.875,-1.0625
1480535303474388,3.625,-0.3125,-1.125
1480535303490428,1.8125,-0.25,-0.0625
1480535303512987,-0.4375,-0.4375,0.5625
1480535303535547,-0.125,-0.25,0.125
1480535303550086,2.5,0.8125,0
1480535303572963,2.25,1.5625,0.1875
1480535303593702,-0.1875,0.9375,0.25
1480535303610250,-1.875,0,0.0625
1480535303633307,-0.75,-0.125,0.4375
1480535303664390,1.625,0.375,0.75
1480535303670409,0.5625,1.5625,0.6875
1480535303692969,-1.8125,0.5625,-0.0625
1480535303714026,-1.5625,-0.1875,0.4375
1480535303745105,0.75,0.3125,0.1875
1480535303752628,0.9375,0.1875,0
1480535303775188,-0.5,0,0.25
1480535303790226,-0.5,0.125,0.25
1480535303812785,0.1875,-0.4375,0.6875
1480535303835846,0.6875,-0.6875,0.3125
1480535303851889,-0.3125,-0.6875,0.3125
1480535303872945,-0.3125,-0.3125,0.4375
1480535303902022,0.4375,0.0625,1.0625
1480535303910545,0,0.125,1.25
1480535303941628,-1.4375,0.4375,0.6875
1480535303963686,-1.6875,0.75,1.5625
1480535303971708,0.125,0.75,0.875
1480535304000284,1.1875,0.8125,0.5
1480535304015324,0.3125,0.4375,0.5625
1480535304029862,-1.25,0.1875,0.5
1480535304052924,-2.25,-0.1875,0.0625
1480535304098043,-1.0625,-0.3125,0.5625
1480535304100551,0,-0.4375,0.5625
1480535304143163,-0.0625,-0.5,0.1875
1480535304145671,-0.1875,-0.75,0.375
1480535304163719,-0.1875,-0.3125,0.5625
1480535304181769,-0.6875,-0.3125,0
1480535304210342,-0.8125,-0.1875,-0.125
1480535304212348,0.25,-0.3125,0.3125
1480535304240924,0.125,0.0625,0.5
1480535304255965,-0.4375,-0.1875,0.25
1480535304278025,-0.625,-0.1875,0
1480535304293062,-0.25,-0.0625,0.25
1480535304322642,-0.4375,0.1875,0.1875
1480535304336177,-0.625,-0.0625,0.0625
1480535304361250,-0.375,0.125,-0.1875
1480535304375285,-0.125,0.125,0.1875
1480535304403857,-0.375,-0.25,0.4375
1480535304412380,-0.375,-0.25,0.1875
1480535304459004,0.4375,-0.0625,0.5625
1480535304464017,0.0625,0.25,0.5625
1480535304480561,-1.375,0,0.1875
1480535304495099,-1.0625,-0.25,-0.0625
1480535304517661,0.125,-0.25,-0.0625
1480535304532700,1.375,0.3125,0.1875
1480535304562780,-0.1875,0,0.25
1480535304576316,-1.25,-0.625,0.125
1480535304592859,-0.75,-0.3125,-0.125
1480535304615419,0.6875,-0.5625,0.1875
1480535304638986,0.875,-0.25,0.25
1480535304660540,-0.4375,0.0625,0.5
1480535304698139,-2.1875,0.3125,0.125
1480535304702150,-1.1875,0.625,0.0625
1480535304712678,1.375,1.0625,0.75
1480535304736744,0.9375,1.8125,0.5625
1480535304774343,-0.9375,1.5625,0.4375
1480535304778855,-2.5,0.3125,0.75
1480535304795398,-1.8125,0.125,0.375
1480535304818459,-1.25,1.1875,0.375
1480535304832999,-1.6875,1.9375,0.3125
1480535304855059,-4.375,3.9375,-0.375
1480535304877617,-7.125,2.6875,-0.1875
1480535304892156,-8.25,-3.125,2.4375
1480535304928753,-6,-5.875,2.875
1480535304937778,-0.375,-2.25,-0.125
1480535304966353,2.875,2.75,-0.625
1480535304975377,3.75,3,1.4375
1480535304998940,5.25,-0.4375,0.75
1480535305011975,4.9375,0.625,0.4375
1480535305035036,0.375,1.875,0
1480535305057596,-2.1875,-0.25,-0.125
1480535305078652,1.25,-0.875,-0.5625
1480535305095196,3.5,0.6875,-0.3125
1480535305117756,3.5625,0.8125,0.0625
1480535305133799,0.5,0.6875,0
1480535305154855,-1.5,0.8125,-0.3125
1480535305177916,-1.0625,0.5625,0.1875
1480535305200977,0.3125,0.4375,0.1875
1480535305216519,1.3125,1,0
1480535305238077,-0.9375,1.125,0.5
1480535305258631,-1.875,0.3125,0.1875
1480535305288711,-0.5,0,0.0625
1480535305297735,1.625,0.5,-0.0625
1480535305327814,0.9375,0.375,0.25
1480535305335335,-1.375,-0.1875,-0.125
1480535305357896,-1.5625,-0.5625,0.25
1480535305379452,0.0625,-0.1875,0
1480535305395495,1,-0.125,0.1875
1480535305417554,0,0.4375,0.5625
1480535305438610,-1.8125,0.5,0.8125
1480535305455153,-0.75,0.5625,0.5
1480535305478716,0.9375,0.875,1.25
1480535305507292,-0.25,1.625,0.3125
1480535305516818,-1.8125,2.25,-0.3125
1480535305551910,-2.0625,1.6875,0.5
1480535305566449,-2.5625,-0.0625,0.9375
1480535305575975,-4.125,0.75,-0.3125
1480535305598033,-4.4375,-0.5,0.875
1480535305635132,-5.0625,-2.875,1.375
1480535305641149,-2.625,0.1875,-0.375
1480535305657693,-0.6875,2.75,-0.5
1480535305680253,-4.0625,-1.3125,2.375
1480535305695292,-4.5625,-5.9375,2.1875
1480535305717853,-2.375,-5.4375,1.625
1480535305756455,2.4375,-2.125,-0.875
1480535305761468,4.1875,0.3125,-0.875
1480535305778013,2.8125,1,0.5
1480535305801575,-0.4375,0.5625,1.375
1480535305814609,-1.375,0,0.25
1480535305839177,0.8125,-0.375,0.0625
1480535305875773,6.1875,0.625,-0.375
1480535305882793,7.4375,0.9375,-1.1875
1480535305906354,4.75,0.8125,-1.5
1480535305921895,1.25,0.625,-1.75
1480535305934428,0.5625,0.625,-1
1480535305957489,0.625,0.6875,-0.5
1480535305987070,1.5625,1.3125,-0.25
1480535305994588,2.125,0.375,0.3125
1480535306041714,1.0625,0.75,-0.0625
1480535306046225,0.25,1.1875,0.125
1480535306064274,0.3125,0.625,0
1480535306079313,1.0625,0.4375,0.4375
1480535306106666,1.125,0.4375,0.4375
1480535306122929,-0.3125,-0.125,0
1480535306145490,-1.125,-0.3125,0.1875
1480535306160529,-0.25,-0.0625,-0.25
1480535306188604,-0.25,0.5,-0.5
1480535306197628,-0.1875,0.25,0.0625
1480535306236231,-1.25,0.1875,-0.1875
1480535306244754,-0.6875,0.5,-0.6875
1480535306258791,0.4375,1.25,0.1875
1480535306280348,-0.125,0.6875,0.3125
1480535306327473,-0.9375,-0.5,-0.375
1480535306331484,-0.375,-0.25,-0.4375
1480535306355047,0.3125,0.1875,0
1480535306364072,-0.625,-0.125,-0.125
1480535306385127,-1.0625,-0.9375,-0.4375
1480535306400167,-0.5,-1.0625,-0.5
1480535306422728,0.9375,-0.5625,-0.3125
1480535306438772,0.75,-0.3125,-0.125
1480535306475368,-0.0625,-0.25,0.375
1480535306481383,-0.9375,-0.5625,-0.125
1480535306511463,-0.5,-0.4375,-0.75
1480535306520489,1.0625,0.3125,-0.125
1480535306543047,0.625,0.4375,-0.125
1480535306557586,-0.8125,0.0625,-0.0625
1480535306586163,-0.6875,0.0625,-0.0625
1480535306601202,-0.25,0.375,0
1480535306625266,0.0625,0.125,0.3125
1480535306640306,-0.625,0.125,-0.0625
1480535306668883,-0.6875,0.25,-0.1875
1480535306678412,0.0625,0.125,-0.0625
1480535306700466,-0.125,0.3125,0.0625
1480535306723527,0.1875,0,-0.0625
1480535306745586,-0.5,-0.125,0.1875
1480535306761128,-0.9375,0,0.5
1480535306789202,-0.9375,0.0625,0.25
1480535306798727,-0.5,0.1875,0.5
1480535306820292,-0.4375,0.125,0.6875
1480535306842844,-1.125,0.0625,0.4375
1480535306857385,-0.8125,0,0.25
1480535306880445,-0.25,0.5625,0.3125
1480535306910525,-0.1875,0.9375,0.4375
1480535306924061,-0.625,0.625,0.8125
1480535306941005,-1.4375,0,0.6875
1480535306962663,-1.625,0.5,0.625
1480535306984220,-0.5625,0.625,0.5625
1480535307000263,0.1875,1.25,1.25
1480535307023325,-0.25,1.125,1.1875
1480535307037362,-1.375,0.5625,0.5625
1480535307060423,-1.3125,0.5,0.5625
1480535307082984,-1.1875,1.1875,0.25
1480535307105042,-1,0.8125,0.25
1480535307120585,-1,0.6875,0.25
1480535307149159,-0.375,0.5625,0.4375
1480535307164199,-0.3125,0.4375,0.625
1480535307181746,-0.875,0.75,0.4375
1480535307211826,-1.0625,0.0625,0.875
1480535307224359,-1.3125,0.5,0.1875
1480535307240403,-0.25,0.8125,0.1875
1480535307262965,-0.3125,1.0625,0.125
1480535307291538,0,0.5625,0.0625
1480535307310088,-0.75,0.625,0.4375
1480535307322620,-1.6875,0.625,0.25
1480535307343676,-1.25,0.8125,0.3125
1480535307360222,-0.5,0.5625,0.5
1480535307384786,-0.625,1.6875,0.1875
1480535307428402,-1.75,1.5,0.0625
1480535307430910,-3.5,1.5,0.0625
1480535307456977,-3.5,0.6875,0.5
1480535307463996,-4.125,1.625,0.5
1480535307482045,-5.25,1.375,0.4375
1480535307502600,-3.75,-3.1875,3.125
1480535307531176,-2.0625,-7.4375,4.8125
1480535307540703,-1.625,-0.1875,-1.1875
1480535307586826,0.3125,6.3125,0
1480535307592840,2.3125,3.6875,3.125
1480535307600360,5.5625,-1.1875,0.125
1480535307622920,8.5625,-1.3125,-0.625
1480535307653504,6.125,0.8125,-0.125
1480535307660520,0.4375,0.4375,1
1480535307697619,-2.1875,-2.0625,0.625
1480535307713661,-1.625,-2.1875,-1.1875
1480535307719677,4.3125,-0.5625,-1.75
1480535307743742,8.125,1.0625,0
1480535307779837,5.5,2,0.1875
1480535307786354,-1.125,1.25,-0.125
1480535307816434,-4.6875,0.4375,-0.375
1480535307825459,-2.9375,0.25,0.0625
1480535307863058,1.1875,0.5,-0.5625
1480535307865565,2.5,0.875,0.25
1480535307908178,0.75,0.375,0.625
1480535307910685,-1.1875,-0.25,0.5
1480535307930237,-1.5625,-0.25,0.3125
1480535307945278,-0.375,0.0625,0.3125
1480535307968342,0.25,0.3125,0.25
1480535307982877,0.1875,0.5,-0.0625
1480535308021480,-0.625,0.5625,-0.125
1480535308026493,-0.375,0.4375,-0.25
1480535308065597,0,0.5625,0.0625
1480535308069106,0.1875,0,0
1480535308088158,-0.4375,-0.0625,0
1480535308103198,-0.625,-0.0625,0.25
1480535308125757,-0.75,-0.4375,0.5625
1480535308147816,-1,-0.0625,-0.0625
1480535308170376,0,-0.0625,0.375
1480535308185416,0.75,-0.125,0.4375
1480535308223517,0.375,0.3125,0.1875
1480535308225523,-1.1875,0.3125,0.25
1480535308245576,-0.875,-0.0625,0.375
1480535308266646,-0.3125,0.375,0.0625
1480535308290195,0.125,0.4375,-0.0625
1480535308307240,-0.3125,-0.25,0.125
1480535308335317,-0.5,-0.5,0
1480535308342835,-0.0625,-0.375,-0.0625
1480535308365896,0.3125,-0.75,-0.0625
1480535308386457,-0.125,-1.4375,0
1480535308409011,-0.6875,-1,0.0625
1480535308425053,-0.125,-0.5625,-0.25
1480535308449118,1.1875,-0.6875,0.6875
1480535308462654,0.625,0.25,0.625
1480535308491229,-0.1875,0.3125,-0.625
1480535308506847,-0.3125,0.4375,-0.375
1480535308535848,-0.25,0.6875,0.1875
1480535308546877,-0.9375,0.625,0.3125
1480535308567934,-1.8125,0.125,0.5
1480535308584477,-1.4375,0,0.4375
1480535308611048,0.1875,0.4375,0.3125
1480535308627592,0.625,0.5,0.5
1480535308643133,-0.8125,-0.0625,0.6875
1480535308665192,-2,-0.625,0.3125
1480535308687754,-1,-0.125,0.0625
1480535308702291,0.1875,0,0.5
1480535308725352,-0.375,-0.375,0.1875
1480535308747913,-1.1875,-0.4375,0.1875
1480535308770473,-0.6875,-0.375,0.6875
1480535308785512,-0.375,-0.0625,0.5625
1480535308813587,-1.5625,-0.25,0.5625
1480535308830132,-1.8125,-0.1875,0.375
1480535308845672,-0.875,0.1875,0.5
1480535308883272,-0.5,0.5625,0.6875
1480535308897810,-1.3125,0.4375,0.625
1480535308905331,-1,0.3125,0.8125
1480535308927890,-0.875,0.3125,0.9375
1480535308941928,-1.0625,0.0625,0.875
1480535308965491,-1.3125,0.1875,0.5625
1480535308988056,-0.75,0.125,0.875
1480535309002591,-0.1875,0.0625,0.5
1480535309025149,-0.5,0.125,0.5625
1480535309047710,-0.875,0.5625,0.5625
1480535309100851,-0.875,0.25,0.6875
1480535309106013,-0.75,0.5,0.5
1480535309118398,-1.1875,0.5625,0.8125
1480535309136448,-1.0625,0.75,0.5625
1480535309145470,0.25,1.0625,1.0625
1480535309168030,0.6875,1,1
1480535309196605,0.125,0.625,0.5625
1480535309206132,-0.5625,0.125,0.5
1480535309235710,-1.3125,0,0.5
1480535309248745,-1.1875,0.0625,0.125
1480535309278825,-0.375,0.25,0.5625
1480535309288851,0.5,0,0.5
1480535309308915,0.125,0.4375,0.1875
1480535309325458,-0.0625,0.0625,0.5625
1480535309355036,-0.5625,0.0625,0.4375
1480535309376092,-0.75,0.125,-0.1875
1480535309400157,-0.0625,-0.0625,0.4375
1480535309416700,0.0625,0.125,0.5
1480535309444274,0.125,0.4375,0.0625
1480535309452805,-0.5625,-0.3125,0.0625
1480535309467837,0.125,-0.25,0.1875
1480535309490397,0.0625,-0.1875,0.1875
1480535309512957,0.0625,-0.1875,0.0625
1480535309527997,-0.375,-0.125,0.1875
1480535309550060,-0.375,0.1875,0.1875
1480535309566099,-0.25,0.5,0.25
1480535309593671,-0.25,0.8125,0.3125
1480535309610216,-0.375,0.25,0.375
1480535309655837,0.125,0,0.3125
1480535309658344,0.1875,0.625,-0.125
1480535309695944,-0.1875,1,0
1480535309700456,-0.8125,-0.125,0.375
1480535309731538,-0.5625,-0.8125,0.0625
1480535309736556,0.4375,0.0625,-0.4375
1480535309751092,-0.5,0.3125,-0.0625
1480535309767634,-1.125,0.1875,0.375
1480535309790195,-3.375,0.875,0.5
1480535309812755,-4.125,0.8125,0.0625
1480535309835315,-2.625,-1.125,2.625
1480535309850354,-1.3125,-1.5,1.8125
1480535309872914,-1.6875,0.9375,-0.375
1480535309893970,-0.25,2.6875,-0.0625
1480535309916530,1.1875,1,0.4375
1480535309933576,2.375,-0.3125,0.125
1480535309962653,1.8125,0.625,0.375
1480535309970174,-0.25,0.6875,0.3125
1480535310008274,-0.4375,0.125,0.25
1480535310010782,0.1875,-0.1875,-0.375
1480535310030835,2.9375,0.25,0.375
1480535310051389,2.0625,0.4375,0.5
1480535310067933,-0.375,0.5625,-0.0625
1480535310090994,-1.625,0,0.1875
1480535310111549,-0.1875,0.4375,-0.125
1480535310127591,1.375,0.8125,0.25
1480535310150152,0.0625,0.5,0.375
1480535310171208,-1,0.5,-0.125
1480535310194771,-1,0.875,0
1480535310209811,-0.25,0.3125,0.5625
1480535310248915,0,0.375,0.0625
1480535310253930,-0.1875,0.625,0
1480535310287019,-0.1875,0.6875,0.0625
1480535310291027,-0.375,0.375,0.4375
1480535310308072,-0.375,0.4375,0.375
1480535310330130,-0.4375,0.375,0.1875
1480535310351187,-0.1875,0.375,0
1480535310368232,-0.4375,0.625,-0.1875
1480535310390290,-0.25,0.6875,0.0625
1480535310411346,-0.0625,0.625,0.125
1480535310427890,-0.875,0.6875,-0.375
1480535310450952,-2,1,-0.125
1480535310489054,-2,1.25,0.25
1480535310501085,-1.5,0.6875,0.375
1480535310525149,-1.375,-0.25,-0.1875
1480535310532669,1.1875,-0.25,-0.125
1480535310563250,3.6875,0.4375,0.5625
1480535310570269,3.375,0.5,-0.0625
1480535310592830,-0.25,-0.1875,0.375
1480535310606866,-3.3125,-0.625,0.5
1480535310631934,-2.0625,-0.9375,0.25
1480535310654994,1,-0.125,0.125
1480535310667026,1.875,0.375,0.5625
1480535310690088,-0.5625,0.4375,0.625
1480535310712648,-1.375,0.125,0.5625
1480535310727186,-0.3125,0.5625,0.625
1480535310765288,0.25,0.3125,0.5625
1480535310781331,-1.125,0.25,0.0625
1480535310798877,-0.625,-0.1875,0.5
1480535310815923,0.1875,-0.0625,0.4375
1480535310832968,0.3125,0.125,0.375
1480535310847005,-0.6875,-0.25,0.3125
1480535310871072,-1.1875,-0.5,0.375
1480535310900147,-0.25,-0.1875,0.3125
1480535310915186,-0.375,0.125,0.5
1480535310930728,-1.375,0.75,0.6875
1480535310952790,-0.8125,0,-0.375
1480535310974344,-0.3125,0.25,0.4375
1480535311001416,0.125,0.4375,0
1480535311044030,0.0625,-0.1875,0.0625
1480535311049544,0.3125,-0.25,0.25
1480535311059070,-0.75,-0.4375,0.125
1480535311073609,-0.5,-1,-0.1875
1480535311093661,0.375,-0.75,-0.5
1480535311110206,1.4375,-0.5,-0.4375
1480535311132766,1,-0.4375,-0.5
1480535311153823,-0.3125,-0.8125,-0.25
1480535311178888,0.0625,-0.5,-0.0625
1480535311200446,0.375,-0.5,-0.3125
1480535311215486,0.25,-0.25,-0.25
1480535311230526,0.1875,-0.1875,0.25
1480535311275646,-0.4375,-0.4375,0.125
1480535311278153,-0.375,0.125,-0.125
1480535311320766,0.875,0.4375,0.625
1480535311323272,0.1875,0.375,0.375
1480535311333800,-0.1875,0.125,-0.3125
1480535311358366,-0.1875,0.125,-0.1875
1480535311373406,-0.8125,-0.125,-0.3125
1480535311396968,-1.625,-0.3125,-0.3125
1480535311418529,-0.625,-0.4375,-0.3125
1480535311432563,0.375,-0.1875,0.3125
1480535311462642,0.5625,-0.25,0.25
1480535311472170,-0.4375,-0.25,0.1875
1480535311492723,-1,-0.25,0.375
1480535311516792,-1,-0.1875,0.125
1480535311537843,0.1875,-0.125,0
1480535311552888,0.75,0.375,0.5625
1480535311590984,-1,0.1875,0.375
1480535311592989,-1.4375,-0.0625,0.5
1480535311613044,-0.8125,0.1875,0.4375
1480535311635103,-0.1875,0.5,0.625
1480535311649640,-0.75,0.625,0.625
1480535311672705,-1.875,0.625,0.5625
1480535311695262,-1.625,0.625,0.5
1480535311709801,-0.5,1.125,0.5
1480535311733864,-0.125,1.4375,0.75
1480535311755422,-0.375,1.1875,0.5625
1480535311794024,-0.9375,0.875,0.3125
1480535311799038,-0.6875,1.25,0.4375
1480535311832127,-0.4375,1.0625,0.4375
1480535311836638,0,0.8125,0.5625
1480535311852683,-0.3125,1,0.25
1480535311875743,-1.0625,1.1875,0.3125
1480535311896296,-1.125,0.25,-0.0625
1480535311912840,-0.0625,-0.375,0.625
1480535311935400,1.5625,0,0.8125
1480535311956458,-0.25,0.1875,0.75
1480535311972500,-1.75,0,0.1875
1480535311995058,-0.75,0.375,0.4375
1480535312016115,1.1875,0.5,0.8125
1480535312032659,1.125,0.625,0.5625
1480535312055219,0.125,0.75,0.625
1480535312076275,-1.25,1.25,0.5625
1480535312099839,-2.1875,1.25,0
1480535312115379,-1.5625,1.125,0.25
1480535312145459,-0.375,1.0625,0.3125
1480535312152983,0.125,1.0625,0.375
1480535312175038,-0.0625,0.625,0.4375
1480535312196094,-0.0625,0.5,0.5
1480535312220160,-0.875,0,-0.125
1480535312235198,-1.0625,-0.3125,0.375
1480535312256254,0.125,-0.625,0.1875
1480535312272800,0.8125,-0.3125,0.5625
1480535312302879,0.125,-0.375,0.4375
1480535312323934,-0.5625,-0.125,0.0625
1480535312346495,-0.375,0.0625,0.0625
1480535312355016,-0.25,0.5,0.3125
1480535312378079,-0.5,-0.0625,0.0625
1480535312392616,-0.5,-0.125,0.4375
1480535312415176,-0.0625,0.4375,0.375
1480535312445256,0.125,0.5625,0.0625
1480535312452778,-0.125,0.375,0
1480535312475838,-0.4375,0.3125,0.0625
1480535312497897,-0.5,0.25,0.5625
1480535312511940,-0.6875,0.3125,0.5625
1480535312535499,-0.5625,0.3125,0.5625
1480535312571092,-0.375,0.125,0
1480535312589640,0.0625,0.3125,0
1480535312610195,-0.1875,0.25,0.375
1480535312627240,-0.5625,0.1875,0.125
1480535312633758,-0.25,-0.25,0.1875
1480535312655315,-0.0625,0.0625,-0.0625
1480535312677374,-0.3125,-0.1875,0.1875
1480535312692916,0.1875,-0.1875,0.25
1480535312722494,-0.8125,0.3125,0.625
1480535312737535,-0.6875,0.0625,0.1875
1480535312752073,0.625,0.75,0.8125
1480535312782658,0.25,1,0.5625
1480535312805215,0.625,0.625,0.125
1480535312818754,-0.25,0.9375,0.5
1480535312865876,-0.875,0.5,0.4375
1480535312868383,-1.6875,0.3125,0.0625
1480535312911497,-0.375,0.125,-0.0625
1480535312933055,0.6875,0.25,0.25
1480535312935562,0.875,0.0625,0
1480535312941577,-0.5,-0.0625,0.125
1480535312955113,-0.875,-0.3125,0.0625
1480535312985193,-0.5625,-0.3125,0.0625
1480535312999731,0.375,0.125,0
1480535313016276,0.5,0.3125,0.5625
1480535313037332,-0.9375,0.1875,0.25
1480535313058892,-1,0.5,0.375
1480535313098494,-0.375,0.6875,0.3125
1480535313101002,-0.25,0.5625,0.5625
1480535313121054,-1,0.1875,0.25
1480535313142612,-1.3125,0,-0.25
1480535313165172,-0.375,0.3125,-0.25
1480535313178710,0.4375,0.4375,0.0625
1480535313196756,0.1875,-0.4375,0.125
1480535313218313,-0.5,-0.8125,-0.4375
1480535313246388,-0.375,-0.3125,-0.4375
1480535313255913,0.6875,-0.375,-0.125
1480535313277972,0.1875,-0.5,-0.25
1480535313300533,-0.375,-0.25,-0.125
1480535313321086,0.125,-0.0625,0.125
1480535313337631,0.1875,-0.3125,-0.5
1480535313360191,1.0625,-0.1875,-0.5
1480535313377236,1.5,0.25,-0.0625
1480535313405813,0.875,-0.1875,-0.25
1480535313420851,-0.25,-0.5,-0.5
1480535313434389,-0.25,-0.75,-0.25
1480535313457951,1.25,-0.8125,-0.375
1480535313481011,1.6875,-0.4375,0.0625
1480535313495550,0.125,-0.3125,-0.4375
1480535313518112,0.25,-0.25,-0.375
1480535313540169,1.125,-0.125,0.0625
1480535313554708,0.8125,0.5,-0.4375
1480535313577769,1,0.0625,-0.875
1480535313615877,0.125,-0.1875,-0.8125
1480535313619386,-0.6875,-0.1875,-0.6875
1480535313644947,-0.125,-0.0625,-0.6875
1480535313659987,1.1875,-0.375,-0.1875
1480535313674527,1.5,-0.1875,-0.375
1480535313697588,0.25,-0.25,-0.3125
1480535313728671,0.4375,-0.125,-0.1875
1480535313734687,0.6875,-0.125,0.125
1480535313758249,0.125,-0.3125,-0.6875
1480535313780308,-0.1875,-0.25,-0.5625
1480535313808886,0.1875,-0.1875,-0.375
1480535313817910,0.4375,-0.5,-0.3125
1480535313840970,-0.25,-0.125,-0.25
1480535313861022,-0.4375,-0.25,-0.125
1480535313892606,-0.625,-0.5625,-0.375
1480535313900127,-0.375,-0.25,-0.1875
1480535313921182,0.125,-0.1875,0
1480535313937727,-0.6875,0.5,0
1480535313960287,-0.9375,0.375,-0.125
1480535313988862,-0.875,0.3125,0.125
1480535313997886,0.1875,0.6875,0.375
1480535314020446,0.375,0.625,0.625
1480535314041012,-0.75,0.3125,0.25
1480535314057545,-1.5,0.0625,0.5625
1480535314080105,-1.1875,0.125,0.4375
1480535314109182,-0.5,0.1875,0.5625
1480535314117706,-0.25,0.3125,0.8125
1480535314141268,-0.5625,0.375,0.5
1480535314162325,-1,0.5625,0.625
1480535314177865,-1.375,0.625,0.9375
1480535314207947,-1.5625,0.4375,0.875
1480535314228500,-1.375,0.5,0.75
1480535314238025,-0.75,0.5,0.5625
1480535314260084,0.5625,1.125,1.125
1480535314282644,-0.1875,1.0625,1.1875
1480535314299188,-0.5625,0.5,0.8125
1480535314320245,-1.375,-0.125,0.375
1480535314350825,-1.625,0.0625,0.3125
1480535314371382,-0.75,0.0625,0.375
1480535314387423,-0.4375,-0.0625,0.5625
1480535314412490,-1.1875,0.4375,1
1480535314418509,-1.25,-0.375,0.625
1480535314447586,-1.3125,-0.6875,0.5625
1480535314463625,-1.3125,-0.25,0.0625
1480535314485186,-1.1875,0.5625,-0.0625
1480535314506239,-0.5,0.875,0.0625
1480535314522782,0.25,0.9375,0.8125
1480535314537824,0.125,0.875,1.0625
1480535314560884,-1.125,1.875,-0.3125
1480535314583947,-0.5,3.4375,0.5625
1480535314596979,-2.1875,4.3125,2
1480535314626058,-5.9375,3.875,2.9375
1480535314652129,-12.6875,4,0.125
1480535314679700,-15.3125,3,2.125
1480535314686220,-8.1875,-0.6875,1.875
1480535314718303,6.3125,-2.8125,1.5
1480535314726825,11.875,-0.625,1.5
1480535314745876,2.625,0.6875,3.625
1480535314762923,-9.9375,-0.875,1.875
1480535314783977,-11.5625,-2.0625,1.3125
1480535314807541,-5.25,0.625,-0.375
1480535314828596,-3.75,-0.6875,-2.125
1480535314844137,-7.4375,-4.25,1.0625
1480535314860681,-6.9375,-4.6875,1.0625
1480535314883743,-1.375,-4.5,1.25
1480535314911318,4.9375,-5.125,1.3125
1480535314929364,8.5,-5.375,0.375
1480535314950420,10.9375,-1.5625,0.8125
1480535314963958,10.6875,1.5,0.875
1480535314987518,4.875,3.1875,1.3125
1480535315003563,-4.1875,2.875,-0.0625
1480535315023615,-5.5,1.75,0.375
1480535315040781,1,2.375,-0.3125
1480535315062719,4.5,2.3125,-0.9375
1480535315086283,3.0625,1.6875,0.125
1480535315107839,1.0625,0.6875,0.5625
1480535315122879,-0.0625,1.1875,0.9375
1480535315143935,-1.125,0.9375,0.5625
1480535315160980,-0.875,0.8125,0.5625
1480535315190058,0.0625,0.5,-0.0625
1480535315205100,0.3125,0.75,-1.125
1480535315226655,0.875,0.875,-0.6875
1480535315242698,0.75,1.125,-0.75
1480535315271274,0,0.25,-0.5
1480535315280298,-0.8125,-0.25,-1.125
1480535315308884,-1.4375,0,-1
1480535315325919,-1.6875,-1.3125,-1.0625
1480535315340458,-0.25,-1.0625,-0.875
1480535315363017,1.125,-0.3125,-0.375
1480535315385582,2.125,-0.375,-0.375
1480535315399615,1.75,-0.25,-0.375
1480535315422676,0.4375,0.625,-0.25
1480535315445237,0.1875,1.0625,-0.1875
1480535315466293,-0.1875,1.3125,-0.1875
1480535315483338,1.375,2,-0.75
1480535315505898,1.5625,1.8125,0
1480535315519436,1.375,1.1875,-0.625
1480535315558538,-0.25,0.625,-0.8125
1480535315565055,0.5,-0.25,-0.6875
1480535315579594,1.1875,0,-0.125
1480535315602656,0.9375,-0.75,-0.4375
1480535315615690,1.625,-0.4375,-0.625
1480535315630730,1.625,-0.3125,-0.3125
1480535315646773,1.6875,0.625,-0.5625
1480535315668332,1.3125,0.9375,-0.8125
1480535315690890,0.375,0.875,-1.0625
1480535315712949,-0.25,0.5625,-1.25
1480535315735510,-0.4375,0.6875,-0.9375
1480535315750549,0.75,0.6875,-0.625
1480535315777621,1.8125,0.6875,-0.4375
1480535315796170,1.1875,1,-0.25
1480535315810709,-0.4375,0.875,0.0625
1480535315833268,-0.75,0.5,0.125
1480535315855828,-0.5625,0.6875,-0.25
1480535315873587,1.125,1.3125,0.25
1480535315897439,0.9375,1,0.5
1480535315918499,-0.3125,0.625,0.125
1480535315930528,-0.8125,0.0625,0.25
1480535315956095,-0.375,0,0.4375
1480535315968130,0.5625,0.125,0.5
1480535315992191,0.125,-0.375,0.625
1480535316038816,-1.25,-0.75,0.5625
1480535316041323,-1.25,-1,0.4375
1480535316057866,-0.5,-0.1875,0.875
1480535316075915,-0.25,1,0.9375
1480535316095467,-0.9375,-0.3125,0.875
1480535316110506,-0.75,-0.625,0.875
1480535316142091,-1.375,-0.5625,-0.25
1480535316148107,-0.8125,-0.6875,-0.5625
1480535316178186,0.625,-0.125,0.125
1480535316194730,0.4375,-0.3125,0.375
1480535316215790,-0.75,-0.875,0.25
1480535316230827,-1.1875,-0.8125,-0.5625
1480535316263413,-0.4375,-0.75,-0.1875
1480535316268428,0.0625,-0.75,0.0625
1480535316315050,-0.1875,-0.5625,0.125
1480535316319567,0.1875,-0.375,0.375
1480535316335607,0.625,0,0.5625
1480535316350646,-0.125,0.25,-0.375
1480535316373205,0.1875,-0.125,-0.75
1480535316388245,0.375,-0.5625,-0.5
1480535316418327,-0.3125,-0.625,-0.5625
1480535316432864,-1.6875,-1.0625,-0.75
1480535316473973,-1,-1,0
1480535316477984,0.1875,-0.4375,0
1480535316496032,0.8125,-0.3125,-0.25
1480535316511072,0.375,-0.5625,-0.125
1480535316530623,-0.1875,-0.625,0
1480535316553183,-0.5625,-0.375,-0.3125
1480535316571232,0.1875,-0.25,-0.3125
1480535316590783,0.25,-0.0625,-0.375
1480535316614346,0.5,-0.125,-0.25
1480535316629390,0,-0.375,0
1480535316659467,-0.3125,-0.375,-0.0625
1480535316673002,0,0.0625,0.0625
1480535316691552,0.6875,0.125,-0.125
1480535316727647,-0.3125,0.0625,-0.1875
1480535316733163,-0.75,-0.125,-0.125
1480535316751210,-0.375,0.4375,-0.1875
1480535316778282,0.9375,1,-0.25
1480535316793322,1.5,0.75,-0.25
1480535316818389,-0.0625,0.5625,-0.25
1480535316831926,-0.75,0.4375,-0.3125
1480535316854485,-1,0.625,0.1875
1480535316871030,-0.9375,0.5625,-0.0625
1480535316892086,-0.625,0.125,0.125
1480535316913140,-0.1875,0.5625,-0.1875
1480535316931190,-0.3125,0.6875,0.25
1480535316974304,-1.0625,0.625,0.75
1480535316983328,-0.5625,0.625,0.625
1480535316989343,-1.0625,0.6875,0.875
1480535317010399,-0.9375,0.8125,0.4375
1480535317032959,0.25,1.125,1.25
1480535317057024,0.8125,1.25,1.0625
1480535317070561,0.0625,1,0.75
1480535317096128,-0.6875,0.4375,0.1875
1480535317115680,-1,1.1875,0.625
1480535317147765,-2,0.6875,1
1480535317153280,-2.1875,-0.4375,0.5
1480535317170827,-1.4375,0.625,0.75
1480535317190378,0.125,0.75,0
1480535317215947,0.1875,0.625,1.4375
1480535317230987,-0.4375,1.0625,1.375
1480535317250539,-1.9375,0.875,0.9375
1480535317280619,-1.8125,0.625,0.6875
1480535317306688,-0.9375,1,0.625
1480535317318721,-0.9375,1.5,0.4375
1480535317340779,-1.1875,1.25,0.375
1480535317356821,-0.9375,0.5625,0.5625
1480535317371862,-0.5625,0.625,0.4375
1480535317392917,-1,0.3125,0.5625
1480535317427509,-1.0625,-0.0625,0.625
1480535317439541,-1.0625,0.375,0.8125
1480535317453077,-1,0.125,0.5
1480535317484160,-0.75,0.1875,0.375
1480535317490677,-0.25,0.4375,0.4375
1480535317529280,-0.125,0.5625,0.5625
1480535317535797,-0.8125,0.3125,0.5625
1480535317559360,-0.75,-0.1875,0.25
1480535317584930,-1.0625,0.25,0.1875
1480535317595456,-0.9375,-0.25,0.375
1480535317610496,-0.75,-0.8125,0.6875
1480535317633056,-0.5625,-0.5625,0.1875
1480535317655615,-0.5625,-1.25,-0.125
1480535317678175,-0.8125,-0.375,0.875
1480535317700737,0.1875,0.6875,0.6875
1480535317719286,0.375,-0.5,1.375
1480535317733824,0.5625,-1.1875,2.5
1480535317752875,0.625,0.25,0.8125
1480535317777942,-3.875,3.875,-1.6875
1480535317802012,-9.125,4.25,2.1875
1480535317813035,-11.75,0.75,0.1875
1480535317837601,-9.1875,-3.3125,-1.625
1480535317859658,-6.875,-4,0.3125
1480535317880715,-2.1875,-2.25,1.0625
1480535317897258,0.6875,-1.75,2.4375
1480535317926837,0.5625,-1.1875,3.125
1480535317932853,-1.3125,-1.75,3.125
1480535317982988,0.25,-1.6875,1.6875
1480535317996523,0.625,0.9375,3.25
1480535318018082,-0.5625,-0.375,4.0625
1480535318023093,-4.4375,-1.6875,3.375
1480535318034627,-3.75,-1.1875,2
1480535318053175,-0.25,-0.375,1.375
1480535318075734,1.1875,0.5625,0.4375
1480535318094283,-1,0.375,2.8125
1480535318115841,0.25,1.5,2.1875
1480535318139029,6.6875,0.375,0.375
1480535318157952,9.0625,-1.1875,-0.6875
1480535318174496,3.6875,-1.5625,0.625
1480535318197056,-3.25,-1.5625,1.4375
1480535318214603,-5.5,-0.5,1.9375
1480535318234658,-3.8125,1.5625,-1.0625
1480535318255712,-0.75,2.125,0.25
1480535318295318,-0.375,1.875,0
1480535318309856,-0.5625,1.375,-0.3125
1480535318315872,0.1875,0.75,-0.8125
1480535318333419,0.625,2.25,-1.875
1480535318353477,1.9375,1.9375,-1.75
1480535318375531,2.9375,1.125,-1.1875
1480535318393579,2.1875,0.375,-0.875
1480535318414635,0.625,0.8125,-1.25
1480535318438699,1.25,0.25,-0.8125
1480535318453740,1.125,-0.9375,-0.8125
1480535318473291,1.4375,-1.375,-2.375
1480535318495851,3.375,-0.625,-2.0625
1480535318514400,4.875,-1.0625,-1.75
1480535318532949,4,-1.8125,-1.8125
1480535318563031,2.875,-1.3125,-2.5
1480535318581579,2.375,-1.375,-1.9375
1480535318593109,1.625,-1.375,-1.1875
1480535318615670,0.875,-0.875,-1.6875
1480535318633718,1.8125,-0.125,-1.5
1480535318654774,3.625,0.4375,-0.6875
1480535318684857,3,1.125,-0.875
1480535318693377,1.875,1.3125,-0.875
1480535318714433,0.1875,0.5625,-0.25
1480535318735488,0.125,0.1875,-0.375
1480535318753537,1.625,1.125,0.0625
1480535318775596,1.8125,0.8125,0.3125
1480535318795649,0.5625,0.5,-0.4375
1480535318827233,0.4375,-0.3125,-0.5
1480535318834753,1.625,-0.5,-0.5
1480535318855808,2.25,-0.3125,-0.8125
1480535318882380,2.25,-1.125,-0.75
1480535318895918,1.9375,-1.375,-1.1875
1480535318924491,2.1875,-1.375,-1.3125
1480535318953568,2,-1.125,-1.1875
1480535318963596,2.25,-0.75,-0.9375
1480535318992171,2.125,-0.375,-1
1480535318998187,1.5625,-0.125,-0.9375
1480535319016737,0.1875,0.25,-0.8125
1480535319035788,0.125,0.375,-1
1480535319058347,0.6875,0.5,-0.9375
1480535319089430,0.875,0.75,-0.875
1480535319095446,0.3125,0.625,-1.25
1480535319118008,-0.0625,0.6875,-0.625
1480535319136054,-0.75,0.6875,-0.5625
1480535319164631,-0.8125,0.6875,-0.125
1480535319178667,-0.625,1.25,-0.375
1480535319196214,1.125,2,0
1480535319215766,1.0625,1.875,0.6875
1480535319245848,0.25,1.25,0.1875
1480535319255872,-0.75,1,0.3125
1480535319284451,-1.0625,0.9375,0.0625
1480535319307009,-1.375,0.625,0.125
1480535319316032,-1.5625,0.5625,0.25
1480535319343105,-1.25,0.5,0.4375
1480535319365664,-0.125,0.9375,0.5
1480535319376193,-0.375,0.625,0.5625
1480535319395745,-0.375,1.125,0.5625
1480535319425825,-2,0.625,0.5625
1480535319435851,-1.875,0.6875,0.5
1480535319455404,-0.75,0.6875,0.75
1480535319479468,-1.375,1.25,1.25
1480535319500523,-1.6875,1.75,0.75
1480535319524086,-1.5625,2.875,1.0625
1480535319539628,-4.5625,4.5625,1.3125
1480535319557676,-8.25,2.25,1.3125
1480535319577227,-10.8125,-2.1875,3.875
1480535319598284,-9.6875,-5.6875,7.5
1480535319621846,-6.25,-5.25,5.875
1480535319644406,-10.75,1.4375,3.4375
1480535319684013,-15.125,7.375,3.875
1480535319689025,-17.875,6.25,8.875
1480535319721611,-18.5625,3.1875,11.375
1480535319725622,-18.75,2.8125,10
1480535319747179,-12.375,3.4375,8
1480535319757206,-4.25,2,8.875
1480535319788289,0.4375,1.4375,10.4375
1480535319795809,0.625,0.625,8.875
1480535319824385,-8.1875,0.0625,4.5
1480535319837921,-13.875,0.3125,6
1480535319868505,-6.25,-1,0.1875
1480535319877025,-0.6875,-2.75,-2.3125
1480535319924150,5.1875,-3.1875,-10.5
1480535319944204,8.875,0.125,-5.375
1480535319963254,20.8125,0.5625,-1.6875
1480535319966264,18.4375,1.625,-0.9375
1480535319998347,5.125,2.75,-13
1480535320002860,2.0625,1.875,-13.0625
1480535320020909,15.75,4.125,-9.625
1480535320040461,22.875,6.625,-2.3125
1480535320058508,16.0625,4.625,-13.625
1480535320082070,-0.8125,8.25,-17.4375
1480535320100620,-1.5625,5.3125,-3.0625
1480535320119169,16.875,-2.0625,0.9375
1480535320155265,3.1875,-4.3125,0.8125
1480535320160781,-6.875,-3.9375,-4.625
1480535320202390,1.125,-1.8125,1
1480535320238988,14.4375,2.5,0.375
1480535320244502,8.625,4.5,-0.25
1480535320275084,-4.5,5.0625,-0.125
1480535320277590,-4.75,5.8125,1.5
1480535320312182,-6.8125,5.25,0.8125
1480535320319703,-7.125,3.25,0.5625
1480535320340759,-2.8125,1.5,0.0625
1480535320358305,1.4375,1.5,0.5
1480535320379361,2,0.625,0.5625
1480535320400923,0.375,-0.9375,0.625
1480535320425986,-0.8125,-1.0625,0.8125
1480535320438018,-1.125,-1,1.1875
1480535320479127,-1.5625,-0.9375,0.6875
1480535320483137,-1,-0.75,0.0625
1480535320517731,0.375,0,1
1480535320522743,-0.3125,0.375,0.625
1480535320543298,-1.6875,0.375,0.4375
1480535320559340,-1.6875,0.375,0.75
1480535320581907,-0.6875,0.0625,0.8125
1480535320605964,0.75,-0.0625,0.6875
1480535320634543,-0.75,-0.625,0.6875
1480535320648076,-1.125,-1.375,0.625
1480535320658604,-1.8125,-1,1.6875
1480535320680162,-1,-1.8125,1
1480535320700721,-0.5625,-2.125,0.5625
1480535320718264,0.6875,-0.75,0
1480535320756364,1.6875,0.625,-0.25
1480535320767896,1.0625,-0.5,0.25
1480535320792460,-0.5,-1.25,0
1480535320799479,0.5,-1.4375,-0.375
1480535320831063,0.75,-0.9375,-0.0625
1480535320838584,0.9375,-0.875,-0.125
1480535320859638,1.9375,-0.6875,0.125
1480535320880695,1.6875,-0.25,0.0625
1480535320898743,1.125,-0.0625,-0.0625
1480535320930326,0.375,0.25,-0.5
1480535320950885,0.125,-0.4375,-0.125
1480535320958401,-0.5625,-0.5625,-0.5
1480535320981965,-0.625,-0.4375,-0.625
1480535321008034,0.125,-0.6875,-0.3125
1480535321024577,0.1875,-0.75,0.125
1480535321041121,0.125,-0.5,-0.25
1480535321071703,0.9375,-0.5,-0.5
1480535321090753,1,-0.1875,-0.5625
1480535321105794,0,-0.625,-0.75
1480535321127852,-0.1875,-0.875,-0.4375
1480535321138383,0.375,-0.5625,0.1875
1480535321161442,-0.125,-0.5625,-0.4375
1480535321188012,-0.0625,-0.4375,-0.25
1480535321210572,0.375,-0.0625,0.1875
1480535321228620,-0.875,0.0625,0
1480535321240658,-1.3125,-0.125,-0.4375
1480535321266221,-0.25,0.0625,-0.0625
1480535321285772,0.5,0.625,0.6875
1480535321309336,-0.9375,0.625,0.125
1480535321325879,-2.125,0.0625,0
1480535321348940,-0.9375,-0.0625,0
1480535321360471,0.3125,0.4375,0.0625
1480535321383034,0.1875,0.625,0.625
1480535321405592,-1.3125,0.0625,0.3125
1480535321420631,-1.875,-0.625,-0.0625
1480535321438679,-0.9375,-0.4375,0
1480535321465751,0.625,0.125,0.0625
1480535321488311,0.25,0,0.875
1480535321506169,-0.8125,-0.0625,0.5625
1480535321521900,-1.8125,-0.25,0.1875
1480535321541954,-0.8125,-0.4375,0.0625
1480535321570530,0.75,0.375,0.5625
1480535321585569,0.25,0.625,0.9375
1480535321602114,-1.3125,0.0625,0.9375
1480535321626178,-2.0625,-0.0625,0.5
1480535321641218,-0.5,0.5,0.4375
1480535321663276,1.4375,1.1875,1.3125
1480535321679319,0.6875,1.3125,1.0625
1480535321701881,-1.0625,1,0.5625
1480535321721932,-1.8125,0.75,0.125
1480535321739489,-1.25,0.6875,0.625
1480535321761036,-1.25,0.875,0.25
1480535321783596,-1.8125,0.875,-0.125
1480535321810668,-1.5,0.625,0.25
1480535321821197,-0.4375,0.5625,0.25
1480535321851278,-0.1875,0.75,0.3125
1480535321863308,-1.0625,0.3125,0.1875
1480535321885369,-1.5,0.5625,-0.1875
1480535321903918,-0.5,0.625,0.0625
1480535321923969,-0.1875,0.9375,0.125
1480535321941016,-0.25,0.875,-0.1875
1480535321963575,-0.9375,0.4375,0.3125
1480535321983127,-1.1875,0.4375,0.5625
1480535322001177,-2,0.625,0.5625
1480535322028248,-1.9375,0.5625,0.625
1480535322062337,-0.875,0.125,1.125
1480535322066850,-0.4375,0.125,1
1480535322099437,-1.6875,0.5,0.25
1480535322102946,-1.5,0.25,0.375
1480535322128513,-0.625,0.8125,1.0625
1480535322145559,-0.8125,1.0625,0.875
1480535322168120,-2.125,-0.375,-0.0625
1480535322181655,-1.125,0.0625,0.5625
1480535322203714,0.0625,1.0625,0.8125
1480535322223266,-0.9375,0.4375,0.6875
1480535322241314,-2,-0.1875,0.625
1480535322263372,-1.0625,-0.125,0.5625
1480535322299970,0.0625,0.1875,0.375
1480535322302477,0.4375,0.125,0.5625
1480535322337570,-1.0625,-0.0625,0.5
1480535322343084,-1.1875,-0.1875,0.6875
1480535322361133,-0.8125,0.0625,0.75
1480535322383693,-0.5,0.3125,0.375
1480535322403747,0.25,0.3125,1.125
1480535322420291,0.1875,0.3125,0.8125
1480535322442850,0.1875,0.4375,0.6875
1480535322464407,-0.375,0.3125,0.5625
1480535322480952,-1.0625,0.0625,0.6875
1480535322502510,-1.75,0.0625,0.25
1480535322526071,-1.375,0.0625,0.1875
1480535322540221,0,0,0.375
1480535322578211,0.125,0.375,0.6875
1480535322584231,-0.875,0.125,1
1480535322606814,-0.875,-0.1875,0.8125
1480535322625336,-0.5625,0.1875,0.5
1480535322643886,-0.375,0.1875,0.3125
1480535322665943,-0.1875,0.125,0.5
1480535322691012,-0.1875,0,0.1875
1480535322711565,0.1875,-0.375,-0.3125
1480535322721591,0,-0.1875,0.125
1480535322742647,-0.125,-0.0625,0.25
1480535322771727,-0.4375,-0.1875,-0.0625
1480535322781751,-0.4375,-0.125,-0.125
1480535322802807,-0.1875,0,0.0625
1480535322825367,-0.375,0.1875,-0.125
1480535322855949,-0.375,0.5,-0.1875
1480535322862968,0.625,0.3125,0.375
1480535322892545,0.375,0.5,0.25
1480535322915106,-0.375,0.375,-0.0625
1480535322929143,-0.75,0.0625,0.25
1480535322959223,-0.1875,-0.125,0.1875
1480535322966243,0.625,0.1875,0.125
1480535322982285,0.8125,0,0.1875
1480535323012866,0.0625,-0.125,-0.25
1480535323019384,-0.125,-0.0625,-0.125
1480535323042444,-0.0625,-0.375,0.25
1480535323065506,0,-0.625,-0.125
1480535323088066,-0.125,-0.5625,0.1875
1480535323102605,-0.3125,-0.5,0
1480535323133690,0.6875,-0.125,0.1875
1480535323139704,1,0.1875,0.5625
1480535323171789,0.625,0.1875,0.0625
1480535323192844,-0.375,-0.1875,-0.125
1480535323207885,-0.875,-0.4375,0
1480535323228943,1.125,-0.875,0.25
1480535323261529,1.875,-0.8125,0
1480535323266040,2.25,-0.4375,0.5625
1480535323290605,1.3125,0.5,0.3125
1480535323306706,0,0.9375,0.1875
1480535323326199,-1,0.375,0.25
1480535323343246,-0.6875,-0.25,0.1875
1480535323365303,0,-0.125,-0.25
1480535323385858,1.5625,-0.25,0
1480535323413432,0.875,-0.3125,-0.125
1480535323448024,0.1875,-0.4375,-0.4375
1480535323450533,-0.0625,-0.5,-0.4375
1480535323463064,0.625,-0.1875,-0.375
1480535323485122,0.9375,0.1875,-0.125
1480535323507181,0.625,0.4375,-0.6875
1480535323522722,0.0625,0.625,-0.375
1480535323545282,-0.75,0.4375,-0.375
1480535323567842,-0.6875,0.1875,-0.6875
1480535323582882,0,0.625,-0.125
1480535323605443,1.125,0.0625,-0.375
1480535323625998,0.8125,-0.0625,-0.25
1480535323642541,-0.25,-0.25,-0.25
1480535323667119,0,-0.5625,-0.1875
1480535323686158,0.375,-0.5625,-0.5
1480535323702199,0.8125,-0.5625,-0.375
1480535323725260,1.375,-0.125,-0.5625
1480535323747821,1.1875,-0.4375,-0.625
1480535323762861,0.8125,-0.3125,-0.4375
1480535323792941,0.625,-0.5,-0.3125
1480535323808482,-0.1875,-0.625,-0.6875
