timestamp,x,y,z,w
1480535257521120,-0.48761,-0.346008,0.582764,0.550354
1480535257531649,-0.48761,-0.346008,0.582764,0.550354
1480535257563235,-0.487427,-0.345886,0.583069,0.550293
1480535257573259,-0.487183,-0.345825,0.583313,0.550232
1480535257595820,-0.487122,-0.345886,0.583496,0.55011
1480535257613867,-0.487,-0.346008,0.583557,0.549988
1480535257643948,-0.487,-0.346069,0.583557,0.549988
1480535257651468,-0.487,-0.346069,0.583557,0.549988
1480535257674028,-0.487,-0.346069,0.583557,0.549988
1480535257693580,-0.487,-0.346069,0.583557,0.549988
1480535257711627,-0.487,-0.346069,0.583557,0.549988
1480535257756246,-0.487,-0.346069,0.583557,0.549988
1480535257764268,-0.487,-0.346069,0.583557,0.549988
1480535257775798,-0.487,-0.346069,0.583557,0.549988
1480535257793846,-0.487,-0.34613,0.583496,0.549988
1480535257813399,-0.487,-0.34613,0.583557,0.549988
1480535257840972,-0.487,-0.346069,0.583557,0.549988
1480535257854006,-0.487,-0.346069,0.583557,0.549988
1480535257875062,-0.487,-0.346069,0.583557,0.550049
1480535257913668,-0.487,-0.346069,0.583557,0.550049
1480535257918678,-0.486938,-0.346069,0.583557,0.550049
1480535257935724,-0.486938,-0.34613,0.583557,0.550049
1480535257955777,-0.486938,-0.346069,0.583557,0.550049
1480535257978337,-0.486938,-0.346069,0.583557,0.550049
1480535258000897,-0.486938,-0.346069,0.583557,0.550049
1480535258017441,-0.486938,-0.34613,0.583557,0.550049
1480535258041505,-0.487,-0.34613,0.583557,0.550049
1480535258057548,-0.487,-0.346069,0.583557,0.549988
1480535258076097,-0.487,-0.346069,0.583557,0.549988
1480535258106678,-0.487,-0.346069,0.583557,0.550049
1480535258114700,-0.486938,-0.346069,0.583557,0.550049
1480535258143276,-0.486938,-0.34613,0.583557,0.550049
1480535258153804,-0.486938,-0.346069,0.583557,0.550049
1480535258174860,-0.486938,-0.34613,0.583557,0.550049
1480535258195920,-0.486938,-0.34613,0.583557,0.550049
1480535258213968,-0.487,-0.34613,0.583557,0.550049
1480535258236526,-0.486938,-0.346069,0.583557,0.550049
1480535258256077,-0.487061,-0.346252,0.583557,0.549866
1480535258274124,-0.487061,-0.346252,0.583496,0.549866
1480535258297687,-0.487061,-0.346252,0.583496,0.549866
1480535258317238,-0.487061,-0.346252,0.583557,0.549866
1480535258334284,-0.487061,-0.346252,0.583557,0.549866
1480535258356343,-0.487061,-0.346252,0.583557,0.549866
1480535258375894,-0.487122,-0.346252,0.583557,0.549866
1480535258393942,-0.487366,-0.346252,0.583496,0.549683
1480535258418508,-0.487549,-0.346252,0.583435,0.5495
1480535258436054,-0.487549,-0.346252,0.583435,0.5495
1480535258460118,-0.487549,-0.346252,0.583435,0.5495
1480535258481175,-0.487549,-0.346313,0.583435,0.5495
1480535258503233,-0.487671,-0.346252,0.583313,0.549561
1480535258513764,-0.487854,-0.34613,0.583191,0.549622
1480535258536322,-0.487732,-0.346252,0.583069,0.549744
1480535258555874,-0.487549,-0.346375,0.582947,0.549988
1480535258585954,-0.487549,-0.346375,0.582947,0.549988
1480535258596982,-0.487549,-0.346375,0.582947,0.549988
1480535258616033,-0.487671,-0.346497,0.583008,0.549744
1480535258634081,-0.487915,-0.34668,0.582947,0.549438
1480535258664161,-0.487915,-0.34668,0.582947,0.549438
1480535258675692,-0.487793,-0.346497,0.583008,0.549561
1480535258693740,-0.487732,-0.346375,0.583008,0.549744
1480535258716299,-0.487732,-0.346375,0.583008,0.549744
1480535258743873,-0.487915,-0.346497,0.582947,0.549622
1480535258753900,-0.488098,-0.34668,0.582764,0.549438
1480535258783980,-0.488098,-0.34668,0.582764,0.549438
1480535258796016,-0.488159,-0.34668,0.582764,0.549438
1480535258818571,-0.488159,-0.34668,0.582764,0.549438
1480535258838125,-0.488159,-0.34668,0.582764,0.549438
1480535258857174,-0.488159,-0.34668,0.582764,0.549438
1480535258873719,-0.488464,-0.346802,0.582581,0.549255
1480535258910817,-0.488464,-0.346802,0.582581,0.549255
1480535258918338,-0.488586,-0.34668,0.58252,0.549377
1480535258947415,-0.488647,-0.346436,0.582458,0.549438
1480535258956444,-0.488647,-0.346436,0.582458,0.549438
1480535258987521,-0.488708,-0.346436,0.582458,0.549438
1480535258994039,-0.488708,-0.346436,0.582458,0.549438
1480535259016599,-0.488708,-0.346436,0.582458,0.549438
1480535259037654,-0.488708,-0.346436,0.582458,0.549438
1480535259060716,-0.488708,-0.346436,0.582458,0.549377
1480535259084279,-0.48877,-0.346436,0.582458,0.549377
1480535259103329,-0.48877,-0.346436,0.582458,0.549377
1480535259113858,-0.48877,-0.346436,0.582458,0.549377
1480535259148951,-0.48877,-0.346436,0.582458,0.549377
1480535259163491,-0.48877,-0.346436,0.582458,0.549377
1480535259181538,-0.48877,-0.346436,0.582458,0.549377
1480535259218636,-0.48877,-0.346375,0.582458,0.549377
1480535259221143,-0.48877,-0.346375,0.582458,0.549377
1480535259238689,-0.48877,-0.346375,0.582458,0.549377
1480535259256236,-0.488831,-0.346375,0.58252,0.549316
1480535259283308,-0.488892,-0.346619,0.582458,0.549194
1480535259305869,-0.488892,-0.346619,0.582458,0.549194
1480535259316397,-0.48877,-0.346313,0.58252,0.549316
1480535259346983,-0.488647,-0.346008,0.582703,0.5495
1480535259374049,-0.488525,-0.345886,0.582764,0.549622
1480535259385079,-0.488525,-0.345886,0.582764,0.549622
1480535259430199,-0.488525,-0.345886,0.582764,0.549622
1480535259435212,-0.488586,-0.345886,0.582764,0.549561
1480535259441228,-0.488586,-0.345886,0.582764,0.549561
1480535259463289,-0.488586,-0.345886,0.582703,0.549561
1480535259478327,-0.488586,-0.345886,0.582703,0.549561
1480535259496876,-0.488831,-0.345825,0.582581,0.549561
1480535259524951,-0.488831,-0.345825,0.582581,0.549561
1480535259539991,-0.488831,-0.345825,0.582642,0.549561
1480535259556535,-0.488831,-0.345825,0.582642,0.549561
1480535259578092,-0.488831,-0.345825,0.582642,0.549561
1480535259599148,-0.488831,-0.345764,0.582642,0.549561
1480535259615692,-0.488831,-0.345764,0.582642,0.549561
1480535259652289,-0.488831,-0.345764,0.582642,0.549561
1480535259659316,-0.488831,-0.345764,0.582642,0.5495
1480535259690892,-0.488892,-0.345764,0.582642,0.5495
1480535259697911,-0.488831,-0.345764,0.582642,0.5495
1480535259726487,-0.488831,-0.345703,0.582703,0.5495
1480535259745538,-0.488831,-0.345764,0.582642,0.5495
1480535259758572,-0.488892,-0.345764,0.582642,0.5495
1480535259779127,-0.488892,-0.345764,0.582642,0.5495
1480535259795673,-0.488892,-0.345703,0.582642,0.5495
1480535259818231,-0.488892,-0.345764,0.582642,0.5495
1480535259839788,-0.488892,-0.345764,0.582642,0.5495
1480535259862852,-0.488892,-0.345764,0.582642,0.5495
1480535259877890,-0.488892,-0.345764,0.582642,0.5495
1480535259898945,-0.488892,-0.345764,0.582642,0.5495
1480535259921506,-0.488953,-0.345703,0.582642,0.549438
1480535259938051,-0.488953,-0.345703,0.582703,0.549438
1480535259959105,-0.488953,-0.345703,0.582642,0.549438
1480535259984674,-0.488892,-0.345703,0.582642,0.549438
1480535260013751,-0.488953,-0.345459,0.582764,0.5495
1480535260019265,-0.488953,-0.345459,0.582764,0.5495
1480535260035810,-0.488953,-0.345398,0.582825,0.5495
1480535260057869,-0.488953,-0.345398,0.582825,0.5495
1480535260080430,-0.488953,-0.345398,0.582825,0.5495
1480535260095470,-0.488953,-0.345398,0.582825,0.5495
1480535260119031,-0.488953,-0.345398,0.582825,0.5495
1480535260141592,-0.488892,-0.345398,0.582825,0.5495
1480535260162147,-0.488953,-0.345398,0.582825,0.5495
1480535260178189,-0.488953,-0.345398,0.582825,0.5495
1480535260218295,-0.488953,-0.345398,0.582825,0.5495
1480535260222314,-0.488953,-0.345398,0.582825,0.5495
1480535260253389,-0.488953,-0.345398,0.582764,0.5495
1480535260262415,-0.488953,-0.345398,0.582825,0.5495
1480535260299511,-0.488953,-0.345398,0.582825,0.5495
1480535260304027,-0.488953,-0.345398,0.582825,0.5495
1480535260328087,-0.488953,-0.345398,0.582825,0.5495
1480535260335106,-0.488953,-0.345398,0.582825,0.5495
1480535260358167,-0.488953,-0.345398,0.582825,0.5495
1480535260380728,-0.488953,-0.345398,0.582825,0.5495
1480535260394765,-0.488953,-0.345398,0.582825,0.5495
1480535260418327,-0.488953,-0.345398,0.582825,0.5495
1480535260448909,-0.488953,-0.345398,0.582825,0.5495
1480535260454924,-0.488953,-0.345337,0.582825,0.5495
1480535260491521,-0.488953,-0.345337,0.582886,0.5495
1480535260500546,-0.488953,-0.345337,0.582825,0.5495
1480535260515084,-0.488953,-0.345337,0.582825,0.5495
1480535260538147,-0.488953,-0.345337,0.582825,0.5495
1480535260561710,-0.488953,-0.345337,0.582825,0.5495
1480535260581762,-0.488953,-0.345398,0.582825,0.5495
1480535260607330,-0.488953,-0.345398,0.582825,0.5495
1480535260620867,-0.488953,-0.345337,0.582825,0.5495
1480535260641421,-0.488953,-0.345337,0.582886,0.5495
1480535260657964,-0.488892,-0.345337,0.582886,0.5495
1480535260681026,-0.488892,-0.345337,0.582825,0.5495
1480535260702082,-0.488953,-0.345398,0.582825,0.5495
1480535260724140,-0.488953,-0.345337,0.582825,0.5495
1480535260740685,-0.488953,-0.345337,0.582825,0.5495
1480535260761239,-0.488953,-0.345398,0.582825,0.5495
1480535260778284,-0.488953,-0.345398,0.582825,0.5495
1480535260800844,-0.488953,-0.345398,0.582825,0.5495
1480535260829424,-0.489075,-0.34552,0.582703,0.549438
1480535260851479,-0.489075,-0.34552,0.582703,0.549438
1480535260861005,-0.489075,-0.345581,0.582703,0.549438
1480535260883566,-0.489075,-0.345581,0.582703,0.549438
1480535260898103,-0.489075,-0.34552,0.582703,0.549438
1480535260920663,-0.489075,-0.345581,0.582703,0.549438
1480535260941721,-0.489075,-0.345581,0.582703,0.549438
1480535260959768,-0.489075,-0.345581,0.582703,0.549438
1480535260980824,-0.489075,-0.345581,0.582703,0.549438
1480535261010402,-0.489075,-0.345581,0.582703,0.549438
1480535261018424,-0.489014,-0.345581,0.582703,0.549438
1480535261040482,-0.489075,-0.345581,0.582703,0.549438
1480535261071064,-0.489075,-0.345581,0.582703,0.549438
1480535261077584,-0.489075,-0.345581,0.582642,0.549438
1480535261108163,-0.489075,-0.345581,0.582642,0.549438
1480535261123703,-0.489075,-0.345642,0.582642,0.549438
1480535261138242,-0.489136,-0.345642,0.582642,0.549377
1480535261162309,-0.489075,-0.345642,0.582642,0.549377
1480535261182864,-0.489075,-0.345642,0.582642,0.549438
1480535261197399,-0.489136,-0.345642,0.582642,0.549377
1480535261221464,-0.489075,-0.345642,0.582642,0.549377
1480535261258061,-0.489075,-0.345642,0.582642,0.549377
1480535261260568,-0.489136,-0.345642,0.582642,0.549377
1480535261280621,-0.489136,-0.345642,0.582642,0.549377
1480535261303182,-0.489136,-0.345642,0.582642,0.549377
1480535261317218,-0.489136,-0.345642,0.582642,0.549377
1480535261349373,-0.489136,-0.345642,0.582642,0.549377
1480535261364344,-0.489197,-0.345642,0.582581,0.549377
1480535261386402,-0.489197,-0.345703,0.582581,0.549377
1480535261400440,-0.489197,-0.345703,0.582581,0.549377
1480535261447064,-0.489197,-0.345642,0.582581,0.549316
1480535261451575,-0.489197,-0.345642,0.582581,0.549316
1480535261460600,-0.489197,-0.345642,0.582581,0.549316
1480535261483160,-0.489197,-0.345642,0.582581,0.549316
1480535261497199,-0.489197,-0.345642,0.582581,0.549316
1480535261529285,-0.489197,-0.345642,0.582581,0.549316
1480535261566882,-0.489197,-0.345642,0.582581,0.549316
1480535261571896,-0.489197,-0.345642,0.582581,0.549316
1480535261580919,-0.489197,-0.345642,0.582581,0.549316
1480535261602978,-0.489197,-0.345642,0.582581,0.549316
1480535261624035,-0.489258,-0.345642,0.582581,0.549316
1480535261641079,-0.489258,-0.345703,0.582581,0.549316
1480535261664643,-0.489258,-0.345703,0.582581,0.549316
1480535261684194,-0.489258,-0.345642,0.582581,0.549316
1480535261700739,-0.489258,-0.345703,0.582581,0.549316
1480535261723299,-0.489319,-0.345703,0.582581,0.549255
1480535261744355,-0.489319,-0.345642,0.582581,0.549255
1480535261760899,-0.489319,-0.345642,0.582581,0.549255
1480535261796496,-0.489319,-0.345703,0.582581,0.549255
1480535261808024,-0.489319,-0.345703,0.58252,0.549255
1480535261835598,-0.489319,-0.345703,0.58252,0.549255
1480535261843117,-0.489319,-0.345703,0.58252,0.549255
1480535261864173,-0.48938,-0.345703,0.58252,0.549255
1480535261880717,-0.48938,-0.345703,0.58252,0.549194
1480535261903278,-0.48938,-0.345703,0.582581,0.549194
1480535261924333,-0.48938,-0.345703,0.582581,0.549194
1480535261940376,-0.48938,-0.345703,0.58252,0.549194
1480535261962942,-0.48938,-0.345703,0.58252,0.549194
1480535261984994,-0.489441,-0.345703,0.58252,0.549194
1480535262000536,-0.489441,-0.345703,0.58252,0.549194
1480535262024099,-0.489441,-0.345703,0.58252,0.549194
1480535262045677,-0.489441,-0.345703,0.58252,0.549133
1480535262060696,-0.489502,-0.345703,0.58252,0.549133
1480535262083256,-0.489502,-0.345703,0.58252,0.549133
1480535262121357,-0.489502,-0.345703,0.58252,0.549133
1480535262123362,-0.489502,-0.345703,0.58252,0.549133
1480535262150435,-0.489502,-0.345703,0.58252,0.549133
1480535262165475,-0.489502,-0.345703,0.58252,0.549133
1480535262189539,-0.489563,-0.345703,0.58252,0.549072
1480535262204077,-0.489563,-0.345703,0.58252,0.549072
1480535262225635,-0.489563,-0.345703,0.58252,0.549072
1480535262239672,-0.489563,-0.345703,0.58252,0.549072
1480535262269254,-0.489563,-0.345703,0.58252,0.549072
1480535262285795,-0.489563,-0.345703,0.58252,0.549072
1480535262306536,-0.489563,-0.345703,0.58252,0.549072
1480535262323395,-0.489624,-0.345703,0.58252,0.549072
1480535262362003,-0.489563,-0.345703,0.58252,0.549072
1480535262367512,-0.489563,-0.345703,0.58252,0.549072
1480535262390573,-0.489624,-0.345703,0.582458,0.549072
1480535262406617,-0.489624,-0.345703,0.582458,0.549011
1480535262428174,-0.489624,-0.345703,0.58252,0.549011
1480535262443718,-0.489319,-0.345642,0.582581,0.549255
1480535262466275,-0.488892,-0.345398,0.582825,0.5495
1480535262486829,-0.488586,-0.345337,0.583069,0.549622
1480535262504449,-0.488464,-0.345459,0.583252,0.549438
1480535262526434,-0.48822,-0.345642,0.583374,0.549377
1480535262555512,-0.488037,-0.345764,0.583496,0.549316
1480535262564035,-0.487915,-0.345825,0.583557,0.549316
1480535262593112,-0.487793,-0.345825,0.583618,0.549377
1480535262607149,-0.487793,-0.345825,0.583618,0.549377
1480535262638733,-0.487854,-0.345825,0.583618,0.549377
1480535262645756,-0.487854,-0.345886,0.583557,0.549377
1480535262668313,-0.487854,-0.345886,0.583557,0.549377
1480535262684355,-0.487854,-0.345825,0.583618,0.549377
1480535262711932,-0.487854,-0.345825,0.583618,0.549377
1480535262733987,-0.487854,-0.345825,0.583618,0.549377
1480535262743011,-0.487854,-0.345825,0.583618,0.549377
1480535262765571,-0.487854,-0.345825,0.583618,0.549377
1480535262788131,-0.487427,-0.345764,0.583801,0.549561
1480535262803171,-0.487061,-0.345581,0.584045,0.549744
1480535262833251,-0.486938,-0.345581,0.584167,0.549744
1480535262846286,-0.486877,-0.345825,0.584106,0.549683
1480535262872356,-0.486877,-0.345825,0.584106,0.549683
1480535262885390,-0.486877,-0.345642,0.584167,0.549683
1480535262906451,-0.486938,-0.345581,0.584106,0.549744
1480535262922989,-0.486938,-0.345398,0.584167,0.549866
1480535262946053,-0.486938,-0.345398,0.584167,0.549805
1480535262968110,-0.487061,-0.345581,0.584045,0.549744
1480535262983149,-0.487061,-0.345581,0.584045,0.549744
1480535263011725,-0.487061,-0.34552,0.584045,0.549744
1480535263035289,-0.487061,-0.34552,0.584106,0.549744
1480535263043310,-0.487061,-0.34552,0.584106,0.549744
1480535263065368,-0.487061,-0.34552,0.584045,0.549744
1480535263102468,-0.487122,-0.34552,0.584045,0.549744
1480535263108984,-0.486938,-0.345703,0.584229,0.549561
1480535263149592,-0.487,-0.346008,0.584351,0.549194
1480535263154105,-0.487122,-0.346313,0.584229,0.549011
1480535263162627,-0.487244,-0.346558,0.584167,0.548828
1480535263191704,-0.487244,-0.346558,0.584167,0.548828
1480535263208248,-0.487244,-0.346558,0.584167,0.548828
1480535263222286,-0.487244,-0.346558,0.584167,0.548828
1480535263246851,-0.487488,-0.346619,0.584106,0.548645
1480535263267907,-0.487793,-0.346619,0.584045,0.548462
1480535263290468,-0.487793,-0.346619,0.584045,0.548462
1480535263311523,-0.487976,-0.346558,0.583923,0.548401
1480535263328068,-0.488159,-0.346375,0.583862,0.548462
1480535263351129,-0.488342,-0.346191,0.583862,0.548401
1480535263388728,-0.488342,-0.346191,0.583862,0.548401
1480535263391235,-0.488342,-0.346191,0.583862,0.548401
1480535263425827,-0.488342,-0.346191,0.583862,0.548401
1480535263428337,-0.488342,-0.346191,0.583862,0.548401
1480535263448388,-0.488403,-0.346191,0.583862,0.548401
1480535263471449,-0.488403,-0.34613,0.583862,0.54834
1480535263486990,-0.488403,-0.34613,0.583862,0.548401
1480535263508047,-0.488403,-0.34613,0.583923,0.54834
1480535263529102,-0.488464,-0.34613,0.583923,0.54834
1480535263545648,-0.488403,-0.34613,0.583923,0.54834
1480535263568206,-0.488464,-0.34613,0.583862,0.54834
1480535263589262,-0.488464,-0.34613,0.583862,0.54834
1480535263605305,-0.488464,-0.34613,0.583923,0.548279
1480535263628370,-0.488525,-0.34613,0.583923,0.548279
1480535263665966,-0.488525,-0.34613,0.583923,0.548279
1480535263668473,-0.48877,-0.346191,0.583801,0.548096
1480535263696049,-0.48877,-0.346191,0.583801,0.548096
1480535263709081,-0.48877,-0.346191,0.583801,0.548096
1480535263726126,-0.48877,-0.346191,0.583801,0.548096
1480535263748185,-0.48877,-0.346191,0.583801,0.548096
1480535263769743,-0.488831,-0.346191,0.583801,0.548035
1480535263785785,-0.488831,-0.34613,0.583801,0.548035
1480535263808749,-0.488831,-0.34613,0.583801,0.548035
1480535263828904,-0.488831,-0.34613,0.583801,0.548035
1480535263845445,-0.488831,-0.34613,0.583801,0.548035
1480535263868505,-0.488892,-0.34613,0.583801,0.547974
1480535263907107,-0.488892,-0.34613,0.583801,0.547974
1480535263911623,-0.488892,-0.34613,0.583862,0.547974
1480535263943203,-0.488892,-0.34613,0.583862,0.547974
1480535263959246,-0.488953,-0.34613,0.583801,0.547974
1480535263967267,-0.488953,-0.34613,0.583801,0.547974
1480535263987821,-0.488953,-0.34613,0.583801,0.547913
1480535264025923,-0.489014,-0.34613,0.583801,0.547913
1480535264028434,-0.489136,-0.346008,0.58374,0.547913
1480535264055502,-0.489136,-0.346008,0.58374,0.547974
1480535264071550,-0.489136,-0.345947,0.583801,0.547974
1480535264093103,-0.489136,-0.345947,0.583801,0.547974
1480535264108644,-0.489136,-0.345947,0.583801,0.547913
1480535264130203,-0.489136,-0.345947,0.583801,0.547913
1480535264146243,-0.489136,-0.345947,0.583801,0.547913
1480535264174319,-0.489136,-0.345947,0.583801,0.547913
1480535264190360,-0.489197,-0.345947,0.583801,0.547913
1480535264218936,-0.489197,-0.345947,0.583801,0.547913
1480535264227961,-0.489197,-0.345947,0.583801,0.547852
1480535264250520,-0.489258,-0.345947,0.58374,0.547852
1480535264265060,-0.489258,-0.345886,0.58374,0.547913
1480535264288622,-0.489319,-0.345642,0.58374,0.547974
1480535264310681,-0.48938,-0.345642,0.583801,0.547974
1480535264325720,-0.48938,-0.345642,0.583801,0.547974
1480535264349283,-0.48938,-0.345581,0.583801,0.547974
1480535264373991,-0.48938,-0.345581,0.583801,0.547913
1480535264400419,-0.48938,-0.345581,0.583801,0.547913
1480535264424484,-0.48938,-0.345581,0.583801,0.547913
1480535264430502,-0.489441,-0.345581,0.583801,0.547913
1480535264461081,-0.489441,-0.345581,0.583801,0.547913
1480535264468099,-0.489441,-0.345581,0.583801,0.547852
1480535264491161,-0.489502,-0.345581,0.583801,0.547852
1480535264519236,-0.489502,-0.345642,0.583801,0.547852
1480535264528763,-0.489502,-0.345642,0.58374,0.547852
1480535264550820,-0.489502,-0.345642,0.58374,0.547852
1480535264579400,-0.489502,-0.345581,0.583801,0.547852
1480535264587918,-0.489502,-0.345581,0.583801,0.547852
1480535264610478,-0.489502,-0.345581,0.583801,0.547852
1480535264631534,-0.489563,-0.345581,0.583801,0.547791
1480535264648078,-0.489563,-0.345581,0.583801,0.547791
1480535264685177,-0.489563,-0.345581,0.583801,0.547791
1480535264701721,-0.489563,-0.345581,0.583801,0.547791
1480535264730798,-0.489563,-0.345581,0.583801,0.547791
1480535264733305,-0.489563,-0.345581,0.583801,0.547791
1480535264766894,-0.489563,-0.345581,0.583801,0.547791
1480535264775918,-0.489441,-0.345703,0.58374,0.547913
1480535264798478,-0.489319,-0.345825,0.583618,0.548035
1480535264813518,-0.489197,-0.345947,0.583496,0.548157
1480535264834073,-0.488892,-0.345947,0.583557,0.548401
1480535264850617,-0.488708,-0.345947,0.583496,0.548645
1480535264873177,-0.488586,-0.345947,0.583496,0.548767
1480535264894234,-0.488464,-0.345886,0.583496,0.548889
1480535264910778,-0.488464,-0.345886,0.583496,0.548889
1480535264935343,-0.488525,-0.345886,0.583496,0.548889
1480535264954894,-0.488525,-0.345947,0.583435,0.548828
1480535264978459,-0.488708,-0.345703,0.583435,0.548828
1480535264992995,-0.48877,-0.345459,0.583374,0.549011
1480535265007535,-0.48877,-0.345459,0.583435,0.549011
1480535265031097,-0.48877,-0.345459,0.583374,0.549011
1480535265053155,-0.48877,-0.345459,0.583435,0.549011
1480535265074713,-0.48877,-0.345398,0.583435,0.549011
1480535265090755,-0.488708,-0.345398,0.583435,0.549011
1480535265120836,-0.488708,-0.345398,0.583435,0.549011
1480535265135375,-0.48877,-0.345398,0.583435,0.549011
1480535265150417,-0.48877,-0.345398,0.583435,0.549011
1480535265172974,-0.48877,-0.345398,0.583435,0.549011
1480535265194031,-0.48877,-0.345459,0.583374,0.549011
1480535265212079,-0.48877,-0.345459,0.583374,0.549011
1480535265233636,-0.488831,-0.345459,0.583374,0.54895
1480535265247172,-0.488831,-0.345459,0.583374,0.54895
1480535265270736,-0.488831,-0.345459,0.583374,0.549011
1480535265293295,-0.48877,-0.345459,0.583374,0.549011
1480535265307332,-0.48877,-0.345459,0.583374,0.549011
1480535265331397,-0.488831,-0.345459,0.583374,0.54895
1480535265353454,-0.488831,-0.345459,0.583374,0.54895
1480535265374010,-0.488831,-0.34552,0.583374,0.54895
1480535265390553,-0.488831,-0.345459,0.583374,0.54895
1480535265413113,-0.488831,-0.34552,0.583374,0.54895
1480535265434169,-0.488831,-0.34552,0.583374,0.54895
1480535265450714,-0.488831,-0.34552,0.583313,0.54895
1480535265473273,-0.488892,-0.34552,0.583313,0.54895
1480535265494332,-0.488892,-0.34552,0.583313,0.54895
1480535265510873,-0.488892,-0.34552,0.583313,0.54895
1480535265532932,-0.488892,-0.34552,0.583313,0.54895
1480535265554489,-0.488892,-0.345581,0.583313,0.54895
1480535265570533,-0.488892,-0.345581,0.583313,0.54895
1480535265593593,-0.488892,-0.34552,0.583313,0.54895
1480535265614148,-0.488892,-0.345581,0.583313,0.54895
1480535265630693,-0.488892,-0.345581,0.583252,0.54895
1480535265653252,-0.488892,-0.345581,0.583252,0.548889
1480535265673806,-0.488953,-0.345581,0.583252,0.548889
1480535265692858,-0.488953,-0.345581,0.583252,0.548889
1480535265729455,-0.489075,-0.345703,0.583191,0.548767
1480535265733966,-0.489075,-0.345703,0.583191,0.548767
1480535265759033,-0.489075,-0.345703,0.583191,0.548767
1480535265773096,-0.489136,-0.345703,0.583191,0.548767
1480535265795631,-0.489136,-0.345764,0.583191,0.548767
1480535265810671,-0.489136,-0.345764,0.583191,0.548706
1480535265833230,-0.489136,-0.345764,0.583191,0.548706
1480535265856292,-0.489197,-0.345764,0.58313,0.548706
1480535265870832,-0.489136,-0.345764,0.58313,0.548706
1480535265894394,-0.489197,-0.345764,0.58313,0.548706
1480535265921465,-0.489197,-0.345764,0.58313,0.548706
1480535265931492,-0.489197,-0.345764,0.58313,0.548706
1480535265961070,-0.489197,-0.345764,0.58313,0.548706
1480535265975610,-0.489197,-0.345764,0.58313,0.548706
1480535265990148,-0.489197,-0.345764,0.58313,0.548645
1480535266013210,-0.489197,-0.345764,0.58313,0.548645
1480535266041786,-0.489197,-0.345764,0.58313,0.548645
1480535266049808,-0.489258,-0.345764,0.58313,0.548645
1480535266073369,-0.489258,-0.345825,0.58313,0.548645
1480535266095930,-0.489258,-0.345825,0.58313,0.548645
1480535266109968,-0.489258,-0.345764,0.58313,0.548645
1480535266133530,-0.489258,-0.345764,0.58313,0.548645
1480535266161604,-0.489319,-0.345764,0.58313,0.548584
1480535266170127,-0.489319,-0.345764,0.58313,0.548584
1480535266202212,-0.489319,-0.345764,0.58313,0.548584
1480535266216250,-0.489319,-0.345764,0.58313,0.548584
1480535266230289,-0.489319,-0.345764,0.58313,0.548584
1480535266252847,-0.489319,-0.345764,0.58313,0.548584
1480535266281425,-0.48938,-0.345764,0.58313,0.548584
1480535266289946,-0.489319,-0.345581,0.583191,0.548645
1480535266320527,-0.489319,-0.345398,0.583252,0.548706
1480535266343589,-0.48938,-0.345398,0.583252,0.548706
1480535266364144,-0.48938,-0.345398,0.583252,0.548706
1480535266373669,-0.48938,-0.345398,0.583191,0.548706
1480535266396229,-0.48938,-0.345398,0.583191,0.548645
1480535266416783,-0.48938,-0.345398,0.583191,0.548645
1480535266432825,-0.489441,-0.345459,0.583191,0.548645
1480535266470927,-0.489441,-0.345398,0.583191,0.548645
1480535266477945,-0.489441,-0.345398,0.583191,0.548645
1480535266517050,-0.489441,-0.345398,0.583191,0.548645
1480535266522063,-0.489441,-0.345398,0.583191,0.548584
1480535266536602,-0.489441,-0.345398,0.583191,0.548584
1480535266562170,-0.489441,-0.345398,0.583252,0.548584
1480535266576208,-0.489441,-0.345398,0.583252,0.548584
1480535266596763,-0.489502,-0.345398,0.583252,0.548584
1480535266620324,-0.489502,-0.345337,0.583252,0.548584
1480535266636368,-0.489502,-0.345337,0.583252,0.548584
1480535266657924,-0.489502,-0.345337,0.583252,0.548523
1480535266680489,-0.489563,-0.345337,0.583252,0.548523
1480535266695525,-0.489563,-0.345337,0.583252,0.548523
1480535266716580,-0.489563,-0.345337,0.583252,0.548523
1480535266733124,-0.489563,-0.345337,0.583252,0.548523
1480535266756185,-0.489563,-0.345337,0.583252,0.548523
1480535266779248,-0.489563,-0.345337,0.583252,0.548523
1480535266799301,-0.489563,-0.345337,0.583252,0.548523
1480535266823865,-0.489563,-0.345337,0.583252,0.548523
1480535266837903,-0.489624,-0.345337,0.583252,0.548523
1480535266853445,-0.489624,-0.345337,0.583252,0.548462
1480535266875503,-0.489624,-0.345337,0.583252,0.548462
1480535266900070,-0.489624,-0.345337,0.583191,0.548462
1480535266912603,-0.489685,-0.345398,0.583191,0.548462
1480535266935663,-0.489868,-0.345154,0.583252,0.548401
1480535266960229,-0.489868,-0.345093,0.583252,0.548401
1480535266972260,-0.489868,-0.345093,0.583252,0.548401
1480535266995322,-0.489868,-0.345093,0.583252,0.548401
1480535267017882,-0.489868,-0.345093,0.583252,0.54834
1480535267032422,-0.489868,-0.345093,0.583313,0.54834
1480535267063504,-0.489868,-0.345093,0.583313,0.54834
1480535267079045,-0.489868,-0.345093,0.583313,0.54834
1480535267108124,-0.489868,-0.345093,0.583313,0.54834
1480535267115645,-0.489868,-0.345093,0.583313,0.54834
1480535267153242,-0.489868,-0.345032,0.583313,0.54834
1480535267155247,-0.489868,-0.345032,0.583313,0.54834
1480535267188836,-0.489868,-0.345032,0.583313,0.54834
1480535267197861,-0.489929,-0.345032,0.583313,0.54834
1480535267212401,-0.489929,-0.345032,0.583313,0.54834
1480535267235461,-0.489868,-0.345032,0.583313,0.54834
1480535267259525,-0.489868,-0.345032,0.583313,0.54834
1480535267279078,-0.489929,-0.345032,0.583313,0.54834
1480535267296124,-0.489929,-0.345032,0.583313,0.548279
1480535267318180,-0.489929,-0.345032,0.583313,0.548279
1480535267346758,-0.489929,-0.345032,0.583313,0.548279
1480535267355279,-0.489929,-0.345032,0.583313,0.548279
1480535267377839,-0.48999,-0.345032,0.583313,0.548279
1480535267398897,-0.489929,-0.345032,0.583313,0.548279
1480535267416443,-0.489929,-0.345032,0.583313,0.548279
1480535267438501,-0.489929,-0.345032,0.583313,0.548279
1480535267460560,-0.48999,-0.345032,0.583313,0.548279
1480535267477103,-0.48999,-0.345032,0.583313,0.548279
1480535267512197,-0.489746,-0.345093,0.583313,0.548401
1480535267519215,-0.489746,-0.345032,0.583313,0.548462
1480535267535759,-0.489746,-0.345032,0.583313,0.548401
1480535267558320,-0.489624,-0.344971,0.583435,0.548523
1480535267578875,-0.489502,-0.344788,0.583557,0.548584
1480535267595420,-0.489441,-0.344604,0.583679,0.548645
1480535267626000,-0.489441,-0.344666,0.583679,0.548584
1480535267639035,-0.489624,-0.344604,0.583679,0.548462
1480535267661601,-0.489929,-0.344482,0.58374,0.548218
1480535267678149,-0.490417,-0.34436,0.583618,0.547974
1480535267699202,-0.490662,-0.344421,0.583496,0.547852
1480535267715745,-0.490906,-0.34436,0.583313,0.547852
1480535267738305,-0.491089,-0.344238,0.583191,0.547913
1480535267766881,-0.49115,-0.344116,0.583191,0.547974
1480535267784429,-0.49115,-0.344055,0.583191,0.547974
1480535267797967,-0.491089,-0.344055,0.583191,0.547974
1480535267820523,-0.491089,-0.344055,0.583191,0.548035
1480535267835563,-0.490845,-0.343872,0.583435,0.548035
1480535267858124,-0.490723,-0.34375,0.583618,0.548035
1480535267886699,-0.490723,-0.34375,0.583618,0.548035
1480535267895222,-0.490784,-0.34375,0.583618,0.548035
1480535267920289,-0.490784,-0.34375,0.583618,0.547974
1480535267941345,-0.490784,-0.34375,0.583618,0.548035
1480535267954881,-0.490784,-0.343811,0.583618,0.548035
1480535267977942,-0.490784,-0.343811,0.583618,0.548035
1480535268001505,-0.490784,-0.343811,0.583618,0.548035
1480535268015043,-0.490784,-0.343811,0.583618,0.548035
1480535268038102,-0.490784,-0.343811,0.583618,0.548035
1480535268061169,-0.490784,-0.34375,0.583618,0.548035
1480535268081734,-0.490784,-0.34375,0.583618,0.548035
1480535268104278,-0.490784,-0.34375,0.583618,0.548035
1480535268127841,-0.490784,-0.343811,0.583618,0.548035
1480535268148399,-0.490845,-0.343811,0.583618,0.547974
1480535268164943,-0.490845,-0.343811,0.583618,0.547974
1480535268188502,-0.490845,-0.343811,0.583618,0.547974
1480535268201537,-0.490845,-0.343811,0.583557,0.547974
1480535268219585,-0.490845,-0.343811,0.583557,0.547974
1480535268240641,-0.490845,-0.343811,0.583618,0.547974
1480535268261698,-0.490845,-0.34375,0.583618,0.547974
1480535268278242,-0.490845,-0.34375,0.583618,0.547974
1480535268306817,-0.490967,-0.343933,0.583557,0.547791
1480535268338400,-0.491089,-0.344116,0.583496,0.547668
1480535268345421,-0.491089,-0.344177,0.583496,0.547607
1480535268368481,-0.491089,-0.344177,0.583496,0.547607
1480535268383521,-0.491089,-0.344177,0.583496,0.547607
1480535268406081,-0.49115,-0.344177,0.583496,0.547607
1480535268422625,-0.491333,-0.344177,0.583435,0.547485
1480535268441676,-0.491333,-0.344177,0.583435,0.547485
1480535268464237,-0.491333,-0.344238,0.583435,0.547485
1480535268480279,-0.491333,-0.344238,0.583435,0.547485
1480535268501334,-0.491333,-0.344177,0.583435,0.547424
1480535268518380,-0.491333,-0.344177,0.583435,0.547424
1480535268540439,-0.491333,-0.344177,0.583435,0.547424
1480535268562501,-0.491394,-0.344238,0.583374,0.547424
1480535268578540,-0.491394,-0.344238,0.583374,0.547424
1480535268600598,-0.491394,-0.344238,0.583374,0.547424
1480535268621654,-0.491455,-0.344238,0.583374,0.547424
1480535268638199,-0.491455,-0.344238,0.583374,0.547363
1480535268660759,-0.491455,-0.344238,0.583374,0.547363
1480535268683825,-0.491455,-0.344238,0.583374,0.547363
1480535268698359,-0.491516,-0.344238,0.583374,0.547363
1480535268720919,-0.491516,-0.344238,0.583374,0.547363
1480535268742977,-0.491516,-0.344238,0.583374,0.547302
1480535268758017,-0.491516,-0.344238,0.583374,0.547302
1480535268780579,-0.491516,-0.344299,0.583313,0.547302
1480535268803639,-0.491577,-0.344238,0.583374,0.547302
1480535268824193,-0.491577,-0.344299,0.583313,0.547302
1480535268843244,-0.491577,-0.344238,0.583313,0.547302
1480535268863298,-0.491516,-0.344177,0.583374,0.547424
1480535268877334,-0.491394,-0.343872,0.583435,0.547607
1480535268901402,-0.491394,-0.343811,0.583374,0.547668
1480535268939500,-0.491455,-0.343811,0.583374,0.547668
1480535268944012,-0.491455,-0.343811,0.583374,0.547668
1480535268968076,-0.491455,-0.343811,0.583374,0.547668
1480535268983118,-0.491455,-0.343872,0.583313,0.547668
1480535269004171,-0.491333,-0.343689,0.583313,0.547852
1480535269020716,-0.491333,-0.343689,0.583313,0.547852
1480535269043013,-0.491333,-0.343689,0.583313,0.547852
1480535269057313,-0.491333,-0.343689,0.583313,0.547852
1480535269087894,-0.491394,-0.34375,0.583313,0.547852
1480535269103436,-0.491394,-0.34375,0.583313,0.547852
1480535269131513,-0.491394,-0.34375,0.583313,0.547852
1480535269140534,-0.491394,-0.34375,0.583313,0.547791
1480535269178636,-0.491455,-0.34375,0.583313,0.547791
1480535269184655,-0.491455,-0.34375,0.583313,0.547791
1480535269201196,-0.491455,-0.34375,0.583313,0.547791
1480535269222754,-0.491455,-0.34375,0.583313,0.547791
1480535269246320,-0.491455,-0.34375,0.583252,0.547791
1480535269260353,-0.491455,-0.34375,0.583313,0.547791
1480535269282914,-0.491455,-0.34375,0.583313,0.547791
1480535269303971,-0.491455,-0.34375,0.583313,0.547791
1480535269321015,-0.491455,-0.34375,0.583252,0.547791
1480535269343073,-0.491455,-0.34375,0.583252,0.547791
1480535269373154,-0.491455,-0.34375,0.583252,0.547791
1480535269380676,-0.491455,-0.34375,0.583252,0.547791
1480535269419276,-0.491455,-0.343811,0.583252,0.547791
1480535269438829,-0.491455,-0.343811,0.583252,0.547791
1480535269456876,-0.491516,-0.343811,0.583252,0.547791
1480535269463394,-0.491455,-0.34375,0.583252,0.547791
1480535269492972,-0.491455,-0.343811,0.583252,0.547791
1480535269500492,-0.491455,-0.343811,0.583252,0.547791
1480535269523052,-0.491516,-0.343811,0.583252,0.547791
1480535269544109,-0.491394,-0.343689,0.583313,0.547852
1480535269574188,-0.491333,-0.343384,0.583435,0.547974
1480535269583212,-0.491333,-0.343384,0.583435,0.547974
1480535269607276,-0.491333,-0.343384,0.583435,0.547974
1480535269620311,-0.491394,-0.343384,0.583435,0.547974
1480535269650391,-0.491394,-0.343384,0.583435,0.547974
1480535269679971,-0.491394,-0.343384,0.583374,0.547974
1480535269694007,-0.491394,-0.343445,0.583374,0.547913
1480535269733612,-0.491394,-0.343445,0.583374,0.547913
1480535269736119,-0.491394,-0.343445,0.583374,0.547913
1480535269742136,-0.491394,-0.343445,0.583374,0.547913
1480535269770712,-0.491394,-0.343445,0.583374,0.547913
1480535269791766,-0.491455,-0.343445,0.583374,0.547913
1480535269799788,-0.491394,-0.343445,0.583374,0.547913
1480535269828865,-0.491394,-0.343445,0.583374,0.547913
1480535269851425,-0.491394,-0.343445,0.583374,0.547913
1480535269859948,-0.491394,-0.343445,0.583374,0.547913
1480535269883010,-0.491394,-0.343445,0.583374,0.547913
1480535269906074,-0.491394,-0.343445,0.583374,0.547913
1480535269929633,-0.491394,-0.343445,0.583374,0.547913
1480535269950188,-0.491455,-0.343445,0.583374,0.547913
1480535269971746,-0.491455,-0.343445,0.583374,0.547913
1480535269979767,-0.491455,-0.343445,0.583374,0.547913
1480535270010851,-0.491455,-0.343445,0.583374,0.547913
1480535270042433,-0.491455,-0.343445,0.583313,0.547913
1480535270046444,-0.491455,-0.343445,0.583313,0.547913
1480535270062988,-0.491455,-0.343506,0.583313,0.547913
1480535270086050,-0.491455,-0.343506,0.583313,0.547913
1480535270106604,-0.491455,-0.343506,0.583313,0.547913
1480535270129170,-0.491455,-0.343506,0.583313,0.547913
1480535270145206,-0.491455,-0.343506,0.583313,0.547913
1480535270166764,-0.491455,-0.343506,0.583313,0.547913
1480535270183809,-0.491455,-0.343506,0.583313,0.547913
1480535270205368,-0.491455,-0.343506,0.583313,0.547913
1480535270227927,-0.491455,-0.343506,0.583313,0.547913
1480535270243972,-0.491455,-0.343506,0.583313,0.547913
1480535270289591,-0.491455,-0.343506,0.583313,0.547913
1480535270294107,-0.491455,-0.343506,0.583313,0.547913
1480535270304130,-0.491516,-0.343506,0.583313,0.547913
1480535270325687,-0.491516,-0.343506,0.583313,0.547913
1480535270347746,-0.491455,-0.343506,0.583313,0.547913
1480535270362785,-0.491516,-0.343567,0.583313,0.547913
1480535270385847,-0.491516,-0.343506,0.583313,0.547852
1480535270408407,-0.491516,-0.343567,0.583252,0.547913
1480535270422946,-0.491516,-0.343567,0.583252,0.547913
1480535270445506,-0.491516,-0.343567,0.583252,0.547852
1480535270466060,-0.491516,-0.343567,0.583252,0.547852
1480535270483106,-0.491516,-0.343506,0.583313,0.547852
1480535270529229,-0.491516,-0.343567,0.583252,0.547852
1480535270566327,-0.491516,-0.343567,0.583252,0.547852
1480535270568332,-0.491577,-0.343567,0.583252,0.547852
1480535270573847,-0.491577,-0.343506,0.583252,0.547852
1480535270595404,-0.491577,-0.343506,0.583252,0.547852
1480535270602924,-0.491577,-0.343567,0.583252,0.547852
1480535270640525,-0.491577,-0.343567,0.583252,0.547791
1480535270649047,-0.491577,-0.343567,0.583252,0.547791
1480535270663084,-0.491577,-0.343567,0.583252,0.547791
1480535270685644,-0.491577,-0.343567,0.583252,0.547791
1480535270708204,-0.491638,-0.343567,0.583252,0.547791
1480535270722743,-0.491638,-0.343567,0.583252,0.547791
1480535270758839,-0.491638,-0.343567,0.583252,0.547791
1480535270767863,-0.491638,-0.343567,0.583252,0.547791
1480535270798946,-0.491638,-0.343567,0.583252,0.547791
1480535270805463,-0.491638,-0.343567,0.583252,0.547791
1480535270835041,-0.491638,-0.343567,0.583252,0.547791
1480535270845069,-0.491638,-0.343567,0.583252,0.547791
1480535270865623,-0.491638,-0.343567,0.583252,0.547729
1480535270890189,-0.491699,-0.343567,0.583252,0.547729
1480535270903224,-0.491699,-0.343567,0.583252,0.547729
1480535270925281,-0.491699,-0.343567,0.583252,0.547729
1480535270947841,-0.491699,-0.343567,0.583191,0.547729
1480535270962381,-0.49176,-0.343628,0.583191,0.547729
1480535270992964,-0.491821,-0.343323,0.583252,0.547791
1480535271008395,-0.491821,-0.343262,0.583252,0.547791
1480535271046103,-0.491821,-0.343262,0.583252,0.547729
1480535271049613,-0.491821,-0.343262,0.583252,0.547729
1480535271068663,-0.491882,-0.343262,0.583252,0.547729
1480535271089217,-0.491882,-0.343262,0.583252,0.547729
1480535271106264,-0.491882,-0.343323,0.583252,0.547729
1480535271127821,-0.491882,-0.343323,0.583252,0.547729
1480535271148877,-0.491882,-0.343323,0.583252,0.547729
1480535271165420,-0.491943,-0.343323,0.583252,0.547729
1480535271187981,-0.491943,-0.343262,0.583252,0.547668
1480535271209038,-0.491943,-0.343323,0.583252,0.547668
1480535271225581,-0.491943,-0.343323,0.583252,0.547668
1480535271248141,-0.491943,-0.343323,0.583252,0.547668
1480535271279224,-0.491943,-0.343323,0.583252,0.547668
1480535271285741,-0.492004,-0.343323,0.583191,0.547668
1480535271307799,-0.492004,-0.343323,0.583191,0.547668
1480535271328855,-0.492004,-0.343323,0.583191,0.547607
1480535271345399,-0.492004,-0.343323,0.583191,0.547607
1480535271367959,-0.492004,-0.343323,0.583191,0.547607
1480535271389015,-0.492065,-0.343323,0.583191,0.547607
1480535271405559,-0.492065,-0.343323,0.583191,0.547607
1480535271429122,-0.492065,-0.343323,0.583191,0.547607
1480535271457196,-0.492004,-0.343323,0.583191,0.547607
1480535271468728,-0.492065,-0.343323,0.583191,0.547607
1480535271487778,-0.492065,-0.343323,0.583191,0.547607
1480535271519362,-0.492065,-0.343323,0.583191,0.547607
1480535271525378,-0.492065,-0.343323,0.583191,0.547607
1480535271548941,-0.492065,-0.343384,0.583191,0.547607
1480535271571501,-0.492371,-0.343567,0.582947,0.547424
1480535271594562,-0.492615,-0.343628,0.582764,0.547363
1480535271614115,-0.492798,-0.343628,0.582581,0.547424
1480535271630658,-0.492981,-0.343567,0.582397,0.547485
1480535271651714,-0.493164,-0.343567,0.582214,0.547485
1480535271668259,-0.493164,-0.343567,0.582214,0.547485
1480535271690317,-0.493164,-0.343506,0.582275,0.547546
1480535271704857,-0.493103,-0.343506,0.582214,0.547546
1480535271735437,-0.493042,-0.343445,0.582275,0.547607
1480535271750979,-0.49292,-0.343201,0.582397,0.547729
1480535271796599,-0.492798,-0.34314,0.582397,0.547913
1480535271800610,-0.492798,-0.34314,0.582397,0.547913
1480535271835202,-0.492798,-0.34314,0.582397,0.547852
1480535271839212,-0.492859,-0.343201,0.582397,0.547852
1480535271849240,-0.492859,-0.343201,0.582397,0.547852
1480535271870297,-0.492859,-0.343201,0.582336,0.547852
1480535271891352,-0.492859,-0.343201,0.582336,0.547852
1480535271907896,-0.492859,-0.343201,0.582336,0.547852
1480535271937977,-0.492859,-0.343201,0.582397,0.547852
1480535271944995,-0.492859,-0.343201,0.582397,0.547852
1480535271968056,-0.492798,-0.343201,0.582336,0.547913
1480535271990615,-0.492798,-0.343201,0.582336,0.547913
1480535272013178,-0.492737,-0.343201,0.582336,0.548035
1480535272027714,-0.492737,-0.343384,0.582153,0.548096
1480535272057794,-0.492798,-0.343811,0.581726,0.548218
1480535272074339,-0.492432,-0.34491,0.580933,0.548645
1480535272101410,-0.491699,-0.345886,0.580444,0.549255
1480535272116952,-0.490845,-0.346313,0.580444,0.549744
1480535272139010,-0.48999,-0.346252,0.580566,0.550354
1480535272148537,-0.489624,-0.346008,0.58075,0.550659
1480535272170595,-0.489746,-0.345825,0.580872,0.550537
1480535272193154,-0.489807,-0.345764,0.580933,0.550476
1480535272208194,-0.48999,-0.346008,0.580811,0.550293
1480535272230756,-0.490051,-0.346069,0.580811,0.550293
1480535272251812,-0.48999,-0.346008,0.580627,0.550476
1480535272268355,-0.489868,-0.345825,0.580566,0.550781
1480535272297933,-0.489685,-0.345581,0.580566,0.551086
1480535272311469,-0.489685,-0.345581,0.580566,0.551086
1480535272334029,-0.489685,-0.345581,0.580566,0.551086
1480535272350573,-0.489746,-0.34552,0.580566,0.551086
1480535272379149,-0.489441,-0.34552,0.580688,0.551208
1480535272388173,-0.489197,-0.34552,0.58075,0.551392
1480535272410738,-0.489014,-0.345642,0.580688,0.551514
1480535272431796,-0.488953,-0.345764,0.580566,0.551636
1480535272447831,-0.48877,-0.34552,0.580627,0.55188
1480535272470894,-0.488831,-0.345276,0.580627,0.552002
1480535272493956,-0.488831,-0.345276,0.580627,0.552002
1480535272507991,-0.488831,-0.345276,0.580566,0.552002
1480535272530553,-0.488831,-0.345337,0.580566,0.552002
1480535272553111,-0.488831,-0.345337,0.580566,0.552002
1480535272568653,-0.489014,-0.345459,0.580566,0.551758
1480535272590712,-0.489319,-0.345642,0.580383,0.551514
1480535272612770,-0.489563,-0.345764,0.580383,0.551331
1480535272633826,-0.489563,-0.345764,0.580383,0.55127
1480535272657890,-0.489563,-0.345764,0.580383,0.55127
1480535272673631,-0.489746,-0.345886,0.580261,0.551208
1480535272695491,-0.489746,-0.345886,0.580261,0.551208
1480535272710533,-0.489746,-0.345886,0.580261,0.551208
1480535272742115,-0.489746,-0.345886,0.580261,0.551208
1480535272747127,-0.489746,-0.345886,0.580261,0.551208
1480535272778211,-0.489746,-0.345886,0.5802,0.551208
1480535272793254,-0.489746,-0.345886,0.580261,0.551208
1480535272807288,-0.489929,-0.345947,0.5802,0.551025
1480535272830349,-0.489929,-0.346008,0.5802,0.551025
1480535272852909,-0.489929,-0.346008,0.5802,0.551025
1480535272867449,-0.489929,-0.345947,0.5802,0.551025
1480535272904046,-0.489929,-0.345947,0.5802,0.550964
1480535272913069,-0.48999,-0.345947,0.5802,0.550964
1480535272941647,-0.48999,-0.345947,0.5802,0.550964
1480535272950670,-0.48999,-0.346008,0.5802,0.550964
1480535272980248,-0.48999,-0.346008,0.5802,0.550964
1480535272993788,-0.48999,-0.346008,0.5802,0.550964
1480535273010331,-0.490051,-0.346008,0.5802,0.550964
1480535273033891,-0.490051,-0.346008,0.5802,0.550903
1480535273061464,-0.490051,-0.346008,0.5802,0.550903
1480535273070490,-0.490051,-0.345947,0.5802,0.550964
1480535273101069,-0.490051,-0.346008,0.580139,0.550903
1480535273114106,-0.490112,-0.346008,0.580139,0.550903
1480535273138169,-0.490234,-0.345764,0.5802,0.550903
1480535273183789,-0.490234,-0.345764,0.5802,0.550842
1480535273185796,-0.490234,-0.345764,0.5802,0.550842
1480535273192814,-0.490295,-0.345764,0.5802,0.550842
1480535273213869,-0.490295,-0.345764,0.5802,0.550842
1480535273234925,-0.490295,-0.345764,0.5802,0.550781
1480535273250467,-0.490295,-0.345764,0.5802,0.550842
1480535273279042,-0.490295,-0.345764,0.5802,0.550781
1480535273295089,-0.490356,-0.345764,0.5802,0.550781
1480535273310632,-0.490356,-0.345764,0.5802,0.550781
1480535273334690,-0.490356,-0.345764,0.5802,0.550781
1480535273354244,-0.490356,-0.345764,0.5802,0.550781
1480535273370286,-0.490356,-0.345703,0.5802,0.55072
1480535273394851,-0.490356,-0.345703,0.5802,0.55072
1480535273415407,-0.490417,-0.345703,0.5802,0.55072
1480535273437967,-0.490417,-0.345703,0.5802,0.55072
1480535273461026,-0.490479,-0.345703,0.5802,0.55072
1480535273476571,-0.490479,-0.345703,0.5802,0.550659
1480535273490606,-0.490479,-0.345703,0.5802,0.550659
1480535273513166,-0.490479,-0.345764,0.5802,0.550659
1480535273536227,-0.49054,-0.345764,0.5802,0.550659
1480535273559793,-0.49054,-0.345764,0.5802,0.550598
1480535273580344,-0.49054,-0.345703,0.5802,0.550598
1480535273595384,-0.49054,-0.345764,0.5802,0.550598
1480535273616440,-0.490601,-0.345764,0.5802,0.550598
1480535273632984,-0.490601,-0.345703,0.5802,0.550598
1480535273656046,-0.490601,-0.345703,0.5802,0.550598
1480535273677104,-0.490662,-0.345703,0.5802,0.550537
1480535273693147,-0.490662,-0.345703,0.5802,0.550537
1480535273716707,-0.490662,-0.345703,0.5802,0.550537
1480535273722221,-0.490723,-0.345703,0.5802,0.550476
1480535273739997,-0.490723,-0.345764,0.5802,0.550476
1480535273758318,-0.490723,-0.345764,0.580139,0.550476
1480535273780878,-0.490845,-0.345581,0.580139,0.550476
1480535273797422,-0.490845,-0.345581,0.580139,0.550476
1480535273818477,-0.490906,-0.345581,0.5802,0.550476
1480535273842542,-0.490906,-0.345581,0.5802,0.550476
1480535273859085,-0.490906,-0.34552,0.5802,0.550415
1480535273894699,-0.490906,-0.34552,0.5802,0.550415
1480535273900696,-0.490906,-0.34552,0.5802,0.550415
1480535273932280,-0.490906,-0.345581,0.5802,0.550415
1480535273938297,-0.490967,-0.345581,0.580139,0.550415
1480535273972888,-0.490967,-0.345581,0.580139,0.550415
1480535273983416,-0.490967,-0.345581,0.580139,0.550354
1480535273998457,-0.491028,-0.345581,0.580139,0.550354
1480535274021016,-0.491028,-0.345581,0.580139,0.550354
1480535274039341,-0.491028,-0.345581,0.580139,0.550354
1480535274058617,-0.491028,-0.345581,0.580139,0.550354
1480535274081176,-0.491089,-0.345581,0.580139,0.550354
1480535274098723,-0.491089,-0.345581,0.580139,0.550293
1480535274118275,-0.491089,-0.345581,0.580139,0.550293
1480535274140836,-0.49115,-0.345581,0.580139,0.550293
1480535274174926,-0.49115,-0.345581,0.580139,0.550293
1480535274179939,-0.491089,-0.345459,0.5802,0.550293
1480535274210022,-0.491089,-0.345459,0.5802,0.550293
1480535274232078,-0.49115,-0.345459,0.5802,0.550293
1480535274238095,-0.491089,-0.345459,0.5802,0.550293
1480535274261155,-0.491089,-0.345459,0.5802,0.550293
1480535274295246,-0.49115,-0.345459,0.5802,0.550293
1480535274300762,-0.49115,-0.345459,0.5802,0.550293
1480535274320813,-0.490967,-0.345459,0.580139,0.550476
1480535274343376,-0.490845,-0.345398,0.580139,0.550598
1480535274365935,-0.490845,-0.345398,0.580139,0.550598
1480535274388493,-0.490906,-0.345398,0.580139,0.550598
1480535274415064,-0.490906,-0.345398,0.580139,0.550598
1480535274426096,-0.490906,-0.345398,0.580139,0.550598
1480535274452163,-0.490784,-0.345154,0.5802,0.55072
1480535274463192,-0.490845,-0.345154,0.5802,0.55072
1480535274488761,-0.490723,-0.345154,0.5802,0.550842
1480535274500793,-0.490723,-0.345154,0.5802,0.550903
1480535274523352,-0.490723,-0.345154,0.5802,0.550903
1480535274538392,-0.490723,-0.345154,0.5802,0.550842
1480535274571481,-0.490723,-0.345154,0.5802,0.550842
1480535274593041,-0.490723,-0.345154,0.5802,0.550842
1480535274598553,-0.490723,-0.345154,0.5802,0.550842
1480535274620611,-0.490784,-0.345154,0.580139,0.550842
1480535274644174,-0.490784,-0.345154,0.580139,0.550842
1480535274658211,-0.490784,-0.345154,0.580139,0.550842
1480535274691802,-0.490784,-0.345154,0.580139,0.550842
1480535274703333,-0.490784,-0.345154,0.580139,0.550842
1480535274728899,-0.490784,-0.345154,0.580139,0.550781
1480535274740931,-0.490845,-0.345154,0.580139,0.550781
1480535274764995,-0.490784,-0.345154,0.580139,0.550781
1480535274781038,-0.490784,-0.345154,0.580139,0.550781
1480535274801091,-0.490845,-0.345154,0.580139,0.550781
1480535274823651,-0.490845,-0.345154,0.580139,0.550781
1480535274845710,-0.490845,-0.345154,0.580139,0.550781
1480535274860750,-0.490906,-0.345154,0.580139,0.55072
1480535274884313,-0.490906,-0.345154,0.580139,0.55072
1480535274905870,-0.490906,-0.345154,0.580139,0.55072
1480535274922414,-0.490906,-0.345154,0.580139,0.55072
1480535274968036,-0.490906,-0.345154,0.580139,0.55072
1480535274970542,-0.490906,-0.345154,0.580139,0.55072
1480535274981070,-0.490906,-0.345154,0.580139,0.55072
1480535275003630,-0.490906,-0.345154,0.580139,0.55072
1480535275019672,-0.490967,-0.345154,0.580139,0.55072
1480535275040730,-0.490967,-0.345154,0.580139,0.55072
1480535275063288,-0.490967,-0.345215,0.580078,0.550659
1480535275081337,-0.490967,-0.345215,0.580078,0.550659
1480535275100889,-0.490967,-0.344971,0.5802,0.55072
1480535275126457,-0.491028,-0.34491,0.5802,0.55072
1480535275154531,-0.491028,-0.34491,0.5802,0.55072
1480535275161049,-0.491272,-0.344971,0.580078,0.550537
1480535275183608,-0.491577,-0.345093,0.579956,0.550354
1480535275202159,-0.491638,-0.345093,0.579895,0.550354
1480535275228227,-0.49176,-0.34491,0.579834,0.550354
1480535275244771,-0.492065,-0.344727,0.579834,0.550293
1480535275261817,-0.49231,-0.344421,0.579895,0.550171
1480535275283876,-0.492615,-0.344421,0.579834,0.549988
1480535275303428,-0.492859,-0.344482,0.579712,0.549866
1480535275321977,-0.492859,-0.344482,0.579651,0.549866
1480535275357070,-0.49292,-0.34436,0.579651,0.549988
1480535275371109,-0.49292,-0.344299,0.579651,0.549988
1480535275382143,-0.49292,-0.344299,0.579651,0.549988
1480535275402190,-0.49292,-0.344299,0.579651,0.549988
1480535275423246,-0.49292,-0.344299,0.579651,0.549927
1480535275441295,-0.49292,-0.344299,0.579651,0.549927
1480535275464356,-0.49292,-0.344299,0.579651,0.549927
1480535275483406,-0.492981,-0.344299,0.579651,0.549927
1480535275505967,-0.492981,-0.344299,0.579651,0.549927
1480535275528526,-0.492981,-0.344299,0.579651,0.549927
1480535275547076,-0.492981,-0.344299,0.579651,0.549927
1480535275562116,-0.492981,-0.344238,0.579712,0.549927
1480535275580665,-0.492981,-0.344238,0.579712,0.549927
1480535275603226,-0.492981,-0.344238,0.579712,0.549927
1480535275625787,-0.492981,-0.344238,0.579712,0.549927
1480535275640825,-0.492981,-0.344238,0.579712,0.549927
1480535275666894,-0.493042,-0.344238,0.579651,0.549866
1480535275685945,-0.493042,-0.344238,0.579712,0.549866
1480535275708506,-0.493042,-0.344238,0.579712,0.549866
1480535275723545,-0.493042,-0.344299,0.579651,0.549866
1480535275746106,-0.493225,-0.344055,0.579651,0.549866
1480535275763652,-0.493347,-0.343811,0.57959,0.549927
1480535275792229,-0.493347,-0.343811,0.57959,0.549927
1480535275806394,-0.493347,-0.343811,0.57959,0.549927
1480535275837349,-0.493347,-0.343811,0.57959,0.549927
1480535275843366,-0.493347,-0.343811,0.57959,0.549927
1480535275865925,-0.493347,-0.343811,0.57959,0.549927
1480535275882468,-0.493347,-0.343811,0.57959,0.549927
1480535275903524,-0.493347,-0.343811,0.57959,0.549927
1480535275934105,-0.493347,-0.343811,0.579651,0.549927
1480535275942127,-0.493347,-0.343811,0.579651,0.549927
1480535275964686,-0.493347,-0.343811,0.579651,0.549927
1480535275995267,-0.493347,-0.343811,0.57959,0.549927
1480535276008304,-0.493408,-0.343811,0.57959,0.549927
1480535276023343,-0.493408,-0.343811,0.57959,0.549866
1480535276045903,-0.493408,-0.343811,0.57959,0.549866
1480535276062446,-0.493408,-0.343811,0.57959,0.549866
1480535276085006,-0.493408,-0.343811,0.57959,0.549866
1480535276106159,-0.493408,-0.343811,0.57959,0.549866
1480535276122105,-0.493408,-0.343811,0.57959,0.549866
1480535276160207,-0.493408,-0.343811,0.57959,0.549866
1480535276174244,-0.493408,-0.343811,0.57959,0.549866
1480535276182266,-0.493408,-0.343811,0.57959,0.549866
1480535276203322,-0.493408,-0.343811,0.57959,0.549866
1480535276233401,-0.493225,-0.343933,0.579529,0.550049
1480535276243929,-0.492981,-0.343994,0.579468,0.550293
1480535276266490,-0.492798,-0.344055,0.579468,0.550415
1480535276287545,-0.492615,-0.344055,0.579468,0.550598
1480535276304592,-0.492371,-0.344116,0.579529,0.55072
1480535276331161,-0.492371,-0.344116,0.579529,0.55072
1480535276353220,-0.492371,-0.344116,0.579529,0.55072
1480535276369765,-0.492432,-0.344116,0.579529,0.55072
1480535276390820,-0.492432,-0.344116,0.579529,0.55072
1480535276413882,-0.492432,-0.344116,0.579468,0.55072
1480535276431428,-0.492432,-0.344177,0.579468,0.55072
1480535276443462,-0.492493,-0.343933,0.579407,0.550842
1480535276473541,-0.492493,-0.343628,0.579346,0.551025
1480535276488580,-0.492493,-0.343628,0.579346,0.551147
1480535276503621,-0.492493,-0.343628,0.579346,0.551147
1480535276526681,-0.492493,-0.343628,0.579346,0.551147
1480535276548239,-0.492493,-0.343567,0.579346,0.551147
1480535276563279,-0.492432,-0.343567,0.579346,0.551208
1480535276585838,-0.492493,-0.343628,0.579346,0.551147
1480535276618425,-0.492493,-0.343628,0.579285,0.551147
1480535276623438,-0.492493,-0.343628,0.579285,0.551147
1480535276645999,-0.492493,-0.343628,0.579285,0.551147
1480535276664548,-0.492493,-0.343628,0.579285,0.551147
1480535276684602,-0.492493,-0.343628,0.579285,0.551147
1480535276706158,-0.492493,-0.343628,0.579285,0.551147
1480535276728217,-0.492493,-0.343628,0.579285,0.551147
1480535276744761,-0.492493,-0.343628,0.579285,0.551147
1480535276773509,-0.492493,-0.343628,0.579285,0.551147
1480535276784366,-0.492493,-0.343628,0.579285,0.551147
1480535276810937,-0.492493,-0.343689,0.579285,0.551147
1480535276825978,-0.492493,-0.343689,0.579224,0.551147
1480535276848537,-0.492493,-0.343689,0.579224,0.551147
1480535276866085,-0.492554,-0.343689,0.579224,0.551147
1480535276896165,-0.492615,-0.343811,0.579163,0.551086
1480535276904687,-0.492615,-0.343811,0.579163,0.551086
1480535276925242,-0.492615,-0.343811,0.579163,0.551025
1480535276945798,-0.492615,-0.343811,0.579163,0.551025
1480535276968357,-0.492615,-0.343811,0.579224,0.551086
1480535276984900,-0.492615,-0.343811,0.579224,0.551086
1480535277005956,-0.492554,-0.343811,0.579224,0.551086
1480535277024506,-0.492615,-0.343811,0.579224,0.551086
1480535277044559,-0.492615,-0.34375,0.579224,0.551086
1480535277065615,-0.492615,-0.343811,0.579224,0.551086
1480535277099705,-0.492615,-0.343811,0.579224,0.551086
1480535277105220,-0.492798,-0.343811,0.579224,0.550842
1480535277126778,-0.493469,-0.344055,0.579041,0.550293
1480535277148335,-0.493774,-0.344116,0.578979,0.550049
1480535277164879,-0.493835,-0.343994,0.578918,0.55011
1480535277193455,-0.493896,-0.343628,0.578918,0.550293
1480535277210500,-0.494019,-0.34314,0.578918,0.550537
1480535277226543,-0.494507,-0.342896,0.578796,0.550293
1480535277264144,-0.495422,-0.343018,0.578491,0.549744
1480535277268153,-0.496094,-0.343079,0.578308,0.549316
1480535277286703,-0.49646,-0.342834,0.578247,0.549194
1480535277305794,-0.497253,-0.34259,0.578125,0.548767
1480535277328313,-0.497192,-0.341675,0.578796,0.548706
1480535277346362,-0.496948,-0.340332,0.579712,0.548767
1480535277365914,-0.496338,-0.338501,0.580872,0.549194
1480535277395994,-0.496277,-0.337463,0.581421,0.549316
1480535277412538,-0.496948,-0.336975,0.581726,0.548767
1480535277426076,-0.497253,-0.336426,0.582275,0.548157
1480535277448133,-0.497192,-0.335693,0.582947,0.547974
1480535277470694,-0.496582,-0.334534,0.583801,0.548279
1480535277494756,-0.49585,-0.33313,0.584595,0.549011
1480535277508293,-0.495239,-0.332153,0.584961,0.549744
1480535277530853,-0.495422,-0.331909,0.585022,0.549683
1480535277547396,-0.496216,-0.332153,0.584717,0.549072
1480535277568452,-0.496887,-0.33252,0.584412,0.548645
1480535277586500,-0.497314,-0.332642,0.58429,0.548279
1480535277615077,-0.497314,-0.332642,0.58429,0.548279
1480535277635631,-0.497314,-0.332642,0.58429,0.548279
1480535277646160,-0.497253,-0.332947,0.584167,0.548279
1480535277665711,-0.497192,-0.333496,0.583801,0.548401
1480535277705316,-0.497192,-0.333923,0.583374,0.548645
1480535277707823,-0.497437,-0.334351,0.582825,0.548706
1480535277725871,-0.497986,-0.335022,0.582153,0.548523
1480535277748431,-0.498169,-0.335693,0.581726,0.548401
1480535277770992,-0.497803,-0.335999,0.581604,0.548645
1480535277788037,-0.497009,-0.335815,0.581848,0.549255
1480535277808090,-0.49646,-0.335388,0.581909,0.549927
1480535277831152,-0.496582,-0.335205,0.581726,0.550049
1480535277854713,-0.497253,-0.336121,0.580994,0.549744
1480535277900836,-0.498047,-0.337708,0.579895,0.549194
1480535277904347,-0.498047,-0.338501,0.579468,0.549194
1480535277913370,-0.497498,-0.338318,0.579346,0.549927
1480535277935930,-0.496643,-0.337708,0.57959,0.55072
1480535277947461,-0.496155,-0.337769,0.579712,0.551025
1480535277975034,-0.496094,-0.338318,0.579529,0.550964
1480535277996090,-0.495789,-0.338623,0.579407,0.551208
1480535278007119,-0.494934,-0.33844,0.579346,0.552063
1480535278028677,-0.494324,-0.337891,0.579651,0.552734
1480535278050736,-0.494324,-0.337646,0.579651,0.552856
1480535278066277,-0.494263,-0.337708,0.579346,0.553162
1480535278094853,-0.494507,-0.337952,0.579102,0.553101
1480535278108389,-0.494934,-0.338196,0.578735,0.552917
1480535278126439,-0.494812,-0.338074,0.578674,0.553162
1480535278147493,-0.494385,-0.337769,0.578796,0.553589
1480535278177573,-0.49408,-0.33728,0.579163,0.553772
1480535278186095,-0.493835,-0.337036,0.579346,0.554016
1480535278213167,-0.493835,-0.336975,0.579346,0.553955
1480535278228207,-0.493835,-0.33728,0.579346,0.553833
1480535278246255,-0.493774,-0.33783,0.579224,0.55365
1480535278268817,-0.493164,-0.338257,0.579651,0.553467
1480535278288368,-0.491882,-0.338074,0.580627,0.553711
1480535278306415,-0.490234,-0.336792,0.581909,0.554565
1480535278338502,-0.489014,-0.335571,0.583008,0.555298
1480535278348527,-0.488525,-0.335449,0.583496,0.555237
1480535278366074,-0.488281,-0.335571,0.583801,0.555054
1480535278388634,-0.488098,-0.335693,0.584045,0.554871
1480535278409694,-0.487854,-0.335571,0.584412,0.554871
1480535278426234,-0.487793,-0.335449,0.584595,0.554749
1480535278462831,-0.488098,-0.33551,0.584717,0.554382
1480535278484890,-0.488403,-0.335815,0.584839,0.553772
1480535278490907,-0.488403,-0.335693,0.585083,0.553528
1480535278516474,-0.488403,-0.335388,0.585266,0.553528
1480535278530010,-0.488708,-0.335083,0.585388,0.553345
1480535278561093,-0.489319,-0.335205,0.585266,0.552856
1480535278568613,-0.48999,-0.335571,0.585144,0.552185
1480535278595686,-0.49054,-0.335632,0.585388,0.551392
1480535278612230,-0.490723,-0.335266,0.58606,0.55072
1480535278636294,-0.490723,-0.334717,0.586792,0.550232
1480535278648324,-0.49054,-0.334412,0.587402,0.549988
1480535278689435,-0.490723,-0.334229,0.587952,0.549316
1480535278693444,-0.491089,-0.33429,0.588562,0.54834
1480535278733051,-0.491455,-0.334961,0.588989,0.547119
1480535278735055,-0.491333,-0.335388,0.5896,0.546326
1480535278757114,-0.491211,-0.335144,0.590332,0.545776
1480535278771152,-0.491089,-0.3349,0.59082,0.545471
1480535278801232,-0.49115,-0.334961,0.591125,0.545105
1480535278808755,-0.491516,-0.335205,0.591309,0.544434
1480535278835824,-0.491821,-0.335632,0.591553,0.54364
1480535278850875,-0.492065,-0.335938,0.591736,0.542969
1480535278881445,-0.492126,-0.33606,0.592102,0.54248
1480535278889968,-0.49231,-0.336304,0.592285,0.541931
1480535278913530,-0.492615,-0.336548,0.592468,0.541321
1480535278928570,-0.49292,-0.336914,0.59259,0.54071
1480535278955643,-0.493164,-0.33728,0.592651,0.540161
1480535278970683,-0.493469,-0.337708,0.59259,0.539734
1480535279001264,-0.493896,-0.338196,0.592346,0.539307
1480535279011290,-0.494324,-0.338562,0.592102,0.538879
1480535279041875,-0.49469,-0.338806,0.592041,0.538513
1480535279048891,-0.494629,-0.338806,0.592041,0.538513
1480535279070448,-0.494385,-0.338684,0.592163,0.538696
1480535279091007,-0.494019,-0.338379,0.592407,0.53894
1480535279113563,-0.494019,-0.338318,0.592468,0.53894
1480535279132117,-0.493958,-0.338501,0.592651,0.538696
1480535279162693,-0.493958,-0.338745,0.592896,0.538269
1480535279168709,-0.493896,-0.338928,0.59314,0.537964
1480535279204806,-0.493774,-0.338989,0.593445,0.537659
1480535279210821,-0.493652,-0.339172,0.59375,0.537354
1480535279234885,-0.493591,-0.339294,0.594055,0.536987
1480535279251429,-0.493713,-0.339417,0.594177,0.536621
1480535279270982,-0.493896,-0.3396,0.594116,0.536377
1480535279288528,-0.493896,-0.339417,0.594177,0.536499
1480535279311088,-0.493835,-0.338806,0.594238,0.536804
1480535279338161,-0.493835,-0.338257,0.594177,0.537231
1480535279363728,-0.493896,-0.337952,0.594055,0.537537
1480535279371251,-0.493896,-0.337769,0.593872,0.537781
1480535279408348,-0.493958,-0.337585,0.59375,0.538025
1480535279410854,-0.493835,-0.337463,0.593689,0.53833
1480535279444443,-0.493713,-0.337402,0.593628,0.538574
1480535279450960,-0.493347,-0.33728,0.593689,0.538879
1480535279473520,-0.492798,-0.337036,0.593811,0.539368
1480535279491067,-0.492126,-0.336792,0.593994,0.539978
1480535279510619,-0.491638,-0.336609,0.594116,0.540283
1480535279528667,-0.491394,-0.336609,0.594238,0.540466
1480535279558749,-0.49115,-0.336548,0.59436,0.540588
1480535279571790,-0.49115,-0.336548,0.59436,0.540588
1480535279588826,-0.491211,-0.336609,0.594299,0.540527
1480535279611387,-0.491333,-0.336365,0.594238,0.540588
1480535279641467,-0.491577,-0.336121,0.594116,0.54071
1480535279648987,-0.49176,-0.335815,0.593933,0.540894
1480535279684080,-0.492065,-0.335571,0.593689,0.541077
1480535279722683,-0.492371,-0.335327,0.593445,0.54126
1480535279725192,-0.492493,-0.335083,0.593323,0.541443
1480535279731707,-0.492493,-0.3349,0.593262,0.541565
1480535279752762,-0.492493,-0.334839,0.593262,0.541626
1480535279768805,-0.492493,-0.334839,0.593323,0.541565
1480535279791365,-0.49231,-0.334717,0.593506,0.541504
1480535279819941,-0.492065,-0.334717,0.593811,0.541443
1480535279831472,-0.491943,-0.334839,0.593994,0.541321
1480535279864059,-0.49176,-0.335144,0.594055,0.541199
1480535279872349,-0.491699,-0.335266,0.594238,0.541077
1480535279900656,-0.491699,-0.335266,0.594238,0.541077
1480535279918704,-0.491699,-0.335266,0.594238,0.541016
1480535279962821,-0.491577,-0.33551,0.594299,0.540955
1480535279965328,-0.491333,-0.335632,0.594421,0.540894
1480535280000421,-0.491089,-0.335632,0.594604,0.540894
1480535280003931,-0.491028,-0.335632,0.594849,0.540771
1480535280008947,-0.491028,-0.335815,0.594971,0.540466
1480535280031505,-0.491028,-0.335876,0.595093,0.540283
1480535280067098,-0.49115,-0.335571,0.595276,0.5401
1480535280073616,-0.491272,-0.335327,0.59552,0.539917
1480535280112721,-0.491272,-0.335327,0.595581,0.539917
1480535280115227,-0.491272,-0.335327,0.595581,0.539917
1480535280133274,-0.491455,-0.33551,0.595459,0.539734
1480535280151322,-0.491577,-0.335632,0.595459,0.539551
1480535280197445,-0.491577,-0.335815,0.595459,0.539429
1480535280202459,-0.491638,-0.335754,0.595642,0.539246
1480535280234043,-0.491638,-0.335693,0.595642,0.539246
1480535280238556,-0.491699,-0.335754,0.595642,0.539124
1480535280270642,-0.491943,-0.335999,0.595764,0.538635
1480535280275657,-0.492065,-0.336304,0.595947,0.538208
1480535280299718,-0.491821,-0.336304,0.596191,0.538086
1480535280313253,-0.491516,-0.336121,0.596558,0.538086
1480535280343334,-0.491211,-0.335938,0.596924,0.538086
1480535280358376,-0.49115,-0.335999,0.597107,0.537903
1480535280382940,-0.491089,-0.336243,0.597229,0.537659
1480535280391462,-0.490967,-0.336487,0.597351,0.537537
1480535280421542,-0.490784,-0.336609,0.597473,0.537415
1480535280433574,-0.490601,-0.336792,0.597534,0.537354
1480535280473179,-0.49054,-0.336975,0.597595,0.537292
1480535280478193,-0.490479,-0.337097,0.597717,0.53717
1480535280517798,-0.490479,-0.337097,0.597717,0.53717
1480535280519302,-0.490479,-0.337097,0.597717,0.53717
1480535280555899,-0.490479,-0.337097,0.597656,0.53717
1480535280558408,-0.49054,-0.337097,0.597656,0.537109
1480535280571441,-0.49054,-0.337158,0.597656,0.537109
1480535280592998,-0.49054,-0.337158,0.597656,0.537109
1480535280614054,-0.49054,-0.337158,0.597656,0.537109
1480535280630597,-0.490662,-0.337036,0.597534,0.537231
1480535280654161,-0.490723,-0.336853,0.597412,0.537354
1480535280674214,-0.490906,-0.336792,0.59729,0.537415
1480535280696272,-0.491028,-0.336731,0.597046,0.537598
1480535280712816,-0.491028,-0.336487,0.596985,0.537842
1480535280750918,-0.491028,-0.335999,0.596924,0.538208
1480535280753424,-0.491028,-0.335571,0.596863,0.538513
1480535280797542,-0.491089,-0.33551,0.59668,0.538635
1480535280817094,-0.491455,-0.335693,0.596313,0.538635
1480535280834140,-0.492004,-0.335938,0.595886,0.538513
1480535280839156,-0.492432,-0.336121,0.59552,0.538391
1480535280854192,-0.492737,-0.335999,0.595215,0.538513
1480535280876752,-0.492981,-0.335815,0.59491,0.538757
1480535280892795,-0.493225,-0.33551,0.594666,0.539001
1480535280913851,-0.493347,-0.335266,0.594543,0.539185
1480535280932400,-0.493347,-0.335144,0.594421,0.539429
1480535280952955,-0.493225,-0.334961,0.59436,0.539673
1480535280983036,-0.493103,-0.334717,0.59436,0.539917
1480535280991056,-0.493103,-0.334717,0.59436,0.539917
1480535281028155,-0.493042,-0.334717,0.59436,0.539978
1480535281036680,-0.493042,-0.334717,0.59436,0.539978
1480535281064252,-0.493103,-0.334778,0.59436,0.539917
1480535281074278,-0.493103,-0.334778,0.59436,0.539917
1480535281095835,-0.493225,-0.334717,0.594177,0.540039
1480535281110375,-0.493347,-0.334656,0.593994,0.540161
1480535281132934,-0.49353,-0.334534,0.593933,0.5401
1480535281155494,-0.49353,-0.334534,0.593933,0.5401
1480535281169532,-0.493591,-0.334656,0.593628,0.540344
1480535281193093,-0.493713,-0.334534,0.593567,0.540405
1480535281216658,-0.493713,-0.334534,0.593567,0.540405
1480535281229692,-0.493713,-0.334534,0.593567,0.540405
1480535281260272,-0.493713,-0.334534,0.593567,0.540405
1480535281275313,-0.493713,-0.334534,0.593567,0.540405
1480535281305393,-0.493713,-0.334534,0.593567,0.540405
1480535281313414,-0.493774,-0.334534,0.593567,0.540344
1480535281343996,-0.493774,-0.334534,0.593567,0.540344
1480535281351014,-0.493713,-0.33429,0.593567,0.540466
1480535281374577,-0.493835,-0.333923,0.593689,0.540527
1480535281395632,-0.493835,-0.333923,0.593689,0.540527
1480535281410172,-0.493835,-0.333923,0.593689,0.540466
1480535281433233,-0.493835,-0.333923,0.593689,0.540466
1480535281456294,-0.493958,-0.334106,0.593567,0.540405
1480535281491891,-0.49408,-0.334229,0.593506,0.540283
1480535281507931,-0.49408,-0.334229,0.593506,0.540283
1480535281515451,-0.49408,-0.33429,0.593506,0.540283
1480535281546033,-0.49408,-0.33429,0.593506,0.540283
1480535281553051,-0.49408,-0.33429,0.593506,0.540283
1480535281590150,-0.49408,-0.33429,0.593506,0.540283
1480535281604188,-0.49408,-0.33429,0.593506,0.540222
1480535281618726,-0.49408,-0.33429,0.593506,0.540283
1480535281635270,-0.49408,-0.334351,0.593445,0.540222
1480535281656827,-0.494141,-0.334351,0.593445,0.540222
1480535281673376,-0.494141,-0.334351,0.593445,0.540222
1480535281695430,-0.494141,-0.334351,0.593445,0.540222
1480535281716486,-0.494141,-0.334351,0.593445,0.540222
1480535281733030,-0.494324,-0.334473,0.593384,0.540039
1480535281770632,-0.494324,-0.334473,0.593384,0.540039
1480535281784167,-0.494324,-0.334473,0.593384,0.540039
1480535281792689,-0.494324,-0.334473,0.593384,0.540039
1480535281823271,-0.494324,-0.334473,0.593384,0.540039
1480535281853350,-0.494324,-0.334473,0.593384,0.540039
1480535281855857,-0.494385,-0.334473,0.593384,0.540039
1480535281882929,-0.494385,-0.334473,0.593384,0.540039
1480535281896966,-0.494202,-0.334534,0.593323,0.540222
1480535281936069,-0.494202,-0.334534,0.593323,0.540222
1480535281938578,-0.494202,-0.334534,0.593323,0.540161
1480535281965649,-0.494202,-0.334534,0.593323,0.540161
1480535281973671,-0.494263,-0.334778,0.593018,0.540344
1480535281996230,-0.494324,-0.334595,0.592834,0.540527
1480535282017788,-0.494385,-0.334167,0.592896,0.54071
1480535282064411,-0.49408,-0.333801,0.592957,0.541138
1480535282068926,-0.493713,-0.333374,0.593018,0.541687
1480535282091987,-0.493591,-0.333191,0.592957,0.541992
1480535282101009,-0.493652,-0.333313,0.592773,0.542114
1480535282123070,-0.493652,-0.333374,0.592651,0.542114
1480535282138108,-0.493652,-0.333374,0.592651,0.542114
1480535282166684,-0.49353,-0.333252,0.59259,0.542419
1480535282175710,-0.493408,-0.333069,0.59259,0.542603
1480535282205287,-0.493408,-0.333069,0.59259,0.542603
1480535282212305,-0.493408,-0.333069,0.59259,0.542603
1480535282242886,-0.493408,-0.333069,0.59259,0.542603
1480535282257929,-0.493408,-0.333069,0.59259,0.542603
1480535282279985,-0.493408,-0.333069,0.59259,0.542603
1480535282297031,-0.493286,-0.332947,0.59259,0.542786
1480535282341653,-0.493103,-0.332886,0.592651,0.542969
1480535282378747,-0.493103,-0.332886,0.592651,0.542969
1480535282380753,-0.493103,-0.332886,0.592651,0.542969
1480535282386268,-0.493103,-0.332886,0.592651,0.542969
1480535282401308,-0.493103,-0.332886,0.592651,0.542969
1480535282415345,-0.492981,-0.332947,0.59259,0.543091
1480535282439033,-0.492981,-0.332947,0.59259,0.543091
1480535282458962,-0.493042,-0.332947,0.59259,0.543091
1480535282483025,-0.492981,-0.332947,0.59259,0.543091
1480535282498067,-0.492981,-0.332947,0.59259,0.543091
1480535282520625,-0.492981,-0.332947,0.59259,0.543091
1480535282535665,-0.492981,-0.332947,0.59259,0.543091
1480535282572262,-0.492981,-0.332947,0.59259,0.543091
1480535282579281,-0.492981,-0.332947,0.59259,0.543091
1480535282602845,-0.492981,-0.332947,0.59259,0.543091
1480535282619388,-0.492981,-0.332947,0.59259,0.543091
1480535282646459,-0.492798,-0.332764,0.59259,0.543335
1480535282655484,-0.492676,-0.332397,0.592834,0.543457
1480535282679047,-0.492432,-0.332336,0.592896,0.543579
1480535282699101,-0.492249,-0.332458,0.592896,0.543762
1480535282716146,-0.492065,-0.332458,0.593018,0.543762
1480535282738204,-0.491882,-0.332703,0.593018,0.543762
1480535282760263,-0.491699,-0.332947,0.593079,0.543701
1480535282776305,-0.491394,-0.332947,0.593262,0.543823
1480535282798365,-0.491211,-0.332947,0.593262,0.543945
1480535282818919,-0.491089,-0.332886,0.593323,0.544067
1480535282834961,-0.491028,-0.332886,0.593323,0.544067
1480535282858024,-0.491089,-0.332886,0.593323,0.544067
1480535282897126,-0.491089,-0.332886,0.593323,0.544006
1480535282903143,-0.491089,-0.332886,0.593323,0.544067
1480535282919186,-0.490967,-0.332886,0.593262,0.544189
1480535282940241,-0.490784,-0.332825,0.593323,0.544312
1480535282961297,-0.490662,-0.332764,0.593384,0.544434
1480535282977841,-0.490662,-0.332764,0.593384,0.544434
1480535283000401,-0.490662,-0.332764,0.593384,0.544434
1480535283015441,-0.490662,-0.332764,0.593384,0.544434
1480535283046023,-0.490662,-0.332825,0.593323,0.544434
1480535283060561,-0.490662,-0.332825,0.593323,0.544434
1480535283075104,-0.490662,-0.332825,0.593323,0.544434
1480535283098161,-0.490662,-0.332825,0.593323,0.544434
1480535283127740,-0.490662,-0.332825,0.593323,0.544434
1480535283135763,-0.490662,-0.332886,0.593323,0.544434
1480535283165842,-0.490723,-0.332764,0.593201,0.544556
1480535283180381,-0.490662,-0.332764,0.593262,0.544556
1480535283194918,-0.490906,-0.332703,0.59314,0.544495
1480535283217980,-0.49115,-0.332642,0.593018,0.544434
1480535283240039,-0.491394,-0.332764,0.592834,0.544373
1480535283254577,-0.491516,-0.332642,0.592712,0.544434
1480535283278140,-0.491577,-0.332275,0.592712,0.544556
1480535283300198,-0.491699,-0.332031,0.592712,0.544678
1480535283315239,-0.491699,-0.33197,0.592712,0.544678
1480535283338802,-0.491699,-0.33197,0.592712,0.544678
1480535283361865,-0.491699,-0.33197,0.592712,0.544678
1480535283388934,-0.491821,-0.332214,0.592529,0.544617
1480535283406983,-0.491821,-0.332214,0.592529,0.544617
1480535283443580,-0.491882,-0.332153,0.592407,0.5448
1480535283447089,-0.492004,-0.332092,0.592224,0.544861
1480535283458121,-0.492371,-0.332153,0.59198,0.5448
1480535283480177,-0.492798,-0.332336,0.591675,0.544617
1480535283508757,-0.493164,-0.332275,0.591431,0.544617
1480535283517777,-0.49353,-0.332031,0.591248,0.544556
1480535283548359,-0.493896,-0.331909,0.591064,0.544556
1480535283561394,-0.494202,-0.331787,0.59082,0.544617
1480535283577937,-0.494446,-0.331665,0.590637,0.544678
1480535283608019,-0.494629,-0.331665,0.590393,0.544739
1480535283628573,-0.494873,-0.331665,0.59021,0.544739
1480535283644122,-0.495056,-0.331665,0.590149,0.544678
1480535283669180,-0.494995,-0.331604,0.590149,0.544678
1480535283683218,-0.494995,-0.331604,0.59021,0.544678
1480535283703773,-0.495117,-0.331726,0.590088,0.544617
1480535283720818,-0.495422,-0.331848,0.589966,0.544434
1480535283741373,-0.495667,-0.331909,0.589905,0.54425
1480535283757921,-0.495789,-0.33197,0.589783,0.544128
1480535283780978,-0.495911,-0.332153,0.5896,0.544189
1480535283801532,-0.496033,-0.332092,0.589417,0.54425
1480535283818076,-0.496216,-0.332031,0.589294,0.54425
1480535283840636,-0.496521,-0.33197,0.589233,0.544128
1480535283885756,-0.496826,-0.332031,0.589111,0.543884
1480535283888280,-0.497192,-0.332153,0.58905,0.54364
1480535283924362,-0.497375,-0.332092,0.589111,0.543396
1480535283929372,-0.497375,-0.331909,0.589233,0.543396
1480535283952935,-0.497253,-0.331787,0.589233,0.543518
1480535283960455,-0.497131,-0.331726,0.589233,0.543701
1480535283983015,-0.49707,-0.331726,0.589233,0.543762
1480535283997052,-0.497314,-0.331848,0.589172,0.543518
1480535284028135,-0.497559,-0.332031,0.589111,0.543213
1480535284042675,-0.497681,-0.332275,0.58905,0.543091
1480535284065233,-0.49762,-0.332336,0.58905,0.543091
1480535284080274,-0.497498,-0.332031,0.589111,0.543274
1480535284102834,-0.497498,-0.332031,0.589111,0.543335
1480535284119378,-0.49762,-0.332092,0.589111,0.543152
1480535284154972,-0.497864,-0.332397,0.588928,0.542908
1480535284164498,-0.497864,-0.332397,0.588928,0.542908
1480535284185052,-0.497681,-0.332214,0.588989,0.543152
1480535284200594,-0.497681,-0.332214,0.588989,0.543152
1480535284229170,-0.497681,-0.332214,0.588989,0.543152
1480535284244711,-0.497681,-0.332397,0.588989,0.54303
1480535284268275,-0.497681,-0.332397,0.588989,0.54303
1480535284282813,-0.497681,-0.332397,0.588989,0.54303
1480535284311389,-0.497681,-0.332397,0.588989,0.54303
1480535284320412,-0.497681,-0.332397,0.588989,0.54303
1480535284343474,-0.497681,-0.332397,0.588989,0.54303
1480535284364028,-0.497681,-0.332397,0.588989,0.54303
1480535284388093,-0.497681,-0.332397,0.588989,0.543091
1480535284404136,-0.49762,-0.332397,0.588989,0.543091
1480535284431708,-0.49762,-0.332397,0.588989,0.543091
1480535284441235,-0.49762,-0.332397,0.588989,0.543091
1480535284468808,-0.49762,-0.332397,0.588989,0.543091
1480535284484349,-0.49762,-0.332397,0.588989,0.543091
1480535284501895,-0.497559,-0.332397,0.588989,0.543152
1480535284524956,-0.497559,-0.332397,0.588989,0.543152
1480535284544008,-0.497498,-0.332153,0.58905,0.543335
1480535284560551,-0.497437,-0.331909,0.58905,0.543518
1480535284583112,-0.497437,-0.331909,0.58905,0.543518
1480535284604169,-0.497437,-0.331909,0.58905,0.543518
1480535284628231,-0.497437,-0.331909,0.58905,0.543518
1480535284642770,-0.497437,-0.331909,0.58905,0.543518
1480535284682375,-0.497437,-0.331909,0.58905,0.543518
1480535284686386,-0.497375,-0.33197,0.58905,0.543518
1480535284716967,-0.497375,-0.33197,0.58905,0.543579
1480535284723986,-0.497314,-0.331909,0.58905,0.543579
1480535284755570,-0.497314,-0.331909,0.58905,0.543579
1480535284763090,-0.497314,-0.33197,0.58905,0.543579
1480535284785149,-0.497253,-0.33197,0.58905,0.54364
1480535284802696,-0.497253,-0.33197,0.58905,0.54364
1480535284822749,-0.497253,-0.33197,0.58905,0.54364
1480535284846311,-0.497253,-0.33197,0.58905,0.54364
1480535284860850,-0.497253,-0.33197,0.58905,0.54364
1480535284882909,-0.497253,-0.33197,0.58905,0.54364
1480535284905471,-0.497192,-0.33197,0.58905,0.543701
1480535284920509,-0.497192,-0.33197,0.58905,0.543701
1480535284949086,-0.497192,-0.33197,0.58905,0.543701
1480535284982674,-0.497131,-0.33197,0.58905,0.543701
1480535284986685,-0.497131,-0.33197,0.58905,0.543762
1480535285016263,-0.497131,-0.33197,0.58905,0.543762
1480535285025287,-0.497131,-0.33197,0.58905,0.543762
1480535285039826,-0.49707,-0.33197,0.58905,0.543762
1480535285062887,-0.497131,-0.33197,0.58905,0.543762
1480535285101491,-0.497131,-0.332031,0.58905,0.543762
1480535285106503,-0.497131,-0.332031,0.58905,0.543762
1480535285123047,-0.49707,-0.332031,0.58905,0.543762
1480535285146109,-0.49707,-0.332031,0.58905,0.543823
1480535285160648,-0.497009,-0.331726,0.589111,0.543945
1480535285184210,-0.497009,-0.331726,0.589111,0.543945
1480535285213287,-0.496948,-0.331726,0.589111,0.544006
1480535285219805,-0.497009,-0.331848,0.58905,0.543945
1480535285243367,-0.497009,-0.331848,0.588989,0.543945
1480535285265426,-0.497192,-0.331909,0.588928,0.543823
1480535285294002,-0.497192,-0.331909,0.588928,0.543823
1480535285309042,-0.497131,-0.331909,0.588989,0.543823
1480535285333106,-0.497131,-0.331909,0.588989,0.543823
1480535285348147,-0.497131,-0.331909,0.588928,0.543823
1480535285370206,-0.497131,-0.331909,0.588989,0.543884
1480535285385244,-0.49707,-0.331909,0.588989,0.543884
1480535285413821,-0.49707,-0.331909,0.588989,0.543884
1480535285423849,-0.49707,-0.331909,0.588989,0.543884
1480535285452925,-0.49707,-0.331909,0.588989,0.543945
1480535285466962,-0.497009,-0.331909,0.588989,0.543945
1480535285496541,-0.497009,-0.331909,0.588989,0.543945
1480535285505565,-0.497009,-0.33197,0.588989,0.543945
1480535285528125,-0.497009,-0.33197,0.588989,0.543945
1480535285545170,-0.496948,-0.33197,0.588989,0.544006
1480535285582270,-0.496948,-0.331909,0.588989,0.544006
1480535285586781,-0.496887,-0.33197,0.588989,0.544006
1480535285610344,-0.496887,-0.331909,0.588989,0.544006
1480535285625885,-0.496887,-0.331909,0.588989,0.544067
1480535285646439,-0.496826,-0.331909,0.588989,0.544067
1480535285669000,-0.496826,-0.331909,0.588989,0.544067
1480535285701086,-0.496826,-0.33197,0.588989,0.544067
1480535285707101,-0.496765,-0.33197,0.588989,0.544128
1480535285730664,-0.496765,-0.33197,0.588989,0.544128
1480535285745202,-0.496704,-0.331787,0.588989,0.544312
1480535285768265,-0.496643,-0.331482,0.589111,0.544434
1480535285782802,-0.496643,-0.331482,0.589111,0.544434
1480535285812882,-0.496643,-0.331482,0.589111,0.544434
1480535285828925,-0.496582,-0.331482,0.589111,0.544434
1480535285867528,-0.496582,-0.331482,0.589111,0.544434
1480535285871538,-0.496582,-0.331482,0.589111,0.544495
1480535285888082,-0.496521,-0.331482,0.589111,0.544495
1480535285902120,-0.496521,-0.331543,0.589111,0.544495
1480535285932701,-0.496521,-0.331543,0.589111,0.544495
1480535285948248,-0.496521,-0.331543,0.589111,0.544556
1480535285979326,-0.49646,-0.331543,0.589111,0.544556
1480535285985346,-0.49646,-0.331543,0.589111,0.544556
1480535286008405,-0.49646,-0.331543,0.589111,0.544556
1480535286022440,-0.496399,-0.331604,0.589111,0.544617
1480535286046002,-0.496399,-0.331604,0.589111,0.544617
1480535286068061,-0.496399,-0.331604,0.589111,0.544617
1480535286082098,-0.49646,-0.331848,0.588745,0.544739
1480535286106663,-0.496643,-0.332153,0.588318,0.544861
1480535286128722,-0.496887,-0.332336,0.588013,0.544861
1480535286142258,-0.497498,-0.332336,0.587708,0.544617
1480535286165821,-0.497986,-0.332458,0.587341,0.544495
1480535286187879,-0.497925,-0.332642,0.587097,0.544739
1480535286210440,-0.497559,-0.332458,0.587158,0.545105
1480535286225981,-0.497253,-0.332092,0.587341,0.54541
1480535286265587,-0.497192,-0.332092,0.587402,0.54541
1480535286269598,-0.496887,-0.332214,0.587646,0.545288
1480535286286142,-0.496704,-0.332336,0.588013,0.545044
1480535286308701,-0.496338,-0.332581,0.588318,0.544861
1480535286336275,-0.495728,-0.332764,0.588623,0.545044
1480535286345299,-0.495178,-0.332642,0.588867,0.545288
1480535286367859,-0.494934,-0.332458,0.589111,0.54541
1480535286413480,-0.494995,-0.332458,0.589111,0.545349
1480535286416989,-0.494995,-0.332764,0.58905,0.545227
1480535286428520,-0.494934,-0.332825,0.58905,0.545227
1480535286451582,-0.494934,-0.332825,0.58905,0.545227
1480535286465619,-0.494934,-0.332825,0.58905,0.545227
1480535286495699,-0.494934,-0.332947,0.588989,0.545166
1480535286508734,-0.494873,-0.333008,0.588989,0.545227
1480535286533303,-0.494873,-0.333008,0.588989,0.545227
1480535286562376,-0.494873,-0.333008,0.588989,0.545227
1480535286568894,-0.495117,-0.333252,0.588867,0.545044
1480535286585939,-0.495056,-0.333252,0.588867,0.545105
1480535286608000,-0.495178,-0.33313,0.588745,0.545166
1480535286644595,-0.495361,-0.333008,0.588623,0.545227
1480535286659133,-0.495605,-0.332886,0.588501,0.545166
1480535286668157,-0.495667,-0.332825,0.58844,0.545166
1480535286690218,-0.495789,-0.332703,0.58844,0.545227
1480535286705258,-0.495972,-0.332642,0.588318,0.545166
1480535286728317,-0.496216,-0.332642,0.588257,0.545044
1480535286767421,-0.496338,-0.332642,0.588135,0.545044
1480535286770932,-0.49646,-0.332581,0.588013,0.545105
1480535286787475,-0.496643,-0.332458,0.58783,0.545227
1480535286810536,-0.496948,-0.332336,0.587769,0.545044
1480535286825576,-0.497192,-0.332336,0.587646,0.544983
1480535286854152,-0.497131,-0.332336,0.587646,0.545044
1480535286883730,-0.49707,-0.332336,0.587646,0.545044
1480535286901780,-0.49707,-0.332336,0.587646,0.545044
1480535286915320,-0.49707,-0.332336,0.587708,0.545105
1480535286930857,-0.497131,-0.332336,0.587708,0.544983
1480535286945396,-0.497314,-0.332458,0.587646,0.5448
1480535286968456,-0.497375,-0.332581,0.587708,0.544617
1480535286998035,-0.497375,-0.332642,0.587646,0.544617
1480535287011571,-0.497498,-0.332458,0.58783,0.544373
1480535287042654,-0.497803,-0.332336,0.588196,0.543884
1480535287052680,-0.49823,-0.332703,0.587708,0.543823
1480535287065715,-0.499329,-0.333313,0.58667,0.543457
1480535287088779,-0.500854,-0.334106,0.586243,0.542053
1480535287117854,-0.501404,-0.334961,0.58606,0.541199
1480535287124872,-0.501343,-0.335022,0.58606,0.541199
1480535287155955,-0.501038,-0.334656,0.586243,0.541504
1480535287170494,-0.50116,-0.334595,0.586487,0.54126
1480535287208596,-0.501648,-0.334961,0.586487,0.540588
1480535287211101,-0.502075,-0.335571,0.586365,0.539856
1480535287238175,-0.502319,-0.335815,0.586426,0.539429
1480535287251208,-0.502319,-0.335754,0.586487,0.539429
1480535287275272,-0.502502,-0.335571,0.586487,0.539368
1480535287290313,-0.503174,-0.335632,0.586365,0.538757
1480535287320392,-0.504089,-0.335876,0.586304,0.537903
1480535287335433,-0.504883,-0.336121,0.586182,0.537109
1480535287358494,-0.505371,-0.336182,0.586243,0.53656
1480535287371529,-0.50531,-0.335938,0.586731,0.536255
1480535287394088,-0.5047,-0.33551,0.587097,0.536682
1480535287410640,-0.504578,-0.334778,0.587219,0.537109
1480535287449235,-0.505127,-0.334656,0.587158,0.536682
1480535287453747,-0.505676,-0.3349,0.586975,0.536255
1480535287484830,-0.506104,-0.334961,0.586853,0.536011
1480535287491347,-0.506226,-0.334778,0.586853,0.53595
1480535287513907,-0.506226,-0.334778,0.586853,0.53595
1480535287530451,-0.506226,-0.334717,0.587097,0.535706
1480535287551507,-0.506226,-0.334717,0.587341,0.535461
1480535287568052,-0.506165,-0.334778,0.587463,0.535339
1480535287591114,-0.506165,-0.334778,0.587402,0.535339
1480535287611166,-0.506165,-0.334839,0.587402,0.5354
1480535287628211,-0.506226,-0.334717,0.58728,0.535522
1480535287650270,-0.506165,-0.334778,0.587097,0.535767
1480535287680350,-0.506104,-0.334778,0.587097,0.535767
1480535287687869,-0.506042,-0.334839,0.586914,0.536011
1480535287710932,-0.506042,-0.334778,0.586975,0.536011
1480535287734995,-0.505981,-0.334778,0.586975,0.536011
1480535287762067,-0.505554,-0.334595,0.587219,0.536316
1480535287770591,-0.505127,-0.334412,0.587463,0.53656
1480535287800169,-0.504761,-0.33429,0.587708,0.536682
1480535287808693,-0.504517,-0.334229,0.587891,0.536743
1480535287830249,-0.504517,-0.33429,0.587891,0.536743
1480535287852809,-0.504517,-0.33429,0.587891,0.536743
1480535287873865,-0.504272,-0.334229,0.58783,0.537048
1480535287890412,-0.504028,-0.334106,0.58783,0.537354
1480535287920488,-0.503723,-0.333923,0.58783,0.537781
1480535287928509,-0.503479,-0.333862,0.587708,0.538208
1480535287965609,-0.503113,-0.333679,0.587769,0.538574
1480535287973129,-0.502869,-0.333618,0.587769,0.538818
1480535287993685,-0.502686,-0.333679,0.587646,0.539063
1480535288010729,-0.502502,-0.333679,0.587585,0.539368
1480535288034291,-0.502258,-0.33374,0.587463,0.539673
1480535288047326,-0.501953,-0.333679,0.587341,0.5401
1480535288070388,-0.501648,-0.333618,0.587219,0.540588
1480535288095454,-0.501282,-0.333557,0.587158,0.541016
1480535288123531,-0.500916,-0.333496,0.587158,0.541382
1480535288132051,-0.500549,-0.333435,0.587158,0.541748
1480535288160627,-0.500122,-0.333435,0.587158,0.542114
1480535288174168,-0.499756,-0.333313,0.587219,0.542542
1480535288190710,-0.49939,-0.333191,0.58728,0.542908
1480535288212766,-0.499146,-0.33313,0.587341,0.543091
1480535288233822,-0.499146,-0.33313,0.587341,0.543091
1480535288250366,-0.499146,-0.33313,0.587341,0.543091
1480535288278942,-0.49884,-0.332886,0.587402,0.543396
1480535288294984,-0.498413,-0.33252,0.587585,0.543823
1480535288324064,-0.497925,-0.332275,0.587708,0.54425
1480535288333086,-0.49762,-0.332275,0.587769,0.544495
1480535288356148,-0.49762,-0.332214,0.587769,0.544495
1480535288386241,-0.497375,-0.332336,0.587891,0.544556
1480535288394249,-0.497375,-0.332336,0.587891,0.544556
1480535288414803,-0.497314,-0.332336,0.587891,0.544617
1480535288430346,-0.497314,-0.332336,0.587891,0.544617
1480535288452905,-0.497314,-0.332397,0.587891,0.544617
1480535288476468,-0.497314,-0.332336,0.587891,0.544617
1480535288490506,-0.497314,-0.332458,0.587891,0.544556
1480535288514067,-0.497314,-0.332458,0.58783,0.544556
1480535288541645,-0.497314,-0.332458,0.587891,0.544556
1480535288550165,-0.497253,-0.332458,0.587891,0.544617
1480535288572724,-0.496948,-0.332458,0.588135,0.544617
1480535288595283,-0.496643,-0.332581,0.588257,0.544678
1480535288610328,-0.496399,-0.332642,0.588379,0.544739
1480535288638900,-0.496399,-0.332703,0.588379,0.544739
1480535288670985,-0.496338,-0.332703,0.588379,0.544739
1480535288684020,-0.496399,-0.332825,0.588379,0.544556
1480535288693545,-0.496582,-0.333069,0.588318,0.544312
1480535288717608,-0.496704,-0.333191,0.588257,0.54425
1480535288732148,-0.496765,-0.333069,0.588196,0.544373
1480535288760223,-0.496826,-0.332886,0.588135,0.544434
1480535288798323,-0.49707,-0.332886,0.588013,0.544373
1480535288803339,-0.497314,-0.332947,0.587891,0.544312
1480535288820884,-0.497437,-0.332886,0.587769,0.544312
1480535288834924,-0.497559,-0.332764,0.587769,0.54425
1480535288873525,-0.497803,-0.332764,0.587708,0.544128
1480535288876030,-0.497925,-0.332764,0.587708,0.543945
1480535288910121,-0.498047,-0.332764,0.587708,0.543884
1480535288913630,-0.498169,-0.332642,0.587646,0.543884
1480535288947721,-0.498352,-0.332397,0.587646,0.543884
1480535288955241,-0.498596,-0.332275,0.587585,0.543823
1480535288969780,-0.498535,-0.332275,0.587585,0.543823
1480535288996852,-0.498535,-0.332275,0.587646,0.543823
1480535289022921,-0.498596,-0.332336,0.587585,0.543762
1480535289029939,-0.498779,-0.33252,0.587463,0.543701
1480535289061022,-0.498718,-0.33252,0.587463,0.543701
1480535289075561,-0.498718,-0.33252,0.587463,0.543701
1480535289103636,-0.498657,-0.332458,0.587463,0.543762
1480535289120179,-0.498657,-0.332458,0.587463,0.543762
1480535289159285,-0.49884,-0.332642,0.587341,0.543579
1480535289163796,-0.498901,-0.332703,0.58728,0.543579
1480535289181342,-0.498901,-0.332703,0.58728,0.543579
1480535289195881,-0.498901,-0.332581,0.587158,0.543762
1480535289217940,-0.498962,-0.33252,0.587097,0.543823
1480535289234485,-0.498962,-0.332458,0.587097,0.543884
1480535289256544,-0.499023,-0.332581,0.587036,0.543884
1480535289276596,-0.499023,-0.332642,0.586914,0.543884
1480535289316702,-0.499023,-0.332642,0.586914,0.543945
1480535289321715,-0.499023,-0.332642,0.586914,0.543945
1480535289337759,-0.498962,-0.332642,0.586914,0.543945
1480535289353801,-0.499084,-0.332703,0.586853,0.543945
1480535289398420,-0.499084,-0.332703,0.586853,0.543945
1480535289400927,-0.499023,-0.332703,0.586853,0.543945
1480535289436020,-0.499023,-0.332703,0.586853,0.543945
1480535289441534,-0.498962,-0.332703,0.586853,0.544006
1480535289458078,-0.498962,-0.332703,0.586853,0.544006
1480535289473121,-0.498962,-0.332703,0.586853,0.544006
1480535289495679,-0.498962,-0.332642,0.586853,0.544006
1480535289516734,-0.498901,-0.332703,0.586853,0.544067
1480535289540297,-0.49884,-0.332703,0.586853,0.544067
1480535289555338,-0.49884,-0.332703,0.586853,0.544067
1480535289577898,-0.499146,-0.332764,0.586731,0.543945
1480535289592937,-0.499329,-0.332764,0.586731,0.543762
1480535289615998,-0.499329,-0.332764,0.58667,0.543762
1480535289638058,-0.499084,-0.332581,0.58667,0.544128
1480535289668137,-0.498779,-0.332275,0.586792,0.544495
1480535289696714,-0.498779,-0.332275,0.586792,0.544495
1480535289714260,-0.498901,-0.33252,0.586731,0.544312
1480535289718772,-0.498962,-0.332764,0.58667,0.544128
1480535289735316,-0.498962,-0.332764,0.58667,0.544128
1480535289757876,-0.49884,-0.332581,0.586731,0.544312
1480535289772916,-0.49884,-0.332581,0.586731,0.544312
1480535289796518,-0.498779,-0.332581,0.586731,0.544312
1480535289819039,-0.498962,-0.332764,0.586609,0.54425
1480535289833076,-0.498962,-0.332764,0.586609,0.54425
1480535289855636,-0.498962,-0.332764,0.586609,0.54425
1480535289878196,-0.498901,-0.332703,0.586609,0.54425
1480535289892735,-0.498901,-0.332703,0.586609,0.54425
1480535289915294,-0.49884,-0.332703,0.58667,0.544312
1480535289954901,-0.49884,-0.332703,0.58667,0.544312
1480535289958911,-0.49884,-0.332825,0.58667,0.54425
1480535289982975,-0.49884,-0.332886,0.58667,0.54425
1480535290021076,-0.498779,-0.332886,0.58667,0.54425
1480535290023603,-0.498779,-0.332886,0.58667,0.54425
1480535290035615,-0.498779,-0.332886,0.58667,0.544312
1480535290058175,-0.498779,-0.332886,0.586609,0.544312
1480535290078729,-0.498779,-0.332886,0.58667,0.544312
1480535290103296,-0.498718,-0.332825,0.58667,0.544312
1480535290117833,-0.498718,-0.332825,0.58667,0.544312
1480535290138891,-0.498657,-0.332886,0.58667,0.544373
1480535290155434,-0.498657,-0.332825,0.58667,0.544373
1480535290187519,-0.498657,-0.332825,0.586731,0.544373
1480535290223618,-0.498596,-0.332825,0.586731,0.544373
1480535290226622,-0.498596,-0.332825,0.586731,0.544373
1480535290238656,-0.498596,-0.332764,0.586731,0.544434
1480535290260713,-0.498535,-0.332825,0.586731,0.544434
1480535290275753,-0.498535,-0.332825,0.586731,0.544434
1480535290298815,-0.498535,-0.332825,0.586731,0.544434
1480535290326389,-0.498535,-0.332825,0.586731,0.544434
1480535290335412,-0.498474,-0.332764,0.586731,0.544495
1480535290358477,-0.498474,-0.332764,0.586792,0.544495
1480535290379028,-0.498413,-0.332764,0.586792,0.544495
1480535290395572,-0.498474,-0.332947,0.586792,0.544373
1480535290418133,-0.498413,-0.33313,0.586792,0.54425
1480535290446206,-0.498413,-0.33313,0.586792,0.544312
1480535290455231,-0.498352,-0.33313,0.586792,0.544312
1480535290485832,-0.498352,-0.33313,0.586792,0.544312
1480535290507871,-0.498352,-0.33313,0.586853,0.544312
1480535290515397,-0.498352,-0.333313,0.586853,0.544189
1480535290545471,-0.498291,-0.333313,0.586853,0.544189
1480535290568031,-0.49823,-0.333313,0.586853,0.54425
1480535290575551,-0.49823,-0.333313,0.586853,0.54425
1480535290605633,-0.49823,-0.333313,0.586914,0.54425
1480535290621172,-0.498169,-0.333435,0.586975,0.544128
1480535290635209,-0.498169,-0.333618,0.586975,0.544006
1480535290657770,-0.498108,-0.333618,0.586975,0.544006
1480535290687850,-0.498108,-0.333618,0.587036,0.544067
1480535290694869,-0.498108,-0.333618,0.587036,0.544067
1480535290725450,-0.498047,-0.333618,0.587036,0.544067
1480535290740494,-0.498047,-0.333618,0.587036,0.544067
1480535290776084,-0.498047,-0.333618,0.587036,0.544128
1480535290787619,-0.497986,-0.333557,0.587036,0.544128
1480535290808169,-0.497986,-0.333557,0.587036,0.544128
1480535290823712,-0.497925,-0.333557,0.587036,0.544189
1480535290846271,-0.497925,-0.333557,0.587097,0.544189
1480535290860308,-0.497925,-0.333557,0.587097,0.544189
1480535290882870,-0.497864,-0.333557,0.587097,0.544189
1480535290897909,-0.497864,-0.333557,0.587097,0.54425
1480535290927988,-0.497803,-0.333557,0.587097,0.54425
1480535290934506,-0.497803,-0.333557,0.587097,0.54425
1480535290972607,-0.497864,-0.333679,0.586975,0.54425
1480535290981631,-0.497864,-0.33374,0.586975,0.54425
1480535291018228,-0.497925,-0.333435,0.586975,0.544373
1480535291021739,-0.498047,-0.33313,0.586975,0.544434
1480535291064351,-0.498047,-0.333008,0.586975,0.544556
1480535291068863,-0.49823,-0.332947,0.586914,0.544495
1480535291085408,-0.498535,-0.333069,0.586792,0.54425
1480535291100948,-0.498718,-0.33313,0.586731,0.544067
1480535291123013,-0.498779,-0.333008,0.58667,0.544128
1480535291138048,-0.498718,-0.333069,0.58667,0.544189
1480535291161108,-0.49884,-0.332886,0.58667,0.544189
1480535291181164,-0.499146,-0.332703,0.58667,0.544006
1480535291204225,-0.499268,-0.332886,0.586609,0.543884
1480535291220266,-0.499268,-0.332886,0.586609,0.543884
1480535291259872,-0.499207,-0.332886,0.586609,0.543884
1480535291264384,-0.499207,-0.332886,0.586609,0.543884
1480535291295967,-0.499329,-0.332886,0.586609,0.543823
1480535291301482,-0.499329,-0.332886,0.586609,0.543823
1480535291318527,-0.499268,-0.332886,0.586609,0.543823
1480535291340586,-0.499268,-0.332886,0.586609,0.543823
1480535291364149,-0.499451,-0.332886,0.586609,0.543701
1480535291378186,-0.499573,-0.333008,0.586487,0.54364
1480535291400245,-0.499512,-0.333008,0.586487,0.54364
1480535291421300,-0.499634,-0.332947,0.586487,0.54364
1480535291444863,-0.499634,-0.332947,0.586487,0.54364
1480535291460404,-0.499634,-0.332947,0.586487,0.54364
1480535291483466,-0.499634,-0.332947,0.586487,0.54364
1480535291499008,-0.499573,-0.332947,0.586487,0.54364
1480535291535605,-0.499756,-0.332947,0.586426,0.543579
1480535291543627,-0.499756,-0.332947,0.586426,0.543579
1480535291564181,-0.499756,-0.332947,0.586426,0.543579
1480535291580223,-0.499756,-0.332947,0.586426,0.543579
1480535291619328,-0.499695,-0.332947,0.586426,0.543579
1480535291624341,-0.499878,-0.332947,0.586426,0.543396
1480535291641889,-0.5,-0.33313,0.586365,0.543274
1480535291662944,-0.499939,-0.33313,0.586365,0.543335
1480535291684000,-0.499939,-0.33313,0.586426,0.543335
1480535291700544,-0.499939,-0.333069,0.586426,0.543335
1480535291724106,-0.499939,-0.333069,0.586426,0.543335
1480535291737141,-0.499878,-0.333069,0.586426,0.543335
1480535291773739,-0.499878,-0.333069,0.586426,0.543396
1480535291782762,-0.499939,-0.333191,0.586365,0.543335
1480535291811338,-0.499878,-0.333191,0.586365,0.543335
1480535291820362,-0.499878,-0.333191,0.586365,0.543396
1480535291850442,-0.499878,-0.333191,0.586365,0.543396
1480535291856959,-0.499878,-0.333191,0.586365,0.543396
1480535291886538,-0.5,-0.333313,0.586304,0.543274
1480535291919125,-0.5,-0.333313,0.586304,0.543274
1480535291924138,-0.499939,-0.333252,0.586304,0.543335
1480535291940683,-0.499939,-0.333313,0.586304,0.543335
1480535291962741,-0.499939,-0.333252,0.586304,0.543335
1480535291991316,-0.499878,-0.333252,0.586304,0.543335
1480535292000340,-0.499878,-0.333252,0.586365,0.543396
1480535292038443,-0.499878,-0.333252,0.586365,0.543396
1480535292052981,-0.499817,-0.333252,0.586365,0.543396
1480535292060500,-0.499817,-0.333252,0.586304,0.543396
1480535292083060,-0.499817,-0.333252,0.586365,0.543396
1480535292111637,-0.499817,-0.333313,0.586304,0.543396
1480535292120160,-0.499817,-0.333313,0.586304,0.543457
1480535292158260,-0.499817,-0.333313,0.586304,0.543457
1480535292164277,-0.499756,-0.333252,0.586365,0.543457
1480535292204384,-0.499756,-0.333313,0.586365,0.543457
1480535292208895,-0.499756,-0.333313,0.586365,0.543457
1480535292240984,-0.499756,-0.333313,0.586365,0.543457
1480535292243487,-0.499695,-0.333252,0.586365,0.543518
1480535292270560,-0.499695,-0.333252,0.586365,0.543518
1480535292284096,-0.499634,-0.333252,0.586365,0.543518
1480535292313674,-0.499634,-0.333252,0.586426,0.543579
1480535292329216,-0.499634,-0.333252,0.586426,0.543579
1480535292351776,-0.499634,-0.333374,0.586426,0.543457
1480535292361803,-0.499634,-0.333374,0.586426,0.543457
1480535292390378,-0.499634,-0.333374,0.586365,0.543457
1480535292405419,-0.499634,-0.333374,0.586426,0.543457
1480535292428480,-0.499573,-0.333374,0.586426,0.543457
1480535292443019,-0.499573,-0.333374,0.586426,0.543518
1480535292472829,-0.499695,-0.333435,0.586365,0.543396
1480535292481120,-0.499817,-0.333618,0.586304,0.543274
1480535292510197,-0.499756,-0.333618,0.586304,0.543274
1480535292525237,-0.499756,-0.333618,0.586304,0.543335
1480535292555317,-0.499756,-0.333557,0.586304,0.543335
1480535292562837,-0.499756,-0.333557,0.586304,0.543335
1480535292600938,-0.499695,-0.333557,0.586365,0.543335
1480535292606453,-0.499695,-0.333557,0.586365,0.543396
1480535292646058,-0.499634,-0.333557,0.586365,0.543396
1480535292648565,-0.499634,-0.333557,0.586365,0.543396
1480535292667615,-0.499634,-0.333557,0.586365,0.543396
1480535292682656,-0.499573,-0.333557,0.586365,0.543396
1480535292707223,-0.499573,-0.333557,0.586365,0.543396
1480535292719754,-0.499573,-0.333557,0.586365,0.543457
1480535292757856,-0.499512,-0.333557,0.586365,0.543457
1480535292765377,-0.499512,-0.333496,0.586426,0.543457
1480535292787935,-0.499573,-0.333618,0.586426,0.543335
1480535292803478,-0.499573,-0.333618,0.586365,0.543335
1480535292843082,-0.499573,-0.333679,0.586365,0.543396
1480535292846591,-0.499573,-0.333618,0.586426,0.543396
1480535292886698,-0.499512,-0.333618,0.586426,0.543396
1480535292908256,-0.499573,-0.333801,0.586365,0.543274
1480535292910764,-0.499573,-0.333801,0.586365,0.543274
1480535292924299,-0.499573,-0.333801,0.586426,0.543274
1480535292945856,-0.499512,-0.333801,0.586426,0.543274
1480535292966411,-0.499451,-0.333923,0.586426,0.543213
1480535292983456,-0.499451,-0.333923,0.586487,0.543213
1480535293005515,-0.499451,-0.333923,0.586487,0.543213
1480535293035594,-0.49939,-0.333862,0.586487,0.543213
1480535293043115,-0.49939,-0.333862,0.586487,0.543274
1480535293065674,-0.49939,-0.333862,0.586487,0.543274
1480535293087232,-0.49939,-0.333923,0.586487,0.543274
1480535293108790,-0.499329,-0.333923,0.586487,0.543274
1480535293125835,-0.499329,-0.333923,0.586487,0.543335
1480535293165944,-0.499329,-0.333923,0.586487,0.543274
1480535293185995,-0.499329,-0.333862,0.586548,0.543274
1480535293193013,-0.499268,-0.333862,0.586548,0.543335
1480535293206678,-0.499268,-0.333862,0.586548,0.543335
1480535293223097,-0.499207,-0.333862,0.586548,0.543396
1480535293245152,-0.499207,-0.333862,0.586548,0.543396
1480535293266208,-0.499207,-0.333862,0.586548,0.543396
1480535293282752,-0.499207,-0.333862,0.586548,0.543396
1480535293313333,-0.499146,-0.333862,0.586548,0.543396
1480535293326368,-0.499146,-0.333862,0.586548,0.543396
1480535293356450,-0.499146,-0.333862,0.586548,0.543457
1480535293365472,-0.499084,-0.333862,0.586548,0.543457
1480535293398059,-0.499023,-0.333679,0.586548,0.543701
1480535293403072,-0.498962,-0.333679,0.586548,0.543701
1480535293433152,-0.498962,-0.333618,0.586548,0.543701
1480535293462730,-0.498901,-0.333618,0.586609,0.543762
1480535293471755,-0.498901,-0.333618,0.586609,0.543762
1480535293486295,-0.49884,-0.333618,0.586609,0.543823
1480535293508352,-0.49884,-0.333618,0.586609,0.543823
1480535293522391,-0.49884,-0.333618,0.586609,0.543823
1480535293546955,-0.498779,-0.333618,0.586609,0.543823
1480535293582549,-0.498779,-0.333618,0.586609,0.543884
1480535293585056,-0.498779,-0.333618,0.586609,0.543884
1480535293605611,-0.498779,-0.333618,0.586609,0.543884
1480535293635691,-0.498718,-0.333557,0.58667,0.543884
1480535293643211,-0.498718,-0.333557,0.58667,0.543884
1480535293676300,-0.498718,-0.333557,0.58667,0.543945
1480535293703873,-0.498657,-0.333557,0.58667,0.543945
1480535293709387,-0.498657,-0.333618,0.58667,0.543945
1480535293725429,-0.498596,-0.333618,0.58667,0.543945
1480535293747990,-0.498596,-0.333618,0.58667,0.544006
1480535293763030,-0.498596,-0.333618,0.58667,0.544006
1480535293786091,-0.498657,-0.333618,0.586548,0.544067
1480535293817674,-0.498779,-0.333313,0.586548,0.544128
1480535293822188,-0.499023,-0.33313,0.586487,0.544067
1480535293845249,-0.499268,-0.333069,0.586365,0.544006
1480535293875329,-0.499573,-0.332886,0.586365,0.543823
1480535293896384,-0.499817,-0.332886,0.586365,0.54364
1480535293912928,-0.499939,-0.333008,0.586243,0.543579
1480535293936492,-0.499939,-0.333008,0.586243,0.543579
1480535293950528,-0.499878,-0.332947,0.586304,0.54364
1480535293980107,-0.499878,-0.332947,0.586304,0.54364
1480535293988128,-0.499512,-0.332886,0.586365,0.543884
1480535294017707,-0.499512,-0.332886,0.586365,0.543884
1480535294025227,-0.499512,-0.332886,0.586365,0.543884
1480535294055809,-0.499451,-0.332947,0.586365,0.543884
1480535294068843,-0.499451,-0.332947,0.586365,0.543945
1480535294092907,-0.499512,-0.332825,0.586243,0.544067
1480535294107947,-0.499512,-0.332642,0.586182,0.54425
1480535294136022,-0.499634,-0.332397,0.586121,0.544373
1480535294153067,-0.499756,-0.332275,0.585999,0.544373
1480535294191671,-0.499939,-0.332275,0.585876,0.544373
1480535294196182,-0.499939,-0.332275,0.585876,0.544434
1480535294230283,-0.499878,-0.332275,0.585876,0.544434
1480535294233782,-0.499878,-0.332275,0.585938,0.544434
1480535294257846,-0.499817,-0.332214,0.585938,0.544495
1480535294265366,-0.499817,-0.332214,0.585938,0.544495
1480535294302966,-0.499756,-0.332275,0.585938,0.544495
1480535294310486,-0.499756,-0.332275,0.585938,0.544556
1480535294333547,-0.499695,-0.332275,0.585938,0.544556
1480535294350091,-0.499695,-0.332275,0.585938,0.544556
1480535294370647,-0.499695,-0.332275,0.585938,0.544556
1480535294385185,-0.499634,-0.332275,0.585938,0.544617
1480535294432309,-0.499634,-0.332275,0.585938,0.544617
1480535294436320,-0.499634,-0.332275,0.585938,0.544617
1480535294468406,-0.499756,-0.332336,0.585938,0.544495
1480535294470914,-0.499817,-0.332397,0.585876,0.544434
1480535294498486,-0.499817,-0.332397,0.585876,0.544434
1480535294504502,-0.499817,-0.332397,0.585876,0.544434
1480535294529067,-0.499817,-0.332397,0.585876,0.544434
1480535294557644,-0.499756,-0.332397,0.585876,0.544434
1480535294573264,-0.499756,-0.332397,0.585938,0.544495
1480535294587723,-0.499695,-0.33252,0.585876,0.544495
1480535294610785,-0.499756,-0.332581,0.585815,0.544495
1480535294624822,-0.499756,-0.332581,0.585815,0.544495
1480535294649889,-0.499695,-0.332581,0.585815,0.544495
1480535294670444,-0.499695,-0.332581,0.585815,0.544495
1480535294701025,-0.499695,-0.332581,0.585815,0.544495
1480535294703532,-0.499695,-0.332581,0.585815,0.544556
1480535294729601,-0.499634,-0.332581,0.585815,0.544556
1480535294744139,-0.499634,-0.332581,0.585815,0.544556
1480535294752161,-0.499573,-0.332581,0.585815,0.544617
1480535294773221,-0.499573,-0.332581,0.585815,0.544617
1480535294811318,-0.499573,-0.332581,0.585815,0.544617
1480535294829867,-0.499512,-0.332581,0.585876,0.544617
1480535294834881,-0.499512,-0.332581,0.585876,0.544678
1480535294855939,-0.499512,-0.332581,0.585876,0.544678
1480535294873984,-0.499451,-0.332581,0.585876,0.544678
1480535294893035,-0.499451,-0.332581,0.585876,0.544678
1480535294923115,-0.49939,-0.33252,0.585876,0.544739
1480535294950187,-0.499146,-0.332031,0.586121,0.545044
1480535294954700,-0.49939,-0.330811,0.585632,0.546082
1480535294976257,-0.50116,-0.330383,0.584473,0.545959
1480535295006840,-0.502502,-0.331482,0.584229,0.544312
1480535295022382,-0.503052,-0.333313,0.584534,0.542358
1480535295059979,-0.503296,-0.334167,0.585083,0.541016
1480535295062486,-0.502319,-0.333374,0.586243,0.541138
1480535295090060,-0.500977,-0.332397,0.587341,0.541809
1480535295103094,-0.500732,-0.332031,0.587524,0.542053
1480535295142700,-0.501587,-0.331726,0.587769,0.541199
1480535295145206,-0.502441,-0.332031,0.588135,0.539795
1480535295163254,-0.504333,-0.333618,0.587708,0.537476
1480535295178294,-0.505859,-0.335632,0.586914,0.535706
1480535295200854,-0.507813,-0.336914,0.585999,0.534119
1480535295218401,-0.509033,-0.336548,0.585938,0.533264
1480535295246977,-0.509277,-0.335571,0.586609,0.532776
1480535295260513,-0.51001,-0.335266,0.586975,0.53186
1480535295275552,-0.510864,-0.33551,0.587463,0.530457
1480535295298114,-0.511169,-0.336182,0.588013,0.529053
1480535295322178,-0.510986,-0.337097,0.588196,0.528442
1480535295335712,-0.509766,-0.337158,0.588562,0.529175
1480535295358274,-0.50824,-0.336426,0.589417,0.530151
1480535295382337,-0.506042,-0.33667,0.590149,0.531372
1480535295395873,-0.503357,-0.338013,0.589844,0.533325
1480535295426956,-0.500671,-0.337524,0.589844,0.536194
1480535295448512,-0.498535,-0.334961,0.590027,0.539551
1480535295458539,-0.498535,-0.332581,0.588806,0.542297
1480535295496641,-0.499573,-0.330505,0.586853,0.5448
1480535295501655,-0.499878,-0.328064,0.584717,0.548279
1480535295515692,-0.499695,-0.326111,0.58252,0.551941
1480535295541260,-0.500122,-0.324524,0.581482,0.553528
1480535295562316,-0.500122,-0.323364,0.581909,0.553833
1480535295583372,-0.499695,-0.322693,0.582581,0.553833
1480535295606043,-0.500671,-0.323242,0.582825,0.552429
1480535295617964,-0.500366,-0.323059,0.583374,0.552246
1480535295643030,-0.499573,-0.321411,0.584045,0.553162
1480535295659575,-0.499268,-0.319763,0.584229,0.554199
1480535295680631,-0.5,-0.319275,0.58374,0.554382
1480535295697174,-0.500793,-0.319153,0.583313,0.554077
1480535295721239,-0.501648,-0.319214,0.58313,0.553528
1480535295736279,-0.50238,-0.319214,0.582703,0.553284
1480535295757335,-0.502808,-0.319153,0.582458,0.553223
1480535295778390,-0.502808,-0.319275,0.582458,0.553223
1480535295795436,-0.502747,-0.319275,0.582458,0.553223
1480535295815990,-0.502502,-0.319031,0.582703,0.553284
1480535295841057,-0.502502,-0.31897,0.582703,0.553345
1480535295855094,-0.502747,-0.319336,0.582458,0.553162
1480535295883171,-0.503174,-0.319946,0.582092,0.552795
1480535295898209,-0.50354,-0.32019,0.581909,0.552551
1480535295914753,-0.503723,-0.320068,0.581848,0.552429
1480535295937314,-0.504028,-0.319763,0.581848,0.552429
1480535295959873,-0.504333,-0.319702,0.581665,0.552368
1480535295974913,-0.5047,-0.319946,0.581299,0.552246
1480535296004492,-0.505066,-0.32019,0.580994,0.552124
1480535296018027,-0.505249,-0.320251,0.580811,0.552124
1480535296048609,-0.505371,-0.32019,0.580811,0.552002
1480535296058635,-0.505493,-0.32019,0.580811,0.55188
1480535296095233,-0.505676,-0.320374,0.580811,0.551636
1480535296097740,-0.505676,-0.320496,0.580872,0.551514
1480535296123308,-0.505615,-0.320496,0.580872,0.551514
1480535296138349,-0.505615,-0.320496,0.580872,0.551514
1480535296156395,-0.505737,-0.32074,0.580872,0.551331
1480535296175948,-0.505676,-0.320984,0.580811,0.55127
1480535296216555,-0.505798,-0.321045,0.580811,0.551147
1480535296220568,-0.505798,-0.321045,0.580811,0.551147
1480535296238615,-0.505798,-0.321045,0.580811,0.551147
1480535296258667,-0.505798,-0.321045,0.580811,0.551147
1480535296276215,-0.505737,-0.321106,0.580811,0.551147
1480535296295766,-0.505737,-0.321106,0.580811,0.551208
1480535296325846,-0.506042,-0.320862,0.58075,0.551086
1480535296336376,-0.506165,-0.320923,0.580627,0.551086
1480535296373988,-0.506226,-0.320923,0.580688,0.550964
1480535296379991,-0.506226,-0.320923,0.580688,0.550964
1480535296409569,-0.506165,-0.320862,0.580688,0.551025
1480535296415585,-0.506165,-0.320862,0.580688,0.551025
1480535296438146,-0.506104,-0.32074,0.580811,0.550964
1480535296468727,-0.506104,-0.320496,0.580994,0.550964
1480535296492290,-0.506104,-0.320496,0.580994,0.551025
1480535296498305,-0.506104,-0.320618,0.580994,0.550964
1480535296532898,-0.506104,-0.320618,0.580994,0.550903
1480535296537410,-0.506042,-0.320557,0.581055,0.550903
1480535296557964,-0.506104,-0.320618,0.581238,0.550659
1480535296590049,-0.506226,-0.320679,0.581299,0.550415
1480535296595564,-0.506409,-0.320862,0.581299,0.550171
1480535296618124,-0.506409,-0.32074,0.581482,0.550049
1480535296649708,-0.506531,-0.320557,0.581543,0.549988
1480535296655725,-0.506775,-0.320435,0.581543,0.549866
1480535296679794,-0.50708,-0.320496,0.581482,0.549622
1480535296700850,-0.507324,-0.320557,0.58136,0.549438
1480535296715890,-0.507446,-0.320679,0.581238,0.549316
1480535296738450,-0.507568,-0.320679,0.581238,0.549255
1480535296769533,-0.50769,-0.320679,0.581238,0.549194
1480535296777053,-0.50769,-0.320679,0.581299,0.549072
1480535296810163,-0.507813,-0.320679,0.581299,0.549011
1480535296829191,-0.507874,-0.320679,0.58136,0.548889
1480535296844732,-0.507935,-0.320801,0.581299,0.548767
1480535296865788,-0.507935,-0.320801,0.581299,0.548767
1480535296888854,-0.507935,-0.320801,0.581299,0.548767
1480535296897372,-0.507874,-0.320801,0.581299,0.548828
1480535296925948,-0.507935,-0.320923,0.581299,0.548706
1480535296949010,-0.507874,-0.320923,0.58136,0.548706
1480535296957031,-0.507874,-0.320923,0.58136,0.548706
1480535296985607,-0.507874,-0.321045,0.58136,0.548584
1480535297000647,-0.507935,-0.321228,0.581482,0.548401
1480535297017191,-0.507996,-0.32135,0.581421,0.548279
1480535297055293,-0.507935,-0.32135,0.581421,0.54834
1480535297068828,-0.507874,-0.32135,0.581421,0.54834
1480535297078855,-0.507874,-0.32135,0.581421,0.54834
1480535297105928,-0.507874,-0.32135,0.581421,0.548401
1480535297120967,-0.507813,-0.32135,0.581482,0.548401
1480535297143026,-0.507813,-0.32135,0.581482,0.548401
1480535297158065,-0.507813,-0.32135,0.581482,0.548401
1480535297188148,-0.507751,-0.32135,0.581482,0.548462
1480535297206195,-0.507751,-0.32135,0.581482,0.548462
1480535297226748,-0.507751,-0.32135,0.581482,0.548462
1480535297240788,-0.50769,-0.32135,0.581482,0.548523
1480535297274876,-0.507507,-0.321472,0.581604,0.548462
1480535297279890,-0.507385,-0.321533,0.581726,0.54834
1480535297301447,-0.507385,-0.321533,0.581726,0.54834
1480535297318493,-0.507141,-0.321594,0.581909,0.548401
1480535297345564,-0.507141,-0.321594,0.581909,0.548401
1480535297360604,-0.50708,-0.321594,0.581909,0.548401
1480535297386173,-0.50708,-0.321594,0.581909,0.548401
1480535297398204,-0.50708,-0.321594,0.581909,0.548401
1480535297422272,-0.50708,-0.321594,0.581909,0.548462
1480535297443324,-0.50708,-0.321594,0.581909,0.548462
1480535297465885,-0.507019,-0.321838,0.581909,0.54834
1480535297481928,-0.507019,-0.322021,0.581909,0.548279
1480535297515517,-0.506958,-0.322083,0.581909,0.548279
1480535297519528,-0.506958,-0.322083,0.581909,0.548279
1480535297542089,-0.506775,-0.32196,0.581909,0.548523
1480535297564647,-0.506714,-0.32196,0.58197,0.548523
1480535297578183,-0.506714,-0.32196,0.58197,0.548523
1480535297603250,-0.506653,-0.32196,0.58197,0.548584
1480535297626311,-0.506653,-0.321716,0.581909,0.548767
1480535297638345,-0.506592,-0.321472,0.581848,0.549011
1480535297663410,-0.506531,-0.32135,0.581787,0.549194
1480535297678450,-0.50647,-0.321411,0.581787,0.549255
1480535297716050,-0.50647,-0.321411,0.581787,0.549255
1480535297720564,-0.50647,-0.321411,0.581848,0.549255
1480535297739617,-0.506409,-0.32135,0.581848,0.549316
1480535297788745,-0.50647,-0.321472,0.581726,0.549255
1480535297799773,-0.506592,-0.321472,0.581665,0.549255
1480535297829351,-0.506592,-0.321472,0.581665,0.549255
1480535297834365,-0.506531,-0.321472,0.581665,0.549255
1480535297840882,-0.506531,-0.321472,0.581665,0.549316
1480535297859431,-0.506592,-0.32135,0.581604,0.549377
1480535297879485,-0.506592,-0.32135,0.581604,0.549377
1480535297903550,-0.506531,-0.32135,0.581604,0.549377
1480535297920595,-0.506531,-0.32135,0.581604,0.549377
1480535297954685,-0.506531,-0.32135,0.581665,0.549377
1480535297960701,-0.50647,-0.32135,0.581665,0.549438
1480535297994293,-0.506287,-0.321655,0.581543,0.549561
1480535297999805,-0.506226,-0.321594,0.581543,0.549622
1480535298022366,-0.506226,-0.321594,0.581543,0.549622
1480535298043421,-0.506287,-0.32196,0.581482,0.549438
1480535298084029,-0.506287,-0.322205,0.581421,0.549377
1480535298097064,-0.506104,-0.322021,0.581665,0.549316
1480535298103080,-0.505859,-0.321899,0.581848,0.5495
1480535298121129,-0.505615,-0.321594,0.58197,0.549744
1480535298140680,-0.505615,-0.321594,0.58197,0.549744
1480535298163239,-0.505432,-0.321716,0.582214,0.549622
1480535298181789,-0.505066,-0.321838,0.582275,0.549805
1480535298200839,-0.5047,-0.321655,0.582336,0.550171
1480535298240446,-0.504517,-0.321289,0.582458,0.550476
1480535298242453,-0.504517,-0.321228,0.582458,0.550476
1480535298260499,-0.504578,-0.321289,0.582458,0.550354
1480535298298599,-0.505005,-0.321411,0.582092,0.550293
1480535298317650,-0.50592,-0.321533,0.581604,0.549866
1480535298322163,-0.506714,-0.322205,0.581726,0.548584
1480535298350746,-0.506653,-0.32312,0.582397,0.547424
1480535298361267,-0.505981,-0.323853,0.582764,0.547241
1480535298388339,-0.505127,-0.323608,0.583008,0.547913
1480535298403379,-0.504578,-0.322876,0.583191,0.548584
1480535298437470,-0.504456,-0.322449,0.583496,0.548706
1480535298442487,-0.504028,-0.322449,0.583862,0.548706
1480535298468552,-0.504028,-0.322449,0.583862,0.548706
1480535298482088,-0.503784,-0.322205,0.583984,0.54895
1480535298511165,-0.503479,-0.321838,0.584167,0.549194
1480535298530717,-0.503113,-0.321594,0.584351,0.5495
1480535298541246,-0.502808,-0.321411,0.584473,0.549744
1480535298577345,-0.502625,-0.32135,0.584473,0.549927
1480535298583357,-0.502625,-0.32135,0.584473,0.549988
1480535298631485,-0.502747,-0.321289,0.58429,0.55011
1480535298637502,-0.50293,-0.321167,0.584229,0.550049
1480535298652040,-0.503113,-0.321228,0.584167,0.549927
1480535298661064,-0.503235,-0.32135,0.584106,0.549805
1480535298705683,-0.50293,-0.321228,0.584106,0.550171
1480535298710696,-0.502808,-0.320862,0.584167,0.550415
1480535298733757,-0.502747,-0.320862,0.584167,0.550476
1480535298742282,-0.502808,-0.320862,0.58429,0.550293
1480535298770856,-0.502869,-0.320984,0.58429,0.550171
1480535298787400,-0.50293,-0.321289,0.584167,0.550049
1480535298808458,-0.50293,-0.321289,0.584106,0.550049
1480535298827006,-0.50293,-0.321045,0.584167,0.550232
1480535298841043,-0.50293,-0.320618,0.58429,0.550293
1480535298864104,-0.50293,-0.320618,0.58429,0.550293
1480535298890677,-0.503052,-0.320801,0.584167,0.550232
1480535298901202,-0.503113,-0.320923,0.584106,0.550171
1480535298930281,-0.503113,-0.320923,0.584106,0.550171
1480535298943314,-0.503113,-0.320923,0.584106,0.550232
1480535298962384,-0.503174,-0.320923,0.584106,0.550049
1480535298995954,-0.503418,-0.320984,0.584045,0.549866
1480535299013502,-0.503418,-0.320984,0.584106,0.549866
1480535299026039,-0.503357,-0.320923,0.584106,0.549927
1480535299051101,-0.503357,-0.320923,0.584106,0.549927
1480535299063134,-0.503296,-0.320923,0.584106,0.549927
1480535299111763,-0.503418,-0.320923,0.584106,0.549866
1480535299116274,-0.503418,-0.320862,0.584167,0.549866
1480535299133821,-0.503418,-0.320862,0.584167,0.549866
1480535299178440,-0.503357,-0.320862,0.584167,0.549927
1480535299180947,-0.503357,-0.320862,0.584167,0.549927
1480535299185960,-0.503479,-0.320923,0.584167,0.549805
1480535299214536,-0.503479,-0.321045,0.584167,0.549683
1480535299223561,-0.503479,-0.321045,0.584167,0.549683
1480535299250633,-0.503479,-0.321045,0.584167,0.549683
1480535299261160,-0.503479,-0.321045,0.584167,0.549683
1480535299299763,-0.503418,-0.321045,0.584167,0.549744
1480535299305277,-0.503418,-0.321045,0.584167,0.549744
1480535299336360,-0.503418,-0.321045,0.584167,0.549744
1480535299343881,-0.503418,-0.321045,0.584167,0.549744
1480535299389000,-0.503357,-0.321045,0.584229,0.549744
1480535299393012,-0.503357,-0.321045,0.584229,0.549805
1480535299427603,-0.503296,-0.321045,0.584229,0.549805
1480535299447657,-0.503296,-0.321045,0.584229,0.549805
1480535299450163,-0.503235,-0.320984,0.584229,0.549805
1480535299464200,-0.503235,-0.320984,0.58429,0.549866
1480535299499795,-0.503235,-0.320984,0.58429,0.549866
1480535299505811,-0.503235,-0.320984,0.58429,0.549866
1480535299531381,-0.503174,-0.320984,0.58429,0.549866
1480535299543414,-0.503174,-0.320984,0.58429,0.549927
1480535299573691,-0.503174,-0.320984,0.58429,0.549927
1480535299585022,-0.503113,-0.320984,0.58429,0.549927
1480535299606174,-0.503052,-0.32074,0.584351,0.550049
1480535299628637,-0.502869,-0.320496,0.584473,0.550232
1480535299659721,-0.502869,-0.320496,0.584473,0.550232
1480535299664734,-0.502808,-0.320496,0.584473,0.550232
1480535299704841,-0.502808,-0.320496,0.584473,0.550293
1480535299741439,-0.502808,-0.320496,0.584473,0.550293
1480535299747955,-0.502747,-0.320496,0.584473,0.550293
1480535299750964,-0.502747,-0.320496,0.584473,0.550354
1480535299763997,-0.502747,-0.320557,0.584473,0.550354
1480535299792076,-0.502686,-0.320557,0.584473,0.550354
1480535299808619,-0.502686,-0.320557,0.584473,0.550354
1480535299823657,-0.502686,-0.320679,0.584412,0.550354
1480535299846718,-0.502686,-0.320679,0.584412,0.550354
1480535299865768,-0.502686,-0.320679,0.584412,0.550415
1480535299884336,-0.502625,-0.320679,0.584412,0.550415
1480535299920414,-0.502625,-0.320679,0.584412,0.550415
1480535299944980,-0.502625,-0.320679,0.584412,0.550415
1480535299948490,-0.50293,-0.320679,0.58429,0.550293
1480535299983081,-0.502869,-0.320679,0.58429,0.550354
1480535300002633,-0.502991,-0.320679,0.584106,0.550415
1480535300008148,-0.503113,-0.320618,0.584045,0.550415
1480535300026196,-0.503174,-0.320435,0.584045,0.550476
1480535300049260,-0.503296,-0.320374,0.584045,0.550415
1480535300063795,-0.503357,-0.320251,0.584045,0.550415
1480535300086355,-0.503296,-0.320251,0.584045,0.550415
1480535300105907,-0.503296,-0.320251,0.584045,0.550415
1480535300129469,-0.503235,-0.320251,0.584045,0.550476
1480535300146014,-0.503235,-0.320251,0.584106,0.550476
1480535300168574,-0.503296,-0.320129,0.584045,0.550537
1480535300185118,-0.503296,-0.320129,0.584045,0.550537
1480535300222216,-0.503296,-0.320129,0.584045,0.550537
1480535300227733,-0.503296,-0.320129,0.584045,0.550537
1480535300280873,-0.503296,-0.320129,0.584045,0.550598
1480535300283379,-0.503479,-0.320313,0.583923,0.550354
1480535300288895,-0.503601,-0.320435,0.583862,0.550354
1480535300325495,-0.50354,-0.320435,0.583862,0.550354
1480535300327498,-0.503662,-0.320068,0.583923,0.550415
1480535300362590,-0.503723,-0.319946,0.583862,0.550476
1480535300365099,-0.503723,-0.319946,0.583862,0.550476
1480535300399688,-0.503906,-0.320007,0.583618,0.550476
1480535300406207,-0.504272,-0.320129,0.583374,0.550354
1480535300423753,-0.504639,-0.32019,0.583191,0.550232
1480535300446313,-0.504761,-0.32019,0.58313,0.55011
1480535300489929,-0.504944,-0.320251,0.583008,0.550049
1480535300495443,-0.505066,-0.320251,0.582947,0.549988
1480535300506974,-0.505188,-0.320251,0.583008,0.549805
1480535300537055,-0.505188,-0.320251,0.583008,0.549805
1480535300544073,-0.505127,-0.320313,0.583008,0.549866
1480535300566131,-0.505127,-0.320251,0.583008,0.549866
1480535300595208,-0.505127,-0.320251,0.583008,0.549866
1480535300611753,-0.505066,-0.320251,0.583008,0.549927
1480535300638826,-0.505066,-0.320251,0.583069,0.549927
1480535300647347,-0.505066,-0.320251,0.583069,0.549927
1480535300663390,-0.505066,-0.320251,0.583069,0.549927
1480535300686953,-0.505005,-0.320251,0.583069,0.549927
1480535300716532,-0.505005,-0.320251,0.583069,0.549927
1480535300723551,-0.505005,-0.320251,0.583069,0.549988
1480535300760147,-0.505005,-0.320251,0.583069,0.549988
1480535300776190,-0.504944,-0.320251,0.583069,0.549988
1480535300821812,-0.504944,-0.320251,0.583008,0.549988
1480535300834846,-0.504944,-0.320251,0.583069,0.549988
1480535300844371,-0.504883,-0.320251,0.583069,0.550049
1480535300848381,-0.504883,-0.320251,0.583069,0.550049
1480535300873966,-0.504883,-0.320251,0.583069,0.550049
1480535300887003,-0.504883,-0.320251,0.583069,0.550049
1480535300917082,-0.504822,-0.320251,0.583069,0.55011
1480535300927110,-0.504822,-0.320251,0.583069,0.55011
1480535300956188,-0.504822,-0.32019,0.58313,0.55011
1480535300971728,-0.504761,-0.320251,0.58313,0.55011
1480535301009833,-0.504761,-0.32019,0.58313,0.55011
1480535301037404,-0.504761,-0.32019,0.58313,0.55011
1480535301054949,-0.504761,-0.320251,0.583069,0.550171
1480535301059461,-0.504761,-0.320251,0.583069,0.550171
1480535301084027,-0.5047,-0.320251,0.583069,0.550171
1480535301089042,-0.5047,-0.320251,0.58313,0.550171
1480535301121125,-0.5047,-0.320251,0.58313,0.550171
1480535301127642,-0.504761,-0.320374,0.583069,0.55011
1480535301153214,-0.504822,-0.320557,0.583008,0.549988
1480535301166746,-0.504761,-0.320496,0.583008,0.549988
1480535301196325,-0.504761,-0.320496,0.583069,0.550049
1480535301208357,-0.504761,-0.320496,0.583069,0.550049
1480535301249968,-0.504761,-0.320496,0.583069,0.550049
1480535301263504,-0.5047,-0.320496,0.583069,0.550049
1480535301287567,-0.5047,-0.320496,0.583069,0.550049
1480535301292081,-0.5047,-0.320496,0.583069,0.55011
1480535301332688,-0.504639,-0.320496,0.583069,0.55011
1480535301352740,-0.504639,-0.320496,0.583069,0.55011
1480535301357255,-0.504578,-0.320496,0.58313,0.55011
1480535301390341,-0.504578,-0.320496,0.58313,0.550171
1480535301392847,-0.504578,-0.320435,0.58313,0.550171
1480535301406384,-0.504578,-0.320496,0.58313,0.550171
1480535301428943,-0.504578,-0.320496,0.58313,0.550171
1480535301447994,-0.504517,-0.320435,0.58313,0.550171
1480535301473063,-0.504517,-0.320435,0.58313,0.550171
1480535301487600,-0.504517,-0.320496,0.58313,0.550171
1480535301517680,-0.504517,-0.320435,0.58313,0.550232
1480535301527204,-0.504456,-0.320435,0.58313,0.550232
1480535301563302,-0.504456,-0.320435,0.58313,0.550232
1480535301568816,-0.504395,-0.320435,0.58313,0.550232
1480535301585862,-0.504395,-0.320435,0.583191,0.550293
1480535301607921,-0.504395,-0.320435,0.583191,0.550293
1480535301630480,-0.504333,-0.320435,0.583191,0.550293
1480535301645520,-0.504333,-0.320435,0.583191,0.550293
