timestamp,roll,pitch,yaw
1480535257521120,-1.27638,0.188584,1.4879
1480535257531649,-1.27638,0.188584,1.4879
1480535257563235,-1.27582,0.18885,1.48846
1480535257573259,-1.2752,0.188913,1.48894
1480535257595820,-1.27517,0.18904,1.48947
1480535257613867,-1.27508,0.188905,1.48978
1480535257643948,-1.27519,0.188837,1.48987
1480535257651468,-1.27519,0.188837,1.48987
1480535257674028,-1.27519,0.188837,1.48987
1480535257693580,-1.27519,0.188837,1.48987
1480535257711627,-1.27519,0.188837,1.48987
1480535257756246,-1.27519,0.188837,1.48987
1480535257764268,-1.27519,0.188837,1.48987
1480535257775798,-1.27519,0.188837,1.48987
1480535257793846,-1.27528,0.188708,1.48981
1480535257813399,-1.27529,0.188768,1.48996
1480535257840972,-1.27519,0.188837,1.48987
1480535257854006,-1.27519,0.188837,1.48987
1480535257875062,-1.2752,0.188794,1.48988
1480535257913668,-1.2752,0.188794,1.48988
1480535257918678,-1.27507,0.188721,1.48988
1480535257935724,-1.27517,0.188653,1.48997
1480535257955777,-1.27507,0.188721,1.48988
1480535257978337,-1.27507,0.188721,1.48988
1480535258000897,-1.27507,0.188721,1.48988
1480535258017441,-1.27517,0.188653,1.48997
1480535258041505,-1.27531,0.188725,1.48997
1480535258057548,-1.27519,0.188837,1.48987
1480535258076097,-1.27519,0.188837,1.48987
1480535258106678,-1.2752,0.188794,1.48988
1480535258114700,-1.27507,0.188721,1.48988
1480535258143276,-1.27517,0.188653,1.48997
1480535258153804,-1.27507,0.188721,1.48988
1480535258174860,-1.27517,0.188653,1.48997
1480535258195920,-1.27517,0.188653,1.48997
1480535258213968,-1.27531,0.188725,1.48997
1480535258236526,-1.27507,0.188721,1.48988
1480535258256077,-1.2756,0.18879,1.49014
1480535258274124,-1.27559,0.18873,1.48999
1480535258297687,-1.27559,0.18873,1.48999
1480535258317238,-1.2756,0.18879,1.49014
1480535258334284,-1.2756,0.18879,1.49014
1480535258356343,-1.2756,0.18879,1.49014
1480535258375894,-1.27573,0.188863,1.49014
1480535258393942,-1.27621,0.189221,1.48999
1480535258418508,-1.27655,0.189507,1.48983
1480535258436054,-1.27655,0.189507,1.48983
1480535258460118,-1.27655,0.189507,1.48983
1480535258481175,-1.27666,0.189439,1.48992
1480535258503233,-1.27682,0.189488,1.48954
1480535258513764,-1.27701,0.189678,1.48908
1480535258536322,-1.27696,0.189189,1.48896
1480535258555874,-1.2768,0.188542,1.48886
1480535258585954,-1.2768,0.188542,1.48886
1480535258596982,-1.2768,0.188542,1.48886
1480535258616033,-1.27722,0.188783,1.48917
1480535258634081,-1.27797,0.189022,1.48928
1480535258664161,-1.27797,0.189022,1.48928
1480535258675692,-1.27744,0.189057,1.48916
1480535258693740,-1.27715,0.188992,1.489
1480535258716299,-1.27715,0.188992,1.489
1480535258743873,-1.27772,0.189098,1.48903
1480535258753900,-1.27835,0.189058,1.48884
1480535258783980,-1.27835,0.189058,1.48884
1480535258796016,-1.27848,0.18913,1.48884
1480535258818571,-1.27848,0.18913,1.48884
1480535258838125,-1.27848,0.18913,1.48884
1480535258857174,-1.27848,0.18913,1.48884
1480535258873719,-1.27928,0.189303,1.48858
1480535258910817,-1.27928,0.189303,1.48858
1480535258918338,-1.27937,0.189437,1.48826
1480535258947415,-1.27909,0.189679,1.48776
1480535258956444,-1.27909,0.189679,1.48776
1480535258987521,-1.27923,0.189751,1.48776
1480535258994039,-1.27923,0.189751,1.48776
1480535259016599,-1.27923,0.189751,1.48776
1480535259037654,-1.27923,0.189751,1.48776
1480535259060716,-1.27921,0.189794,1.48776
1480535259084279,-1.27935,0.189867,1.48776
1480535259103329,-1.27935,0.189867,1.48776
1480535259113858,-1.27935,0.189867,1.48776
1480535259148951,-1.27935,0.189867,1.48776
1480535259163491,-1.27935,0.189867,1.48776
1480535259181538,-1.27935,0.189867,1.48776
1480535259218636,-1.27924,0.189935,1.48767
1480535259221143,-1.27924,0.189935,1.48767
1480535259238689,-1.27924,0.189935,1.48767
1480535259256236,-1.27938,0.190111,1.48782
1480535259283308,-1.27988,0.189936,1.48802
1480535259305869,-1.27988,0.189936,1.48802
1480535259316397,-1.27914,0.190107,1.48772
1480535259346983,-1.27844,0.190357,1.48773
1480535259374049,-1.27801,0.190324,1.4877
1480535259385079,-1.27801,0.190324,1.4877
1480535259430199,-1.27801,0.190324,1.4877
1480535259435212,-1.27812,0.190439,1.4877
1480535259441228,-1.27812,0.190439,1.4877
1480535259463289,-1.27811,0.190378,1.48755
1480535259478327,-1.27811,0.190378,1.48755
1480535259496876,-1.27853,0.190615,1.48717
1480535259524951,-1.27853,0.190615,1.48717
1480535259539991,-1.27854,0.190676,1.48732
1480535259556535,-1.27854,0.190676,1.48732
1480535259578092,-1.27854,0.190676,1.48732
1480535259599148,-1.27844,0.190744,1.48723
1480535259615692,-1.27844,0.190744,1.48723
1480535259652289,-1.27844,0.190744,1.48723
1480535259659316,-1.27842,0.190787,1.48723
1480535259690892,-1.27856,0.190859,1.48723
1480535259697911,-1.27842,0.190787,1.48723
1480535259726487,-1.27833,0.190916,1.48729
1480535259745538,-1.27842,0.190787,1.48723
1480535259758572,-1.27856,0.190859,1.48723
1480535259779127,-1.27856,0.190859,1.48723
1480535259795673,-1.27845,0.190928,1.48714
1480535259818231,-1.27856,0.190859,1.48723
1480535259839788,-1.27856,0.190859,1.48723
1480535259862852,-1.27856,0.190859,1.48723
1480535259877890,-1.27856,0.190859,1.48723
1480535259898945,-1.27856,0.190859,1.48723
1480535259921506,-1.27857,0.191043,1.48714
1480535259938051,-1.27858,0.191104,1.48729
1480535259959105,-1.27857,0.191043,1.48714
1480535259984674,-1.27844,0.190971,1.48713
1480535260013751,-1.2782,0.191395,1.48708
1480535260019265,-1.2782,0.191395,1.48708
1480535260035810,-1.27811,0.191524,1.48714
1480535260057869,-1.27811,0.191524,1.48714
1480535260080430,-1.27811,0.191524,1.48714
1480535260095470,-1.27811,0.191524,1.48714
1480535260119031,-1.27811,0.191524,1.48714
1480535260141592,-1.27797,0.191452,1.48714
1480535260162147,-1.27811,0.191524,1.48714
1480535260178189,-1.27811,0.191524,1.48714
1480535260218295,-1.27811,0.191524,1.48714
1480535260222314,-1.27811,0.191524,1.48714
1480535260253389,-1.2781,0.191463,1.48699
1480535260262415,-1.27811,0.191524,1.48714
1480535260299511,-1.27811,0.191524,1.48714
1480535260304027,-1.27811,0.191524,1.48714
1480535260328087,-1.27811,0.191524,1.48714
1480535260335106,-1.27811,0.191524,1.48714
1480535260358167,-1.27811,0.191524,1.48714
1480535260380728,-1.27811,0.191524,1.48714
1480535260394765,-1.27811,0.191524,1.48714
1480535260418327,-1.27811,0.191524,1.48714
1480535260448909,-1.27811,0.191524,1.48714
1480535260454924,-1.27801,0.191592,1.48705
1480535260491521,-1.27802,0.191653,1.4872
1480535260500546,-1.27801,0.191592,1.48705
1480535260515084,-1.27801,0.191592,1.48705
1480535260538147,-1.27801,0.191592,1.48705
1480535260561710,-1.27801,0.191592,1.48705
1480535260581762,-1.27811,0.191524,1.48714
1480535260607330,-1.27811,0.191524,1.48714
1480535260620867,-1.27801,0.191592,1.48705
1480535260641421,-1.27802,0.191653,1.4872
1480535260657964,-1.27788,0.191581,1.4872
1480535260681026,-1.27787,0.19152,1.48705
1480535260702082,-1.27811,0.191524,1.48714
1480535260724140,-1.27801,0.191592,1.48705
1480535260740685,-1.27801,0.191592,1.48705
1480535260761239,-1.27811,0.191524,1.48714
1480535260778284,-1.27811,0.191524,1.48714
1480535260800844,-1.27811,0.191524,1.48714
1480535260829424,-1.27855,0.191454,1.48702
1480535260851479,-1.27855,0.191454,1.48702
1480535260861005,-1.27865,0.191385,1.48711
1480535260883566,-1.27865,0.191385,1.48711
1480535260898103,-1.27855,0.191454,1.48702
1480535260920663,-1.27865,0.191385,1.48711
1480535260941721,-1.27865,0.191385,1.48711
1480535260959768,-1.27865,0.191385,1.48711
1480535260980824,-1.27865,0.191385,1.48711
1480535261010402,-1.27865,0.191385,1.48711
1480535261018424,-1.27851,0.191313,1.48711
1480535261040482,-1.27865,0.191385,1.48711
1480535261071064,-1.27865,0.191385,1.48711
1480535261077584,-1.27864,0.191325,1.48696
1480535261108163,-1.27864,0.191325,1.48696
1480535261123703,-1.27874,0.191256,1.48705
1480535261138242,-1.27886,0.191372,1.48705
1480535261162309,-1.27872,0.191299,1.48705
1480535261182864,-1.27874,0.191256,1.48705
1480535261197399,-1.27886,0.191372,1.48705
1480535261221464,-1.27872,0.191299,1.48705
1480535261258061,-1.27872,0.191299,1.48705
1480535261260568,-1.27886,0.191372,1.48705
1480535261280621,-1.27886,0.191372,1.48705
1480535261303182,-1.27886,0.191372,1.48705
1480535261317218,-1.27886,0.191372,1.48705
1480535261349373,-1.27886,0.191372,1.48705
1480535261364344,-1.27898,0.191383,1.4869
1480535261386402,-1.27909,0.191315,1.487
1480535261400440,-1.27909,0.191315,1.487
1480535261447064,-1.27897,0.191426,1.4869
1480535261451575,-1.27897,0.191426,1.4869
1480535261460600,-1.27897,0.191426,1.4869
1480535261483160,-1.27897,0.191426,1.4869
1480535261497199,-1.27897,0.191426,1.4869
1480535261529285,-1.27897,0.191426,1.4869
1480535261566882,-1.27897,0.191426,1.4869
1480535261571896,-1.27897,0.191426,1.4869
1480535261580919,-1.27897,0.191426,1.4869
1480535261602978,-1.27897,0.191426,1.4869
1480535261624035,-1.2791,0.191499,1.4869
1480535261641079,-1.2792,0.19143,1.48699
1480535261664643,-1.2792,0.19143,1.48699
1480535261684194,-1.2791,0.191499,1.4869
1480535261700739,-1.2792,0.19143,1.48699
1480535261723299,-1.27932,0.191546,1.48699
1480535261744355,-1.27922,0.191614,1.4869
1480535261760899,-1.27922,0.191614,1.4869
1480535261796496,-1.27932,0.191546,1.48699
1480535261808024,-1.27931,0.191485,1.48684
1480535261835598,-1.27931,0.191485,1.48684
1480535261843117,-1.27931,0.191485,1.48684
1480535261864173,-1.27945,0.191557,1.48684
1480535261880717,-1.27943,0.1916,1.48684
1480535261903278,-1.27944,0.191661,1.48699
1480535261924333,-1.27944,0.191661,1.48699
1480535261940376,-1.27943,0.1916,1.48684
1480535261962942,-1.27943,0.1916,1.48684
1480535261984994,-1.27957,0.191673,1.48684
1480535262000536,-1.27957,0.191673,1.48684
1480535262024099,-1.27957,0.191673,1.48684
1480535262045677,-1.27955,0.191716,1.48684
1480535262060696,-1.27968,0.191788,1.48684
1480535262083256,-1.27968,0.191788,1.48684
1480535262121357,-1.27968,0.191788,1.48684
1480535262123362,-1.27968,0.191788,1.48684
1480535262150435,-1.27968,0.191788,1.48684
1480535262165475,-1.27968,0.191788,1.48684
1480535262189539,-1.2798,0.191904,1.48684
1480535262204077,-1.2798,0.191904,1.48684
1480535262225635,-1.2798,0.191904,1.48684
1480535262239672,-1.2798,0.191904,1.48684
1480535262269254,-1.2798,0.191904,1.48684
1480535262285795,-1.2798,0.191904,1.48684
1480535262306536,-1.2798,0.191904,1.48684
1480535262323395,-1.27994,0.191976,1.48684
1480535262362003,-1.2798,0.191904,1.48684
1480535262367512,-1.2798,0.191904,1.48684
1480535262390573,-1.27993,0.191915,1.48669
1480535262406617,-1.27991,0.191958,1.48668
1480535262428174,-1.27992,0.192019,1.48683
1480535262443718,-1.27922,0.191614,1.4869
1480535262466275,-1.27797,0.191452,1.48714
1480535262486829,-1.27728,0.191315,1.48764
1480535262504449,-1.27719,0.191344,1.48825
1480535262526434,-1.27697,0.191013,1.4888
1480535262555512,-1.27677,0.190824,1.48926
1480535262564035,-1.27662,0.190671,1.4895
1480535262593112,-1.27638,0.190543,1.48965
1480535262607149,-1.27638,0.190543,1.48965
1480535262638733,-1.27651,0.190616,1.48965
1480535262645756,-1.2766,0.190487,1.48959
1480535262668313,-1.2766,0.190487,1.48959
1480535262684355,-1.27651,0.190616,1.48965
1480535262711932,-1.27651,0.190616,1.48965
1480535262733987,-1.27651,0.190616,1.48965
1480535262743011,-1.27651,0.190616,1.48965
1480535262765571,-1.27651,0.190616,1.48965
1480535262788131,-1.27555,0.190229,1.49
1480535262803171,-1.27453,0.190112,1.49033
1480535262833251,-1.27428,0.190088,1.49062
1480535262846286,-1.27453,0.189724,1.49083
1480535262872356,-1.27453,0.189724,1.49083
1480535262885390,-1.27423,0.18999,1.49071
1480535262906451,-1.27427,0.190027,1.49047
1480535262922989,-1.274,0.190207,1.49036
1480535262946053,-1.27399,0.19025,1.49036
1480535262968110,-1.27453,0.190112,1.49033
1480535262983149,-1.27453,0.190112,1.49033
1480535263011725,-1.27442,0.19018,1.49024
1480535263035289,-1.27443,0.190241,1.49039
1480535263043310,-1.27443,0.190241,1.49039
1480535263065368,-1.27442,0.19018,1.49024
1480535263102468,-1.27456,0.190253,1.49024
1480535263108984,-1.27445,0.190141,1.49094
1480535263149592,-1.27502,0.190251,1.49166
1480535263154105,-1.27573,0.190063,1.4918
1480535263162627,-1.27635,0.190004,1.492
1480535263191704,-1.27635,0.190004,1.492
1480535263208248,-1.27635,0.190004,1.492
1480535263222286,-1.27635,0.190004,1.492
1480535263246851,-1.27693,0.190295,1.49194
1480535263267907,-1.27754,0.190726,1.49179
1480535263290468,-1.27754,0.190726,1.49179
1480535263311523,-1.27781,0.190934,1.4914
1480535263328068,-1.27791,0.191253,1.491
1480535263351129,-1.27799,0.191718,1.49073
1480535263388728,-1.27799,0.191718,1.49073
1480535263391235,-1.27799,0.191718,1.49073
1480535263425827,-1.27799,0.191718,1.49073
1480535263428337,-1.27799,0.191718,1.49073
1480535263448388,-1.27812,0.191791,1.49073
1480535263471449,-1.278,0.191902,1.49064
1480535263486990,-1.27802,0.191859,1.49064
1480535263508047,-1.27802,0.191963,1.49079
1480535263529102,-1.27815,0.192035,1.49079
1480535263545648,-1.27802,0.191963,1.49079
1480535263568206,-1.27814,0.191975,1.49064
1480535263589262,-1.27814,0.191975,1.49064
1480535263605305,-1.27813,0.192079,1.49079
1480535263628370,-1.27827,0.192151,1.49079
1480535263665966,-1.27827,0.192151,1.49079
1480535263668473,-1.27884,0.192381,1.49058
1480535263696049,-1.27884,0.192381,1.49058
1480535263709081,-1.27884,0.192381,1.49058
1480535263726126,-1.27884,0.192381,1.49058
1480535263748185,-1.27884,0.192381,1.49058
1480535263769743,-1.27896,0.192497,1.49057
1480535263785785,-1.27886,0.192565,1.49048
1480535263808749,-1.27886,0.192565,1.49048
1480535263828904,-1.27886,0.192565,1.49048
1480535263845445,-1.27886,0.192565,1.49048
1480535263868505,-1.27897,0.19268,1.49048
1480535263907107,-1.27897,0.19268,1.49048
1480535263911623,-1.27899,0.192741,1.49063
1480535263943203,-1.27899,0.192741,1.49063
1480535263959246,-1.27911,0.192753,1.49048
1480535263967267,-1.27911,0.192753,1.49048
1480535263987821,-1.27909,0.192796,1.49048
1480535264025923,-1.27923,0.192869,1.49048
1480535264028434,-1.27928,0.193089,1.49016
1480535264055502,-1.2793,0.193046,1.49016
1480535264071550,-1.27921,0.193175,1.49022
1480535264093103,-1.27921,0.193175,1.49022
1480535264108644,-1.27919,0.193218,1.49022
1480535264130203,-1.27919,0.193218,1.49022
1480535264146243,-1.27919,0.193218,1.49022
1480535264174319,-1.27919,0.193218,1.49022
1480535264190360,-1.27933,0.193291,1.49022
1480535264218936,-1.27933,0.193291,1.49022
1480535264227961,-1.27931,0.193334,1.49021
1480535264250520,-1.27943,0.193346,1.49007
1480535264265060,-1.27935,0.193371,1.48998
1480535264288622,-1.27909,0.193673,1.48963
1480535264310681,-1.27924,0.193807,1.48978
1480535264325720,-1.27924,0.193807,1.48978
1480535264349283,-1.27913,0.193875,1.48969
1480535264373991,-1.27912,0.193918,1.48969
1480535264400419,-1.27912,0.193918,1.48969
1480535264424484,-1.27912,0.193918,1.48969
1480535264430502,-1.27925,0.19399,1.48969
1480535264461081,-1.27925,0.19399,1.48969
1480535264468099,-1.27923,0.194033,1.48968
1480535264491161,-1.27937,0.194106,1.48969
1480535264519236,-1.27947,0.194038,1.48978
1480535264528763,-1.27946,0.193977,1.48963
1480535264550820,-1.27946,0.193977,1.48963
1480535264579400,-1.27937,0.194106,1.48969
1480535264587918,-1.27937,0.194106,1.48969
1480535264610478,-1.27937,0.194106,1.48969
1480535264631534,-1.27949,0.194222,1.48968
1480535264648078,-1.27949,0.194222,1.48968
1480535264685177,-1.27949,0.194222,1.48968
1480535264701721,-1.27949,0.194222,1.48968
1480535264730798,-1.27949,0.194222,1.48968
1480535264733305,-1.27949,0.194222,1.48968
1480535264766894,-1.27949,0.194222,1.48968
1480535264775918,-1.27945,0.193793,1.48972
1480535264798478,-1.27939,0.193304,1.48961
1480535264813518,-1.27933,0.192815,1.48949
1480535264834073,-1.27874,0.192341,1.48965
1480535264850617,-1.27839,0.19189,1.48951
1480535264873177,-1.27815,0.191659,1.48952
1480535264894234,-1.27781,0.191496,1.48943
1480535264910778,-1.27781,0.191496,1.48943
1480535264935343,-1.27794,0.191568,1.48943
1480535264954894,-1.27802,0.191483,1.48937
1480535264978459,-1.27801,0.191973,1.48902
1480535264992995,-1.27778,0.192129,1.48852
1480535265007535,-1.27779,0.19219,1.48867
1480535265031097,-1.27778,0.192129,1.48852
1480535265053155,-1.27779,0.19219,1.48867
1480535265074713,-1.27769,0.192258,1.48858
1480535265090755,-1.27755,0.192186,1.48858
1480535265120836,-1.27755,0.192186,1.48858
1480535265135375,-1.27769,0.192258,1.48858
1480535265150417,-1.27769,0.192258,1.48858
1480535265172974,-1.27769,0.192258,1.48858
1480535265194031,-1.27778,0.192129,1.48852
1480535265212079,-1.27778,0.192129,1.48852
1480535265233636,-1.27789,0.192245,1.48852
1480535265247172,-1.27789,0.192245,1.48852
1480535265270736,-1.27791,0.192202,1.48853
1480535265293295,-1.27778,0.192129,1.48852
1480535265307332,-1.27778,0.192129,1.48852
1480535265331397,-1.27789,0.192245,1.48852
1480535265353454,-1.27789,0.192245,1.48852
1480535265374010,-1.278,0.192176,1.48861
1480535265390553,-1.27789,0.192245,1.48852
1480535265413113,-1.278,0.192176,1.48861
1480535265434169,-1.278,0.192176,1.48861
1480535265450714,-1.27799,0.192116,1.48846
1480535265473273,-1.27812,0.192188,1.48847
1480535265494332,-1.27812,0.192188,1.48847
1480535265510873,-1.27812,0.192188,1.48847
1480535265532932,-1.27812,0.192188,1.48847
1480535265554489,-1.27823,0.19212,1.48856
1480535265570533,-1.27823,0.19212,1.48856
1480535265593593,-1.27812,0.192188,1.48847
1480535265614148,-1.27823,0.19212,1.48856
1480535265630693,-1.27821,0.192059,1.48841
1480535265653252,-1.2782,0.192102,1.4884
1480535265673806,-1.27833,0.192174,1.4884
1480535265692858,-1.27833,0.192174,1.4884
1480535265729455,-1.27876,0.192208,1.48843
1480535265733966,-1.27876,0.192208,1.48843
1480535265759033,-1.27876,0.192208,1.48843
1480535265773096,-1.2789,0.192281,1.48843
1480535265795631,-1.279,0.192212,1.48852
1480535265810671,-1.27898,0.192255,1.48852
1480535265833230,-1.27898,0.192255,1.48852
1480535265856292,-1.27911,0.192267,1.48837
1480535265870832,-1.27897,0.192195,1.48837
1480535265894394,-1.27911,0.192267,1.48837
1480535265921465,-1.27911,0.192267,1.48837
1480535265931492,-1.27911,0.192267,1.48837
1480535265961070,-1.27911,0.192267,1.48837
1480535265975610,-1.27911,0.192267,1.48837
1480535265990148,-1.27909,0.19231,1.48837
1480535266013210,-1.27909,0.19231,1.48837
1480535266041786,-1.27909,0.19231,1.48837
1480535266049808,-1.27923,0.192383,1.48837
1480535266073369,-1.27933,0.192314,1.48846
1480535266095930,-1.27933,0.192314,1.48846
1480535266109968,-1.27923,0.192383,1.48837
1480535266133530,-1.27923,0.192383,1.48837
1480535266161604,-1.27935,0.192498,1.48837
1480535266170127,-1.27935,0.192498,1.48837
1480535266202212,-1.27935,0.192498,1.48837
1480535266216250,-1.27935,0.192498,1.48837
1480535266230289,-1.27935,0.192498,1.48837
1480535266252847,-1.27935,0.192498,1.48837
1480535266281425,-1.27948,0.192571,1.48837
1480535266289946,-1.27907,0.192721,1.48825
1480535266320527,-1.27879,0.192943,1.48813
1480535266343589,-1.27892,0.193016,1.48814
1480535266364144,-1.27892,0.193016,1.48814
1480535266373669,-1.27891,0.192955,1.48799
1480535266396229,-1.27889,0.192998,1.48798
1480535266416783,-1.27889,0.192998,1.48798
1480535266432825,-1.27913,0.193002,1.48808
1480535266470927,-1.27903,0.193071,1.48799
1480535266477945,-1.27903,0.193071,1.48799
1480535266517050,-1.27903,0.193071,1.48799
1480535266522063,-1.27901,0.193113,1.48798
1480535266536602,-1.27901,0.193113,1.48798
1480535266562170,-1.27902,0.193174,1.48813
1480535266576208,-1.27902,0.193174,1.48813
1480535266596763,-1.27916,0.193247,1.48813
1480535266620324,-1.27906,0.193315,1.48804
1480535266636368,-1.27906,0.193315,1.48804
1480535266657924,-1.27904,0.193358,1.48804
1480535266680489,-1.27918,0.193431,1.48804
1480535266695525,-1.27918,0.193431,1.48804
1480535266716580,-1.27918,0.193431,1.48804
1480535266733124,-1.27918,0.193431,1.48804
1480535266756185,-1.27918,0.193431,1.48804
1480535266779248,-1.27918,0.193431,1.48804
1480535266799301,-1.27918,0.193431,1.48804
1480535266823865,-1.27918,0.193431,1.48804
1480535266837903,-1.27931,0.193503,1.48804
1480535266853445,-1.27929,0.193546,1.48804
1480535266875503,-1.27929,0.193546,1.48804
1480535266900070,-1.27928,0.193485,1.48789
1480535266912603,-1.27952,0.19349,1.48798
1480535266935663,-1.27951,0.194084,1.48777
1480535266960229,-1.27941,0.194152,1.48768
1480535266972260,-1.27941,0.194152,1.48768
1480535266995322,-1.27941,0.194152,1.48768
1480535267017882,-1.27939,0.194195,1.48768
1480535267032422,-1.2794,0.194256,1.48783
1480535267063504,-1.2794,0.194256,1.48783
1480535267079045,-1.2794,0.194256,1.48783
1480535267108124,-1.2794,0.194256,1.48783
1480535267115645,-1.2794,0.194256,1.48783
1480535267153242,-1.2793,0.194324,1.48774
1480535267155247,-1.2793,0.194324,1.48774
1480535267188836,-1.2793,0.194324,1.48774
1480535267197861,-1.27944,0.194397,1.48774
1480535267212401,-1.27944,0.194397,1.48774
1480535267235461,-1.2793,0.194324,1.48774
1480535267259525,-1.2793,0.194324,1.48774
1480535267279078,-1.27944,0.194397,1.48774
1480535267296124,-1.27942,0.19444,1.48773
1480535267318180,-1.27942,0.19444,1.48773
1480535267346758,-1.27942,0.19444,1.48773
1480535267355279,-1.27942,0.19444,1.48773
1480535267377839,-1.27956,0.194512,1.48774
1480535267398897,-1.27942,0.19444,1.48773
1480535267416443,-1.27942,0.19444,1.48773
1480535267438501,-1.27942,0.19444,1.48773
1480535267460560,-1.27956,0.194512,1.48774
1480535267477103,-1.27956,0.194512,1.48774
1480535267512197,-1.27915,0.194068,1.48783
1480535267519215,-1.27906,0.194093,1.48774
1480535267535759,-1.27905,0.194136,1.48774
1480535267558320,-1.27873,0.194095,1.48795
1480535267578875,-1.27819,0.194234,1.48798
1480535267595420,-1.27779,0.194445,1.48801
1480535267626000,-1.27787,0.194419,1.4881
1480535267639035,-1.27814,0.194791,1.488
1480535267661601,-1.27856,0.195523,1.48797
1480535267678149,-1.27935,0.19629,1.48749
1480535267699202,-1.27994,0.196476,1.48728
1480535267715745,-1.28035,0.196652,1.48675
1480535267738305,-1.28055,0.196841,1.48629
1480535267766881,-1.28049,0.197007,1.48612
1480535267784429,-1.28039,0.197075,1.48603
1480535267797967,-1.28025,0.197003,1.48602
1480535267820523,-1.28027,0.19696,1.48603
1480535267835563,-1.27947,0.197118,1.48634
1480535267858124,-1.27902,0.197293,1.48661
1480535267886699,-1.27902,0.197293,1.48661
1480535267895222,-1.27916,0.197366,1.48661
1480535267920289,-1.27914,0.197408,1.48661
1480535267941345,-1.27916,0.197366,1.48661
1480535267954881,-1.27926,0.197297,1.4867
1480535267977942,-1.27926,0.197297,1.4867
1480535268001505,-1.27926,0.197297,1.4867
1480535268015043,-1.27926,0.197297,1.4867
1480535268038102,-1.27926,0.197297,1.4867
1480535268061169,-1.27916,0.197366,1.48661
1480535268081734,-1.27916,0.197366,1.48661
1480535268104278,-1.27916,0.197366,1.48661
1480535268127841,-1.27926,0.197297,1.4867
1480535268148399,-1.27938,0.197413,1.4867
1480535268164943,-1.27938,0.197413,1.4867
1480535268188502,-1.27938,0.197413,1.4867
1480535268201537,-1.27937,0.197352,1.48655
1480535268219585,-1.27937,0.197352,1.48655
1480535268240641,-1.27938,0.197413,1.4867
1480535268261698,-1.27928,0.197481,1.48661
1480535268278242,-1.27928,0.197481,1.48661
1480535268306817,-1.2798,0.197489,1.48672
1480535268338400,-1.28033,0.197454,1.48683
1480535268345421,-1.28042,0.197429,1.48692
1480535268368481,-1.28042,0.197429,1.48692
1480535268383521,-1.28042,0.197429,1.48692
1480535268406081,-1.28055,0.197502,1.48692
1480535268422625,-1.28092,0.197744,1.48677
1480535268441676,-1.28092,0.197744,1.48677
1480535268464237,-1.28102,0.197676,1.48686
1480535268480279,-1.28102,0.197676,1.48686
1480535268501334,-1.2809,0.197787,1.48676
1480535268518380,-1.2809,0.197787,1.48676
1480535268540439,-1.2809,0.197787,1.48676
1480535268562501,-1.28113,0.19773,1.48671
1480535268578540,-1.28113,0.19773,1.48671
1480535268600598,-1.28113,0.19773,1.48671
1480535268621654,-1.28126,0.197803,1.48671
1480535268638199,-1.28125,0.197846,1.48671
1480535268660759,-1.28125,0.197846,1.48671
1480535268683825,-1.28125,0.197846,1.48671
1480535268698359,-1.28138,0.197918,1.48671
1480535268720919,-1.28138,0.197918,1.48671
1480535268742977,-1.28136,0.197961,1.4867
1480535268758017,-1.28136,0.197961,1.4867
1480535268780579,-1.28146,0.197832,1.48664
1480535268803639,-1.2815,0.198034,1.48671
1480535268824193,-1.28159,0.197904,1.48665
1480535268843244,-1.28149,0.197973,1.48656
1480535268863298,-1.2813,0.197944,1.48663
1480535268877334,-1.28057,0.198072,1.48633
1480535268901402,-1.28048,0.198036,1.4861
1480535268939500,-1.28061,0.198109,1.4861
1480535268944012,-1.28061,0.198109,1.4861
1480535268968076,-1.28061,0.198109,1.4861
1480535268983118,-1.2807,0.197979,1.48604
1480535269004171,-1.28017,0.19791,1.48578
1480535269020716,-1.28017,0.19791,1.48578
1480535269043013,-1.28017,0.19791,1.48578
1480535269057313,-1.28017,0.19791,1.48578
1480535269087894,-1.28041,0.197915,1.48588
1480535269103436,-1.28041,0.197915,1.48588
1480535269131513,-1.28041,0.197915,1.48588
1480535269140534,-1.2804,0.197957,1.48587
1480535269178636,-1.28053,0.19803,1.48587
1480535269184655,-1.28053,0.19803,1.48587
1480535269201196,-1.28053,0.19803,1.48587
1480535269222754,-1.28053,0.19803,1.48587
1480535269246320,-1.28052,0.197969,1.48572
1480535269260353,-1.28053,0.19803,1.48587
1480535269282914,-1.28053,0.19803,1.48587
1480535269303971,-1.28053,0.19803,1.48587
1480535269321015,-1.28052,0.197969,1.48572
1480535269343073,-1.28052,0.197969,1.48572
1480535269373154,-1.28052,0.197969,1.48572
1480535269380676,-1.28052,0.197969,1.48572
1480535269419276,-1.28062,0.197901,1.48581
1480535269438829,-1.28062,0.197901,1.48581
1480535269456876,-1.28076,0.197973,1.48582
1480535269463394,-1.28052,0.197969,1.48572
1480535269492972,-1.28062,0.197901,1.48581
1480535269500492,-1.28062,0.197901,1.48581
1480535269523052,-1.28076,0.197973,1.48582
1480535269544109,-1.28031,0.197983,1.48579
1480535269574188,-1.27972,0.198288,1.48564
1480535269583212,-1.27972,0.198288,1.48564
1480535269607276,-1.27972,0.198288,1.48564
1480535269620311,-1.27986,0.198361,1.48565
1480535269650391,-1.27986,0.198361,1.48565
1480535269679971,-1.27984,0.1983,1.4855
1480535269694007,-1.27993,0.198274,1.48558
1480535269733612,-1.27993,0.198274,1.48558
1480535269736119,-1.27993,0.198274,1.48558
1480535269742136,-1.27993,0.198274,1.48558
1480535269770712,-1.27993,0.198274,1.48558
1480535269791766,-1.28007,0.198347,1.48558
1480535269799788,-1.27993,0.198274,1.48558
1480535269828865,-1.27993,0.198274,1.48558
1480535269851425,-1.27993,0.198274,1.48558
1480535269859948,-1.27993,0.198274,1.48558
1480535269883010,-1.27993,0.198274,1.48558
1480535269906074,-1.27993,0.198274,1.48558
1480535269929633,-1.27993,0.198274,1.48558
1480535269950188,-1.28007,0.198347,1.48558
1480535269971746,-1.28007,0.198347,1.48558
1480535269979767,-1.28007,0.198347,1.48558
1480535270010851,-1.28007,0.198347,1.48558
1480535270042433,-1.28005,0.198286,1.48543
1480535270046444,-1.28005,0.198286,1.48543
1480535270062988,-1.28016,0.198217,1.48552
1480535270086050,-1.28016,0.198217,1.48552
1480535270106604,-1.28016,0.198217,1.48552
1480535270129170,-1.28016,0.198217,1.48552
1480535270145206,-1.28016,0.198217,1.48552
1480535270166764,-1.28016,0.198217,1.48552
1480535270183809,-1.28016,0.198217,1.48552
1480535270205368,-1.28016,0.198217,1.48552
1480535270227927,-1.28016,0.198217,1.48552
1480535270243972,-1.28016,0.198217,1.48552
1480535270289591,-1.28016,0.198217,1.48552
1480535270294107,-1.28016,0.198217,1.48552
1480535270304130,-1.28029,0.19829,1.48553
1480535270325687,-1.28029,0.19829,1.48553
1480535270347746,-1.28016,0.198217,1.48552
1480535270362785,-1.2804,0.198222,1.48562
1480535270385847,-1.28028,0.198333,1.48552
1480535270408407,-1.28038,0.198161,1.48547
1480535270422946,-1.28038,0.198161,1.48547
1480535270445506,-1.28037,0.198203,1.48546
1480535270466060,-1.28037,0.198203,1.48546
1480535270483106,-1.28028,0.198333,1.48552
1480535270529229,-1.28037,0.198203,1.48546
1480535270566327,-1.28037,0.198203,1.48546
1480535270568332,-1.2805,0.198276,1.48547
1480535270573847,-1.2804,0.198344,1.48538
1480535270595404,-1.2804,0.198344,1.48538
1480535270602924,-1.2805,0.198276,1.48547
1480535270640525,-1.28049,0.198319,1.48546
1480535270649047,-1.28049,0.198319,1.48546
1480535270663084,-1.28049,0.198319,1.48546
1480535270685644,-1.28049,0.198319,1.48546
1480535270708204,-1.28062,0.198391,1.48546
1480535270722743,-1.28062,0.198391,1.48546
1480535270758839,-1.28062,0.198391,1.48546
1480535270767863,-1.28062,0.198391,1.48546
1480535270798946,-1.28062,0.198391,1.48546
1480535270805463,-1.28062,0.198391,1.48546
1480535270835041,-1.28062,0.198391,1.48546
1480535270845069,-1.28062,0.198391,1.48546
1480535270865623,-1.2806,0.198434,1.48546
1480535270890189,-1.28074,0.198507,1.48546
1480535270903224,-1.28074,0.198507,1.48546
1480535270925281,-1.28074,0.198507,1.48546
1480535270947841,-1.28073,0.198445,1.48531
1480535270962381,-1.28097,0.19845,1.4854
1480535270992964,-1.28062,0.198882,1.48511
1480535271008395,-1.28052,0.19895,1.48502
1480535271046103,-1.2805,0.198993,1.48502
1480535271049613,-1.2805,0.198993,1.48502
1480535271068663,-1.28064,0.199066,1.48502
1480535271089217,-1.28064,0.199066,1.48502
1480535271106264,-1.28074,0.198997,1.48511
1480535271127821,-1.28074,0.198997,1.48511
1480535271148877,-1.28074,0.198997,1.48511
1480535271165420,-1.28088,0.19907,1.48511
1480535271187981,-1.28076,0.199181,1.48502
1480535271209038,-1.28086,0.199113,1.48511
1480535271225581,-1.28086,0.199113,1.48511
1480535271248141,-1.28086,0.199113,1.48511
1480535271279224,-1.28086,0.199113,1.48511
1480535271285741,-1.28099,0.199124,1.48496
1480535271307799,-1.28099,0.199124,1.48496
1480535271328855,-1.28097,0.199167,1.48495
1480535271345399,-1.28097,0.199167,1.48495
1480535271367959,-1.28097,0.199167,1.48495
1480535271389015,-1.2811,0.19924,1.48496
1480535271405559,-1.2811,0.19924,1.48496
1480535271429122,-1.2811,0.19924,1.48496
1480535271457196,-1.28097,0.199167,1.48495
1480535271468728,-1.2811,0.19924,1.48496
1480535271487778,-1.2811,0.19924,1.48496
1480535271519362,-1.2811,0.19924,1.48496
1480535271525378,-1.2811,0.19924,1.48496
1480535271548941,-1.28121,0.199171,1.48505
1480535271571501,-1.2821,0.199213,1.48472
1480535271594562,-1.2827,0.199294,1.48436
1480535271614115,-1.28309,0.199285,1.48393
1480535271630658,-1.28338,0.199344,1.48341
1480535271651714,-1.28375,0.199377,1.48297
1480535271668259,-1.28375,0.199377,1.48297
1480535271690317,-1.28368,0.199464,1.48303
1480535271704857,-1.28353,0.19933,1.48288
1480535271735437,-1.28332,0.199344,1.48294
1480535271750979,-1.28269,0.199509,1.48288
1480535271796599,-1.28237,0.199304,1.48281
1480535271800610,-1.28237,0.199304,1.48281
1480535271835202,-1.28235,0.199347,1.4828
1480535271839212,-1.28259,0.199351,1.48289
1480535271849240,-1.28259,0.199351,1.48289
1480535271870297,-1.28258,0.19929,1.48274
1480535271891352,-1.28258,0.19929,1.48274
1480535271907896,-1.28258,0.19929,1.48274
1480535271937977,-1.28259,0.199351,1.48289
1480535271944995,-1.28259,0.199351,1.48289
1480535271968056,-1.28246,0.199175,1.48275
1480535271990615,-1.28246,0.199175,1.48275
1480535272013178,-1.28236,0.199017,1.48275
1480535272027714,-1.28265,0.198585,1.48258
1480535272057794,-1.28345,0.197665,1.48218
1480535272074339,-1.28444,0.194905,1.48188
1480535272101410,-1.28452,0.192026,1.48216
1480535272116952,-1.28347,0.190193,1.48279
1480535272139010,-1.28166,0.188943,1.48301
1480535272148537,-1.28055,0.188751,1.48311
1480535272170595,-1.2805,0.189309,1.48313
1480535272193154,-1.28053,0.189553,1.48319
1480535272208194,-1.28128,0.189503,1.48324
1480535272230756,-1.28152,0.189507,1.48334
1480535272251812,-1.28129,0.189192,1.48281
1480535272268355,-1.28079,0.188977,1.48241
1480535272297933,-1.28005,0.188819,1.48207
1480535272311469,-1.28005,0.188819,1.48207
1480535272334029,-1.28005,0.188819,1.48207
1480535272350573,-1.28009,0.18896,1.48198
1480535272379149,-1.27946,0.188635,1.48228
1480535272388173,-1.27898,0.188278,1.48243
1480535272410738,-1.2788,0.187778,1.48246
1480535272431796,-1.27888,0.187361,1.48235
1480535272447831,-1.27815,0.187308,1.48215
1480535272470894,-1.27791,0.187569,1.48181
1480535272493956,-1.27791,0.187569,1.48181
1480535272507991,-1.27789,0.187508,1.48166
1480535272530553,-1.278,0.18744,1.48175
1480535272553111,-1.278,0.18744,1.48175
1480535272568653,-1.27854,0.18769,1.48192
1480535272590712,-1.27942,0.187835,1.48173
1480535272612770,-1.28012,0.188115,1.48191
1480535272633826,-1.2801,0.188158,1.48191
1480535272657890,-1.2801,0.188158,1.48191
1480535272673631,-1.28068,0.188159,1.48179
1480535272695491,-1.28068,0.188159,1.48179
1480535272710533,-1.28068,0.188159,1.48179
1480535272742115,-1.28068,0.188159,1.48179
1480535272747127,-1.28068,0.188159,1.48179
1480535272778211,-1.28066,0.188098,1.48164
1480535272793254,-1.28068,0.188159,1.48179
1480535272807288,-1.28112,0.188375,1.48173
1480535272830349,-1.28123,0.188306,1.48182
1480535272852909,-1.28123,0.188306,1.48182
1480535272867449,-1.28112,0.188375,1.48173
1480535272904046,-1.28111,0.188418,1.48172
1480535272913069,-1.28124,0.18849,1.48172
1480535272941647,-1.28124,0.18849,1.48172
1480535272950670,-1.28135,0.188421,1.48181
1480535272980248,-1.28135,0.188421,1.48181
1480535272993788,-1.28135,0.188421,1.48181
1480535273010331,-1.28148,0.188493,1.48182
1480535273033891,-1.28146,0.188536,1.48181
1480535273061464,-1.28146,0.188536,1.48181
1480535273070490,-1.28138,0.188562,1.48173
1480535273101069,-1.28145,0.188476,1.48166
1480535273114106,-1.28159,0.188548,1.48167
1480535273138169,-1.28146,0.189027,1.48146
1480535273183789,-1.28144,0.18907,1.48145
1480535273185796,-1.28144,0.18907,1.48145
1480535273192814,-1.28158,0.189142,1.48146
1480535273213869,-1.28158,0.189142,1.48146
1480535273234925,-1.28156,0.189185,1.48145
1480535273250467,-1.28158,0.189142,1.48146
1480535273279042,-1.28156,0.189185,1.48145
1480535273295089,-1.2817,0.189257,1.48145
1480535273310632,-1.2817,0.189257,1.48145
1480535273334690,-1.2817,0.189257,1.48145
1480535273354244,-1.2817,0.189257,1.48145
1480535273370286,-1.28158,0.189368,1.48136
1480535273394851,-1.28158,0.189368,1.48136
1480535273415407,-1.28172,0.18944,1.48136
1480535273437967,-1.28172,0.18944,1.48136
1480535273461026,-1.28185,0.189512,1.48136
1480535273476571,-1.28183,0.189555,1.48136
1480535273490606,-1.28183,0.189555,1.48136
1480535273513166,-1.28194,0.189487,1.48145
1480535273536227,-1.28207,0.189559,1.48145
1480535273559793,-1.28206,0.189602,1.48145
1480535273580344,-1.28195,0.18967,1.48136
1480535273595384,-1.28206,0.189602,1.48145
1480535273616440,-1.28219,0.189674,1.48145
1480535273632984,-1.28209,0.189743,1.48136
1480535273656046,-1.28209,0.189743,1.48136
1480535273677104,-1.28221,0.189858,1.48136
1480535273693147,-1.28221,0.189858,1.48136
1480535273716707,-1.28221,0.189858,1.48136
1480535273722221,-1.28233,0.189973,1.48135
1480535273739997,-1.28243,0.189904,1.48144
1480535273758318,-1.28242,0.189843,1.4813
1480535273780878,-1.28238,0.190193,1.48103
1480535273797422,-1.28238,0.190193,1.48103
1480535273818477,-1.28253,0.190326,1.48118
1480535273842542,-1.28253,0.190326,1.48118
1480535273859085,-1.28241,0.190437,1.48109
1480535273894699,-1.28241,0.190437,1.48109
1480535273900696,-1.28241,0.190437,1.48109
1480535273932280,-1.28251,0.190369,1.48118
1480535273938297,-1.28264,0.19038,1.48103
1480535273972888,-1.28264,0.19038,1.48103
1480535273983416,-1.28262,0.190423,1.48102
1480535273998457,-1.28276,0.190495,1.48103
1480535274021016,-1.28276,0.190495,1.48103
1480535274039341,-1.28276,0.190495,1.48103
1480535274058617,-1.28276,0.190495,1.48103
1480535274081176,-1.28289,0.190567,1.48103
1480535274098723,-1.28288,0.19061,1.48103
1480535274118275,-1.28288,0.19061,1.48103
1480535274140836,-1.28301,0.190682,1.48103
1480535274174926,-1.28301,0.190682,1.48103
1480535274179939,-1.28268,0.190808,1.48099
1480535274210022,-1.28268,0.190808,1.48099
1480535274232078,-1.28282,0.19088,1.481
1480535274238095,-1.28268,0.190808,1.48099
1480535274261155,-1.28268,0.190808,1.48099
1480535274295246,-1.28282,0.19088,1.481
1480535274300762,-1.28282,0.19088,1.481
1480535274320813,-1.28245,0.190474,1.48086
1480535274343376,-1.28211,0.190312,1.48077
1480535274365935,-1.28211,0.190312,1.48077
1480535274388493,-1.28225,0.190384,1.48077
1480535274415064,-1.28225,0.190384,1.48077
1480535274426096,-1.28225,0.190384,1.48077
1480535274452163,-1.28161,0.190489,1.48056
1480535274463192,-1.28174,0.190561,1.48057
1480535274488761,-1.28151,0.190331,1.48057
1480535274500793,-1.28152,0.190288,1.48058
1480535274523352,-1.28152,0.190288,1.48058
1480535274538392,-1.28151,0.190331,1.48057
1480535274571481,-1.28151,0.190331,1.48057
1480535274593041,-1.28151,0.190331,1.48057
1480535274598553,-1.28151,0.190331,1.48057
1480535274620611,-1.28163,0.190342,1.48043
1480535274644174,-1.28163,0.190342,1.48043
1480535274658211,-1.28163,0.190342,1.48043
1480535274691802,-1.28163,0.190342,1.48043
1480535274703333,-1.28163,0.190342,1.48043
1480535274728899,-1.28161,0.190385,1.48042
1480535274740931,-1.28175,0.190457,1.48043
1480535274764995,-1.28161,0.190385,1.48042
1480535274781038,-1.28161,0.190385,1.48042
1480535274801091,-1.28175,0.190457,1.48043
1480535274823651,-1.28175,0.190457,1.48043
1480535274845710,-1.28175,0.190457,1.48043
1480535274860750,-1.28187,0.190572,1.48042
1480535274884313,-1.28187,0.190572,1.48042
1480535274905870,-1.28187,0.190572,1.48042
1480535274922414,-1.28187,0.190572,1.48042
1480535274968036,-1.28187,0.190572,1.48042
1480535274970542,-1.28187,0.190572,1.48042
1480535274981070,-1.28187,0.190572,1.48042
1480535275003630,-1.28187,0.190572,1.48042
1480535275019672,-1.28201,0.190645,1.48043
1480535275040730,-1.28201,0.190645,1.48043
1480535275063288,-1.28208,0.190558,1.48036
1480535275081337,-1.28208,0.190558,1.48036
1480535275100889,-1.28171,0.190911,1.4803
1480535275126457,-1.28174,0.191052,1.48022
1480535275154531,-1.28174,0.191052,1.48022
1480535275161049,-1.28232,0.191278,1.48
1480535275183608,-1.28313,0.191508,1.47989
1480535275202159,-1.28325,0.191519,1.47974
1480535275228227,-1.2832,0.191808,1.47932
1480535275244771,-1.28356,0.192416,1.47906
1480535275261817,-1.28357,0.193194,1.47876
1480535275283876,-1.28419,0.193622,1.47861
1480535275303428,-1.28479,0.193805,1.47841
1480535275321977,-1.28477,0.193744,1.47826
1480535275357070,-1.28474,0.193867,1.47809
1480535275371109,-1.28464,0.193936,1.478
1480535275382143,-1.28464,0.193936,1.478
1480535275402190,-1.28464,0.193936,1.478
1480535275423246,-1.28462,0.193978,1.47799
1480535275441295,-1.28462,0.193978,1.47799
1480535275464356,-1.28462,0.193978,1.47799
1480535275483406,-1.28476,0.19405,1.478
1480535275505967,-1.28476,0.19405,1.478
1480535275528526,-1.28476,0.19405,1.478
1480535275547076,-1.28476,0.19405,1.478
1480535275562116,-1.28467,0.19418,1.47806
1480535275580665,-1.28467,0.19418,1.47806
1480535275603226,-1.28467,0.19418,1.47806
1480535275625787,-1.28467,0.19418,1.47806
1480535275640825,-1.28467,0.19418,1.47806
1480535275666894,-1.28477,0.194234,1.4779
1480535275685945,-1.28479,0.194295,1.47805
1480535275708506,-1.28479,0.194295,1.47805
1480535275723545,-1.28488,0.194165,1.47799
1480535275746106,-1.28488,0.194655,1.47764
1480535275763652,-1.28475,0.194969,1.47714
1480535275792229,-1.28475,0.194969,1.47714
1480535275806394,-1.28475,0.194969,1.47714
1480535275837349,-1.28475,0.194969,1.47714
1480535275843366,-1.28475,0.194969,1.47714
1480535275865925,-1.28475,0.194969,1.47714
1480535275882468,-1.28475,0.194969,1.47714
1480535275903524,-1.28475,0.194969,1.47714
1480535275934105,-1.28476,0.19503,1.47729
1480535275942127,-1.28476,0.19503,1.47729
1480535275964686,-1.28476,0.19503,1.47729
1480535275995267,-1.28475,0.194969,1.47714
1480535276008304,-1.28489,0.195041,1.47715
1480535276023343,-1.28487,0.195084,1.47714
1480535276045903,-1.28487,0.195084,1.47714
1480535276062446,-1.28487,0.195084,1.47714
1480535276085006,-1.28487,0.195084,1.47714
1480535276106159,-1.28487,0.195084,1.47714
1480535276122105,-1.28487,0.195084,1.47714
1480535276160207,-1.28487,0.195084,1.47714
1480535276174244,-1.28487,0.195084,1.47714
1480535276182266,-1.28487,0.195084,1.47714
1480535276203322,-1.28487,0.195084,1.47714
1480535276233401,-1.2847,0.194541,1.47718
1480535276243929,-1.28431,0.193952,1.47713
1480535276266490,-1.28404,0.193581,1.47723
1480535276287545,-1.28368,0.193237,1.47723
1480535276304592,-1.28328,0.192856,1.47747
1480535276331161,-1.28328,0.192856,1.47747
1480535276353220,-1.28328,0.192856,1.47747
1480535276369765,-1.28342,0.192928,1.47748
1480535276390820,-1.28342,0.192928,1.47748
1480535276413882,-1.28341,0.192867,1.47733
1480535276431428,-1.28351,0.192798,1.47742
1480535276443462,-1.28326,0.192997,1.47692
1480535276473541,-1.28279,0.19315,1.47634
1480535276488580,-1.28282,0.193065,1.47635
1480535276503621,-1.28282,0.193065,1.47635
1480535276526681,-1.28282,0.193065,1.47635
1480535276548239,-1.28272,0.193133,1.47626
1480535276563279,-1.2826,0.193019,1.47626
1480535276585838,-1.28282,0.193065,1.47635
1480535276618425,-1.28281,0.193004,1.4762
1480535276623438,-1.28281,0.193004,1.4762
1480535276645999,-1.28281,0.193004,1.4762
1480535276664548,-1.28281,0.193004,1.4762
1480535276684602,-1.28281,0.193004,1.4762
1480535276706158,-1.28281,0.193004,1.4762
1480535276728217,-1.28281,0.193004,1.4762
1480535276744761,-1.28281,0.193004,1.4762
1480535276773509,-1.28281,0.193004,1.4762
1480535276784366,-1.28281,0.193004,1.4762
1480535276810937,-1.28291,0.192935,1.47629
1480535276825978,-1.2829,0.192874,1.47614
1480535276848537,-1.2829,0.192874,1.47614
1480535276866085,-1.28304,0.192946,1.47615
1480535276896165,-1.28335,0.192862,1.47617
1480535276904687,-1.28335,0.192862,1.47617
1480535276925242,-1.28333,0.192905,1.47617
1480535276945798,-1.28333,0.192905,1.47617
1480535276968357,-1.28336,0.192924,1.47632
1480535276984900,-1.28336,0.192924,1.47632
1480535277005956,-1.28322,0.192852,1.47632
1480535277024506,-1.28336,0.192924,1.47632
1480535277044559,-1.28326,0.192992,1.47623
1480535277065615,-1.28336,0.192924,1.47632
1480535277099705,-1.28336,0.192924,1.47632
1480535277105220,-1.2837,0.193311,1.47631
1480535277126778,-1.28543,0.19403,1.47621
1480535277148335,-1.28613,0.194432,1.47614
1480535277164879,-1.28607,0.194536,1.47582
1480535277193455,-1.28565,0.194891,1.4753
1480535277210500,-1.28517,0.195412,1.47461
1480535277226543,-1.28577,0.19631,1.47395
1480535277264144,-1.28782,0.19733,1.47338
1480535277268153,-1.28928,0.198167,1.47302
1480535277286703,-1.28965,0.198896,1.47251
1480535277305794,-1.29089,0.200281,1.47185
1480535277328313,-1.28934,0.201958,1.47213
1480535277346362,-1.28674,0.204061,1.47238
1480535277365914,-1.28266,0.206271,1.47254
1480535277395994,-1.28094,0.207836,1.47238
1480535277412538,-1.28155,0.209871,1.4724
1480535277426076,-1.28127,0.211829,1.47291
1480535277448133,-1.27999,0.213387,1.47347
1480535277470694,-1.27694,0.214619,1.47389
1480535277494756,-1.27333,0.215625,1.47386
1480535277508293,-1.27062,0.215865,1.47339
1480535277530853,-1.27062,0.216463,1.4732
1480535277547396,-1.27259,0.217244,1.47277
1480535277568452,-1.27453,0.217616,1.47254
1480535277586500,-1.27557,0.218116,1.4724
1480535277615077,-1.27557,0.218116,1.4724
1480535277635631,-1.27557,0.218116,1.4724
1480535277646160,-1.27591,0.217576,1.47253
1480535277665711,-1.27665,0.21643,1.47243
1480535277705316,-1.27734,0.215348,1.47202
1480535277707823,-1.27851,0.214559,1.4713
1480535277725871,-1.28069,0.213901,1.47064
1480535277748431,-1.28209,0.213014,1.47056
1480535277770992,-1.28181,0.211944,1.47071
1480535277788037,-1.27993,0.211034,1.47106
1480535277808090,-1.27819,0.210462,1.47063
1480535277831152,-1.27816,0.210543,1.46993
1480535277854713,-1.28097,0.209777,1.46947
1480535277900836,-1.28503,0.208196,1.46908
1480535277904347,-1.28626,0.206871,1.46919
1480535277913370,-1.2849,0.205796,1.46867
1480535277935930,-1.28222,0.20517,1.46841
1480535277947461,-1.28133,0.204437,1.4688
1480535277975034,-1.28205,0.203603,1.46915
1480535277996090,-1.28191,0.202606,1.46931
1480535278007119,-1.27991,0.201149,1.46893
1480535278028677,-1.27788,0.200891,1.46891
1480535278050736,-1.27751,0.201083,1.46856
1480535278066277,-1.2775,0.200423,1.46793
1480535278094853,-1.27839,0.200232,1.4677
1480535278108389,-1.27964,0.200218,1.46717
1480535278126439,-1.27922,0.199981,1.46686
1480535278147493,-1.27789,0.19965,1.46673
1480535278177573,-1.27652,0.200084,1.46691
1480535278186095,-1.27567,0.200088,1.46702
1480535278213167,-1.27555,0.200199,1.46692
1480535278228207,-1.27602,0.199938,1.46735
1480535278246255,-1.27672,0.199249,1.46784
1480535278268817,-1.27609,0.198601,1.46946
1480535278288368,-1.27316,0.198104,1.47154
1480535278306415,-1.26784,0.198294,1.47281
1480535278338502,-1.26351,0.198821,1.47375
1480535278348527,-1.26229,0.198907,1.47474
1480535278366074,-1.26196,0.198907,1.47564
1480535278388634,-1.26174,0.198919,1.47639
1480535278409694,-1.26107,0.199131,1.4771
1480535278426234,-1.26073,0.199462,1.47736
1480535278462831,-1.26143,0.20013,1.47773
1480535278484890,-1.26247,0.200689,1.47843
1480535278490907,-1.26224,0.201237,1.47883
1480535278516474,-1.26177,0.201765,1.47884
1480535278530010,-1.26191,0.202721,1.4787
1480535278561093,-1.26331,0.203525,1.47856
1480535278568613,-1.26521,0.204252,1.47876
1480535278595686,-1.26635,0.205628,1.4794
1480535278612230,-1.26609,0.207393,1.48048
1480535278636294,-1.26518,0.209081,1.48145
1480535278648324,-1.26431,0.209983,1.48249
1480535278689435,-1.26433,0.211419,1.48353
1480535278693444,-1.26509,0.213073,1.48506
1480535278733051,-1.26675,0.214027,1.487
1480535278735055,-1.26708,0.21456,1.48906
1480535278757114,-1.26638,0.215799,1.49047
1480535278771152,-1.2657,0.216624,1.4913
1480535278801232,-1.26589,0.217188,1.49212
1480535278808755,-1.26696,0.218004,1.49289
1480535278835824,-1.26818,0.218689,1.49406
1480535278850875,-1.26908,0.219292,1.49492
1480535278881445,-1.26935,0.219935,1.49597
1480535278889968,-1.27004,0.22045,1.49674
1480535278913530,-1.271,0.221155,1.49751
1480535278928570,-1.27214,0.221664,1.49831
1480535278955643,-1.27316,0.221996,1.49896
1480535278970683,-1.27443,0.222128,1.4994
1480535279001264,-1.27603,0.222156,1.49949
1480535279011290,-1.27744,0.222319,1.4994
1480535279041875,-1.27856,0.222686,1.49958
1480535279048891,-1.27842,0.222612,1.49958
1480535279070448,-1.27774,0.222447,1.49971
1480535279091007,-1.27652,0.222417,1.49988
1480535279113563,-1.27643,0.222547,1.49995
1480535279132117,-1.27657,0.222625,1.50065
1480535279162693,-1.2769,0.2229,1.50158
1480535279168709,-1.27703,0.223083,1.50243
1480535279204806,-1.27683,0.223388,1.50325
1480535279210821,-1.27684,0.223559,1.50425
1480535279234885,-1.27686,0.223914,1.50516
1480535279251429,-1.27726,0.224307,1.50562
1480535279270982,-1.27789,0.224436,1.50572
1480535279288528,-1.27763,0.224615,1.50562
1480535279311088,-1.27657,0.225062,1.5049
1480535279338161,-1.27576,0.225309,1.50398
1480535279363728,-1.27545,0.225384,1.50326
1480535279371251,-1.27517,0.225231,1.50256
1480535279408348,-1.27505,0.225215,1.50201
1480535279410854,-1.27465,0.224928,1.5017
1480535279444443,-1.27433,0.224616,1.50147
1480535279450960,-1.2734,0.224155,1.50146
1480535279473520,-1.27192,0.223542,1.50142
1480535279491067,-1.27021,0.222758,1.50155
1480535279510619,-1.26892,0.222278,1.50159
1480535279528667,-1.26845,0.221977,1.5019
1480535279558749,-1.26786,0.221786,1.50212
1480535279571790,-1.26786,0.221786,1.50212
1480535279588826,-1.26807,0.221774,1.50205
1480535279611387,-1.26794,0.222089,1.50156
1480535279641467,-1.26809,0.22245,1.50092
1480535279648987,-1.26801,0.222701,1.50004
1480535279684080,-1.26829,0.222971,1.49911
1480535279722683,-1.26858,0.223241,1.49817
1480535279725192,-1.26848,0.223412,1.49754
1480535279731707,-1.26819,0.223469,1.49713
1480535279752762,-1.26811,0.223495,1.49705
1480535279768805,-1.2681,0.223599,1.4972
1480535279791365,-1.26751,0.223738,1.49747
1480535279819941,-1.267,0.223791,1.49821
1480535279831472,-1.26693,0.223775,1.49883
1480535279864059,-1.267,0.223359,1.49941
1480535279872349,-1.26707,0.223418,1.50003
1480535279900656,-1.26707,0.223418,1.50003
1480535279918704,-1.26705,0.22346,1.50002
1480535279962821,-1.26718,0.223144,1.50052
1480535279965328,-1.26684,0.222876,1.50098
1480535280000421,-1.26633,0.222762,1.50143
1480535280003931,-1.2662,0.223018,1.50203
1480535280008947,-1.26644,0.223148,1.50258
1480535280031505,-1.26652,0.223329,1.50296
1480535280067098,-1.26626,0.224127,1.50297
1480535280073616,-1.26612,0.224919,1.50322
1480535280112721,-1.26613,0.22498,1.50337
1480535280115227,-1.26613,0.22498,1.50337
1480535280133274,-1.26677,0.225004,1.50332
1480535280151322,-1.2672,0.225144,1.50349
1480535280197445,-1.26747,0.225025,1.50374
1480535280202459,-1.26749,0.225478,1.5041
1480535280234043,-1.26739,0.225546,1.50401
1480535280238556,-1.26759,0.225637,1.50409
1480535280270642,-1.26843,0.226125,1.50473
1480535280275657,-1.26913,0.226417,1.5056
1480535280299718,-1.26859,0.226449,1.50619
1480535280313253,-1.26767,0.226647,1.50683
1480535280343334,-1.26675,0.226845,1.50748
1480535280358376,-1.26669,0.227014,1.50801
1480535280382940,-1.26692,0.226961,1.50865
1480535280391462,-1.26704,0.226749,1.50929
1480535280421542,-1.26683,0.226597,1.50976
1480535280433574,-1.26672,0.226274,1.51016
1480535280473179,-1.26688,0.226101,1.51057
1480535280478193,-1.26694,0.226099,1.51104
1480535280517798,-1.26694,0.226099,1.51104
1480535280519302,-1.26694,0.226099,1.51104
1480535280555899,-1.26693,0.226038,1.51089
1480535280558408,-1.26705,0.226155,1.51089
1480535280571441,-1.26715,0.226088,1.51098
1480535280592998,-1.26715,0.226088,1.51098
1480535280614054,-1.26715,0.226088,1.51098
1480535280630597,-1.26723,0.226164,1.51051
1480535280654161,-1.26707,0.226234,1.50995
1480535280674214,-1.26737,0.226361,1.50956
1480535280696272,-1.26755,0.226205,1.50888
1480535280712816,-1.2672,0.226244,1.50839
1480535280750918,-1.26647,0.226469,1.50757
1480535280753424,-1.26583,0.226669,1.50682
1480535280797542,-1.26587,0.226543,1.50629
1480535280817094,-1.26693,0.22642,1.50564
1480535280834140,-1.26845,0.226475,1.50494
1480535280839156,-1.26961,0.226509,1.50429
1480535280854192,-1.27007,0.226624,1.50337
1480535280876752,-1.27033,0.226648,1.50237
1480535280892795,-1.27039,0.226868,1.50135
1480535280913851,-1.27029,0.227038,1.50071
1480535280932400,-1.27013,0.226881,1.50025
1480535280952955,-1.26961,0.226705,1.49985
1480535280983036,-1.269,0.226659,1.49951
1480535280991056,-1.269,0.226659,1.49951
1480535281028155,-1.26888,0.226543,1.49951
1480535281036680,-1.26888,0.226543,1.49951
1480535281064252,-1.2691,0.226591,1.4996
1480535281074278,-1.2691,0.226591,1.4996
1480535281095835,-1.26927,0.226539,1.49907
1480535281110375,-1.26945,0.226486,1.49854
1480535281132934,-1.26962,0.226825,1.49821
1480535281155494,-1.26962,0.226825,1.49821
1480535281169532,-1.26998,0.226287,1.49764
1480535281193093,-1.27006,0.226467,1.49733
1480535281216658,-1.27006,0.226467,1.49733
1480535281229692,-1.27006,0.226467,1.49733
1480535281260272,-1.27006,0.226467,1.49733
1480535281275313,-1.27006,0.226467,1.49733
1480535281305393,-1.27006,0.226467,1.49733
1480535281313414,-1.27018,0.226583,1.49732
1480535281343996,-1.27018,0.226583,1.49732
1480535281351014,-1.26967,0.226696,1.49698
1480535281374577,-1.26937,0.227333,1.49677
1480535281395632,-1.26937,0.227333,1.49677
1480535281410172,-1.26936,0.227375,1.49676
1480535281433233,-1.26936,0.227375,1.49676
1480535281456294,-1.26989,0.227239,1.49672
1480535281491891,-1.27033,0.227274,1.49674
1480535281507931,-1.27033,0.227274,1.49674
1480535281515451,-1.27043,0.227206,1.49683
1480535281546033,-1.27043,0.227206,1.49683
1480535281553051,-1.27043,0.227206,1.49683
1480535281590150,-1.27043,0.227206,1.49683
1480535281604188,-1.27041,0.227248,1.49682
1480535281618726,-1.27043,0.227206,1.49683
1480535281635270,-1.2705,0.227118,1.49676
1480535281656827,-1.27064,0.227193,1.49676
1480535281673376,-1.27064,0.227193,1.49676
1480535281695430,-1.27064,0.227193,1.49676
1480535281716486,-1.27064,0.227193,1.49676
1480535281733030,-1.27119,0.227344,1.49678
1480535281770632,-1.27119,0.227344,1.49678
1480535281784167,-1.27119,0.227344,1.49678
1480535281792689,-1.27119,0.227344,1.49678
1480535281823271,-1.27119,0.227344,1.49678
1480535281853350,-1.27119,0.227344,1.49678
1480535281855857,-1.27133,0.227418,1.49678
1480535281882929,-1.27133,0.227418,1.49678
1480535281896966,-1.27106,0.22694,1.49672
1480535281936069,-1.27106,0.22694,1.49672
1480535281938578,-1.27104,0.226982,1.49672
1480535281965649,-1.27104,0.226982,1.49672
1480535281973671,-1.27158,0.22635,1.49632
1480535281996230,-1.27143,0.226316,1.49562
1480535282017788,-1.27092,0.226801,1.49517
1480535282064411,-1.26976,0.226605,1.49482
1480535282068926,-1.26839,0.22632,1.49439
1480535282091987,-1.26789,0.226104,1.494
1480535282101009,-1.26823,0.225774,1.49373
1480535282123070,-1.26831,0.225582,1.49351
1480535282138108,-1.26831,0.225582,1.49351
1480535282166684,-1.26791,0.225299,1.4932
1480535282175710,-1.26738,0.225229,1.49295
1480535282205287,-1.26738,0.225229,1.49295
1480535282212305,-1.26738,0.225229,1.49295
1480535282242886,-1.26738,0.225229,1.49295
1480535282257929,-1.26738,0.225229,1.49295
1480535282279985,-1.26738,0.225229,1.49295
1480535282297031,-1.26696,0.225092,1.49278
1480535282341653,-1.26651,0.224874,1.49286
1480535282378747,-1.26651,0.224874,1.49286
1480535282380753,-1.26651,0.224874,1.49286
1480535282386268,-1.26651,0.224874,1.49286
1480535282401308,-1.26651,0.224874,1.49286
1480535282415345,-1.26636,0.224512,1.49279
1480535282439033,-1.26636,0.224512,1.49279
1480535282458962,-1.2665,0.224586,1.4928
1480535282483025,-1.26636,0.224512,1.49279
1480535282498067,-1.26636,0.224512,1.49279
1480535282520625,-1.26636,0.224512,1.49279
1480535282535665,-1.26636,0.224512,1.49279
1480535282572262,-1.26636,0.224512,1.49279
1480535282579281,-1.26636,0.224512,1.49279
1480535282602845,-1.26636,0.224512,1.49279
1480535282619388,-1.26636,0.224512,1.49279
1480535282646459,-1.26571,0.224327,1.49254
1480535282655484,-1.26491,0.22475,1.49264
1480535282679047,-1.26431,0.2245,1.4927
1480535282699101,-1.26415,0.224016,1.49288
1480535282716146,-1.26376,0.223917,1.49318
1480535282738204,-1.26376,0.223422,1.49352
1480535282760263,-1.26375,0.22303,1.49401
1480535282776305,-1.26313,0.22276,1.49447
1480535282798365,-1.26276,0.222454,1.49447
1480535282818919,-1.26243,0.222352,1.49454
1480535282834961,-1.26229,0.222277,1.49453
1480535282858024,-1.26243,0.222352,1.49454
1480535282897126,-1.26241,0.222393,1.49453
1480535282903143,-1.26243,0.222352,1.49454
1480535282919186,-1.26218,0.222058,1.49439
1480535282940241,-1.26171,0.221882,1.49446
1480535282961297,-1.26138,0.221779,1.49453
1480535282977841,-1.26138,0.221779,1.49453
1480535283000401,-1.26138,0.221779,1.49453
1480535283015441,-1.26138,0.221779,1.49453
1480535283046023,-1.26147,0.22165,1.49446
1480535283060561,-1.26147,0.22165,1.49446
1480535283075104,-1.26147,0.22165,1.49446
1480535283098161,-1.26147,0.22165,1.49446
1480535283127740,-1.26147,0.22165,1.49446
1480535283135763,-1.26158,0.221582,1.49455
1480535283165842,-1.26152,0.221586,1.49408
1480535283180381,-1.2614,0.221573,1.49423
1480535283194918,-1.2618,0.221857,1.49385
1480535283217980,-1.26221,0.222141,1.49346
1480535283240039,-1.26291,0.222159,1.49318
1480535283254577,-1.26297,0.222279,1.49271
1480535283278140,-1.26254,0.222679,1.4922
1480535283300198,-1.26244,0.223016,1.49187
1480535283315239,-1.26234,0.223085,1.49178
1480535283338802,-1.26234,0.223085,1.49178
1480535283361865,-1.26234,0.223085,1.49178
1480535283388934,-1.26297,0.222817,1.49167
1480535283406983,-1.26297,0.222817,1.49167
1480535283443580,-1.26303,0.222712,1.4913
1480535283447089,-1.26319,0.222702,1.49076
1480535283458121,-1.26405,0.222873,1.49025
1480535283480177,-1.2652,0.223004,1.48975
1480535283508757,-1.26588,0.22327,1.48907
1480535283517777,-1.26625,0.223843,1.48828
1480535283548359,-1.26684,0.224238,1.48766
1480535283561394,-1.2673,0.224455,1.4869
1480535283577937,-1.26763,0.22466,1.48628
1480535283608019,-1.26801,0.224593,1.48569
1480535283628573,-1.26853,0.224703,1.48524
1480535283644122,-1.26892,0.224904,1.48509
1480535283669180,-1.26868,0.224898,1.485
1480535283683218,-1.26869,0.22496,1.48515
1480535283703773,-1.26912,0.224889,1.48503
1480535283720818,-1.26994,0.225123,1.48489
1480535283741373,-1.27053,0.225413,1.48482
1480535283757921,-1.27085,0.225451,1.4846
1480535283780978,-1.27141,0.225167,1.48442
1480535283801532,-1.27157,0.225155,1.48389
1480535283818076,-1.27186,0.22532,1.4835
1480535283840636,-1.2724,0.225778,1.48327
1480535283885756,-1.2731,0.226121,1.48304
1480535283888280,-1.27405,0.226531,1.48306
1480535283924362,-1.27431,0.22705,1.48311
1480535283929372,-1.27403,0.227379,1.48315
1480535283952935,-1.27359,0.227284,1.48298
1480535283960455,-1.27326,0.22708,1.48291
1480535283983015,-1.27314,0.226964,1.48291
1480535283997052,-1.27381,0.227227,1.48292
1480535284028135,-1.27457,0.227464,1.48301
1480535284042675,-1.2752,0.22736,1.48321
1480535284065233,-1.27517,0.227218,1.48329
1480535284080274,-1.27445,0.227349,1.48302
1480535284102834,-1.27447,0.227307,1.48302
1480535284119378,-1.27479,0.227511,1.4831
1480535284154972,-1.27575,0.227446,1.48307
1480535284164498,-1.27575,0.227446,1.48307
1480535284185052,-1.27511,0.227324,1.48297
1480535284200594,-1.27511,0.227324,1.48297
1480535284229170,-1.27511,0.227324,1.48297
1480535284244711,-1.27538,0.227203,1.48323
1480535284268275,-1.27538,0.227203,1.48323
1480535284282813,-1.27538,0.227203,1.48323
1480535284311389,-1.27538,0.227203,1.48323
1480535284320412,-1.27538,0.227203,1.48323
1480535284343474,-1.27538,0.227203,1.48323
1480535284364028,-1.27538,0.227203,1.48323
1480535284388093,-1.27539,0.227162,1.48323
1480535284404136,-1.27526,0.227088,1.48323
1480535284431708,-1.27526,0.227088,1.48323
1480535284441235,-1.27526,0.227088,1.48323
1480535284468808,-1.27526,0.227088,1.48323
1480535284484349,-1.27526,0.227088,1.48323
1480535284501895,-1.27513,0.226973,1.48323
1480535284524956,-1.27513,0.226973,1.48323
1480535284544008,-1.27466,0.227108,1.48305
1480535284560551,-1.27417,0.227182,1.48271
1480535284583112,-1.27417,0.227182,1.48271
1480535284604169,-1.27417,0.227182,1.48271
1480535284628231,-1.27417,0.227182,1.48271
1480535284642770,-1.27417,0.227182,1.48271
1480535284682375,-1.27417,0.227182,1.48271
1480535284686386,-1.27413,0.22704,1.48279
1480535284716967,-1.27415,0.226999,1.4828
1480535284723986,-1.27391,0.226993,1.48271
1480535284755570,-1.27391,0.226993,1.48271
1480535284763090,-1.27401,0.226925,1.4828
1480535284785149,-1.27389,0.226809,1.4828
1480535284802696,-1.27389,0.226809,1.4828
1480535284822749,-1.27389,0.226809,1.4828
1480535284846311,-1.27389,0.226809,1.4828
1480535284860850,-1.27389,0.226809,1.4828
1480535284882909,-1.27389,0.226809,1.4828
1480535284905471,-1.27377,0.226694,1.4828
1480535284920509,-1.27377,0.226694,1.4828
1480535284949086,-1.27377,0.226694,1.4828
1480535284982674,-1.27363,0.22662,1.4828
1480535284986685,-1.27365,0.226579,1.48281
1480535285016263,-1.27365,0.226579,1.48281
1480535285025287,-1.27365,0.226579,1.48281
1480535285039826,-1.27351,0.226505,1.4828
1480535285062887,-1.27365,0.226579,1.48281
1480535285101491,-1.27375,0.226511,1.48289
1480535285106503,-1.27375,0.226511,1.48289
1480535285123047,-1.27361,0.226437,1.48289
1480535285146109,-1.27363,0.226395,1.4829
1480535285160648,-1.27303,0.226641,1.48262
1480535285184210,-1.27303,0.226641,1.48262
1480535285213287,-1.27291,0.226526,1.48262
1480535285219805,-1.27322,0.226443,1.48264
1480535285243367,-1.27321,0.22638,1.48249
1480535285265426,-1.27368,0.226554,1.48242
1480535285294002,-1.27368,0.226554,1.48242
1480535285309042,-1.27355,0.226543,1.48257
1480535285333106,-1.27355,0.226543,1.48257
1480535285348147,-1.27354,0.226481,1.48242
1480535285370206,-1.27357,0.226501,1.48258
1480535285385244,-1.27343,0.226428,1.48257
1480535285413821,-1.27343,0.226428,1.48257
1480535285423849,-1.27343,0.226428,1.48257
1480535285452925,-1.27345,0.226386,1.48258
1480535285466962,-1.27331,0.226312,1.48258
1480535285496541,-1.27331,0.226312,1.48258
1480535285505565,-1.27341,0.226244,1.48266
1480535285528125,-1.27341,0.226244,1.48266
1480535285545170,-1.27329,0.226129,1.48267
1480535285582270,-1.27319,0.226197,1.48258
1480535285586781,-1.27315,0.226055,1.48266
1480535285610344,-1.27305,0.226123,1.48258
1480535285625885,-1.27307,0.226082,1.48258
1480535285646439,-1.27293,0.226008,1.48258
1480535285669000,-1.27293,0.226008,1.48258
1480535285701086,-1.27303,0.22594,1.48267
1480535285707101,-1.27291,0.225824,1.48267
1480535285730664,-1.27291,0.225824,1.48267
1480535285745202,-1.27252,0.22583,1.48242
1480535285768265,-1.27194,0.226139,1.48229
1480535285782802,-1.27194,0.226139,1.48229
1480535285812882,-1.27194,0.226139,1.48229
1480535285828925,-1.2718,0.226065,1.48229
1480535285867528,-1.2718,0.226065,1.48229
1480535285871538,-1.27182,0.226023,1.4823
1480535285888082,-1.27168,0.22595,1.48229
1480535285902120,-1.27178,0.225882,1.48238
1480535285932701,-1.27178,0.225882,1.48238
1480535285948248,-1.2718,0.22584,1.48239
1480535285979326,-1.27166,0.225766,1.48239
1480535285985346,-1.27166,0.225766,1.48239
1480535286008405,-1.27166,0.225766,1.48239
1480535286022440,-1.27164,0.225583,1.48248
1480535286046002,-1.27164,0.225583,1.48248
1480535286068061,-1.27164,0.225583,1.48248
1480535286082098,-1.27215,0.224927,1.48193
1480535286106663,-1.27302,0.224289,1.48132
1480535286128722,-1.27382,0.224068,1.48084
1480535286142258,-1.27508,0.224659,1.48009
1480535286165821,-1.27628,0.224821,1.47936
1480535286187879,-1.27647,0.224127,1.47904
1480535286210440,-1.27545,0.223703,1.47895
1480535286225981,-1.27428,0.223724,1.47889
1480535286265587,-1.27415,0.223712,1.47904
1480535286269598,-1.27367,0.22354,1.47979
1480535286286142,-1.27346,0.223722,1.48085
1480535286308701,-1.27303,0.223443,1.48192
1480535286336275,-1.27207,0.222688,1.48294
1480535286345299,-1.27074,0.222242,1.48336
1480535286367859,-1.26997,0.222317,1.48371
1480535286413480,-1.27009,0.222432,1.48371
1480535286416989,-1.27054,0.222112,1.48398
1480535286428520,-1.27051,0.22197,1.48407
1480535286451582,-1.27051,0.22197,1.48407
1480535286465619,-1.27051,0.22197,1.48407
1480535286495699,-1.27068,0.221814,1.48408
1480535286508734,-1.27066,0.22163,1.48417
1480535286533303,-1.27066,0.22163,1.48417
1480535286562376,-1.27066,0.22163,1.48417
1480535286568894,-1.27154,0.221653,1.48422
1480535286585939,-1.27142,0.221538,1.48422
1480535286608000,-1.27149,0.221656,1.48375
1480535286644595,-1.2717,0.221848,1.48329
1480535286659133,-1.272,0.222196,1.48281
1480535286668157,-1.27203,0.222276,1.48258
1480535286690218,-1.27212,0.222518,1.48241
1480535286705258,-1.27239,0.222725,1.48202
1480535286728317,-1.2729,0.223041,1.48187
1480535286767421,-1.27315,0.223064,1.48157
1480535286770932,-1.27332,0.223113,1.48119
1480535286787475,-1.27354,0.223201,1.48058
1480535286810536,-1.27396,0.223768,1.48025
1480535286825576,-1.27448,0.223979,1.47996
1480535286854152,-1.27436,0.223864,1.47996
1480535286883730,-1.27422,0.223791,1.47995
1480535286901780,-1.27422,0.223791,1.47995
1480535286915320,-1.27425,0.223811,1.48011
1480535286930857,-1.27435,0.223968,1.4801
1480535286945396,-1.2749,0.224115,1.48012
1480535286968456,-1.2752,0.224239,1.48043
1480535286998035,-1.27529,0.224109,1.48037
1480535287011571,-1.27523,0.224814,1.48054
1480535287042654,-1.27565,0.226025,1.48125
1480535287052680,-1.27712,0.225675,1.48058
1480535287065715,-1.28032,0.225506,1.4789
1480535287088779,-1.28463,0.226982,1.47893
1480535287117854,-1.28702,0.227091,1.47966
1480535287124872,-1.28698,0.22695,1.47975
1480535287155955,-1.2858,0.226968,1.47968
1480535287170494,-1.28595,0.227602,1.48018
1480535287208596,-1.28748,0.228244,1.48068
1480535287211101,-1.28924,0.22846,1.48121
1480535287238175,-1.29009,0.228841,1.48169
1480535287251208,-1.29,0.228972,1.48175
1480535287275272,-1.2901,0.229437,1.48149
1480535287290313,-1.29154,0.230473,1.48125
1480535287320392,-1.29379,0.231832,1.48142
1480535287335433,-1.29577,0.23294,1.48144
1480535287358494,-1.29685,0.233904,1.48165
1480535287371529,-1.29631,0.234818,1.48248
1480535287394088,-1.29439,0.234638,1.48277
1480535287410640,-1.29304,0.235131,1.48205
1480535287449235,-1.29397,0.23616,1.4817
1480535287453747,-1.29548,0.236658,1.48159
1480535287484830,-1.29648,0.237148,1.48137
1480535287491347,-1.29644,0.237539,1.4811
1480535287513907,-1.29644,0.237539,1.4811
1480535287530451,-1.29631,0.238029,1.4816
1480535287551507,-1.29629,0.238452,1.48219
1480535287568052,-1.29624,0.238522,1.48256
1480535287591114,-1.29623,0.238458,1.48241
1480535287611166,-1.29634,0.238349,1.48251
1480535287628211,-1.29629,0.238346,1.48204
1480535287650270,-1.29629,0.237846,1.48169
1480535287680350,-1.29615,0.237772,1.48169
1480535287687869,-1.29614,0.237273,1.48134
1480535287710932,-1.29605,0.237403,1.48141
1480535287734995,-1.29591,0.23733,1.4814
1480535287762067,-1.29476,0.237059,1.48175
1480535287770591,-1.29359,0.236831,1.4821
1480535287800169,-1.29262,0.236693,1.48252
1480535287808693,-1.29201,0.236613,1.48288
1480535287830249,-1.29211,0.236546,1.48297
1480535287852809,-1.29211,0.236546,1.48297
1480535287873865,-1.29153,0.236045,1.48275
1480535287890412,-1.29085,0.235675,1.48259
1480535287920488,-1.28997,0.235215,1.48234
1480535287928509,-1.28941,0.234567,1.48198
1480535287965609,-1.28838,0.234139,1.48188
1480535287973129,-1.28779,0.233744,1.48181
1480535287993685,-1.28752,0.233162,1.4816
1480535288010729,-1.28718,0.232668,1.48147
1480535288034291,-1.28678,0.23197,1.48127
1480535288047326,-1.28608,0.231251,1.48091
1480535288070388,-1.2854,0.23049,1.48055
1480535288095454,-1.28457,0.22976,1.48033
1480535288123531,-1.28374,0.229136,1.48026
1480535288132051,-1.28291,0.228511,1.48019
1480535288160627,-1.28204,0.227745,1.4802
1480535288174168,-1.28114,0.22721,1.4802
1480535288190710,-1.28022,0.226717,1.48019
1480535288212766,-1.27962,0.226428,1.48026
1480535288233822,-1.27962,0.226428,1.48026
1480535288250366,-1.27962,0.226428,1.48026
1480535288278942,-1.27862,0.226186,1.48007
1480535288294984,-1.27721,0.225975,1.48002
1480535288324064,-1.27584,0.225492,1.47999
1480535288333086,-1.27523,0.22502,1.48015
1480535288356148,-1.27513,0.225088,1.48006
1480535288386241,-1.27482,0.224741,1.48053
1480535288394249,-1.27482,0.224741,1.48053
1480535288414803,-1.27469,0.224625,1.48053
1480535288430346,-1.27469,0.224625,1.48053
1480535288452905,-1.2748,0.224557,1.48062
1480535288476468,-1.27469,0.224625,1.48053
1480535288490506,-1.27488,0.224531,1.4807
1480535288514067,-1.27487,0.224468,1.48055
1480535288541645,-1.27488,0.224531,1.4807
1480535288550165,-1.27476,0.224415,1.48071
1480535288572724,-1.27411,0.224296,1.4813
1480535288595283,-1.27366,0.223874,1.48177
1480535288610328,-1.27325,0.223594,1.48216
1480535288638900,-1.27335,0.223526,1.48224
1480535288670985,-1.27321,0.223452,1.48224
1480535288684020,-1.2735,0.223515,1.4824
1480535288693545,-1.27424,0.223567,1.48259
1480535288717608,-1.27469,0.223558,1.48261
1480535288732148,-1.27465,0.223622,1.4823
1480535288760223,-1.27449,0.223797,1.48189
1480535288798323,-1.275,0.224008,1.4816
1480535288803339,-1.27561,0.224152,1.48139
1480535288820884,-1.27577,0.224243,1.481
1480535288834924,-1.27583,0.224568,1.48082
1480535288873525,-1.27633,0.224883,1.48067
1480535288876030,-1.27656,0.225155,1.48066
1480535288910121,-1.27682,0.225344,1.48066
1480535288913630,-1.27688,0.225565,1.48034
1480535288947721,-1.27689,0.226059,1.48
1480535288955241,-1.27722,0.226468,1.47967
1480535288969780,-1.27708,0.226395,1.47967
1480535288996852,-1.27709,0.226457,1.47982
1480535289022921,-1.2773,0.226442,1.47976
1480535289029939,-1.27798,0.226375,1.47972
1480535289061022,-1.27784,0.226302,1.47972
1480535289075561,-1.27784,0.226302,1.47972
1480535289103636,-1.27762,0.226254,1.47963
1480535289120179,-1.27762,0.226254,1.47963
1480535289159285,-1.27826,0.226271,1.47958
1480535289163796,-1.27849,0.226214,1.47952
1480535289181342,-1.27849,0.226214,1.47952
1480535289195881,-1.27832,0.2261,1.47906
1480535289217940,-1.27836,0.226138,1.47883
1480535289234485,-1.27828,0.226164,1.47875
1480535289256544,-1.27861,0.226039,1.47878
1480535289276596,-1.27869,0.225846,1.47856
1480535289316702,-1.2787,0.225804,1.47857
1480535289321715,-1.2787,0.225804,1.47857
1480535289337759,-1.27857,0.225731,1.47856
1480535289353801,-1.27893,0.225747,1.47851
1480535289398420,-1.27893,0.225747,1.47851
1480535289400927,-1.27879,0.225673,1.4785
1480535289436020,-1.27879,0.225673,1.4785
1480535289441534,-1.27867,0.225558,1.47851
1480535289458078,-1.27867,0.225558,1.47851
1480535289473121,-1.27867,0.225558,1.47851
1480535289495679,-1.27857,0.225626,1.47842
1480535289516734,-1.27855,0.225443,1.47851
1480535289540297,-1.27841,0.22537,1.4785
1480535289555338,-1.27841,0.22537,1.4785
1480535289577898,-1.27915,0.225627,1.47829
1480535289592937,-1.27951,0.225973,1.47828
1480535289615998,-1.2795,0.22591,1.47813
1480535289638058,-1.27875,0.225571,1.47789
1480535289668137,-1.27768,0.225419,1.47777
1480535289696714,-1.27768,0.225419,1.47777
1480535289714260,-1.2783,0.225356,1.47796
1480535289718772,-1.27877,0.225219,1.47815
1480535289735316,-1.27877,0.225219,1.47815
1480535289757876,-1.27826,0.225214,1.47805
1480535289772916,-1.27826,0.225214,1.47805
1480535289796518,-1.27812,0.225141,1.47804
1480535289819039,-1.2788,0.225073,1.47801
1480535289833076,-1.2788,0.225073,1.47801
1480535289855636,-1.2788,0.225073,1.47801
1480535289878196,-1.27856,0.225068,1.47792
1480535289892735,-1.27856,0.225068,1.47792
1480535289915294,-1.27845,0.225016,1.47807
1480535289954901,-1.27845,0.225016,1.47807
1480535289958911,-1.27863,0.224921,1.47824
1480535289982975,-1.27873,0.224853,1.47833
1480535290021076,-1.27859,0.224779,1.47833
1480535290023603,-1.27859,0.224779,1.47833
1480535290035615,-1.27861,0.224738,1.47834
1480535290058175,-1.2786,0.224675,1.47818
1480535290078729,-1.27861,0.224738,1.47834
1480535290103296,-1.27837,0.224732,1.47824
1480535290117833,-1.27837,0.224732,1.47824
1480535290138891,-1.27835,0.224549,1.47834
1480535290155434,-1.27825,0.224617,1.47825
1480535290187519,-1.27826,0.22468,1.4784
1480535290223618,-1.27812,0.224606,1.4784
1480535290226622,-1.27812,0.224606,1.4784
1480535290238656,-1.27804,0.224633,1.47831
1480535290260713,-1.278,0.224491,1.4784
1480535290275753,-1.278,0.224491,1.4784
1480535290298815,-1.278,0.224491,1.4784
1480535290326389,-1.278,0.224491,1.4784
1480535290335412,-1.27778,0.224444,1.47831
1480535290358477,-1.27779,0.224506,1.47846
1480535290379028,-1.27765,0.224433,1.47846
1480535290395572,-1.27806,0.224385,1.47872
1480535290418133,-1.27819,0.224191,1.47897
1480535290446206,-1.2782,0.224149,1.47897
1480535290455231,-1.27806,0.224076,1.47897
1480535290485832,-1.27806,0.224076,1.47897
1480535290507871,-1.27808,0.224138,1.47912
1480535290515397,-1.27834,0.224017,1.47938
1480535290545471,-1.27821,0.223944,1.47937
1480535290568031,-1.27808,0.223828,1.47937
1480535290575551,-1.27808,0.223828,1.47937
1480535290605633,-1.2781,0.223891,1.47953
1480535290621172,-1.27814,0.223827,1.47984
1480535290635209,-1.2784,0.223706,1.48009
1480535290657770,-1.27826,0.223632,1.48009
1480535290687850,-1.27829,0.223653,1.48025
1480535290694869,-1.27829,0.223653,1.48025
1480535290725450,-1.27815,0.22358,1.48024
1480535290740494,-1.27815,0.22358,1.48024
1480535290776084,-1.27817,0.223538,1.48025
1480535290787619,-1.27793,0.223532,1.48016
1480535290808169,-1.27793,0.223532,1.48016
1480535290823712,-1.27781,0.223417,1.48016
1480535290846271,-1.27782,0.223479,1.48031
1480535290860308,-1.27782,0.223479,1.48031
1480535290882870,-1.27768,0.223406,1.48031
1480535290897909,-1.2777,0.223364,1.48032
1480535290927988,-1.27756,0.223291,1.48031
1480535290934506,-1.27756,0.223291,1.48031
1480535290972607,-1.27788,0.223103,1.48019
1480535290981631,-1.27798,0.223035,1.48028
1480535291018228,-1.27765,0.223366,1.47985
1480535291021739,-1.27744,0.223812,1.47942
1480535291064351,-1.27728,0.223865,1.47926
1480535291068863,-1.27756,0.224133,1.47902
1480535291085408,-1.27836,0.224406,1.47889
1480535291100948,-1.27882,0.224621,1.47881
1480535291123013,-1.27876,0.224726,1.47849
1480535291138048,-1.27874,0.224543,1.47859
1480535291161108,-1.27871,0.224894,1.47833
1480535291181164,-1.27905,0.225591,1.47806
1480535291204225,-1.27959,0.225555,1.47817
1480535291220266,-1.27959,0.225555,1.47817
1480535291259872,-1.27945,0.225481,1.47816
1480535291264384,-1.27945,0.225481,1.47816
1480535291295967,-1.27971,0.22567,1.47816
1480535291301482,-1.27971,0.22567,1.47816
1480535291318527,-1.27957,0.225596,1.47816
1480535291340586,-1.27957,0.225596,1.47816
1480535291364149,-1.27995,0.2259,1.47816
1480535291378186,-1.28039,0.225827,1.47803
1480535291400245,-1.28025,0.225754,1.47803
1480535291421300,-1.28043,0.225969,1.47795
1480535291444863,-1.28043,0.225969,1.47795
1480535291460404,-1.28043,0.225969,1.47795
1480535291483466,-1.28043,0.225969,1.47795
1480535291499008,-1.28029,0.225896,1.47794
1480535291535605,-1.28068,0.226095,1.47779
1480535291543627,-1.28068,0.226095,1.47779
1480535291564181,-1.28068,0.226095,1.47779
1480535291580223,-1.28068,0.226095,1.47779
1480535291619328,-1.28054,0.226022,1.47779
1480535291624341,-1.2809,0.226367,1.47778
1480535291641889,-1.28144,0.226331,1.47789
1480535291662944,-1.28132,0.226215,1.47789
1480535291684000,-1.28133,0.226278,1.47805
1480535291700544,-1.28123,0.226346,1.47796
1480535291724106,-1.28123,0.226346,1.47796
1480535291737141,-1.28109,0.226273,1.47795
1480535291773739,-1.28111,0.226231,1.47796
1480535291782762,-1.28142,0.226147,1.47798
1480535291811338,-1.28128,0.226074,1.47798
1480535291820362,-1.2813,0.226032,1.47799
1480535291850442,-1.2813,0.226032,1.47799
1480535291856959,-1.2813,0.226032,1.47799
1480535291886538,-1.28173,0.226064,1.478
1480535291919125,-1.28173,0.226064,1.478
1480535291924138,-1.28151,0.226017,1.47792
1480535291940683,-1.28161,0.225949,1.47801
1480535291962741,-1.28151,0.226017,1.47792
1480535291991316,-1.28137,0.225943,1.47791
1480535292000340,-1.2814,0.225964,1.47807
1480535292038443,-1.2814,0.225964,1.47807
1480535292052981,-1.28126,0.225891,1.47807
1480535292060500,-1.28125,0.225828,1.47792
1480535292083060,-1.28126,0.225891,1.47807
1480535292111637,-1.28135,0.22576,1.47801
1480535292120160,-1.28136,0.225718,1.47801
1480535292158260,-1.28136,0.225718,1.47801
1480535292164277,-1.28114,0.225775,1.47807
1480535292204384,-1.28124,0.225707,1.47816
1480535292208895,-1.28124,0.225707,1.47816
1480535292240984,-1.28124,0.225707,1.47816
1480535292243487,-1.28101,0.22566,1.47808
1480535292270560,-1.28101,0.22566,1.47808
1480535292284096,-1.28087,0.225587,1.47807
1480535292313674,-1.2809,0.225608,1.47823
1480535292329216,-1.2809,0.225608,1.47823
1480535292351776,-1.28107,0.225555,1.4784
1480535292361803,-1.28107,0.225555,1.4784
1480535292390378,-1.28106,0.225492,1.47824
1480535292405419,-1.28107,0.225555,1.4784
1480535292428480,-1.28093,0.225482,1.47839
1480535292443019,-1.28095,0.22544,1.4784
1480535292472829,-1.28128,0.22554,1.47833
1480535292481120,-1.28182,0.225503,1.47844
1480535292510197,-1.28168,0.22543,1.47843
1480535292525237,-1.28169,0.225388,1.47844
1480535292555317,-1.28159,0.225456,1.47835
1480535292562837,-1.28159,0.225456,1.47835
1480535292600938,-1.28147,0.225445,1.4785
1480535292606453,-1.28148,0.225403,1.47851
1480535292646058,-1.28134,0.22533,1.4785
1480535292648565,-1.28134,0.22533,1.4785
1480535292667615,-1.28134,0.22533,1.4785
1480535292682656,-1.2812,0.225257,1.4785
1480535292707223,-1.2812,0.225257,1.4785
1480535292719754,-1.28122,0.225215,1.47851
1480535292757856,-1.28108,0.225141,1.4785
1480535292765377,-1.28099,0.225272,1.47857
1480535292787935,-1.2813,0.225293,1.47873
1480535292803478,-1.28129,0.22523,1.47858
1480535292843082,-1.28141,0.225121,1.47868
1480535292846591,-1.28132,0.225251,1.47874
1480535292886698,-1.28118,0.225178,1.47874
1480535292908256,-1.28157,0.225068,1.47884
1480535292910764,-1.28157,0.225068,1.47884
1480535292924299,-1.28158,0.225131,1.47899
1480535292945856,-1.28145,0.225057,1.47899
1480535292966411,-1.28149,0.224889,1.47916
1480535292983456,-1.2815,0.224952,1.47931
1480535293005515,-1.2815,0.224952,1.47931
1480535293035594,-1.28126,0.224947,1.47922
1480535293043115,-1.28128,0.224905,1.47922
1480535293065674,-1.28128,0.224905,1.47922
1480535293087232,-1.28138,0.224837,1.47931
1480535293108790,-1.28124,0.224763,1.47931
1480535293125835,-1.28126,0.224722,1.47932
1480535293165944,-1.28124,0.224763,1.47931
1480535293185995,-1.28115,0.224894,1.47937
1480535293193013,-1.28103,0.224779,1.47938
1480535293206678,-1.28103,0.224779,1.47938
1480535293223097,-1.28091,0.224663,1.47938
1480535293245152,-1.28091,0.224663,1.47938
1480535293266208,-1.28091,0.224663,1.47938
1480535293282752,-1.28091,0.224663,1.47938
1480535293313333,-1.28077,0.22459,1.47937
1480535293326368,-1.28077,0.22459,1.47937
1480535293356450,-1.28079,0.224548,1.47938
1480535293365472,-1.28065,0.224475,1.47938
1480535293398059,-1.28028,0.224438,1.47913
1480535293403072,-1.28014,0.224365,1.47913
1480535293433152,-1.28004,0.224433,1.47904
1480535293462730,-1.27993,0.22438,1.4792
1480535293471755,-1.27993,0.22438,1.4792
1480535293486295,-1.27981,0.224265,1.4792
1480535293508352,-1.27981,0.224265,1.4792
1480535293522391,-1.27981,0.224265,1.4792
1480535293546955,-1.27967,0.224191,1.4792
1480535293582549,-1.27969,0.22415,1.4792
1480535293585056,-1.27969,0.22415,1.4792
1480535293605611,-1.27969,0.22415,1.4792
1480535293635691,-1.27946,0.224207,1.47926
1480535293643211,-1.27946,0.224207,1.47926
1480535293676300,-1.27948,0.224165,1.47927
1480535293703873,-1.27934,0.224092,1.47927
1480535293709387,-1.27944,0.224023,1.47935
1480535293725429,-1.2793,0.22395,1.47935
1480535293747990,-1.27932,0.223908,1.47936
1480535293763030,-1.27932,0.223908,1.47936
1480535293786091,-1.27945,0.223815,1.47906
1480535293817674,-1.27924,0.224261,1.47863
1480535293822188,-1.27946,0.224738,1.47822
1480535293845249,-1.27988,0.225017,1.47784
1480535293875329,-1.28022,0.225713,1.47757
1480535293896384,-1.28072,0.226132,1.47756
1480535293912928,-1.28116,0.226059,1.47744
1480535293936492,-1.28116,0.226059,1.47744
1480535293950528,-1.28095,0.226075,1.4775
1480535293980107,-1.28095,0.226075,1.4775
1480535293988128,-1.2801,0.225598,1.47757
1480535294017707,-1.2801,0.225598,1.47757
1480535294025227,-1.2801,0.225598,1.47757
1480535294055809,-1.28006,0.225457,1.47766
1480535294068843,-1.28008,0.225415,1.47766
1480535294092907,-1.28003,0.225416,1.4772
1480535294107947,-1.27977,0.225433,1.4768
1480535294136022,-1.27966,0.225707,1.47631
1480535294153067,-1.27972,0.225865,1.47584
1480535294191671,-1.28011,0.22596,1.47555
1480535294196182,-1.28013,0.225918,1.47555
1480535294230283,-1.27999,0.225845,1.47555
1480535294233782,-1.28,0.225907,1.4757
1480535294257846,-1.27978,0.22586,1.47562
1480535294265366,-1.27978,0.22586,1.47562
1480535294302966,-1.27974,0.225719,1.4757
1480535294310486,-1.27976,0.225677,1.47571
1480535294333547,-1.27962,0.225604,1.4757
1480535294350091,-1.27962,0.225604,1.4757
1480535294370647,-1.27962,0.225604,1.4757
1480535294385185,-1.2795,0.225489,1.47571
1480535294432309,-1.2795,0.225489,1.47571
1480535294436320,-1.2795,0.225489,1.47571
1480535294468406,-1.27984,0.225651,1.47579
1480535294470914,-1.28005,0.225635,1.47572
1480535294498486,-1.28005,0.225635,1.47572
1480535294504502,-1.28005,0.225635,1.47572
1480535294529067,-1.28005,0.225635,1.47572
1480535294557644,-1.27991,0.225561,1.47572
1480535294573264,-1.27994,0.225582,1.47588
1480535294587723,-1.27999,0.22531,1.4759
1480535294610785,-1.28022,0.225253,1.47584
1480535294624822,-1.28022,0.225253,1.47584
1480535294649889,-1.28008,0.225179,1.47584
1480535294670444,-1.28008,0.225179,1.47584
1480535294701025,-1.28008,0.225179,1.47584
1480535294703532,-1.2801,0.225138,1.47584
1480535294729601,-1.27996,0.225064,1.47584
1480535294744139,-1.27996,0.225064,1.47584
1480535294752161,-1.27984,0.224949,1.47584
1480535294773221,-1.27984,0.224949,1.47584
1480535294811318,-1.27984,0.224949,1.47584
1480535294829867,-1.27971,0.224939,1.47599
1480535294834881,-1.27973,0.224897,1.476
1480535294855939,-1.27973,0.224897,1.476
1480535294873984,-1.27959,0.224824,1.47599
1480535294893035,-1.27959,0.224824,1.47599
1480535294923115,-1.27937,0.224777,1.47591
1480535294950187,-1.27814,0.225071,1.47583
1480535294954700,-1.2769,0.225525,1.47297
1480535294976257,-1.27998,0.227022,1.46955
1480535295006840,-1.28434,0.228271,1.47043
1480535295022382,-1.28811,0.228535,1.47368
1480535295059979,-1.2898,0.229366,1.47616
1480535295062486,-1.2865,0.230187,1.47785
1480535295090060,-1.28222,0.230328,1.47917
1480535295103094,-1.28117,0.230463,1.47911
1480535295142700,-1.28242,0.232668,1.47923
1480535295145206,-1.28454,0.234698,1.48049
1480535295163254,-1.29076,0.236373,1.4816
1480535295178294,-1.29695,0.236387,1.48246
1480535295200854,-1.30296,0.237476,1.48201
1480535295218401,-1.30492,0.239879,1.4813
1480535295246977,-1.30386,0.242288,1.4815
1480535295260513,-1.30487,0.244526,1.48192
1480535295275552,-1.30695,0.246778,1.48341
1480535295298114,-1.30849,0.247966,1.48564
1480535295322178,-1.30944,0.247362,1.48738
1480535295335712,-1.30698,0.24569,1.48839
1480535295358274,-1.30266,0.244856,1.48947
1480535295382337,-1.29848,0.241837,1.49166
1480535295395873,-1.29504,0.235431,1.49291
1480535295426956,-1.2889,0.23072,1.49232
1480535295448512,-1.28076,0.228833,1.48924
1480535295458539,-1.27737,0.228345,1.48301
1480535295496641,-1.27667,0.228209,1.47544
1480535295501655,-1.27398,0.226772,1.467
1480535295515692,-1.27104,0.224046,1.45914
1480535295541260,-1.26971,0.224232,1.4545
1480535295562316,-1.268,0.225785,1.45394
1480535295583372,-1.26607,0.226727,1.45463
1480535295606043,-1.26882,0.228452,1.45591
1480535295617964,-1.26787,0.228981,1.45697
1480535295643030,-1.26379,0.229984,1.45637
1480535295659575,-1.26078,0.230997,1.4546
1480535295680631,-1.26164,0.23181,1.45275
1480535295697174,-1.26309,0.232661,1.45152
1480535295721239,-1.26495,0.233788,1.45114
1480535295736279,-1.26648,0.234385,1.45008
1480535295757335,-1.26731,0.234754,1.44941
1480535295778390,-1.2675,0.234615,1.44958
1480535295795436,-1.26736,0.234542,1.44958
1480535295815990,-1.26647,0.23474,1.44983
1480535295841057,-1.26639,0.234769,1.44975
1480535295855094,-1.26744,0.234513,1.44966
1480535295883171,-1.26923,0.234192,1.44959
1480535295898209,-1.27036,0.234324,1.44947
1480535295914753,-1.27054,0.234699,1.44914
1480535295937314,-1.27075,0.235411,1.44873
1480535295959873,-1.27131,0.235696,1.4482
1480535295974913,-1.27244,0.235557,1.44764
1480535296004492,-1.27359,0.235481,1.44723
1480535296018027,-1.27407,0.23544,1.44688
1480535296048609,-1.27422,0.235736,1.44678
1480535296058635,-1.27447,0.235962,1.44677
1480535296095233,-1.27511,0.236134,1.44701
1480535296097740,-1.27528,0.236139,1.44732
1480535296123308,-1.27514,0.236066,1.44732
1480535296138349,-1.27514,0.236066,1.44732
1480535296156395,-1.27576,0.236056,1.44765
1480535296175948,-1.27599,0.235683,1.44784
1480535296216555,-1.27633,0.23584,1.44792
1480535296220568,-1.27633,0.23584,1.44792
1480535296238615,-1.27633,0.23584,1.44792
1480535296258667,-1.27633,0.23584,1.44792
1480535296276215,-1.27629,0.235698,1.448
1480535296295766,-1.27631,0.235658,1.44801
1480535296325846,-1.27657,0.236316,1.44751
1480535296336376,-1.27693,0.236266,1.4473
1480535296373988,-1.27705,0.236483,1.44744
1480535296379991,-1.27705,0.236483,1.44744
1480535296409569,-1.27683,0.236439,1.44736
1480535296415585,-1.27683,0.236439,1.44736
1480535296438146,-1.27649,0.236671,1.44748
1480535296468727,-1.27613,0.237139,1.44758
1480535296492290,-1.27615,0.237099,1.44759
1480535296498305,-1.27633,0.237001,1.44776
1480535296532898,-1.27631,0.237041,1.44775
1480535296537410,-1.27608,0.237101,1.44781
1480535296557964,-1.27628,0.237456,1.44833
1480535296590049,-1.2766,0.237758,1.44854
1480535296595564,-1.27725,0.23793,1.44879
1480535296618124,-1.27705,0.23834,1.44905
1480535296649708,-1.27703,0.238797,1.44894
1480535296655725,-1.27737,0.239308,1.44877
1480535296679794,-1.27809,0.239702,1.44869
1480535296700850,-1.27868,0.239919,1.44847
1480535296715890,-1.2791,0.23988,1.44833
1480535296738450,-1.27937,0.240066,1.44833
1480535296769533,-1.27963,0.240252,1.44833
1480535296777053,-1.27961,0.240397,1.44847
1480535296810163,-1.27987,0.240583,1.44847
1480535296829191,-1.27999,0.240801,1.44861
1480535296844732,-1.28028,0.240753,1.44862
1480535296865788,-1.28028,0.240753,1.44862
1480535296888854,-1.28028,0.240753,1.44862
1480535296897372,-1.28016,0.240639,1.44862
1480535296925948,-1.28046,0.240655,1.44878
1480535296949010,-1.28033,0.240646,1.44893
1480535296957031,-1.28033,0.240646,1.44893
1480535296985607,-1.28049,0.240589,1.44909
1480535297000647,-1.28089,0.240704,1.44964
1480535297017191,-1.28118,0.240656,1.44965
1480535297055293,-1.28106,0.240542,1.44965
1480535297068828,-1.28092,0.240469,1.44965
1480535297078855,-1.28092,0.240469,1.44965
1480535297105928,-1.28093,0.240429,1.44966
1480535297120967,-1.2808,0.24042,1.4498
1480535297143026,-1.2808,0.24042,1.4498
1480535297158065,-1.2808,0.24042,1.4498
1480535297188148,-1.28068,0.240306,1.44981
1480535297206195,-1.28068,0.240306,1.44981
1480535297226748,-1.28068,0.240306,1.44981
1480535297240788,-1.28056,0.240193,1.44981
1480535297274876,-1.28033,0.240004,1.45027
1480535297279890,-1.28013,0.239997,1.45064
1480535297301447,-1.28013,0.239997,1.45064
1480535297318493,-1.27972,0.239786,1.45118
1480535297345564,-1.27972,0.239786,1.45118
1480535297360604,-1.27958,0.239713,1.45117
1480535297386173,-1.27958,0.239713,1.45117
1480535297398204,-1.27958,0.239713,1.45117
1480535297422272,-1.27959,0.239673,1.45118
1480535297443324,-1.27959,0.239673,1.45118
1480535297465885,-1.27981,0.239405,1.45151
1480535297481928,-1.28009,0.239239,1.45176
1480535297515517,-1.28004,0.239097,1.45185
1480535297519528,-1.28004,0.239097,1.45185
1480535297542089,-1.27949,0.238853,1.45169
1480535297564647,-1.27936,0.238844,1.45184
1480535297578183,-1.27936,0.238844,1.45184
1480535297603250,-1.27924,0.23873,1.45184
1480535297626311,-1.27889,0.238821,1.45137
1480535297638345,-1.27842,0.238798,1.45089
1480535297663410,-1.27812,0.238678,1.45058
1480535297678450,-1.2781,0.238496,1.45068
1480535297716050,-1.2781,0.238496,1.45068
1480535297720564,-1.27811,0.23856,1.45083
1480535297739617,-1.27789,0.238515,1.45075
1480535297788745,-1.27818,0.238363,1.45061
1480535297799773,-1.27845,0.238446,1.45047
1480535297829351,-1.27845,0.238446,1.45047
1480535297834365,-1.27831,0.238373,1.45046
1480535297840882,-1.27833,0.238333,1.45047
1480535297859431,-1.27828,0.23844,1.45015
1480535297879485,-1.27828,0.23844,1.45015
1480535297903550,-1.27814,0.238366,1.45015
1480535297920595,-1.27814,0.238366,1.45015
1480535297954685,-1.27815,0.23843,1.4503
1480535297960701,-1.27803,0.238317,1.45031
1480535297994293,-1.27811,0.237544,1.45044
1480535297999805,-1.27789,0.2375,1.45036
1480535298022366,-1.27789,0.2375,1.45036
1480535298043421,-1.27855,0.237217,1.45071
1480535298084029,-1.27892,0.236917,1.4509
1480535298097064,-1.27822,0.2372,1.45123
1480535298103080,-1.27755,0.237115,1.45152
1480535298121129,-1.27659,0.237133,1.4514
1480535298140680,-1.27659,0.237133,1.4514
1480535298163239,-1.27637,0.237111,1.45216
1480535298181789,-1.27579,0.236476,1.45248
1480535298200839,-1.27477,0.236066,1.4524
1480535298240446,-1.27387,0.236186,1.45221
1480535298242453,-1.27377,0.236255,1.45212
1480535298260499,-1.27397,0.23634,1.4522
1480535298298599,-1.27507,0.236373,1.45148
1480535298317650,-1.27717,0.237106,1.45044
1480535298322163,-1.27973,0.238273,1.45159
1480535298350746,-1.28085,0.238638,1.45443
1480535298361267,-1.28049,0.237511,1.45633
1480535298388339,-1.27836,0.236568,1.45661
1480535298403379,-1.27614,0.236479,1.45607
1480535298437470,-1.27526,0.23705,1.45623
1480535298442487,-1.27435,0.236917,1.45712
1480535298468552,-1.27435,0.236917,1.45712
1480535298482088,-1.27348,0.236864,1.45709
1480535298511165,-1.2723,0.236939,1.45704
1480535298530717,-1.27118,0.236763,1.45716
1480535298541246,-1.27028,0.236568,1.45722
1480535298577345,-1.26981,0.236295,1.45714
1480535298583357,-1.26983,0.236255,1.45715
1480535298631485,-1.27002,0.236201,1.45663
1480535298637502,-1.27021,0.236536,1.4563
1480535298652040,-1.27068,0.236705,1.45623
1480535298661064,-1.27111,0.236731,1.45625
1480535298705683,-1.27032,0.23626,1.4561
1480535298710696,-1.26954,0.23643,1.45575
1480535298733757,-1.26941,0.236316,1.45576
1480535298742282,-1.26952,0.236637,1.45605
1480535298770856,-1.26982,0.236653,1.45621
1480535298787400,-1.2704,0.236335,1.45632
1480535298808458,-1.27038,0.236272,1.45617
1480535298827006,-1.27006,0.23649,1.456
1480535298841043,-1.26941,0.23706,1.45571
1480535298864104,-1.26941,0.23706,1.45571
1480535298890677,-1.26995,0.236913,1.45566
1480535298901202,-1.27025,0.236826,1.45568
1480535298930281,-1.27025,0.236826,1.45568
1480535298943314,-1.27027,0.236785,1.45569
1480535298962384,-1.27036,0.23698,1.45567
1480535298995954,-1.27095,0.237262,1.45559
1480535299013502,-1.27096,0.237325,1.45575
1480535299026039,-1.27074,0.23728,1.45566
1480535299051101,-1.27074,0.23728,1.45566
1480535299063134,-1.2706,0.237207,1.45566
1480535299111763,-1.27087,0.237394,1.45566
1480535299116274,-1.27078,0.237526,1.45573
1480535299133821,-1.27078,0.237526,1.45573
1480535299178440,-1.27066,0.237413,1.45573
1480535299180947,-1.27066,0.237413,1.45573
1480535299185960,-1.271,0.237571,1.45581
1480535299214536,-1.27116,0.237513,1.45597
1480535299223561,-1.27116,0.237513,1.45597
1480535299250633,-1.27116,0.237513,1.45597
1480535299261160,-1.27116,0.237513,1.45597
1480535299299763,-1.27104,0.2374,1.45597
1480535299305277,-1.27104,0.2374,1.45597
1480535299336360,-1.27104,0.2374,1.45597
1480535299343881,-1.27104,0.2374,1.45597
1480535299389000,-1.27091,0.23739,1.45612
1480535299393012,-1.27093,0.237349,1.45613
1480535299427603,-1.27079,0.237276,1.45612
1480535299447657,-1.27079,0.237276,1.45612
1480535299450163,-1.27055,0.237271,1.45603
1480535299464200,-1.27058,0.237294,1.45619
1480535299499795,-1.27058,0.237294,1.45619
1480535299505811,-1.27058,0.237294,1.45619
1480535299531381,-1.27044,0.237221,1.45619
1480535299543414,-1.27045,0.237181,1.4562
1480535299573691,-1.27045,0.237181,1.4562
1480535299585022,-1.27031,0.237107,1.45619
1480535299606174,-1.26983,0.237293,1.45601
1480535299628637,-1.26909,0.237355,1.45598
1480535299659721,-1.26909,0.237355,1.45598
1480535299664734,-1.26895,0.237281,1.45597
1480535299704841,-1.26897,0.237241,1.45598
1480535299741439,-1.26897,0.237241,1.45598
1480535299747955,-1.26882,0.237167,1.45598
1480535299750964,-1.26884,0.237127,1.45599
1480535299763997,-1.26894,0.237058,1.45607
1480535299792076,-1.2688,0.236985,1.45607
1480535299808619,-1.2688,0.236985,1.45607
1480535299823657,-1.26899,0.236783,1.45609
1480535299846718,-1.26899,0.236783,1.45609
1480535299865768,-1.26901,0.236743,1.4561
1480535299884336,-1.26886,0.23667,1.45609
1480535299920414,-1.26886,0.23667,1.45609
1480535299944980,-1.26886,0.23667,1.45609
1480535299948490,-1.26951,0.236991,1.45579
1480535299983081,-1.26939,0.236877,1.4558
1480535300002633,-1.26965,0.236794,1.45535
1480535300008148,-1.26982,0.236947,1.45512
1480535300026196,-1.26969,0.237187,1.45487
1480535300049260,-1.26985,0.237443,1.45479
1480535300063795,-1.2698,0.237655,1.45462
1480535300086355,-1.26965,0.237582,1.45461
1480535300105907,-1.26965,0.237582,1.45461
1480535300129469,-1.26953,0.237468,1.45462
1480535300146014,-1.26954,0.237531,1.45477
1480535300168574,-1.26949,0.237639,1.45445
1480535300185118,-1.26949,0.237639,1.45445
1480535300222216,-1.26949,0.237639,1.45445
1480535300227733,-1.26949,0.237639,1.45445
1480535300280873,-1.26951,0.237599,1.45446
1480535300283379,-1.27013,0.237646,1.4544
1480535300288895,-1.2706,0.237592,1.45443
1480535300325495,-1.27046,0.237518,1.45442
1480535300327498,-1.27018,0.238103,1.45407
1480535300362590,-1.27013,0.238211,1.45376
1480535300365099,-1.27013,0.238211,1.45376
1480535300399688,-1.27061,0.238109,1.45324
1480535300406207,-1.27157,0.238237,1.45281
1480535300423753,-1.27244,0.238498,1.45245
1480535300446313,-1.27268,0.238662,1.45229
1480535300489929,-1.27316,0.238726,1.45207
1480535300495443,-1.27341,0.238849,1.45192
1480535300506974,-1.27365,0.23918,1.45206
1480535300537055,-1.27365,0.23918,1.45206
1480535300544073,-1.27363,0.238997,1.45215
1480535300566131,-1.27353,0.239066,1.45206
1480535300595208,-1.27353,0.239066,1.45206
1480535300611753,-1.2734,0.238953,1.45207
1480535300638826,-1.27342,0.239016,1.45222
1480535300647347,-1.27342,0.239016,1.45222
1480535300663390,-1.27342,0.239016,1.45222
1480535300686953,-1.27328,0.238943,1.45222
1480535300716532,-1.27328,0.238943,1.45222
1480535300723551,-1.27329,0.238902,1.45222
1480535300760147,-1.27329,0.238902,1.45222
1480535300776190,-1.27315,0.238829,1.45222
1480535300821812,-1.27314,0.238766,1.45207
1480535300834846,-1.27315,0.238829,1.45222
1480535300844371,-1.27303,0.238716,1.45222
1480535300848381,-1.27303,0.238716,1.45222
1480535300873966,-1.27303,0.238716,1.45222
1480535300887003,-1.27303,0.238716,1.45222
1480535300917082,-1.27291,0.238602,1.45223
1480535300927110,-1.27291,0.238602,1.45223
1480535300956188,-1.27282,0.238735,1.45229
1480535300971728,-1.27278,0.238592,1.45238
1480535301009833,-1.27268,0.238662,1.45229
1480535301037404,-1.27268,0.238662,1.45229
1480535301054949,-1.27278,0.238489,1.45223
1480535301059461,-1.27278,0.238489,1.45223
1480535301084027,-1.27264,0.238416,1.45223
1480535301089042,-1.27265,0.238479,1.45238
1480535301121125,-1.27265,0.238479,1.45238
1480535301127642,-1.27296,0.238391,1.4524
1480535301153214,-1.27335,0.238274,1.45249
1480535301166746,-1.27311,0.23827,1.4524
1480535301196325,-1.27314,0.238293,1.45256
1480535301208357,-1.27314,0.238293,1.45256
1480535301249968,-1.27314,0.238293,1.45256
1480535301263504,-1.273,0.23822,1.45256
1480535301287567,-1.273,0.23822,1.45256
1480535301292081,-1.27302,0.238179,1.45257
1480535301332688,-1.27288,0.238106,1.45256
1480535301352740,-1.27288,0.238106,1.45256
1480535301357255,-1.27275,0.238096,1.45271
1480535301390341,-1.27276,0.238056,1.45272
1480535301392847,-1.27267,0.238125,1.45263
1480535301406384,-1.27276,0.238056,1.45272
1480535301428943,-1.27276,0.238056,1.45272
1480535301447994,-1.27252,0.238052,1.45263
1480535301473063,-1.27252,0.238052,1.45263
1480535301487600,-1.27262,0.237983,1.45272
1480535301517680,-1.27254,0.238012,1.45264
1480535301527204,-1.2724,0.237938,1.45263
1480535301563302,-1.2724,0.237938,1.45263
1480535301568816,-1.27226,0.237865,1.45263
1480535301585862,-1.27229,0.237888,1.45279
1480535301607921,-1.27229,0.237888,1.45279
1480535301630480,-1.27215,0.237815,1.45279
1480535301645520,-1.27215,0.237815,1.45279
1480535301676603,-1.27215,0.237815,1.45279
1480535301689157,-1.27187,0.237612,1.45317
1480535301705682,-1.27187,0.237612,1.45317
1480535301727738,-1.27187,0.237612,1.45317
1480535301750299,-1.27172,0.237539,1.45317
1480535301794418,-1.27118,0.237297,1.45301
1480535301804944,-1.27069,0.237483,1.45283
1480535301810459,-1.27069,0.237483,1.45283
1480535301841040,-1.2707,0.237546,1.45299
1480535301847557,-1.27072,0.237236,1.45255
1480535301868614,-1.27098,0.237256,1.45225
1480535301891176,-1.27047,0.237439,1.45275
1480535301907717,-1.27059,0.237329,1.45284
1480535301930277,-1.27045,0.237256,1.45284
1480535301945317,-1.27047,0.237216,1.45285
1480535301967877,-1.27032,0.237143,1.45284
1480535301990437,-1.27032,0.237143,1.45284
1480535302006156,-1.27055,0.237187,1.45293
1480535302042576,-1.27052,0.23669,1.45326
1480535302051099,-1.26976,0.23605,1.45328
1480535302080176,-1.26896,0.235787,1.45342
1480535302087697,-1.26896,0.235787,1.45342
1480535302110257,-1.26896,0.235787,1.45342
1480535302124795,-1.26896,0.235787,1.45342
1480535302149360,-1.26906,0.235615,1.45336
1480535302176433,-1.26906,0.235615,1.45336
1480535302191472,-1.26892,0.235541,1.45336
1480535302208019,-1.26892,0.235541,1.45336
1480535302230075,-1.26892,0.235541,1.45336
1480535302244614,-1.26892,0.235541,1.45336
1480535302268678,-1.2688,0.235428,1.45336
1480535302290234,-1.2688,0.235428,1.45336
1480535302306280,-1.26866,0.235355,1.45336
1480535302327834,-1.26876,0.235285,1.45344
1480535302351899,-1.26868,0.235315,1.45337
1480535302378971,-1.26878,0.235245,1.45345
1480535302395515,-1.26878,0.235245,1.45345
1480535302417573,-1.26863,0.235172,1.45345
1480535302431611,-1.26906,0.235197,1.45346
1480535302461190,-1.26908,0.235157,1.45347
1480535302470214,-1.26873,0.235354,1.45314
1480535302498790,-1.26853,0.235806,1.45272
1480535302513829,-1.26832,0.236076,1.45239
1480535302538397,-1.26832,0.236076,1.45239
1480535302554438,-1.26852,0.235994,1.45217
1480535302581509,-1.26879,0.235974,1.45188
1480535302598555,-1.26866,0.235964,1.45203
1480535302619113,-1.26868,0.235924,1.45204
1480535302633651,-1.26854,0.235851,1.45203
1480535302658715,-1.26892,0.236087,1.45188
1480535302672755,-1.26964,0.236378,1.45165
1480535302703836,-1.27002,0.236512,1.45135
1480535302710352,-1.27002,0.236512,1.45135
1480535302738929,-1.27013,0.236756,1.4512
1480535302747952,-1.27028,0.236949,1.45096
1480535302776528,-1.27043,0.237245,1.45086
1480535302791568,-1.27032,0.237195,1.45102
1480535302831676,-1.27032,0.237195,1.45102
1480535302836188,-1.27099,0.236953,1.45068
1480535302876795,-1.27207,0.237027,1.44995
1480535302881808,-1.2737,0.237509,1.44967
1480535302921414,-1.27497,0.237624,1.4497
1480535302935953,-1.27555,0.237618,1.44958
1480535302938462,-1.2753,0.237641,1.44919
1480535302950491,-1.27444,0.237592,1.44916
1480535302981072,-1.27444,0.237592,1.44916
1480535302993605,-1.27431,0.237436,1.44985
1480535303026192,-1.27464,0.237384,1.45032
1480535303034215,-1.27488,0.237735,1.4513
1480535303055270,-1.27505,0.237595,1.45215
1480535303070311,-1.27427,0.23737,1.45275
1480535303094374,-1.2734,0.237005,1.45296
1480535303106908,-1.27354,0.237676,1.45346
1480535303151025,-1.27382,0.238149,1.45351
1480535303161553,-1.27469,0.239112,1.45378
1480535303175093,-1.27589,0.240169,1.45398
1480535303191131,-1.27773,0.241584,1.45501
1480535303212689,-1.27836,0.242255,1.45628
1480535303233745,-1.27848,0.241584,1.45702
1480535303251793,-1.27845,0.241401,1.45711
1480535303272850,-1.27824,0.240798,1.45585
1480535303303932,-1.27823,0.241296,1.45505
1480535303311451,-1.2781,0.241182,1.45505
1480535303347547,-1.27607,0.240149,1.45459
1480535303354066,-1.27358,0.240397,1.4541
1480535303383658,-1.27163,0.240771,1.45401
1480535303392667,-1.2709,0.240896,1.45413
1480535303422747,-1.27099,0.240346,1.45417
1480535303430268,-1.27076,0.239662,1.45428
1480535303460347,-1.26963,0.2392,1.45435
1480535303474388,-1.26826,0.238735,1.45434
1480535303490428,-1.26767,0.238453,1.45441
1480535303512987,-1.26767,0.238453,1.45441
1480535303535547,-1.26777,0.238384,1.4545
1480535303550086,-1.26682,0.238196,1.45409
1480535303572963,-1.26575,0.238416,1.45374
1480535303593702,-1.26575,0.238416,1.45374
1480535303610250,-1.2665,0.238313,1.45378
1480535303633307,-1.26636,0.238239,1.45378
1480535303664390,-1.26563,0.238302,1.45375
1480535303670409,-1.2652,0.238752,1.45324
1480535303692969,-1.26586,0.238614,1.45304
1480535303714026,-1.26651,0.238684,1.45314
1480535303745105,-1.26639,0.23857,1.45314
1480535303752628,-1.2664,0.238633,1.4533
1480535303775188,-1.26626,0.23856,1.45329
1480535303790226,-1.26626,0.23856,1.45329
1480535303812785,-1.26626,0.23856,1.45329
1480535303835846,-1.26628,0.23852,1.4533
1480535303851889,-1.26628,0.23852,1.4533
1480535303872945,-1.26628,0.23852,1.4533
1480535303902022,-1.26608,0.238825,1.45343
1480535303910545,-1.26588,0.239067,1.4534
1480535303941628,-1.26631,0.239092,1.45341
1480535303963686,-1.26695,0.239516,1.45325
1480535303971708,-1.26681,0.239443,1.45325
1480535304000284,-1.26638,0.239835,1.45314
1480535304015324,-1.26624,0.239762,1.45313
1480535304029862,-1.26648,0.239989,1.45313
1480535304052924,-1.26713,0.240058,1.45322
1480535304098043,-1.26718,0.239949,1.45354
1480535304100551,-1.2672,0.239909,1.45354
1480535304143163,-1.26706,0.239836,1.45354
1480535304145671,-1.26706,0.239836,1.45354
1480535304163719,-1.26706,0.239836,1.45354
1480535304181769,-1.26697,0.239968,1.45361
1480535304210342,-1.26683,0.239895,1.4536
1480535304212348,-1.26693,0.239722,1.45354
1480535304240924,-1.26693,0.239722,1.45354
1480535304255965,-1.26693,0.239722,1.45354
1480535304278025,-1.26693,0.239722,1.45354
1480535304293062,-1.26693,0.239722,1.45354
1480535304322642,-1.26693,0.239722,1.45354
1480535304336177,-1.26693,0.239722,1.45354
1480535304361250,-1.26679,0.239649,1.45354
1480535304375285,-1.26679,0.239649,1.45354
1480535304403857,-1.26681,0.239609,1.45355
1480535304412380,-1.26681,0.239609,1.45355
1480535304459004,-1.26667,0.239536,1.45354
1480535304464017,-1.26667,0.239536,1.45354
1480535304480561,-1.26711,0.239624,1.45371
1480535304495099,-1.26742,0.239536,1.45373
1480535304517661,-1.26728,0.239462,1.45372
1480535304532700,-1.26673,0.239324,1.45371
1480535304562780,-1.26673,0.239324,1.45371
1480535304576316,-1.26692,0.239288,1.45403
1480535304592859,-1.26677,0.239215,1.45403
1480535304615419,-1.26677,0.239215,1.45403
1480535304638986,-1.26677,0.239215,1.45403
1480535304660540,-1.26677,0.239215,1.45403
1480535304698139,-1.26766,0.239122,1.45391
1480535304702150,-1.26797,0.238931,1.45379
1480535304712678,-1.2674,0.239083,1.45337
1480535304736744,-1.26713,0.239566,1.45288
1480535304774343,-1.26751,0.240117,1.45248
1480535304778855,-1.26794,0.240365,1.45239
1480535304795398,-1.26836,0.240271,1.45265
1480535304818459,-1.26875,0.240301,1.4522
1480535304832999,-1.26918,0.240474,1.45167
1480535304855059,-1.27064,0.24071,1.45034
1480535304877617,-1.27333,0.241305,1.44931
1480535304892156,-1.27609,0.24233,1.45063
1480535304928753,-1.2779,0.242525,1.45289
1480535304937778,-1.27766,0.241055,1.45375
1480535304966353,-1.27629,0.24024,1.45285
1480535304975377,-1.27514,0.241022,1.45207
1480535304998940,-1.27321,0.241267,1.45213
1480535305011975,-1.2712,0.241436,1.45197
1480535305035036,-1.27089,0.241672,1.45141
1480535305057596,-1.27144,0.241914,1.45157
1480535305078652,-1.27081,0.241554,1.45188
1480535305095196,-1.26963,0.241202,1.45164
1480535305117756,-1.26828,0.241276,1.45128
1480535305133799,-1.26828,0.241276,1.45128
1480535305154855,-1.26886,0.241168,1.451
1480535305177916,-1.26921,0.241222,1.45094
1480535305200977,-1.26921,0.241222,1.45094
1480535305216519,-1.26849,0.241079,1.45062
1480535305238077,-1.26856,0.241301,1.4503
1480535305258631,-1.26902,0.241508,1.45022
1480535305288711,-1.26904,0.241468,1.45023
1480535305297735,-1.26804,0.241346,1.4502
1480535305327814,-1.26804,0.241346,1.4502
1480535305335335,-1.26844,0.241188,1.45031
1480535305357896,-1.26882,0.241173,1.45054
1480535305379452,-1.26882,0.241173,1.45054
1480535305395495,-1.26839,0.241148,1.45053
1480535305417554,-1.26839,0.241148,1.45053
1480535305438610,-1.26921,0.241473,1.45054
1480535305455153,-1.2692,0.241409,1.45039
1480535305478716,-1.26875,0.241843,1.45027
1480535305507292,-1.26876,0.242054,1.44988
1480535305516818,-1.26922,0.242242,1.44896
1480535305551910,-1.26968,0.242764,1.44864
1480535305566449,-1.27037,0.243078,1.4488
1480535305575975,-1.27181,0.242954,1.44839
1480535305598033,-1.27335,0.243421,1.44872
1480535305635132,-1.2749,0.243716,1.44989
1480535305641149,-1.27546,0.243006,1.44981
1480535305657693,-1.27573,0.243067,1.44882
1480535305680253,-1.27735,0.244459,1.44946
1480535305695292,-1.27886,0.244639,1.45156
1480535305717853,-1.2792,0.244114,1.45367
1480535305756455,-1.27802,0.24262,1.45442
1480535305761468,-1.27605,0.241767,1.45433
1480535305778013,-1.2747,0.241901,1.45412
1480535305801575,-1.27422,0.242477,1.45414
1480535305814609,-1.27419,0.242398,1.45437
1480535305839177,-1.27407,0.242284,1.45438
1480535305875773,-1.27182,0.24212,1.45408
1480535305882793,-1.26907,0.241962,1.45369
1480535305906354,-1.2674,0.241796,1.45327
1480535305921895,-1.26704,0.241186,1.45284
1480535305934428,-1.26704,0.241186,1.45284
1480535305957489,-1.26714,0.241117,1.45293
1480535305987070,-1.26669,0.241057,1.45247
1480535305994588,-1.26597,0.241303,1.45235
1480535306041714,-1.26558,0.241255,1.45195
1480535306046225,-1.26546,0.241393,1.45156
1480535306064274,-1.26531,0.24132,1.45156
1480535306079313,-1.26472,0.241457,1.45154
1480535306106666,-1.26411,0.241635,1.45151
1480535306122929,-1.26411,0.241635,1.45151
1480535306145490,-1.26426,0.241575,1.45166
1480535306160529,-1.26428,0.241536,1.45167
1480535306188604,-1.26428,0.241536,1.45167
1480535306197628,-1.26428,0.241536,1.45167
1480535306236231,-1.26449,0.241516,1.4516
1480535306244754,-1.26445,0.241373,1.45168
1480535306258791,-1.26443,0.24134,1.45123
1480535306280348,-1.26443,0.24134,1.45123
1480535306327473,-1.26457,0.241413,1.45124
1480535306331484,-1.26434,0.241472,1.4513
1480535306355047,-1.26434,0.241472,1.4513
1480535306364072,-1.26434,0.241472,1.4513
1480535306385127,-1.26433,0.241157,1.45154
1480535306400167,-1.26418,0.240546,1.45188
1480535306422728,-1.2642,0.240506,1.45189
1480535306438772,-1.2642,0.240506,1.45189
1480535306475368,-1.2642,0.240506,1.45189
1480535306481383,-1.26407,0.240496,1.45203
1480535306511463,-1.26406,0.240432,1.45188
1480535306520489,-1.26383,0.240166,1.4519
1480535306543047,-1.26383,0.240166,1.4519
1480535306557586,-1.26383,0.240166,1.4519
1480535306586163,-1.26371,0.240053,1.4519
1480535306601202,-1.26371,0.240053,1.4519
1480535306625266,-1.26371,0.240053,1.4519
1480535306640306,-1.26371,0.240053,1.4519
1480535306668883,-1.26357,0.239979,1.4519
1480535306678412,-1.26359,0.239939,1.45191
1480535306700466,-1.26359,0.239939,1.45191
1480535306723527,-1.26368,0.23987,1.45199
1480535306745586,-1.26344,0.239866,1.4519
1480535306761128,-1.26354,0.239796,1.45199
1480535306789202,-1.26356,0.239757,1.452
1480535306798727,-1.26356,0.239757,1.452
1480535306820292,-1.26356,0.239757,1.452
1480535306842844,-1.26385,0.239708,1.452
1480535306857385,-1.26385,0.239708,1.452
1480535306880445,-1.26385,0.239708,1.452
1480535306910525,-1.26385,0.239708,1.452
1480535306924061,-1.26387,0.239668,1.45201
1480535306941005,-1.26429,0.239796,1.45217
1480535306962663,-1.26475,0.2399,1.45194
1480535306984220,-1.26485,0.239831,1.45203
1480535307000263,-1.26471,0.240072,1.45178
1480535307023325,-1.26459,0.240537,1.45144
1480535307037362,-1.26518,0.240817,1.45136
1480535307060423,-1.26557,0.241014,1.45121
1480535307082984,-1.26586,0.241217,1.45082
1480535307105042,-1.26588,0.241178,1.45083
1480535307120585,-1.26574,0.241104,1.45083
1480535307149159,-1.26574,0.241104,1.45083
1480535307164199,-1.26574,0.241104,1.45083
1480535307181746,-1.26574,0.241104,1.45083
1480535307211826,-1.26585,0.241321,1.45097
1480535307224359,-1.26643,0.241315,1.45084
1480535307240403,-1.26643,0.241315,1.45084
1480535307262965,-1.26648,0.241355,1.45061
1480535307291538,-1.26647,0.241292,1.45046
1480535307310088,-1.26648,0.241355,1.45061
1480535307322620,-1.26694,0.241459,1.45039
1480535307343676,-1.26724,0.241725,1.45015
1480535307360222,-1.26726,0.241685,1.45016
1480535307384786,-1.26745,0.241854,1.44954
1480535307428402,-1.26823,0.242184,1.44909
1480535307430910,-1.26952,0.242182,1.44868
1480535307456977,-1.27053,0.242423,1.44847
1480535307463996,-1.27208,0.242766,1.44781
1480535307482045,-1.27419,0.243414,1.44746
1480535307502600,-1.27573,0.245077,1.44876
1480535307531176,-1.27621,0.245713,1.4517
1480535307540703,-1.27614,0.243211,1.45164
1480535307586826,-1.27596,0.243356,1.44964
1480535307592840,-1.2753,0.245052,1.44875
1480535307600360,-1.27281,0.244911,1.4492
1480535307622920,-1.26922,0.243749,1.4497
1480535307653504,-1.26668,0.243745,1.44955
1480535307660520,-1.26645,0.245071,1.44962
1480535307697619,-1.26718,0.245706,1.45028
1480535307713661,-1.26781,0.244818,1.45081
1480535307719677,-1.26702,0.243606,1.45071
1480535307743742,-1.2646,0.243548,1.45026
1480535307779837,-1.263,0.244173,1.44957
1480535307786354,-1.26333,0.244519,1.4491
1480535307816434,-1.26506,0.244409,1.44885
1480535307825459,-1.26588,0.244211,1.44881
1480535307863058,-1.2655,0.244004,1.44867
1480535307865565,-1.26445,0.243992,1.44833
1480535307908178,-1.26432,0.243982,1.44848
1480535307910685,-1.26452,0.244065,1.44855
1480535307930237,-1.26505,0.24402,1.44865
1480535307945278,-1.26505,0.24402,1.44865
1480535307968342,-1.265,0.243877,1.44873
1480535307982877,-1.265,0.243877,1.44873
1480535308021480,-1.265,0.243877,1.44873
1480535308026493,-1.265,0.243877,1.44873
1480535308065597,-1.265,0.243877,1.44873
1480535308069106,-1.26502,0.243837,1.44874
1480535308088158,-1.26502,0.243837,1.44874
1480535308103198,-1.26488,0.243764,1.44874
1480535308125757,-1.26488,0.243764,1.44874
1480535308147816,-1.26488,0.243764,1.44874
1480535308170376,-1.26488,0.243764,1.44874
1480535308185416,-1.26488,0.243764,1.44874
1480535308223517,-1.26488,0.243764,1.44874
1480535308225523,-1.26541,0.243615,1.44869
1480535308245576,-1.26541,0.243615,1.44869
1480535308266646,-1.26527,0.243542,1.44868
1480535308290195,-1.26529,0.243502,1.44869
1480535308307240,-1.26519,0.243571,1.44861
1480535308335317,-1.26505,0.243498,1.4486
1480535308342835,-1.26505,0.243498,1.4486
1480535308365896,-1.26506,0.243561,1.44876
1480535308386457,-1.26472,0.243255,1.44922
1480535308409011,-1.26472,0.243255,1.44922
1480535308425053,-1.2648,0.243123,1.44915
1480535308449118,-1.26446,0.243235,1.44952
1480535308462654,-1.26446,0.243235,1.44952
1480535308491229,-1.26446,0.243235,1.44952
1480535308506847,-1.26446,0.243235,1.44952
1480535308535848,-1.26446,0.243235,1.44952
1480535308546877,-1.26448,0.243195,1.44953
1480535308567934,-1.26478,0.24321,1.44969
1480535308584477,-1.26506,0.24316,1.44969
1480535308611048,-1.26508,0.243121,1.4497
1480535308627592,-1.26494,0.243047,1.4497
1480535308643133,-1.26494,0.243047,1.4497
1480535308665192,-1.26555,0.242972,1.44987
1480535308687754,-1.26555,0.242972,1.44987
1480535308702291,-1.26564,0.242903,1.44996
1480535308725352,-1.2655,0.24283,1.44995
1480535308747913,-1.26559,0.242863,1.45018
1480535308770473,-1.26567,0.242834,1.45026
1480535308785512,-1.26557,0.242903,1.45018
1480535308813587,-1.2661,0.242858,1.45027
1480535308830132,-1.26671,0.242784,1.45045
1480535308845672,-1.26671,0.242784,1.45045
1480535308883272,-1.26673,0.242744,1.45046
1480535308897810,-1.26687,0.24304,1.45036
1480535308905331,-1.26674,0.24303,1.45051
1480535308927890,-1.26674,0.24303,1.45051
1480535308941928,-1.26711,0.24337,1.4505
1480535308965491,-1.26746,0.243527,1.45058
1480535308988056,-1.26746,0.243527,1.45058
1480535309002591,-1.26754,0.243394,1.45051
1480535309025149,-1.26754,0.243394,1.45051
1480535309047710,-1.26754,0.243394,1.45051
1480535309100851,-1.26746,0.243527,1.45058
1480535309106013,-1.26746,0.243527,1.45058
1480535309118398,-1.26792,0.243631,1.45035
1480535309136448,-1.26838,0.243735,1.45013
1480535309145470,-1.26808,0.244242,1.45002
1480535309168030,-1.26777,0.244749,1.44991
1480535309196605,-1.26765,0.244858,1.44981
1480535309206132,-1.26775,0.244789,1.4499
1480535309235710,-1.26823,0.244956,1.44983
1480535309248745,-1.26863,0.244798,1.44993
1480535309278825,-1.26862,0.244735,1.44977
1480535309288851,-1.26863,0.244798,1.44993
1480535309308915,-1.26862,0.244735,1.44977
1480535309325458,-1.26863,0.244798,1.44993
1480535309355036,-1.26849,0.244725,1.44992
1480535309376092,-1.26849,0.244725,1.44992
1480535309400157,-1.26849,0.244725,1.44992
1480535309416700,-1.26849,0.244725,1.44992
1480535309444274,-1.26839,0.244794,1.44984
1480535309452805,-1.26839,0.244794,1.44984
1480535309467837,-1.26839,0.244794,1.44984
1480535309490397,-1.26839,0.244794,1.44984
1480535309512957,-1.26839,0.244794,1.44984
1480535309527997,-1.26839,0.244794,1.44984
1480535309550060,-1.26839,0.244794,1.44984
1480535309566099,-1.26849,0.244725,1.44992
1480535309593671,-1.26839,0.244794,1.44984
1480535309610216,-1.26839,0.244794,1.44984
1480535309655837,-1.26849,0.244725,1.44992
1480535309658344,-1.26849,0.244725,1.44992
1480535309695944,-1.26832,0.24472,1.44961
1480535309700456,-1.26822,0.244789,1.44953
1480535309731538,-1.26822,0.244789,1.44953
1480535309736556,-1.26832,0.24472,1.44961
1480535309751092,-1.26822,0.244789,1.44953
1480535309767634,-1.26871,0.24502,1.44961
1480535309790195,-1.26998,0.245385,1.44924
1480535309812755,-1.2718,0.245561,1.44883
1480535309835315,-1.27272,0.24674,1.44946
1480535309850354,-1.27306,0.246751,1.45008
1480535309872914,-1.27356,0.24603,1.44992
1480535309893970,-1.27357,0.245905,1.44894
1480535309916530,-1.27325,0.246348,1.44867
1480535309933576,-1.27221,0.246147,1.44888
1480535309962653,-1.27112,0.24599,1.44862
1480535309970174,-1.27113,0.246054,1.44877
1480535310008274,-1.27127,0.246128,1.44878
1480535310010782,-1.27113,0.246054,1.44877
1480535310030835,-1.26996,0.246094,1.44874
1480535310051389,-1.26929,0.246484,1.44854
1480535310067933,-1.26929,0.246484,1.44854
1480535310090994,-1.26993,0.246489,1.44848
1480535310111549,-1.27003,0.246419,1.44856
1480535310127591,-1.26955,0.246504,1.44824
1480535310150152,-1.26957,0.246567,1.44839
1480535310171208,-1.26957,0.246567,1.44839
1480535310194771,-1.26957,0.246567,1.44839
1480535310209811,-1.26947,0.246637,1.44831
1480535310248915,-1.26957,0.246567,1.44839
1480535310253930,-1.26957,0.246567,1.44839
1480535310287019,-1.26944,0.246454,1.4484
1480535310291027,-1.26944,0.246454,1.4484
1480535310308072,-1.26944,0.246454,1.4484
1480535310330130,-1.26944,0.246454,1.4484
1480535310351187,-1.26944,0.246454,1.4484
1480535310368232,-1.2693,0.246381,1.44839
1480535310390290,-1.2693,0.246381,1.44839
1480535310411346,-1.2693,0.246381,1.44839
1480535310427890,-1.2693,0.246381,1.44839
1480535310450952,-1.2698,0.246404,1.44819
1480535310489054,-1.27052,0.246527,1.44766
1480535310501085,-1.27125,0.246817,1.44744
1480535310525149,-1.27166,0.246658,1.44754
1480535310532669,-1.27092,0.246305,1.44761
1480535310563250,-1.26971,0.246621,1.44756
1480535310570269,-1.26836,0.246762,1.44736
1480535310592830,-1.26836,0.246762,1.44736
1480535310606866,-1.26929,0.246987,1.44775
1480535310631934,-1.26999,0.246843,1.44801
1480535310654994,-1.26962,0.246607,1.44817
1480535310667026,-1.26891,0.246854,1.44805
1480535310690088,-1.26891,0.246854,1.44805
1480535310712648,-1.26925,0.247011,1.44813
1480535310727186,-1.26925,0.247011,1.44813
1480535310765288,-1.26915,0.24708,1.44804
1480535310781331,-1.26972,0.247178,1.44806
1480535310798877,-1.26958,0.247105,1.44805
1480535310815923,-1.2696,0.247065,1.44806
1480535310832968,-1.2696,0.247065,1.44806
1480535310847005,-1.2696,0.247065,1.44806
1480535310871072,-1.2698,0.247252,1.44828
1480535310900147,-1.26988,0.247119,1.44821
1480535310915186,-1.26988,0.247119,1.44821
1480535310930728,-1.27042,0.247715,1.44811
1480535310952790,-1.27047,0.247858,1.44803
1480535310974344,-1.27043,0.247611,1.44797
1480535311001416,-1.27044,0.247675,1.44812
1480535311044030,-1.27044,0.247675,1.44812
1480535311049544,-1.27034,0.247744,1.44804
1480535311059070,-1.2702,0.247671,1.44803
1480535311073609,-1.2702,0.247671,1.44803
1480535311093661,-1.2702,0.247671,1.44803
1480535311110206,-1.26987,0.247577,1.44811
1480535311132766,-1.26945,0.247095,1.4482
1480535311153823,-1.26945,0.247095,1.4482
1480535311178888,-1.26945,0.247095,1.4482
1480535311200446,-1.26945,0.247095,1.4482
1480535311215486,-1.26945,0.247095,1.4482
1480535311230526,-1.26945,0.247095,1.4482
1480535311275646,-1.26945,0.247095,1.4482
1480535311278153,-1.26955,0.247026,1.44829
1480535311320766,-1.26955,0.247026,1.44829
1480535311323272,-1.26941,0.246952,1.44828
1480535311333800,-1.26933,0.246982,1.44821
1480535311358366,-1.26933,0.246982,1.44821
1480535311373406,-1.26933,0.246982,1.44821
1480535311396968,-1.26969,0.246681,1.44839
1480535311418529,-1.26955,0.246607,1.44838
1480535311432563,-1.26955,0.246607,1.44838
1480535311462642,-1.26964,0.246538,1.44847
1480535311472170,-1.26955,0.246607,1.44838
1480535311492723,-1.26955,0.246607,1.44838
1480535311516792,-1.26955,0.246607,1.44838
1480535311537843,-1.26966,0.246498,1.44848
1480535311552888,-1.26966,0.246498,1.44848
1480535311590984,-1.26952,0.246425,1.44848
1480535311592989,-1.26987,0.246582,1.44855
1480535311613044,-1.26987,0.246582,1.44855
1480535311635103,-1.26987,0.246582,1.44855
1480535311649640,-1.26987,0.246582,1.44855
1480535311672705,-1.27031,0.246725,1.44832
1480535311695262,-1.27125,0.246837,1.44828
1480535311709801,-1.27132,0.246994,1.4478
1480535311733864,-1.27144,0.247359,1.4474
1480535311755422,-1.27131,0.2476,1.44716
1480535311794024,-1.27131,0.2476,1.44716
1480535311799038,-1.27152,0.247831,1.44669
1480535311832127,-1.27163,0.248077,1.44654
1480535311836638,-1.27163,0.248077,1.44654
1480535311852683,-1.27156,0.248225,1.44621
1480535311875743,-1.27214,0.248573,1.44583
1480535311896296,-1.27235,0.248553,1.44576
1480535311912840,-1.27235,0.248553,1.44576
1480535311935400,-1.27152,0.248856,1.44595
1480535311956458,-1.27152,0.248856,1.44595
1480535311972500,-1.27228,0.248973,1.44588
1480535311995058,-1.27228,0.248973,1.44588
1480535312016115,-1.2721,0.249071,1.44572
1480535312032659,-1.27185,0.2492,1.44548
1480535312055219,-1.27183,0.24924,1.44547
1480535312076275,-1.27239,0.249627,1.44508
1480535312099839,-1.27314,0.249773,1.44472
1480535312115379,-1.27371,0.249702,1.44443
1480535312145459,-1.27377,0.249637,1.44406
1480535312152983,-1.27352,0.249766,1.44382
1480535312175038,-1.27352,0.249766,1.44382
1480535312196094,-1.2733,0.249722,1.44374
1480535312220160,-1.27331,0.249786,1.44389
1480535312235198,-1.27351,0.249869,1.44397
1480535312256254,-1.27347,0.249727,1.44405
1480535312272800,-1.27337,0.249796,1.44396
1480535312302879,-1.27337,0.249796,1.44396
1480535312323934,-1.27338,0.24986,1.44411
1480535312346495,-1.27338,0.24986,1.44411
1480535312355016,-1.27338,0.24986,1.44411
1480535312378079,-1.27338,0.24986,1.44411
1480535312392616,-1.27338,0.24986,1.44411
1480535312415176,-1.27326,0.249747,1.44412
1480535312445256,-1.27326,0.249747,1.44412
1480535312452778,-1.27326,0.249747,1.44412
1480535312475838,-1.27326,0.249747,1.44412
1480535312497897,-1.27326,0.249747,1.44412
1480535312511940,-1.27326,0.249747,1.44412
1480535312535499,-1.27326,0.249747,1.44412
1480535312571092,-1.27326,0.249747,1.44412
1480535312589640,-1.27326,0.249747,1.44412
1480535312610195,-1.27326,0.249747,1.44412
1480535312627240,-1.27311,0.249674,1.44411
1480535312633758,-1.27313,0.249634,1.44412
1480535312655315,-1.27313,0.249634,1.44412
1480535312677374,-1.27313,0.249634,1.44412
1480535312692916,-1.27299,0.249561,1.44412
1480535312722494,-1.27313,0.249634,1.44412
1480535312737535,-1.27313,0.249634,1.44412
1480535312752073,-1.27299,0.249561,1.44412
1480535312782658,-1.2729,0.250049,1.44394
1480535312805215,-1.2729,0.250049,1.44394
1480535312818754,-1.2728,0.250118,1.44385
1480535312865876,-1.2728,0.250118,1.44385
1480535312868383,-1.27348,0.250042,1.44381
1480535312911497,-1.27334,0.249968,1.4438
1480535312933055,-1.27334,0.249968,1.4438
1480535312935562,-1.27334,0.249968,1.4438
1480535312941577,-1.27319,0.249895,1.4438
1480535312955113,-1.27319,0.249895,1.4438
1480535312985193,-1.27319,0.249895,1.4438
1480535312999731,-1.27334,0.249968,1.4438
1480535313016276,-1.27319,0.249895,1.4438
1480535313037332,-1.27319,0.249895,1.4438
1480535313058892,-1.27321,0.249855,1.44381
1480535313098494,-1.27321,0.249855,1.44381
1480535313101002,-1.27322,0.249919,1.44396
1480535313121054,-1.27322,0.249919,1.44396
1480535313142612,-1.27339,0.249653,1.44382
1480535313165172,-1.27349,0.249583,1.44391
1480535313178710,-1.27349,0.249583,1.44391
1480535313196756,-1.27339,0.249653,1.44382
1480535313218313,-1.27325,0.249579,1.44382
1480535313246388,-1.27325,0.249579,1.44382
1480535313255913,-1.27325,0.249579,1.44382
1480535313277972,-1.27335,0.24951,1.44391
1480535313300533,-1.27335,0.24951,1.44391
1480535313321086,-1.27335,0.24951,1.44391
1480535313337631,-1.27335,0.24951,1.44391
1480535313360191,-1.27276,0.249127,1.44384
1480535313377236,-1.27211,0.249124,1.4439
1480535313405813,-1.27202,0.249193,1.44381
1480535313420851,-1.27187,0.24912,1.44381
1480535313434389,-1.27189,0.249184,1.44396
1480535313457951,-1.27116,0.248895,1.44419
1480535313481011,-1.27037,0.248922,1.44439
1480535313495550,-1.27046,0.248853,1.44447
1480535313518112,-1.27047,0.248749,1.44433
1480535313540169,-1.26991,0.248716,1.44447
1480535313554708,-1.26991,0.248716,1.44447
1480535313577769,-1.26957,0.248456,1.44425
1480535313615877,-1.26958,0.24852,1.4444
1480535313619386,-1.26944,0.248447,1.44439
1480535313644947,-1.26954,0.248377,1.44448
1480535313659987,-1.26894,0.248098,1.44456
1480535313674527,-1.26826,0.247849,1.44456
1480535313697588,-1.26826,0.247849,1.44456
1480535313728671,-1.26812,0.247775,1.44455
1480535313734687,-1.26812,0.247775,1.44455
1480535313758249,-1.26822,0.247706,1.44464
1480535313780308,-1.26822,0.247706,1.44464
1480535313808886,-1.26823,0.247666,1.44465
1480535313817910,-1.26809,0.247593,1.44464
1480535313840970,-1.26809,0.247593,1.44464
