timestamp,x,y,z
1480685272605944,-0.5625,0.25,1
1480685272620487,-0.25,0.0625,0.8125
1480685272650563,-0.1875,-0.25,0.6875
1480685272658083,-0.125,0.1875,0.25
1480685272680643,-0.125,0.5,-0.25
1480685272703205,0.6875,0.4375,-0.4375
1480685272726766,0.625,0.3125,-0.5
1480685272740803,-0.5625,0.0625,-0.1875
1480685272770382,-0.625,0.0625,-0.3125
1480685272777400,0.0625,0,0.375
1480685272807982,-0.375,0.0625,0.75
1480685272824025,-0.75,-0.0625,0.625
1480685272837560,-0.5,-0.375,0.5
1480685272863630,-0.6875,-0.5,0.4375
1480685272883182,-1.5,-0.625,0.5
1480685272898723,-1.6875,-1.125,0.6875
1480685272921283,-1.75,-1.25,0.75
1480685272951363,-1.8125,-0.9375,0.4375
1480685272957379,-1.125,-0.4375,0.25
1480685272996985,-0.1875,-0.375,0.4375
1480685273003502,-0.4375,-0.25,0.1875
1480685273024056,-0.3125,-0.0625,0.0625
1480685273042105,-0.3125,-0.125,0.25
1480685273063160,-0.125,0,0.125
1480685273078703,-0.25,0.0625,0.25
1480685273107778,-0.25,-0.125,0.25
1480685273129336,-0.3125,-0.125,0.0625
1480685273151897,-0.3125,0,0
1480685273161924,-0.0625,-0.0625,0.125
1480685273182979,-0.0625,0,-0.0625
1480685273204035,-0.3125,0,-0.25
1480685273220582,-0.1875,0.25,-0.25
1480685273249154,0.125,0.125,-0.1875
1480685273264696,0.125,0,-0.1875
1480685273281240,-0.375,-0.25,-0.3125
1480685273303804,-0.5625,-0.125,-0.3125
1480685273324355,-0.3125,-0.1875,-0.25
1480685273340397,-0.25,-0.1875,-0.0625
1480685273371032,-0.9375,-0.4375,0
1480685273394093,-1.125,-0.5,0.4375
1480685273409135,-0.5625,-0.125,0
1480685273423672,-0.0625,-0.0625,0.1875
1480685273444226,0.375,-0.125,0.0625
1480685273460770,-0.375,-0.25,0.25
1480685273483330,-0.25,-0.25,0.3125
1480685273511405,0.0625,-0.3125,0.9375
1480685273521431,-0.375,-0.125,0.875
1480685273550509,-0.1875,0.0625,0.5
1480685273564045,0.5625,0.3125,-0.0625
1480685273580590,0.4375,0.4375,-0.3125
1480685273603650,0,0.25,-0.25
1480685273625709,0.3125,0.125,-0.3125
1480685273646766,0.3125,0.375,-0.5
1480685273670328,0.1875,0.5,-0.5625
1480685273685872,0.5625,0.4375,-0.625
1480685273700410,0.4375,0.375,-0.625
1480685273738007,0.375,0.375,-0.625
1480685273753549,0.25,0.1875,-0.375
1480685273761571,-0.125,0,-0.4375
1480685273785134,-0.3125,0.0625,-0.5625
1480685273806189,-0.9375,-0.25,-0.375
1480685273819725,-1.875,-0.75,-0.5
1480685273843288,-1.625,-1,-1.0625
1480685273865347,-1.75,-1.1875,-1.25
1480685273879885,-1.3125,-1.4375,-1.1875
1480685273903447,-1,-1.25,-1.375
1480685273925506,-1.125,-1,-1.5
1480685273948067,-0.375,-0.5625,-1.1875
1480685273963607,-0.3125,-0.0625,-1.0625
1480685273985667,-0.125,0.125,-0.9375
1480685273999703,0.4375,0.5,-0.875
1480685274023767,0.5,0.5625,-0.8125
1480685274045325,0,0.5,-0.375
1480685274060365,0,0.4375,-0.3125
1480685274083426,-0.125,0.125,-0.0625
1480685274105485,0.0625,0.125,0
1480685274128045,0.25,0,0
1480685274143085,0.125,-0.1875,-0.1875
1480685274173165,0.3125,-0.375,0.0625
1480685274186701,-0.1875,-0.3125,0.1875
1480685274203245,-0.125,-0.4375,0.875
1480685274226306,-0.625,-0.4375,1.125
1480685274246360,-1,-0.1875,0.875
1480685274262903,0.0625,-0.1875,0.5625
1480685274285463,0.1875,-0.125,0.125
1480685274306519,-0.875,-0.4375,0.25
1480685274323064,-1.125,-0.75,0.3125
1480685274345624,-1.125,-1,0.3125
1480685274366679,-1.3125,-0.75,0.1875
1480685274383224,-1.5625,-0.8125,0.375
1480685274405784,-1.75,-1.0625,0.5
1480685274426838,-2.0625,-1.0625,0.1875
1480685274442883,-1.125,-0.6875,-0.375
1480685274465442,-0.4375,-0.25,-0.25
1480685274486498,-0.625,-0.0625,-0.25
1480685274503543,-0.5,0.0625,-0.25
1480685274525602,-0.25,0.25,-0.4375
1480685274548162,0.0625,0.5625,-0.5625
1480685274563202,0.25,0.5625,-0.5
1480685274585764,0.125,0.5,-0.375
1480685274615340,-0.0625,0.4375,-0.0625
1480685274622860,-0.125,0.375,0.0625
1480685274645420,-0.4375,0.3125,0.1875
1480685274668482,-0.9375,0.0625,0.1875
1480685274682519,-0.875,-0.125,0.125
1480685274711596,-1.125,-0.375,0.3125
1480685274734161,-1.375,-0.625,0.3125
1480685274742178,-1.625,-0.8125,0.4375
1480685274765741,-1.25,-0.625,0.1875
1480685274794316,-1,-0.5625,-0.0625
1480685274802340,-1.5625,-0.6875,0
1480685274825399,-1.3125,-0.5,0.1875
1480685274847960,-0.6875,0.125,-0.4375
1480685274869015,0,0.25,-0.75
1480685274899095,0.25,0.1875,-0.9375
1480685274915643,-0.375,0.1875,-0.625
1480685274929175,-0.125,0.3125,-0.125
1480685274945721,-0.6875,0.0625,0.6875
1480685274969282,-0.625,0.9375,0.0625
1480685274982818,0.375,1.4375,-0.8125
1480685275005378,1.1875,1.625,-1.25
1480685275027938,-0.3125,1.4375,-0.875
1480685275048993,-1,0.4375,-0.4375
1480685275065538,-0.875,0.375,-0.625
1480685275094114,-1.1875,0.6875,-1.25
1480685275109154,-1,0.8125,-1.1875
1480685275125697,-0.5,0.625,-0.6875
1480685275148258,-1.3125,0.75,-0.3125
1480685275170319,-1.25,0.875,-0.5625
1480685275192877,-0.9375,0.8125,-0.5
1480685275209421,-1.0625,0.6875,-0.3125
1480685275231479,-0.75,0.75,-0.1875
1480685275251532,-0.4375,0.8125,-0.5625
1480685275268077,-0.375,1.0625,-1
1480685275289133,0.0625,1.0625,-1.375
1480685275313196,0.6875,1.3125,-1.5
1480685275329239,1.4375,1.9375,-1.8125
1480685275357815,1.75,2.3125,-2.3125
1480685275365335,2.1875,2.875,-2.5625
1480685275387895,3.0625,3.875,-3.125
1480685275408952,5.5,5,-4.25
1480685275425495,4.75,6.125,-6.3125
1480685275448056,0.9375,6.4375,-9.8125
1480685275469112,-2.875,5.5,-11.9375
1480685275491671,-4.9375,3.875,-10
1480685275515735,-2.125,3.3125,-9.0625
1480685275530273,0.375,3.5,-8.875
1480685275545313,0.9375,3.375,-8.75
1480685275568877,-0.625,2.4375,-10
1480685275590935,-2.0625,2.5625,-10.6875
1480685275605474,-0.4375,4.0625,-9.625
1480685275637563,2.375,6.125,-9
1480685275658115,6.75,10.5625,-9.875
1480685275671649,10.1875,15.9375,-9.5
1480685275694209,14.6875,21.75,-9.4375
1480685275710753,23.4375,30.0625,-11.0625
1480685275731812,35,38.75,-14
1480685275747852,39.375,45.0625,-13.8125
1480685275770413,38.0625,50.625,-15.875
1480685275792974,38.8125,56.9375,-15.8125
1480685275815532,39.6875,62.375,-14.1875
1480685275838093,39.75,68.75,-12.5
1480685275859148,38.6875,74.6875,-15.625
1480685275883213,34.625,81.5,-17.25
1480685275907276,32.3125,85.375,-18.25
1480685275911287,28.9375,85,-21.875
1480685275929335,23.4375,79.125,-30.25
1480685275950893,11.75,74.8125,-32.375
1480685275971537,5.5625,61.3125,-42.5
1480685275987991,-2.3125,36.25,-46.375
1480685276012556,-9,30.8125,-48.1875
1480685276032609,-14.0625,22.9375,-52.4375
1480685276048652,-16.4375,17.75,-42.4375
1480685276076727,-25.0625,-1.5625,-28.6875
1480685276093772,-22.4375,-11.6875,-18.375
1480685276114326,-28.9375,-15.875,-11.625
1480685276130369,-35.75,-33.5625,-7.8125
1480685276168471,-35.875,-33.5625,2.8125
1480685276181505,-35,-28.375,14.4375
1480685276190529,-23.9375,-19.0625,12.875
1480685276211585,-15.3125,-9.8125,7.375
1480685276228129,-13.1875,-4.625,4.5625
1480685276253196,-14,-5.0625,2.6875
1480685276279265,-12.0625,-7.75,3.8125
1480685276288289,-8.625,-6.3125,0.5
1480685276310348,-8.6875,-5.5,0.625
1480685276332407,-10.125,-2.875,1.8125
1480685276347948,-3.1875,-2.625,-2
1480685276372017,-12.375,3,3
1480685276393068,-15.6875,-6.3125,4.875
1480685276422145,-17.5625,-2.25,15.4375
1480685276431671,-15.875,-5.0625,19.25
1480685276467767,1.25,-8.5,16.3125
1480685276470273,15.0625,0.875,12.25
1480685276490326,9.125,7.0625,2.3125
1480685276512886,-5.5,0,-5.9375
1480685276529932,-7.625,1.75,-5.375
1480685276550487,-5.375,3.375,-6.375
1480685276573548,1.3125,3.75,-4
1480685276595606,8.125,3.375,1.375
1480685276610145,10.0625,0.625,5
1480685276633207,8.1875,-2.75,8.3125
1480685276647244,11.625,-6.8125,9.25
1480685276684343,18.25,-7.1875,13.8125
1480685276692865,22.4375,-5.5,16.5
1480685276713921,21.9375,-5.25,15.25
1480685276761046,16.9375,-4.4375,13.3125
1480685276763553,11.6875,-4.3125,12.0625
1480685276774583,8.9375,-4.1875,8.6875
1480685276790625,4.1875,-5.0625,6.8125
1480685276813186,0.75,-5.5,4.1875
1480685276827222,-1.9375,-6.5,3.3125
1480685276865825,-1.25,-5.875,1.8125
1480685276889388,-1.0625,-5,1.4375
1480685276901421,-2.6875,-5.3125,0.0625
1480685276910449,-4.3125,-5.75,-3
1480685276933004,-2.875,-4,-1.1875
1480685276955063,-0.125,-1.3125,1.125
1480685276970604,1.5,0.5625,1.25
1480685276993163,0.0625,0.625,0.4375
1480685277014220,-2.75,-0.75,0.0625
1480685277037285,-1.9375,-0.3125,1.9375
1480685277053324,2.5,1.6875,2.375
1480685277081398,7.75,1.6875,1.0625
1480685277090923,6.6875,-1.1875,-2.8125
1480685277112982,6.375,-0.8125,0.5625
1480685277135547,10.4375,2.0625,4.625
1480685277156598,14.3125,4.125,7.125
1480685277173143,12.4375,4.9375,7.1875
1480685277196204,10.25,3.875,3.9375
1480685277218262,7.9375,3.25,-1.3125
1480685277233302,5.0625,3.375,-1.5625
1480685277254859,3.4375,3.125,0.0625
1480685277285442,2.875,1.5625,0.1875
1480685277294465,2.3125,0.6875,-1
1480685277314016,4.375,1.125,0.5625
1480685277330561,7.3125,2.375,1.25
1480685277359136,7.4375,2.4375,1.5625
1480685277381696,6.375,-0.125,0.5625
1480685277391223,3.4375,-1.4375,-1.375
1480685277413281,3.25,-1.9375,0.125
1480685277435846,3.0625,-1.25,0.9375
1480685277450379,2.6875,-1.25,1.3125
1480685277472940,1.8125,-1.75,0.1875
1480685277495500,2,-2.9375,0.125
1480685277524075,0.6875,-2.875,0.3125
1480685277539118,1.1875,-1.375,0.4375
1480685277578721,3.75,-0.875,-0.625
1480685277581227,1.875,-1.3125,-3.125
1480685277593259,0.6875,-1.5625,-3.1875
1480685277615318,3.5,-0.6875,-2.3125
1480685277643894,3.3125,0.8125,-1.75
1480685277677987,2.125,1.9375,-0.25
1480685277681495,1.5625,2.6875,1.375
1480685277690017,2.3125,3.0625,2.25
1480685277713079,3.5,3.5625,3.625
1480685277735640,4.375,3.5625,3.4375
1480685277749677,2.875,0.9375,1.625
1480685277773238,-0.5625,-0.0625,-0.4375
1480685277795798,-0.625,-0.125,0.1875
1480685277823873,0.5,0.5,0.5625
1480685277846433,-0.5,1.125,0.8125
1480685277855457,-1.1875,0.5625,-0.4375
1480685277880022,-2.1875,-0.0625,-1.625
1480685277893057,-2.5625,-0.0625,-1.5625
1480685277915617,-2.3125,0.375,-1.5625
1480685277944694,-1.375,0.125,-1.375
1480685277955222,-0.5625,-3.3125,-1.5625
1480685277975275,-1.875,-4.9375,-3.125
1480685277998838,-2.375,-3.4375,-3.8125
1480685278018908,0.125,-1.0625,-3.4375
1480685278035942,3,1,-3.125
1480685278056490,4.1875,2.1875,-3.0625
1480685278080556,4,0.5,-2.5625
1480685278103115,0.75,-0.0625,-2
1480685278133696,0.4375,0.0625,-1.125
1480685278139211,2.4375,0.5625,-0.5
1480685278156256,2,1.0625,0.3125
1480685278176309,1.1875,1.375,0.875
1480685278192853,1,0.8125,0.375
1480685278215414,0.375,-0.375,-0.0625
1480685278236472,-0.375,-1.3125,0.5625
1480685278253015,-0.25,-1.8125,0.6875
1480685278275574,-0.9375,-2.8125,0.25
1480685278296630,-1.8125,-3.5,0
1480685278313174,-2.375,-3.8125,0.125
1480685278342753,-2.3125,-4.6875,0.0625
1480685278357793,-3.125,-6.875,-0.375
1480685278373334,-5.5625,-7.625,-1.5625
1480685278404918,-5.5625,-6.625,-2
1480685278426477,-2.8125,-5.125,-2.875
1480685278432992,-1.875,-3.875,-2.75
1480685278455553,-1.9375,-3.1875,-2.625
1480685278478113,-2.0625,-2.25,-2.875
1480685278508193,-1.5,-2.0625,-2.625
1480685278521729,-1.5,-1.5,-1.9375
1480685278545291,-2.4375,-2.125,-3.5
1480685278552317,-5.4375,-2.1875,-2.75
1480685278575371,-5.1875,-1.6875,-1.5
1480685278597931,-3.4375,-0.3125,-1.3125
1480685278626506,-6.75,-2.0625,-5.125
1480685278635532,-16.875,-6.875,-13.5625
1480685278658593,-16.5625,-3.0625,-8.9375
1480685278682155,-7.875,0.0625,-2.6875
1480685278702209,-3.5,0.3125,-3.5
1480685278718251,-2.6875,1.0625,-2.1875
1480685278732289,-1.125,2.25,0.375
1480685278755350,2.125,2.625,1.9375
1480685278779916,3.8125,2.8125,2
1480685278793953,5.0625,3.3125,2.625
1480685278823030,4.75,2.5625,1.8125
1480685278838071,2.1875,1.3125,1.5
1480685278861131,0.625,0.75,1.5
1480685278876172,0.125,0.5,0.375
1480685278906753,-0.6875,0.5,-0.5
1480685278926806,-1.5625,1,-0.125
1480685278966412,-2.3125,1.3125,-0.3125
1480685278981952,-2.4375,1.875,-0.125
1480685278986464,-2.375,2.25,-0.25
1480685278995989,-1.9375,3.0625,1.3125
1480685279033590,-0.4375,3.3125,1.75
1480685279039608,-1.25,2.75,1.625
1480685279057152,-0.625,2.1875,1.3125
1480685279077707,0.1875,2.125,0.8125
1480685279106784,0.4375,1.9375,-0.25
1480685279115808,0.375,1.5625,-0.375
1480685279137867,1.125,1.75,0.375
1480685279158923,1.5625,2.125,0.5625
1480685279181485,1.8125,2.0625,0.6875
1480685279205547,2.1875,2,1.1875
1480685279244150,1.5625,1.625,0.3125
1480685279258688,1.625,1.75,0.375
1480685279261195,1.5,1.4375,0.125
1480685279279242,1.25,1.375,0.75
1480685279295285,1,1.1875,0.875
1480685279317845,0.9375,1.375,1.25
1480685279340406,1.125,0.9375,1
1480685279354945,0.4375,0.9375,1.125
1480685279378006,0.8125,1.25,1.25
1480685279401568,0.9375,1.875,1
1480685279415606,0.75,2.125,0.5
1480685279438667,0.375,1.6875,0.5625
1480685279461227,-0.375,1.1875,0.875
1480685279490304,-0.75,0.8125,0.1875
1480685279511359,-0.9375,1.0625,0.3125
1480685279521888,-0.3125,0.875,-0.1875
1480685279534926,-0.875,0.5625,-1
1480685279557984,-1.25,0.5,-0.4375
1480685279580043,-0.6875,0.3125,-0.4375
1480685279595083,-0.3125,0.5,-0.0625
1480685279620149,-0.375,0.1875,-0.625
1480685279642208,-0.6875,0.25,-0.5
1480685279654741,0.0625,0.375,0.125
1480685279678303,0.0625,0.4375,0.125
1480685279700864,0.25,0.5,0.4375
1480685279714902,0.4375,0.3125,0.3125
1480685279737962,0.5,0.125,0.6875
1480685279761026,0.6875,0.4375,0.5
1480685279790602,1.8125,2.25,0.5
1480685279798123,1.4375,1.6875,0.75
1480685279820685,1.0625,1.125,0.625
1480685279842741,0.9375,0.4375,0.75
1480685279858784,0.5,0.5,0.75
1480685279880341,0.3125,0.25,0.75
1480685279901400,0.375,0.375,0.75
1480685279917941,0.25,0.1875,0.8125
1480685279940501,0.25,0.25,0.4375
1480685279963065,0,0.1875,0.375
1480685279978602,0.1875,0,0.4375
1480685280000662,-0.375,-0.5625,-0.3125
1480685280022218,-1,-0.8125,-0.0625
1480685280038262,-0.5,-0.4375,0
1480685280066336,0.375,0.625,-0.1875
1480685280088896,1.125,0.8125,-0.375
1480685280099425,0.3125,0.375,-0.75
1480685280120479,-0.375,0.1875,-0.625
1480685280143042,-0.75,0.0625,-0.4375
1480685280158080,-0.25,0.3125,-0.125
1480685280180640,-0.6875,0.4375,0.4375
1480685280201696,-1.125,0.9375,0.1875
1480685280225259,-1.25,2.25,-0.25
1480685280240299,-0.375,3.5,-0.25
1480685280263359,0.5625,3.9375,-1.5
1480685280277898,-0.8125,3.25,-1.625
1480685280300459,-1.9375,2.25,-1.125
1480685280346581,-1.875,1.5,-1.0625
1480685280349088,-0.8125,0.625,-1.1875
1480685280377162,-1.25,-0.5625,-1.375
1480685280390198,-1.75,-1.0625,-1.4375
1480685280397717,-2.0625,-1.625,-0.8125
1480685280420277,-1.5,-1.75,0
1480685280442836,-0.75,-1.6875,0.8125
1480685280464895,-0.375,-1.6875,1.1875
1480685280480437,-0.0625,-1.3125,1.625
1480685280503501,0.3125,-0.8125,1.875
1480685280525055,0.8125,-0.375,1.6875
1480685280540598,0.5,-0.125,0.875
1480685280593738,0.1875,-0.6875,0.25
1480685280596246,-0.1875,-0.5,0.125
1480685280602763,0,-0.3125,0.0625
1480685280622815,-0.25,-0.4375,-0.5
1480685280651896,-0.6875,-0.8125,-0.875
1480685280667936,-1.75,-1.3125,-1.25
1480685280688991,-1.75,-0.9375,-0.375
1480685280697515,-0.9375,-0.5625,-0.125
1480685280720074,-1,-0.8125,-0.375
1480685280743637,-1.5625,-1.0625,-0.25
1480685280780234,-1.9375,-1.1875,0
1480685280788258,-1.4375,-0.4375,0.25
1480685280803798,-0.5,0.4375,0.5
1480685280823850,0.625,1.4375,0.5625
1480685280840395,1.5625,2.3125,0.75
1480685280863455,2.125,2.9375,0.9375
1480685280908575,1.6875,3.0625,0.0625
1480685280921111,0.8125,3,-1.1875
1480685280932138,0.8125,3.125,-2.125
1480685280951691,0.625,3.0625,-2.1875
1480685280968234,-0.3125,1.75,-2.5625
1480685280990294,-1.5625,0.8125,-2.75
1480685281005335,-1.875,0.8125,-1.75
1480685281022382,-1.375,0.375,-1.125
1480685281048949,-1.375,-0.125,-0.75
1480685281065995,-2,-0.9375,-1.1875
1480685281081034,-2.5,-1,-1.1875
1480685281103093,-1.75,-0.9375,-0.375
1480685281124651,-1.25,-0.5625,0.0625
1480685281140693,-0.9375,-0.5625,0.4375
1480685281177792,-1.375,-0.25,0.25
1480685281185311,-0.5625,0.5,0.625
1480685281206368,0.75,1,0.5
1480685281230933,0.875,1.3125,0.375
1480685281252992,0.6875,1.5,0.4375
1480685281261013,0.5625,1.75,0.4375
1480685281283071,-0.125,1.25,-0.4375
1480685281305631,-0.6875,1.25,-0.3125
1480685281319669,-0.5,0.625,-0.375
1480685281343231,-1.125,-0.0625,-0.5625
1480685281365289,-2.0625,-0.75,-0.9375
1480685281379828,-2.25,-1.25,-0.75
1480685281434475,-1.6875,-1.5,-0.5
1480685281440490,-1.5625,-1.5625,-0.4375
1480685281455531,-1.8125,-1.8125,-0.3125
1480685281463051,-1.625,-1.5625,-0.1875
1480685281485611,-0.6875,-0.9375,-0.125
1480685281500148,-0.125,-0.75,0
1480685281523210,0.125,-0.5625,-0.125
1480685281566826,0.25,-0.125,-0.125
1480685281576852,0.5625,0.375,0.0625
1480685281583872,1.0625,0.6875,0.1875
1480685281605429,1,0.75,0.25
1480685281619968,0.5625,0.6875,0.1875
1480685281643028,0.3125,0.5625,-0.4375
1480685281665589,0.0625,0.4375,-0.125
1480685281686644,0,0.125,-0.1875
1480685281709204,0.1875,0.25,-0.375
1480685281733270,0.5625,0.3125,-0.25
1480685281746805,0.0625,-0.1875,-0.25
1480685281762847,-0.625,-0.625,-0.4375
1480685281785407,-1,-0.3125,0.0625
1480685281807968,-0.5,-0.3125,0.1875
1480685281823007,-0.375,-0.5625,0.0625
1480685281845567,-0.8125,-0.4375,-0.125
1480685281874143,-0.6875,-0.0625,-0.625
1480685281883169,-0.5,-0.0625,-0.5625
1480685281905729,-0.375,0.0625,-0.6875
1480685281926783,0.0625,0.1875,-0.8125
1480685281950346,-0.375,0.125,-0.75
1480685281965386,-0.3125,0.6875,-0.5625
1480685281986442,0.3125,0.625,-0.5
1480685282026047,0.375,0.625,0.0625
1480685282028554,0.5625,0.8125,0.5
1480685282046601,0.4375,0.4375,0.5
1480685282063646,0.125,0.0625,0.125
1480685282085206,-0.75,-0.4375,-0.0625
1480685282114283,-0.75,-0.5,0.25
1480685282122804,-0.375,-0.5,0.625
1480685282152884,-0.3125,-0.5,0.125
1480685282169429,-0.9375,-0.875,-0.0625
1480685282182463,-1.125,-0.9375,-0.125
1480685282205525,-0.6875,-0.625,0.25
1480685282228084,-0.5,-0.4375,0.1875
1480685282243125,-0.5,-0.4375,0
1480685282265685,-0.6875,-0.1875,-0.5
1480685282288244,-1.25,-0.3125,-0.875
1480685282302281,-1.1875,-0.375,-0.5
1480685282326346,-0.8125,-0.4375,-0.625
1480685282347903,-1.125,-0.75,-0.4375
1480685282362442,-1.3125,-1.0625,-0.125
1480685282385503,-1.25,-1.125,-0.25
1480685282408064,-1,-1.1875,0.25
1480685282422100,-0.9375,-1.3125,0.625
1480685282445663,-1.375,-1.5625,0.5
1480685282468724,-1.625,-1.25,0.375
1480685282482260,-1.75,-1.4375,0.5
1480685282505825,-1.4375,-1.25,0.5625
1480685282527881,-1.1875,-1.1875,0
1480685282542420,-0.875,-0.9375,-0.5
1480685282574004,-1,-1.25,-0.4375
1480685282589546,-1.1875,-1.5,0
1480685282602079,-1.1875,-1.625,0.375
1480685282625641,-1.3125,-1.8125,0.0625
1480685282648234,-1.6875,-2,0.25
1480685282669286,-1.75,-2,0.1875
1480685282685830,-1.1875,-1.75,0.3125
1480685282707888,-1.3125,-1.6875,0.25
1480685282728944,-1.3125,-1.6875,0.0625
1480685282746492,-1.25,-1.6875,0.125
1480685282768048,-1.75,-1.6875,0.0625
1480685282789104,-2.9375,-2,-0.625
1480685282806150,-3.25,-2.125,-0.4375
1480685282843750,-2.4375,-2.25,-0.4375
1480685282850267,-1.875,-1.625,0.1875
1480685282873830,-1.0625,-1.3125,0.75
1480685282887867,-0.5,-1.3125,0.8125
1480685282908923,0.0625,-2.375,-0.1875
1480685282932486,-0.875,-3.75,-2.9375
1480685282948027,0.5,-3.3125,-0.375
1480685282969083,3.1875,-1.9375,1.5625
1480685282985627,1.4375,-1,1.125
1480685283008688,-1.6875,-1.5,0.75
1480685283029243,-3.125,-3.25,-0.25
1480685283045285,-1.6875,-4.6875,-0.625
1480685283067850,-1.1875,-5.125,-0.75
1480685283100432,-1.9375,-4.75,-0.3125
1480685283106951,-2.1875,-5,0.125
1480685283128507,-3.3125,-6.3125,-0.25
1480685283150566,-6.375,-8.25,-2.8125
1480685283165606,-5.3125,-8.1875,-1.0625
1480685283188166,-0.6875,-6.875,1.4375
1480685283210224,0,-7.1875,1.8125
1480685283231782,-0.3125,-7.8125,0
1480685283247824,-1.75,-9.125,-2.125
1480685283270886,0.875,-12.5625,-1.75
1480685283284926,4.375,-15.625,1.0625
1480685283316005,11.5,-17.25,7.8125
1480685283330544,14.4375,-15.9375,10.5
1480685283376667,9,-16.25,6.375
1480685283379174,1.0625,-20.3125,8.625
1480685283407750,0.125,-24.75,7.375
1480685283420283,2.5,-26.25,4.0625
1480685283427803,0.125,-28.5,2.5
1480685283450868,-1.75,-31.1875,0.0625
1480685283471419,-0.6875,-30.5,-0.1875
1480685283487963,-5.4375,-29.5,-2.5
1480685283510526,-5.6875,-29.5625,-1.1875
1480685283532080,-9.1875,-27.5,-6.125
1480685283548124,-1.6875,-24.8125,-5.75
1480685283586227,4.0625,-16.9375,-4.875
1480685283592741,-2.25,-14.125,-6.3125
1480685283608283,-6.6875,-12.625,-7
1480685283630341,-5.625,-14,-5.25
1480685283660421,5,-12.625,-3.75
1480685283676464,0.4375,-10.5625,-4.6875
1480685283690501,-10.1875,-12.0625,-5.625
1480685283711557,-13,-12.0625,-4.0625
1480685283728103,-8.625,-13.375,-4.75
1480685283751163,-13.125,-13.0625,-4.5625
1480685283774224,-22.875,-14,-4.875
1480685283787760,-19.5,-15.875,-2.9375
1480685283817841,-12.0625,-14.0625,3.1875
1480685283841904,-15.25,-12.25,6.9375
1480685283847920,-19.1875,-16.75,8
1480685283886024,-20.5,-23.1875,9.5
1480685283893039,-23.0625,-25.9375,9.1875
1480685283915600,-21.625,-25.75,7.125
1480685283938160,-19.625,-22.125,8.25
1480685283960720,-13.625,-17.875,7.3125
1480685283967240,-10.9375,-16.3125,8.6875
1480685283990299,-12.125,-15,11.25
1480685284011354,-10.875,-15.5,14.5
1480685284028901,-7.375,-14.25,18.9375
1480685284051963,-0.125,-10.9375,20.3125
1480685284081039,4.625,-8.8125,22.375
1480685284095579,1.4375,-6.6875,20.375
1480685284112623,0.125,-7.75,18.25
1480685284133178,-2.3125,-10.5,11.5625
1480685284148720,3,-11.9375,4.25
1480685284171781,10.75,-10.8125,-2.5
1480685284192837,-0.125,-13.4375,-8
1480685284215398,-10.375,-15.0625,-10.125
1480685284238461,-4.5625,-14.9375,-5.375
1480685284252998,-0.4375,-12.75,-4.6875
1480685284275557,-1.125,-10.875,-0.0625
1480685284292101,-5.3125,-9.1875,1.9375
1480685284313158,-2,-9.25,1
1480685284327195,-0.25,-7.5,-0.25
1480685284351765,-2.75,-4.6875,0.75
1480685284373317,-0.375,-2.5625,3.1875
1480685284387354,1.625,-0.6875,3.3125
1480685284410416,-1.625,1.8125,1.875
1480685284438991,-1.1875,2.25,3.4375
1480685284447514,1.75,1.5625,3.4375
1480685284472080,0.75,1.5,3.25
1480685284494138,-0.5625,3.875,3.9375
1480685284515696,1.875,4.375,4.125
1480685284530735,1.8125,5.3125,2.375
1480685284553296,1.1875,5.625,3
1480685284582373,1.375,5.4375,6.25
1480685284590395,1.6875,4.6875,8.9375
1480685284612954,0.9375,3.5,11.125
1480685284634013,0.3125,2.25,12.875
1480685284650560,0.3125,3.5625,13.3125
1480685284673114,1.5,5.625,14.0625
1480685284701690,3.4375,8.5,14.75
1480685284710714,5,10.375,14.5625
1480685284747312,6,11.25,14.375
1480685284755333,9,12.1875,13.375
1480685284770874,13.875,13.375,11.4375
1480685284793936,18.5625,14.5625,8.125
1480685284815995,20.125,14.6875,5.6875
1480685284838053,17.1875,12.875,4.8125
1480685284860612,14.3125,10.25,4.875
1480685284881668,12.6875,9.0625,4
1480685284889690,12.9375,8.3125,0.875
1480685284927290,13.8125,7.1875,-2.6875
1480685284934308,13,6,-3.9375
1480685284950854,12.1875,6,-2.9375
1480685284972911,9.8125,4.9375,-1.0625
1480685284995472,7.3125,3.625,0.875
1480685285010011,5.25,2.0625,2
1480685285033072,3.5,1.25,2.25
1480685285071173,3.125,1,1.625
1480685285073679,5.375,1.9375,-0.1875
1480685285093231,6.5625,1.75,-1.1875
1480685285115290,4.625,0.9375,-0.5625
1480685285138355,1.75,-0.25,1.375
1480685285160410,0.3125,-1.375,2.375
1480685285182970,0.9375,-1.375,2.625
1480685285206534,2.1875,-1.125,1.8125
1480685285242128,1.5,-1.375,1.0625
1480685285251653,0.1875,-1.6875,0.125
1480685285259674,0.8125,-0.375,-0.8125
1480685285273211,2.6875,1.875,-1.5
1480685285295269,3.8125,3.8125,-2.4375
1480685285310309,3.4375,5.3125,-3.25
1480685285347909,3.75,6.6875,-3.5
1480685285371973,3.8125,6.125,-2.875
1480685285394031,2.625,5.25,-2
1480685285398042,2.4375,4.5625,-1.1875
1480685285416090,3.625,4.1875,-0.3125
1480685285438149,3.9375,3.375,-0.5625
1480685285460709,2.625,2.125,-0.625
1480685285483269,1.0625,0.5,-0.3125
1480685285505327,1.3125,0.8125,-1.3125
1480685285512848,3.375,2.4375,-2.6875
1480685285535407,5.3125,4.3125,-4.25
1480685285557967,6.25,6.625,-4.5
1480685285573509,6.375,8.625,-4.125
1480685285603589,5.4375,8.0625,-3.9375
1480685285627151,3.875,5.75,-3.1875
1480685285633670,3.0625,3.375,-2
1480685285655226,2,1.9375,-1.1875
1480685285676281,0.5,1.375,-1.0625
1480685285693327,0.1875,1.3125,-0.1875
1480685285717893,-0.4375,0.6875,0.125
1480685285737946,-1.0625,0.6875,-0.8125
1480685285760506,-1.8125,0.25,-1.75
1480685285776549,-2.3125,0,-1.5
1480685285796602,-0.75,0.8125,-2.5625
1480685285813145,3.9375,2.125,-4.625
1480685285836709,4.75,2.375,-4.9375
1480685285856761,0.25,1.8125,-3.9375
1480685285880324,-3.125,1.4375,-0.5
1480685285902884,-1.625,3.5,-0.625
1480685285925446,-0.6875,5.5,-1.625
1480685285933466,-0.875,5.4375,-1.1875
1480685285955524,0.3125,6.875,-1.9375
1480685285978085,2.5625,7.5,-1.75
1480685285993630,4.3125,7.9375,-3.1875
1480685286015684,3.625,6.4375,-3.8125
1480685286068329,-1.875,3.5625,-2.5625
1480685286070836,-2.6875,1.375,0.4375
1480685286077354,3.5625,4.9375,-1
1480685286083872,6.625,5.875,-5.5
1480685286104928,8.1875,5.5625,-8.5625
1480685286127487,4.875,1.0625,-8.0625
1480685286141023,2,-3.125,-4.375
1480685286180130,-2.75,-7.4375,0.3125
1480685286182633,-4.25,-10.25,5
1480685286203690,-5.5,-10.5625,8.6875
1480685286226251,-7.8125,-9.9375,9.75
1480685286247807,-7.75,-8.6875,9.625
1480685286268362,-6.5625,-5.625,7.8125
1480685286292927,-3.4375,-0.6875,3.75
1480685286315988,1.0625,3.625,-1.125
1480685286337044,3.625,6.125,-3.8125
1480685286343562,3.4375,7.0625,-4.9375
1480685286359606,2.5625,6.8125,-6.625
1480685286382164,2.4375,5.25,-7.1875
1480685286403221,1.875,3.1875,-6.6875
1480685286436308,-0.6875,0.375,-5.25
1480685286457364,-4.125,-3.0625,-3.375
1480685286463380,-5.875,-5,-1.125
1480685286481428,-4.6875,-4.5,0.5
1480685286504991,-2.1875,-4.125,0.25
1480685286526046,-1.5,-4.6875,0.625
1480685286548607,-3.875,-6,2.4375
1480685286600745,-6.3125,-6.25,4.625
1480685286617791,-5.0625,-5.25,5.875
1480685286625312,-3.8125,-3.75,7.1875
1480685286643359,-4.125,-2.75,6.875
1480685286661406,-3,-1.625,6.3125
1480685286683973,-1.0625,-1,5.25
1480685286711039,-0.8125,-1.625,4.6875
1480685286737610,-1.0625,-1.5625,4.5
1480685286742121,0.3125,-0.625,3
1480685286763177,0.9375,-0.875,1.3125
1480685286785737,0.625,-1.3125,0.4375
1480685286800777,-0.125,-1.25,-0.125
1480685286826345,-0.125,-1.375,0.0625
1480685286848906,-0.125,-1.375,0.0625
1480685286871465,-1.625,-1.8125,-0.4375
1480685286893524,-2.625,-2.125,-0.8125
1480685286914580,-1.6875,-1.9375,-1.25
1480685286921097,-0.1875,-1.375,-1.6875
1480685286943157,0.25,-0.5625,-2
1480685286966722,0.3125,0.5,-2.5
1480685286991283,1.25,1.25,-2.0625
1480685287006323,1.875,2.125,-2.4375
1480685287028885,1.875,2.9375,-2.4375
1480685287040917,2.4375,3.1875,-1.8125
1480685287063475,2.375,3.0625,-1.4375
1480685287086036,2.5625,3.125,-1.125
1480685287104585,3.8125,3,-1.125
1480685287124639,3.3125,2.625,-1.25
1480685287150208,2.8125,2.625,-1.25
1480685287171262,3.25,2.4375,-1.3125
1480685287190816,3,2.625,-1
1480685287214879,2.875,2.375,-0.9375
1480685287220895,1.625,1.75,-0.6875
1480685287243454,0.75,0.8125,-0.0625
1480685287269524,0.5,0.3125,0.0625
1480685287305118,-0.0625,-0.1875,0
1480685287307625,-0.125,-0.625,0
1480685287328681,-0.5,-0.875,-0.25
1480685287349236,-0.875,-1,-0.3125
1480685287370834,-0.625,-0.875,-0.375
1480685287395358,-0.3125,-0.5625,-0.6875
1480685287400873,-0.1875,-0.4375,-0.625
1480685287423433,-0.125,-0.375,-0.5625
1480685287457524,-0.75,-0.5,-0.375
1480685287470059,-1.25,-0.875,-0.1875
1480685287490612,-1.1875,-1.0625,0.125
1480685287513672,-0.875,-1.125,0.3125
1480685287524705,-0.875,-1.25,0.3125
1480685287546761,-0.0625,-1.0625,-0.1875
1480685287565812,1.25,-0.1875,-1.125
1480685287583860,1.4375,0.625,-1.5625
1480685287603412,1.25,0.75,-1
1480685287625971,1.0625,0.9375,-0.75
1480685287660563,1.8125,1,-0.6875
1480685287663572,2.8125,1.625,-0.875
1480685287697285,2.625,1.75,-1.125
1480685287703803,2.375,2.1875,-1.125
1480685287726362,1.875,2.625,-1.375
1480685287749426,2,2.3125,-1.1875
1480685287769978,2.125,2.8125,-0.6875
1480685287791034,3.4375,4.5625,-1.0625
1480685287813594,3.3125,4.5625,-1.9375
1480685287823620,2.3125,4.25,-2.1875
1480685287843173,0.25,3.0625,-2.625
1480685287865733,0.4375,2.375,-1.875
1480685287889797,0.8125,2.9375,-1.0625
1480685287904838,1.125,3.375,-1.75
1480685287927397,-1.25,-0.375,-2
1480685287943940,-6.375,-4.125,-0.25
1480685287965498,-7.4375,-5.375,1.0625
1480685288002598,-3.625,-5.4375,1.6875
1480685288005107,-0.4375,-4.0625,1.4375
1480685288026661,-1.125,-2,0.625
1480685288048721,-3.0625,-1,2.25
1480685288073285,-3,-1.375,3.1875
1480685288093338,-3.625,-0.125,0.8125
1480685288113393,3.4375,1.3125,-2.125
1480685288123919,8.875,2.8125,-1.6875
1480685288143472,4.125,2.0625,-0.625
1480685288166031,-0.0625,0.9375,0.625
1480685288183602,1.125,1.375,0.875
1480685288204133,4.375,2.75,-0.625
1480685288250760,6.375,3.1875,-3
1480685288260282,6.0625,3.0625,-4.75
1480685288287860,5.75,3.875,-5.5
1480685288290366,6.6875,5.25,-6.75
1480685288308416,6.6875,6.1875,-7.0625
1480685288333983,6.75,6.9375,-7.4375
1480685288349024,7.0625,8,-9.1875
1480685288372085,6.6875,8.4375,-9.6875
1480685288390634,6.5625,8.625,-8
1480685288413194,4.5,7.3125,-4.5625
1480685288436256,0.6875,4.4375,-1
1480685288446282,-2.1875,0.9375,3.0625
1480685288465834,-5.25,-1.6875,6.0625
1480685288491401,-7.5625,-3.3125,8.375
1480685288513962,-7.6875,-4.25,10.25
1480685288529503,-10,-6.1875,11.875
1480685288550061,-11.6875,-8.25,11.75
1480685288566101,-10.4375,-8.875,8
1480685288585653,-8.375,-7.3125,3.625
1480685288608212,-2.5625,-4.4375,0.75
1480685288626261,0.8125,-2.5,-2.25
1480685288648821,0.6875,-1.25,-3.25
1480685288676394,0.6875,-0.1875,-2.4375
1480685288699455,0.25,-0.1875,-1.3125
1480685288705972,0,0.0625,-0.875
1480685288736554,1.3125,1.0625,-1.75
1480685288745078,2.1875,2.5,-2.3125
1480685288765631,3.6875,3.3125,-2.25
1480685288788191,2.9375,2.75,-1.5
1480685288810752,1.1875,1.375,-0.25
1480685288836319,-1.25,-0.375,1.3125
1480685288858879,-3,-2,2.5625
1480685288879434,-3.875,-2.875,3.3125
1480685288887455,-4.0625,-3.25,3.375
1480685288911017,-4.8125,-3.625,2.8125
1480685288933578,-4.4375,-4.0625,2.1875
1480685288949621,-4.3125,-4.25,1.625
1480685288977194,-4.1875,-3.625,1.1875
1480685288986719,-3.3125,-3.1875,1.25
1480685289005770,-2.8125,-2.875,1.0625
1480685289028329,-2.8125,-2.5,1.25
1480685289046378,-1.9375,-1.875,1.4375
1480685289067434,-1.3125,-1.375,1.375
1480685289090996,-0.4375,-1.3125,1
1480685289116065,-0.75,-1,0.8125
1480685289133111,-0.5,-0.8125,0.8125
1480685289166697,-0.625,-0.75,0.9375
1480685289179733,-1.25,-0.9375,1.25
1480685289185748,-1.875,-1.375,1.875
1480685289208309,-3,-2,2.5
1480685289232373,-4.3125,-2.4375,3.125
1480685289253428,-4.0625,-2.5,3.125
1480685289268468,-3.25,-2.0625,2.4375
1480685289301556,-2.8125,-1.8125,1.625
1480685289313588,-2.3125,-1.3125,0.875
1480685289328628,-2.625,-1,1.3125
1480685289346676,-3.25,-0.8125,1.0625
1480685289369236,-2.9375,-0.6875,1.0625
1480685289391796,-2.5625,-0.6875,0.6875
1480685289420873,-2.375,-0.3125,0.375
1480685289434911,-2.3125,-0.1875,0.6875
1480685289448948,-2.75,-0.0625,0.9375
1480685289466499,-2.875,-0.25,1.125
1480685289502090,-3.0625,-0.4375,1.0625
1480685289511115,-2.625,-0.3125,0.8125
1480685289526153,-1.6875,-0.1875,0.5
1480685289548714,-0.5625,0.0625,0
1480685289571275,1.0625,0.25,-0.75
1480685289586313,1.6875,0.3125,-1.1875
1480685289608874,1.75,0.3125,-0.875
1480685289670038,1.25,0.6875,-0.8125
1480685289690089,1.5,0.9375,-0.3125
1480685289699619,1.9375,1.1875,-0.6875
1480685289713652,1.625,1.375,-0.6875
1480685289734709,1.9375,1.3125,-0.875
1480685289766296,1.75,1,-1.0625
1480685289768297,1.1875,0.4375,-1.0625
1480685289788851,0.1875,-0.4375,-1.1875
1480685289817428,-0.4375,-1.25,-1.375
1480685289830964,-0.4375,-1.6875,-1.5625
1480685289853524,-0.5,-1.3125,-1.75
1480685289871071,0.4375,-0.6875,-1.75
1480685289922206,1.5,-0.625,-1.5
1480685289991891,0.9375,-0.875,-0.6875
1480685289997406,0.5,-0.9375,0
1480685289998912,0.5625,-0.625,0.5
1480685290013950,1.5625,0.625,0.625
1480685290033502,1.25,0.75,0.8125
1480685290056062,1.3125,0.875,0.875
1480685290087648,0.8125,0.8125,1.5625
1480685290090154,-0.125,0.8125,1.75
1480685290108201,-0.1875,0.75,2.1875
1480685290131263,-0.0625,0.5625,2.0625
1480685290156329,-0.375,0.75,1.5
1480685290168361,-0.3125,0.75,1.25
1480685290201449,-0.25,0.5625,1.1875
1480685290225011,-0.3125,0.375,0.9375
1480685290246068,-1.0625,0.4375,1.125
1480685290250581,-0.9375,0.8125,0.9375
1480685290273139,-0.75,0.8125,0.875
1480685290297204,-0.5625,1.1875,0.375
1480685290321268,0.125,2,0
1480685290342825,0.3125,2.0625,-0.125
1480685290355859,0.125,2.125,-0.25
1480685290370905,0.1875,2.25,0
1480685290388948,0.9375,2.625,0.1875
1480685290411508,1.0625,2.75,0.375
1480685290438580,0.75,2.0625,0.3125
1480685290448607,0.5625,1.0625,0.375
1480685290471167,1.25,0.875,0.4375
1480685290501246,1.5,0.875,0.4375
1480685290524308,0.4375,0.75,0.4375
1480685290529822,-0.125,0.5625,0.25
1480685290550879,0.5625,0.5625,-0.0625
1480685290568926,1.0625,0.5,0.0625
1480685290592489,0.1875,0.25,0.3125
1480685290618059,-0.8125,-0.0625,0.5625
1480685290636106,-0.4375,-0.25,0.5625
1480685290655657,-0.0625,-0.5,0.5
1480685290670697,-0.6875,-0.5,0.6875
1480685290688745,-0.9375,-0.4375,0.5
1480685290711304,-0.375,-0.125,-0.0625
1480685290730857,-0.1875,0.125,-0.25
1480685290749407,-0.625,0.0625,-0.375
1480685290778984,-0.25,0,-0.4375
1480685290795027,0.375,0.125,-0.875
1480685290809567,-0.0625,-0.125,-0.4375
1480685290831124,-0.4375,-0.375,-0.1875
1480685290850676,-0.3125,-0.5,0.25
1480685290897800,-0.625,-0.5,-0.0625
1480685290900307,-0.5,-0.375,0.125
1480685290918356,-0.5625,-0.375,0.0625
1480685290928883,-0.125,-0.1875,-0.1875
1480685290964479,-0.25,-0.0625,-0.3125
1480685290970996,-0.125,-0.4375,-0.1875
1480685290988542,0,-0.625,0
1480685291011102,-0.375,-0.5,0.125
1480685291030654,-0.4375,-0.3125,0.25
1480685291056724,-0.375,0,0
1480685291079283,-0.25,0.25,-0.1875
1480685291098334,0.4375,0.5625,-0.375
1480685291108862,0.3125,0.4375,-0.0625
1480685291131422,-0.5,0.125,0.0625
1480685291158494,-0.5625,0.0625,0.25
1480685291169523,-0.125,0.1875,-0.0625
1480685291197097,-0.125,0.0625,-0.1875
1480685291211135,-0.625,-0.25,-0.125
1480685291228681,-0.8125,-0.25,0
1480685291251241,-0.5,0.1875,-0.125
1480685291272297,-0.375,0.375,-0.375
1480685291300873,-0.5625,0.0625,-0.4375
1480685291311401,-0.8125,-0.125,-0.375
1480685291333960,-1,-0.375,-0.25
1480685291354515,-1.1875,-0.375,-0.1875
1480685291378580,-1,-0.375,-0.25
1480685291392118,-1.1875,-0.6875,-0.25
1480685291420692,-1.75,-1.125,-0.125
1480685291445257,-1.5625,-1.125,-0.125
1480685291452275,-1.25,-1.125,0.125
1480685291473332,-1.75,-1.375,0.25
1480685291495892,-1.9375,-1.4375,0.3125
1480685291512439,-1.3125,-1.4375,0.4375
1480685291533493,-1.375,-1.5,0.25
1480685291551038,-1.9375,-1.625,0.3125
1480685291572094,-1.3125,-1.1875,0.125
1480685291625737,-0.5,-0.6875,-0.25
1480685291632758,-0.125,-0.375,-0.625
1480685291637268,-1.1875,-0.4375,-0.0625
1480685291656819,-1.3125,-0.625,0.4375
1480685291675871,-1.5625,-1.1875,1.1875
1480685291693917,-2.0625,-1.4375,1
1480685291720989,-1.75,-1.5,0.8125
1480685291731016,-1.625,-1.3125,0.25
1480685291753576,-1.25,-0.75,0
1480685291773129,-1,-0.625,-0.0625
1480685291791176,-1.25,-0.3125,0.125
1480685291813736,-1.5625,-0.1875,0.1875
1480685291840809,-1.375,-0.1875,0.25
1480685291852841,-0.8125,0.125,-0.125
1480685291888435,-0.8125,0.125,-0.3125
1480685291910493,-0.8125,0.25,-0.375
1480685291913000,-0.625,0.1875,-0.3125
1480685291933555,-0.6875,0,0
1480685291956115,-1.125,0,0.25
1480685291971155,-0.875,-0.1875,0.4375
1480685291993715,-0.5625,-0.0625,0.25
1480685292020787,-0.125,0.0625,-0.0625
1480685292031316,-0.25,0.0625,-0.0625
1480685292053875,-0.4375,0,-0.125
1480685292073427,-0.1875,0.0625,-0.25
1480685292092979,0.25,0.125,-0.25
1480685292118547,0.3125,0.25,-0.4375
1480685292165171,0.0625,0.3125,-0.375
1480685292195753,-0.1875,0.1875,-0.375
1480685292198259,0.0625,0.0625,-0.25
1480685292203773,0.125,-0.1875,-0.125
1480685292213299,-0.125,-0.5,-0.0625
1480685292233853,-0.5,-0.6875,0
1480685292254910,-0.375,-0.875,0.125
1480685292277470,-0.0625,-1,0.125
1480685292301033,-0.375,-1.25,0.1875
1480685292314569,-0.6875,-1.375,0.125
1480685292331113,-0.6875,-1.375,0.3125
1480685292353671,0,-1.0625,-0.0625
1480685292374729,0.3125,-0.625,-0.3125
1480685292391272,0.1875,-0.625,-0.3125
1480685292421353,0,-0.5625,-0.1875
1480685292443912,0,-0.875,0.5625
1480685292473491,-1.1875,-1.625,1.0625
1480685292475997,-2.125,-1.6875,1.0625
1480685292494547,-1.25,-1.5,1.0625
1480685292513096,-0.75,-1.25,0.9375
1480685292533651,-0.5,-0.8125,0.875
1480685292565235,0.125,-0.3125,0.875
1480685292586291,0.5625,0.3125,0.1875
1480685292605843,0.625,0.6875,-0.3125
1480685292632415,0.875,1,-0.375
1480685292652967,0.6875,1,0
1480685292655475,0.125,0.75,0.1875
1480685292676029,0,0.8125,-0.0625
1480685292696584,0.3125,1.0625,-0.25
1480685292720648,0.3125,1.375,-0.25
1480685292744210,0.0625,1.25,0.1875
1480685292757747,-0.0625,1.125,0.4375
1480685292772787,-0.125,1.125,0.375
1480685292796349,0.25,1.1875,0.125
1480685292816402,0.1875,1.25,0.0625
1480685292840968,0.25,1.3125,0.0625
1480685292855507,0.25,1.0625,-0.0625
1480685292878066,0.3125,0.8125,0.125
1480685292906643,0.5,0.9375,-0.125
1480685292915167,0.4375,1.125,-0.25
1480685292936222,0.25,1.125,-0.3125
1480685292952766,0.3125,0.9375,-0.5
1480685292975325,0.375,0.75,-0.4375
1480685292997886,0.1875,0.375,-0.125
1480685293020946,-0.5625,-0.1875,0.1875
1480685293035485,-0.8125,-0.5625,0.3125
1480685293056541,-0.5,-0.5625,0.3125
1480685293073085,-0.75,-0.875,0.25
1480685293096147,-1.5625,-1.25,0.75
1480685293116702,-1.1875,-1.1875,0.75
1480685293140266,-0.1875,-1.125,0.5625
1480685293155304,0,-0.9375,0.5
1480685293183880,-0.75,-0.6875,0.25
1480685293192904,-0.5,-0.6875,0.625
1480685293215469,-0.25,-0.75,0.8125
1480685293244039,-0.75,-0.6875,0.6875
1480685293291667,-1.1875,-0.8125,0.75
1480685293299688,-0.625,-0.5625,0.5
1480685293302194,0.375,0.0625,-0.125
1480685293312722,0.0625,0,-0.3125
1480685293335283,-0.75,-0.25,0.3125
1480685293356339,-0.3125,-0.125,0.375
1480685293373384,0.125,0.375,0.3125
1480685293395442,0.125,0.5625,-0.0625
1480685293416499,-0.6875,0.25,0.125
1480685293433042,-0.25,0.25,0.125
1480685293456104,0.1875,0.3125,0.25
1480685293476658,-0.3125,0.3125,0.5625
1480685293492702,-0.125,0.4375,0.5625
1480685293516263,-0.125,0.75,0.1875
1480685293538824,-0.125,1.5,-0.375
1480685293552861,0.875,2.8125,-1.3125
1480685293576424,1.625,3.8125,-1.8125
1480685293598484,1.625,4.3125,-2.1875
1480685293612519,0.9375,3.8125,-1.75
1480685293635581,0.625,2.9375,-1.125
1480685293674184,-0.1875,2.0625,-0.5625
1480685293678696,-1,1.3125,-0.25
1480685293695240,-1.0625,0.6875,-0.5
1480685293717800,-1.3125,-0.1875,-0.4375
1480685293732839,-1.625,-0.8125,-0.125
1480685293755400,-2,-1.5625,0.125
1480685293777960,-2.625,-2,0.1875
1480685293791998,-3.3125,-2.5625,0.3125
1480685293816061,-2.6875,-2.5,0.125
1480685293845640,-2.3125,-2.5,0.25
1480685293853661,-2.6875,-2.4375,0.6875
1480685293875218,-3,-2.375,0.875
1480685293898280,-2.375,-2.0625,0.625
1480685293918834,-1.5,-1.5625,0.125
1480685293950920,-1.4375,-1.8125,0
1480685293974482,-2.125,-2.1875,0.125
1480685293979496,-2.5625,-2.5625,0.875
1480685293997044,-3.1875,-2.75,0.875
1480685294018098,-3.25,-2.6875,0.8125
1480685294039656,-2.625,-2.5,0.3125
1480685294055197,-2.0625,-2,-0.375
1480685294086280,-2.0625,-1.4375,-0.625
1480685294107837,-2,-1.1875,-0.5
1480685294130409,-2.3125,-1.25,-0.375
1480685294144435,-2.625,-1.3125,-0.0625
1480685294158973,-2.6875,-0.5,-0.0625
1480685294176018,-2.25,-0.25,0.125
1480685294205597,-1.6875,0.0625,-0.125
1480685294228156,-1.0625,0.5,-0.375
1480685294241694,-1.5625,0.3125,-0.1875
1480685294258237,-1.875,0,0.1875
1480685294278792,-1.5,-0.375,0.5
1480685294295335,-1.5,-0.1875,0.625
1480685294317895,-1.5,-0.125,0.6875
1480685294338951,-1,0.125,0.5625
1480685294355495,-0.75,0.1875,0.5
1480685294385576,-0.8125,0.1875,0.625
1480685294408135,-0.875,0.125,0.6875
1480685294416659,-0.8125,0.0625,0.4375
1480685294437714,-0.625,-0.0625,0.0625
1480685294458769,-0.6875,-0.1875,-0.125
1480685294482837,-0.875,-0.375,0
1480685294505394,-1.1875,-0.625,0.0625
1480685294520935,-1.1875,-0.875,0.125
1480685294535476,-1.375,-1,0.1875
1480685294558034,-1.3125,-1,0.25
1480685294586610,-1.6875,-1.375,0.5
1480685294595635,-2.8125,-0.8125,0.0625
1480685294617693,-4.75,0.125,-2
1480685294640253,-6.8125,0.0625,-3.625
1480685294655292,-7.0625,0,-5
1480685294678354,-10.125,-2.5,-7.875
1480685294700413,-17.625,-7.8125,-8.6875
1480685294746034,-25.3125,-12.25,-4.5
1480685294748544,-29.0625,-15.5625,-0.375
1480685294760573,-29.75,-15.5625,3.875
1480685294783133,-26.5625,-14.75,12.4375
1480685294798674,-24.0625,-16.4375,17.0625
1480685294820231,-24.625,-17.9375,21.5625
1480685294842290,-23.125,-20.625,21.0625
1480685294857832,-21.1875,-20.6875,18.625
1480685294887911,-19.0625,-20.875,14.5
1480685294902952,-18.0625,-17.5625,8.1875
1480685294917992,-1.6875,-11.375,4.25
1480685294940553,8.875,-7.1875,3
1480685294961607,-0.125,-10.375,-2.5
1480685294977649,-9.75,-9.8125,2.375
1480685295013746,-7.125,-13.9375,4.0625
1480685295024275,-6.875,-12.75,6.875
1480685295038311,-6.3125,-9.1875,8.9375
1480685295060370,-9.6875,-4.25,6.875
1480685295081426,-1.875,-2.5625,6.75
1480685295097970,0.4375,-0.125,3.5
1480685295120529,2.1875,-0.1875,-0.4375
1480685295141586,-0.125,-0.9375,-1.8125
1480685295158130,3,0.8125,-1.125
1480685295180190,4.8125,1.5,1.1875
1480685295201245,1.125,0,1.125
1480685295217788,-2.5,-1.5,2.125
1480685295240349,-0.0625,-2.0625,1.5
1480685295262909,2,-0.0625,0
1480685295285469,0.8125,0.6875,0.875
1480685295300510,0.1875,-1.1875,-0.0625
1480685295329586,-2.5625,-0.6875,2.25
1480685295338110,-0.6875,1.125,2.4375
1480685295360668,2.25,2.25,2.3125
1480685295381727,3.9375,2.125,1.8125
1480685295397767,2.9375,2.1875,1.0625
1480685295427847,0.5,1,0.625
1480685295444391,-1.375,0.125,1.75
1480685295457927,-0.5625,1,2.5
1480685295480489,0.1875,1.5625,2.8125
1480685295503048,0.8125,1.75,3.875
1480685295518087,2.4375,2.4375,3.875
1480685295548671,3.4375,3.375,3.375
1480685295570227,4.6875,4.25,3.125
1480685295577244,5.5,4.125,2.3125
1480685295608328,4.25,3.625,0.5
1480685295628881,3.8125,3.5625,0.875
1480685295637405,3.5625,3.125,1.625
1480685295660466,2.75,1.875,2.125
1480685295683026,2.625,1.1875,2.4375
1480685295704082,4.5,1.875,2.375
1480685295720625,7.6875,3,2.3125
1480685295742684,11,4.25,1.625
1480685295757223,13.875,5.8125,-0.125
1480685295780284,15.625,7,-2.5
1480685295802845,14.9375,6.9375,-4.875
1480685295817384,12.8125,6.1875,-6.0625
1480685295840445,11.0625,5.75,-5.375
1480685295869022,11.4375,5.9375,-5.1875
1480685295885564,11.75,6.9375,-5.5
1480685295900605,11.5,7.3125,-5.1875
1480685295922662,10.5,7.3125,-4.3125
1480685295944220,9.8125,7.3125,-3.3125
1480685295960263,8.875,7.3125,-2.3125
1480685295982822,8.0625,6.4375,-1.5625
1480685296003879,7.5,5.75,-1.5625
1480685296020422,7.0625,5.4375,-1.75
1480685296051004,7.1875,5.0625,-1.8125
1480685296064039,6.8125,4.375,-2
1480685296080583,5.6875,3.5625,-1.8125
1480685296103143,5.6875,3.125,-2.125
1480685296124700,5.5,2.5625,-2
1480685296140242,4.375,2.3125,-2.125
1480685296168818,4,1.5,-1.625
1480685296183857,2.875,1,-1.1875
1480685296200402,2.25,1,-0.625
1480685296222962,2.125,0.875,-1
1480685296244017,1.75,0.875,-1.75
1480685296260561,2.3125,1.25,-2.375
1480685296283625,2.5625,1.375,-2.9375
1480685296304179,2.5,1.1875,-3
1480685296321725,2.3125,0.9375,-3.1875
1480685296358321,2,0.875,-3.5
1480685296371356,2.0625,0.875,-3.375
1480685296381889,1.9375,0.625,-3
1480685296402942,1.75,0.5,-2.4375
1480685296425500,1.625,0.375,-2.0625
1480685296440540,1.1875,0.0625,-1.75
1480685296463099,0.5625,-0.3125,-0.875
1480685296485158,0.25,-0.1875,-0.4375
1480685296500199,0.5,0,-0.3125
1480685296522759,1.125,0.3125,-0.3125
1480685296545319,1.1875,0.3125,-0.375
1480685296566375,0.9375,0.3125,-0.6875
1480685296582919,1.125,0.1875,-0.875
1480685296605981,1.25,0,-0.875
1480685296634055,0.875,-0.125,-1.0625
1480685296650600,0.375,-0.375,-1.0625
1480685296672657,0.0625,-0.75,-1.125
1480685296679675,-0.0625,-0.9375,-1.3125
1480685296702737,-0.6875,-1.25,-1.125
1480685296726300,-1.4375,-1.4375,-0.875
1480685296739836,-1.3125,-1.75,-0.75
1480685296762897,-1.8125,-1.875,-0.8125
1480685296785457,-2.8125,-1.875,-0.6875
1480685296799995,-2.875,-2,-1.4375
1480685296823057,-3.375,-2.4375,-2.25
1480685296846119,-3.4375,-2.75,-2.625
1480685296873691,-3.875,-2.8125,-2.5625
1480685296884721,-3.625,-2.625,-2.25
1480685296906779,-3.25,-2.5,-2.25
1480685296929339,-3.5625,-2.375,-2.3125
1480685296943378,-3.0625,-2.1875,-2.125
1480685296972956,-2.6875,-1.6875,-1.875
1480685296994011,-1.9375,-0.75,-1.9375
1480685297003037,-0.9375,-0.3125,-2.1875
1480685297025596,-0.375,-0.125,-1.9375
1480685297046652,-0.625,0.375,-1.4375
1480685297062694,-0.0625,1.25,-1.375
1480685297085755,0.625,1.5625,-1.0625
1480685297107313,0.625,1.75,-0.875
1480685297122854,0.9375,2.25,-1.0625
1480685297154439,1.875,2.9375,-1.375
1480685297201062,2.5625,3.375,-1.375
1480685297206577,2.1875,3.5,-1.4375
1480685297211590,2.25,3.5625,-1.3125
1480685297226631,2.0625,3.375,-0.875
1480685297243676,2.3125,3.0625,-0.9375
1480685297272753,2.6875,3.4375,-1.4375
1480685297286289,2.75,3.875,-1.9375
1480685297302833,2.25,3.75,-2.1875
1480685297325393,1.75,3.5,-2.25
1480685297347953,1.8125,3.375,-2.125
1480685297363494,1.75,3.1875,-2.1875
1480685297385553,1.9375,3.375,-2.875
1480685297408113,2.25,3.375,-3.4375
1480685297423653,2.375,3.5,-3.25
1480685297458748,2.3125,3.4375,-3.5625
1480685297467773,2.5625,3.5,-4.0625
1480685297482312,2.875,3.5625,-4.5
1480685297505372,3.125,3.75,-4.4375
1480685297533947,3.6875,4.625,-5.4375
1480685297556507,4.25,4.9375,-5.8125
1480685297579067,5,4.6875,-4.8125
1480685297602631,4.125,5.375,-3.5625
1480685297605137,8.9375,1.9375,-3.5
1480685297625190,6.3125,-1.8125,-3.375
1480685297647750,0.6875,-2.1875,-1.4375
1480685297662790,0.1875,0.75,-0.1875
1480685297692870,4.5,3.0625,-0.125
1480685297715430,3.6875,5.75,-1.4375
1480685297760048,3.25,10.0625,-2.5625
1480685297766064,6.8125,12.3125,-3.25
1480685297777595,8.125,12.625,-3.625
1480685297783111,7.75,13.625,-3.75
1480685297805170,7.8125,13.875,-2.1875
1480685297836754,8.125,12.6875,-1.6875
1480685297857808,4.8125,11.125,-2.0625
1480685297865329,3.1875,9.1875,-2.5
1480685297895409,4.125,6.625,-2.75
1480685297916465,6.9375,5.9375,-3.5625
1480685297932006,9.4375,6.5625,-5.3125
1480685297948049,10.1875,7,-5.3125
1480685297969104,10.5,5.875,-4.75
1480685297985148,7.4375,6,-4.125
1480685298091430,6.875,6.625,-3.375
1480685298105969,7.125,7.875,-2.6875
1480685298111484,3.25,10.625,-0.5625
1480685298128026,2.9375,10.25,-0.0625
1480685298149083,2.1875,9.4375,-0.8125
1480685298165129,2.125,8.3125,-1.25
1480685298210747,2.6875,6.5,-1.5625
1480685298213254,4.625,4.625,-2.3125
1480685298225286,8.3125,2.25,-7.8125
1480685298261884,5.125,3.75,-6.9375
1480685298268902,7.25,5.0625,-5.625
1480685298285445,0.5,1.875,-3.9375
1480685298332071,5.625,-1.9375,-5.8125
1480685298352123,2.125,0.1875,-4.375
1480685298371174,0.3125,-1.5625,-2.875
1480685298383707,-1.3125,-1.875,-1.75
1480685298390224,-0.8125,-0.6875,-2.3125
1480685298412785,1.0625,0.8125,-1.8125
1480685298427825,0.875,2.5,-0.125
1480685298450385,0.1875,3.3125,0.4375
1480685298464939,2.3125,4.3125,-0.875
1480685298503025,4.9375,4.75,-1.5625
1480685298510544,5,4.375,-0.75
1480685298524581,3.625,5.125,-0.875
1480685298548147,3.8125,5.125,-0.8125
1480685298586747,5.4375,5,-0.5625
1480685298591259,3.1875,5.6875,-1.875
1480685298636391,6.125,3.0625,-3.25
1480685298691024,6.5625,3.625,-6.25
1480685298693531,4.25,0.6875,-6.5
1480685298704564,-2.25,-0.25,-6
1480685298727621,-0.75,0.875,-7
1480685298750181,-1.5,0.6875,-7.8125
1480685298778758,-0.9375,-0.6875,-8.75
1480685298789285,0.5625,-1.5,-7.5
1480685298810342,-1.625,-1.5,-5.75
1480685298831399,-6.4375,-6.75,-6.25
1480685298862982,-5.875,-8.4375,-5.75
1480685298870001,-0.8125,-7.125,-4.4375
1480685298893563,-0.6875,-8.0625,-2.1875
1480685298939185,-0.875,-6.75,-1.25
1480685298945200,-3.75,-7.5,-2.625
1480685298968262,-4.375,-3.625,-3.6875
1480685298970768,-1.6875,1.125,-3.375
1480685298990322,-0.25,6.625,-2.0625
1480685299013383,1.125,8.625,1
1480685299058501,2.5625,10.625,3.875
1480685299064520,4.4375,15.125,5.5
1480685299079057,3.1875,10.4375,6.8125
1480685299089083,-1.3125,4.875,6.25
1480685299110640,-3.25,0.6875,6.4375
1480685299147238,-6.3125,-2.1875,6.0625
1480685299162277,-6.9375,-5.6875,4.125
1480685299170801,-6.0625,-7.9375,2.75
1480685299224944,-3.375,-7.375,3.375
1480685299246001,-3,-5.8125,4.4375
1480685299249512,-3.875,-4.875,4.625
1480685299271067,-3.1875,-4.4375,4.6875
1480685299291121,-2.3125,-3.75,4.25
1480685299293125,-1.9375,-2.875,3.4375
1480685299313680,-0.9375,-2.125,2.8125
1480685299327717,0.3125,-0.75,1.1875
1480685299363813,1.125,-0.5,0.125
1480685299380358,0.1875,-0.75,0.625
1480685299396401,-0.5,-0.625,0.8125
1480685299413445,0.6875,-0.6875,0.5625
1480685299449542,1.3125,-1.1875,0.4375
1480685299462074,0.4375,-1.8125,0.625
1480685299513712,-1.125,-2.0625,0.375
1480685299525242,-0.3125,-1.8125,0
1480685299568357,0.9375,-1.5625,-0.5625
1480685299569862,0,-1,-0.25
1480685299581894,-2.3125,-0.75,-0.3125
1480685299590416,-1.375,0.1875,-1.4375
1480685299613478,-0.6875,0.1875,-1.75
1480685299641552,-1.625,0.3125,-2.4375
1480685299657093,-2.4375,-0.0625,-2.6875
1480685299673136,-2.25,-0.5,-2.25
1480685299687173,-2.3125,-1.1875,-1.75
1480685299725274,-2.4375,-1.75,-1.75
1480685299733798,-2.3125,-1.6875,-1.9375
1480685299753850,-1.25,-1.6875,-1.5625
1480685299784433,-0.9375,-1.5625,-0.9375
1480685299802480,-1.5,-1.375,-0.5625
1480685299821531,-0.375,-0.875,-0.75
1480685299838075,0.375,-0.1875,-0.5
1480685299853116,1.125,0.0625,-0.3125
1480685299873669,1.6875,0.1875,-0.1875
1480685299890212,1.4375,0,-0.25
1480685299912774,1.625,-0.125,0.375
1480685299935334,1.1875,-0.625,0.625
1480685299981958,0.3125,-1.5,1.0625
1480685299987472,0.0625,-1.875,0.875
1480685300001512,-0.25,-1.8125,0.875
1480685300016550,-0.75,-1.375,1.3125
1480685300038608,-1.0625,-0.875,1.6875
1480685300072700,-0.75,-0.125,0.75
1480685300079216,-0.3125,0.5625,-0.125
1480685300100775,0.1875,0.625,-0.1875
1480685300115312,-0.3125,-0.0625,-0.6875
1480685300130352,0.125,-0.25,-0.8125
1480685300152914,0.9375,-0.3125,-0.75
1480685300173967,0.3125,-0.25,-0.8125
1480685300190512,0.4375,0.375,-1.25
1480685300213072,1.6875,1.0625,-1.4375
1480685300241648,2,1.75,-1.75
1480685300265212,1.6875,2,-2.25
1480685300286267,2.4375,2.625,-2.1875
1480685300310832,2.875,3.25,-2.125
1480685300316849,3.9375,4.0625,-3.0625
1480685300346428,4.375,4.4375,-3.5625
1480685300355952,4.6875,4.375,-2.9375
1480685300369989,2.75,3.875,-1.875
1480685300400572,1.0625,2.8125,-1
1480685300415612,1.3125,1.75,-0.125
1480685300429648,0.8125,1.3125,0.4375
1480685300453210,-0.5625,1.4375,0.5
1480685300475269,-0.6875,2.5,0.5
1480685300489807,-1.125,3.5625,0.5625
1480685300513872,-0.9375,3.4375,-0.4375
1480685300535429,-0.8125,2.375,-1.125
1480685300557489,-0.1875,0.9375,-0.375
1480685300583058,-1.625,0.0625,0.5
1480685300603610,-2.375,-0.4375,1.1875
1480685300618153,-1.4375,-1.125,1.8125
1480685300632688,-1.875,-2.125,2.5625
1480685300655749,-2.9375,-3.3125,3.625
1480685300677307,-3.4375,-4.25,3.8125
1480685300700370,-2.1875,-4.125,3
1480685300715408,-1.1875,-2.9375,1.375
1480685300736464,-0.4375,-1.8125,0.625
1480685300753510,-0.8125,-1.625,0.5625
1480685300776571,-1,-1.625,0.75
1480685300796624,-0.8125,-1.6875,0.75
1480685300813168,-1.25,-1.3125,0.875
1480685300851769,-1.8125,-1.25,0.875
1480685300857787,-1.9375,-1.3125,1.0625
1480685300880851,-1.4375,-1.3125,1
1480685300911429,-1.8125,-1.1875,0.8125
1480685300916442,-2,-1.25,0.6875
1480685300933488,-2.4375,-1.8125,1.125
1480685300955546,-2.375,-2.375,2.625
1480685300976603,-2.625,-2.5625,2.875
1480685300995152,-2.3125,-2.4375,2.125
1480685301015204,-1.1875,-2.125,0.875
1480685301043781,-0.125,-1.875,-0.25
1480685301052804,-0.0625,-1.8125,-0.625
1480685301075364,0.0625,-1.8125,-0.5
1480685301103941,-0.25,-2.125,-0.0625
1480685301136528,-1.125,-2.25,0.625
1480685301158586,-0.875,-1.875,0.875
1480685301161093,0.0625,-1.375,0.4375
1480685301178640,0.25,-0.875,-0.3125
1480685301196186,0.5625,-0.5,-0.75
1480685301218746,0.25,-0.6875,-0.375
1480685301232784,-0.3125,-1,-0.1875
1480685301261359,-0.9375,-1.25,0.0625
1480685301277904,-1.3125,-1.5625,0.3125
1480685301300464,-1.4375,-1.75,0.75
1480685301315505,-1.4375,-1.8125,0.625
1480685301338063,-1.125,-1.3125,0.3125
1480685301352100,-1.0625,-0.8125,0
1480685301382682,-0.875,-0.5625,-0.125
1480685301405243,-0.9375,-0.5,-0.0625
1480685301443343,-0.9375,-0.25,-0.0625
1480685301448858,-0.0625,-0.125,-0.125
1480685301465402,0.25,0.125,-0.1875
1480685301480443,0.1875,0.375,-0.25
1480685301495987,0.3125,0.6875,-0.375
1480685301518042,0.5625,0.8125,-0.3125
1480685301532080,0.1875,0.625,0.1875
1480685301555642,-0.0625,0.5625,0.625
1480685301577700,0.0625,0.6875,0.5625
1480685301606276,0.0625,0.6875,0.125
1480685301622820,-0.4375,0.625,0.125
1480685301638362,-0.6875,0.25,0.5625
1480685301661924,-0.5625,0.25,0.75
1480685301682981,-0.375,0.3125,0.8125
1480685301712057,-0.5,0.1875,0.875
1480685301718574,-0.25,0.375,1.375
1480685301743141,-1.0625,0.6875,1.4375
1480685301757679,-0.9375,1,1.125
1480685301779237,0.125,1.4375,0.5625
1480685301795280,0.375,1.6875,-0.1875
1480685301817840,-0.0625,1.5,-0.125
1480685301838895,0.1875,1.5,0.0625
1480685301855439,0.75,1.6875,-0.25
1480685301884016,0.6875,1.75,-0.5
1480685301899055,0.3125,1.5,-0.125
1480685301915098,0.375,1.375,0.125
1480685301960719,-0.0625,1.3125,0.0625
1480685301963226,0.1875,1.1875,-0.375
1480685301990297,0.3125,0.9375,-0.125
1480685302005339,-0.4375,0.5,0.5
1480685302018874,-1.125,0.25,0.8125
1480685302035418,-1.25,-0.1875,1.125
1480685302059983,-0.625,0,0.875
1480685302079034,-0.1875,0.375,0.4375
1480685302096082,-0.5,0.5,0.1875
1480685302118138,-0.125,0.6875,-0.0625
1480685302140197,0.3125,0.75,-0.5
1480685302169775,0.5,0.875,-0.6875
1480685302177796,0.5,0.8125,-0.5625
1480685302200356,0.3125,0.375,-0.1875
1480685302215898,0,0.1875,-0.375
1480685302245480,0.1875,0,-0.5625
1480685302268538,-0.125,-0.125,-0.375
1480685302274555,-0.125,-0.25,-0.1875
1480685302297614,-0.25,-0.0625,-0.25
1480685302320175,0,-0.1875,-0.375
1480685302342234,-0.0625,-0.125,-0.5625
1480685302358778,-0.3125,-0.125,-0.75
1480685302380336,-0.125,-0.25,-0.5625
1480685302394873,-0.3125,-0.5,-0.25
1480685302417936,-0.5625,-0.625,0.0625
1480685302440496,-0.6875,-0.625,0.125
1480685302456537,-0.75,-0.5625,0.125
1480685302478095,-0.875,-0.75,0.0625
1480685302515696,-0.75,-0.9375,-0.125
1480685302518202,-0.3125,-0.75,-0.375
1480685302551290,-0.5,-0.6875,-0.6875
1480685302560314,-0.75,-1.0625,-0.625
1480685302574853,-1.6875,-1.6875,0.75
1480685302598416,-1.8125,-1.625,0.6875
1480685302620474,-0.75,-0.875,0.25
1480685302641531,0,-0.25,-0.625
1480685302658073,0.0625,0.25,-1.375
1480685302686649,0.125,0.5,-1.375
1480685302701691,0.5625,0.6875,-1.3125
1480685302717732,0.875,0.875,-1.625
1480685302740793,0.625,0.8125,-1.4375
1480685302768869,0.125,0.75,-1.4375
1480685302777893,0.25,0.8125,-1.5
1480685302800452,0.6875,0.9375,-1.5
1480685302823513,0.5625,0.8125,-1.4375
1480685302839556,-0.375,0.25,-0.875
1480685302860612,-1.125,-0.125,-0.4375
1480685302882169,-0.8125,-0.25,0.125
1480685302897711,-0.75,-0.3125,0.5625
1480685302920270,-1.3125,-0.625,0.5625
1480685302943834,-1.6875,-0.5,0.5625
1480685302957872,-1.375,-0.25,0.375
1480685302979929,-1.0625,-0.0625,0.3125
1480685303001488,-1.0625,-0.125,0.25
1480685303025551,-1.125,-0.0625,0.375
1480685303048612,-1.125,-0.25,0.3125
1480685303070171,-1.25,-0.1875,0.1875
1480685303077690,-0.9375,-0.125,-0.125
1480685303123311,-0.875,-0.3125,-0.125
1480685303125818,-1.25,-0.5625,0.0625
1480685303137850,-1.5,-0.625,0.1875
1480685303167428,-1.25,-0.5625,0.25
1480685303182969,-1.0625,-0.625,0.25
1480685303204026,-1.3125,-0.9375,0.375
1480685303220570,-1.4375,-1,0.5
1480685303242628,-1.375,-1.125,0.4375
1480685303257167,-1.25,-0.9375,0.375
1480685303280230,-1,-0.9375,0.5
1480685303303291,-1.0625,-0.875,0.4375
1480685303325348,-1,-0.75,0.375
1480685303355429,-0.25,-0.4375,-0.0625
1480685303392025,0,-0.25,-0.4375
1480685303403558,0.3125,-0.1875,-0.4375
1480685303408569,-0.1875,-0.5,-0.1875
1480685303422607,0,-0.375,0.3125
1480685303437145,-0.9375,-0.75,1.125
1480685303460206,-1.3125,-0.625,0.6875
1480685303482767,-0.0625,-0.3125,0.125
1480685303497306,0.25,-0.125,-0.1875
1480685303527888,-0.5,-0.1875,-0.375
1480685303542929,-0.5625,-0.125,-0.25
1480685303563984,-0.125,-0.125,-0.25
1480685303580530,0.25,0.1875,-0.3125
1480685303611108,0.0625,0.1875,-0.3125
1480685303625149,0.1875,0.3125,-0.25
1480685303655225,0,0.4375,-0.375
1480685303662746,0.5,0.75,-0.5
1480685303683801,0.625,0.8125,-0.1875
1480685303700345,0.25,0.5625,0.0625
1480685303722905,0.3125,0.625,-0.0625
1480685303743961,1.0625,0.9375,0
1480685303760505,1.375,1.25,-0.125
1480685303784067,1.5,1.6875,-0.25
1480685303804121,1.9375,1.625,-0.3125
1480685303820164,2.125,1.5625,-0.125
1480685303842724,1.3125,1.0625,0.125
1480685303863781,0.75,0.75,0.375
1480685303880825,0.6875,0.5625,0.25
1480685303933465,0.75,0.375,-0.1875
1480685303935972,0.1875,0.125,-0.25
1480685303945999,-0.3125,-0.375,-0.25
1480685303963045,-0.75,-0.75,-0.25
1480685303985604,-1,-0.9375,-0.125
1480685303999641,-1.125,-0.875,-0.1875
1480685304030227,-1.25,-1,-0.125
1480685304045262,-1.125,-1,-0.0625
1480685304060302,-0.75,-0.8125,0
1480685304082862,-0.75,-0.75,0.25
1480685304105422,-0.625,-0.625,0.1875
1480685304119459,-0.375,-0.5,0.1875
1480685304143022,-0.1875,-0.1875,0.1875
1480685304165582,0.3125,0.4375,0.0625
1480685304218222,1.125,0.8125,-0.3125
1480685304233262,1.8125,1.375,-0.6875
1480685304235770,1.875,1.1875,-0.625
1480685304249806,1.6875,0.875,-0.4375
1480685304263342,1.125,0.5625,0.625
1480685304285401,-0.375,-0.0625,1.25
1480685304307961,-0.875,0.0625,0.875
1480685304329017,0.25,0,0.4375
1480685304345561,-0.125,-0.3125,-0.125
1480685304359598,-0.9375,-0.8125,0.0625
1480685304382661,-1.3125,-0.9375,0.1875
1480685304405220,-0.8125,-0.6875,-0.1875
1480685304420259,-0.4375,-0.5625,-0.4375
1480685304465380,-0.625,-0.25,-0.1875
1480685304467887,-0.8125,-0.25,0.0625
1480685304486435,-0.6875,-0.25,0
1480685304502979,0.125,0.1875,-0.1875
1480685304525539,0.0625,0.0625,0.125
1480685304547101,-0.6875,-0.125,0.1875
1480685304569157,-0.375,0.0625,0.25
1480685304585198,0.125,0.0625,0.3125
1480685304606254,0.1875,0.0625,0.125
1480685304622799,0.0625,0.125,-0.0625
1480685304645358,0.1875,0.375,-0.0625
1480685304666414,0.0625,0.25,-0.125
1480685304682958,-0.0625,0.1875,-0.0625
1480685304706020,-0.25,0.125,0.125
1480685304727577,-0.5,0.0625,-0.125
1480685304742617,-0.375,-0.0625,-0.1875
1480685304765678,-0.4375,-0.25,-0.1875
1480685304786233,-0.75,-0.6875,-0.1875
1480685304802777,-0.9375,-0.6875,-0.0625
1480685304839375,-0.8125,-0.6875,0.125
1480685304846393,-0.8125,-0.625,0.125
1480685304864441,-0.6875,-0.5,0.125
1480685304885496,-0.5,-0.5625,0
1480685304906554,-0.375,-0.25,0.0625
1480685304922596,-0.3125,-0.3125,0.1875
1480685304945155,-0.0625,-0.125,0.1875
1480685304968718,-0.0625,-0.0625,0
1480685304990275,-0.25,-0.125,0
1480685305005817,-0.3125,-0.125,0.0625
1480685305033891,-0.1875,-0.0625,0.0625
1480685305042916,0.0625,0,0
1480685305065977,-0.0625,0,-0.25
1480685305088035,-0.0625,0.0625,-0.375
1480685305102073,0.25,0.0625,-0.5
1480685305127139,-0.25,-0.125,-0.125
1480685305147696,-0.0625,-0.1875,0.1875
1480685305162233,-1.375,-0.8125,1.0625
1480685305185294,-1.9375,-0.6875,0.625
1480685305208857,-0.25,-0.125,0.25
1480685305230415,0.125,0.1875,-0.125
1480685305260493,-0.6875,-0.0625,-0.1875
1480685305299096,-0.875,-0.0625,-0.0625
1480685305320653,-0.25,-0.125,-0.0625
1480685305323161,0.125,0.4375,-0.1875
1480685305350737,0,0.375,-0.125
1480685305353241,-0.125,0.375,0
1480685305372793,-0.25,0.4375,-0.1875
1480685305395352,0.0625,0.375,-0.375
1480685305402372,0.375,0.375,-0.25
1480685305425432,-0.5,-0.0625,0.1875
1480685305447994,-0.9375,-0.3125,0.1875
1480685305469050,-0.375,-0.125,0.1875
1480685305485091,-0.1875,-0.125,0.125
1480685305507657,-0.5625,-0.1875,-0.125
1480685305538734,-0.6875,-0.375,0
1480685305546756,-0.5,-0.5,0.0625
1480685305573827,-0.5625,-0.3125,0
1480685305597891,-0.5,-0.25,-0.0625
1480685305612931,-0.5625,-0.25,-0.0625
1480685305627971,-0.8125,-0.375,-0.0625
1480685305649030,-0.625,-0.375,0
1480685305665570,-0.8125,-0.625,0
1480685305688632,-0.875,-0.625,0
1480685305708686,-0.75,-0.4375,0
1480685305725731,-0.625,-0.375,-0.0625
1480685305747794,-0.8125,-0.5,0.0625
1480685305769348,-0.9375,-0.4375,0.125
1480685305794915,-0.75,-0.25,0.1875
1480685305813967,-0.5625,-0.1875,0
1480685305829006,-0.5,-0.1875,0
1480685305845550,-0.6875,-0.125,0.125
1480685305875630,-0.8125,0,0.125
1480685305896184,-0.6875,-0.125,0.125
1480685305905208,-0.75,0,0
1480685305927767,-1.125,-0.1875,0
1480685305950830,-0.8125,-0.0625,-0.125
1480685305965370,-0.6875,0.1875,-0.4375
1480685305987928,-0.5,0.1875,-0.375
1480685306010488,-0.6875,0.0625,-0.25
1480685306025528,-1.0625,-0.25,0.4375
1480685306070147,-2.1875,-0.5625,1.0625
1480685306100731,-2.1875,-0.25,0.75
1480685306103235,-1.1875,0,0.5
1480685306121283,-1.3125,-0.0625,-0.125
1480685306130311,-1.3125,-0.125,-0.1875
1480685306152868,-1.5,-0.25,-0.0625
1480685306167907,-1.5,-0.375,0
1480685306196482,-0.8125,-0.0625,-0.125
1480685306211523,-0.75,0,-0.0625
1480685306228068,-1,-0.0625,0.0625
1480685306256141,-1.25,-0.125,-0.0625
1480685306264664,-0.4375,0.1875,-0.3125
1480685306287725,-0.3125,-0.0625,0
1480685306310285,-1.375,-0.4375,0.25
1480685306325325,-1.3125,-0.375,0.375
1480685306347384,-0.5,-0.1875,0.375
1480685306378469,-0.625,-0.1875,0.0625
1480685306391501,-0.75,-0.3125,0
1480685306408547,-0.625,-0.125,-0.0625
1480685306431109,-0.4375,-0.0625,-0.125
1480685306451159,-0.5,-0.125,0
1480685306467704,-0.1875,-0.125,-0.0625
1480685306497786,-0.1875,-0.125,-0.3125
1480685306511324,-0.3125,-0.0625,-0.375
1480685306527865,-0.1875,-0.0625,-0.375
1480685306540899,-0.25,-0.125,-0.1875
1480685306563459,-0.5,-0.25,-0.1875
1480685306578499,-0.3125,-0.3125,-0.25
1480685306596046,-0.1875,-0.25,-0.1875
1480685306617101,-0.25,-0.25,-0.0625
1480685306638157,-0.375,-0.25,0
1480685306662222,-0.25,-0.375,0.1875
1480685306678769,-0.0625,0,0.25
1480685306709848,0,0.1875,0.25
1480685306729399,0.25,0.1875,0.3125
1480685306735919,0.1875,0.125,0.25
1480685306758478,0.25,0.25,0
1480685306773015,0.4375,0.375,-0.1875
1480685306795576,0.6875,0.5,-0.5
1480685306818136,0.5625,0.3125,-0.4375
1480685306833192,0.75,0.25,-0.0625
1480685306858744,-0.5,-0.3125,0.875
1480685306888323,-1.5,-0.375,0.875
1480685306893335,0,0.125,0.3125
1480685306915895,0.5,0.125,-0.1875
1480685306937955,-0.4375,-0.0625,-0.3125
1480685306956003,-0.5625,-0.1875,-0.25
1480685306986083,-0.25,-0.0625,-0.125
1480685307010147,0.3125,0.125,-0.25
1480685307014662,0.125,0.0625,-0.375
1480685307035715,0.0625,0.0625,-0.125
1480685307058275,-0.1875,0.1875,-0.125
1480685307073315,0.4375,0.4375,-0.3125
1480685307095874,0.5,0.4375,-0.0625
1480685307120941,-0.1875,-0.0625,0.25
1480685307132973,-0.375,-0.1875,0.1875
1480685307155533,0.0625,-0.1875,0.3125
1480685307186114,0.0625,-0.25,0.3125
1480685307196141,-0.1875,-0.375,0.25
1480685307219202,-0.375,-0.4375,0.3125
1480685307238253,-0.0625,-0.375,0.375
1480685307273346,0.1875,-0.0625,0.25
1480685307283373,0.125,0.125,0.25
1480685307306434,0.3125,0.5625,0.3125
1480685307315960,0.9375,0.9375,-0.125
1480685307339522,0.6875,0.6875,0
1480685307359575,-0.3125,0.25,0.125
1480685307374616,-0.625,0.125,0
1480685307396173,-0.0625,0.125,-0.0625
1480685307421241,0,-0.1875,-0.1875
1480685307434776,-0.375,-0.375,0.0625
1480685307457336,-0.625,-0.4375,0.0625
1480685307508473,-0.1875,-0.5625,0
1480685307542563,-0.0625,-0.375,-0.0625
1480685307571640,-0.5,-0.4375,0
1480685307584173,-0.25,-0.25,0.1875
1480685307592195,0.1875,0,0
1480685307598213,0.0625,0.125,-0.125
1480685307616259,0.25,0.25,-0.1875
1480685307636814,0.3125,0,-0.125
1480685307658369,0.0625,-0.0625,0.625
1480685307676921,-1.125,-0.5,1.1875
1480685307702989,-1.5625,-0.4375,0.8125
1480685307736579,-0.1875,-0.125,0.625
1480685307740589,-0.25,0.0625,0.1875
1480685307763149,-0.875,0,0.0625
1480685307786711,-0.625,-0.0625,-0.0625
1480685307796237,-0.125,0.1875,-0.125
1480685307819298,0.25,0.125,0.0625
1480685307845869,-0.5625,-0.1875,0.1875
1480685307855897,-0.4375,-0.125,0.125
1480685307875949,-0.3125,-0.0625,-0.3125
1480685307898011,0.3125,0.3125,-0.75
1480685307920567,0.3125,0.3125,-0.1875
1480685307935608,-0.8125,-0.3125,0.5
1480685307959677,-0.875,-0.375,0.4375
1480685307989251,-0.3125,-0.25,0.25
1480685307995767,-0.125,0,0.125
1480685308018327,-0.125,0.125,0
1480685308049410,0,0,0.0625
1480685308063448,-0.125,0.0625,0.0625
1480685308096536,0.0625,0.0625,0
1480685308123607,-0.0625,0.0625,-0.0625
1480685308142157,0.1875,0.3125,-0.125
1480685308147174,0.1875,0.1875,-0.1875
1480685308162210,-0.4375,-0.125,-0.25
1480685308175747,-0.5,-0.1875,-0.375
1480685308202317,-0.3125,-0.3125,-0.25
1480685308220866,-0.4375,-0.375,-0.0625
1480685308235906,-0.625,-0.3125,-0.125
1480685308260973,-0.5625,-0.1875,-0.125
1480685308281026,-0.5,-0.1875,-0.125
1480685308295565,-0.3125,-0.125,0.0625
1480685308375277,-0.25,-0.0625,0.125
1480685308403352,-0.4375,0,0
1480685308405858,-0.5625,-0.1875,0.0625
1480685308412376,-0.1875,-0.1875,-0.125
1480685308423405,0.0625,0.0625,-0.25
1480685308438444,-0.25,-0.125,-0.25
1480685308460503,-0.4375,-0.3125,0
1480685308477048,-0.75,-0.5,0.6875
1480685308498104,-1.6875,-0.6875,1.125
1480685308523671,-1.125,-0.3125,0.625
1480685308538711,-0.5,-0.25,0.1875
1480685308582828,-0.875,-0.1875,-0.0625
1480685308585335,-1,-0.1875,-0.3125
1480685308604888,-0.875,-0.0625,-0.25
1480685308620930,-0.5,-0.0625,-0.25
1480685308659032,-0.5625,0.0625,-0.125
1480685308671565,-0.875,0.0625,-0.125
1480685308694627,-0.6875,0.125,-0.3125
1480685308700641,-0.5625,0.125,-0.4375
1480685308724705,-0.125,0.3125,-0.4375
1480685308738242,-0.5625,0,0.1875
1480685308768325,-1.375,-0.3125,0.4375
1480685308778851,-1.0625,-0.3125,0.4375
1480685308798402,-0.5625,-0.1875,0.3125
1480685308820962,-0.8125,-0.25,0.125
1480685308840513,-0.75,-0.0625,0.1875
1480685308859565,-0.4375,-0.0625,0.0625
1480685308880621,-0.75,-0.25,0.1875
1480685308930252,-0.8125,-0.3125,0.1875
1480685308942785,-0.6875,-0.75,0.125
1480685308946295,-1,-0.625,-0.0625
1480685308958828,-1,-0.8125,-0.0625
1480685308981389,-0.9375,-0.9375,0.125
1480685309000940,-1,-0.875,0.0625
1480685309018487,-1.25,-0.8125,-0.125
1480685309045559,-1.0625,-0.5625,-0.125
1480685309060599,-0.875,-0.5,-0.125
1480685309078647,-0.625,-0.375,0
1480685309098199,-1,-0.1875,0.25
1480685309128281,-0.875,-0.125,0.25
1480685309138808,-0.6875,0,0.0625
1480685309175906,-0.625,0.25,0
1480685309180922,-0.375,0.5625,-0.25
1480685309226039,-0.4375,0.375,-0.5
1480685309237570,-0.125,0.3125,-0.4375
1480685309248100,-0.375,0,-0.125
1480685309258625,-0.3125,-0.25,0.0625
1480685309279682,-1,-0.375,0.875
1480685309308258,-1.75,-0.6875,0.9375
1480685309324802,-0.8125,-0.125,0.5
1480685309338338,0.0625,0,0.0625
1480685309360898,-0.4375,-0.0625,-0.25
1480685309379447,-0.5,0,-0.1875
1480685309401005,-0.0625,0.0625,-0.125
1480685309422061,0.25,0.25,-0.3125
1480685309446131,0.0625,0.1875,-0.25
1480685309459660,0,0.3125,-0.25
1480685309483724,-0.125,0.25,-0.125
1480685309503275,0.3125,0.4375,-0.4375
1480685309528844,0.5,0.1875,-0.3125
1480685309540876,-0.4375,-0.3125,0.125
1480685309563436,-0.4375,-0.25,0.125
1480685309580482,0.3125,-0.1875,0.1875
1480685309601537,0.1875,-0.1875,0.125
1480685309631617,-0.1875,-0.125,0.125
1480685309647162,0.125,-0.1875,0
1480685309668214,0.375,0,0
1480685309683255,0.3125,0,0
1480685309701303,0.125,0,0.0625
1480685309737900,0.125,-0.25,0
1480685309750935,0.1875,-0.1875,-0.1875
1480685309782519,0.125,-0.1875,-0.1875
1480685309785026,-0.125,-0.3125,-0.25
1480685309803073,-0.125,-0.375,-0.25
1480685309821122,-0.125,-0.375,-0.125
1480685309842177,-0.25,-0.3125,-0.1875
1480685309863238,-0.0625,-0.3125,-0.125
1480685309885797,-0.3125,-0.3125,0.0625
1480685309900833,-0.3125,-0.375,0.25
1480685309923393,-0.25,-0.25,0.125
1480685309945954,-0.25,-0.375,0.125
1480685309960492,0.125,-0.0625,0
1480685309990572,0.25,0.25,-0.25
1480685310001100,0.625,0.375,-0.25
1480685310040204,0.6875,0.3125,-0.25
1480685310044716,0.1875,-0.125,0.375
1480685310065772,-0.875,-0.3125,0.9375
1480685310088332,-0.6875,0.125,0.625
1480685310113903,0.5625,0.4375,0.25
1480685310120919,0.1875,0.375,-0.0625
1480685310140973,-0.5,0.1875,0
1480685310163033,-0.25,0.1875,-0.125
1480685310181080,0.3125,0.25,-0.1875
1480685310200630,0.1875,0.375,-0.25
1480685310230712,-0.1875,0.375,0.0625
1480685310248759,-0.0625,0.3125,0.0625
1480685310260790,0.0625,0.3125,-0.1875
1480685310299894,0.4375,0.375,-0.3125
1480685310337998,-0.25,0.0625,0.0625
1480685310340502,-0.75,-0.125,0.3125
1480685310352033,-0.4375,-0.25,0.3125
1480685310361059,-0.25,-0.3125,0.25
1480685310382113,-0.25,-0.3125,0.0625
1480685310403169,-0.25,-0.25,0
1480685310422721,-0.0625,-0.1875,-0.0625
1480685310442774,0,-0.125,0.0625
1480685310463331,-0.125,-0.1875,0.125
1480685310481378,-0.125,-0.1875,0.1875
1480685310503436,-0.125,0.0625,0.125
1480685310525996,0,0,0
1480685310549058,0,0,-0.125
1480685310562092,-0.1875,-0.0625,-0.125
1480685310623255,-0.25,-0.125,-0.125
1480685310625761,-0.1875,-0.0625,-0.125
1480685310647323,-0.4375,-0.25,0.125
1480685310661356,-0.4375,-0.1875,0.1875
1480685310696954,-0.3125,0,0.1875
1480685310702966,-0.25,0.125,0.1875
1480685310721014,-0.5,0.0625,0.25
1480685310743574,-0.375,0.0625,0.1875
1480685310763127,0,0.125,0
1480685310790699,0.25,0.4375,-0.1875
1480685310809750,0,0.375,-0.1875
1480685310823286,0,-0.0625,-0.0625
1480685310847355,-0.5,-0.3125,0.8125
1480685310878433,-1.0625,-0.4375,0.875
1480685310890966,-0.625,0.0625,0.5
1480685310900993,-0.0625,0.1875,0.25
1480685310927564,-0.375,0.0625,-0.1875
1480685310946114,-0.5625,-0.125,-0.125
1480685310969175,-0.5625,-0.1875,-0.1875
1480685310988224,-0.125,-0.125,-0.1875
1480685311003264,-0.0625,0.0625,-0.25
1480685311033346,-0.625,-0.0625,0
1480685311043872,-0.5,-0.0625,-0.125
1480685311066934,-0.25,0,-0.25
1480685311093003,0.3125,-0.0625,-0.375
1480685311116065,-0.25,-0.3125,0.0625
1480685311185750,-1.125,-0.5625,0.375
1480685311188257,-0.875,-0.6875,0.375
1480685311200790,-0.375,-0.375,0.0625
1480685311205805,-0.625,-0.25,0.0625
1480685311223350,-0.5,-0.375,0.0625
1480685311244909,-0.4375,-0.4375,0
1480685311265963,-0.4375,-0.375,0.0625
1480685311298050,-0.375,-0.3125,0.125
1480685311304567,-0.625,-0.25,0
1480685311325623,-0.75,-0.3125,-0.1875
1480685311343670,-0.75,-0.375,-0.25
1480685311364726,-0.875,-0.5,-0.125
1480685311385782,-0.8125,-0.375,-0.25
1480685311425387,-0.8125,-0.5625,-0.125
1480685311427894,-1.1875,-0.5,-0.1875
1480685311450955,-1.125,-0.5625,-0.0625
1480685311478028,-1.0625,-0.4375,-0.125
1480685311492065,-1,-0.5,0.125
1480685311513121,-1.1875,-0.5,0.1875
1480685311523648,-1.125,-0.375,0.25
1480685311544705,-0.9375,-0.3125,0.0625
1480685311574284,-0.8125,-0.125,-0.0625
1480685311583542,-0.875,-0.125,0.0625
1480685311608108,-0.625,-0.125,-0.1875
1480685311633174,-0.1875,0.125,-0.4375
1480685311643702,-0.3125,0.125,-0.3125
1480685311666263,-0.1875,-0.0625,-0.125
1480685311693334,-1.375,-0.5625,0.9375
1480685311716897,-2.3125,-0.875,1
1480685311725921,-1.25,-0.3125,0.625
1480685311754497,-0.6875,-0.125,0
1480685311764023,-1.125,-0.0625,-0.375
1480685311786081,-0.875,-0.125,-0.3125
1480685311805633,-0.6875,-0.0625,-0.4375
1480685311823680,-0.8125,-0.125,-0.375
1480685311846241,-0.9375,-0.25,-0.25
1480685311865793,-1.25,-0.375,0
1480685311883840,-1,-0.3125,0.0625
1480685311905899,-0.875,-0.25,-0.375
1480685311925953,-0.25,-0.0625,-0.4375
1480685311948012,-0.9375,-0.375,0.125
1480685311966059,-1.625,-0.75,0.4375
1480685311990124,-1.125,-0.625,0.5625
1480685312004161,-0.6875,-0.5625,0.3125
1480685312041262,-0.8125,-0.5,0.125
1480685312045771,-0.625,-0.25,0.0625
1480685312063820,-0.3125,0,0
1480685312085878,-0.5625,-0.0625,-0.0625
1480685312106432,-0.875,-0.125,0.0625
1480685312123478,-0.4375,-0.0625,0
1480685312146039,-0.25,-0.0625,0
1480685312165589,-0.5,0,-0.125
1480685312183638,-0.5625,0,-0.25
1480685312208203,-0.4375,0,-0.1875
1480685312227254,-0.25,0.1875,-0.3125
1480685312243797,-0.3125,0.1875,-0.125
1480685312266358,-0.25,0.125,-0.0625
1480685312287414,-0.3125,-0.0625,0
1480685312311979,-0.3125,-0.1875,-0.0625
1480685312326016,-0.125,0.0625,-0.0625
1480685312347076,0,0.3125,0.0625
1480685312363616,0.125,0.375,-0.0625
1480685312386176,0.375,0.5,-0.25
1480685312407233,0.75,0.375,-0.3125
1480685312423776,0.5,0.0625,-0.25
1480685312446340,0.3125,-0.0625,0.375
1480685312468395,-0.6875,-0.25,1.0625
1480685312495969,-0.625,0.1875,0.625
1480685312507499,0.5625,0.625,0.1875
1480685312542091,0.625,0.5,-0.125
1480685312548107,-0.0625,0.1875,-0.0625
1480685312566155,-0.0625,-0.125,-0.0625
1480685312589216,0.3125,-0.25,-0.1875
1480685312609771,0.375,-0.0625,-0.25
1480685312633334,0.1875,0.125,-0.1875
1480685312648375,0.125,0.375,-0.25
1480685312667926,0.0625,0.375,-0.1875
1480685312685975,0.875,0.5625,-0.5625
1480685312710539,0.5,0.25,-0.125
1480685312731594,-0.4375,-0.3125,0.1875
1480685312746638,-0.25,-0.1875,0.1875
1480685312769696,0.3125,-0.1875,0.125
1480685312788246,0.3125,0.0625,0.125
1480685312813814,0.125,0.125,0.0625
1480685312828854,0.25,0.25,0.125
1480685312847905,0.5,0.375,0.125
1480685312879489,0.4375,0.4375,0.1875
1480685312888513,0.3125,0.3125,0.1875
1480685312917089,0.3125,0.375,0.0625
1480685312926113,0.3125,0.375,-0.0625
1480685312948673,0.0625,0.0625,-0.125
1480685312969730,-0.0625,0,-0.0625
1480685312986272,0.0625,0,-0.0625
1480685313008832,0.0625,0.0625,-0.125
1480685313028385,-0.25,0,-0.125
1480685313053455,-0.5,0,-0.0625
1480685313070498,-0.1875,0,0.0625
1480685313095563,-0.1875,-0.0625,0.0625
1480685313112107,-0.375,-0.125,0.1875
1480685313128650,-0.1875,0,0.1875
1480685313150711,-0.3125,-0.125,0.1875
1480685313166255,-0.25,0,0
1480685313188814,0.1875,0.0625,-0.0625
1480685313208865,0.375,0.3125,-0.1875
1480685313225909,0.3125,0.375,-0.1875
1480685313247969,0.1875,0.125,-0.1875
1480685313269026,-0.25,-0.25,0.75
1480685313285569,-0.9375,-0.5,1
1480685313307627,-0.6875,0,0.625
1480685313336203,0.1875,0.125,0.3125
1480685313345227,-0.1875,0.0625,0
1480685313399875,-0.625,0,-0.1875
1480685313405888,-0.4375,-0.0625,-0.125
1480685313408396,0,0.125,-0.25
1480685313433963,0.125,0.1875,-0.1875
1480685313449004,-0.4375,0.125,0.0625
1480685313465547,-0.5625,-0.0625,0.125
1480685313488107,-0.125,0,-0.125
1480685313511168,0.375,0.1875,-0.4375
1480685313531221,-0.125,0,0.0625
1480685313555285,-0.75,-0.1875,0.3125
1480685313570327,-0.3125,-0.0625,0.1875
1480685313593386,0,-0.1875,0.125
1480685313615446,-0.125,-0.375,0
1480685313645024,-0.375,-0.5,-0.0625
1480685313655050,0,-0.375,-0.0625
1480685313667583,-0.125,-0.0625,-0.25
1480685313690143,-0.1875,0.3125,-0.125
1480685313705184,0,0.5,0.25
1480685313727744,0,0.625,0.375
1480685313757825,0.0625,0.5,0.3125
1480685313764341,0.3125,0.3125,0.1875
1480685313787903,0.1875,0.125,0.125
1480685313810464,0.125,0.125,0
1480685313831520,0.0625,0.25,-0.0625
1480685313847562,0,0.3125,0.0625
1480685313870123,-0.0625,0.375,0.0625
1480685313892682,-0.1875,0.4375,0
1480685313931787,-0.0625,0.5,-0.125
1480685313938806,0.0625,0.4375,-0.125
1480685313951338,-0.0625,0.5625,0
1480685313967882,0.0625,0.5625,0
1480685313990442,0,0.4375,-0.0625
1480685314011499,-0.375,0.375,0
1480685314033557,0.125,0.5,-0.25
1480685314051104,0.6875,0.6875,-0.4375
1480685314071157,0.6875,0.625,-0.375
1480685314087701,0.0625,0.375,-0.375
1480685314110261,0.0625,0.1875,0.4375
1480685314131317,-0.5,-0.125,0.75
1480685314147862,-0.625,0.125,0.5
1480685314177941,0,0.0625,0
1480685314198997,-0.125,-0.125,-0.4375
1480685314207520,-0.6875,-0.4375,-0.3125
1480685314230080,-0.8125,-0.375,-0.3125
1480685314251135,0.0625,-0.125,-0.375
1480685314267679,0,0.0625,-0.1875
1480685314290240,-0.5625,-0.1875,0.125
1480685314318816,-0.75,-0.4375,0.4375
1480685314327840,-0.375,-0.375,0.25
1480685314350900,-0.125,-0.4375,-0.125
1480685314371458,-0.25,-0.75,-0.0625
1480685314387999,-0.9375,-0.875,0.1875
1480685314410058,-1.0625,-0.875,0.0625
1480685314449162,-0.8125,-0.5625,0.0625
1480685314461195,-1.0625,-0.4375,-0.0625
1480685314476234,-1.0625,-0.125,-0.3125
1480685314498794,-0.6875,0.0625,-0.4375
1480685314509823,-0.4375,0.1875,-0.4375
1480685314530378,-0.75,0.1875,-0.5
1480685314552938,-0.9375,0.1875,-0.5625
1480685314574997,-0.8125,-0.125,-0.6875
1480685314590037,-0.9375,-0.3125,-0.75
1480685314613099,-1.0625,-0.5,-0.75
1480685314628640,-1.1875,-0.5625,-0.8125
1480685314651199,-1.3125,-0.5625,-0.9375
1480685314687798,-1.125,-0.6875,-0.875
1480685314690304,-1.25,-0.875,-0.6875
1480685314711862,-1.1875,-1.1875,-0.3125
1480685314741439,-1.4375,-1.5,0.125
1480685314756980,-0.875,-1.5,0.25
1480685314777536,-0.5,-1.3125,0.25
1480685314800096,-0.75,-1.25,0.5
1480685314814134,-1,-1.25,0.625
1480685314831178,-0.875,-0.9375,0.5
1480685314852737,-0.625,-0.75,0.375
1480685314867274,-0.625,-0.5625,0
1480685314890335,0.0625,-0.5,-0.375
1480685314920415,-0.0625,-0.625,-0.375
1480685314933951,-0.75,-0.6875,-0.3125
1480685314952501,-1.25,-0.875,0.4375
1480685314986091,-2.1875,-0.875,0.9375
1480685315012661,-1.6875,-0.4375,0
1480685315033216,-0.875,-0.375,-0.3125
1480685315038229,-1.1875,-0.1875,-0.5
1480685315053770,-0.875,0,-0.5625
1480685315070314,-0.875,-0.0625,-0.5625
1480685315101397,-0.8125,-0.125,-0.6875
1480685315122954,-0.5,-0.125,-0.5625
1480685315130474,0,-0.0625,-0.4375
1480685315152533,-0.25,0.0625,-0.5625
1480685315173588,-0.1875,0.5,-0.75
1480685315190133,0.9375,1.125,-0.75
1480685315212698,0.5,1.1875,-0.3125
1480685315233749,-0.25,0.625,-0.125
1480685315280874,0.0625,0.25,0
1480685315283380,0.5,-0.375,0.1875
1480685315310955,0.0625,-0.875,-0.0625
1480685315313461,-0.5,-1,-0.1875
1480685315333012,-0.25,-0.875,-0.1875
1480685315353566,0.0625,-0.875,-0.0625
1480685315370112,0.0625,-0.9375,0
1480685315393172,0,-0.8125,0
1480685315415231,-0.1875,-0.8125,-0.0625
1480685315430271,-0.125,-0.8125,-0.25
1480685315452830,0.0625,-0.9375,-0.3125
1480685315475391,-0.125,-1.1875,-0.5
1480685315490431,-0.3125,-1.3125,-0.375
1480685315529038,-0.375,-1.4375,-0.3125
1480685315535552,-0.4375,-1.5,-0.25
1480685315559114,-0.4375,-1.375,-0.1875
1480685315587689,-0.5,-1.375,0.0625
1480685315610250,-0.75,-1.3125,0.0625
1480685315621281,-0.4375,-1.1875,0.1875
1480685315632810,0.0625,-1,-0.125
1480685315669909,0.375,-0.5625,-0.25
1480685315672418,0.3125,-0.4375,-0.25
1480685315692970,0.4375,-0.1875,0
1480685315724052,0.1875,-0.1875,0.6875
1480685315729567,-0.5,-0.25,0.9375
1480685315752628,-0.0625,0.25,0.5
1480685315775188,1.0625,0.875,0
1480685315797749,0.5,0.8125,-0.1875
1480685315812790,-0.1875,0.5625,-0.125
1480685315835851,0.3125,0.5,-0.25
1480685315865428,0.875,0.6875,-0.4375
1480685315887988,0.5625,0.8125,-0.3125
1480685315909545,0,0.75,-0.1875
1480685315917067,0.0625,0.6875,-0.375
1480685315940127,0.5625,0.875,-0.6875
1480685315955167,0.9375,0.9375,-0.5625
1480685315976223,0.0625,0.375,-0.125
1480685315992768,-0.25,0.4375,0.0625
1480685316016334,0.125,0.5625,0.0625
1480685316036886,0.4375,0.375,0.0625
1480685316091530,0.0625,0.375,0
1480685316098050,-0.0625,0.1875,0
1480685316100553,0.1875,0.1875,0
1480685316120105,0.3125,0.0625,-0.125
1480685316143167,0.25,0.0625,-0.125
1480685316157705,0.0625,-0.0625,0
1480685316180265,-0.0625,-0.0625,-0.125
1480685316195807,0.0625,-0.0625,-0.125
1480685316217865,0.1875,-0.0625,-0.25
1480685316232905,0.0625,-0.125,-0.25
1480685316255966,-0.0625,-0.25,-0.1875
1480685316276521,-0.125,-0.375,-0.125
1480685316292564,-0.3125,-0.4375,0
1480685316315124,-0.4375,-0.375,0.1875
1480685316337786,-0.25,-0.375,0.0625
1480685316352825,-0.25,-0.1875,0.0625
1480685316388920,-0.25,-0.25,0
1480685316397946,0,-0.0625,-0.125
1480685316435545,0.1875,0.1875,-0.3125
1480685316442563,0.4375,0.5,-0.25
1480685316459107,0.1875,0.6875,0.0625
1480685316472643,-0.3125,0.5,0.6875
1480685316496206,-0.8125,0.1875,1.0625
1480685316517763,-1.1875,0.375,0.6875
1480685316532304,-0.0625,0.5625,0.4375
1480685316555363,0,0.5,0.125
1480685316577923,-0.5,0.3125,-0.1875
1480685316593966,-0.6875,0.125,-0.3125
1480685316616526,-0.125,0.0625,-0.25
1480685316646608,0.25,0.3125,-0.25
1480685316655629,0.0625,0.4375,-0.125
1480685316727821,-0.0625,0.625,-0.125
1480685316736846,0.0625,0.6875,-0.1875
1480685316749385,0.875,0.8125,-0.5
1480685316751388,0.8125,0.875,-0.25
1480685316757902,0.0625,0.625,0.0625
1480685316771938,-0.3125,0.5625,0.125
1480685316795502,-0.125,0.4375,0.125
1480685316818062,0,0.3125,0.1875
1480685316838617,0,0.1875,0.125
1480685316855160,-0.25,0.0625,0.1875
1480685316893763,-0.5,-0.25,-0.125
1480685316898777,-0.375,-0.25,-0.125
1480685316915825,-0.3125,-0.5,-0.125
1480685317014083,-0.1875,-0.5,0
1480685317021603,-0.5625,-0.6875,-0.0625
1480685317026116,-0.1875,-0.375,-0.5
1480685317041154,-0.1875,-0.8125,-0.4375
1480685317057698,-0.1875,-0.9375,-0.3125
1480685317078755,-0.3125,-0.9375,-0.1875
1480685317095298,-0.3125,-0.875,-0.1875
1480685317117859,-0.1875,-0.75,-0.0625
1480685317145933,-0.3125,-0.6875,0.0625
1480685317164985,-0.375,-0.6875,-0.125
1480685317178521,-0.1875,-0.5,-0.1875
1480685317199076,0.125,-0.375,-0.4375
1480685317221133,0,-0.375,-0.375
1480685317267256,0,-0.375,-0.25
1480685317275779,-0.375,-0.6875,0.5
1480685317278286,-1.5,-0.8125,0.75
1480685317297839,-1,-0.375,0.375
1480685317320397,0,0,0
1480685317341454,-0.625,0,-0.25
1480685317364014,-1,-0.3125,-0.375
1480685317380056,-0.75,-0.1875,-0.375
1480685317395096,0,-0.125,-0.4375
1480685317417657,-0.25,0.0625,-0.625
1480685317457261,-0.9375,-0.125,-0.4375
1480685317468791,-0.5,0.125,-0.5
1480685317485336,-0.25,0.1875,-0.6875
1480685317500378,0,0.1875,-0.75
1480685317514414,-0.375,-0.0625,-0.3125
1480685317538477,-0.9375,-0.25,0
1480685317560537,-0.4375,-0.1875,0.0625
1480685317581098,-0.125,-0.375,0
1480685317606157,-0.5625,-0.3125,0
1480685317620696,-0.5625,-0.3125,0
1480685317650274,-0.5,-0.3125,-0.0625
1480685317657795,-0.375,-0.375,-0.125
1480685317680355,-0.3125,-0.375,-0.1875
1480685317694894,-0.5,-0.375,-0.125
1480685317717955,-0.6875,-0.4375,-0.125
1480685317747033,-0.6875,-0.625,-0.4375
1480685317768591,-0.875,-0.8125,-0.5
1480685317777613,-0.8125,-1.0625,-0.5
1480685317807693,-0.875,-1.25,-0.6875
1480685317821228,-0.9375,-1.25,-0.6875
1480685317838275,-0.9375,-1.1875,-0.4375
1480685317860333,-1,-1.25,-0.1875
1480685317881390,-1.0625,-1.3125,0.0625
1480685317897935,-1.125,-1.1875,0.125
1480685317934530,-0.5625,-0.875,-0.0625
1480685317941549,-0.4375,-0.625,-0.375
1480685317957593,0.125,-0.375,-0.4375
1480685317980152,0.125,-0.375,-0.3125
1480685318001208,0.1875,-0.5,-0.25
1480685318017752,-0.375,-0.9375,0.5
1480685318047832,-1.3125,-0.9375,0.625
1480685318062873,-0.25,-0.4375,0.125
1480685318108994,0.625,-0.125,-0.1875
1480685318115013,0.25,0,-0.5625
1480685318122530,0,-0.25,-0.4375
1480685318138573,0.0625,-0.25,-0.375
1480685318160131,0.625,0.0625,-0.25
1480685318182692,0.4375,-0.0625,-0.25
1480685318197731,0.1875,0.0625,-0.4375
1480685318220291,0.125,0,-0.5625
1480685318242852,0.6875,0.0625,-0.8125
1480685318257891,0.75,-0.125,-0.6875
1480685318280457,-0.1875,-0.5,-0.1875
1480685318302509,0,-0.375,-0.0625
1480685318317550,0.3125,-0.375,-0.125
1480685318340611,0.25,-0.4375,-0.0625
1480685318370190,0.125,-0.375,-0.25
1480685318394253,0.1875,-0.3125,-0.125
1480685318400271,0.3125,-0.25,-0.1875
1480685318423330,0.4375,-0.375,-0.3125
1480685318436866,0.3125,-0.375,-0.1875
1480685318460429,0.125,-0.375,-0.1875
1480685318482990,0.3125,-0.3125,-0.3125
1480685318512568,0.125,-0.5,-0.4375
1480685318559192,0,-0.6875,-0.375
1480685318565710,0.125,-0.5625,-0.375
1480685318588269,-0.125,-0.8125,-0.125
1480685318602808,-0.1875,-0.9375,-0.0625
1480685318623879,-0.1875,-0.875,0
1480685318640908,0,-0.6875,0.0625
1480685318677507,0,-0.5,-0.1875
1480685318680012,-0.0625,-0.375,-0.25
1480685318700568,0.5,-0.1875,-0.375
1480685318722626,0.8125,-0.1875,-0.5
1480685318743681,0.9375,-0.1875,-0.3125
1480685318767746,0.125,-0.5,0.625
1480685318782787,-0.75,-0.5,0.6875
1480685318803844,0,-0.125,0.375
1480685318828909,0.6875,0,-0.0625
1480685318842946,0.0625,0,-0.3125
1480685318864004,-0.25,-0.0625,-0.375
1480685318880046,0.1875,0,-0.3125
1480685318902606,0.6875,0.0625,-0.5
1480685318924663,0.125,0,-0.3125
1480685318940706,-0.0625,-0.0625,-0.1875
1480685318962765,0.125,0.25,-0.3125
1480685318983821,0.5625,0.125,-0.625
1480685319000872,0.6875,0.1875,-0.5
1480685319028941,-0.1875,-0.1875,-0.125
1480685319043981,-0.125,-0.1875,0.0625
1480685319066541,0.125,-0.3125,0
1480685319082584,0.1875,-0.3125,0.0625
1480685319103639,0.0625,-0.375,0
1480685319120183,-0.0625,-0.5,0
1480685319142743,0.125,-0.5,-0.1875
1480685319165804,0.0625,-0.375,-0.125
1480685319180845,-0.0625,-0.375,-0.0625
1480685319216439,0,-0.4375,-0.0625
1480685319225463,0.125,-0.375,-0.125
1480685319240002,-0.125,-0.625,-0.25
1480685319268578,-0.5625,-0.6875,-0.1875
1480685319285623,-0.375,-0.625,-0.3125
1480685319300162,-0.1875,-0.6875,-0.25
1480685319330244,-0.375,-0.875,-0.375
1480685319350797,-0.5,-0.75,-0.125
1480685319360824,-0.125,-0.625,-0.125
1480685319382883,-0.125,-0.5,-0.0625
1480685319404941,-0.1875,-0.375,-0.125
1480685319419479,-0.1875,-0.375,-0.125
1480685319448559,0.125,-0.375,-0.0625
1480685319474124,-0.0625,-0.375,-0.125
1480685319481144,0.375,-0.125,-0.25
1480685319502701,0.3125,0.0625,-0.4375
1480685319526263,0.5625,0.125,-0.375
1480685319539799,0.3125,-0.125,-0.25
1480685319562861,0.125,-0.375,0.5
1480685319591436,-0.875,-0.5625,1
1480685319599461,-0.375,-0.125,0.4375
1480685319623523,0.5,0.0625,0.0625
1480685319645079,0.25,-0.125,-0.25
1480685319659618,-0.6875,-0.3125,-0.3125
1480685319683686,-0.5,-0.25,-0.375
1480685319705239,0.375,-0.125,-0.4375
1480685319727297,0.25,0,-0.3125
1480685319750359,-0.25,0,-0.1875
1480685319771415,-0.4375,0.0625,-0.1875
1480685319786456,0.125,0.0625,-0.4375
1480685319802999,0.4375,0.0625,-0.625
1480685319825057,0.3125,-0.25,-0.0625
1480685319846617,-0.75,-0.625,0.3125
1480685319862657,-0.6875,-0.625,0.1875
1480685319891233,0.0625,-0.5625,0.0625
1480685319906775,0.0625,-0.375,0
1480685319922817,-0.5,-0.625,0
1480685319945378,-0.375,-0.6875,-0.0625
1480685319966434,-0.125,-0.625,-0.1875
1480685319984983,-0.25,-0.5,-0.1875
1480685320005037,-0.25,-0.5625,-0.0625
1480685320050657,-0.4375,-0.8125,-0.0625
1480685320053164,-0.5625,-0.875,-0.125
1480685320065196,-0.75,-0.9375,-0.3125
1480685320095277,-0.5625,-0.8125,-0.25
1480685320102796,-0.6875,-0.8125,-0.3125
1480685320131373,-0.75,-0.8125,-0.1875
1480685320147917,-0.6875,-0.75,-0.25
1480685320162956,-0.75,-0.8125,-0.125
1480685320187027,-0.75,-0.8125,0
1480685320207575,-0.625,-0.625,-0.0625
1480685320222615,-0.625,-0.375,0.0625
1480685320245179,-0.5625,-0.375,-0.0625
1480685320267734,-0.75,-0.375,-0.0625
1480685320282273,-0.75,-0.5,-0.0625
1480685320312854,-0.75,-0.4375,-0.25
1480685320335917,-0.4375,-0.3125,-0.3125
1480685320341932,0.125,-0.125,-0.5
1480685320372514,-0.125,-0.3125,-0.375
1480685320387553,-0.4375,-0.4375,0.1875
1480685320402092,-1.625,-0.875,1.0625
1480685320425153,-1.6875,-0.4375,0.75
1480685320448716,-0.375,-0.125,0.3125
1480685320477794,-0.6875,-0.25,0
1480685320486316,-1.375,-0.4375,-0.3125
1480685320507875,-0.75,-0.375,-0.375
1480685320521911,0.0625,-0.1875,-0.4375
1480685320545974,-0.1875,-0.25,-0.25
1480685320567532,-1,-0.375,-0.0625
1480685320582070,-0.6875,-0.25,-0.125
1480685320612653,-0.125,-0.0625,-0.3125
1480685320636216,0.25,0,-0.4375
1480685320648748,-0.0625,-0.3125,-0.125
1480685320664790,-1.25,-0.625,0.25
1480685320688353,-0.75,-0.5625,0.25
1480685320708909,0.0625,-0.3125,0
1480685320724950,-0.0625,-0.5,0
1480685320747510,-0.3125,-0.375,-0.0625
1480685320768567,-0.25,-0.4375,-0.1875
1480685320785111,0.1875,-0.3125,-0.3125
1480685320815191,0.1875,-0.125,-0.375
1480685320836247,0.1875,-0.25,-0.3125
1480685320845273,0,-0.4375,-0.3125
1480685320868331,0.125,-0.375,-0.3125
1480685320888886,0.125,-0.5625,-0.375
1480685320905430,0.125,-0.5625,-0.375
1480685320927997,0.0625,-0.5625,-0.375
1480685320948545,-0.0625,-0.625,-0.3125
1480685320965088,0,-0.625,-0.1875
1480685320987649,-0.0625,-0.8125,-0.125
1480685321008705,-0.125,-1,0.125
1480685321033772,0.125,-0.6875,0.0625
1480685321047809,0.1875,-0.4375,0
1480685321068866,0.25,-0.375,-0.0625
1480685321085409,0.375,-0.4375,-0.25
1480685321107971,0.75,-0.3125,-0.5
1480685321137548,0.9375,-0.0625,-0.625
1480685321145067,1.1875,-0.125,-0.5625
1480685321169131,0.75,0,0.125
1480685321190689,-0.1875,-0.25,0.625
1480685321204727,0.3125,0.25,0.125
1480685321227788,1.25,0.4375,-0.25
1480685321250347,0.8125,0.5625,-0.4375
1480685321264384,0.375,0.3125,-0.375
1480685321288953,0.5,0.3125,-0.375
1480685321310511,1.0625,0.5625,-0.4375
1480685321325046,0.6875,0.4375,-0.375
1480685321347606,0.3125,0.4375,-0.375
1480685321370167,0.3125,0.25,-0.375
1480685321384704,0.5625,0.5,-0.5625
1480685321407766,0.6875,0.3125,-0.5625
1480685321430326,-0.0625,-0.0625,-0.125
1480685321444869,-0.3125,-0.1875,0.125
1480685321467928,0.1875,-0.25,0.25
1480685321491489,0.3125,-0.3125,0.0625
1480685321511547,0.125,-0.25,-0.0625
1480685321533601,0.1875,-0.3125,-0.0625
1480685321550145,0.375,-0.375,0
1480685321564683,0.375,-0.25,0
1480685321587744,0.375,-0.3125,0.0625
1480685321610305,0.375,-0.25,-0.125
1480685321631862,0.3125,-0.4375,-0.3125
1480685321648406,0.125,-0.5,-0.3125
1480685321670966,0,-0.6875,-0.3125
1480685321708065,0,-0.625,-0.125
1480685321710571,0,-0.5,-0.3125
1480685321730123,-0.0625,-0.375,-0.25
1480685321751180,-0.3125,-0.375,-0.0625
1480685321767724,-0.125,-0.1875,-0.125
1480685321790283,-0.0625,0.0625,-0.125
1480685321818859,0.125,-0.0625,-0.125
1480685321842422,0.0625,-0.125,-0.0625
1480685321858966,0.0625,-0.125,-0.0625
1480685321871499,0.125,-0.125,-0.0625
1480685321887542,0.25,0,-0.3125
1480685321910102,0.125,0,-0.25
1480685321931157,0.375,0.125,-0.1875
1480685321947703,0.4375,0.1875,-0.25
1480685321970764,0.8125,0.25,-0.375
1480685321991318,0.75,0.3125,-0.375
1480685322007862,0.5,0,0.375
1480685322045462,-0.5625,-0.375,0.875
1480685322052480,-0.5,-0.3125,0.4375
1480685322068023,0.375,0,0.0625
1480685322090081,0.125,0,-0.3125
1480685322112640,-0.4375,-0.375,-0.3125
1480685322129186,-0.4375,-0.375,-0.25
1480685322150240,0.1875,-0.25,-0.3125
1480685322180320,0.25,-0.25,-0.375
1480685322186839,-0.4375,-0.375,-0.25
1480685322210406,-0.1875,-0.3125,-0.1875
1480685322232961,0.0625,-0.1875,-0.3125
1480685322255019,0.4375,-0.25,-0.5
1480685322270059,0.125,-0.375,-0.125
1480685322292619,-0.625,-0.625,0.3125
1480685322307159,-0.25,-0.375,0.1875
1480685322330720,0.1875,-0.4375,0.0625
1480685322352779,-0.0625,-0.4375,0.0625
1480685322373835,-0.125,-0.4375,-0.125
1480685322390379,-0.125,-0.5,-0.125
1480685322412940,0.0625,-0.375,-0.125
1480685322433493,-0.25,-0.375,-0.0625
1480685322450042,-0.1875,-0.4375,-0.0625
1480685322472598,-0.1875,-0.5625,-0.125
1480685322493656,-0.6875,-0.75,-0.1875
1480685322510200,-0.5,-0.6875,-0.25
1480685322532758,-0.5,-0.6875,-0.25
1480685322553814,-0.5625,-0.625,-0.3125
1480685322577878,-0.625,-0.75,-0.375
1480685322598933,-0.8125,-0.6875,-0.125
1480685322621494,-0.875,-0.75,0
1480685322631019,-0.75,-0.625,0
1480685322652576,-0.4375,-0.5,0.125
1480685322673632,-0.5625,-0.4375,0.0625
1480685322690178,-0.75,-0.5,0.125
1480685322712737,-0.75,-0.375,0.0625
1480685322733792,-0.375,-0.375,-0.125
1480685322750337,-0.1875,-0.125,-0.4375
1480685322772896,0,-0.125,-0.375
1480685322793456,-0.125,-0.25,-0.3125
1480685322810497,-0.4375,-0.4375,0.375
1480685322840076,-1.8125,-0.8125,1
1480685322853610,-1.5625,-0.5,0.4375
1480685322871159,-0.4375,-0.1875,0.0625
1480685322893218,-0.625,-0.25,-0.25
1480685322913772,-1,-0.375,-0.3125
1480685322930316,-1,-0.4375,-0.3125
1480685322952875,-0.4375,-0.25,-0.3125
1480685322973430,-0.3125,-0.125,-0.3125
1480685322989472,-1,-0.375,-0.1875
1480685323012534,-1.1875,-0.4375,-0.1875
1480685323035094,-0.6875,-0.4375,-0.3125
1480685323050134,-0.125,-0.3125,-0.5
1480685323080214,-0.6875,-0.5,-0.1875
1480685323095255,-1.3125,-0.75,0
1480685323109794,-0.8125,-0.625,0.1875
1480685323132853,-0.5625,-0.625,0.125
1480685323155413,-0.625,-0.5,0.1875
1480685323177973,-0.4375,-0.5,0.0625
1480685323193518,-0.3125,-0.4375,-0.1875
1480685323215573,-0.125,-0.375,-0.3125
1480685323229611,-0.25,-0.375,-0.125
1480685323253674,-0.5625,-0.5625,-0.125
1480685323275232,-0.5625,-0.625,-0.0625
1480685323289771,-0.5,-0.625,-0.25
1480685323312832,-0.5,-0.6875,-0.375
1480685323335392,-0.5625,-0.6875,-0.5
1480685323357952,-0.4375,-0.75,-0.375
1480685323380011,-0.375,-0.8125,-0.3125
1480685323401067,-0.5,-0.75,-0.1875
1480685323409590,-0.375,-0.8125,0
1480685323432651,-0.25,-0.5,-0.0625
1480685323455211,0.0625,-0.5625,-0.125
1480685323476267,0.125,-0.5,-0.0625
1480685323492813,0.1875,-0.3125,-0.1875
1480685323515371,0.4375,-0.3125,-0.4375
1480685323536426,0.6875,-0.125,-0.5625
1480685323552469,1,-0.0625,-0.4375
1480685323576032,0.8125,-0.3125,-0.3125
1480685323596086,0.125,-0.6875,0.4375
1480685323612629,-0.6875,-0.8125,0.875
1480685323635190,0.0625,-0.3125,0.25
1480685323656245,0.875,-0.1875,-0.1875
1480685323673290,0.4375,-0.3125,-0.3125
1480685323695349,-0.0625,-0.4375,-0.25
1480685323716405,0.125,-0.5,-0.25
1480685323732949,0.8125,-0.125,-0.5
1480685323756010,0.75,-0.0625,-0.375
1480685323776568,0.3125,-0.25,-0.375
1480685323792609,0.1875,-0.0625,-0.375
1480685323815168,0.875,0.125,-0.5625
1480685323836225,1.125,0.125,-0.5
1480685323852768,0.125,-0.3125,-0.1875
1480685323890869,-0.125,-0.375,0.0625
1480685323950027,0.25,-0.4375,0
1480685323966570,0.4375,-0.375,0.0625
1480685323980608,0.125,-0.375,-0.0625
1480685323981612,0.125,-0.375,0
1480685323986123,0.375,-0.3125,-0.125
1480685323995146,0.5625,-0.1875,-0.125
1480685324017706,0.25,-0.25,-0.0625
1480685324032747,0.25,-0.3125,0.0625
1480685324055306,0.125,-0.375,-0.1875
1480685324085386,0.0625,-0.375,-0.25
1480685324107946,0.25,-0.375,-0.375
1480685324123488,0.125,-0.375,-0.25
1480685324145045,0.125,-0.375,-0.25
1480685324167604,0.0625,-0.4375,-0.1875
1480685324229270,-0.125,-0.5625,-0.0625
1480685324234283,-0.125,-0.625,0.0625
1480685324244309,0,-0.3125,0.0625
1480685324257845,0.125,-0.3125,-0.0625
1480685324278901,0.0625,-0.3125,-0.25
1480685324295445,0.375,-0.125,-0.3125
1480685324318005,0.5625,-0.125,-0.5
1480685324332042,0.5,-0.25,0
1480685324355104,-0.3125,-0.5625,0.8125
1480685324377664,-0.9375,-0.375,0.4375
1480685324392203,0.1875,-0.125,0.1875
1480685324421280,0.375,0.0625,-0.1875
1480685324445845,-0.0625,0,-0.25
1480685324513102,-0.25,-0.125,-0.1875
1480685324515608,0.375,-0.0625,-0.375
1480685324523128,-0.125,0.0625,-0.1875
1480685324535161,-0.125,-0.1875,-0.1875
1480685324557720,0.125,0,-0.4375
1480685324578776,0.6875,0.0625,-0.6875
1480685324595321,0.25,-0.1875,-0.3125
1480685324617885,-0.625,-0.4375,0.125
1480685324639438,-0.25,-0.375,0.0625
1480685324655982,0.1875,-0.375,0.1875
1480685324685561,0,-0.4375,0
1480685324700099,-0.1875,-0.4375,-0.0625
1480685324723161,0.125,-0.4375,-0.1875
1480685324782318,0.1875,-0.25,-0.125
1480685324805879,0.0625,-0.4375,-0.0625
1480685324808387,-0.0625,-0.5,-0.125
1480685324813401,0,-0.5,-0.0625
1480685324818915,-0.0625,-0.4375,-0.3125
1480685324836461,-0.0625,-0.375,-0.3125
1480685324857517,-0.0625,-0.5,-0.3125
1480685324879575,-0.1875,-0.6875,-0.3125
1480685324909659,-0.1875,-0.625,-0.25
1480685324919182,-0.4375,-0.6875,-0.0625
1480685324940238,-0.4375,-0.625,0
1480685324955278,-0.1875,-0.625,-0.0625
1480685325076602,-0.125,-0.625,-0.0625
1480685325083117,-0.4375,-0.6875,-0.0625
1480685325097656,0.125,-0.3125,-0.0625
1480685325120216,-0.8125,-0.6875,0.6875
1480685325134758,-1.625,-0.625,0.8125
1480685325157944,-0.6875,-0.375,0.4375
1480685325181005,0,-0.125,-0.0625
1480685325194541,-0.625,-0.1875,-0.3125
1480685325217602,-0.9375,-0.375,-0.3125
1480685325240163,-0.5625,-0.375,-0.4375
1480685325254701,0,-0.1875,-0.4375
1480685325299822,-0.75,-0.125,-0.1875
1480685325339928,-0.875,-0.125,-0.1875
1480685325345442,-0.625,-0.0625,-0.375
1480685325360984,-0.3125,-0.1875,-0.6875
1480685325381037,-1.125,-0.375,-0.1875
1480685325397581,-1.5625,-0.5625,-0.0625
1480685325420141,-0.75,-0.5,-0.0625
1480685325441198,-0.4375,-0.4375,-0.0625
1480685325457741,-0.9375,-0.4375,0
1480685325486319,-0.75,-0.5,0.0625
1480685325501357,-0.4375,-0.5,0.0625
1480685325518403,-0.375,-0.375,-0.0625
1480685325579064,-0.5,-0.1875,-0.0625
1480685325582573,-0.5,-0.375,-0.125
1480685325625187,-0.5625,-0.4375,-0.3125
1480685325627693,-0.625,-0.625,-0.375
1480685325647245,-0.625,-0.875,-0.25
1480685325651255,-0.625,-0.875,-0.25
1480685325660280,-0.8125,-1,-0.1875
1480685325682339,-0.875,-1,-0.1875
1480685325697880,-1.125,-1.125,0.0625
1480685325726455,-1.0625,-1.125,0.125
1480685325743501,-0.75,-0.9375,0.1875
1480685325763554,-0.6875,-0.9375,0.1875
1480685325781104,-0.6875,-0.8125,0.0625
1480685325826221,-0.375,-0.6875,-0.1875
1480685325857304,-0.125,-0.5,-0.4375
1480685325870845,0.3125,-0.375,-0.4375
1480685325873346,0.25,-0.4375,-0.3125
1480685325883373,0.125,-0.375,0.125
1480685325900418,-0.8125,-0.375,0.8125
1480685325922476,-0.5,-0.125,0.3125
1480685325937517,0.625,0.25,-0.0625
1480685325960079,0.5625,0,-0.375
1480685325982637,-0.0625,-0.25,-0.4375
1480685325997677,0.125,-0.375,-0.375
1480685326020740,0.625,-0.0625,-0.4375
1480685326042799,0.5625,0,-0.375
1480685326064354,0.0625,-0.1875,-0.125
1480685326080898,0.125,0,-0.3125
1480685326104462,0.5,0.125,-0.5
1480685326170638,1.1875,0.3125,-0.625
1480685326173144,0.6875,0,-0.1875
1480685326179661,-0.1875,-0.3125,0.25
1480685326184174,0.3125,0.125,0.3125
1480685326200216,0.875,0.25,0.25
1480685326222776,0.625,0.1875,0.1875
1480685326237816,0.375,0.0625,0
1480685326260376,0.6875,0.125,-0.125
1480685326283939,0.8125,0.1875,-0.125
1480685326296973,0.5625,0,-0.0625
1480685326320535,0.5625,0.125,0.125
1480685326389218,0.5625,0.125,-0.125
1480685326409275,0.5625,0.125,-0.3125
1480685326448877,0.5,-0.0625,-0.25
1480685326486477,0.25,-0.3125,-0.1875
1480685326492994,0.1875,-0.375,-0.1875
1480685326494498,0.0625,-0.5,-0.125
1480685326509041,0,-0.375,0.0625
1480685326531096,0.125,-0.3125,0.0625
1480685326551149,0.25,-0.125,0
1480685326560173,0.25,0,-0.0625
1480685326582733,0.8125,0.3125,-0.1875
1480685326628354,0.875,0.375,-0.3125
1480685326630861,1.0625,0.3125,0.25
1480685326673475,0,-0.0625,1.0625
1480685326675983,-0.6875,0.0625,0.8125
1480685326696536,0.5,0.5625,0.5
1480685326704557,0.875,0.625,0.0625
1480685326724108,0.0625,0.4375,-0.125
1480685326740151,-0.0625,0.375,-0.1875
1480685326762712,0.5625,0.375,-0.25
1480685326785772,0.5625,0.625,-0.125
1480685326807831,0.1875,0.6875,-0.0625
1480685326828887,0.3125,0.6875,-0.125
1480685326844930,0.375,0.6875,-0.3125
1480685326888547,0.875,0.75,-0.625
1480685326900077,0.5625,0.6875,-0.125
1480685326912610,-0.3125,0.25,0.1875
1480685326919629,0,0.125,0.25
1480685326942692,0.5,0.1875,0.25
1480685326976785,0.25,0.0625,0.125
1480685326980791,-0.125,0,0
1480685327002851,0.1875,0,0.0625
1480685327025411,0.4375,0.25,0.0625
1480685327038946,0.25,0.0625,0.125
1480685327046968,0.1875,-0.0625,0.1875
1480685327068023,0,-0.125,0
1480685327091086,0.25,-0.0625,-0.125
1480685327107128,0.125,-0.125,-0.1875
1480685327128183,0,-0.1875,-0.25
1480685327150743,-0.0625,-0.3125,-0.125
1480685327166786,-0.25,-0.4375,-0.0625
1480685327187844,-0.125,-0.375,-0.0625
1480685327226946,-0.125,-0.25,0
1480685327253015,-0.0625,-0.0625,0
1480685327316687,-0.0625,-0.0625,0.0625
1480685327333730,-0.0625,-0.0625,0.125
1480685327349773,0,0.125,0.0625
1480685327364813,0.3125,0.375,-0.25
1480685327369325,0.75,0.5625,-0.3125
1480685327390380,0.75,0.5,-0.1875
1480685327409434,0.5625,0.4375,0
1480685327451543,-0.3125,-0.0625,0.9375
1480685327459566,-1,0.125,0.6875
1480685327481623,0.5,0.625,0.25
1480685327497165,0.5625,0.6875,-0.1875
1480685327529751,-0.25,0.3125,-0.25
1480685327551308,-0.375,0.3125,-0.25
1480685327559333,0.375,0.375,-0.25
1480685327573868,0.5,0.4375,-0.375
1480685327594423,-0.25,0.375,-0.1875
1480685327616482,-0.5625,0.1875,-0.0625
1480685327630519,0,0.1875,-0.125
1480685327661601,0,0,-0.375
1480685327671127,0.125,-0.0625,-0.1875
1480685327690680,-0.4375,-0.25,0.3125
1480685327715244,-1.0625,-0.375,0.4375
1480685327728280,-0.5,-0.4375,0.4375
1480685327750839,-0.5,-0.625,0.25
1480685327822529,-1,-0.6875,0.25
1480685327836567,-0.6875,-0.625,0.125
1480685327843585,-0.625,-0.1875,0
1480685327855619,-0.5625,-0.25,0.125
1480685327872162,-0.875,-0.4375,0.1875
1480685327901740,-1.1875,-0.5,0.0625
1480685327915777,-0.9375,-0.625,0
1480685327937836,-0.625,-0.5625,0.125
1480685327952877,-0.75,-0.5,-0.0625
1480685327969420,-1.0625,-0.5625,0
1480685327990503,-0.9375,-0.625,0.125
1480685328013036,-0.6875,-0.5,0.0625
1480685328028076,-0.375,-0.3125,0.125
1480685328058157,-0.375,-0.1875,0.125
1480685328084727,-1,-0.1875,0.375
1480685328113804,-0.9375,-0.125,0.375
1480685328135361,-0.75,0,0.4375
1480685328141880,-0.6875,0.0625,0.25
1480685328147895,-0.8125,0.1875,-0.0625
1480685328180983,-0.5625,0.375,-0.25
1480685328196023,-0.125,0.625,-0.375
1480685328224600,0.125,0.75,-0.375
1480685328230615,-0.0625,0.5625,-0.0625
1480685328253175,-0.9375,0.4375,0.6875
1480685328268214,-1.9375,0.0625,0.8125
1480685328290775,-0.8125,0.5625,0.3125
1480685328316844,0.25,0.9375,-0.1875
1480685328329378,-0.375,0.8125,-0.375
1480685328360961,-0.9375,0.4375,-0.25
1480685328376003,-0.5,0.5,-0.125
1480685328391042,0.375,0.625,-0.1875
1480685328410593,-0.1875,0.5,-0.125
1480685328433153,-0.625,0.25,0.1875
1480685328449697,-0.25,0.4375,0.125
1480685328471787,0.1875,0.5,-0.0625
1480685328496823,0.5,0.5,-0.1875
1480685328516876,-0.375,0.0625,0.375
1480685328530412,-0.9375,-0.25,0.5
1480685328552972,0,-0.25,0.375
1480685328569517,0.375,-0.125,0.0625
1480685328590572,0,-0.0625,-0.125
1480685328613132,0,-0.0625,-0.125
1480685328629676,0.25,0,-0.25
1480685328673292,0.4375,0,-0.3125
1480685328683318,0.5625,0.125,-0.25
1480685328696854,0.4375,0.125,-0.3125
1480685328718413,0.4375,0.0625,-0.375
1480685328732951,0.375,0,-0.4375
1480685328753004,0.3125,-0.3125,-0.375
1480685328770550,0.1875,-0.3125,-0.3125
1480685328793111,0.3125,-0.375,-0.375
1480685328824695,0.5,-0.3125,-0.1875
1480685328846753,0.4375,-0.4375,-0.0625
1480685328853271,0.25,-0.4375,0.125
1480685328870817,0.4375,-0.3125,0.25
1480685328892389,0.5,-0.125,0.25
1480685328947521,0.75,-0.125,0.25
1480685328953537,0.625,0.0625,0.25
1480685328955041,0.5625,0,0
1480685328980609,0.6875,0.125,-0.125
1480685329004172,1.3125,0.4375,-0.375
1480685329010689,1.375,0.4375,-0.4375
1480685329034753,1.125,0.375,0.125
1480685329055307,-0.1875,-0.1875,0.9375
1480685329070348,-0.375,0,0.625
1480685329092910,0.9375,0.5625,-0.0625
1480685329123489,0.9375,0.5625,-0.4375
1480685329133515,0,0.375,-0.4375
1480685329160589,-0.0625,0.1875,-0.1875
1480685329175630,0.875,0.4375,-0.1875
1480685329231777,0.6875,0.625,-0.375
1480685329237794,0.25,0.5625,-0.25
1480685329240301,0.5,0.75,-0.125
1480685329250328,0.75,0.9375,-0.1875
1480685329274392,1.375,1.125,-0.375
1480685329295446,0.875,0.8125,0.125
1480685329311990,0.1875,0.3125,0.375
1480685329333046,0.25,0.25,0.3125
1480685329355606,0.5625,0.0625,0.25
1480685329373153,0.5625,0.0625,0.1875
1480685329400726,0.1875,0.125,0.25
1480685329426795,0.375,0.125,0.3125
1480685329431808,0.3125,0,0.1875
1480685329501494,0.5,-0.0625,0.25
1480685329509016,0.3125,-0.0625,0.1875
1480685329522049,0.3125,0,-0.1875
1480685329537089,0.25,0,-0.125
1480685329559649,0.1875,0,-0.125
1480685329573185,0.0625,-0.125,-0.125
1480685329595745,0.0625,-0.0625,-0.1875
1480685329614295,0.0625,0,-0.125
1480685329640364,0.0625,-0.0625,-0.0625
1480685329655404,0.0625,0.0625,0
1480685329688492,-0.0625,0.0625,0.0625
1480685329700523,0.1875,0.125,0.25
1480685329715564,0.1875,0.1875,0.125
1480685329755670,0,0.25,0.1875
1480685329776227,0.3125,0.375,-0.0625
1480685329785750,0.375,0.5,-0.0625
1480685329793270,0.875,0.6875,-0.25
1480685329820342,0.6875,0.625,-0.125
1480685329839393,0.625,0.375,0.1875
1480685329860950,0,0,0.9375
1480685329872983,-0.625,0.1875,0.75
1480685329895542,0.375,0.5,0.4375
1480685329913591,0.625,0.75,0.125
1480685329933142,-0.0625,0.4375,0
1480685329955702,-0.3125,0.375,-0.125
1480685329973249,0.375,0.375,-0.125
1480685329993302,0.625,0.5625,-0.3125
1480685330042433,0.1875,0.625,-0.3125
1480685330070507,-0.1875,0.3125,-0.0625
1480685330077526,0.125,0.4375,-0.1875
1480685330084545,0.4375,0.4375,-0.4375
1480685330093569,0.5625,0.3125,-0.3125
1480685330129665,-0.125,0,0.1875
1480685330135681,-0.6875,-0.1875,0.1875
1480685330158241,-0.0625,-0.125,0.0625
1480685330173280,0.0625,-0.3125,0.1875
1480685330195339,-0.3125,-0.375,0.25
1480685330215393,-0.3125,-0.375,0.1875
1480685330235948,0,-0.1875,0.0625
1480685330255499,0.125,-0.0625,0
1480685330293600,-0.375,-0.1875,0.1875
1480685330303627,-0.25,-0.25,0.1875
1480685330348246,-0.25,-0.0625,0
1480685330350754,-0.375,-0.125,-0.0625
1480685330355766,-0.25,-0.25,-0.125
1480685330375321,-0.5,-0.125,-0.125
1480685330393366,-0.6875,-0.25,-0.0625
1480685330415927,-0.75,-0.3125,0
1480685330435478,-0.5625,-0.1875,0
1480685330466561,-0.6875,-0.125,0
1480685330476087,-0.75,0,0.0625
1480685330495638,-0.875,0,0.0625
1480685330513185,-0.6875,0,0.125
1480685330534742,-0.5,0.125,0.0625
1480685330555798,-0.625,0.1875,0
1480685330581868,-0.75,0.25,0
1480685330613451,-0.5625,0.3125,0
1480685330633505,-0.0625,0.5,-0.1875
1480685330678124,0.1875,0.6875,-0.25
1480685330680630,0.1875,0.5625,-0.125
1480685330700182,-0.875,0.1875,0.6875
1480685330702689,-2,-0.125,1
1480685330715723,-0.9375,0.3125,0.375
1480685330744299,0.125,0.5625,-0.0625
1480685330757838,-0.4375,0.625,-0.25
1480685330775883,-1,0.3125,-0.375
1480685330811979,-0.5625,0.25,-0.3125
1480685330825516,0.1875,0.625,-0.4375
1480685330836043,-0.25,0.4375,-0.125
1480685330874647,-0.9375,0.1875,0.125
1480685330879660,-0.5625,0.3125,-0.125
1480685330909241,-0.0625,0.375,-0.3125
1480685330915755,0.375,0.4375,-0.375
1480685330940822,-0.5625,0,0.25
1480685330969399,-1.1875,-0.3125,0.5625
1480685330975415,-0.3125,-0.1875,0.5
1480685331005494,0.0625,-0.0625,0.3125
1480685331016021,-0.25,-0.0625,0.0625
1480685331038586,-0.25,0.0625,0
1480685331061141,0.125,0.0625,0
1480685331092226,0.3125,0.25,-0.0625
1480685331113782,0.125,0.1875,-0.125
1480685331157398,0.1875,0.0625,-0.1875
1480685331166422,0.375,0.125,-0.375
1480685331181462,0.3125,0.125,-0.4375
1480685331185472,0.25,0.0625,-0.375
1480685331196000,0.3125,0,-0.4375
1480685331223073,0.25,-0.0625,-0.4375
1480685331239617,0.25,-0.125,-0.3125
1480685331256160,-0.0625,-0.25,-0.0625
1480685331277216,0.0625,-0.1875,0.0625
1480685331300780,0.25,-0.1875,0.125
1480685331317826,0.5,-0.0625,0.125
1480685331336877,0.5,-0.0625,0
1480685331358439,0.4375,0.0625,0.125
1480685331376982,0.6875,0.1875,-0.125
1480685331443157,1.125,0.3125,-0.3125
1480685331445664,1.1875,0.3125,-0.25
1480685331451680,1.3125,0.25,-0.0625
1480685331464714,0.1875,-0.125,0.875
1480685331481259,-0.9375,-0.1875,0.9375
1480685331495798,0.25,0.3125,0.3125
1480685331518357,1.1875,0.5625,-0.1875
1480685331537912,0.375,0.375,-0.3125
1480685331555958,0,-0.0625,-0.25
1480685331579019,0.5,0.125,-0.375
1480685331598069,0.875,0.3125,-0.375
1480685331616118,0.5,0.3125,-0.3125
1480685331643189,0.5,0.4375,-0.25
1480685331658233,0.3125,0.4375,-0.125
1480685331681291,0.75,0.5625,-0.375
1480685331705856,0.9375,0.5,-0.0625
1480685331720896,0,0.1875,0.0625
1480685331741952,-0.0625,0.0625,0.25
1480685331758501,0.5,0,0.25
1480685331787072,0.4375,-0.0625,0.1875
1480685331796097,0.375,0,0.1875
1480685331820160,0.375,0.0625,0.25
1480685331838209,0.5625,0.1875,0.125
1480685331855754,0.4375,0.375,0.0625
1480685331878314,0.4375,0.25,0.0625
1480685331897866,0.3125,0.1875,0.0625
1480685331920427,0.375,0.125,-0.0625
1480685331938475,0.1875,0,-0.1875
1480685331961034,0.0625,-0.1875,-0.3125
1480685331976076,0.0625,-0.0625,-0.25
1480685331999136,0.1875,-0.0625,-0.25
1480685332019691,-0.375,-0.3125,0
1480685332037739,-0.5625,-0.375,0
1480685332058296,-0.625,-0.4375,0.0625
1480685332077845,-0.3125,-0.3125,0.25
1480685332101909,-0.25,-0.25,0.125
1480685332118453,-0.5,-0.25,0.125
1480685332139509,-0.6875,-0.375,0.0625
1480685332160565,-0.125,-0.125,0.125
1480685332178613,0,0.0625,-0.125
1480685332199669,0.1875,0.0625,-0.3125
1480685332237770,0.125,-0.0625,-0.125
1480685332239777,-0.3125,-0.3125,0.625
1480685332262335,-1.1875,-0.4375,0.9375
1480685332280384,-0.5,0.125,0.25
1480685332312970,0.4375,0.375,0.0625
1480685332319488,-0.1875,0.3125,-0.0625
1480685332340544,-0.9375,0,-0.125
1480685332358592,-0.5,0,-0.1875
1480685332379650,0.375,0.3125,-0.25
1480685332400704,0,0.5,-0.25
1480685332418251,-0.625,0.1875,-0.0625
1480685332439307,-0.3125,0.375,-0.125
1480685332467883,0,0.375,-0.3125
1480685332485931,0.25,0.5,-0.5
1480685332516011,-0.125,0.0625,0
1480685332528043,-0.75,-0.125,0.1875
1480685332569654,-0.5,-0.1875,0.25
1480685332598228,0,-0.125,0.25
1480685332600735,-0.25,-0.1875,0.25
1480685332605749,-0.4375,-0.375,0.125
1480685332620789,-0.375,-0.25,-0.0625
1480685332640844,-0.1875,-0.1875,-0.125
1480685332658391,-0.375,-0.25,-0.0625
1480685332681451,-0.625,-0.5,0.125
1480685332700502,-0.75,-0.6875,0
1480685332724567,-0.625,-0.6875,-0.1875
1480685332742614,-0.75,-0.5625,-0.1875
1480685332763668,-0.875,-0.75,0
1480685332786229,-0.9375,-0.625,-0.125
1480685332815808,-1.1875,-0.6875,-0.125
1480685332820320,-1,-0.625,0.0625
1480685332838367,-1.125,-0.625,0.125
1480685332868449,-1.0625,-0.5,0.1875
1480685332880981,-1,-0.5,0.125
1480685332898527,-0.9375,-0.3125,0.125
1480685332921088,-0.875,-0.25,0.0625
1480685332940641,-0.8125,-0.25,0
1480685332958190,-0.9375,-0.3125,0
1480685332980747,-0.4375,0,-0.1875
1480685333000299,-0.3125,-0.0625,-0.25
1480685333018346,-0.3125,0,0
1480685333040907,-1.4375,-0.4375,0.8125
1480685333067978,-2.1875,-0.5625,0.75
1480685333084524,-0.875,-0.0625,0.3125
1480685333107584,-0.3125,0.25,-0.125
1480685333123626,-1.375,0.0625,-0.3125
1480685333138164,-1.625,-0.1875,-0.3125
1480685333166741,-1,-0.1875,-0.1875
1480685333181781,-0.375,-0.0625,-0.0625
1480685333199328,-1.125,-0.25,0
1480685333220885,-1.5,-0.25,0.0625
1480685333241941,-1.0625,-0.0625,-0.125
1480685333272021,-0.4375,0,-0.5
1480685333281045,-0.4375,-0.1875,-0.125
1480685333303605,-1.625,-0.625,0.375
1480685333326165,-1.5,-0.5,0.375
1480685333348725,-0.5,-0.3125,0.25
1480685333378804,-0.75,-0.3125,0.1875
1480685333382815,-1,-0.375,0.1875
1480685333400864,-1,-0.375,0.125
1480685333423425,-0.75,-0.375,0
1480685333438463,-0.8125,-0.375,-0.125
1480685333461024,-0.625,-0.25,-0.125
1480685333484086,-0.8125,-0.25,-0.125
1480685333498623,-1,-0.4375,-0.25
1480685333521184,-0.9375,-0.5,-0.125
1480685333543242,-0.9375,-0.5625,-0.1875
1480685333562793,-0.75,-0.4375,-0.25
1480685333582347,-0.6875,-0.375,-0.25
1480685333603903,-0.6875,-0.4375,-0.1875
1480685333627466,-0.75,-0.5,0
1480685333678100,-0.5,-0.5,0.125
1480685333680607,-0.3125,-0.25,0
1480685333686623,-0.125,-0.125,0
1480685333702164,0.125,0,-0.1875
1480685333724227,0.5,0.1875,-0.25
1480685333743775,0.875,0.125,-0.25
1480685333760319,1.125,0.3125,-0.3125
1480685333788895,0.375,0.125,0.375
1480685333803935,0,0.125,0.5
1480685333819978,0.5625,0.3125,-0.1875
1480685333842540,0.9375,0.1875,-0.4375
1480685333863594,0.375,0.3125,-0.5
1480685333880138,-0.1875,0,-0.125
1480685333902698,0.0625,0.1875,-0.0625
1480685333932779,0.4375,0.25,0
1480685333940298,0.1875,0.3125,-0.0625
1480685333962357,0.0625,0.375,-0.3125
1480685333983413,0.375,0.5625,-0.3125
1480685334000962,1,0.625,-0.5625
1480685334022516,0.5625,0.375,-0.25
1480685334043572,-0.1875,0.0625,0.0625
1480685334060117,-0.125,-0.0625,0.25
1480685334083177,0.25,0,0.125
1480685334103732,0.1875,0.0625,0
1480685334120276,-0.125,-0.0625,-0.0625
1480685334150357,0,-0.0625,0.125
1480685334200992,0.3125,0,0.1875
1480685334212525,0.25,0.125,0.0625
1480685334218539,0.125,0.0625,0.0625
1480685334224556,0.1875,0,0
1480685334247615,0.375,0.1875,-0.125
1480685334262655,0.25,0.125,-0.25
1480685334283711,0.125,0,-0.25
1480685334300255,0.25,-0.0625,-0.125
1480685334330335,0.0625,-0.125,0
1480685334343871,-0.0625,-0.3125,0.25
1480685334359914,-0.1875,-0.3125,0.25
1480685334389995,0,-0.0625,0.25
1480685334411049,0.1875,0.125,0.0625
1480685334420575,0.0625,0.1875,0.0625
1480685334457673,0.3125,0.3125,-0.125
1480685334465194,0.625,0.5,-0.1875
1480685334480735,0.5,0.25,-0.125
1480685334502794,0.25,0,0.625
1480685334525353,-0.5625,-0.125,0.8125
1480685334539391,-0.5,0.375,0.5625
1480685334563455,0.375,0.4375,0.25
1480685334585012,0.0625,0.3125,0.125
1480685334599552,-0.5,0.1875,0.0625
1480685334622613,-0.3125,0.25,0.125
1480685334645172,0.375,0.5,0.0625
1480685334659711,0.125,0.5625,0
1480685334690794,-0.375,0.375,0.1875
1480685334733909,0.125,0.625,-0.0625
1480685334744937,0.1875,0.625,-0.4375
1480685334767999,0.3125,0.5625,-0.375
1480685334779028,-0.1875,0.1875,0.125
1480685334789055,-0.5625,-0.0625,0.375
1480685334802592,-0.1875,-0.125,0.375
1480685334825151,0.1875,-0.0625,0.3125
1480685334839690,-0.0625,0.0625,0.125
1480685334870271,-0.125,0,0
1480685334885311,-0.125,-0.125,0.125
1480685334906868,-0.1875,-0.1875,0.125
1480685334922410,-0.25,-0.25,0.125
1480685334944969,-0.125,-0.25,0.0625
1480685334966025,-0.0625,-0.3125,-0.125
1480685334982569,-0.3125,-0.375,-0.1875
1480685335012654,-0.4375,-0.5625,-0.125
1480685335036714,-0.3125,-0.5,-0.1875
1480685335050750,-0.375,-0.5,0
1480685335079328,-0.4375,-0.4375,0
1480685335093865,-0.5,-0.625,0.125
1480685335102890,-0.5,-0.625,0.25
1480685335124952,-0.4375,-0.625,0.1875
1480685335146004,-0.375,-0.4375,0.125
1480685335163551,-0.25,-0.375,0.0625
1480685335185108,0,-0.0625,-0.125
1480685335206164,0.3125,0,-0.1875
1480685335228724,0,-0.125,-0.0625
1480685335245269,-0.5625,-0.5625,0.6875
1480685335327493,-1.1875,-0.6875,0.875
1480685335351552,-0.6875,-0.25,0.5625
1480685335365588,0.125,0,0.0625
1480685335367092,-1.1875,-0.25,-0.125
1480685335371103,-0.6875,-0.0625,0
1480685335393669,0.0625,0.125,-0.0625
1480685335410209,-0.6875,0,-0.125
1480685335425247,-0.875,-0.125,0.0625
1480685335448308,-0.75,-0.0625,-0.0625
1480685335462846,-0.625,-0.125,-0.25
1480685335484905,-0.25,-0.0625,-0.25
1480685335507465,-1.0625,-0.5,0.1875
1480685335545072,-1.4375,-0.6875,0.375
1480685335569636,-1.0625,-0.5625,0.3125
1480685335583173,-0.8125,-0.625,0.1875
1480685335591697,-1.125,-0.5625,0.1875
1480685335611253,-1.0625,-0.5625,0.1875
1480685335627791,-0.6875,-0.4375,0.0625
1480685335641828,-0.75,-0.4375,0.125
1480685335665892,-0.875,-0.4375,0.125
1480685335687449,-0.875,-0.4375,0.0625
1480685335701989,-0.8125,-0.4375,-0.0625
1480685335725049,-0.875,-0.5,0
1480685335747609,-1,-0.4375,-0.0625
1480685335764153,-1,-0.5,-0.0625
1480685335785210,-0.875,-0.375,-0.125
1480685335808274,-1.0625,-0.375,0
1480685335846371,-0.875,-0.1875,-0.0625
1480685335882970,-1.125,-0.25,0.0625
1480685335885476,-0.9375,-0.1875,0.1875
1480685335892996,-0.8125,-0.0625,0.1875
1480685335906031,-0.5625,0,0.0625
1480685335927588,-0.5625,0.125,-0.25
1480685335951151,-0.25,0.1875,-0.1875
1480685335965188,-0.25,0.0625,0
1480685335988249,-0.5625,-0.125,0.5
1480685336008804,-1.875,-0.5,1.25
1480685336025348,-1.6875,-0.1875,0.75
1480685336054926,-0.4375,0.0625,0.3125
1480685336084506,-0.5625,0.125,-0.0625
1480685336100050,-1.0625,0.1875,-0.25
1480685336107573,-0.5625,0,-0.0625
1480685336158702,-0.125,0.125,-0.125
1480685336177252,-0.25,0.1875,0
1480685336183769,-0.6875,0.1875,0
1480685336197807,-0.4375,0.25,-0.1875
1480685336205327,0.125,0.4375,-0.5625
1480685336227385,0.4375,0.4375,-0.5
1480685336248943,-0.375,-0.0625,0
1480685336264985,-0.625,-0.125,0.25
1480685336287545,-0.125,-0.0625,0.1875
1480685336310105,0.3125,-0.0625,0.125
1480685336326148,-0.0625,-0.0625,0.0625
1480685336362745,-0.125,-0.125,-0.0625
1480685336370767,0.375,-0.0625,0.0625
1480685336386310,0.25,-0.125,0
1480685336407364,0.375,-0.125,0.0625
1480685336437945,0.3125,-0.3125,0.125
1480685336444463,0.1875,-0.25,-0.0625
1480685336468024,0.125,-0.3125,-0.1875
1480685336490084,0.1875,-0.4375,-0.125
1480685336504624,0.1875,-0.375,-0.125
1480685336527683,0.0625,-0.5,-0.0625
1480685336550745,0,-0.6875,0.125
1480685336564281,0,-0.625,0.0625
1480685336588848,0.1875,-0.4375,0
1480685336611907,0.0625,-0.5,-0.0625
1480685336632463,0.125,-0.4375,-0.0625
1480685336648505,0.75,0,-0.1875
1480685336677583,0.9375,0,-0.5
1480685336684605,0.9375,-0.125,-0.25
1480685336716686,0.0625,-0.375,0.625
1480685336737742,-0.8125,-0.375,0.6875
1480685336760302,0.375,0.1875,0.375
1480685336767822,1.0625,0.4375,-0.0625
1480685336797401,0.4375,0.3125,-0.3125
1480685336810937,0.1875,0.25,-0.1875
1480685336827481,0.625,0.3125,-0.0625
1480685336850041,0.9375,0.5,-0.1875
1480685336889145,0.4375,0.5,-0.0625
1480685336893657,0.5625,0.5,-0.125
1480685336910201,0.5625,0.625,-0.25
1480685336932761,1,0.6875,-0.5625
1480685336955321,0.5,0.5,-0.1875
1480685336978883,-0.1875,0.125,0.1875
1480685336993924,0.125,0.125,0.1875
1480685337014979,0.625,0.0625,0.0625
1480685337031523,0.3125,0.125,0
1480685337051075,0.1875,-0.0625,0
1480685337067620,0.25,0.0625,0
1480685337090180,0.375,0,0.0625
1480685337111235,0.25,0,0.0625
1480685337127780,0.125,-0.1875,0
1480685337149838,0.1875,-0.125,0
1480685337173403,0.1875,0,-0.125
1480685337188441,0.0625,-0.1875,-0.1875
1480685337210500,0,-0.3125,-0.1875
1480685337270660,0.0625,-0.3125,-0.125
1480685337273166,0,-0.375,-0.0625
1480685337309763,0.0625,-0.1875,0
1480685337313273,-0.0625,-0.375,0.1875
1480685337332323,-0.125,-0.125,0.125
1480685337352878,0.125,-0.0625,0
1480685337366915,0.0625,0.125,-0.125
1480685337389977,0.6875,0.3125,-0.1875
1480685337420056,0.375,0.125,-0.25
1480685337427075,0.3125,-0.0625,0.3125
1480685337452142,-0.5,-0.25,0.875
1480685337473198,-0.5625,0.0625,0.5
1480685337496761,0.375,0.5,0.125
1480685337524338,0.3125,0.5,-0.0625
1480685337534366,-0.375,0.1875,-0.0625
1480685337548398,0,0.375,-0.125
1480685337583992,0.625,0.5,-0.25
1480685337594019,0.375,0.4375,-0.25
1480685337607059,-0.125,0.375,-0.0625
1480685337630115,0.125,0.5,-0.0625
1480685337652675,0.375,0.5625,-0.3125
1480685337674232,0.625,0.5,-0.4375
1480685337697795,0.3125,0.25,-0.125
1480685337733893,-0.4375,0,0.25
1480685337750936,-0.25,-0.125,0.375
1480685337763470,0.3125,0.0625,0.25
1480685337773499,-0.0625,-0.0625,0.1875
1480685337803076,-0.0625,-0.125,0.125
1480685337813604,0.125,-0.0625,0.0625
1480685337856719,0.3125,0.0625,-0.125
1480685337861230,-0.125,-0.0625,0.0625
1480685337871258,-0.25,-0.25,0.0625
1480685337892814,0.0625,-0.25,-0.0625
1480685337913871,-0.1875,-0.25,-0.1875
1480685337938436,-0.3125,-0.4375,-0.3125
1480685337952974,-0.375,-0.5,-0.1875
1480685337981049,-0.4375,-0.5625,-0.125
1480685338004110,-0.375,-0.5625,-0.1875
1480685338043215,-0.375,-0.6875,-0.125
1480685338045721,-0.5,-0.625,0.0625
1480685338103373,-0.5,-0.5625,0.0625
1480685338105379,-0.375,-0.625,0.0625
1480685338111395,-0.3125,-0.5625,-0.0625
1480685338116409,-0.5625,-0.5625,-0.0625
1480685338132451,-0.375,-0.5,-0.125
1480685338153508,-0.3125,-0.5625,-0.125
1480685338170051,0,-0.25,-0.25
1480685338192611,0,-0.125,-0.25
1480685338215171,-0.0625,-0.3125,0.0625
1480685338230211,-1.0625,-0.625,1
1480685338253272,-1.8125,-0.6875,0.875
1480685338275331,-0.625,-0.25,0.5
1480685338297891,-0.1875,-0.25,-0.0625
1480685338320953,-0.875,-0.25,-0.1875
1480685338359054,-1.375,-0.5,-0.25
1480685338363566,-0.75,-0.25,-0.25
1480685338380109,-0.25,0.0625,-0.375
1480685338402670,-0.8125,0.0625,-0.25
1480685338418211,-1.1875,-0.125,-0.0625
1480685338432749,-0.625,-0.0625,-0.1875
1480685338462830,-0.25,0.125,-0.5625
1480685338469347,-0.125,0.125,-0.3125
1480685338492408,-1.125,-0.3125,0.1875
1480685338514968,-1.3125,-0.375,0.5
1480685338530008,-0.5,-0.1875,0.25
1480685338553069,-0.5,0,0.1875
1480685338575630,-0.9375,-0.1875,0.125
1480685338619246,-0.875,-0.1875,0.1875
1480685338643811,-0.5,-0.125,0.0625
1480685338659854,-0.5625,-0.0625,-0.125
1480685338665368,-0.8125,-0.1875,-0.0625
1480685338672388,-0.75,-0.1875,0.0625
1480685338694947,-0.6875,-0.3125,-0.0625
1480685338718009,-0.875,-0.4375,-0.125
1480685338733048,-1,-0.4375,-0.1875
