timestamp,roll,pitch,yaw
1480685272605944,0.145833,0.712185,0.158935
1480685272620487,0.145833,0.712185,0.158935
1480685272650563,0.14604,0.71217,0.159142
1480685272658083,0.146191,0.712162,0.159198
1480685272680643,0.146215,0.712313,0.159223
1480685272703205,0.146058,0.712264,0.159159
1480685272726766,0.146209,0.712256,0.159215
1480685272740803,0.14636,0.712248,0.159271
1480685272770382,0.146384,0.712399,0.159295
1480685272777400,0.146384,0.712399,0.159295
1480685272807982,0.146384,0.712399,0.159295
1480685272824025,0.146535,0.712391,0.159351
1480685272837560,0.146591,0.712384,0.159503
1480685272863630,0.146742,0.712377,0.159559
1480685272883182,0.146226,0.712244,0.159612
1480685272898723,0.145932,0.711847,0.159983
1480685272921283,0.146103,0.711175,0.160632
1480685272951363,0.145927,0.710928,0.160933
1480685272957379,0.145285,0.710955,0.160955
1480685272996985,0.145229,0.710961,0.160804
1480685273003502,0.145285,0.710955,0.160955
1480685273024056,0.145461,0.711097,0.161036
1480685273042105,0.145605,0.711033,0.161084
1480685273063160,0.145605,0.711033,0.161084
1480685273078703,0.145605,0.711033,0.161084
1480685273107778,0.145605,0.711033,0.161084
1480685273129336,0.14578,0.711175,0.161164
1480685273151897,0.14578,0.711175,0.161164
1480685273161924,0.14578,0.711175,0.161164
1480685273182979,0.14578,0.711175,0.161164
1480685273204035,0.145987,0.711161,0.161371
1480685273220582,0.146162,0.711303,0.161452
1480685273249154,0.146162,0.711303,0.161452
1480685273264696,0.146156,0.711246,0.161444
1480685273281240,0.146156,0.711246,0.161444
1480685273303804,0.146307,0.711238,0.1615
1480685273324355,0.146307,0.711238,0.1615
1480685273340397,0.146331,0.711389,0.161524
1480685273371032,0.146331,0.711389,0.161524
1480685273394093,0.146682,0.711204,0.16216
1480685273409135,0.146682,0.711204,0.16216
1480685273423672,0.146657,0.711054,0.162135
1480685273444226,0.146506,0.711062,0.16208
1480685273460770,0.146682,0.711204,0.16216
1480685273483330,0.146832,0.711196,0.162216
1480685273511405,0.146832,0.711196,0.162216
1480685273521431,0.146857,0.711347,0.162241
1480685273550509,0.146857,0.711347,0.162241
1480685273564045,0.147064,0.711332,0.162448
1480685273580590,0.147215,0.711324,0.162504
1480685273603650,0.147215,0.711324,0.162504
1480685273625709,0.147215,0.711324,0.162504
1480685273646766,0.147215,0.711324,0.162504
1480685273670328,0.147365,0.711316,0.16256
1480685273685872,0.147359,0.711259,0.162552
1480685273700410,0.147359,0.711259,0.162552
1480685273738007,0.147384,0.71141,0.162577
1480685273753549,0.147534,0.711402,0.162632
1480685273761571,0.147741,0.711387,0.16284
1480685273785134,0.147766,0.711537,0.162864
1480685273806189,0.147615,0.711545,0.162808
1480685273819725,0.147043,0.711421,0.162711
1480685273843288,0.147169,0.711262,0.162742
1480685273865347,0.146825,0.711034,0.162589
1480685273879885,0.145692,0.710764,0.161742
1480685273903447,0.144686,0.710335,0.160928
1480685273925506,0.14423,0.71012,0.160473
1480685273948067,0.144277,0.709817,0.16033
1480685273963607,0.144171,0.709887,0.160035
1480685273985667,0.144021,0.709895,0.15998
1480685273999703,0.144014,0.709838,0.159972
1480685274023767,0.144189,0.70998,0.160052
1480685274045325,0.144189,0.70998,0.160052
1480685274060365,0.144189,0.70998,0.160052
1480685274083426,0.144213,0.710131,0.160076
1480685274105485,0.144213,0.710131,0.160076
1480685274128045,0.144364,0.710123,0.160132
1480685274143085,0.144364,0.710123,0.160132
1480685274173165,0.144382,0.710217,0.160148
1480685274186701,0.144231,0.710225,0.160093
1480685274203245,0.144406,0.710367,0.160173
1480685274226306,0.145113,0.710161,0.161071
1480685274246360,0.145264,0.710153,0.161127
1480685274262903,0.145138,0.710311,0.161095
1480685274285463,0.145138,0.710311,0.161095
1480685274306519,0.145288,0.710303,0.161151
1480685274323064,0.145407,0.709983,0.161555
1480685274345624,0.145049,0.7099,0.161673
1480685274366679,0.144629,0.709768,0.161633
1480685274383224,0.144453,0.709521,0.161933
1480685274405784,0.144641,0.708945,0.162598
1480685274426838,0.144164,0.708714,0.162788
1480685274442883,0.143331,0.708611,0.162335
1480685274465442,0.143181,0.70862,0.162279
1480685274486498,0.143331,0.708611,0.162335
1480685274503543,0.143482,0.708603,0.16239
1480685274525602,0.143482,0.708603,0.16239
1480685274548162,0.143331,0.708611,0.162335
1480685274563202,0.143482,0.708603,0.16239
1480685274585764,0.143482,0.708603,0.16239
1480685274615340,0.143712,0.708739,0.162621
1480685274622860,0.143657,0.708745,0.16247
1480685274645420,0.143657,0.708745,0.16247
1480685274668482,0.143712,0.708739,0.162621
1480685274682519,0.143881,0.708825,0.162693
1480685274711596,0.143673,0.708735,0.162867
1480685274734161,0.143183,0.708755,0.162947
1480685274742178,0.142693,0.708776,0.163026
1480685274765741,0.142962,0.708449,0.163486
1480685274794316,0.143168,0.708434,0.163692
1480685274802340,0.14258,0.708217,0.16358
1480685274825399,0.141865,0.708159,0.163438
1480685274847960,0.141865,0.708159,0.163438
1480685274869015,0.142071,0.708144,0.163644
1480685274899095,0.142071,0.708144,0.163644
1480685274915643,0.141883,0.708253,0.163454
1480685274929175,0.141883,0.708253,0.163454
1480685274945721,0.142089,0.708238,0.16366
1480685274969282,0.14224,0.70823,0.163716
1480685274982818,0.142037,0.708951,0.163321
1480685275005378,0.142035,0.709706,0.162743
1480685275027938,0.141944,0.710416,0.16265
1480685275048993,0.142088,0.710351,0.162698
1480685275065538,0.142112,0.710502,0.162722
1480685275094114,0.141313,0.71095,0.162205
1480685275109154,0.140331,0.711563,0.161505
1480685275125697,0.140482,0.711555,0.161561
1480685275148258,0.140509,0.711946,0.161872
1480685275170319,0.139948,0.712224,0.161688
1480685275192877,0.139798,0.712232,0.161632
1480685275209421,0.139459,0.712953,0.161577
1480685275231479,0.13961,0.712945,0.161633
1480685275251532,0.13961,0.712945,0.161633
1480685275268077,0.13928,0.713463,0.161298
1480685275289133,0.138842,0.714049,0.160669
1480685275313196,0.13904,0.714446,0.160391
1480685275329239,0.139796,0.715218,0.1601
1480685275357815,0.139801,0.716193,0.159152
1480685275365335,0.139791,0.71742,0.158093
1480685275387895,0.140137,0.71873,0.156916
1480685275408952,0.141362,0.720315,0.155577
1480685275425495,0.142355,0.722826,0.15372
1480685275448056,0.14048,0.725964,0.150039
1480685275469112,0.136538,0.728964,0.145144
1480685275491671,0.132247,0.730799,0.141039
1480685275515735,0.12885,0.732288,0.136978
1480685275530273,0.126471,0.733826,0.133179
1480685275545313,0.123894,0.735992,0.129088
1480685275568877,0.120357,0.737331,0.124416
1480685275590935,0.116953,0.738158,0.119879
1480685275605474,0.114303,0.739601,0.115813
1480685275637563,0.111849,0.741636,0.111472
1480685275658115,0.110743,0.745106,0.106973
1480685275671649,0.111903,0.749985,0.103335
1480685275694209,0.114775,0.756447,0.10011
1480685275710753,0.119109,0.765216,0.0955575
1480685275731812,0.126339,0.777211,0.0898357
1480685275747852,0.136702,0.792133,0.0854698
1480685275770413,0.14664,0.8092,0.080976
1480685275792974,0.15676,0.82864,0.0767944
1480685275815532,0.168084,0.849875,0.0740419
1480685275838093,0.180939,0.873472,0.0731483
1480685275859148,0.193071,0.899286,0.0717578
1480685275883213,0.205278,0.927646,0.0717017
1480685275907276,0.218441,0.957867,0.0732663
1480685275911287,0.228987,0.98905,0.0731259
1480685275929335,0.233958,1.02102,0.0682616
1480685275950893,0.234757,1.04688,0.0629399
1480685275971537,0.229794,1.07338,0.0522947
1480685275987991,0.207664,1.09348,0.0272176
1480685276012556,0.179075,1.11027,-0.00187454
1480685276032609,0.132319,1.12018,-0.0469359
1480685276048652,0.100752,1.13071,-0.0762411
1480685276076727,0.0694056,1.13606,-0.101013
1480685276093772,0.0397719,1.13511,-0.123642
1480685276114326,0.0187693,1.12981,-0.135236
1480685276130369,-0.00448901,1.11962,-0.146137
1480685276168471,-0.0107299,1.11462,-0.140141
1480685276181505,-0.0197099,1.10052,-0.134912
1480685276190529,-0.0195805,1.09135,-0.125209
1480685276211585,-0.0219875,1.08529,-0.121377
1480685276228129,-0.0233684,1.08111,-0.117729
1480685276253196,-0.0263257,1.07797,-0.11565
1480685276279265,-0.0281866,1.07478,-0.112906
1480685276288289,-0.031135,1.07188,-0.11267
1480685276310348,-0.0344771,1.06952,-0.112834
1480685276332407,-0.0375837,1.06459,-0.112143
1480685276347948,-0.0345699,1.06797,-0.108832
1480685276372017,-0.0417859,1.06414,-0.11091
1480685276393068,-0.0433738,1.06435,-0.106611
1480685276422145,-0.0369292,1.06701,-0.0930084
1480685276431671,-0.0370883,1.06029,-0.0850068
1480685276467767,-0.0284456,1.05788,-0.0750361
1480685276470273,-0.00962659,1.06311,-0.0611827
1480685276490326,-0.0046126,1.06229,-0.0592127
1480685276512886,-0.0111009,1.05866,-0.0642113
1480685276529932,-0.0158067,1.0597,-0.0668469
1480685276550487,-0.0225897,1.06118,-0.072286
1480685276573548,-0.0266321,1.06303,-0.0768479
1480685276595606,-0.0248607,1.06466,-0.0775634
1480685276610145,-0.0189523,1.06566,-0.0746806
1480685276633207,-0.0122507,1.06504,-0.0698636
1480685276647244,-0.00516725,1.06324,-0.0656518
1480685276684343,0.00825658,1.06048,-0.0571554
1480685276692865,0.0266943,1.05801,-0.0450728
1480685276713921,0.0448727,1.05583,-0.0333494
1480685276761046,0.0606585,1.05392,-0.0224956
1480685276763553,0.073641,1.05177,-0.0127526
1480685276774583,0.0839757,1.0504,-0.00512656
1480685276790625,0.0925112,1.04861,0.00213547
1480685276813186,0.0980163,1.04696,0.00735058
1480685276827222,0.100498,1.04527,0.0105345
1480685276865825,0.101287,1.04375,0.0117434
1480685276889388,0.102611,1.0422,0.0134196
1480685276901421,0.102188,1.04037,0.0137764
1480685276910449,0.0980561,1.03817,0.0108698
1480685276933004,0.0947229,1.03628,0.00858278
1480685276955063,0.0937849,1.03507,0.00800031
1480685276970604,0.0949363,1.03499,0.00878266
1480685276993163,0.0949186,1.03478,0.00877125
1480685277014220,0.0941825,1.03522,0.00893102
1480685277037285,0.0936641,1.03544,0.00949427
1480685277053324,0.0958304,1.03606,0.0110309
1480685277081398,0.100033,1.03638,0.0124763
1480685277090923,0.102112,1.03631,0.0116711
1480685277112982,0.104272,1.03613,0.0117789
1480685277135547,0.109804,1.0369,0.0142667
1480685277156598,0.120188,1.03815,0.0202895
1480685277173143,0.130392,1.03978,0.0266575
1480685277196204,0.136823,1.04112,0.0298876
1480685277218262,0.138888,1.04234,0.0291946
1480685277233302,0.140889,1.04331,0.0291396
1480685277254859,0.143341,1.04436,0.0303659
1480685277285442,0.145298,1.04491,0.0312569
1480685277294465,0.145202,1.04571,0.0302723
1480685277314016,0.14647,1.04632,0.0302054
1480685277330561,0.149991,1.04719,0.0313241
1480685277359136,0.154615,1.04806,0.0333608
1480685277381696,0.157414,1.04832,0.0340263
1480685277391223,0.157454,1.04829,0.0326297
1480685277413281,0.158011,1.04771,0.0321776
1480685277435846,0.159803,1.04717,0.0329078
1480685277450379,0.161668,1.04693,0.0339517
1480685277472940,0.161757,1.04662,0.0333939
1480685277495500,0.161678,1.04529,0.0326855
1480685277524075,0.162127,1.04423,0.0328331
1480685277539118,0.163052,1.04346,0.033309
1480685277578721,0.164565,1.04302,0.0332752
1480685277581227,0.163555,1.04297,0.0312823
1480685277593259,0.16124,1.0427,0.0285092
1480685277615318,0.160927,1.04248,0.0267684
1480685277643894,0.161915,1.04285,0.026237
1480685277677987,0.162536,1.0437,0.0262505
1480685277681495,0.163566,1.0448,0.026945
1480685277690017,0.165724,1.04611,0.0285715
1480685277713079,0.170046,1.04717,0.0320364
1480685277735640,0.175014,1.04841,0.0355791
1480685277749677,0.177488,1.04844,0.0371729
1480685277773238,0.177274,1.04843,0.0370507
1480685277795798,0.177488,1.04844,0.0371729
1480685277823873,0.177608,1.04842,0.0373833
1480685277846433,0.178788,1.04868,0.0386505
1480685277855457,0.177776,1.04894,0.0380975
1480685277880022,0.176352,1.04932,0.0372919
1480685277893057,0.17556,1.04946,0.0371265
1480685277915617,0.174881,1.04972,0.0369047
1480685277944694,0.173691,1.0497,0.0360807
1480685277955222,0.171423,1.04887,0.0339623
1480685277975275,0.168476,1.04722,0.0312652
1480685277998838,0.165436,1.04617,0.0285682
1480685278018908,0.163031,1.04597,0.0258977
1480685278035942,0.161417,1.04658,0.0230351
1480685278056490,0.160626,1.0478,0.0205786
1480685278080556,0.160752,1.04852,0.0190096
1480685278103115,0.160759,1.04899,0.0184874
1480685278133696,0.159759,1.04926,0.0172074
1480685278139211,0.159523,1.04976,0.0162611
1480685278156256,0.160977,1.05032,0.0170128
1480685278176309,0.162463,1.05083,0.0180671
1480685278192853,0.164056,1.05123,0.0193067
1480685278215414,0.164056,1.05123,0.0193067
1480685278236472,0.163898,1.05082,0.0193164
1480685278253015,0.164593,1.05018,0.0200961
1480685278275574,0.165238,1.04925,0.0208236
1480685278296630,0.164566,1.04809,0.0207576
1480685278313174,0.163152,1.04705,0.0201101
1480685278342753,0.161633,1.04529,0.0193771
1480685278357793,0.160494,1.04303,0.0190865
1480685278373334,0.157642,1.04053,0.0177896
1480685278404918,0.153646,1.03824,0.0154664
1480685278426477,0.149568,1.03667,0.0121591
1480685278432992,0.146909,1.03531,0.00983814
1480685278455553,0.144953,1.03423,0.00821914
1480685278478113,0.142717,1.03346,0.00632269
1480685278508193,0.139837,1.03269,0.00378456
1480685278521729,0.13745,1.03229,0.00184322
1480685278545291,0.134719,1.03169,-0.000432426
1480685278552317,0.131467,1.03119,-0.00218275
1480685278575371,0.128438,1.03055,-0.00350761
1480685278597931,0.125979,1.03078,-0.00490337
1480685278626506,0.120306,1.03046,-0.00868375
1480685278635532,0.106912,1.0285,-0.0176209
1480685278658593,0.0965677,1.02735,-0.0232375
1480685278682155,0.0915702,1.02743,-0.0256311
1480685278702209,0.0882317,1.02757,-0.0280692
1480685278718251,0.0871378,1.02819,-0.028514
1480685278732289,0.088379,1.02905,-0.0270867
1480685278755350,0.0908471,1.03016,-0.0252274
1480685278779916,0.093393,1.03141,-0.0237324
1480685278793953,0.0969885,1.0327,-0.0216415
1480685278823030,0.100786,1.0337,-0.0194414
1480685278838071,0.103664,1.03415,-0.0173694
1480685278861131,0.10432,1.03423,-0.0167033
1480685278876172,0.104111,1.03422,-0.0168211
1480685278906753,0.104111,1.03422,-0.0168211
1480685278926806,0.103945,1.03439,-0.0166339
1480685278966412,0.103393,1.0346,-0.0163695
1480685278981952,0.102033,1.03553,-0.0168362
1480685278986464,0.100986,1.03633,-0.0169716
1480685278995989,0.101348,1.03732,-0.01586
1480685279033590,0.10343,1.03845,-0.0135025
1480685279039608,0.104545,1.03936,-0.0118317
1480685279057152,0.105115,1.04051,-0.0108943
1480685279077707,0.105834,1.04128,-0.0101514
1480685279106784,0.106859,1.04207,-0.00937548
1480685279115808,0.107542,1.04269,-0.00896137
1480685279137867,0.107763,1.04321,-0.00907924
1480685279158923,0.108539,1.04385,-0.00875276
1480685279181485,0.109855,1.04446,-0.00794781
1480685279205547,0.112154,1.04521,-0.00645219
1480685279244150,0.113269,1.04585,-0.00578776
1480685279258688,0.113919,1.04638,-0.00565726
1480685279261195,0.114017,1.04682,-0.00599888
1480685279279242,0.115257,1.04745,-0.00511937
1480685279295285,0.116458,1.04765,-0.0042607
1480685279317845,0.117611,1.04826,-0.00328805
1480685279340406,0.118267,1.04846,-0.00288262
1480685279354945,0.1193,1.04875,-0.00184952
1480685279378006,0.121197,1.04915,-0.000305624
1480685279401568,0.122669,1.04954,0.000995729
1480685279415606,0.123171,1.05024,0.0013296
1480685279438667,0.123674,1.05095,0.00166459
1480685279461227,0.124443,1.05151,0.00270572
1480685279490304,0.124443,1.05151,0.00270572
1480685279511359,0.124518,1.05187,0.00306322
1480685279521888,0.124304,1.05186,0.0029399
1480685279534926,0.124304,1.05186,0.0029399
1480685279557984,0.124358,1.05204,0.00325522
1480685279580043,0.124358,1.05204,0.00325522
1480685279595083,0.124368,1.05213,0.00327638
1480685279620149,0.124368,1.05213,0.00327638
1480685279642208,0.124368,1.05213,0.00327638
1480685279654741,0.124582,1.05214,0.00339979
1480685279678303,0.124606,1.05235,0.00341368
1480685279700864,0.124392,1.05234,0.00329022
1480685279714902,0.124392,1.05234,0.00329022
1480685279737962,0.124379,1.05222,0.00329756
1480685279761026,0.124606,1.05235,0.00341368
1480685279790602,0.125644,1.05318,0.00393238
1480685279798123,0.126041,1.05399,0.00408165
1480685279820685,0.126946,1.05441,0.00463565
1480685279842741,0.127161,1.05442,0.00475979
1480685279858784,0.127284,1.05441,0.00497295
1480685279880341,0.127161,1.05442,0.00475979
1480685279901400,0.127161,1.05442,0.00475979
1480685279917941,0.127185,1.05463,0.00477425
1480685279940501,0.127523,1.05463,0.00511165
1480685279963065,0.12751,1.0545,0.00511903
1480685279978602,0.12751,1.0545,0.00511903
1480685280000662,0.12751,1.0545,0.00511903
1480685280022218,0.127725,1.05451,0.00524322
1480685280038262,0.127725,1.05451,0.00524322
1480685280066336,0.127725,1.05451,0.00524322
1480685280088896,0.127616,1.05495,0.0047862
1480685280099425,0.127979,1.05516,0.00513849
1480685280120479,0.127979,1.05516,0.00513849
1480685280143042,0.127979,1.05516,0.00513849
1480685280158080,0.127979,1.05516,0.00513849
1480685280180640,0.127979,1.05516,0.00513849
1480685280201696,0.128145,1.0552,0.00567636
1480685280225259,0.128372,1.05576,0.00626632
1480685280240299,0.128276,1.05675,0.00627529
1480685280263359,0.127744,1.05831,0.00547888
1480685280277898,0.127911,1.0597,0.00567134
1480685280300459,0.128226,1.06096,0.00636176
1480685280346581,0.127705,1.06169,0.00640645
1480685280349088,0.126875,1.0623,0.00566976
1480685280377162,0.125572,1.0626,0.00464102
1480685280390198,0.124267,1.06255,0.00387994
1480685280397717,0.123501,1.06233,0.0035454
1480685280420277,0.122268,1.06179,0.00292327
1480685280442836,0.121698,1.06136,0.00270338
1480685280464895,0.122006,1.06072,0.00327976
1480685280480437,0.123443,1.0602,0.00478194
1480685280503501,0.125192,1.05942,0.00663578
1480685280525055,0.126537,1.05956,0.00768721
1480685280540598,0.126537,1.05956,0.00768721
1480685280593738,0.126637,1.05933,0.00788685
1480685280596246,0.126853,1.05934,0.00801261
1480685280602763,0.126853,1.05934,0.00801261
1480685280622815,0.126853,1.05934,0.00801261
1480685280651896,0.126853,1.05934,0.00801261
1480685280667936,0.126292,1.059,0.00781278
1480685280688991,0.126006,1.05885,0.00805741
1480685280697515,0.126006,1.05885,0.00805741
1480685280720074,0.125665,1.05885,0.00771725
1480685280743637,0.12523,1.0585,0.00773261
1480685280780234,0.125397,1.05825,0.00850968
1480685280788258,0.125302,1.05789,0.0088647
1480685280803798,0.125178,1.0579,0.00865046
1480685280823850,0.125454,1.05843,0.00882806
1480685280840395,0.126948,1.05903,0.0099003
1480685280863455,0.129108,1.05977,0.0113468
1480685280908575,0.130056,1.06071,0.011695
1480685280921111,0.12944,1.06154,0.0108325
1480685280932138,0.128838,1.06284,0.00969456
1480685280951691,0.128907,1.064,0.00924679
1480685280968234,0.128091,1.06505,0.00826463
1480685280990294,0.125795,1.06576,0.00625678
1480685281005335,0.123889,1.06655,0.00488646
1480685281022382,0.123279,1.06693,0.00455959
1480685281048949,0.122774,1.06711,0.00440605
1480685281065995,0.121553,1.06674,0.00381782
1480685281081034,0.119228,1.06659,0.00229713
1480685281103093,0.117654,1.06615,0.00134562
1480685281124651,0.117589,1.066,0.00172012
1480685281140693,0.117807,1.06601,0.00184814
1480685281177792,0.117418,1.06609,0.00189073
1480685281185311,0.1172,1.06609,0.00176271
1480685281206368,0.117899,1.0665,0.00220108
1480685281230933,0.11951,1.06692,0.00345981
1480685281252992,0.120558,1.06733,0.00424659
1480685281261013,0.120487,1.06783,0.00410674
1480685281283071,0.120185,1.06823,0.00381668
1480685281305631,0.12051,1.06881,0.00432249
1480685281319669,0.120858,1.06881,0.00466933
1480685281343231,0.120571,1.069,0.00464328
1480685281365289,0.119045,1.06904,0.00376108
1480685281379828,0.117649,1.0691,0.00306826
1480685281434475,0.116845,1.06858,0.00269511
1480685281440490,0.116377,1.06792,0.00267685
1480685281455531,0.115116,1.06716,0.00203615
1480685281463051,0.113879,1.06662,0.00141078
1480685281485611,0.113879,1.06662,0.00141078
1480685281500148,0.114088,1.06654,0.00151917
1480685281523210,0.114088,1.06654,0.00151917
1480685281566826,0.113869,1.06653,0.00139097
1480685281576852,0.113869,1.06653,0.00139097
1480685281583872,0.114616,1.06657,0.00168657
1480685281605429,0.115847,1.06668,0.00256494
1480685281619968,0.116065,1.06669,0.00269318
1480685281643028,0.115847,1.06668,0.00256494
1480685281665589,0.115847,1.06668,0.00256494
1480685281686644,0.116065,1.06669,0.00269318
1480685281709204,0.116193,1.06668,0.00291037
1480685281733270,0.116065,1.06669,0.00269318
1480685281746805,0.116075,1.06678,0.00271348
1480685281762847,0.116075,1.06678,0.00271348
1480685281785407,0.116422,1.06677,0.003059
1480685281807968,0.116422,1.06677,0.003059
1480685281823007,0.116422,1.06677,0.003059
1480685281845567,0.116422,1.06677,0.003059
1480685281874143,0.116422,1.06677,0.003059
1480685281883169,0.11664,1.06678,0.00318728
1480685281905729,0.116422,1.06677,0.003059
1480685281926783,0.116422,1.06677,0.003059
1480685281950346,0.116422,1.06677,0.003059
1480685281965386,0.11664,1.06678,0.00318728
1480685281986442,0.11664,1.06678,0.00318728
1480685282026047,0.116663,1.067,0.00320058
1480685282028554,0.116444,1.06699,0.00307225
1480685282046601,0.116432,1.06686,0.00307939
1480685282063646,0.116651,1.06687,0.00320773
1480685282085206,0.116651,1.06687,0.00320773
1480685282114283,0.116455,1.06708,0.00309265
1480685282122804,0.116455,1.06708,0.00309265
1480685282152884,0.116673,1.06709,0.00322103
1480685282169429,0.116801,1.06708,0.00343835
1480685282182463,0.115916,1.06696,0.00290453
1480685282205525,0.115893,1.06674,0.00289137
1480685282228084,0.115893,1.06674,0.00289137
1480685282243125,0.116112,1.06675,0.00301965
1480685282265685,0.116112,1.06675,0.00301965
1480685282288244,0.114672,1.06672,0.0020327
1480685282302281,0.113591,1.06681,0.00138412
1480685282326346,0.11381,1.06682,0.00151241
1480685282347903,0.113824,1.06657,0.00180592
1480685282362442,0.113413,1.06643,0.00183585
1480685282385503,0.112301,1.06622,0.00115593
1480685282408064,0.111742,1.06588,0.000957045
1480685282422100,0.112555,1.06543,0.00211804
1480685282445663,0.112654,1.06478,0.00257591
1480685282468724,0.112143,1.06454,0.00267611
1480685282482260,0.111049,1.06408,0.00229285
1480685282505825,0.111444,1.06383,0.00320846
1480685282527881,0.111438,1.06341,0.00346212
1480685282542420,0.111656,1.06341,0.00358926
1480685282574004,0.110537,1.06307,0.00292182
1480685282589546,0.110324,1.06273,0.00306812
1480685282602079,0.110423,1.06208,0.00352531
1480685282625641,0.110533,1.06156,0.00397527
1480685282648234,0.109641,1.06093,0.00368481
1480685282669286,0.10819,1.06026,0.00295403
1480685282685830,0.108084,1.05973,0.00327883
1480685282707888,0.108389,1.059,0.00384257
1480685282728944,0.107931,1.05835,0.00383293
1480685282746492,0.106938,1.05792,0.00337091
1480685282768048,0.106081,1.05759,0.0031181
1480685282789104,0.105219,1.05682,0.00314588
1480685282806150,0.104473,1.05594,0.00337073
1480685282843750,0.102936,1.05517,0.00272478
1480685282850267,0.101727,1.05464,0.0021282
1480685282873830,0.101971,1.0542,0.00281125
1480685282887867,0.102846,1.05366,0.00387148
1480685282908923,0.102676,1.05319,0.00359394
1480685282932486,0.09965,1.05192,0.000648665
1480685282948027,0.0987532,1.05077,-0.000366736
1480685282969083,0.100897,1.04994,0.00069064
1480685282985627,0.103327,1.04924,0.00250206
1480685283008688,0.103818,1.04887,0.00362055
1480685283029243,0.101881,1.04822,0.00273904
1480685283045285,0.100483,1.04681,0.00186029
1480685283067850,0.100262,1.04532,0.00178806
1480685283100432,0.0998493,1.04369,0.00190118
1480685283106951,0.0987044,1.04225,0.00145529
1480685283128507,0.0973492,1.04041,0.00114969
1480685283150566,0.0927582,1.03796,-0.00160398
1480685283165606,0.0900162,1.03518,-0.00257839
1480685283188166,0.0902025,1.03289,-0.0021493
1480685283210224,0.0903586,1.03023,-0.00176066
1480685283231782,0.0888828,1.02729,-0.00300415
1480685283247824,0.0867822,1.02437,-0.00487252
1480685283270886,0.0848245,1.02092,-0.00723401
1480685283284926,0.0852635,1.01638,-0.00829434
1480685283316005,0.0916889,1.01125,-0.00508577
1480685283330544,0.10151,1.00519,0.000607382
1480685283376667,0.10892,0.999287,0.00505192
1480685283379174,0.114287,0.992404,0.0104792
1480685283407750,0.117289,0.983948,0.0138036
1480685283420283,0.119924,0.975193,0.0154851
1480685283427803,0.121686,0.965914,0.0166419
1480685283450868,0.121244,0.955866,0.0160341
1480685283471419,0.119963,0.944722,0.0143941
1480685283487963,0.115439,0.934694,0.0110539
1480685283510526,0.111499,0.923696,0.00855821
1480685283532080,0.10463,0.914041,0.00381262
1480685283548124,0.100452,0.904616,-0.000887253
1480685283586227,0.0980767,0.89801,-0.00521507
1480685283592741,0.0940579,0.892731,-0.00942883
1480685283608283,0.0870651,0.888165,-0.0148487
1480685283630341,0.0821322,0.883605,-0.0185802
1480685283660421,0.0813818,0.879276,-0.021525
1480685283676464,0.078409,0.875398,-0.025206
1480685283690501,0.0721396,0.871724,-0.0287853
1480685283711557,0.0657709,0.86761,-0.0311834
1480685283728103,0.0606851,0.862674,-0.0340459
1480685283751163,0.0535907,0.858686,-0.0372476
1480685283774224,0.0440717,0.855292,-0.0396349
1480685283787760,0.0361356,0.85042,-0.0412784
1480685283817841,0.0327354,0.84559,-0.0400355
1480685283841904,0.0296369,0.841832,-0.036901
1480685283847920,0.0263796,0.836689,-0.0326331
1480685283886024,0.0222578,0.829848,-0.0282178
1480685283893039,0.0182548,0.82171,-0.0232094
1480685283915600,0.0136729,0.812577,-0.0195034
1480685283938160,0.00940544,0.803813,-0.0156341
1480685283960720,0.00646912,0.796493,-0.0126418
1480685283967240,0.00547929,0.790242,-0.00842872
1480685283990299,0.00507906,0.785034,-0.00304995
1480685284011354,0.00573448,0.779921,0.00367647
1480685284028901,0.00761082,0.77486,0.0115437
1480685284051963,0.0135665,0.770609,0.0207835
1480685284081039,0.021986,0.767168,0.0309899
1480685284095579,0.0306118,0.764415,0.0417806
1480685284112623,0.0375445,0.761596,0.0510678
1480685284133178,0.0412338,0.757668,0.0570247
1480685284148720,0.0441857,0.753357,0.0592379
1480685284171781,0.0497259,0.74926,0.0597061
1480685284192837,0.0496092,0.745665,0.0574307
1480685284215398,0.0437082,0.741219,0.0531406
1480685284238461,0.0394934,0.736341,0.0497856
1480685284252998,0.0372521,0.731438,0.0470829
1480685284275557,0.036956,0.727246,0.0469851
1480685284292101,0.0353668,0.723386,0.0475835
1480685284313158,0.0343473,0.719468,0.0476171
1480685284327195,0.0337916,0.716499,0.0470708
1480685284351765,0.0332772,0.714365,0.0476052
1480685284373317,0.0336619,0.712918,0.0487541
1480685284387354,0.034869,0.7121,0.0499638
1480685284410416,0.0348092,0.7121,0.0508536
1480685284438991,0.0352467,0.712639,0.0523347
1480685284447514,0.0374495,0.713238,0.0543456
1480685284472080,0.0398398,0.713377,0.0565437
1480685284494138,0.0410445,0.714693,0.0585994
1480685284515696,0.0424952,0.716195,0.0602333
1480685284530735,0.0439558,0.718096,0.0614961
1480685284553296,0.0455523,0.720242,0.0630833
1480685284582373,0.0477613,0.722275,0.0659484
1480685284590395,0.0508239,0.72398,0.0700456
1480685284612954,0.0545428,0.725507,0.0751774
1480685284634013,0.0592308,0.726197,0.0815655
1480685284650560,0.0644078,0.726857,0.0885374
1480685284673114,0.0697378,0.727994,0.0954688
1480685284701690,0.0754538,0.730307,0.102496
1480685284710714,0.0817435,0.732988,0.109528
1480685284747312,0.0893125,0.735636,0.117079
1480685284755333,0.0977912,0.738883,0.124403
1480685284770874,0.106818,0.743067,0.130482
1480685284793936,0.11646,0.748305,0.135106
1480685284815995,0.126636,0.753794,0.139241
1480685284838053,0.135567,0.758792,0.142896
1480685284860612,0.142896,0.762866,0.145994
1480685284881668,0.148923,0.76644,0.148548
1480685284889690,0.154173,0.769658,0.149579
1480685284927290,0.159152,0.772721,0.149316
1480685284934308,0.163116,0.775997,0.148136
1480685284950854,0.166381,0.778667,0.147013
1480685284972911,0.169198,0.780728,0.146564
1480685284995472,0.17223,0.781913,0.14717
1480685285010011,0.175453,0.782123,0.148803
1480685285033072,0.177709,0.781951,0.150124
1480685285071173,0.178793,0.78175,0.150553
1480685285073679,0.180189,0.78225,0.150267
1480685285093231,0.182386,0.782929,0.149948
1480685285115290,0.184582,0.783549,0.150275
1480685285138355,0.18569,0.783586,0.15101
1480685285160410,0.186336,0.783526,0.151934
1480685285182970,0.187557,0.783124,0.153061
1480685285206534,0.189617,0.782444,0.154367
1480685285242128,0.19145,0.781781,0.155446
1480685285251653,0.191698,0.781099,0.155595
1480685285259674,0.191667,0.780941,0.155565
1480685285273211,0.192478,0.781042,0.155255
1480685285295269,0.193868,0.781809,0.154874
1480685285310309,0.194412,0.783365,0.15384
1480685285347909,0.194171,0.785987,0.152221
1480685285371973,0.194621,0.788985,0.151202
1480685285394031,0.195638,0.791515,0.151027
1480685285398042,0.196546,0.793621,0.151021
1480685285416090,0.197617,0.795724,0.151086
1480685285438149,0.198632,0.797434,0.150813
1480685285460709,0.199817,0.798191,0.150887
1480685285483269,0.20097,0.798246,0.151389
1480685285505327,0.201772,0.798076,0.151444
1480685285512848,0.202372,0.798815,0.150465
1480685285535407,0.203197,0.799941,0.148974
1480685285557967,0.204222,0.801915,0.147411
1480685285573509,0.205498,0.805069,0.146114
1480685285603589,0.2063,0.808745,0.144823
1480685285627151,0.206509,0.812079,0.14349
1480685285633670,0.207123,0.814103,0.142831
1480685285655226,0.208426,0.815029,0.143119
1480685285676281,0.209125,0.815532,0.143359
1480685285693327,0.20918,0.815786,0.143419
1480685285717893,0.209203,0.815877,0.143447
1480685285737946,0.208894,0.816315,0.143236
1480685285760506,0.208544,0.816232,0.143067
1480685285776549,0.207667,0.815999,0.142654
1480685285796602,0.206475,0.815988,0.141461
1480685285813145,0.206054,0.816682,0.139102
1480685285836709,0.207028,0.818174,0.137581
1480685285856761,0.206773,0.819707,0.136607
1480685285880324,0.205371,0.820569,0.136239
1480685285902884,0.204335,0.821947,0.135966
1480685285925446,0.204158,0.824168,0.135903
1480685285933466,0.204244,0.826128,0.136205
1480685285955524,0.204426,0.828027,0.136134
1480685285978085,0.204272,0.830079,0.13527
1480685285993630,0.204169,0.832949,0.133717
1480685286015684,0.20459,0.835564,0.132511
1480685286068329,0.203527,0.837509,0.131755
1480685286070836,0.202457,0.838172,0.1319
1480685286077354,0.202981,0.839177,0.131323
1480685286083872,0.203927,0.840912,0.129427
1480685286104928,0.205138,0.843536,0.126425
1480685286127487,0.204971,0.84545,0.123231
1480685286141023,0.203827,0.846324,0.120807
1480685286180130,0.201546,0.845499,0.11953
1480685286182633,0.200651,0.842869,0.120536
1480685286203690,0.20101,0.838705,0.123792
1480685286226251,0.200958,0.833725,0.127554
1480685286247807,0.200707,0.828696,0.131224
1480685286268362,0.201152,0.824557,0.134763
1480685286292927,0.201865,0.822347,0.136933
1480685286315988,0.20331,0.822558,0.137728
1480685286337044,0.204655,0.824855,0.137154
1480685286343562,0.205268,0.827884,0.135954
1480685286359606,0.204792,0.831151,0.133763
1480685286382164,0.203796,0.833517,0.13095
1480685286403221,0.20242,0.835367,0.128027
1480685286436308,0.199766,0.83658,0.125112
1480685286457364,0.196642,0.836682,0.122912
1480685286463380,0.193843,0.835834,0.121955
1480685286481428,0.192333,0.834419,0.121902
1480685286504991,0.190952,0.832979,0.121246
1480685286526046,0.18998,0.831523,0.120905
1480685286548607,0.188966,0.829742,0.121444
1480685286600745,0.187886,0.827623,0.123118
1480685286617791,0.187673,0.825318,0.125288
1480685286625312,0.188678,0.821928,0.130789
1480685286643359,0.189493,0.820447,0.133912
1480685286661406,0.191137,0.819376,0.137307
1480685286683973,0.192969,0.818599,0.140152
1480685286711039,0.194352,0.81787,0.142271
1480685286737610,0.195686,0.817032,0.144616
1480685286742121,0.197639,0.816146,0.146562
1480685286763177,0.199376,0.815629,0.147919
1480685286785737,0.200199,0.815268,0.14837
1480685286800777,0.199943,0.815192,0.14811
1480685286826345,0.200032,0.814505,0.148193
1480685286848906,0.200449,0.813808,0.148416
1480685286871465,0.200302,0.813212,0.148548
1480685286893524,0.198698,0.812658,0.147773
1480685286914580,0.197283,0.812116,0.146815
1480685286921097,0.196679,0.811403,0.145924
1480685286943157,0.19661,0.810859,0.145296
1480685286966722,0.195911,0.811166,0.144221
1480685286991283,0.195106,0.811608,0.14287
1480685287006323,0.194631,0.812447,0.141561
1480685287028885,0.19498,0.813358,0.140903
1480685287040917,0.195589,0.814754,0.140408
1480685287063475,0.195907,0.815987,0.139905
1480685287086036,0.196024,0.817399,0.139198
1480685287104585,0.197226,0.818456,0.138927
1480685287124639,0.198866,0.819321,0.139094
1480685287150208,0.19985,0.820204,0.138979
1480685287171262,0.200573,0.821351,0.138503
1480685287190816,0.201521,0.822411,0.138259
1480685287214879,0.202943,0.823442,0.138486
1480685287220895,0.204216,0.824282,0.139032
1480685287243454,0.204381,0.824278,0.139104
1480685287269524,0.204415,0.824442,0.139135
1480685287305118,0.204415,0.824442,0.139135
1480685287307625,0.204415,0.824442,0.139135
1480685287328681,0.20458,0.824438,0.139207
1480685287349236,0.20458,0.824438,0.139207
1480685287370834,0.20458,0.824438,0.139207
1480685287395358,0.20458,0.824438,0.139207
1480685287400873,0.20458,0.824438,0.139207
1480685287423433,0.204745,0.824434,0.139279
1480685287457524,0.20458,0.824438,0.139207
1480685287470059,0.203956,0.824279,0.139051
1480685287490612,0.203844,0.82384,0.139215
1480685287513672,0.204146,0.823454,0.13969
1480685287524705,0.203797,0.823032,0.139619
1480685287546761,0.203121,0.822545,0.139122
1480685287565812,0.203333,0.82258,0.138683
1480685287583860,0.203897,0.822698,0.138416
1480685287603412,0.204362,0.823148,0.138141
1480685287625971,0.204166,0.823614,0.137578
1480685287660563,0.204124,0.824004,0.137083
1480685287663572,0.205036,0.824547,0.136888
1480685287697285,0.20613,0.82482,0.136869
1480685287703803,0.206801,0.825792,0.136623
1480685287726362,0.20696,0.827043,0.136057
1480685287749426,0.207454,0.827948,0.135735
1480685287769978,0.208806,0.828711,0.136169
1480685287791034,0.210279,0.830276,0.136368
1480685287813594,0.211275,0.832217,0.135996
1480685287823620,0.211649,0.834358,0.135391
1480685287843173,0.211544,0.835957,0.134745
1480685287865733,0.211647,0.837031,0.134406
1480685287889797,0.211839,0.837824,0.134335
1480685287904838,0.211796,0.838924,0.133664
1480685287927397,0.211233,0.839728,0.133104
1480685287943940,0.209431,0.839076,0.133143
1480685287965498,0.206811,0.83747,0.133096
1480685288002598,0.204852,0.835639,0.132778
1480685288005107,0.20411,0.833829,0.132468
1480685288026661,0.203486,0.83219,0.132382
1480685288048721,0.203102,0.830807,0.133365
1480685288073285,0.20395,0.830231,0.135411
1480685288093338,0.202682,0.830374,0.135536
1480685288113393,0.202309,0.830918,0.133964
1480685288123919,0.205146,0.831866,0.133475
1480685288143472,0.20731,0.832396,0.133986
1480685288166031,0.207143,0.832399,0.133913
1480685288183602,0.20716,0.832833,0.133841
1480685288204133,0.208505,0.833385,0.133707
1480685288250760,0.211,0.833989,0.133438
1480685288260282,0.212428,0.834852,0.131921
1480685288287860,0.2132,0.836512,0.129938
1480685288290366,0.213348,0.838597,0.127069
1480685288308416,0.213914,0.841109,0.124438
1480685288333983,0.214834,0.843717,0.121983
1480685288349024,0.215028,0.84717,0.118622
1480685288372085,0.214007,0.850869,0.114352
1480685288390634,0.213311,0.855135,0.110684
1480685288413194,0.213443,0.858912,0.108956
1480685288436256,0.213436,0.861219,0.108721
1480685288446282,0.213504,0.86222,0.110093
1480685288465834,0.213264,0.862047,0.112519
1480685288491401,0.213213,0.860627,0.116227
1480685288513962,0.214377,0.858332,0.12131
1480685288529503,0.215485,0.855285,0.12707
1480685288550061,0.215864,0.851461,0.132646
1480685288566101,0.215602,0.847619,0.136575
1480685288585653,0.215042,0.844723,0.138748
1480685288608212,0.215471,0.843163,0.139799
1480685288626261,0.214968,0.842567,0.138551
1480685288648821,0.213268,0.842542,0.136292
1480685288676394,0.21174,0.842581,0.134394
1480685288699455,0.210847,0.842217,0.133411
1480685288705972,0.210825,0.842126,0.133381
1480685288736554,0.21033,0.842306,0.132249
1480685288745078,0.209882,0.843435,0.130975
1480685288765631,0.210777,0.84448,0.130324
1480685288788191,0.211886,0.845474,0.130147
1480685288810752,0.212623,0.846083,0.130437
1480685288836319,0.212415,0.84604,0.130876
1480685288858879,0.212213,0.845487,0.132041
1480685288879434,0.212261,0.844226,0.133649
1480685288887455,0.212635,0.843014,0.135665
1480685288911017,0.212055,0.841599,0.136819
1480685288933578,0.210811,0.840147,0.137414
1480685288949621,0.209987,0.838684,0.138043
1480685288977194,0.209411,0.837567,0.138838
1480685288986719,0.208844,0.836398,0.139374
1480685289005770,0.207735,0.835764,0.139457
1480685289028329,0.20633,0.83489,0.139241
1480685289046378,0.206095,0.83406,0.139827
1480685289067434,0.206348,0.833145,0.140628
1480685289090996,0.206228,0.832345,0.140866
1480685289116065,0.206228,0.832345,0.140866
1480685289133111,0.206155,0.832356,0.140701
1480685289166697,0.206194,0.832179,0.140833
1480685289179733,0.206703,0.831683,0.1418
1480685289185748,0.206723,0.831272,0.142551
1480685289208309,0.206284,0.83077,0.143499
1480685289232373,0.205886,0.82988,0.144942
1480685289253428,0.205964,0.828547,0.146672
1480685289268468,0.206214,0.827497,0.148114
1480685289301556,0.205606,0.826933,0.148705
1480685289313588,0.205078,0.826644,0.149102
1480685289328628,0.20499,0.826158,0.149937
1480685289346676,0.204653,0.825745,0.150798
1480685289369236,0.204173,0.825356,0.15133
1480685289391796,0.203021,0.824841,0.151287
1480685289420873,0.202258,0.824571,0.151449
1480685289434911,0.202249,0.824362,0.152091
1480685289448948,0.202064,0.824214,0.152921
1480685289466499,0.201302,0.824021,0.153367
1480685289502090,0.200386,0.823907,0.153747
1480685289511115,0.199859,0.823624,0.154145
1480685289526153,0.20018,0.823406,0.15493
1480685289548714,0.20018,0.823406,0.15493
1480685289571275,0.199742,0.823528,0.154209
1480685289586313,0.199881,0.823566,0.153607
1480685289608874,0.200704,0.823749,0.153602
1480685289670038,0.201349,0.823919,0.153503
1480685289690089,0.201629,0.824349,0.153413
1480685289699619,0.202708,0.825083,0.152929
1480685289713652,0.203886,0.825477,0.153364
1480685289734709,0.204509,0.825843,0.153159
1480685289766296,0.204599,0.8264,0.152607
1480685289768297,0.204702,0.82669,0.152158
1480685289788851,0.204795,0.826623,0.151782
1480685289817428,0.204607,0.826123,0.151495
1480685289830964,0.204077,0.825487,0.150776
1480685289853524,0.202836,0.825313,0.149536
1480685289871071,0.202054,0.8253,0.148381
1480685289922206,0.202325,0.825172,0.147818
1480685289991891,0.202359,0.825337,0.147851
1480685289997406,0.202359,0.825337,0.147851
1480685289998912,0.202122,0.825353,0.147615
1480685290013950,0.205229,0.82517,0.149234
1480685290033502,0.205806,0.825502,0.14954
1480685290056062,0.206631,0.82589,0.150086
1480685290087648,0.207991,0.826161,0.151265
1480685290090154,0.20914,0.826327,0.152599
1480685290108201,0.210113,0.826424,0.153856
1480685290131263,0.21066,0.826451,0.154776
1480685290156329,0.211408,0.826638,0.155803
1480685290168361,0.212523,0.826637,0.157104
1480685290201449,0.213176,0.826744,0.157939
1480685290225011,0.213176,0.826744,0.157939
1480685290246068,0.213429,0.826945,0.15875
1480685290250581,0.213429,0.826945,0.15875
1480685290273139,0.213558,0.826776,0.158787
1480685290297204,0.213798,0.827172,0.159214
1480685290321268,0.213626,0.827857,0.159234
1480685290342825,0.213867,0.828466,0.159301
1480685290355859,0.214454,0.82921,0.159805
1480685290370905,0.214852,0.829868,0.160207
1480685290388948,0.215193,0.830898,0.160376
1480685290411508,0.215572,0.832093,0.160582
1480685290438580,0.216571,0.833157,0.161308
1480685290448607,0.217662,0.833544,0.162131
1480685290471167,0.218583,0.833864,0.162595
1480685290501246,0.21924,0.83411,0.162791
1480685290524308,0.21924,0.83411,0.162791
1480685290529822,0.219313,0.834098,0.162955
1480685290550879,0.219479,0.834093,0.163029
1480685290568926,0.220099,0.834174,0.163189
1480685290592489,0.220136,0.83434,0.163225
1480685290618059,0.220136,0.83434,0.163225
1480685290636106,0.220376,0.834322,0.163463
1480685290655657,0.220376,0.834322,0.163463
1480685290670697,0.220376,0.834322,0.163463
1480685290688745,0.220376,0.834322,0.163463
1480685290711304,0.220542,0.834316,0.163536
1480685290730857,0.220709,0.834311,0.16361
1480685290749407,0.220781,0.834299,0.163775
1480685290778984,0.220542,0.834316,0.163536
1480685290795027,0.220709,0.834311,0.16361
1480685290809567,0.220781,0.834299,0.163775
1480685290831124,0.220974,0.834384,0.163879
1480685290850676,0.220974,0.834384,0.163879
1480685290897800,0.220807,0.83439,0.163806
1480685290900307,0.220974,0.834384,0.163879
1480685290918356,0.221141,0.834379,0.163953
1480685290928883,0.221141,0.834379,0.163953
1480685290964479,0.221012,0.83455,0.163916
1480685290970996,0.221012,0.83455,0.163916
1480685290988542,0.221179,0.834544,0.163989
1480685291011102,0.221213,0.834367,0.164117
1480685291030654,0.221213,0.834367,0.164117
1480685291056724,0.221213,0.834367,0.164117
1480685291079283,0.221213,0.834367,0.164117
1480685291098334,0.22138,0.834361,0.164191
1480685291108862,0.22138,0.834361,0.164191
1480685291131422,0.22138,0.834361,0.164191
1480685291158494,0.22138,0.834361,0.164191
1480685291169523,0.22138,0.834361,0.164191
1480685291197097,0.221547,0.834356,0.164264
1480685291211135,0.221547,0.834356,0.164264
1480685291228681,0.221547,0.834356,0.164264
1480685291251241,0.221547,0.834356,0.164264
1480685291272297,0.221585,0.834521,0.164301
1480685291300873,0.221824,0.834503,0.164539
1480685291311401,0.221824,0.834503,0.164539
1480685291333960,0.221824,0.834503,0.164539
1480685291354515,0.221359,0.834342,0.164447
1480685291378580,0.221525,0.834337,0.16452
1480685291392118,0.221265,0.834335,0.164538
1480685291420692,0.220274,0.8341,0.164195
1480685291445257,0.219056,0.833956,0.16362
1480685291452275,0.219173,0.833499,0.164011
1480685291473332,0.219097,0.832956,0.164298
1480685291495892,0.218355,0.832436,0.164292
1480685291512439,0.217734,0.832013,0.164226
1480685291533493,0.217457,0.831654,0.164312
1480685291551038,0.21725,0.830941,0.164655
1480685291572094,0.216937,0.830417,0.164706
1480685291625737,0.216899,0.830252,0.16467
1480685291632758,0.216733,0.830258,0.164597
1480685291637268,0.216511,0.830422,0.164652
1480685291656819,0.21657,0.830125,0.16517
1480685291675871,0.216701,0.829816,0.165852
1480685291693917,0.216097,0.829542,0.16608
1480685291720989,0.215558,0.828843,0.166278
1480685291731016,0.215694,0.828194,0.166772
1480685291753576,0.215571,0.827757,0.166926
1480685291773129,0.215534,0.827593,0.16689
1480685291791176,0.21465,0.827781,0.166656
1480685291813736,0.214271,0.827685,0.166737
1480685291840809,0.214321,0.827656,0.167157
1480685291852841,0.214486,0.82765,0.167229
1480685291888435,0.214321,0.827656,0.167157
1480685291910493,0.214321,0.827656,0.167157
1480685291913000,0.214321,0.827656,0.167157
1480685291933555,0.214558,0.827638,0.167393
1480685291956115,0.214133,0.827645,0.16734
1480685291971155,0.214133,0.827645,0.16734
1480685291993715,0.214133,0.827645,0.16734
1480685292020787,0.214133,0.827645,0.16734
1480685292031316,0.214333,0.827463,0.167541
1480685292053875,0.21437,0.827627,0.167577
1480685292073427,0.214133,0.827645,0.16734
1480685292092979,0.21437,0.827627,0.167577
1480685292118547,0.21437,0.827627,0.167577
1480685292165171,0.21437,0.827627,0.167577
1480685292195753,0.214396,0.827718,0.167607
1480685292198259,0.214396,0.827718,0.167607
1480685292203773,0.214396,0.827718,0.167607
1480685292213299,0.214561,0.827712,0.167679
1480685292233853,0.214561,0.827712,0.167679
1480685292254910,0.214396,0.827718,0.167607
1480685292277470,0.214396,0.827718,0.167607
1480685292301033,0.214973,0.827422,0.168086
1480685292314569,0.214907,0.826826,0.168112
1480685292331113,0.214157,0.826504,0.167727
1480685292353671,0.213903,0.826164,0.16756
1480685292374729,0.213866,0.826,0.167524
1480685292391272,0.214032,0.825994,0.167596
1480685292421353,0.214032,0.825994,0.167596
1480685292443912,0.213866,0.826,0.167524
1480685292473491,0.213887,0.825541,0.168006
1480685292475997,0.214198,0.824696,0.168955
1480685292494547,0.214391,0.823964,0.169605
1480685292513096,0.213913,0.823451,0.169586
1480685292533651,0.213715,0.823632,0.169387
1480685292565235,0.213749,0.823457,0.169514
1480685292586291,0.213877,0.823287,0.16955
1480685292605843,0.214041,0.823281,0.169622
1480685292632415,0.21419,0.823807,0.169498
1480685292652967,0.214619,0.824213,0.169743
1480685292655475,0.214619,0.824213,0.169743
1480685292676029,0.214784,0.824207,0.169815
1480685292696584,0.214802,0.824564,0.169747
1480685292720648,0.214703,0.825165,0.169649
1480685292744210,0.215065,0.825657,0.170017
1480685292757747,0.21583,0.826125,0.170693
1480685292772787,0.216367,0.826345,0.171231
1480685292796349,0.216292,0.826697,0.171256
1480685292816402,0.216228,0.827122,0.171286
1480685292840968,0.216687,0.82762,0.171564
1480685292855507,0.217582,0.827918,0.172279
1480685292878066,0.217582,0.827918,0.172279
1480685292906643,0.21762,0.828082,0.172316
1480685292915167,0.217816,0.828507,0.172328
1480685292936222,0.218404,0.828835,0.172643
1480685292952766,0.218404,0.828835,0.172643
1480685292975325,0.218442,0.828999,0.17268
1480685292997886,0.218442,0.828999,0.17268
1480685293020946,0.218442,0.828999,0.17268
1480685293035485,0.218608,0.828993,0.172753
1480685293056541,0.218634,0.829084,0.172784
1480685293073085,0.218634,0.829084,0.172784
1480685293096147,0.218123,0.828819,0.172918
1480685293116702,0.218153,0.828432,0.173404
1480685293140266,0.218321,0.827818,0.173664
1480685293155304,0.218321,0.827818,0.173664
1480685293183880,0.218321,0.827818,0.173664
1480685293192904,0.218487,0.827812,0.173736
1480685293215469,0.218487,0.827812,0.173736
1480685293244039,0.218724,0.827794,0.173972
1480685293291667,0.218543,0.827517,0.174252
1480685293299688,0.218378,0.827523,0.17418
1480685293302194,0.218543,0.827517,0.174252
1480685293312722,0.218709,0.82751,0.174325
1480685293335283,0.218709,0.82751,0.174325
1480685293356339,0.218543,0.827517,0.174252
1480685293373384,0.218543,0.827517,0.174252
1480685293395442,0.218709,0.82751,0.174325
1480685293416499,0.218946,0.827492,0.174561
1480685293433042,0.218946,0.827492,0.174561
1480685293456104,0.218901,0.827595,0.174427
1480685293476658,0.218901,0.827595,0.174427
1480685293492702,0.218972,0.827583,0.174591
1480685293516263,0.219111,0.827486,0.174633
1480685293538824,0.219203,0.827832,0.174732
1480685293552861,0.219122,0.828718,0.174285
1480685293576424,0.219751,0.830028,0.174094
1480685293598484,0.220419,0.831504,0.173941
1480685293612519,0.220389,0.833183,0.17337
1480685293635581,0.220106,0.834597,0.172913
1480685293674184,0.220369,0.835622,0.173188
1480685293678696,0.220813,0.836104,0.173729
1480685293695240,0.220936,0.836674,0.17413
1480685293717800,0.220502,0.836949,0.173978
1480685293732839,0.219703,0.836803,0.173737
1480685293755400,0.21929,0.836274,0.173874
1480685293777960,0.219151,0.83555,0.174378
1480685293791998,0.21833,0.834836,0.174563
1480685293816061,0.21682,0.834268,0.174065
1480685293845640,0.215845,0.833504,0.173916
1480685293853661,0.21531,0.83254,0.174208
1480685293875218,0.214644,0.831407,0.174555
1480685293898280,0.213781,0.830799,0.174612
1480685293918834,0.213134,0.830292,0.174516
1480685293950920,0.212984,0.829765,0.174639
1480685293974482,0.212774,0.829058,0.174981
1480685293979496,0.212407,0.828092,0.175348
1480685293997044,0.211049,0.827167,0.175283
1480685294018098,0.210104,0.826293,0.175535
1480685294039656,0.209439,0.825092,0.175603
1480685294055197,0.208897,0.824327,0.175519
1480685294086280,0.207853,0.823847,0.175122
1480685294107837,0.206575,0.823386,0.174491
1480685294130409,0.205641,0.82306,0.174295
1480685294144435,0.205061,0.822474,0.174365
1480685294158973,0.204497,0.822376,0.174633
1480685294176018,0.203697,0.822295,0.174667
1480685294205597,0.202782,0.822327,0.174402
1480685294228156,0.20256,0.822494,0.174458
1480685294241694,0.202609,0.82247,0.174877
1480685294258237,0.202093,0.822478,0.174919
1480685294278792,0.201249,0.8225,0.174817
1480685294295335,0.200969,0.822491,0.175094
1480685294317895,0.201133,0.822356,0.175812
1480685294338951,0.201298,0.822348,0.175884
1480685294355495,0.201288,0.822276,0.175877
1480685294385576,0.201123,0.822283,0.175805
1480685294408135,0.201288,0.822276,0.175877
1480685294416659,0.201452,0.822269,0.175948
1480685294437714,0.201523,0.822259,0.176112
1480685294458769,0.201523,0.822259,0.176112
1480685294482837,0.201452,0.822269,0.175948
1480685294505394,0.201475,0.822154,0.176339
1480685294520935,0.201554,0.821879,0.176602
1480685294535476,0.201141,0.821626,0.176652
1480685294558034,0.20059,0.821471,0.176658
1480685294586610,0.199987,0.821135,0.176609
1480685294595635,0.199521,0.821121,0.17707
1480685294617693,0.197422,0.82138,0.17618
1480685294640253,0.193359,0.821721,0.174157
1480685294655292,0.188882,0.821932,0.171537
1480685294678354,0.183033,0.821446,0.16782
1480685294700413,0.174125,0.818991,0.163452
1480685294746034,0.163479,0.815174,0.1606
1480685294748544,0.151113,0.810335,0.158271
1480685294760573,0.140454,0.805787,0.158506
1480685294783133,0.134656,0.80117,0.163528
1480685294798674,0.131609,0.795543,0.170962
1480685294820231,0.129645,0.788958,0.180349
1480685294842290,0.127235,0.781059,0.188877
1480685294857832,0.125356,0.772887,0.196665
1480685294887911,0.123529,0.764931,0.203038
1480685294902952,0.11915,0.757863,0.205825
1480685294917992,0.119353,0.752425,0.207079
1480685294940553,0.12408,0.749094,0.208759
1480685294961607,0.12455,0.745349,0.208164
1480685294977649,0.121819,0.742341,0.20888
1480685295013746,0.119944,0.737867,0.20993
1480685295024275,0.119169,0.733676,0.212363
1480685295038311,0.11947,0.730013,0.216053
1480685295060370,0.118776,0.7276,0.219477
1480685295081426,0.121308,0.725758,0.22329
1480685295097970,0.12386,0.724941,0.225762
1480685295120529,0.125567,0.724289,0.226355
1480685295141586,0.125557,0.723877,0.22578
1480685295158130,0.126558,0.724181,0.22554
1480685295180190,0.128623,0.725049,0.226166
1480685295201245,0.129426,0.725385,0.226777
1480685295217788,0.128962,0.724824,0.227451
1480685295240349,0.129792,0.723454,0.228415
1480685295262909,0.13086,0.722953,0.22864
1480685295285469,0.13086,0.722953,0.22864
1480685295300510,0.130691,0.722409,0.228381
1480685295329586,0.130728,0.722269,0.229564
1480685295338110,0.131901,0.72237,0.231205
1480685295360668,0.133507,0.723038,0.232426
1480685295381727,0.135568,0.723696,0.233419
1480685295397767,0.137123,0.724456,0.234103
1480685295427847,0.138259,0.724607,0.234954
1480685295444391,0.138456,0.724598,0.23582
1480685295457927,0.138161,0.725135,0.236555
1480685295480489,0.138082,0.725803,0.237128
1480685295503048,0.139168,0.726159,0.238768
1480685295518087,0.141527,0.726704,0.24093
1480685295548671,0.144583,0.727368,0.243109
1480685295570227,0.147804,0.728631,0.245172
1480685295577244,0.150616,0.730021,0.246434
1480685295608328,0.153018,0.731508,0.247294
1480685295628881,0.155359,0.732849,0.248378
1480685295637405,0.157758,0.733877,0.249709
1480685295660466,0.159555,0.734772,0.250928
1480685295683026,0.161073,0.735131,0.251968
1480685295704082,0.163838,0.735466,0.253495
1480685295720625,0.168046,0.736067,0.255234
1480685295742684,0.172794,0.737118,0.256457
1480685295757223,0.177865,0.739178,0.256773
1480685295780284,0.183305,0.741628,0.25651
1480685295802845,0.188739,0.744355,0.25577
1480685295817384,0.192251,0.747032,0.253868
1480685295840445,0.194371,0.749344,0.251623
1480685295869022,0.195913,0.751787,0.248903
1480685295885564,0.198334,0.754037,0.246777
1480685295900605,0.201048,0.756589,0.244952
1480685295922662,0.203593,0.759572,0.243525
1480685295944220,0.205754,0.76237,0.242184
1480685295960263,0.208178,0.765207,0.241492
1480685295982822,0.211268,0.767441,0.241655
1480685296003879,0.214253,0.769657,0.241909
1480685296020422,0.216608,0.771778,0.241629
1480685296051004,0.218655,0.773928,0.241229
1480685296064039,0.221099,0.775734,0.240947
1480685296080583,0.223637,0.777176,0.241047
1480685296103143,0.225643,0.778668,0.240802
1480685296124700,0.227165,0.780049,0.240074
1480685296140242,0.228312,0.781357,0.239441
1480685296168818,0.229932,0.782456,0.239375
1480685296183857,0.23141,0.78314,0.239449
1480685296200402,0.232289,0.78377,0.239393
1480685296222962,0.232585,0.784286,0.23894
1480685296244017,0.232785,0.784723,0.238298
1480685296260561,0.233403,0.785397,0.237607
1480685296283625,0.233924,0.785993,0.236726
1480685296304179,0.234061,0.786622,0.235555
1480685296321725,0.233612,0.787138,0.233986
1480685296358321,0.233481,0.787632,0.232547
1480685296371356,0.23364,0.788095,0.231492
1480685296381889,0.233265,0.788669,0.230091
1480685296402942,0.232519,0.789038,0.228504
1480685296425500,0.232114,0.789602,0.227353
1480685296440540,0.232078,0.789805,0.22657
1480685296463099,0.232078,0.789805,0.22657
1480685296485158,0.232078,0.789805,0.22657
1480685296500199,0.232078,0.789805,0.22657
1480685296522759,0.232456,0.789887,0.226481
1480685296545319,0.23326,0.790097,0.226725
1480685296566375,0.233419,0.790087,0.226792
1480685296582919,0.233582,0.790258,0.226487
1480685296605981,0.23358,0.790633,0.22602
1480685296634055,0.234061,0.790784,0.225848
1480685296650600,0.234568,0.790766,0.225794
1480685296672657,0.234138,0.790559,0.225177
1480685296679675,0.233523,0.790533,0.224375
1480685296702737,0.23284,0.790336,0.223785
1480685296726300,0.232408,0.789947,0.22354
1480685296739836,0.231916,0.789377,0.223232
1480685296762897,0.23078,0.789039,0.222564
1480685296785457,0.229398,0.788518,0.222022
1480685296799995,0.228071,0.787839,0.221347
1480685296823057,0.226836,0.786901,0.22067
1480685296846119,0.225113,0.785845,0.219507
1480685296873691,0.222681,0.785416,0.218009
1480685296884721,0.220381,0.784885,0.21655
1480685296906779,0.218429,0.784165,0.215345
1480685296929339,0.2166,0.783276,0.21417
1480685296943378,0.214421,0.782508,0.212738
1480685296972956,0.212395,0.782371,0.21146
1480685296994011,0.210613,0.782157,0.210146
1480685297003037,0.209812,0.781976,0.209251
1480685297025596,0.209393,0.782025,0.208551
1480685297046652,0.208413,0.782169,0.207759
1480685297062694,0.207358,0.782515,0.206704
1480685297085755,0.207561,0.783249,0.206626
1480685297107313,0.208036,0.783739,0.206634
1480685297122854,0.208163,0.784676,0.206294
1480685297154439,0.208159,0.785633,0.205636
1480685297201062,0.208574,0.786981,0.205212
1480685297206577,0.209534,0.788292,0.205145
1480685297211590,0.210788,0.789575,0.205466
1480685297226631,0.211685,0.79098,0.205525
1480685297243676,0.211906,0.792183,0.205002
1480685297272753,0.212607,0.79336,0.204678
1480685297286289,0.213866,0.794829,0.204633
1480685297302833,0.214956,0.796242,0.204514
1480685297325393,0.215177,0.797712,0.2039
1480685297347953,0.215209,0.799101,0.203189
1480685297363494,0.215561,0.800473,0.202614
1480685297385553,0.21613,0.801679,0.201975
1480685297408113,0.215897,0.803184,0.200628
1480685297423653,0.215718,0.804873,0.199338
1480685297458748,0.21547,0.806311,0.197978
1480685297467773,0.215636,0.807737,0.196662
1480685297482312,0.21579,0.808753,0.195146
1480685297505372,0.215335,0.810563,0.193209
1480685297533947,0.214728,0.812925,0.190753
1480685297556507,0.214564,0.815105,0.188464
1480685297579067,0.215446,0.816633,0.18694
1480685297602631,0.215859,0.81875,0.185693
1480685297605137,0.217168,0.819199,0.183665
1480685297625190,0.218361,0.818692,0.18198
1480685297647750,0.218316,0.818378,0.181372
1480685297662790,0.218354,0.818541,0.18141
1480685297692870,0.220325,0.819875,0.181815
1480685297715430,0.221377,0.822377,0.181589
1480685297760048,0.221944,0.82619,0.181073
1480685297766064,0.224172,0.830422,0.180836
1480685297777595,0.227252,0.834976,0.180894
1480685297783111,0.229667,0.839767,0.18058
1480685297805170,0.232318,0.844807,0.180692
1480685297836754,0.236319,0.848907,0.181964
1480685297857808,0.239756,0.852217,0.183405
1480685297865329,0.24119,0.855016,0.183577
1480685297895409,0.242007,0.857361,0.182853
1480685297916465,0.242726,0.85953,0.181108
1480685297932006,0.243964,0.861584,0.178777
1480685297948049,0.246157,0.864246,0.176863
1480685297969104,0.24856,0.866733,0.17516
1480685297985148,0.249939,0.869718,0.173726
1480685298091430,0.251967,0.872565,0.173129
1480685298105969,0.254833,0.8759,0.173287
1480685298111484,0.264525,0.892751,0.176345
1480685298128026,0.267352,0.896053,0.178313
1480685298149083,0.269309,0.899407,0.17958
1480685298165129,0.270784,0.901995,0.180373
1480685298210747,0.271943,0.904176,0.180649
1480685298213254,0.274485,0.906374,0.181221
1480685298225286,0.276645,0.910416,0.179059
1480685298261884,0.272465,0.908746,0.17311
1480685298268902,0.277713,0.915363,0.174444
1480685298285445,0.270277,0.911281,0.16767
1480685298332071,0.274165,0.91515,0.167983
1480685298352123,0.273097,0.915835,0.165644
1480685298371174,0.271198,0.916201,0.163391
1480685298383707,0.269431,0.916126,0.161801
1480685298390224,0.268094,0.916223,0.160474
1480685298412785,0.267976,0.916751,0.15981
1480685298427825,0.268087,0.917678,0.159763
1480685298450385,0.267889,0.919132,0.159763
1480685298464939,0.268503,0.920821,0.159673
1480685298503025,0.27038,0.922092,0.159764
1480685298510544,0.273054,0.92331,0.160622
1480685298524581,0.274576,0.924903,0.160992
1480685298548147,0.27598,0.926427,0.161144
1480685298586747,0.279095,0.927734,0.162292
1480685298591259,0.281003,0.92933,0.162863
1480685298636391,0.281998,0.930481,0.161503
1480685298691024,0.281216,0.931917,0.157934
1480685298693531,0.279578,0.932773,0.15421
1480685298704564,0.274035,0.934315,0.14698
1480685298727621,0.271373,0.935772,0.143799
1480685298750181,0.26762,0.937106,0.139605
1480685298778758,0.263158,0.937959,0.134449
1480685298789285,0.259687,0.938409,0.129983
1480685298810342,0.25606,0.93893,0.126271
1480685298831399,0.250788,0.937525,0.122239
1480685298862982,0.245139,0.934951,0.117735
1480685298870001,0.241417,0.93254,0.11369
1480685298893563,0.238719,0.92967,0.110917
1480685298939185,0.236318,0.927129,0.10864
1480685298945200,0.233296,0.923818,0.106379
1480685298968262,0.229965,0.921784,0.104013
1480685298970768,0.22758,0.922156,0.101898
1480685298990322,0.226018,0.924855,0.100671
1480685299013383,0.225938,0.928402,0.100852
1480685299058501,0.228517,0.932202,0.103506
1480685299064520,0.233695,0.936935,0.108323
1480685299079057,0.239809,0.940224,0.114158
1480685299089083,0.24357,0.941531,0.119021
1480685299110640,0.246732,0.941217,0.123907
1480685299147238,0.249267,0.940304,0.128797
1480685299162277,0.24982,0.938121,0.131756
1480685299170801,0.248359,0.935827,0.132438
1480685299224944,0.246897,0.933891,0.132486
1480685299246001,0.246382,0.931982,0.133576
1480685299249512,0.246472,0.929937,0.135349
1480685299271067,0.246648,0.927533,0.137126
1480685299291121,0.247221,0.925252,0.13885
1480685299293125,0.247821,0.923441,0.140512
1480685299313680,0.249036,0.922212,0.142153
1480685299327717,0.250356,0.921689,0.143282
1480685299363813,0.251174,0.921321,0.143645
1480685299380358,0.251039,0.921502,0.143598
1480685299396401,0.251085,0.921682,0.14364
1480685299413445,0.251085,0.921682,0.14364
1480685299449542,0.252189,0.921042,0.1441
1480685299462074,0.252392,0.920125,0.144208
1480685299513712,0.252064,0.919649,0.144222
1480685299525242,0.25194,0.919201,0.144098
1480685299568357,0.252788,0.918669,0.14429
1480685299569862,0.253057,0.918652,0.144557
1480685299581894,0.251765,0.918289,0.14399
1480685299590416,0.2501,0.918215,0.14315
1480685299613478,0.24985,0.917979,0.142714
1480685299641552,0.248546,0.918216,0.141689
1480685299657093,0.246205,0.918672,0.139903
1480685299673136,0.244399,0.919092,0.13865
1480685299687173,0.243344,0.918937,0.137949
1480685299725274,0.241912,0.918694,0.137069
1480685299733798,0.239747,0.918488,0.135531
1480685299753850,0.237577,0.91822,0.133725
1480685299784433,0.236576,0.917898,0.1329
1480685299802480,0.235976,0.917349,0.132658
1480685299821531,0.235976,0.917349,0.132658
1480685299838075,0.235795,0.91735,0.13257
1480685299853116,0.235715,0.917395,0.132125
1480685299873669,0.236614,0.917328,0.1323
1480685299890212,0.23739,0.917531,0.132427
1480685299912774,0.238013,0.917452,0.132602
1480685299935334,0.238289,0.917465,0.132602
1480685299981958,0.239203,0.917144,0.133413
1480685299987472,0.240615,0.916267,0.134549
1480685300001512,0.241272,0.915679,0.135191
1480685300016550,0.241307,0.915171,0.135659
1480685300038608,0.241261,0.914649,0.136252
1480685300072700,0.241397,0.914469,0.1363
1480685300079216,0.241665,0.914452,0.136566
1480685300100775,0.241665,0.914452,0.136566
1480685300115312,0.241709,0.91463,0.136606
1480685300130352,0.241528,0.914632,0.136517
1480685300152914,0.241665,0.914452,0.136566
1480685300173967,0.241845,0.91445,0.136654
1480685300190512,0.241363,0.914693,0.135896
1480685300213072,0.240917,0.915054,0.13491
1480685300241648,0.24152,0.915573,0.134618
1480685300265212,0.242051,0.916198,0.13415
1480685300286267,0.242569,0.917107,0.133583
1480685300310832,0.242622,0.918322,0.13256
1480685300316849,0.24279,0.919958,0.131118
1480685300346428,0.243531,0.921686,0.129981
1480685300355952,0.244814,0.923383,0.129382
1480685300369989,0.245281,0.925131,0.128783
1480685300400572,0.24484,0.926564,0.128099
1480685300415612,0.245251,0.927407,0.128158
1480685300429648,0.246573,0.927837,0.12904
1480685300453210,0.247673,0.928113,0.130331
1480685300475269,0.248136,0.928785,0.131071
1480685300489807,0.248153,0.92982,0.131659
1480685300513872,0.248557,0.931231,0.132371
1480685300535429,0.248862,0.932316,0.132696
1480685300557489,0.248862,0.932316,0.132696
1480685300583058,0.248301,0.932633,0.13286
1480685300603610,0.247185,0.932573,0.132847
1480685300618153,0.247509,0.932386,0.133799
1480685300632688,0.248164,0.931696,0.13526
1480685300655749,0.248456,0.930689,0.136904
1480685300677307,0.248239,0.929238,0.1382
1480685300700370,0.248787,0.927526,0.139727
1480685300715408,0.249754,0.926056,0.140935
1480685300736464,0.250153,0.925195,0.141407
1480685300753510,0.249946,0.924444,0.141469
1480685300776571,0.249253,0.923969,0.141304
1480685300796624,0.249286,0.923112,0.141596
1480685300813168,0.249754,0.922491,0.142415
1480685300851769,0.249435,0.921982,0.142737
1480685300857787,0.248844,0.921837,0.142963
1480685300880851,0.248541,0.92142,0.143287
1480685300911429,0.248912,0.920786,0.144194
1480685300916442,0.24909,0.920439,0.144914
1480685300933488,0.24851,0.920011,0.145237
1480685300955546,0.247965,0.919358,0.145964
1480685300976603,0.24802,0.918596,0.147096
1480685300995152,0.24858,0.917365,0.148547
1480685301015204,0.248736,0.916303,0.149147
1480685301043781,0.248237,0.915516,0.148636
1480685301052804,0.248091,0.915009,0.148206
1480685301075364,0.248299,0.914469,0.14822
1480685301103941,0.248412,0.913915,0.148322
1480685301136528,0.247768,0.91291,0.148128
1480685301158586,0.246995,0.912457,0.147794
1480685301161093,0.247109,0.911904,0.147897
1480685301178640,0.247109,0.911904,0.147897
1480685301196186,0.247289,0.911902,0.147985
1480685301218746,0.247289,0.911902,0.147985
1480685301232784,0.247289,0.911902,0.147985
1480685301261359,0.247159,0.911428,0.148129
1480685301277904,0.247309,0.911024,0.148539
1480685301300464,0.24714,0.910432,0.148909
1480685301315505,0.246409,0.909788,0.148713
1480685301338063,0.245814,0.908963,0.148564
1480685301352100,0.245949,0.908473,0.148971
1480685301382682,0.246129,0.90847,0.149058
1480685301405243,0.246144,0.908558,0.14906
1480685301443343,0.245964,0.90856,0.148973
1480685301448858,0.245949,0.908473,0.148971
1480685301465402,0.246129,0.90847,0.149058
1480685301480443,0.246144,0.908558,0.14906
1480685301495987,0.246098,0.908381,0.149019
1480685301518042,0.245919,0.908383,0.148932
1480685301532080,0.246144,0.908558,0.14906
1480685301555642,0.246129,0.90847,0.149058
1480685301577700,0.246308,0.908468,0.149145
1480685301606276,0.246144,0.908558,0.14906
1480685301622820,0.246129,0.90847,0.149058
1480685301638362,0.246393,0.908452,0.149321
1480685301661924,0.246393,0.908452,0.149321
1480685301682981,0.246393,0.908452,0.149321
1480685301712057,0.246129,0.90847,0.149058
1480685301718574,0.246874,0.908581,0.149977
1480685301743141,0.247859,0.908557,0.151423
1480685301757679,0.248627,0.908728,0.152647
1480685301779237,0.248555,0.909087,0.152681
1480685301795280,0.248888,0.909618,0.152931
1480685301817840,0.249488,0.910131,0.153445
1480685301838895,0.250353,0.910626,0.154224
1480685301855439,0.250549,0.911278,0.154162
1480685301884016,0.250658,0.912289,0.154099
1480685301899055,0.251207,0.912908,0.15448
1480685301915098,0.251991,0.913419,0.155086
1480685301960719,0.252815,0.913737,0.155827
1480685301963226,0.252935,0.914466,0.155861
1480685301990297,0.252919,0.914377,0.155858
1480685302005339,0.252967,0.914555,0.155901
1480685302018874,0.253391,0.91476,0.156693
1480685302035418,0.253642,0.914684,0.157491
1480685302059983,0.253375,0.914703,0.157226
1480685302079034,0.253375,0.914703,0.157226
1480685302096082,0.253642,0.914684,0.157491
1480685302118138,0.253823,0.914681,0.157579
1480685302140197,0.253823,0.914681,0.157579
1480685302169775,0.25369,0.914863,0.157534
1480685302177796,0.25369,0.914863,0.157534
1480685302200356,0.253855,0.91477,0.15762
1480685302215898,0.253855,0.91477,0.15762
1480685302245480,0.253855,0.91477,0.15762
1480685302268538,0.253903,0.914949,0.157663
1480685302274555,0.253903,0.914949,0.157663
1480685302297614,0.25417,0.91493,0.157929
1480685302320175,0.25417,0.91493,0.157929
1480685302342234,0.25417,0.91493,0.157929
1480685302358778,0.254131,0.915125,0.157795
1480685302380336,0.254202,0.91502,0.157969
1480685302394873,0.254383,0.915017,0.158057
1480685302417936,0.25443,0.915195,0.158101
1480685302440496,0.254163,0.915214,0.157836
1480685302456537,0.25425,0.915198,0.158013
1480685302478095,0.25443,0.915195,0.158101
1480685302515696,0.25443,0.915195,0.158101
1480685302518202,0.25443,0.915195,0.158101
1480685302551290,0.25443,0.915195,0.158101
1480685302560314,0.25417,0.91493,0.157929
1480685302574853,0.254206,0.914424,0.158421
1480685302598416,0.253669,0.913838,0.158608
1480685302620474,0.253418,0.913945,0.158346
1480685302641531,0.253403,0.913856,0.158344
1480685302658073,0.253725,0.914044,0.158386
1480685302686649,0.253727,0.914356,0.158027
1480685302701691,0.253068,0.914603,0.157186
1480685302717732,0.252528,0.915236,0.156203
1480685302740793,0.252443,0.915564,0.155666
1480685302768869,0.252711,0.915858,0.155572
1480685302777893,0.252129,0.916373,0.154812
1480685302800452,0.251445,0.916814,0.153872
1480685302823513,0.250987,0.917432,0.153062
1480685302839556,0.251074,0.917416,0.15324
1480685302860612,0.251059,0.917671,0.153412
1480685302882169,0.251059,0.917671,0.153412
1480685302897711,0.250972,0.917687,0.153234
1480685302920270,0.250893,0.917451,0.153687
1480685302943834,0.251067,0.917107,0.154403
1480685302957872,0.250919,0.916887,0.154716
1480685302979929,0.250281,0.916882,0.154539
1480685303001488,0.249659,0.916967,0.154365
1480685303025551,0.249738,0.916923,0.15481
1480685303048612,0.250267,0.916858,0.155609
1480685303070171,0.249897,0.916835,0.155698
1480685303077690,0.249677,0.917033,0.155475
1480685303123311,0.249677,0.917033,0.155475
1480685303125818,0.249843,0.916629,0.155922
1480685303137850,0.249709,0.916499,0.156237
1480685303167428,0.24904,0.916405,0.156021
1480685303182969,0.248223,0.916405,0.155757
1480685303204026,0.248057,0.916186,0.156032
1480685303220570,0.248011,0.915696,0.156351
1480685303242628,0.247799,0.915299,0.156584
1480685303257167,0.247171,0.915013,0.156503
1480685303280230,0.24699,0.915016,0.156415
1480685303303291,0.247171,0.914703,0.156864
1480685303325348,0.247125,0.914524,0.156821
1480685303355429,0.247139,0.914613,0.156824
1480685303392025,0.247139,0.914613,0.156824
1480685303403558,0.247139,0.914613,0.156824
1480685303408569,0.247125,0.914524,0.156821
1480685303422607,0.247125,0.914524,0.156821
1480685303437145,0.247226,0.914288,0.157362
1480685303460206,0.246811,0.914089,0.15741
1480685303482767,0.246897,0.914074,0.157587
1480685303497306,0.247078,0.91407,0.157675
1480685303527888,0.247078,0.91407,0.157675
1480685303542929,0.247078,0.91407,0.157675
1480685303563984,0.246897,0.914074,0.157587
1480685303580530,0.247078,0.91407,0.157675
1480685303611108,0.247046,0.913981,0.157635
1480685303625149,0.247046,0.913981,0.157635
1480685303655225,0.246865,0.913984,0.157547
1480685303662746,0.246865,0.913984,0.157547
1480685303683801,0.247046,0.913981,0.157635
1480685303700345,0.247078,0.91407,0.157675
1480685303722905,0.247046,0.913981,0.157635
1480685303743961,0.246983,0.914368,0.157403
1480685303760505,0.247878,0.914636,0.157749
1480685303784067,0.249065,0.915257,0.158307
1480685303804121,0.249672,0.915737,0.158291
1480685303820164,0.250106,0.916593,0.158098
1480685303842724,0.250902,0.917133,0.158442
1480685303863781,0.251131,0.917309,0.158574
1480685303880825,0.251116,0.917219,0.158571
1480685303933465,0.251384,0.917201,0.158837
1480685303935972,0.251297,0.917216,0.15866
1480685303945999,0.251384,0.917201,0.158837
1480685303963045,0.251612,0.917376,0.158969
1480685303985604,0.251612,0.917376,0.158969
1480685303999641,0.250841,0.91721,0.158572
1480685304030227,0.250171,0.917117,0.158355
1480685304045262,0.249831,0.916929,0.158274
1480685304060302,0.250052,0.916732,0.158497
1480685304082862,0.250099,0.916911,0.15854
1480685304105422,0.250099,0.916911,0.15854
1480685304119459,0.250099,0.916911,0.15854
1480685304143022,0.250099,0.916911,0.15854
1480685304165582,0.250052,0.916732,0.158497
1480685304218222,0.250052,0.917044,0.158136
1480685304233262,0.25036,0.917453,0.157816
1480685304235770,0.251164,0.918022,0.157894
1480685304249806,0.25219,0.918392,0.158196
1480685304263342,0.25321,0.918735,0.158766
1480685304285401,0.253591,0.918762,0.159518
1480685304307961,0.253639,0.918941,0.159563
1480685304329017,0.253821,0.918938,0.159651
1480685304345561,0.254089,0.918919,0.159918
1480685304359598,0.254089,0.918919,0.159918
1480685304382661,0.253189,0.91865,0.159567
1480685304405220,0.25337,0.918647,0.159655
1480685304420259,0.25337,0.918647,0.159655
1480685304465380,0.253551,0.918644,0.159744
1480685304467887,0.25337,0.918647,0.159655
1480685304486435,0.25337,0.918647,0.159655
1480685304502979,0.253322,0.918468,0.159611
1480685304525539,0.253638,0.918629,0.159922
1480685304547101,0.253638,0.918629,0.159922
1480685304569157,0.25337,0.918647,0.159655
1480685304585198,0.253551,0.918644,0.159744
1480685304606254,0.253638,0.918629,0.159922
1480685304622799,0.25382,0.918626,0.160011
1480685304645358,0.25382,0.918626,0.160011
1480685304666414,0.253638,0.918629,0.159922
1480685304682958,0.253638,0.918629,0.159922
1480685304706020,0.25382,0.918626,0.160011
1480685304727577,0.253953,0.918443,0.160056
1480685304742617,0.25382,0.918626,0.160011
1480685304765678,0.25382,0.918626,0.160011
1480685304786233,0.254088,0.918607,0.160278
1480685304802777,0.254269,0.918604,0.160366
1480685304839375,0.254254,0.918514,0.160363
1480685304846393,0.254121,0.918696,0.160319
1480685304864441,0.254121,0.918696,0.160319
1480685304885496,0.254254,0.918514,0.160363
1480685304906554,0.254269,0.918604,0.160366
1480685304922596,0.254269,0.918604,0.160366
1480685304945155,0.254088,0.918607,0.160278
1480685304968718,0.254088,0.918607,0.160278
1480685304990275,0.254269,0.918604,0.160366
1480685305005817,0.254269,0.918604,0.160366
1480685305033891,0.254269,0.918604,0.160366
1480685305042916,0.254269,0.918604,0.160366
1480685305065977,0.254269,0.918604,0.160366
1480685305088035,0.254538,0.918585,0.160633
1480685305102073,0.254538,0.918585,0.160633
1480685305127139,0.254269,0.918604,0.160366
1480685305147696,0.254269,0.918604,0.160366
1480685305162233,0.255144,0.918129,0.1617
1480685305185294,0.255063,0.917894,0.16215
1480685305208857,0.254882,0.917898,0.162062
1480685305230415,0.254882,0.917898,0.162062
1480685305260493,0.254834,0.917719,0.162017
1480685305299096,0.255015,0.917716,0.162106
1480685305320653,0.255015,0.917716,0.162106
1480685305323161,0.254834,0.917719,0.162017
1480685305350737,0.254834,0.917719,0.162017
1480685305353241,0.255015,0.917716,0.162106
1480685305372793,0.255283,0.917697,0.162372
1480685305395352,0.255102,0.9177,0.162284
1480685305402372,0.255063,0.917894,0.16215
1480685305425432,0.255063,0.917894,0.16215
1480685305447994,0.255316,0.917786,0.162414
1480685305469050,0.255331,0.917876,0.162417
1480685305485091,0.255331,0.917876,0.162417
1480685305507657,0.25515,0.917879,0.162328
1480685305538734,0.255316,0.917786,0.162414
1480685305546756,0.255283,0.917697,0.162372
1480685305573827,0.255283,0.917697,0.162372
1480685305597891,0.255331,0.917876,0.162417
1480685305612931,0.255331,0.917876,0.162417
1480685305627971,0.255283,0.917697,0.162372
1480685305649030,0.255464,0.917693,0.162461
1480685305665570,0.255464,0.917693,0.162461
1480685305688632,0.255331,0.917876,0.162417
1480685305708686,0.255497,0.917783,0.162502
1480685305725731,0.255732,0.917675,0.162727
1480685305747794,0.255717,0.917585,0.162724
1480685305769348,0.255497,0.917783,0.162502
1480685305794915,0.255497,0.917783,0.162502
1480685305813967,0.255497,0.917783,0.162502
1480685305829006,0.255732,0.917675,0.162727
1480685305845550,0.255732,0.917675,0.162727
1480685305875630,0.255551,0.917678,0.162639
1480685305896184,0.255551,0.917678,0.162639
1480685305905208,0.255732,0.917675,0.162727
1480685305927767,0.255676,0.917467,0.162949
1480685305950830,0.255495,0.917471,0.162861
1480685305965370,0.255495,0.917471,0.162861
1480685305987928,0.255495,0.917471,0.162861
1480685306010488,0.255495,0.917471,0.162861
1480685306025528,0.255225,0.917178,0.162953
1480685306070147,0.25454,0.91703,0.163268
1480685306100731,0.254178,0.917071,0.163628
1480685306103235,0.254564,0.916814,0.164471
1480685306121283,0.254523,0.916698,0.164696
1480685306130311,0.253886,0.916696,0.16452
1480685306152868,0.252888,0.916702,0.164167
1480685306167907,0.252486,0.916592,0.164216
1480685306196482,0.252667,0.916588,0.164304
1480685306211523,0.252667,0.916588,0.164304
1480685306228068,0.252486,0.916592,0.164216
1480685306256141,0.251817,0.916502,0.163999
1480685306264664,0.251817,0.916502,0.163999
1480685306287725,0.251997,0.916498,0.164087
1480685306310285,0.251367,0.916214,0.164004
1480685306325325,0.250565,0.916305,0.163743
1480685306347384,0.250565,0.916305,0.163743
1480685306378469,0.250603,0.916112,0.163877
1480685306391501,0.250784,0.916108,0.163965
1480685306408547,0.250603,0.916112,0.163877
1480685306431109,0.250565,0.916305,0.163743
1480685306451159,0.250565,0.916305,0.163743
1480685306467704,0.250784,0.916108,0.163965
1480685306497786,0.250784,0.916108,0.163965
1480685306511324,0.250603,0.916112,0.163877
1480685306527865,0.250517,0.916127,0.163699
1480685306540899,0.250603,0.916112,0.163877
1480685306563459,0.250784,0.916108,0.163965
1480685306578499,0.250736,0.915929,0.163921
1480685306596046,0.250603,0.916112,0.163877
1480685306617101,0.250556,0.915933,0.163832
1480685306638157,0.250736,0.915929,0.163921
1480685306662222,0.250736,0.915929,0.163921
1480685306678769,0.250556,0.915933,0.163832
1480685306709848,0.250556,0.915933,0.163832
1480685306729399,0.250556,0.915933,0.163832
1480685306735919,0.250751,0.916019,0.163924
1480685306758478,0.250751,0.916019,0.163924
1480685306773015,0.250751,0.916019,0.163924
1480685306795576,0.250751,0.916019,0.163924
1480685306818136,0.250751,0.916019,0.163924
1480685306833192,0.250736,0.915929,0.163921
1480685306858744,0.250736,0.915929,0.163921
1480685306888323,0.250541,0.915879,0.164366
1480685306893335,0.250541,0.915879,0.164366
1480685306915895,0.250722,0.915876,0.164454
1480685306937955,0.250808,0.915861,0.164631
1480685306956003,0.25077,0.916054,0.164498
1480685306986083,0.25077,0.916054,0.164498
1480685307010147,0.25077,0.916054,0.164498
1480685307014662,0.251037,0.916036,0.164764
1480685307035715,0.251037,0.916036,0.164764
1480685307058275,0.25077,0.916054,0.164498
1480685307073315,0.25077,0.916054,0.164498
1480685307095874,0.251037,0.916036,0.164764
1480685307120941,0.251037,0.916036,0.164764
1480685307132973,0.251037,0.916036,0.164764
1480685307155533,0.251037,0.916036,0.164764
1480685307186114,0.251037,0.916036,0.164764
1480685307196141,0.251218,0.916032,0.164852
1480685307219202,0.251218,0.916032,0.164852
1480685307238253,0.251037,0.916036,0.164764
1480685307273346,0.251037,0.916036,0.164764
1480685307283373,0.251037,0.916036,0.164764
1480685307306434,0.251218,0.916032,0.164852
1480685307315960,0.251218,0.916032,0.164852
1480685307339522,0.251218,0.916032,0.164852
1480685307359575,0.251218,0.916032,0.164852
1480685307374616,0.251485,0.916013,0.165118
1480685307396173,0.251485,0.916013,0.165118
1480685307421241,0.251218,0.916032,0.164852
1480685307434776,0.251251,0.916121,0.164893
1480685307457336,0.251518,0.916102,0.165159
1480685307508473,0.251699,0.916099,0.165247
1480685307542563,0.251699,0.916099,0.165247
1480685307571640,0.251518,0.916102,0.165159
1480685307584173,0.251665,0.91601,0.165206
1480685307592195,0.251665,0.91601,0.165206
1480685307598213,0.251752,0.915994,0.165384
1480685307616259,0.251665,0.91601,0.165206
1480685307636814,0.251651,0.91592,0.165202
1480685307658369,0.251918,0.915901,0.165468
1480685307676921,0.252546,0.915911,0.166447
1480685307702989,0.252303,0.915682,0.166847
1480685307736579,0.252303,0.915682,0.166847
1480685307740589,0.252303,0.915682,0.166847
1480685307763149,0.25257,0.915663,0.167113
1480685307786711,0.25257,0.915663,0.167113
1480685307796237,0.252532,0.915857,0.16698
1480685307819298,0.252532,0.915857,0.16698
1480685307845869,0.252751,0.91566,0.167201
1480685307855897,0.252751,0.91566,0.167201
1480685307875949,0.252751,0.91566,0.167201
1480685307898011,0.252799,0.915838,0.167246
1480685307920567,0.252784,0.915749,0.167242
1480685307935608,0.252965,0.915745,0.16733
1480685307959677,0.253051,0.91573,0.167508
1480685307989251,0.252965,0.915745,0.16733
1480685307995767,0.252965,0.915745,0.16733
1480685308018327,0.253232,0.915726,0.167596
1480685308049410,0.253232,0.915726,0.167596
1480685308063448,0.253232,0.915726,0.167596
1480685308096536,0.253232,0.915726,0.167596
1480685308123607,0.253232,0.915726,0.167596
1480685308142157,0.253412,0.915722,0.167684
1480685308147174,0.253499,0.915707,0.167861
1480685308162210,0.253499,0.915707,0.167861
1480685308175747,0.253412,0.915722,0.167684
1480685308202317,0.25368,0.915703,0.16795
1480685308220866,0.25368,0.915703,0.16795
1480685308235906,0.25368,0.915703,0.16795
1480685308260973,0.25368,0.915703,0.16795
1480685308281026,0.25368,0.915703,0.16795
1480685308295565,0.25368,0.915703,0.16795
1480685308375277,0.25386,0.915699,0.168038
1480685308403352,0.25386,0.915699,0.168038
1480685308405858,0.25386,0.915699,0.168038
1480685308412376,0.253947,0.915684,0.168215
1480685308423405,0.254127,0.91568,0.168303
1480685308438444,0.253947,0.915684,0.168215
1480685308460503,0.253909,0.915878,0.168083
1480685308477048,0.254176,0.915859,0.168348
1480685308498104,0.254598,0.91541,0.169322
1480685308523671,0.254643,0.915279,0.169724
1480685308538711,0.254643,0.915279,0.169724
1480685308582828,0.254643,0.915279,0.169724
1480685308585335,0.254729,0.915263,0.169902
1480685308604888,0.254895,0.91517,0.169986
1480685308620930,0.25491,0.915259,0.16999
1480685308659032,0.254729,0.915263,0.169902
1480685308671565,0.254729,0.915263,0.169902
1480685308694627,0.25491,0.915259,0.16999
1480685308700641,0.25491,0.915259,0.16999
1480685308724705,0.25491,0.915259,0.16999
1480685308738242,0.254895,0.91517,0.169986
1480685308768325,0.254808,0.915221,0.170345
1480685308778851,0.255019,0.914997,0.170832
1480685308798402,0.25497,0.914819,0.170786
1480685308820962,0.254838,0.915001,0.170744
1480685308840513,0.254838,0.915001,0.170744
1480685308859565,0.254838,0.915001,0.170744
1480685308880621,0.255019,0.914997,0.170832
1480685308930252,0.254838,0.915001,0.170744
1480685308942785,0.254838,0.915001,0.170744
1480685308946295,0.255019,0.914997,0.170832
1480685308958828,0.255105,0.914982,0.171009
1480685308981389,0.255105,0.914982,0.171009
1480685309000940,0.255105,0.914982,0.171009
1480685309018487,0.254582,0.9148,0.170839
1480685309045559,0.254225,0.914526,0.170754
1480685309060599,0.254443,0.914328,0.170973
1480685309078647,0.254176,0.914347,0.170708
1480685309098199,0.254176,0.914347,0.170708
1480685309128281,0.254176,0.914347,0.170708
1480685309138808,0.254443,0.914328,0.170973
1480685309175906,0.254394,0.91415,0.170928
1480685309180922,0.254128,0.914169,0.170663
1480685309226039,0.254128,0.914169,0.170663
1480685309237570,0.254394,0.91415,0.170928
1480685309248100,0.254394,0.91415,0.170928
1480685309258625,0.254176,0.914347,0.170708
1480685309279682,0.254176,0.914347,0.170708
1480685309308258,0.253804,0.91402,0.171156
1480685309324802,0.253984,0.914016,0.171244
1480685309338338,0.254164,0.914012,0.171331
1480685309360898,0.253984,0.914016,0.171244
1480685309379447,0.253984,0.914016,0.171244
1480685309401005,0.253984,0.914016,0.171244
1480685309422061,0.253984,0.914016,0.171244
1480685309446131,0.253984,0.914016,0.171244
1480685309459660,0.253984,0.914016,0.171244
1480685309483724,0.253984,0.914016,0.171244
1480685309503275,0.253984,0.914016,0.171244
1480685309528844,0.253984,0.914016,0.171244
1480685309540876,0.253984,0.914016,0.171244
1480685309563436,0.253804,0.91402,0.171156
1480685309580482,0.253984,0.914016,0.171244
1480685309601537,0.253984,0.914016,0.171244
1480685309631617,0.254164,0.914012,0.171331
1480685309647162,0.253984,0.914016,0.171244
1480685309668214,0.253984,0.914016,0.171244
1480685309683255,0.253984,0.914016,0.171244
1480685309701303,0.254164,0.914012,0.171331
1480685309737900,0.254164,0.914012,0.171331
1480685309750935,0.253984,0.914016,0.171244
1480685309782519,0.253984,0.914016,0.171244
1480685309785026,0.254164,0.914012,0.171331
1480685309803073,0.254164,0.914012,0.171331
1480685309821122,0.254164,0.914012,0.171331
1480685309842177,0.254164,0.914012,0.171331
1480685309863238,0.254164,0.914012,0.171331
1480685309885797,0.254431,0.913993,0.171596
1480685309900833,0.254431,0.913993,0.171596
1480685309923393,0.254164,0.914012,0.171331
1480685309945954,0.254164,0.914012,0.171331
1480685309960492,0.254164,0.914012,0.171331
1480685309990572,0.254431,0.913993,0.171596
1480685310001100,0.254431,0.913993,0.171596
1480685310040204,0.254164,0.914012,0.171331
1480685310044716,0.254164,0.914012,0.171331
1480685310065772,0.25448,0.914171,0.171642
1480685310088332,0.254431,0.913993,0.171596
1480685310113903,0.254431,0.913993,0.171596
1480685310120919,0.254431,0.913993,0.171596
1480685310140973,0.254431,0.913993,0.171596
1480685310163033,0.254611,0.913989,0.171684
1480685310181080,0.254611,0.913989,0.171684
1480685310200630,0.254611,0.913989,0.171684
1480685310230712,0.254431,0.913993,0.171596
1480685310248759,0.254611,0.913989,0.171684
1480685310260790,0.254648,0.913795,0.171816
1480685310299894,0.254877,0.913969,0.171949
1480685310337998,0.254611,0.913989,0.171684
1480685310340502,0.254611,0.913989,0.171684
1480685310352033,0.254877,0.913969,0.171949
1480685310361059,0.254877,0.913969,0.171949
1480685310382113,0.254877,0.913969,0.171949
1480685310403169,0.254877,0.913969,0.171949
1480685310422721,0.254877,0.913969,0.171949
1480685310442774,0.255058,0.913965,0.172037
1480685310463331,0.255058,0.913965,0.172037
1480685310481378,0.255058,0.913965,0.172037
1480685310503436,0.254877,0.913969,0.171949
1480685310525996,0.255058,0.913965,0.172037
1480685310549058,0.255324,0.913946,0.172302
1480685310562092,0.255275,0.913768,0.172256
1480685310623255,0.255275,0.913768,0.172256
1480685310625761,0.255324,0.913946,0.172302
1480685310647323,0.255455,0.913764,0.172344
1480685310661356,0.255504,0.913942,0.172389
1480685310696954,0.255324,0.913946,0.172302
1480685310702966,0.255309,0.913857,0.172297
1480685310721014,0.255489,0.913853,0.172385
1480685310743574,0.255489,0.913853,0.172385
1480685310763127,0.255504,0.913942,0.172389
1480685310790699,0.255504,0.913942,0.172389
1480685310809750,0.25577,0.913922,0.172654
1480685310823286,0.255756,0.913833,0.17265
1480685310847355,0.255756,0.913833,0.17265
1480685310878433,0.255669,0.913885,0.17301
1480685310890966,0.255654,0.913796,0.173005
1480685310900993,0.255849,0.913881,0.173097
1480685310927564,0.255886,0.913687,0.173229
1480685310946114,0.255834,0.913792,0.173093
1480685310969175,0.255834,0.913792,0.173093
1480685310988224,0.255834,0.913792,0.173093
1480685311003264,0.256101,0.913772,0.173358
1480685311033346,0.256101,0.913772,0.173358
1480685311043872,0.256101,0.913772,0.173358
1480685311066934,0.256101,0.913772,0.173358
1480685311093003,0.256281,0.913768,0.173446
1480685311116065,0.256281,0.913768,0.173446
1480685311185750,0.256093,0.913746,0.173624
1480685311188257,0.255913,0.91375,0.173536
1480685311200790,0.256179,0.913731,0.173801
1480685311205805,0.256359,0.913726,0.173889
1480685311223350,0.256179,0.913731,0.173801
1480685311244909,0.256179,0.913731,0.173801
1480685311265963,0.256359,0.913726,0.173889
1480685311298050,0.256359,0.913726,0.173889
1480685311304567,0.256539,0.913722,0.173977
1480685311325623,0.256359,0.913726,0.173889
1480685311343670,0.256359,0.913726,0.173889
1480685311364726,0.256539,0.913722,0.173977
1480685311385782,0.256625,0.913707,0.174154
1480685311425387,0.256625,0.913707,0.174154
1480685311427894,0.255871,0.913635,0.173761
1480685311450955,0.255779,0.913341,0.17394
1480685311478028,0.255737,0.913226,0.174164
1480685311492065,0.255737,0.913226,0.174164
1480685311513121,0.255103,0.913228,0.173991
1480685311523648,0.254701,0.913122,0.17404
1480685311544705,0.254701,0.913122,0.17404
1480685311574284,0.254881,0.913117,0.174128
1480685311583542,0.254832,0.912939,0.174082
1480685311608108,0.254832,0.912939,0.174082
1480685311633174,0.254832,0.912939,0.174082
1480685311643702,0.254918,0.912924,0.174259
1480685311666263,0.254918,0.912924,0.174259
1480685311693334,0.254553,0.912625,0.17444
1480685311716897,0.25387,0.912487,0.174757
1480685311725921,0.25395,0.912164,0.17529
1480685311754497,0.25413,0.91216,0.175378
1480685311764023,0.253642,0.912069,0.175251
1480685311786081,0.253642,0.912069,0.175251
1480685311805633,0.253642,0.912069,0.175251
1480685311823680,0.253628,0.911981,0.175246
1480685311846241,0.253808,0.911976,0.175334
1480685311865793,0.253455,0.912048,0.175429
1480685311883840,0.253455,0.912048,0.175429
1480685311905899,0.253455,0.912048,0.175429
1480685311925953,0.253455,0.912048,0.175429
1480685311948012,0.253635,0.912044,0.175517
1480685311966059,0.252859,0.911859,0.175388
1480685311990124,0.252327,0.911936,0.175396
1480685312004161,0.252458,0.911753,0.175438
1480685312041262,0.252723,0.911734,0.175702
1480685312045771,0.252723,0.911734,0.175702
1480685312063820,0.252544,0.911739,0.175615
1480685312085878,0.252544,0.911739,0.175615
1480685312106432,0.252674,0.911556,0.175657
1480685312123478,0.252674,0.911556,0.175657
1480685312146039,0.252674,0.911556,0.175657
1480685312165589,0.252509,0.91165,0.175574
1480685312183638,0.252689,0.911645,0.175661
1480685312208203,0.252689,0.911645,0.175661
1480685312227254,0.252868,0.91164,0.175748
1480685312243797,0.252689,0.911645,0.175661
1480685312266358,0.252689,0.911645,0.175661
1480685312287414,0.252689,0.911645,0.175661
1480685312311979,0.252689,0.911645,0.175661
1480685312326016,0.252689,0.911645,0.175661
1480685312347076,0.252689,0.911645,0.175661
1480685312363616,0.252689,0.911645,0.175661
1480685312386176,0.25264,0.911467,0.175615
1480685312407233,0.25264,0.911467,0.175615
1480685312423776,0.252689,0.911645,0.175661
1480685312446340,0.252509,0.91165,0.175574
1480685312468395,0.253163,0.911403,0.176409
1480685312495969,0.253163,0.911403,0.176409
1480685312507499,0.253249,0.911388,0.176586
1480685312542091,0.253163,0.911403,0.176409
1480685312548107,0.253163,0.911403,0.176409
1480685312566155,0.253428,0.911384,0.176673
1480685312589216,0.253428,0.911384,0.176673
1480685312609771,0.253428,0.911384,0.176673
1480685312633334,0.253428,0.911384,0.176673
1480685312648375,0.253428,0.911384,0.176673
1480685312667926,0.253428,0.911384,0.176673
1480685312685975,0.253608,0.911379,0.17676
1480685312710539,0.253642,0.911468,0.176802
1480685312731594,0.253463,0.911473,0.176714
1480685312746638,0.253463,0.911473,0.176714
1480685312769696,0.253642,0.911468,0.176802
1480685312788246,0.253642,0.911468,0.176802
1480685312813814,0.253642,0.911468,0.176802
1480685312828854,0.253463,0.911473,0.176714
1480685312847905,0.253642,0.911468,0.176802
1480685312879489,0.253822,0.911464,0.176889
1480685312888513,0.253871,0.911642,0.176935
1480685312917089,0.253691,0.911646,0.176847
1480685312926113,0.253957,0.911627,0.177111
1480685312948673,0.254136,0.911622,0.177199
1480685312969730,0.254122,0.911533,0.177194
1480685312986272,0.254122,0.911533,0.177194
1480685313008832,0.254122,0.911533,0.177194
1480685313028385,0.254122,0.911533,0.177194
1480685313053455,0.254301,0.911529,0.177281
1480685313070498,0.254387,0.911514,0.177458
1480685313095563,0.254122,0.911533,0.177194
1480685313112107,0.254122,0.911533,0.177194
1480685313128650,0.254387,0.911514,0.177458
1480685313150711,0.254567,0.911509,0.177545
1480685313166255,0.254387,0.911514,0.177458
1480685313188814,0.254387,0.911514,0.177458
1480685313208865,0.254567,0.911509,0.177545
1480685313225909,0.254567,0.911509,0.177545
1480685313247969,0.254567,0.911509,0.177545
1480685313269026,0.254616,0.911687,0.177591
1480685313285569,0.25478,0.911632,0.178211
1480685313307627,0.254959,0.911627,0.178298
1480685313336203,0.255139,0.911623,0.178385
1480685313345227,0.255225,0.911608,0.178562
1480685313399875,0.255225,0.911608,0.178562
1480685313405888,0.255225,0.911608,0.178562
1480685313408396,0.255404,0.911603,0.178649
1480685313433963,0.255404,0.911603,0.178649
1480685313449004,0.25539,0.911514,0.178644
1480685313465547,0.25539,0.911514,0.178644
1480685313488107,0.255619,0.911687,0.178778
1480685313511168,0.255655,0.911495,0.178908
1480685313531221,0.255835,0.91149,0.178996
1480685313555285,0.255704,0.911673,0.178955
1480685313570327,0.255704,0.911673,0.178955
1480685313593386,0.255884,0.911668,0.179042
1480685313615446,0.256064,0.911663,0.179129
1480685313645024,0.256099,0.911752,0.179171
1480685313655050,0.255919,0.911757,0.179084
1480685313667583,0.256064,0.911663,0.179129
1480685313690143,0.256135,0.911559,0.179301
1480685313705184,0.256314,0.911555,0.179388
1480685313727744,0.256184,0.911737,0.179347
1480685313757825,0.256099,0.911752,0.179171
1480685313764341,0.256364,0.911732,0.179435
1480685313787903,0.256364,0.911732,0.179435
1480685313810464,0.256544,0.911728,0.179522
1480685313831520,0.256544,0.911728,0.179522
1480685313847562,0.256544,0.911728,0.179522
1480685313870123,0.256544,0.911728,0.179522
1480685313892682,0.256809,0.911708,0.179786
1480685313931787,0.256859,0.911886,0.179833
1480685313938806,0.256758,0.911812,0.179651
1480685313951338,0.256844,0.911797,0.179828
1480685313967882,0.256844,0.911797,0.179828
1480685313990442,0.257074,0.91197,0.179962
1480685314011499,0.257074,0.91197,0.179962
1480685314033557,0.257074,0.91197,0.179962
1480685314051104,0.257253,0.911965,0.180049
1480685314071157,0.257339,0.91195,0.180226
1480685314087701,0.257374,0.912039,0.180268
1480685314110261,0.257374,0.912039,0.180268
1480685314131317,0.257424,0.912217,0.180314
1480685314147862,0.257604,0.912213,0.180402
1480685314177941,0.257769,0.912119,0.180484
1480685314198997,0.257819,0.912297,0.180531
1480685314207520,0.257819,0.912297,0.180531
1480685314230080,0.257819,0.912297,0.180531
1480685314251135,0.258084,0.912277,0.180795
1480685314267679,0.258134,0.912455,0.180842
1480685314290240,0.25812,0.912366,0.180837
1480685314318816,0.25812,0.912366,0.180837
1480685314327840,0.258299,0.912361,0.180925
1480685314350900,0.258615,0.912519,0.181236
1480685314371458,0.258615,0.912519,0.181236
1480685314387999,0.258529,0.912534,0.181059
1480685314410058,0.258256,0.912247,0.181149
1480685314449162,0.258522,0.912227,0.181413
1480685314461195,0.258464,0.912024,0.181632
1480685314476234,0.257975,0.911934,0.181504
1480685314498794,0.257939,0.912127,0.181374
1480685314509823,0.258011,0.912023,0.181546
1480685314530378,0.25819,0.912018,0.181634
1480685314552938,0.25842,0.912191,0.181768
1480685314574997,0.25842,0.912191,0.181768
1480685314590037,0.25842,0.912191,0.181768
1480685314613099,0.258061,0.912201,0.181593
1480685314628640,0.257967,0.912191,0.181683
1480685314651199,0.257127,0.912136,0.181114
1480685314687798,0.255892,0.912284,0.180241
1480685314690304,0.255173,0.912303,0.179892
1480685314711862,0.255174,0.912021,0.17998
1480685314741439,0.254939,0.911542,0.180202
1480685314756980,0.254102,0.911205,0.179723
1480685314777536,0.253481,0.910671,0.179463
1480685314800096,0.253713,0.910281,0.179775
1480685314814134,0.254186,0.909759,0.18061
1480685314831178,0.254366,0.909754,0.180697
1480685314852737,0.254415,0.909931,0.180743
1480685314867274,0.254236,0.909936,0.180656
1480685314890335,0.254415,0.909931,0.180743
1480685314920415,0.254594,0.909926,0.18083
1480685314933951,0.25458,0.909838,0.180825
1480685314952501,0.253964,0.90965,0.180748
1480685314986091,0.25377,0.909325,0.181281
1480685315012661,0.253669,0.90901,0.181725
1480685315033216,0.253848,0.909005,0.181812
1480685315038229,0.252953,0.90903,0.181378
1480685315053770,0.252953,0.90903,0.181378
1480685315070314,0.252953,0.90903,0.181378
1480685315101397,0.253132,0.909025,0.181465
1480685315122954,0.253132,0.909025,0.181465
1480685315130474,0.252953,0.90903,0.181378
1480685315152533,0.253132,0.909025,0.181465
1480685315173588,0.253132,0.909025,0.181465
1480685315190133,0.253583,0.909306,0.18146
1480685315212698,0.253701,0.909943,0.1815
1480685315233749,0.25375,0.91012,0.181546
1480685315280874,0.25375,0.91012,0.181546
1480685315283380,0.253929,0.910115,0.181633
1480685315310955,0.254108,0.91011,0.18172
1480685315313461,0.253929,0.910115,0.181633
1480685315333012,0.253978,0.910293,0.18168
1480685315353566,0.253964,0.910204,0.181675
1480685315370112,0.254143,0.910199,0.181762
1480685315393172,0.254143,0.910199,0.181762
1480685315415231,0.254143,0.910199,0.181762
1480685315430271,0.254143,0.910199,0.181762
1480685315452830,0.254143,0.910199,0.181762
1480685315475391,0.254503,0.909908,0.182024
1480685315490431,0.254119,0.909572,0.181632
1480685315529038,0.253412,0.909335,0.181107
1480685315535552,0.253208,0.908994,0.180803
1480685315559114,0.253304,0.908441,0.180891
1480685315587689,0.253029,0.907811,0.180801
1480685315610250,0.252374,0.907471,0.180414
1480685315621281,0.25172,0.907131,0.180027
1480685315632810,0.251984,0.907111,0.18029
1480685315669909,0.252114,0.906929,0.18033
1480685315672418,0.251935,0.906934,0.180244
1480685315692970,0.251984,0.907111,0.18029
1480685315724052,0.251984,0.907111,0.18029
1480685315729567,0.252163,0.907106,0.180376
1480685315752628,0.252114,0.906929,0.18033
1480685315775188,0.25247,0.9072,0.180414
1480685315797749,0.25247,0.9072,0.180414
1480685315812790,0.25247,0.9072,0.180414
1480685315835851,0.252648,0.907195,0.1805
1480685315865428,0.252684,0.907003,0.18063
1480685315887988,0.252733,0.90718,0.180676
1480685315909545,0.252648,0.907195,0.1805
1480685315917067,0.252912,0.907175,0.180762
1480685315940127,0.252912,0.907175,0.180762
1480685315955167,0.253091,0.90717,0.180849
1480685315976223,0.252912,0.907175,0.180762
1480685315992768,0.252961,0.907352,0.180808
1480685316016334,0.253125,0.907259,0.18089
1480685316036886,0.253125,0.907259,0.18089
1480685316091530,0.253125,0.907259,0.18089
1480685316098050,0.253174,0.907436,0.180936
1480685316100553,0.253353,0.907431,0.181022
1480685316120105,0.253438,0.907416,0.181198
1480685316143167,0.253438,0.907416,0.181198
1480685316157705,0.253438,0.907416,0.181198
1480685316180265,0.253473,0.907506,0.181239
1480685316195807,0.253651,0.907501,0.181326
1480685316217865,0.25383,0.907495,0.181412
1480685316232905,0.253651,0.907501,0.181326
1480685316255966,0.253651,0.907501,0.181326
1480685316276521,0.2537,0.907678,0.181372
1480685316292564,0.253879,0.907673,0.181458
1480685316315124,0.25395,0.90757,0.181629
1480685316337786,0.25395,0.90757,0.181629
1480685316352825,0.253999,0.907747,0.181675
1480685316388920,0.254178,0.907742,0.181762
1480685316397946,0.254357,0.907737,0.181848
1480685316435545,0.254308,0.90756,0.181802
1480685316442563,0.254357,0.907737,0.181848
1480685316459107,0.254357,0.907737,0.181848
1480685316472643,0.254442,0.907722,0.182024
1480685316496206,0.255439,0.907722,0.183205
1480685316517763,0.255685,0.907935,0.18391
1480685316532304,0.2556,0.90795,0.183734
1480685316555363,0.255685,0.907935,0.18391
1480685316577923,0.255899,0.908019,0.184038
1480685316593966,0.256078,0.908014,0.184125
1480685316616526,0.255899,0.908019,0.184038
1480685316646608,0.255899,0.908019,0.184038
1480685316655629,0.255949,0.908196,0.184085
1480685316727821,0.256127,0.908191,0.184172
1480685316736846,0.256127,0.908191,0.184172
1480685316749385,0.255949,0.908196,0.184085
1480685316751388,0.256127,0.908191,0.184172
1480685316757902,0.256248,0.908265,0.184389
1480685316771938,0.256427,0.90826,0.184476
1480685316795502,0.256477,0.908437,0.184523
1480685316818062,0.256477,0.908437,0.184523
1480685316838617,0.256462,0.908349,0.184518
1480685316855160,0.256691,0.908521,0.184651
1480685316893763,0.25687,0.908516,0.184738
1480685316898777,0.256691,0.908521,0.184651
1480685316915825,0.256741,0.908698,0.184698
1480685317014083,0.25692,0.908693,0.184785
1480685317021603,0.257169,0.908585,0.185042
1480685317026116,0.25704,0.908767,0.185003
1480685317041154,0.257219,0.908762,0.185089
1480685317057698,0.257398,0.908757,0.185176
1480685317078755,0.257434,0.908846,0.185218
1480685317095298,0.257255,0.908851,0.185131
1480685317117859,0.257434,0.908846,0.185218
1480685317145933,0.257519,0.908831,0.185394
1480685317164985,0.257698,0.908826,0.185481
1480685317178521,0.257519,0.908831,0.185394
1480685317199076,0.257698,0.908826,0.185481
1480685317221133,0.257748,0.909003,0.185528
1480685317267256,0.257927,0.908998,0.185614
1480685317275779,0.257913,0.90891,0.185609
1480685317278286,0.257646,0.908969,0.185883
1480685317297839,0.257646,0.908969,0.185883
1480685317320397,0.25791,0.908949,0.186146
1480685317341454,0.25791,0.908949,0.186146
1480685317364014,0.257896,0.908861,0.18614
1480685317380056,0.257946,0.909038,0.186188
1480685317395096,0.257946,0.909038,0.186188
1480685317417657,0.258125,0.909033,0.186274
1480685317457261,0.258125,0.909033,0.186274
1480685317468791,0.257946,0.909038,0.186188
1480685317485336,0.257996,0.909216,0.186235
1480685317500378,0.258161,0.909122,0.186316
1480685317514414,0.258476,0.909279,0.186627
1480685317538477,0.258211,0.909299,0.186364
1480685317560537,0.258211,0.909299,0.186364
1480685317581098,0.258261,0.909477,0.186411
1480685317606157,0.258526,0.909457,0.186674
1480685317620696,0.258511,0.909368,0.186669
1480685317650274,0.258511,0.909368,0.186669
1480685317657795,0.258476,0.90956,0.18654
1480685317680355,0.258562,0.909546,0.186716
1480685317694894,0.258741,0.90954,0.186803
1480685317717955,0.258741,0.90954,0.186803
1480685317747033,0.258777,0.909629,0.186845
1480685317768591,0.258777,0.909629,0.186845
1480685317777613,0.25874,0.909259,0.18689
1480685317807693,0.258475,0.908998,0.186713
1480685317821228,0.257338,0.908876,0.185844
1480685317838275,0.256308,0.90874,0.185187
1480685317860333,0.256094,0.908375,0.185146
1480685317881390,0.256129,0.907902,0.185363
1480685317897935,0.255857,0.907618,0.185454
1480685317934530,0.255857,0.907618,0.185454
1480685317941549,0.255678,0.907623,0.185367
1480685317957593,0.255857,0.907618,0.185454
1480685317980152,0.255857,0.907618,0.185454
1480685318001208,0.255906,0.907795,0.1855
1480685318017752,0.255906,0.907795,0.1855
1480685318047832,0.255719,0.907495,0.185767
1480685318062873,0.255719,0.907495,0.185767
1480685318108994,0.255719,0.907495,0.185767
1480685318115013,0.255719,0.907495,0.185767
1480685318122530,0.255769,0.907672,0.185814
1480685318138573,0.255769,0.907672,0.185814
1480685318160131,0.255933,0.907579,0.185895
1480685318182692,0.255933,0.907579,0.185895
1480685318197731,0.255754,0.907584,0.185809
1480685318220291,0.255804,0.907761,0.185855
1480685318242852,0.255983,0.907756,0.185942
1480685318257891,0.256068,0.907741,0.186118
1480685318280457,0.256068,0.907741,0.186118
1480685318302509,0.255854,0.907938,0.185902
1480685318317550,0.256018,0.907845,0.185983
1480685318340611,0.256104,0.90783,0.186159
1480685318370190,0.256104,0.90783,0.186159
1480685318394253,0.256018,0.907845,0.185983
1480685318400271,0.256018,0.907845,0.185983
1480685318423330,0.256018,0.907845,0.185983
1480685318436866,0.256153,0.908007,0.186206
1480685318460429,0.256153,0.908007,0.186206
1480685318482990,0.256068,0.908022,0.18603
1480685318512568,0.256068,0.908022,0.18603
1480685318559192,0.256332,0.908002,0.186293
1480685318565710,0.256332,0.908002,0.186293
1480685318588269,0.256104,0.908111,0.186072
1480685318602808,0.256283,0.908106,0.186159
1480685318623879,0.256368,0.908091,0.186335
1480685318640908,0.256368,0.908091,0.186335
1480685318677507,0.256368,0.908091,0.186335
1480685318680012,0.256418,0.908268,0.186382
1480685318700568,0.256368,0.908091,0.186335
1480685318722626,0.256546,0.908086,0.186421
1480685318743681,0.256546,0.908086,0.186421
1480685318767746,0.256418,0.908268,0.186382
1480685318782787,0.256418,0.908268,0.186382
1480685318803844,0.256596,0.908263,0.186468
1480685318828909,0.256775,0.908257,0.186555
1480685318842946,0.256596,0.908263,0.186468
1480685318864004,0.256596,0.908263,0.186468
1480685318880046,0.256582,0.908175,0.186463
1480685318902606,0.256896,0.908332,0.186773
1480685318924663,0.256896,0.908332,0.186773
1480685318940706,0.256811,0.908347,0.186597
1480685318962765,0.256811,0.908347,0.186597
1480685318983821,0.256946,0.908509,0.18682
1480685319000872,0.257125,0.908504,0.186907
1480685319028941,0.257111,0.908416,0.186901
1480685319043981,0.256932,0.908421,0.186815
1480685319066541,0.256982,0.908598,0.186862
1480685319082584,0.257161,0.908593,0.186948
1480685319103639,0.257161,0.908593,0.186948
1480685319120183,0.257161,0.908593,0.186948
1480685319142743,0.257211,0.90877,0.186996
1480685319165804,0.257197,0.908682,0.18699
1480685319180845,0.257375,0.908676,0.187077
1480685319216439,0.257375,0.908676,0.187077
1480685319225463,0.257426,0.908854,0.187124
1480685319240002,0.257426,0.908854,0.187124
1480685319268578,0.257426,0.908854,0.187124
1480685319285623,0.25769,0.908833,0.187387
1480685319300162,0.25774,0.909011,0.187434
1480685319330244,0.257476,0.909031,0.187172
1480685319350797,0.25764,0.908937,0.187253
1480685319360824,0.257726,0.908922,0.187429
1480685319382883,0.257726,0.908922,0.187429
1480685319404941,0.25764,0.908937,0.187253
1480685319419479,0.257691,0.909115,0.1873
1480685319448559,0.257691,0.909115,0.1873
1480685319474124,0.257955,0.909094,0.187563
1480685319481144,0.257955,0.909094,0.187563
1480685319502701,0.257955,0.909094,0.187563
1480685319526263,0.257826,0.909277,0.187524
1480685319539799,0.257991,0.909183,0.187605
1480685319562861,0.257991,0.909183,0.187605
1480685319591436,0.258068,0.909145,0.188047
1480685319599461,0.258068,0.909145,0.188047
1480685319623523,0.258068,0.909145,0.188047
1480685319645079,0.258332,0.909124,0.18831
1480685319659618,0.258332,0.909124,0.18831
1480685319683686,0.258383,0.909302,0.188358
1480685319705239,0.258297,0.909317,0.188181
1480685319727297,0.258383,0.909302,0.188358
1480685319750359,0.258562,0.909296,0.188444
1480685319771415,0.258547,0.909208,0.188439
1480685319786456,0.258368,0.909213,0.188352
1480685319802999,0.258419,0.909391,0.1884
1480685319825057,0.258598,0.909385,0.188487
1480685319846617,0.258648,0.909563,0.188534
1480685319862657,0.258648,0.909563,0.188534
1480685319891233,0.258648,0.909563,0.188534
1480685319906775,0.258634,0.909474,0.188529
1480685319922817,0.258813,0.909469,0.188616
1480685319945378,0.258813,0.909469,0.188616
1480685319966434,0.258863,0.909646,0.188663
1480685319984983,0.258863,0.909646,0.188663
1480685320005037,0.258863,0.909646,0.188663
1480685320050657,0.259128,0.909626,0.188926
1480685320053164,0.259128,0.909626,0.188926
1480685320065196,0.258863,0.909646,0.188663
1480685320095277,0.258863,0.909646,0.188663
1480685320102796,0.259128,0.909626,0.188926
1480685320131373,0.259358,0.909798,0.189061
1480685320147917,0.259164,0.909715,0.188969
1480685320162956,0.259164,0.909715,0.188969
1480685320187027,0.259164,0.909715,0.188969
1480685320207575,0.259343,0.909709,0.189056
1480685320222615,0.259343,0.909709,0.189056
1480685320245179,0.259343,0.909709,0.189056
1480685320267734,0.259164,0.909715,0.188969
1480685320282273,0.259343,0.909709,0.189056
1480685320312854,0.259343,0.909709,0.189056
1480685320335917,0.259343,0.909709,0.189056
1480685320341932,0.259343,0.909709,0.189056
1480685320372514,0.259215,0.909892,0.189016
1480685320387553,0.259343,0.909709,0.189056
1480685320402092,0.259555,0.909552,0.189808
1480685320425153,0.258915,0.909254,0.189989
1480685320448716,0.258829,0.909269,0.189812
1480685320477794,0.258829,0.909269,0.189812
1480685320486316,0.258606,0.909162,0.189949
1480685320507875,0.258606,0.909162,0.189949
1480685320521911,0.258606,0.909162,0.189949
1480685320545974,0.258427,0.909167,0.189862
1480685320567532,0.258606,0.909162,0.189949
1480685320582070,0.258592,0.909073,0.189944
1480685320612653,0.258592,0.909073,0.189944
1480685320636216,0.258413,0.909079,0.189857
1480685320648748,0.258463,0.909256,0.189905
1480685320664790,0.258632,0.908946,0.190343
1480685320688353,0.258632,0.908946,0.190343
1480685320708909,0.258453,0.908952,0.190256
1480685320724950,0.258453,0.908952,0.190256
1480685320747510,0.258504,0.909129,0.190304
1480685320768567,0.258683,0.909123,0.190391
1480685320785111,0.258683,0.909123,0.190391
1480685320815191,0.258504,0.909129,0.190304
1480685320836247,0.258419,0.909144,0.190128
1480685320845273,0.258683,0.909123,0.190391
1480685320868331,0.258683,0.909123,0.190391
1480685320888886,0.258669,0.909035,0.190385
1480685320905430,0.25849,0.909041,0.190299
1480685320927997,0.258504,0.909129,0.190304
1480685320948545,0.258669,0.909035,0.190385
1480685320965088,0.258719,0.909212,0.190433
1480685320987649,0.258455,0.909232,0.19017
1480685321008705,0.258455,0.909232,0.19017
1480685321033772,0.258455,0.909232,0.19017
1480685321047809,0.25854,0.909218,0.190347
1480685321068866,0.258455,0.909232,0.19017
1480685321085409,0.258455,0.909232,0.19017
1480685321107971,0.258455,0.909232,0.19017
1480685321137548,0.25849,0.909041,0.190299
1480685321145067,0.259,0.90924,0.190165
1480685321169131,0.258821,0.909245,0.190078
1480685321190689,0.258821,0.909245,0.190078
1480685321204727,0.258821,0.909245,0.190078
1480685321227788,0.259795,0.909138,0.190417
1480685321250347,0.259809,0.909226,0.190422
1480685321264384,0.25963,0.909232,0.190335
1480685321288953,0.25963,0.909232,0.190335
1480685321310511,0.260248,0.909417,0.190415
1480685321325046,0.260513,0.909397,0.190678
1480685321347606,0.260513,0.909397,0.190678
1480685321370167,0.260299,0.909595,0.190463
1480685321384704,0.260299,0.909595,0.190463
1480685321407766,0.260564,0.909574,0.190726
1480685321430326,0.260779,0.909658,0.190855
1480685321444869,0.2606,0.909663,0.190769
1480685321467928,0.2606,0.909663,0.190769
1480685321491489,0.2606,0.909663,0.190769
1480685321511547,0.260779,0.909658,0.190855
1480685321533601,0.26083,0.909835,0.190904
1480685321550145,0.26083,0.909835,0.190904
1480685321564683,0.260651,0.909841,0.190817
1480685321587744,0.260867,0.909924,0.190946
1480685321610305,0.261046,0.909918,0.191033
1480685321631862,0.261046,0.909918,0.191033
1480685321648406,0.260867,0.909924,0.190946
1480685321670966,0.260867,0.909924,0.190946
1480685321708065,0.261046,0.909918,0.191033
1480685321710571,0.26108,0.909726,0.191161
1480685321730123,0.261046,0.909918,0.191033
1480685321751180,0.260867,0.909924,0.190946
1480685321767724,0.261046,0.909918,0.191033
1480685321790283,0.261131,0.909904,0.191209
1480685321818859,0.261182,0.910081,0.191258
1480685321842422,0.261097,0.910096,0.191081
1480685321858966,0.261097,0.910096,0.191081
1480685321871499,0.261097,0.910096,0.191081
1480685321887542,0.261168,0.909992,0.191252
1480685321910102,0.261083,0.910007,0.191076
1480685321931157,0.261134,0.910185,0.191124
1480685321947703,0.261134,0.910185,0.191124
1480685321970764,0.261398,0.910164,0.191387
1480685321991318,0.261449,0.910342,0.191436
1480685322007862,0.26117,0.910274,0.191167
1480685322045462,0.261221,0.910451,0.191215
1480685322052480,0.261486,0.910431,0.191478
1480685322068023,0.261486,0.910431,0.191478
1480685322090081,0.261486,0.910431,0.191478
1480685322112640,0.261486,0.910431,0.191478
1480685322129186,0.261537,0.910608,0.191527
1480685322150240,0.261717,0.910603,0.191614
1480685322180320,0.261702,0.910514,0.191608
1480685322186839,0.261702,0.910514,0.191608
1480685322210406,0.261574,0.910697,0.19157
1480685322232961,0.261574,0.910697,0.19157
1480685322255019,0.261753,0.910692,0.191657
1480685322270059,0.261753,0.910692,0.191657
1480685322292619,0.261805,0.910869,0.191705
1480685322307159,0.261525,0.910801,0.191436
1480685322330720,0.26179,0.910781,0.1917
1480685322352779,0.26179,0.910781,0.1917
1480685322373835,0.26179,0.910781,0.1917
1480685322390379,0.261842,0.910958,0.191748
1480685322412940,0.261842,0.910958,0.191748
1480685322433493,0.261842,0.910958,0.191748
1480685322450042,0.262072,0.91113,0.191884
1480685322472598,0.262058,0.911041,0.191878
1480685322493656,0.262058,0.911041,0.191878
1480685322510200,0.262058,0.911041,0.191878
1480685322532758,0.262237,0.911036,0.191965
1480685322553814,0.262237,0.911036,0.191965
1480685322577878,0.262109,0.911219,0.191927
1480685322598933,0.262109,0.911219,0.191927
1480685322621494,0.262109,0.911219,0.191927
1480685322631019,0.262288,0.911213,0.192014
1480685322652576,0.262288,0.911213,0.192014
1480685322673632,0.262109,0.911219,0.191927
1480685322690178,0.262109,0.911219,0.191927
1480685322712737,0.262274,0.911125,0.192008
1480685322733792,0.262411,0.911287,0.192233
1480685322750337,0.262325,0.911302,0.192057
1480685322772896,0.262146,0.911308,0.19197
1480685322793456,0.262146,0.911308,0.19197
1480685322810497,0.262377,0.91148,0.192105
1480685322840076,0.262358,0.91115,0.192722
1480685322853610,0.261417,0.911065,0.19251
1480685322871159,0.261417,0.911065,0.19251
1480685322893218,0.261582,0.910971,0.192591
1480685322913772,0.261668,0.910956,0.192768
1480685322930316,0.261668,0.910956,0.192768
1480685322952875,0.261633,0.911148,0.19264
1480685322973430,0.261633,0.911148,0.19264
1480685322989472,0.261719,0.911134,0.192816
1480685323012534,0.261674,0.911021,0.193039
1480685323035094,0.261588,0.911035,0.192863
1480685323050134,0.261446,0.91113,0.192818
1480685323080214,0.261625,0.911124,0.192906
1480685323095255,0.261487,0.911002,0.193218
1480685323109794,0.261487,0.911002,0.193218
1480685323132853,0.261401,0.911017,0.193041
1480685323155413,0.261222,0.911023,0.192954
1480685323177973,0.261401,0.911017,0.193041
1480685323193518,0.261487,0.911002,0.193218
1480685323215573,0.261401,0.911017,0.193041
1480685323229611,0.261401,0.911017,0.193041
1480685323253674,0.261222,0.911023,0.192954
1480685323275232,0.261401,0.911017,0.193041
1480685323289771,0.261487,0.911002,0.193218
1480685323312832,0.261401,0.911017,0.193041
1480685323335392,0.261222,0.911023,0.192954
1480685323357952,0.261259,0.911112,0.192997
1480685323380011,0.261438,0.911106,0.193084
1480685323401067,0.261438,0.911106,0.193084
1480685323409590,0.261259,0.911112,0.192997
1480685323432651,0.261259,0.911112,0.192997
1480685323455211,0.261259,0.911112,0.192997
1480685323476267,0.261438,0.911106,0.193084
1480685323492813,0.261259,0.911112,0.192997
1480685323515371,0.26108,0.911118,0.19291
1480685323536426,0.26108,0.911118,0.19291
1480685323552469,0.261574,0.910947,0.192857
1480685323576032,0.261625,0.911124,0.192906
1480685323596086,0.261625,0.911124,0.192906
1480685323612629,0.261446,0.91113,0.192818
1480685323635190,0.261446,0.91113,0.192818
1480685323656245,0.261625,0.911124,0.192906
1480685323673290,0.261625,0.911124,0.192906
1480685323695349,0.261446,0.91113,0.192818
1480685323716405,0.26136,0.911145,0.192642
1480685323732949,0.261625,0.911124,0.192906
1480685323756010,0.261625,0.911124,0.192906
1480685323776568,0.261625,0.911124,0.192906
1480685323792609,0.26136,0.911145,0.192642
1480685323815168,0.26136,0.911145,0.192642
1480685323836225,0.262208,0.91122,0.192944
1480685323852768,0.262208,0.91122,0.192944
1480685323890869,0.26208,0.911404,0.192905
1480685323950027,0.261995,0.911419,0.192729
1480685323966570,0.261995,0.911419,0.192729
1480685323980608,0.26226,0.911398,0.192993
1480685323981612,0.26208,0.911404,0.192905
1480685323986123,0.261995,0.911419,0.192729
1480685323995146,0.261815,0.911424,0.192642
1480685324017706,0.26208,0.911404,0.192905
1480685324032747,0.26208,0.911404,0.192905
1480685324055306,0.261995,0.911419,0.192729
1480685324085386,0.261815,0.911424,0.192642
1480685324107946,0.261995,0.911419,0.192729
1480685324123488,0.26208,0.911404,0.192905
1480685324145045,0.26208,0.911404,0.192905
1480685324167604,0.261995,0.911419,0.192729
1480685324229270,0.261995,0.911419,0.192729
1480685324234283,0.261995,0.911419,0.192729
1480685324244309,0.26226,0.911398,0.192993
1480685324257845,0.261995,0.911419,0.192729
1480685324278901,0.261995,0.911419,0.192729
1480685324295445,0.26208,0.911404,0.192905
1480685324318005,0.26226,0.911398,0.192993
1480685324332042,0.262132,0.911581,0.192954
1480685324355104,0.262046,0.911596,0.192778
1480685324377664,0.262032,0.911508,0.192772
1480685324392203,0.262297,0.911487,0.193036
1480685324421280,0.262297,0.911487,0.193036
1480685324445845,0.262117,0.911493,0.192949
1480685324513102,0.262032,0.911508,0.192772
1480685324515608,0.262117,0.911493,0.192949
1480685324523128,0.262297,0.911487,0.193036
1480685324535161,0.262117,0.911493,0.192949
1480685324557720,0.262117,0.911493,0.192949
1480685324578776,0.262297,0.911487,0.193036
1480685324595321,0.262297,0.911487,0.193036
1480685324617885,0.262348,0.911665,0.193084
1480685324639438,0.262083,0.911685,0.192821
1480685324655982,0.262348,0.911665,0.193084
1480685324685561,0.262348,0.911665,0.193084
1480685324700099,0.262528,0.911659,0.193172
1480685324723161,0.262348,0.911665,0.193084
1480685324782318,0.262348,0.911665,0.193084
1480685324805879,0.262348,0.911665,0.193084
1480685324808387,0.262528,0.911659,0.193172
1480685324813401,0.262528,0.911659,0.193172
1480685324818915,0.262385,0.911753,0.193128
1480685324836461,0.262385,0.911753,0.193128
1480685324857517,0.262565,0.911748,0.193215
1480685324879575,0.262565,0.911748,0.193215
1480685324909659,0.262565,0.911748,0.193215
1480685324919182,0.262617,0.911926,0.193264
1480685324940238,0.262617,0.911926,0.193264
1480685324955278,0.262796,0.91192,0.193351
1480685325076602,0.262796,0.91192,0.193351
1480685325083117,0.262617,0.911926,0.193264
1480685325097656,0.262617,0.911926,0.193264
1480685325120216,0.262617,0.911926,0.193264
1480685325134758,0.262957,0.911584,0.194054
1480685325157944,0.263042,0.911569,0.194231
1480685325181005,0.262957,0.911584,0.194054
1480685325194541,0.262957,0.911584,0.194054
1480685325217602,0.263042,0.911569,0.194231
1480685325240163,0.263222,0.911564,0.194318
1480685325254701,0.263042,0.911569,0.194231
1480685325299822,0.262957,0.911584,0.194054
1480685325339928,0.262957,0.911584,0.194054
1480685325345442,0.263042,0.911569,0.194231
1480685325360984,0.263028,0.911481,0.194225
1480685325381037,0.26206,0.911613,0.193619
1480685325397581,0.261477,0.911517,0.19358
1480685325420141,0.261656,0.911512,0.193667
1480685325441198,0.261656,0.911512,0.193667
1480685325457741,0.261656,0.911512,0.193667
1480685325486319,0.261477,0.911517,0.19358
1480685325501357,0.261477,0.911517,0.19358
1480685325518403,0.261656,0.911512,0.193667
1480685325579064,0.261694,0.911601,0.19371
1480685325582573,0.261514,0.911606,0.193623
1480685325625187,0.261514,0.911606,0.193623
1480685325627693,0.261694,0.911601,0.19371
1480685325647245,0.261694,0.911601,0.19371
1480685325651255,0.261694,0.911601,0.19371
1480685325660280,0.261514,0.911606,0.193623
1480685325682339,0.261514,0.911606,0.193623
1480685325697880,0.261381,0.911227,0.193754
1480685325726455,0.261105,0.910943,0.193842
1480685325743501,0.261105,0.910943,0.193842
1480685325763554,0.26084,0.910963,0.193578
1480685325781104,0.261054,0.910765,0.193793
1480685325826221,0.261068,0.910854,0.193799
1480685325857304,0.261068,0.910854,0.193799
1480685325870845,0.260803,0.910874,0.193535
1480685325873346,0.260803,0.910874,0.193535
1480685325883373,0.260803,0.910874,0.193535
1480685325900418,0.260752,0.910697,0.193487
1480685325922476,0.260752,0.910697,0.193487
1480685325937517,0.260573,0.910702,0.1934
1480685325960079,0.260573,0.910702,0.1934
1480685325982637,0.260752,0.910697,0.193487
1480685325997677,0.260752,0.910697,0.193487
1480685326020740,0.260752,0.910697,0.193487
1480685326042799,0.260573,0.910702,0.1934
1480685326064354,0.260752,0.910697,0.193487
1480685326080898,0.260752,0.910697,0.193487
1480685326104462,0.260752,0.910697,0.193487
1480685326170638,0.260318,0.911028,0.192785
1480685326173144,0.260318,0.911028,0.192785
1480685326179661,0.260497,0.911022,0.192872
1480685326184174,0.260497,0.911022,0.192872
1480685326200216,0.260497,0.911022,0.192872
1480685326222776,0.260318,0.911028,0.192785
1480685326237816,0.260497,0.911022,0.192872
1480685326260376,0.260497,0.911022,0.192872
1480685326283939,0.260497,0.911022,0.192872
1480685326296973,0.260549,0.9112,0.192921
1480685326320535,0.260369,0.911205,0.192834
1480685326389218,0.260549,0.9112,0.192921
1480685326409275,0.260728,0.911194,0.193008
1480685326448877,0.260534,0.911111,0.192915
1480685326486477,0.260586,0.911289,0.192964
1480685326492994,0.260586,0.911289,0.192964
1480685326494498,0.260765,0.911283,0.193051
1480685326509041,0.260586,0.911289,0.192964
1480685326531096,0.260586,0.911289,0.192964
1480685326551149,0.260586,0.911289,0.192964
1480685326560173,0.260714,0.911105,0.193002
1480685326582733,0.260549,0.9112,0.192921
1480685326628354,0.260534,0.911111,0.192915
1480685326630861,0.261303,0.911266,0.193312
1480685326673475,0.262348,0.911095,0.194361
1480685326675983,0.262363,0.911183,0.194366
1480685326696536,0.262311,0.911006,0.194317
1480685326704557,0.262311,0.911006,0.194317
1480685326724108,0.262542,0.911177,0.194453
1480685326740151,0.26249,0.911,0.194404
1480685326762712,0.262311,0.911006,0.194317
1480685326785772,0.262363,0.911183,0.194366
1480685326807831,0.262363,0.911183,0.194366
1480685326828887,0.26249,0.911,0.194404
1480685326844930,0.262527,0.911089,0.194448
1480685326888547,0.262527,0.911089,0.194448
1480685326900077,0.2624,0.911272,0.194409
1480685326912610,0.262579,0.911266,0.194497
1480685326919629,0.262579,0.911266,0.194497
1480685326942692,0.262579,0.911266,0.194497
1480685326976785,0.2624,0.911272,0.194409
1480685326980791,0.262579,0.911266,0.194497
1480685327002851,0.262579,0.911266,0.194497
1480685327025411,0.262796,0.911349,0.194627
1480685327038946,0.262616,0.911355,0.19454
1480685327046968,0.262616,0.911355,0.19454
1480685327068023,0.262616,0.911355,0.19454
1480685327091086,0.262796,0.911349,0.194627
1480685327107128,0.262796,0.911349,0.194627
1480685327128183,0.262668,0.911533,0.194589
1480685327150743,0.262668,0.911533,0.194589
1480685327166786,0.262668,0.911533,0.194589
1480685327187844,0.262933,0.911512,0.194852
1480685327226946,0.262933,0.911512,0.194852
1480685327253015,0.262668,0.911533,0.194589
1480685327316687,0.262668,0.911533,0.194589
1480685327333730,0.262933,0.911512,0.194852
1480685327349773,0.262933,0.911512,0.194852
1480685327364813,0.262847,0.911527,0.194676
1480685327369325,0.262933,0.911512,0.194852
1480685327390380,0.262933,0.911512,0.194852
1480685327409434,0.262847,0.911527,0.194676
1480685327451543,0.262847,0.911527,0.194676
1480685327459566,0.263112,0.911506,0.194939
1480685327481623,0.263112,0.911506,0.194939
1480685327497165,0.263112,0.911506,0.194939
1480685327529751,0.262933,0.911512,0.194852
1480685327551308,0.263112,0.911506,0.194939
1480685327559333,0.263112,0.911506,0.194939
1480685327573868,0.263112,0.911506,0.194939
1480685327594423,0.263112,0.911506,0.194939
1480685327616482,0.262971,0.911601,0.194896
1480685327630519,0.26315,0.911595,0.194983
1480685327661601,0.26315,0.911595,0.194983
1480685327671127,0.26315,0.911595,0.194983
1480685327690680,0.263202,0.911773,0.195032
1480685327715244,0.262783,0.911583,0.195075
1480685327728280,0.262835,0.911761,0.195124
1480685327750839,0.262963,0.911577,0.195162
1480685327822529,0.263015,0.911755,0.195211
1480685327836567,0.262835,0.911761,0.195124
1480685327843585,0.263015,0.911755,0.195211
1480685327855619,0.263015,0.911755,0.195211
1480685327872162,0.263015,0.911755,0.195211
1480685327901740,0.262204,0.911769,0.194951
