timestamp,x,y,z
1480688152185404,-0.0424805,-0.979004,0.0556641
1480688152206460,-0.0366211,-0.970703,0.0585938
1480688152223505,-0.0366211,-0.968262,0.0610352
1480688152251581,-0.0371094,-0.977539,0.0571289
1480688152274140,-0.0405273,-0.992676,0.0644531
1480688152283164,-0.0444336,-0.996582,0.0576172
1480688152305222,-0.043457,-0.98584,0.0595703
1480688152327784,-0.0390625,-0.977051,0.0605469
1480688152348894,-0.0351563,-0.971191,0.0620117
1480688152372958,-0.034668,-0.976563,0.0600586
1480688152388499,-0.0400391,-0.989746,0.0532227
1480688152402035,-0.0439453,-0.993164,0.0615234
1480688152433118,-0.0400391,-0.98877,0.0595703
1480688152455680,-0.0395508,-0.977051,0.0615234
1480688152462198,-0.0385742,-0.971191,0.0566406
1480688152486761,-0.0351563,-0.975098,0.0566406
1480688152507817,-0.0336914,-0.978516,0.0605469
1480688152522356,-0.0478516,-0.987305,0.0581055
1480688152551435,-0.0429688,-0.993164,0.0605469
1480688152575997,-0.0424805,-0.97998,0.0595703
1480688152583518,-0.0356445,-0.978516,0.0551758
1480688152605576,-0.0405273,-0.97168,0.0551758
1480688152627635,-0.0415039,-0.977051,0.0537109
1480688152642173,-0.0410156,-0.996582,0.0600586
1480688152665235,-0.043457,-0.994141,0.0571289
1480688152695317,-0.0458984,-0.985352,0.0644531
1480688152702334,-0.0424805,-0.978027,0.0649414
1480688152738931,-0.0405273,-0.969238,0.0551758
1480688152757982,-0.034668,-0.976563,0.0625
1480688152762495,-0.0341797,-0.986816,0.0576172
1480688152785557,-0.0395508,-0.990723,0.0639648
1480688152808116,-0.0419922,-0.995117,0.0561523
1480688152830676,-0.0395508,-0.98291,0.0600586
1480688152845214,-0.0415039,-0.969727,0.0605469
1480688152867776,-0.0439453,-0.967773,0.0610352
1480688152889332,-0.0341797,-0.978516,0.0605469
1480688152906877,-0.0410156,-0.984375,0.0610352
1480688152927934,-0.043457,-0.993164,0.0581055
1480688152948990,-0.0415039,-0.984375,0.0532227
1480688152979070,-0.0375977,-0.976563,0.0576172
1480688152988094,-0.0405273,-0.974609,0.0566406
1480688153010655,-0.0351563,-0.97998,0.0537109
1480688153032713,-0.0419922,-0.983398,0.0605469
1480688153055272,-0.0429688,-0.995605,0.0654297
1480688153068808,-0.0439453,-0.99707,0.0576172
1480688153085352,-0.0375977,-0.98291,0.0615234
1480688153107912,-0.0371094,-0.972656,0.0639648
1480688153136488,-0.0361328,-0.973633,0.0585938
1480688153146014,-0.0307617,-0.978516,0.0585938
1480688153174089,-0.0375977,-0.989258,0.0625
1480688153189129,-0.0405273,-0.995117,0.0639648
1480688153205171,-0.0400391,-0.979492,0.0576172
1480688153227731,-0.0390625,-0.971191,0.0625
1480688153250291,-0.0405273,-0.969238,0.0620117
1480688153272851,-0.0385742,-0.975098,0.0581055
1480688153289400,-0.0390625,-0.993164,0.0634766
1480688153318474,-0.0444336,-1.00195,0.0634766
1480688153340531,-0.0449219,-0.98877,0.0737305
1480688153353566,-0.0419922,-0.975586,0.065918
1480688153370611,-0.0322266,-0.971191,0.065918
1480688153384648,-0.0283203,-0.970215,0.0595703
1480688153408211,-0.0341797,-0.978516,0.0615234
1480688153430270,-0.0371094,-0.989258,0.0600586
1480688153444811,-0.0400391,-0.989258,0.0625
1480688153467871,-0.0405273,-0.987305,0.0688477
1480688153496446,-0.0356445,-0.969238,0.0688477
1480688153504968,-0.0302734,-0.963867,0.0693359
1480688153528029,-0.0322266,-0.973633,0.0683594
1480688153550589,-0.034668,-0.986816,0.0693359
1480688153565129,-0.034668,-0.990723,0.0751953
1480688153595710,-0.0380859,-0.988281,0.0654297
1480688153618270,-0.034668,-0.978027,0.0668945
1480688153638824,-0.03125,-0.972168,0.0649414
1480688153648349,-0.0297852,-0.972656,0.0649414
1480688153670910,-0.0341797,-0.980957,0.0678711
1480688153684947,-0.0419922,-0.991699,0.0634766
1480688153708008,-0.0419922,-0.991699,0.0683594
1480688153730568,-0.0390625,-0.982422,0.0649414
1480688153751624,-0.0327148,-0.972168,0.065918
1480688153767667,-0.0302734,-0.972168,0.0698242
1480688153790227,-0.0317383,-0.978516,0.0566406
1480688153811784,-0.0356445,-0.988281,0.0664063
1480688153827827,-0.0371094,-0.993652,0.0639648
1480688153850386,-0.0361328,-0.987793,0.0717773
1480688153873450,-0.0380859,-0.975586,0.0688477
1480688153894003,-0.0273438,-0.969727,0.0693359
1480688153918067,-0.034668,-0.973633,0.0742188
1480688153940626,-0.0341797,-0.983398,0.0644531
1480688153949149,-0.0405273,-0.991211,0.0629883
1480688153970205,-0.0410156,-0.992188,0.0664063
1480688153991763,-0.0405273,-0.98291,0.0629883
1480688154007805,-0.0361328,-0.972168,0.074707
1480688154030366,-0.0307617,-0.973633,0.0717773
1480688154053928,-0.0283203,-0.981445,0.0620117
1480688154067965,-0.0336914,-0.991211,0.0644531
1480688154090528,-0.03125,-0.990723,0.0654297
1480688154111082,-0.034668,-0.984375,0.0703125
1480688154128130,-0.0332031,-0.970215,0.0649414
1480688154150685,-0.0317383,-0.96582,0.0629883
1480688154172744,-0.03125,-0.979492,0.0605469
1480688154195304,-0.0361328,-0.995605,0.0605469
1480688154210344,-0.0400391,-0.992676,0.0639648
1480688154238919,-0.0356445,-0.994141,0.0654297
1480688154247944,-0.0332031,-0.980469,0.0683594
1480688154270504,-0.0327148,-0.967285,0.0683594
1480688154299080,-0.0297852,-0.968262,0.0610352
1480688154307101,-0.0307617,-0.979004,0.0693359
1480688154330665,-0.0390625,-0.993652,0.0668945
1480688154352723,-0.0395508,-0.996582,0.0610352
1480688154381800,-0.0390625,-0.990234,0.0595703
1480688154403858,-0.0288086,-0.969238,0.0708008
1480688154429426,-0.0268555,-0.96875,0.0629883
1480688154441459,-0.0332031,-0.972656,0.0668945
1480688154464019,-0.0356445,-0.985352,0.0693359
1480688154473044,-0.0405273,-0.991211,0.0664063
1480688154487080,-0.0375977,-0.992188,0.0644531
1480688154510643,-0.0327148,-0.981445,0.0668945
1480688154532701,-0.0302734,-0.971191,0.0576172
1480688154547240,-0.03125,-0.975098,0.0639648
1480688154576820,-0.0351563,-0.980957,0.0644531
1480688154592861,-0.034668,-0.991699,0.0610352
1480688154607401,-0.0361328,-0.98877,0.0625
1480688154630461,-0.0371094,-0.98291,0.065918
1480688154660542,-0.0395508,-0.974121,0.0673828
1480688154675080,-0.034668,-0.976074,0.0654297
1480688154705661,-0.0322266,-0.980469,0.0722656
1480688154718695,-0.0351563,-0.988281,0.0610352
1480688154741757,-0.0390625,-0.990234,0.0576172
1480688154751784,-0.0341797,-0.98877,0.0600586
1480688154772840,-0.0258789,-0.976563,0.0585938
1480688154793896,-0.0239258,-0.965332,0.0556641
1480688154810440,-0.0200195,-0.972168,0.0561523
1480688154832498,-0.0283203,-0.985352,0.0585938
1480688154854557,-0.0292969,-0.991211,0.0541992
1480688154870600,-0.0283203,-0.993652,0.0610352
1480688154892658,-0.0268555,-0.981445,0.0639648
1480688154914217,-0.0307617,-0.968262,0.0625
1480688154936274,-0.0322266,-0.972656,0.0625
1480688154960339,-0.0302734,-0.982422,0.0644531
1480688154982898,-0.0322266,-0.995117,0.0688477
1480688154996434,-0.0375977,-0.994629,0.059082
1480688155012979,-0.0327148,-0.980469,0.0693359
1480688155034036,-0.0307617,-0.974609,0.0698242
1480688155052082,-0.0302734,-0.968262,0.0678711
1480688155072637,-0.0322266,-0.970703,0.0620117
1480688155094195,-0.0302734,-0.983398,0.0639648
1480688155125390,-0.0332031,-0.991699,0.0629883
1480688155132798,-0.0341797,-0.993164,0.0678711
1480688155171902,-0.0258789,-0.978027,0.0654297
1480688155183935,-0.0268555,-0.96875,0.0605469
1480688155192957,-0.0258789,-0.967773,0.0708008
1480688155215517,-0.0283203,-0.986816,0.0688477
1480688155239581,-0.0375977,-0.990234,0.0654297
1480688155254119,-0.0410156,-0.992188,0.0664063
1480688155275176,-0.0341797,-0.98291,0.0722656
1480688155290216,-0.0297852,-0.976074,0.0629883
1480688155313778,-0.0288086,-0.969727,0.0668945
1480688155335336,-0.0302734,-0.975586,0.0615234
1480688155349875,-0.0327148,-0.984863,0.0673828
1480688155372935,-0.0380859,-0.989746,0.065918
1480688155395495,-0.0361328,-0.987305,0.0693359
1480688155411538,-0.03125,-0.978516,0.0688477
1480688155446632,-0.0273438,-0.971191,0.0717773
1480688155455154,-0.0322266,-0.976074,0.0649414
1480688155470194,-0.0288086,-0.987305,0.0673828
1480688155492754,-0.0371094,-0.993652,0.0693359
1480688155515314,-0.0385742,-0.999512,0.0678711
1480688155530354,-0.0341797,-0.98291,0.0717773
1480688155561437,-0.03125,-0.975098,0.0595703
1480688155576477,-0.0288086,-0.96875,0.0698242
1480688155598034,-0.0307617,-0.976563,0.065918
1480688155613075,-0.0307617,-0.98877,0.0556641
1480688155636136,-0.0356445,-0.994141,0.0629883
1480688155656691,-0.0351563,-0.98584,0.0625
1480688155673234,-0.0341797,-0.974609,0.0649414
1480688155702813,-0.0273438,-0.969238,0.0615234
1480688155723869,-0.0307617,-0.972656,0.0585938
1480688155732893,-0.0307617,-0.987793,0.065918
1480688155755955,-0.0361328,-0.993652,0.0625
1480688155776508,-0.0385742,-0.98877,0.0688477
1480688155793054,-0.0336914,-0.985352,0.0678711
1480688155815613,-0.0322266,-0.967773,0.0693359
1480688155836669,-0.0322266,-0.967285,0.0639648
1480688155852712,-0.0351563,-0.980957,0.0639648
1480688155875271,-0.0327148,-0.992676,0.0668945
1480688155896327,-0.0395508,-0.993652,0.0683594
1480688155912870,-0.0336914,-0.984375,0.0610352
1480688155935431,-0.0336914,-0.968262,0.0664063
1480688155956488,-0.0258789,-0.965332,0.0698242
1480688155980551,-0.0253906,-0.979004,0.0585938
1480688156003112,-0.0307617,-0.988281,0.0625
1480688156024168,-0.0405273,-0.994141,0.0629883
1480688156040710,-0.0332031,-0.990723,0.0625
1480688156070291,-0.0366211,-0.977539,0.065918
1480688156085330,-0.0336914,-0.970215,0.0639648
1480688156092851,-0.0307617,-0.973145,0.0644531
1480688156115410,-0.03125,-0.979492,0.0644531
1480688156137975,-0.0356445,-0.991699,0.0576172
1480688156153511,-0.0390625,-0.990723,0.0644531
1480688156175570,-0.0390625,-0.977539,0.0600586
1480688156197628,-0.0336914,-0.974609,0.0625
1480688156212168,-0.0317383,-0.973633,0.065918
1480688156235732,-0.0356445,-0.976563,0.0673828
1480688156258792,-0.0385742,-0.987793,0.0668945
1480688156272327,-0.0415039,-0.993652,0.0688477
1480688156295890,-0.0371094,-0.990723,0.0639648
1480688156317948,-0.0361328,-0.974121,0.0634766
1480688156340509,-0.0317383,-0.964844,0.0634766
1480688156363068,-0.027832,-0.977051,0.0615234
1480688156385127,-0.0336914,-0.981934,0.0698242
1480688156393652,-0.0351563,-0.994629,0.0649414
1480688156415207,-0.0380859,-0.994629,0.0625
1480688156437767,-0.0375977,-0.982422,0.0576172
1480688156453309,-0.0317383,-0.967773,0.0639648
1480688156476371,-0.03125,-0.969727,0.059082
1480688156498430,-0.0317383,-0.980469,0.0673828
1480688156512466,-0.0317383,-0.993652,0.0649414
1480688156536028,-0.0356445,-0.993164,0.0620117
1480688156558087,-0.0429688,-0.987305,0.0600586
1480688156579142,-0.0380859,-0.972656,0.059082
1480688156595189,-0.0351563,-0.969238,0.0605469
1480688156625266,-0.0302734,-0.974609,0.0668945
1480688156641308,-0.0405273,-0.984863,0.0595703
1480688156662866,-0.0405273,-0.998047,0.0639648
1480688156677905,-0.034668,-0.992676,0.0678711
1480688156706484,-0.0332031,-0.984375,0.0693359
1480688156715506,-0.0327148,-0.970215,0.0605469
1480688156738066,-0.0336914,-0.970215,0.0678711
1480688156760628,-0.0332031,-0.977051,0.0576172
1480688156775165,-0.0395508,-0.992188,0.0615234
1480688156797724,-0.0385742,-0.997559,0.0668945
1480688156826301,-0.0454102,-0.989746,0.0566406
1480688156835325,-0.0405273,-0.972168,0.0585938
1480688156857885,-0.0341797,-0.964355,0.0576172
1480688156878940,-0.034668,-0.972656,0.0581055
1480688156895987,-0.0400391,-0.98877,0.0625
1480688156919048,-0.0415039,-0.998535,0.0649414
1480688156941106,-0.0322266,-0.990234,0.0595703
1480688156955645,-0.0239258,-0.978027,0.0664063
1480688156983719,-0.034668,-0.972656,0.0639648
1480688156998759,-0.0371094,-0.975586,0.0698242
1480688157015303,-0.0390625,-0.986328,0.0620117
1480688157037863,-0.0449219,-0.988281,0.0644531
1480688157061429,-0.0380859,-0.992188,0.0683594
1480688157088999,-0.0351563,-0.981445,0.0634766
1480688157098023,-0.0327148,-0.974609,0.065918
1480688157120583,-0.0366211,-0.972656,0.0678711
1480688157137127,-0.0341797,-0.979492,0.0673828
1480688157157682,-0.034668,-0.991699,0.0605469
1480688157181745,-0.0419922,-0.99707,0.0683594
1480688157201298,-0.0444336,-0.987305,0.0595703
1480688157217842,-0.034668,-0.972656,0.065918
1480688157240904,-0.0283203,-0.966309,0.0644531
1480688157268977,-0.0302734,-0.979492,0.0556641
1480688157278005,-0.027832,-0.98584,0.0620117
1480688157300561,-0.0371094,-0.992188,0.0600586
1480688157314598,-0.0419922,-0.98877,0.0712891
1480688157344181,-0.0356445,-0.977051,0.0644531
1480688157360221,-0.0317383,-0.968262,0.0727539
1480688157382781,-0.0297852,-0.972168,0.0639648
1480688157397820,-0.0361328,-0.98291,0.0683594
1480688157426396,-0.034668,-0.993164,0.0610352
1480688157436924,-0.03125,-0.991699,0.0712891
1480688157457980,-0.0307617,-0.983887,0.0625
1480688157481543,-0.0317383,-0.966309,0.0595703
1480688157504102,-0.0292969,-0.964844,0.065918
1480688157525159,-0.0283203,-0.974609,0.0585938
1480688157540700,-0.0371094,-0.984863,0.065918
1480688157561261,-0.0351563,-0.990723,0.0639648
1480688157577801,-0.0385742,-0.986816,0.0649414
1480688157600360,-0.0356445,-0.97998,0.0644531
1480688157621414,-0.034668,-0.973633,0.0683594
1480688157637959,-0.0317383,-0.974609,0.0673828
1480688157661023,-0.0361328,-0.972656,0.074707
1480688157683079,-0.0439453,-0.992188,0.0805664
1480688157698620,-0.0405273,-0.995117,0.0703125
1480688157728200,-0.043457,-0.989258,0.0737305
1480688157748753,-0.0366211,-0.976563,0.0776367
1480688157757777,-0.0380859,-0.972168,0.0761719
1480688157780337,-0.034668,-0.975098,0.0732422
1480688157801393,-0.0390625,-0.98584,0.0693359
1480688157823957,-0.0375977,-0.991211,0.0712891
1480688157840999,-0.0371094,-0.991211,0.065918
1480688157862055,-0.0307617,-0.977539,0.0678711
1480688157878098,-0.0283203,-0.972168,0.0668945
1480688157900155,-0.0341797,-0.973633,0.0668945
1480688157922716,-0.0322266,-0.979492,0.065918
1480688157937757,-0.0390625,-0.995117,0.0771484
1480688157967836,-0.0361328,-0.991211,0.0766602
1480688157988892,-0.0380859,-0.986328,0.0732422
1480688158012956,-0.0356445,-0.972656,0.0708008
1480688158027997,-0.0366211,-0.967773,0.0683594
1480688158049052,-0.034668,-0.979004,0.0654297
1480688158058577,-0.0405273,-0.987305,0.0644531
1480688158080635,-0.0400391,-0.987793,0.0649414
1480688158103195,-0.0405273,-0.980469,0.0644531
1480688158125756,-0.0356445,-0.972168,0.0673828
1480688158142301,-0.0341797,-0.970215,0.0668945
1480688158163857,-0.0288086,-0.972168,0.0664063
1480688158178396,-0.0322266,-0.98584,0.074707
1480688158200455,-0.0361328,-0.994141,0.0644531
1480688158223015,-0.0380859,-0.992188,0.0712891
1480688158237052,-0.0341797,-0.97998,0.0732422
1480688158260618,-0.0385742,-0.967285,0.0703125
1480688158283174,-0.0336914,-0.966309,0.0703125
1480688158307238,-0.0332031,-0.981445,0.065918
1480688158321276,-0.0400391,-0.992676,0.0649414
1480688158343836,-0.0390625,-0.991211,0.0688477
1480688158357372,-0.0390625,-0.986816,0.0678711
1480688158380433,-0.0336914,-0.971191,0.0649414
1480688158402993,-0.0332031,-0.966797,0.0639648
1480688158425553,-0.0351563,-0.975586,0.0673828
1480688158440093,-0.0400391,-0.98584,0.0644531
1480688158470674,-0.0419922,-0.991699,0.0708008
1480688158491729,-0.0463867,-0.987305,0.0673828
1480688158502256,-0.0415039,-0.97998,0.0688477
1480688158522812,-0.0366211,-0.972656,0.0732422
1480688158544871,-0.034668,-0.973145,0.0703125
1480688158560914,-0.0385742,-0.98291,0.0683594
1480688158582973,-0.0454102,-0.992188,0.0693359
1480688158605535,-0.0454102,-1,0.0620117
1480688158626588,-0.0400391,-0.989746,0.0673828
1480688158643132,-0.0380859,-0.974121,0.0644531
1480688158664187,-0.0371094,-0.966797,0.0625
1480688158681734,-0.0351563,-0.977539,0.065918
1480688158703292,-0.0395508,-0.992676,0.0620117
1480688158731367,-0.0444336,-0.998047,0.0683594
1480688158740892,-0.0439453,-0.98877,0.0668945
1480688158762950,-0.0405273,-0.978027,0.0629883
1480688158791527,-0.0444336,-0.967773,0.0625
1480688158802054,-0.0375977,-0.966309,0.0610352
1480688158823110,-0.0419922,-0.982422,0.0654297
1480688158846673,-0.0405273,-0.994629,0.059082
1480688158861713,-0.0410156,-0.992676,0.0644531
1480688158888787,-0.0405273,-0.983887,0.0712891
1480688158905328,-0.0336914,-0.969727,0.0625
1480688158920869,-0.0361328,-0.961426,0.0649414
1480688158944935,-0.0375977,-0.977539,0.0620117
1480688158965489,-0.0454102,-0.991211,0.0620117
1480688158980529,-0.0449219,-0.994141,0.0668945
1480688159003089,-0.0419922,-0.988281,0.0712891
1480688159026150,-0.0390625,-0.974609,0.0722656
1480688159040187,-0.0341797,-0.970703,0.0698242
1480688159072774,-0.0400391,-0.97168,0.0688477
1480688159091323,-0.0361328,-0.982422,0.0634766
1480688159114385,-0.0415039,-0.996582,0.0634766
1480688159124411,-0.0415039,-0.990723,0.0678711
1480688159145468,-0.0371094,-0.977539,0.0683594
1480688159159505,-0.0375977,-0.966309,0.0610352
1480688159183067,-0.0336914,-0.971191,0.0629883
1480688159213147,-0.0361328,-0.972656,0.0629883
1480688159219665,-0.0415039,-0.992676,0.0625
1480688159242727,-0.0424805,-0.997559,0.0683594
1480688159266289,-0.043457,-0.987793,0.0708008
1480688159281329,-0.0356445,-0.976563,0.0703125
1480688159308902,-0.0380859,-0.968262,0.0585938
1480688159326449,-0.0336914,-0.97168,0.0620117
1480688159346502,-0.0366211,-0.984863,0.0605469
1480688159370064,-0.0405273,-0.990723,0.0712891
1480688159401148,-0.0390625,-0.982422,0.0649414
1480688159414182,-0.0419922,-0.976563,0.0634766
1480688159422706,-0.0332031,-0.978027,0.0625
1480688159445264,-0.0336914,-0.972168,0.0654297
1480688159466320,-0.0375977,-0.980957,0.0625
1480688159483875,-0.0405273,-0.991211,0.0771484
1480688159505425,-0.0429688,-0.992188,0.0693359
1480688159526481,-0.0444336,-0.977539,0.074707
1480688159543526,-0.0366211,-0.970215,0.065918
1480688159565593,-0.0336914,-0.972656,0.0668945
1480688159586641,-0.0317383,-0.97168,0.0639648
1480688159610204,-0.0327148,-0.984863,0.0605469
1480688159625243,-0.0332031,-0.992676,0.0585938
1480688159656327,-0.0366211,-0.984863,0.0605469
1480688159670367,-0.0336914,-0.981445,0.0615234
1480688159701947,-0.0307617,-0.966309,0.0556641
1480688159713979,-0.034668,-0.966797,0.0625
1480688159724511,-0.0327148,-0.979004,0.0581055
1480688159745563,-0.034668,-0.989258,0.0585938
1480688159775645,-0.0415039,-0.990723,0.0620117
1480688159783164,-0.0424805,-0.980957,0.0634766
1480688159805724,-0.0375977,-0.968262,0.0620117
1480688159826280,-0.0380859,-0.970703,0.0595703
1480688159842822,-0.0405273,-0.980469,0.0639648
1480688159865383,-0.0429688,-0.98877,0.0649414
1480688159887942,-0.043457,-0.995117,0.065918
1480688159902982,-0.050293,-0.991699,0.0688477
1480688159933061,-0.0366211,-0.981934,0.0644531
1480688159948102,-0.0356445,-0.986816,0.0703125
1480688159970161,-0.0395508,-0.96582,0.065918
1480688159985702,-0.0507813,-0.97998,0.0698242
1480688160007761,-0.0507813,-0.995117,0.0678711
1480688160022299,-0.0527344,-0.998535,0.0625
1480688160045862,-0.0454102,-0.984375,0.0673828
1480688160067921,-0.043457,-0.970215,0.0683594
1480688160081958,-0.034668,-0.971191,0.0644531
1480688160105520,-0.0385742,-0.975098,0.0610352
1480688160127579,-0.0405273,-0.985352,0.0629883
1480688160142118,-0.0493164,-0.993164,0.0595703
1480688160166683,-0.0449219,-0.990723,0.0595703
1480688160188241,-0.0444336,-0.972656,0.0610352
1480688160208795,-0.0385742,-0.964355,0.0561523
1480688160225840,-0.043457,-0.975098,0.0571289
1480688160247898,-0.0400391,-0.983887,0.0625
1480688160270459,-0.0390625,-0.993164,0.0595703
1480688160285499,-0.0390625,-0.998535,0.065918
1480688160308059,-0.0380859,-0.976563,0.0610352
1480688160322097,-0.0410156,-0.973633,0.0639648
1480688160347168,-0.0361328,-0.973633,0.0561523
1480688160369221,-0.0395508,-0.98291,0.0610352
1480688160390780,-0.0419922,-0.983887,0.065918
1480688160405317,-0.0449219,-0.989746,0.0649414
1480688160433894,-0.043457,-0.984375,0.0644531
1480688160448933,-0.0439453,-0.976074,0.0634766
1480688160465478,-0.0400391,-0.971191,0.0654297
1480688160488540,-0.0385742,-0.973633,0.0581055
1480688160511098,-0.0429688,-0.983887,0.0629883
1480688160527146,-0.0454102,-0.993164,0.0610352
1480688160549201,-0.0483398,-0.989258,0.0668945
1480688160576775,-0.0385742,-0.980957,0.0649414
1480688160591312,-0.0400391,-0.969727,0.0654297
1480688160615376,-0.0356445,-0.969727,0.065918
1480688160629414,-0.0366211,-0.97998,0.0644531
1480688160646458,-0.0419922,-0.989258,0.0639648
1480688160675537,-0.043457,-0.990723,0.0698242
1480688160689574,-0.0395508,-0.980469,0.0649414
1480688160705617,-0.0444336,-0.971191,0.0629883
1480688160727676,-0.03125,-0.969238,0.0639648
1480688160748730,-0.0375977,-0.973145,0.0639648
1480688160765275,-0.0419922,-0.980957,0.0678711
1480688160787836,-0.0478516,-0.991211,0.0615234
1480688160810896,-0.0429688,-0.996582,0.0654297
1480688160832955,-0.0424805,-0.979004,0.0693359
1480688160847994,-0.0380859,-0.97168,0.0654297
1480688160870556,-0.0410156,-0.972656,0.0620117
1480688160893115,-0.0375977,-0.980469,0.0605469
1480688160908656,-0.0458984,-0.98877,0.0708008
1480688160930213,-0.050293,-0.992676,0.0644531
1480688160945254,-0.0463867,-0.980957,0.0615234
1480688160968816,-0.0375977,-0.970703,0.0644531
1480688160990374,-0.0336914,-0.969238,0.0605469
1480688161004914,-0.0356445,-0.978516,0.0668945
1480688161027973,-0.0419922,-0.984863,0.0600586
1480688161050534,-0.043457,-0.996582,0.0629883
1480688161065573,-0.0463867,-0.987793,0.0654297
1480688161089136,-0.043457,-0.978027,0.065918
1480688161111195,-0.0385742,-0.969727,0.0615234
1480688161125233,-0.0375977,-0.976074,0.0595703
1480688161147792,-0.0419922,-0.982422,0.0644531
1480688161170352,-0.0405273,-0.991699,0.0585938
1480688161184891,-0.0415039,-0.993164,0.0688477
1480688161207951,-0.0429688,-0.979004,0.0654297
1480688161230512,-0.0410156,-0.972656,0.0664063
1480688161244549,-0.0375977,-0.973633,0.0683594
1480688161275633,-0.043457,-0.979492,0.065918
1480688161290672,-0.0439453,-0.986328,0.0722656
1480688161311226,-0.046875,-0.991699,0.0732422
1480688161328773,-0.0415039,-0.984375,0.0664063
1480688161357850,-0.0395508,-0.970703,0.065918
1480688161378906,-0.0371094,-0.967285,0.0688477
1480688161387931,-0.0385742,-0.973633,0.0708008
1480688161410492,-0.0390625,-0.986328,0.0595703
1480688161431547,-0.043457,-0.993652,0.0615234
1480688161448592,-0.0449219,-0.993164,0.0664063
1480688161477670,-0.0458984,-0.977051,0.0673828
1480688161498725,-0.0371094,-0.969238,0.0605469
1480688161507749,-0.0356445,-0.977539,0.0605469
1480688161530309,-0.0385742,-0.981445,0.0654297
1480688161551365,-0.0463867,-0.989258,0.0673828
1480688161567909,-0.0439453,-0.992676,0.0708008
1480688161590471,-0.0444336,-0.984375,0.0678711
1480688161612528,-0.0415039,-0.973145,0.0683594
1480688161642608,-0.034668,-0.970703,0.0688477
1480688161657649,-0.0395508,-0.977051,0.0668945
1480688161671184,-0.0390625,-0.987305,0.0649414
1480688161687728,-0.0444336,-0.991211,0.0654297
1480688161710788,-0.0424805,-0.98584,0.0625
1480688161731344,-0.0366211,-0.976563,0.0703125
1480688161747887,-0.0361328,-0.969727,0.0639648
1480688161777967,-0.0395508,-0.973145,0.0664063
1480688161793008,-0.0410156,-0.983398,0.0644531
1480688161807045,-0.0424805,-0.989258,0.065918
1480688161831108,-0.0429688,-0.994141,0.0693359
1480688161853168,-0.0424805,-0.982422,0.0751953
1480688161867707,-0.0375977,-0.971191,0.0571289
1480688161891771,-0.0317383,-0.971191,0.0615234
1480688161913328,-0.0361328,-0.976074,0.0668945
1480688161935888,-0.0380859,-0.987305,0.0629883
1480688161950928,-0.0424805,-0.992188,0.0634766
1480688161972986,-0.0444336,-0.988281,0.0688477
1480688161987024,-0.0405273,-0.979004,0.0615234
1480688162010587,-0.0371094,-0.964355,0.0615234
1480688162032645,-0.0356445,-0.97168,0.0620117
1480688162047184,-0.0390625,-0.98291,0.0668945
1480688162076767,-0.0429688,-0.992188,0.0708008
1480688162092805,-0.0454102,-0.993164,0.0703125
1480688162107343,-0.0395508,-0.979492,0.0683594
1480688162130404,-0.0385742,-0.966797,0.0712891
1480688162153967,-0.034668,-0.968262,0.0644531
1480688162167002,-0.03125,-0.974121,0.0620117
1480688162191066,-0.0400391,-0.991699,0.0649414
1480688162213125,-0.0424805,-0.990723,0.0664063
1480688162233679,-0.0419922,-0.987305,0.0664063
1480688162263759,-0.0400391,-0.979492,0.0654297
1480688162272783,-0.0400391,-0.97168,0.0693359
1480688162294842,-0.0400391,-0.976074,0.0708008
1480688162296346,-0.0419922,-0.98584,0.0717773
1480688162315898,-0.0444336,-0.993652,0.0717773
1480688162340964,-0.0478516,-0.990234,0.0683594
1480688162364026,-0.0395508,-0.983887,0.0737305
1480688162376060,-0.0371094,-0.96875,0.0722656
1480688162398117,-0.0390625,-0.967285,0.0683594
1480688162420677,-0.0385742,-0.982422,0.0668945
1480688162452260,-0.0419922,-0.990723,0.0644531
1480688162465797,-0.0424805,-0.991211,0.059082
1480688162489360,-0.0366211,-0.982422,0.0556641
1480688162495877,-0.0351563,-0.97168,0.0620117
1480688162518436,-0.0361328,-0.972168,0.0625
1480688162544005,-0.0375977,-0.974121,0.0639648
1480688162555538,-0.0371094,-0.985352,0.0629883
1480688162578095,-0.0429688,-0.992676,0.0664063
1480688162618704,-0.0478516,-0.98877,0.0703125
1480688162621712,-0.0429688,-0.974609,0.0693359
1480688162638256,-0.0400391,-0.969238,0.0698242
1480688162660816,-0.0405273,-0.975586,0.0683594
1480688162675856,-0.043457,-0.985352,0.0678711
1480688162701423,-0.0444336,-0.989746,0.0673828
1480688162732506,-0.0507813,-0.992676,0.0678711
1480688162744538,-0.0419922,-0.986816,0.0644531
1480688162765594,-0.0375977,-0.974609,0.0620117
1480688162788656,-0.034668,-0.969238,0.0688477
1480688162799685,-0.0395508,-0.972168,0.0654297
1480688162821242,-0.0410156,-0.989258,0.0678711
1480688162840794,-0.0439453,-0.995605,0.0639648
1480688162863355,-0.043457,-0.990723,0.0688477
1480688162878394,-0.0395508,-0.972656,0.0620117
1480688162902460,-0.0380859,-0.973145,0.0634766
1480688162915994,-0.0385742,-0.969727,0.0717773
1480688162938053,-0.0410156,-0.981934,0.0717773
1480688162970137,-0.0454102,-0.987305,0.0654297
1480688162983173,-0.0463867,-0.990723,0.0649414
1480688163001221,-0.0400391,-0.982422,0.0693359
1480688163025285,-0.0375977,-0.970703,0.0620117
1480688163043333,-0.0327148,-0.966797,0.0634766
1480688163065892,-0.0410156,-0.979492,0.0625
1480688163080934,-0.0463867,-0.993652,0.0644531
1480688163098479,-0.0444336,-1,0.0625
1480688163127556,-0.0375977,-0.990234,0.074707
1480688163140591,-0.0361328,-0.959961,0.0664063
1480688163163151,-0.0424805,-0.971191,0.0649414
1480688163178190,-0.0351563,-0.986328,0.0625
1480688163200751,-0.0366211,-0.979492,0.0585938
1480688163217295,-0.046875,-0.991699,0.0629883
1480688163241363,-0.0439453,-0.989258,0.0625
1480688163260911,-0.0424805,-0.980469,0.0708008
1480688163278458,-0.0400391,-0.96875,0.0595703
1480688163303024,-0.0400391,-0.968262,0.0644531
1480688163329093,-0.0366211,-0.97998,0.0654297
1480688163337114,-0.0454102,-0.989746,0.0708008
1480688163358170,-0.0488281,-0.992676,0.0727539
1480688163380730,-0.0410156,-0.98291,0.0678711
1480688163399279,-0.0400391,-0.974121,0.0620117
1480688163427355,-0.0385742,-0.972656,0.0639648
1480688163442897,-0.0380859,-0.978027,0.0629883
1480688163457434,-0.0444336,-0.985352,0.0620117
1480688163478490,-0.0454102,-0.985352,0.0664063
1480688163509071,-0.0449219,-0.988281,0.0649414
1480688163518095,-0.0361328,-0.982422,0.0668945
1480688163541156,-0.0380859,-0.976074,0.0605469
1480688163560708,-0.0341797,-0.97168,0.065918
1480688163586777,-0.0371094,-0.980469,0.0605469
1480688163611343,-0.046875,-0.989746,0.0585938
1480688163628889,-0.0463867,-0.990723,0.059082
1480688163637412,-0.046875,-0.985352,0.0649414
1480688163660975,-0.0454102,-0.976074,0.059082
1480688163680526,-0.0410156,-0.974121,0.0634766
1480688163704591,-0.0429688,-0.977539,0.0644531
1480688163718127,-0.0400391,-0.990723,0.0654297
1480688163741689,-0.043457,-0.994141,0.0605469
1480688163774778,-0.0385742,-0.989746,0.0664063
1480688163780795,-0.043457,-0.975098,0.065918
1480688163800847,-0.0449219,-0.964844,0.0634766
1480688163818895,-0.0415039,-0.974609,0.0654297
1480688163838447,-0.0424805,-0.987793,0.0576172
1480688163863514,-0.0415039,-0.995605,0.0610352
1480688163886074,-0.046875,-0.990234,0.0629883
1480688163898107,-0.0454102,-0.981445,0.0654297
1480688163929690,-0.0400391,-0.973145,0.0615234
1480688163943227,-0.0385742,-0.966797,0.059082
1480688163958768,-0.0429688,-0.975098,0.0610352
1480688163980825,-0.0429688,-0.993164,0.0668945
1480688164003385,-0.0454102,-0.997559,0.0649414
1480688164019428,-0.0463867,-0.986328,0.0673828
1480688164041988,-0.0444336,-0.975586,0.0712891
1480688164064548,-0.0439453,-0.973145,0.0654297
1480688164078084,-0.0341797,-0.972656,0.0639648
1480688164108164,-0.0429688,-0.979004,0.0634766
1480688164140249,-0.0463867,-1,0.059082
1480688164142760,-0.046875,-0.996094,0.0610352
1480688164162308,-0.0395508,-0.98584,0.0615234
1480688164186372,-0.0395508,-0.974609,0.0644531
1480688164198404,-0.0385742,-0.976074,0.0600586
1480688164220964,-0.0429688,-0.991211,0.0639648
1480688164243022,-0.0454102,-0.999023,0.0634766
1480688164258065,-0.0395508,-0.998535,0.0678711
1480688164280623,-0.0375977,-0.989746,0.059082
1480688164303183,-0.0258789,-0.975586,0.0634766
1480688164325744,-0.0195313,-0.963379,0.0629883
1480688164340785,-0.0185547,-0.970215,0.0585938
1480688164374873,-0.0234375,-0.982422,0.0600586
1480688164396431,-0.0209961,-0.982422,0.0546875
1480688164418489,-0.0258789,-0.974121,0.0527344
1480688164423002,-0.0268555,-0.964355,0.0571289
1480688164441050,-0.0258789,-0.952637,0.0576172
1480688164461104,-0.0327148,-0.959961,0.0639648
1480688164483161,-0.0405273,-0.984863,0.0688477
1480688164499705,-0.0522461,-1.00146,0.0737305
1480688164520761,-0.0532227,-1.00586,0.0771484
1480688164543321,-0.0551758,-0.996582,0.0839844
1480688164561370,-0.0454102,-0.996094,0.0766602
1480688164583930,-0.0380859,-0.993652,0.0844727
1480688164603482,-0.0341797,-0.977051,0.0766602
1480688164625540,-0.0385742,-0.983887,0.0761719
1480688164648099,-0.0322266,-0.994629,0.0673828
1480688164663140,-0.0263672,-0.978027,0.0605469
1480688164696228,-0.0283203,-0.975586,0.059082
1480688164708761,-0.0209961,-0.966797,0.0600586
1480688164723301,-0.0297852,-0.96582,0.059082
1480688164741349,-0.0327148,-0.976074,0.0600586
1480688164760900,-0.034668,-0.986328,0.0727539
1480688164783459,-0.0385742,-0.985352,0.0703125
1480688164801008,-0.0385742,-0.978516,0.0708008
1480688164820558,-0.0341797,-0.964355,0.0761719
1480688164843118,-0.0332031,-0.962402,0.0737305
1480688164861166,-0.0297852,-0.982422,0.0727539
1480688164880718,-0.0292969,-0.992188,0.0722656
1480688164906787,-0.0410156,-0.995605,0.0795898
1480688164925838,-0.0375977,-0.989258,0.0776367
1480688164948398,-0.0375977,-0.982422,0.0708008
1480688164970964,-0.0351563,-0.974609,0.0678711
1480688164987002,-0.0405273,-0.982422,0.0732422
1480688165008058,-0.0424805,-0.987305,0.0649414
1480688165023097,-0.0444336,-0.995117,0.0737305
1480688165041145,-0.0419922,-1.00098,0.0649414
1480688165060699,-0.0297852,-0.983887,0.0644531
1480688165083256,-0.0205078,-0.962402,0.0732422
1480688165101305,-0.0214844,-0.942383,0.0742188
1480688165120857,-0.0307617,-0.953613,0.0810547
1480688165160463,-0.043457,-0.983887,0.0761719
1480688165162469,-0.0400391,-1.00098,0.0756836
1480688165183524,-0.0390625,-0.993652,0.0756836
1480688165205583,-0.0336914,-0.97998,0.0654297
1480688165225636,-0.0380859,-0.967285,0.074707
1480688165242180,-0.0292969,-0.965332,0.0737305
1480688165273764,-0.0419922,-0.97998,0.0742188
1480688165281283,-0.0498047,-0.991211,0.0751953
1480688165302840,-0.0463867,-0.998047,0.074707
1480688165323397,-0.0439453,-0.983887,0.074707
1480688165345955,-0.0327148,-0.970703,0.0771484
1480688165361999,-0.0366211,-0.97168,0.0786133
1480688165390575,-0.0371094,-0.981445,0.0825195
1480688165405614,-0.0415039,-0.991699,0.0791016
1480688165422159,-0.0444336,-0.993164,0.0732422
1480688165443715,-0.0429688,-0.98877,0.0771484
1480688165465774,-0.0356445,-0.97168,0.0834961
1480688165485327,-0.0385742,-0.966309,0.0717773
1480688165506382,-0.0375977,-0.972656,0.0756836
1480688165525938,-0.043457,-0.985352,0.0727539
1480688165543481,-0.0473633,-0.984375,0.0683594
1480688165563040,-0.043457,-0.98291,0.0639648
1480688165596121,-0.0395508,-0.98584,0.0742188
1480688165603641,-0.0317383,-0.974121,0.0732422
1480688165647758,-0.0385742,-0.970215,0.0673828
1480688165650265,-0.0424805,-0.97998,0.0717773
1480688165663800,-0.046875,-0.990234,0.0712891
1480688165683352,-0.0522461,-0.990723,0.0776367
1480688165713432,-0.0488281,-0.98291,0.0727539
1480688165723460,-0.0390625,-0.971191,0.0742188
1480688165743515,-0.0332031,-0.970703,0.0703125
1480688165765572,-0.0351563,-0.97998,0.0708008
1480688165783620,-0.0395508,-0.990234,0.0712891
1480688165806179,-0.0463867,-0.992676,0.0722656
1480688165825732,-0.0439453,-0.991699,0.0732422
1480688165844782,-0.046875,-0.977051,0.0693359
1480688165863423,-0.0366211,-0.972656,0.0742188
1480688165885982,-0.0395508,-0.969238,0.0664063
1480688165917065,-0.0473633,-0.983887,0.0683594
1480688165923082,-0.0454102,-0.990723,0.0615234
1480688165947145,-0.0395508,-0.999512,0.0600586
1480688165971210,-0.0356445,-0.982422,0.0693359
1480688165984243,-0.0336914,-0.969727,0.0654297
1480688166005801,-0.0439453,-0.961914,0.0708008
1480688166023850,-0.0473633,-0.978027,0.0698242
1480688166043401,-0.0439453,-0.990723,0.0683594
1480688166073482,-0.0449219,-1.00195,0.0693359
1480688166085513,-0.0429688,-0.980957,0.0751953
1480688166104564,-0.0429688,-0.981445,0.0698242
1480688166125620,-0.0419922,-0.974609,0.0668945
1480688166143668,-0.0390625,-0.977051,0.0664063
1480688166163220,-0.0488281,-0.97998,0.0629883
1480688166185796,-0.0517578,-0.988281,0.0629883
1480688166203828,-0.0424805,-0.994629,0.0629883
1480688166224885,-0.0439453,-0.976074,0.0717773
1480688166248948,-0.0317383,-0.967773,0.0634766
1480688166271006,-0.0375977,-0.963379,0.065918
1480688166299582,-0.0380859,-0.977539,0.0654297
1480688166305598,-0.046875,-0.994141,0.0673828
1480688166324148,-0.0463867,-0.992188,0.0683594
1480688166351220,-0.0444336,-0.986816,0.0683594
1480688166365758,-0.0463867,-0.973145,0.0737305
1480688166383806,-0.0385742,-0.967773,0.0722656
1480688166404862,-0.0375977,-0.976563,0.0688477
1480688166425921,-0.0380859,-0.984863,0.0649414
1480688166445470,-0.0454102,-0.990234,0.0683594
1480688166464521,-0.0449219,-0.987305,0.0708008
1480688166485577,-0.0444336,-0.97998,0.0644531
1480688166503625,-0.0385742,-0.967285,0.0688477
1480688166528190,-0.034668,-0.968262,0.0678711
1480688166545737,-0.0410156,-0.980957,0.0654297
1480688166572308,-0.0439453,-0.990723,0.0678711
1480688166586345,-0.0424805,-0.98877,0.0664063
1480688166605898,-0.0390625,-0.978516,0.0732422
1480688166630963,-0.0356445,-0.976563,0.0664063
1480688166646004,-0.0366211,-0.967773,0.0688477
1480688166665555,-0.0375977,-0.973633,0.0644531
1480688166685608,-0.0390625,-0.98584,0.0678711
1480688166706664,-0.0439453,-0.991211,0.0756836
1480688166727220,-0.0454102,-0.984863,0.0717773
1480688166744265,-0.0429688,-0.979492,0.0727539
1480688166766324,-0.0375977,-0.969238,0.0703125
1480688166785875,-0.0351563,-0.972656,0.0737305
1480688166803422,-0.0424805,-0.97998,0.0712891
1480688166825987,-0.043457,-0.993652,0.0722656
1480688166847037,-0.0458984,-0.994141,0.0761719
1480688166876119,-0.0473633,-0.98584,0.0649414
1480688166893664,-0.0356445,-0.971191,0.0664063
1480688166905694,-0.0395508,-0.969238,0.0629883
1480688166929758,-0.0375977,-0.973145,0.065918
1480688166946803,-0.0400391,-0.987793,0.0708008
1480688166965854,-0.0410156,-0.990723,0.0737305
1480688166988414,-0.0444336,-0.990234,0.0712891
1480688167019496,-0.0429688,-0.977539,0.0708008
1480688167026015,-0.0405273,-0.97168,0.0703125
1480688167048073,-0.0405273,-0.974609,0.0722656
1480688167066121,-0.0444336,-0.981445,0.0708008
1480688167085672,-0.0444336,-0.991211,0.0708008
1480688167111240,-0.0439453,-0.994141,0.0673828
1480688167126782,-0.0458984,-0.981445,0.0756836
1480688167147336,-0.0449219,-0.970215,0.0644531
1480688167168392,-0.0380859,-0.971191,0.0664063
1480688167185939,-0.0390625,-0.970703,0.0727539
1480688167206995,-0.0498047,-0.989258,0.0737305
1480688167237075,-0.0498047,-0.994141,0.0722656
1480688167260138,-0.0522461,-0.986328,0.0712891
1480688167273172,-0.0449219,-0.974121,0.0703125
1480688167288211,-0.0375977,-0.96875,0.0639648
1480688167306260,-0.0390625,-0.975098,0.0693359
1480688167327315,-0.0395508,-0.981445,0.0644531
1480688167348371,-0.0463867,-0.990723,0.0664063
1480688167380456,-0.0449219,-0.989746,0.0732422
1480688167386974,-0.0415039,-0.976074,0.0668945
1480688167409035,-0.0400391,-0.970703,0.0673828
1480688167426081,-0.0366211,-0.969727,0.0634766
1480688167447134,-0.0395508,-0.98291,0.0678711
1480688167468189,-0.0493164,-0.991211,0.0698242
1480688167486238,-0.0512695,-0.98877,0.0683594
1480688167513310,-0.0419922,-0.985352,0.0698242
1480688167529854,-0.046875,-0.980957,0.0703125
1480688167546398,-0.0419922,-0.964844,0.065918
1480688167568457,-0.0439453,-0.969727,0.0737305
1480688167588009,-0.0410156,-0.989746,0.0693359
1480688167606558,-0.0473633,-0.992676,0.0673828
1480688167629118,-0.0488281,-0.985352,0.0756836
1480688167651678,-0.0400391,-0.973145,0.0761719
1480688167670729,-0.0444336,-0.966797,0.0683594
1480688167688776,-0.0375977,-0.96875,0.0615234
1480688167708328,-0.0380859,-0.990234,0.0654297
1480688167727880,-0.046875,-0.998535,0.0688477
1480688167748941,-0.0458984,-0.991699,0.0703125
1480688167767988,-0.0449219,-0.981445,0.0668945
1480688167798068,-0.0410156,-0.969727,0.0722656
1480688167809097,-0.0415039,-0.96875,0.0693359
1480688167828148,-0.0405273,-0.976074,0.0786133
1480688167846195,-0.0463867,-0.987305,0.0683594
1480688167870260,-0.0458984,-0.994141,0.0751953
1480688167888307,-0.0454102,-0.987305,0.0683594
1480688167910866,-0.0405273,-0.97168,0.0673828
1480688167928915,-0.0375977,-0.968262,0.0708008
1480688167957491,-0.0395508,-0.974121,0.0649414
1480688167978045,-0.0473633,-0.983398,0.0693359
1480688167989076,-0.0458984,-0.992676,0.0664063
1480688168025172,-0.0488281,-0.986328,0.0683594
1480688168028680,-0.046875,-0.977539,0.0683594
1480688168048734,-0.0424805,-0.97168,0.0737305
1480688168068286,-0.0385742,-0.97168,0.065918
1480688168090846,-0.0405273,-0.975586,0.0761719
1480688168109397,-0.0439453,-0.984863,0.0717773
1480688168145994,-0.0488281,-0.991699,0.0766602
1480688168148499,-0.0454102,-0.98291,0.0688477
1480688168168553,-0.0444336,-0.978516,0.0698242
1480688168191113,-0.0400391,-0.969727,0.0668945
1480688168214174,-0.0444336,-0.971191,0.0722656
1480688168228712,-0.0473633,-0.979492,0.0654297
1480688168259295,-0.0483398,-0.991699,0.0732422
1480688168274334,-0.0439453,-0.992676,0.0688477
1480688168304414,-0.0444336,-0.983398,0.0742188
1480688168309427,-0.0410156,-0.971191,0.0712891
1480688168330483,-0.0371094,-0.96875,0.0712891
1480688168348531,-0.0375977,-0.980957,0.0649414
1480688168370088,-0.0410156,-0.991699,0.0693359
1480688168393651,-0.050293,-0.990723,0.0649414
1480688168408691,-0.0458984,-0.981445,0.0693359
1480688168444786,-0.0380859,-0.972656,0.0698242
1480688168450803,-0.0375977,-0.976563,0.0698242
1480688168469853,-0.0444336,-0.989258,0.0610352
1480688168491913,-0.0478516,-0.98291,0.0649414
1480688168513469,-0.0454102,-0.986328,0.0673828
1480688168528509,-0.0488281,-0.981445,0.065918
1480688168557588,-0.0439453,-0.971191,0.0654297
1480688168572125,-0.0415039,-0.970703,0.0634766
1480688168588671,-0.0380859,-0.97168,0.0629883
1480688168612238,-0.0332031,-0.994629,0.0629883
1480688168630781,-0.0390625,-0.994629,0.0678711
1480688168648829,-0.0463867,-0.983887,0.0693359
1480688168670888,-0.0478516,-0.973633,0.0693359
1480688168697960,-0.043457,-0.970215,0.0654297
1480688168716008,-0.043457,-0.972656,0.0595703
1480688168732051,-0.0449219,-0.978516,0.0649414
1480688168758120,-0.0410156,-0.990234,0.0668945
1480688168768648,-0.0473633,-0.991211,0.065918
1480688168792717,-0.0385742,-0.979492,0.0688477
1480688168810762,-0.0400391,-0.970703,0.0620117
1480688168834824,-0.0458984,-0.966309,0.065918
1480688168858888,-0.0380859,-0.973145,0.0664063
1480688168870920,-0.0419922,-0.988281,0.0703125
1480688168888968,-0.0458984,-0.994141,0.0708008
1480688168911027,-0.0463867,-0.987793,0.0688477
1480688168930579,-0.0473633,-0.98291,0.0668945
1480688168949136,-0.0415039,-0.970215,0.0732422
1480688168975707,-0.0371094,-0.970703,0.0678711
1480688169001275,-0.0375977,-0.978516,0.0698242
1480688169015814,-0.0439453,-0.98877,0.065918
1480688169038875,-0.046875,-0.991699,0.0703125
1480688169059433,-0.0498047,-0.987305,0.0644531
1480688169068453,-0.0410156,-0.974121,0.0673828
1480688169091515,-0.0385742,-0.96875,0.0683594
1480688169113072,-0.0356445,-0.975098,0.0668945
1480688169127611,-0.0424805,-0.98584,0.0639648
1480688169150170,-0.0493164,-0.998047,0.065918
1480688169178746,-0.0473633,-0.987793,0.0678711
1480688169196795,-0.0415039,-0.973145,0.0688477
1480688169210330,-0.0419922,-0.964844,0.0717773
1480688169231386,-0.0410156,-0.970215,0.0722656
1480688169247930,-0.0415039,-0.98584,0.0722656
1480688169276506,-0.0498047,-0.99707,0.0820313
1480688169300069,-0.0551758,-0.984863,0.0786133
1480688169308595,-0.03125,-0.988281,0.0805664
1480688169330650,-0.0498047,-0.974121,0.0737305
1480688169351205,-0.0537109,-0.974121,0.0717773
1480688169367248,-0.0483398,-0.982422,0.0678711
1480688169390310,-0.0507813,-0.989258,0.0708008
1480688169412869,-0.0488281,-0.992676,0.0727539
1480688169435931,-0.0449219,-0.984375,0.0766602
1480688169450469,-0.0415039,-0.969727,0.0703125
1480688169479045,-0.0395508,-0.966797,0.0708008
1480688169501605,-0.0395508,-0.979004,0.0688477
1480688169511130,-0.0419922,-0.983398,0.0673828
1480688169532688,-0.050293,-0.991699,0.0668945
1480688169553743,-0.0463867,-0.993652,0.0732422
1480688169577808,-0.0463867,-0.977539,0.0732422
1480688169593351,-0.0424805,-0.961426,0.0698242
1480688169615408,-0.0395508,-0.971191,0.0625
1480688169637968,-0.0390625,-0.983398,0.0600586
1480688169669552,-0.0483398,-0.992188,0.0595703
1480688169673563,-0.0473633,-0.990723,0.0634766
1480688169692115,-0.0478516,-0.991211,0.0629883
1480688169712667,-0.0473633,-0.978027,0.0595703
1480688169727205,-0.0429688,-0.967285,0.0576172
1480688169756282,-0.0444336,-0.970215,0.0683594
1480688169772825,-0.0454102,-0.985352,0.0683594
1480688169787365,-0.0444336,-0.993164,0.0678711
1480688169818448,-0.0458984,-0.98584,0.0678711
1480688169832987,-0.0449219,-0.975098,0.0693359
1480688169854044,-0.0400391,-0.966309,0.0693359
1480688169870085,-0.0366211,-0.976563,0.0678711
1480688169900165,-0.0454102,-0.988281,0.0712891
1480688169913700,-0.0483398,-0.993652,0.0644531
1480688169930247,-0.0546875,-0.989258,0.0693359
1480688169959323,-0.0527344,-0.983398,0.0708008
1480688169973861,-0.0458984,-0.967285,0.0766602
1480688169992414,-0.0395508,-0.967773,0.0693359
1480688170012965,-0.0410156,-0.974609,0.0668945
1480688170034021,-0.0449219,-0.991211,0.0654297
1480688170056582,-0.0395508,-0.998047,0.0717773
1480688170073125,-0.0429688,-0.98877,0.0717773
1480688170093683,-0.0419922,-0.972168,0.0737305
1480688170110223,-0.0419922,-0.967773,0.0732422
1480688170132783,-0.0419922,-0.970215,0.0625
1480688170155344,-0.0439453,-0.986328,0.0664063
1480688170170383,-0.0458984,-0.993652,0.0673828
1480688170192446,-0.046875,-0.99707,0.0639648
1480688170213999,-0.0429688,-0.981934,0.0712891
1480688170230543,-0.0322266,-0.97168,0.0629883
1480688170253103,-0.0322266,-0.967773,0.0634766
1480688170273658,-0.0366211,-0.972656,0.0668945
1480688170290706,-0.0400391,-0.991699,0.0673828
1480688170312762,-0.0463867,-0.997559,0.0727539
1480688170335824,-0.0415039,-0.987305,0.0722656
1480688170365402,-0.0449219,-0.977051,0.0673828
1480688170372923,-0.0458984,-0.967773,0.0732422
1480688170396487,-0.0498047,-0.972656,0.0561523
1480688170410522,-0.0507813,-0.993652,0.0693359
1480688170440100,-0.0585938,-0.989258,0.0571289
1480688170455642,-0.0473633,-0.991699,0.0498047
1480688170476197,-0.0429688,-0.991211,0.0581055
1480688170498757,-0.0385742,-0.975586,0.0600586
1480688170522821,-0.0356445,-0.974609,0.059082
1480688170529840,-0.0375977,-1.00244,0.059082
1480688170552901,-0.0673828,-0.997559,0.0483398
1480688170575461,-0.0698242,-0.976074,0.0493164
1480688170590502,-0.0693359,-0.968262,0.0454102
1480688170612559,-0.0571289,-0.972656,0.0556641
1480688170635119,-0.0415039,-0.986328,0.0566406
1480688170658683,-0.0390625,-0.986328,0.0688477
1480688170680240,-0.0415039,-0.991211,0.078125
1480688170695280,-0.043457,-1.00049,0.0888672
1480688170709817,-0.0517578,-0.991211,0.081543
1480688170732881,-0.0541992,-0.972168,0.0795898
1480688170756947,-0.0478516,-0.955078,0.0917969
1480688170778001,-0.0327148,-0.954102,0.0947266
1480688170793040,-0.0205078,-0.979492,0.114746
1480688170822618,-0.019043,-0.989746,0.111816
1480688170843673,-0.0297852,-0.986816,0.112305
1480688170860218,-0.0341797,-0.985352,0.105957
1480688170875272,-0.0527344,-0.969727,0.0996094
1480688170896314,-0.0537109,-0.967285,0.10498
1480688170912857,-0.0541992,-0.963379,0.100586
1480688170935418,-0.0517578,-0.97998,0.104004
1480688170956474,-0.0546875,-0.989746,0.104004
1480688170980037,-0.0556641,-0.97998,0.0981445
1480688170995076,-0.0454102,-0.970703,0.0961914
1480688171023653,-0.0444336,-0.963867,0.105957
1480688171032676,-0.0454102,-0.972656,0.0932617
1480688171055237,-0.0454102,-0.976563,0.106445
1480688171076292,-0.0444336,-0.975098,0.104004
1480688171092836,-0.0395508,-0.96875,0.108398
1480688171122917,-0.0327148,-0.976074,0.121582
1480688171137957,-0.0322266,-0.966797,0.12207
1480688171152996,-0.0419922,-0.976074,0.114746
1480688171175556,-0.0507813,-0.974121,0.11084
1480688171197615,-0.0463867,-0.983398,0.115234
1480688171212654,-0.0507813,-0.995605,0.109375
1480688171235215,-0.0551758,-0.991211,0.106934
1480688171256271,-0.0551758,-0.977051,0.106445
1480688171273818,-0.0595703,-0.958496,0.106934
1480688171295375,-0.0473633,-0.959473,0.110352
1480688171318938,-0.0522461,-0.968262,0.110352
1480688171332976,-0.0512695,-1.00635,0.112305
1480688171355536,-0.0629883,-0.979492,0.111816
1480688171378095,-0.0493164,-0.962891,0.108887
1480688171393135,-0.0292969,-0.958496,0.10791
1480688171422715,-0.0302734,-0.972168,0.122559
1480688171445275,-0.0307617,-0.973633,0.126465
1480688171452292,-0.0541992,-0.996582,0.119141
1480688171475354,-0.0654297,-0.98584,0.121094
1480688171498415,-0.0581055,-0.983887,0.116699
1480688171518971,-0.0571289,-0.950684,0.11084
1480688171543034,-0.0478516,-0.964844,0.115723
1480688171565092,-0.0419922,-0.966309,0.125
1480688171586650,-0.0371094,-0.973145,0.133301
1480688171595172,-0.0317383,-0.981445,0.127441
1480688171617732,-0.0219727,-0.993164,0.136719
1480688171632271,-0.0288086,-0.976563,0.12793
1480688171656837,-0.0302734,-0.954102,0.133789
1480688171677891,-0.0205078,-0.933105,0.140137
1480688171700452,0.00390625,-0.932617,0.149902
1480688171715493,-0.00195313,-0.950684,0.152832
1480688171738554,-0.019043,-0.977539,0.156738
1480688171775652,-0.0356445,-0.989746,0.134766
1480688171778158,-0.0664063,-0.975586,0.11084
1480688171799215,-0.0732422,-0.96875,0.0952148
1480688171820271,-0.081543,-0.988281,0.0688477
1480688171842832,-0.0776367,-1.00537,0.0585938
1480688171858874,-0.0668945,-1.00732,0.0444336
1480688171880431,-0.0644531,-1,0.0375977
1480688171902991,-0.0551758,-0.987305,0.0390625
1480688171934574,-0.0566406,-0.974609,0.034668
1480688171938586,-0.0498047,-0.972168,0.0322266
1480688171955130,-0.0551758,-0.975586,0.0385742
1480688171977690,-0.0512695,-0.978027,0.0424805
1480688172000249,-0.0512695,-0.984863,0.0478516
1480688172015791,-0.0395508,-0.987793,0.050293
1480688172037348,-0.0249023,-0.980957,0.0488281
1480688172066425,-0.0249023,-0.977051,0.0507813
1480688172075449,-0.027832,-0.988281,0.0488281
1480688172098511,-0.0415039,-1,0.0546875
1480688172119065,-0.046875,-0.993652,0.043457
1480688172136111,-0.0498047,-0.989258,0.0473633
1480688172158171,-0.050293,-0.971191,0.0341797
1480688172180228,-0.0429688,-0.970703,0.0244141
1480688172195268,-0.0444336,-0.982422,0.0327148
1480688172217828,-0.0405273,-0.987793,0.0336914
1480688172240889,-0.0449219,-0.994629,0.0297852
1480688172255431,-0.046875,-0.996582,0.0385742
1480688172285508,-0.046875,-0.977539,0.0395508
1480688172308069,-0.0449219,-0.966797,0.0400391
1480688172321103,-0.0385742,-0.97998,0.0400391
1480688172338149,-0.0336914,-0.981934,0.0473633
1480688172367727,-0.0375977,-0.996094,0.043457
1480688172374748,-0.0473633,-0.994629,0.0483398
1480688172397806,-0.0478516,-0.983398,0.0317383
1480688172420868,-0.0458984,-0.978516,0.0385742
1480688172443428,-0.043457,-0.974121,0.027832
1480688172458470,-0.0395508,-0.983887,0.03125
1480688172480527,-0.0444336,-0.98877,0.0341797
1480688172495065,-0.0444336,-0.991699,0.0375977
1480688172519129,-0.0444336,-0.98877,0.0371094
1480688172540185,-0.0395508,-0.974121,0.0371094
1480688172555727,-0.0356445,-0.967285,0.0375977
1480688172577785,-0.0395508,-0.979492,0.0366211
1480688172613382,-0.0424805,-0.994141,0.0419922
1480688172630425,-0.0478516,-0.995605,0.0400391
1480688172638446,-0.0541992,-0.992188,0.0371094
1480688172668025,-0.0488281,-0.985352,0.0405273
1480688172674545,-0.0444336,-0.972168,0.0385742
1480688172697603,-0.0419922,-0.963867,0.0390625
1480688172720164,-0.0380859,-0.983887,0.0390625
1480688172741723,-0.046875,-0.994141,0.0390625
1480688172757764,-0.0517578,-0.993652,0.034668
1480688172780324,-0.0522461,-0.986328,0.0302734
1480688172808900,-0.0488281,-0.981934,0.0288086
1480688172817928,-0.0522461,-0.981934,0.0317383
1480688172840484,-0.0473633,-0.969238,0.0351563
1480688172861540,-0.0263672,-0.961914,0.046875
1480688172883598,-0.0351563,-0.972656,0.0385742
1480688172907664,-0.0507813,-1.00391,0.03125
1480688172922201,-0.0371094,-1.00146,0.0292969
1480688172945262,-0.0371094,-0.98877,0.0224609
1480688172967822,-0.0444336,-0.98291,0.0117188
1480688172981358,-0.0380859,-0.987793,0.0234375
1480688172997903,-0.0429688,-0.987793,0.019043
1480688173020463,-0.0512695,-0.982422,0.0185547
1480688173041520,-0.0532227,-0.979004,0.0175781
1480688173058067,-0.0419922,-0.976074,0.00830078
1480688173089145,-0.0322266,-0.989746,0.0175781
1480688173101678,-0.0239258,-0.978027,0.0214844
1480688173117721,-0.0351563,-0.978027,0.0170898
1480688173140281,-0.043457,-0.976074,0.0253906
1480688173162849,-0.0478516,-0.981445,0.0214844
1480688173178884,-0.0454102,-0.983398,0.0205078
1480688173200440,-0.0385742,-0.979492,0.0209961
1480688173224008,-0.046875,-0.987305,0.0166016
1480688173238043,-0.0595703,-1.02295,0.0292969
1480688173273637,-0.0605469,-1.0083,0.027832
1480688173290180,-0.0537109,-0.975098,0.0258789
1480688173297198,-0.0620117,-0.95166,0.015625
1480688173321764,-0.0493164,-0.964844,0.0219727
1480688173342819,-0.046875,-1.00049,0.000976563
1480688173365380,-0.0546875,-1.00195,-0.00244141
1480688173380419,-0.0458984,-0.995605,0.0161133
1480688173403481,-0.0390625,-0.97998,0.0273438
1480688173417017,-0.0488281,-0.983887,0.0126953
1480688173440579,-0.0507813,-0.98877,0.00292969
1480688173464643,-0.0517578,-0.994629,-0.0078125
1480688173477177,-0.0498047,-0.978516,-0.00244141
1480688173500238,-0.0327148,-0.983398,0.0249023
1480688173532323,-0.0385742,-0.971191,0.0336914
1480688173551374,-0.0449219,-0.983887,0.0483398
1480688173575438,-0.043457,-0.984375,0.0463867
1480688173583459,-0.0371094,-0.960449,0.0498047
1480688173596996,-0.0288086,-0.959473,0.0581055
1480688173620057,-0.0371094,-0.96582,0.0629883
1480688173642617,-0.0576172,-0.966797,0.0561523
1480688173665177,-0.0693359,-0.982422,0.0249023
1480688173708792,-0.0512695,-1.00879,0.012207
1480688173719822,-0.0478516,-0.998535,0.0078125
1480688173731352,-0.0322266,-0.980957,0.00537109
1480688173740377,-0.0341797,-0.991699,0.00683594
1480688173763950,-0.0322266,-0.974609,0.0151367
1480688173783992,-0.0522461,-0.976074,0.00244141
1480688173800537,-0.059082,-0.967773,-0.000488281
1480688173824101,-0.0571289,-0.975586,-0.00488281
1480688173851672,-0.0537109,-0.988281,-0.000976563
1480688173877241,-0.0566406,-1.00342,0.00146484
1480688173884761,-0.0571289,-1.01123,0.00390625
1480688173903812,-0.0600586,-1.00098,0.00537109
1480688173920356,-0.0585938,-0.999023,0.00830078
1480688173942915,-0.0463867,-0.984863,0.000488281
1480688173965477,-0.0297852,-0.95752,0.00146484
1480688173980516,-0.0244141,-0.94873,-0.00195313
1480688174003076,-0.027832,-0.96582,0.00488281
1480688174024132,-0.0532227,-0.981445,-0.00927734
1480688174041177,-0.0527344,-1,-0.0146484
1480688174064739,-0.0478516,-1.00879,-0.0185547
1480688174083791,-0.0546875,-0.999512,-0.019043
1480688174107854,-0.0600586,-0.983887,-0.0102539
1480688174130916,-0.0620117,-0.99707,-0.015625
1480688174151470,-0.0668945,-0.995117,-0.00195313
1480688174160995,-0.059082,-0.986328,-0.00488281
1480688174197593,-0.0512695,-0.973633,0.00244141
1480688174205613,-0.0366211,-0.979004,-0.0078125
1480688174220152,-0.0351563,-0.974121,-0.00927734
1480688174242712,-0.0351563,-0.971191,-0.00488281
1480688174265272,-0.0371094,-0.978516,-0.00878906
1480688174279811,-0.0478516,-0.987793,-0.0175781
1480688174318916,-0.0483398,-0.983398,-0.00976563
1480688174331950,-0.046875,-0.972656,-0.0131836
1480688174340976,-0.0419922,-0.954102,-0.0161133
1480688174364035,-0.0400391,-0.96875,-0.0292969
1480688174385092,-0.0449219,-1.00098,-0.0249023
1480688174408654,-0.0581055,-1.01514,-0.0273438
1480688174422695,-0.0693359,-1.01172,-0.0205078
1480688174451769,-0.0810547,-1.00684,-0.0180664
1480688174474329,-0.0649414,-0.976074,-0.0107422
1480688174484857,-0.0498047,-0.958496,-0.0112305
1480688174505411,-0.0371094,-0.97168,-0.0185547
1480688174519448,-0.0458984,-1.00342,-0.0263672
1480688174550532,-0.0439453,-1.00195,-0.0180664
1480688174565070,-0.0488281,-1,-0.00292969
1480688174579609,-0.0600586,-0.978027,-0.0283203
1480688174602670,-0.0463867,-0.980957,-0.0205078
1480688174625229,-0.0458984,-0.988281,-0.0166016
1480688174663331,-0.0444336,-0.983398,0.000488281
1480688174665837,-0.0410156,-0.972656,0.00537109
1480688174685390,-0.0473633,-0.986328,-0.00195313
1480688174707951,-0.0458984,-0.997559,-0.00634766
1480688174723491,-0.0742188,-0.975098,-0.0234375
1480688174759589,-0.0566406,-0.979004,-0.0175781
1480688174766605,-0.0297852,-0.984863,-0.00878906
1480688174790171,-0.0522461,-0.993164,-0.0224609
1480688174813231,-0.0498047,-0.983887,0.000488281
1480688174826265,-0.0473633,-0.97998,-0.0229492
1480688174842809,-0.050293,-0.983887,-0.0224609
1480688174865871,-0.0561523,-0.981934,-0.0239258
1480688174886925,-0.0581055,-0.97168,-0.0151367
1480688174903980,-0.0551758,-0.989746,-0.015625
1480688174941571,-0.0566406,-1.00049,-0.0224609
1480688174953603,-0.0517578,-0.995605,-0.0195313
1480688174966136,-0.0366211,-0.994629,-0.0200195
1480688174986691,-0.0375977,-0.966309,-0.019043
1480688175006243,-0.0415039,-0.967285,-0.0292969
1480688175023291,-0.0366211,-0.96582,-0.0209961
1480688175046850,-0.0478516,-0.978027,-0.0258789
1480688175073924,-0.0473633,-0.991211,-0.0268555
1480688175082946,-0.0517578,-0.993652,-0.0229492
1480688175107012,-0.0439453,-0.978027,-0.0224609
1480688175128066,-0.0473633,-0.96582,-0.0327148
1480688175143608,-0.050293,-0.977539,-0.0332031
1480688175172685,-0.0507813,-0.98584,-0.0292969
1480688175188729,-0.0625,-0.999023,-0.0307617
1480688175202264,-0.0595703,-1.00195,-0.0253906
1480688175240365,-0.0478516,-0.997559,-0.027832
1480688175255405,-0.0385742,-0.970215,-0.0214844
1480688175261924,-0.0366211,-0.95752,-0.0200195
1480688175285486,-0.0341797,-0.979004,-0.0195313
1480688175308045,-0.0488281,-0.994141,-0.0141602
1480688175322084,-0.0595703,-1.00781,-0.0205078
1480688175345144,-0.0561523,-0.994629,-0.0175781
1480688175367704,-0.0488281,-0.969238,-0.0209961
1480688175382243,-0.0512695,-0.960449,-0.0249023
1480688175412824,-0.0551758,-0.970215,-0.0258789
1480688175427864,-0.0493164,-0.989258,-0.0288086
1480688175450424,-0.0498047,-0.994141,-0.0170898
1480688175466467,-0.0576172,-0.992676,-0.0239258
1480688175488027,-0.0517578,-0.975098,-0.0229492
1480688175510082,-0.0429688,-0.974609,-0.0185547
1480688175539160,-0.0483398,-0.963379,-0.0180664
1480688175548184,-0.0512695,-0.980957,-0.0200195
1480688175570242,-0.0615234,-1.00537,-0.0229492
1480688175585283,-0.0620117,-1.00146,-0.0268555
1480688175607843,-0.0668945,-0.988281,-0.0258789
1480688175630403,-0.050293,-0.978027,-0.0170898
1480688175644943,-0.0405273,-0.969727,-0.00927734
1480688175668003,-0.0361328,-0.964355,-0.0234375
1480688175689059,-0.034668,-0.995605,-0.00976563
1480688175705101,-0.0405273,-1.00146,-0.0141602
1480688175728163,-0.0541992,-0.998047,-0.0229492
1480688175748718,-0.0576172,-0.976563,-0.0244141
1480688175772783,-0.0600586,-0.970215,-0.03125
1480688175793837,-0.0571289,-0.97168,-0.0268555
1480688175808879,-0.0605469,-0.986816,-0.0200195
1480688175825425,-0.0566406,-0.991211,-0.00878906
1480688175847981,-0.0566406,-0.990234,-0.0136719
1480688175876558,-0.0610352,-0.986328,-0.00488281
1480688175885080,-0.0488281,-0.989746,-0.012207
1480688175907640,-0.0507813,-0.979492,-0.0229492
1480688175928697,-0.0478516,-0.982422,-0.0102539
1480688175945240,-0.0512695,-0.990234,-0.00878906
1480688175967800,-0.0488281,-0.984863,-0.0117188
1480688175988857,-0.0483398,-0.996094,-0.00537109
1480688176005400,-0.0517578,-0.979492,-0.019043
1480688176029464,-0.0522461,-0.966797,-0.0234375
1480688176050520,-0.0512695,-0.967285,-0.0209961
1480688176072582,-0.0512695,-0.984863,-0.0200195
1480688176087618,-0.0507813,-0.997559,-0.0151367
1480688176110178,-0.0581055,-0.998535,-0.0175781
1480688176125218,-0.0493164,-0.983887,-0.0117188
1480688176148280,-0.043457,-0.981934,-0.0107422
1480688176170338,-0.046875,-0.971191,-0.0214844
1480688176184878,-0.0463867,-0.977539,-0.0117188
1480688176208439,-0.0556641,-0.992676,-0.0102539
1480688176238018,-0.0571289,-1,-0.0166016
1480688176244535,-0.0581055,-0.992676,-0.0239258
1480688176267597,-0.0483398,-0.980469,-0.0166016
1480688176306701,-0.0463867,-0.97168,-0.0195313
1480688176328258,-0.0507813,-0.96875,-0.0175781
1480688176330765,-0.0483398,-0.990723,-0.0288086
1480688176350819,-0.0595703,-0.999023,-0.015625
1480688176365858,-0.0581055,-0.995117,-0.0175781
1480688176387917,-0.0512695,-0.982422,-0.0126953
1480688176410477,-0.0483398,-0.976074,-0.0166016
1480688176432535,-0.046875,-0.973145,-0.019043
1480688176448078,-0.0473633,-0.984375,-0.0126953
1480688176470135,-0.0517578,-0.990234,-0.0161133
1480688176484675,-0.0541992,-0.994629,-0.0161133
1480688176515256,-0.0546875,-0.990723,-0.0166016
1480688176540323,-0.0527344,-0.97998,-0.0200195
1480688176551352,-0.0605469,-0.980469,-0.0268555
1480688176575416,-0.0634766,-0.982422,-0.0239258
1480688176605999,-0.0483398,-0.988281,-0.0161133
1480688176611011,-0.0595703,-0.98877,-0.0161133
1480688176627554,-0.0615234,-1.00098,-0.0151367
1480688176651118,-0.046875,-0.996582,-0.00732422
1480688176671170,-0.0327148,-0.966797,-0.000976563
1480688176687714,-0.0419922,-0.956055,-0.000488281
1480688176710274,-0.0546875,-0.96875,-0.00927734
1480688176731329,-0.0585938,-0.988281,-0.0180664
1480688176748876,-0.0532227,-1.00146,-0.0141602
1480688176770435,-0.0561523,-0.992676,-0.0146484
1480688176791615,-0.0561523,-0.979004,-0.015625
1480688176815052,-0.0512695,-0.969727,-0.0151367
1480688176832600,-0.0473633,-0.97998,-0.0141602
1480688176860173,-0.0527344,-0.991699,-0.00878906
1480688176875213,-0.0625,-0.992676,-0.00878906
1480688176904290,-0.0551758,-0.996582,-0.00976563
1480688176911308,-0.0561523,-0.982422,-0.012207
1480688176927854,-0.0498047,-0.971191,-0.0175781
1480688176950413,-0.0473633,-0.970215,-0.0131836
1480688176972973,-0.0517578,-0.986816,-0.0175781
1480688176994029,-0.0541992,-0.990234,-0.0229492
1480688177010072,-0.0629883,-0.996094,-0.0107422
1480688177049175,-0.0576172,-0.98291,-0.0126953
1480688177053687,-0.0537109,-0.965332,-0.0112305
1480688177070231,-0.0507813,-0.96875,-0.00878906
1480688177092792,-0.0478516,-0.980469,-0.00976563
1480688177115352,-0.0532227,-0.995605,-0.0117188
1480688177130893,-0.0566406,-1,-0.0107422
1480688177152952,-0.0629883,-0.98877,-0.0146484
1480688177175511,-0.0527344,-0.978027,-0.0102539
1480688177196066,-0.0439453,-0.970703,-0.00683594
1480688177212610,-0.0581055,-0.973633,-0.012207
1480688177228653,-0.0600586,-0.999512,-0.012207
1480688177250210,-0.0551758,-0.993652,-0.0126953
1480688177272770,-0.0517578,-0.989746,0.00244141
1480688177293826,-0.0458984,-0.977539,-0.00244141
1480688177310369,-0.0576172,-0.977539,-0.012207
1480688177332929,-0.059082,-0.977051,-0.00683594
1480688177347468,-0.0458984,-0.98291,-0.0102539
1480688177370029,-0.0537109,-0.983398,-0.0224609
1480688177393091,-0.0556641,-0.994141,-0.0170898
1480688177407130,-0.059082,-0.98584,-0.0209961
1480688177436205,-0.0605469,-0.973145,-0.0102539
1480688177458766,-0.0424805,-0.966309,-0.00585938
1480688177473807,-0.0322266,-0.983887,-0.0112305
1480688177490350,-0.0429688,-0.98291,-0.0141602
1480688177512908,-0.0673828,-0.989746,-0.0131836
1480688177533965,-0.0683594,-0.987793,-0.0102539
1480688177550008,-0.0649414,-0.978516,-0.0166016
1480688177579084,-0.0541992,-0.978027,-0.00390625
1480688177594125,-0.0444336,-0.980469,-0.0112305
1480688177623703,-0.0537109,-0.986328,-0.00976563
1480688177633229,-0.0605469,-0.994629,-0.00830078
1480688177661303,-0.0566406,-0.995605,-0.0107422
1480688177671831,-0.0561523,-0.978516,-0.0117188
1480688177692888,-0.0532227,-0.975098,-0.00683594
1480688177713943,-0.0512695,-0.976563,-0.00830078
1480688177730487,-0.0546875,-0.985352,-0.0185547
1480688177752546,-0.0532227,-0.993652,-0.0146484
1480688177774107,-0.0566406,-0.998047,-0.0136719
1480688177790146,-0.0576172,-0.992676,-0.0151367
1480688177814711,-0.0458984,-0.974609,-0.00634766
1480688177833761,-0.050293,-0.96875,-0.0141602
1480688177850305,-0.0585938,-0.978027,-0.0136719
1480688177872866,-0.0517578,-0.988281,-0.00878906
1480688177901442,-0.0517578,-0.989746,-0.0107422
1480688177910966,-0.0600586,-0.993164,-0.00927734
1480688177940563,-0.0703125,-0.987793,-0.0209961
1480688177972130,-0.0561523,-0.975098,-0.019043
1480688177976641,-0.0439453,-0.977051,-0.0170898
1480688177992685,-0.046875,-0.983398,-0.0166016
1480688178015244,-0.0483398,-0.992676,-0.0185547
1480688178038305,-0.0507813,-0.990234,-0.0166016
1480688178052845,-0.0585938,-0.981934,-0.0146484
1480688178081421,-0.0463867,-0.973633,-0.0214844
1480688178089442,-0.0439453,-0.974609,-0.0170898
1480688178113004,-0.0527344,-0.974121,-0.0146484
1480688178135064,-0.059082,-0.98877,-0.0107422
1480688178149602,-0.0605469,-1,-0.0146484
1480688178172663,-0.059082,-0.98877,-0.0131836
1480688178196225,-0.0585938,-0.980957,-0.015625
1480688178218284,-0.0629883,-0.978027,-0.0151367
1480688178246359,-0.0527344,-0.977051,-0.015625
1480688178255884,-0.0541992,-0.987305,-0.0136719
1480688178269421,-0.0546875,-1.00098,-0.0146484
1480688178294487,-0.059082,-1,-0.0146484
1480688178315042,-0.0581055,-0.98291,-0.0209961
1480688178336099,-0.0615234,-0.970215,-0.0180664
1480688178352641,-0.0605469,-0.97998,-0.0161133
1480688178375702,-0.0498047,-0.988281,-0.0180664
1480688178390744,-0.0537109,-0.991211,-0.0209961
1480688178412802,-0.0488281,-0.987793,-0.0180664
1480688178435364,-0.0571289,-0.979492,-0.015625
1480688178456421,-0.0581055,-0.972168,-0.0161133
1480688178478978,-0.0537109,-0.964844,-0.015625
1480688178503041,-0.0566406,-0.974609,-0.0117188
1480688178517580,-0.0585938,-0.992676,-0.0161133
1480688178538638,-0.0668945,-0.996094,-0.0126953
1480688178563703,-0.0634766,-0.994629,-0.0141602
1480688178583757,-0.0610352,-0.983887,-0.0107422
1480688178592780,-0.0488281,-0.974609,-0.0102539
1480688178615340,-0.0463867,-0.97168,-0.0107422
1480688178635895,-0.0541992,-0.978516,-0.0107422
1480688178652940,-0.0610352,-0.990234,-0.0131836
1480688178676002,-0.0620117,-0.996582,-0.0117188
1480688178696556,-0.065918,-0.990723,-0.0146484
1480688178712599,-0.0634766,-0.980957,-0.012207
1480688178735159,-0.0585938,-0.972656,-0.019043
1480688178756215,-0.0585938,-0.977051,-0.0175781
1480688178773260,-0.0449219,-0.987305,-0.00878906
1480688178802840,-0.0541992,-0.996582,-0.0166016
1480688178818882,-0.0493164,-0.991699,-0.0131836
1480688178849463,-0.0493164,-0.98291,-0.0166016
1480688178869014,-0.0473633,-0.970215,-0.00830078
1480688178877537,-0.0415039,-0.968262,-0.00683594
1480688178892076,-0.050293,-0.97998,-0.0112305
1480688178915137,-0.0629883,-0.992188,-0.0078125
1480688178939201,-0.0620117,-0.999023,-0.0131836
1480688178953239,-0.0581055,-0.98877,-0.0112305
1480688178975302,-0.0541992,-0.977539,-0.0141602
1480688178998366,-0.0537109,-0.969238,-0.00585938
1480688179026433,-0.0532227,-0.977539,-0.00634766
1480688179035458,-0.0522461,-0.988281,-0.00830078
1480688179058019,-0.0571289,-0.997559,-0.00732422
1480688179072057,-0.0527344,-0.990723,-0.00292969
1480688179095115,-0.050293,-0.979004,-0.00390625
1480688179118177,-0.050293,-0.969238,-0.0078125
1480688179132216,-0.0507813,-0.972168,-0.012207
1480688179155277,-0.0532227,-0.981445,-0.00634766
1480688179178337,-0.0532227,-0.995605,-0.00244141
1480688179192375,-0.0532227,-0.990723,-0.00390625
1480688179215436,-0.0561523,-0.981934,-0.00244141
1480688179237999,-0.0546875,-0.975586,-0.00537109
1480688179252033,-0.0532227,-0.973633,-0.00244141
1480688179275094,-0.0615234,-0.976563,-0.00390625
1480688179312694,-0.0507813,-0.994629,0.000976563
1480688179315202,-0.0595703,-0.998047,0.000488281
1480688179338765,-0.0541992,-0.991699,0.000976563
1480688179357818,-0.0458984,-0.980469,0
1480688179378871,-0.0454102,-0.971191,-0.00683594
1480688179395416,-0.0546875,-0.975586,0.00439453
1480688179417975,-0.0512695,-0.986328,-0.00488281
1480688179439031,-0.0595703,-0.992188,-0.00146484
1480688179455575,-0.0581055,-0.993652,-0.00390625
1480688179477633,-0.0517578,-0.98584,-0.00488281
1480688179500193,-0.0498047,-0.975586,-0.00537109
1480688179515233,-0.0424805,-0.975586,-0.00732422
1480688179537793,-0.0488281,-0.979492,-0.00830078
1480688179560353,-0.0522461,-0.986328,-0.00195313
1480688179575393,-0.0654297,-0.99707,0.00195313
1480688179605976,-0.0600586,-0.990723,-0.00390625
1480688179635554,-0.0556641,-0.986328,-0.00292969
1480688179638060,-0.0478516,-0.975098,0.0078125
1480688179657612,-0.0581055,-0.960449,0.00537109
1480688179680173,-0.059082,-0.977539,0.00244141
1480688179696715,-0.0546875,-0.997559,0.0112305
1480688179725292,-0.0595703,-0.981445,0.00195313
1480688179738828,-0.0473633,-0.97998,0.00390625
1480688179755372,-0.0439453,-0.980469,0.00634766
1480688179777933,-0.0473633,-0.973145,0.0107422
1480688179800492,-0.0517578,-0.97998,0.00732422
1480688179821548,-0.0620117,-0.98291,0.0107422
1480688179837591,-0.0668945,-0.991699,0.0117188
1480688179860652,-0.0629883,-0.999023,0.0117188
1480688179882710,-0.0600586,-0.983887,0.00683594
1480688179898252,-0.0566406,-0.979492,0.0141602
1480688179920311,-0.0551758,-0.989746,0.0126953
1480688179935350,-0.065918,-0.995117,0.00292969
1480688179957911,-0.074707,-1.00195,0.00195313
1480688179980470,-0.0751953,-0.986816,0.00439453
1480688179994508,-0.0649414,-0.998047,0.0107422
1480688180025100,-0.0654297,-0.979004,0.0166016
1480688180048651,-0.065918,-1.00879,0.0117188
1480688180079233,-0.0698242,-0.985352,0.0166016
1480688180081740,-0.0600586,-0.992676,0.0419922
1480688180101793,-0.03125,-0.966309,0.0644531
1480688180121345,-0.0258789,-0.952637,0.0776367
1480688180137889,-0.0229492,-0.945801,0.0893555
1480688180160449,-0.0258789,-0.959473,0.0947266
1480688180181505,-0.0380859,-0.979492,0.0874023
1480688180198049,-0.0361328,-0.981934,0.078125
1480688180220107,-0.0517578,-0.98291,0.0844727
1480688180248683,-0.0678711,-0.985352,0.0668945
1480688180257710,-0.0722656,-0.979492,0.0620117
1480688180281270,-0.0683594,-0.979492,0.0551758
1480688180302326,-0.0693359,-0.976074,0.0385742
1480688180325391,-0.0629883,-0.989258,0.0429688
1480688180346443,-0.0644531,-0.993652,0.03125
1480688180369003,-0.0727539,-0.998047,0.0273438
1480688180377526,-0.0688477,-0.987305,0.0224609
1480688180400086,-0.0600586,-0.965332,0.0244141
1480688180422646,-0.0546875,-0.96875,0.0263672
1480688180445206,-0.0561523,-0.986328,0.0292969
1480688180460246,-0.0600586,-0.998535,0.0405273
1480688180481302,-0.0649414,-0.98877,0.0449219
1480688180503862,-0.0756836,-0.984863,0.0439453
1480688180534944,-0.0737305,-0.980469,0.0429688
1480688180548481,-0.0742188,-0.978516,0.0375977
1480688180559511,-0.0620117,-0.985352,0.0439453
1480688180580065,-0.0527344,-0.984375,0.0522461
1480688180602625,-0.0556641,-0.987305,0.0595703
1480688180625687,-0.0625,-0.981445,0.0522461
1480688180647744,-0.0610352,-0.977539,0.0507813
1480688180678326,-0.0488281,-0.970215,0.0620117
1480688180680833,-0.0556641,-0.975098,0.050293
1480688180701889,-0.0708008,-0.983887,0.0517578
1480688180721443,-0.0703125,-0.995117,0.0405273
1480688180737485,-0.0644531,-0.991699,0.0493164
1480688180760043,-0.0620117,-0.981445,0.0385742
1480688180783104,-0.0610352,-0.974609,0.0424805
1480688180797643,-0.0615234,-0.970703,0.0429688
1480688180820203,-0.0615234,-0.980469,0.0410156
1480688180842763,-0.0605469,-0.991699,0.0449219
1480688180858304,-0.0688477,-0.98877,0.0405273
1480688180881366,-0.0610352,-0.980469,0.0512695
1480688180902924,-0.0610352,-0.977539,0.0366211
1480688180931499,-0.0537109,-0.977539,0.0415039
1480688180948545,-0.0498047,-0.971191,0.0419922
1480688180977623,-0.0649414,-0.991699,0.0424805
1480688180982134,-0.0751953,-0.99707,0.0375977
1480688181000684,-0.0717773,-0.984863,0.0371094
1480688181022749,-0.0703125,-0.972168,0.0385742
1480688181043797,-0.0629883,-0.965332,0.0439453
1480688181060342,-0.0551758,-0.972656,0.0410156
1480688181090422,-0.0585938,-0.981445,0.0410156
1480688181105462,-0.0600586,-0.987793,0.0458984
1480688181120503,-0.0668945,-0.976074,0.0366211
1480688181142560,-0.0708008,-0.975098,0.0385742
1480688181163617,-0.0708008,-0.967773,0.0292969
1480688181180160,-0.0708008,-0.97998,0.0283203
1480688181202721,-0.0722656,-0.995605,0.0209961
1480688181225284,-0.0683594,-1.00586,0.0170898
1480688181247840,-0.0717773,-1.00928,0.0244141
1480688181262880,-0.0605469,-0.995117,0.0263672
1480688181283939,-0.0629883,-0.966309,0.027832
1480688181300480,-0.0668945,-0.958008,0.0297852
1480688181322540,-0.0620117,-0.967285,0.0297852
1480688181343595,-0.0668945,-0.986328,0.0268555
1480688181361141,-0.0766602,-0.998047,0.0292969
1480688181382700,-0.0839844,-0.983887,0.0146484
1480688181403755,-0.0795898,-0.987305,0.0112305
1480688181420299,-0.0639648,-0.980957,0.00488281
1480688181448373,-0.0717773,-0.976563,0.00488281
1480688181463915,-0.081543,-0.989746,0.000488281
1480688181481462,-0.0795898,-1.00342,-0.00195313
1480688181504023,-0.0751953,-1.00879,-0.00537109
1480688181526583,-0.0732422,-0.990723,0.000976563
1480688181540119,-0.0703125,-0.966797,0.00585938
1480688181563680,-0.0708008,-0.952637,0.00683594
1480688181583734,-0.0605469,-0.966797,0.00830078
1480688181600278,-0.0688477,-0.987305,0.00732422
1480688181623339,-0.0805664,-0.997559,0.00244141
1480688181643893,-0.0737305,-1.00293,0.00976563
1480688181660437,-0.0712891,-0.990723,0.0161133
1480688181682998,-0.0776367,-0.96875,0.0175781
1480688181705061,-0.0766602,-0.96582,0.0146484
1480688181720097,-0.0786133,-0.986816,0.0161133
1480688181742656,-0.0898438,-0.999512,0.0195313
1480688181765217,-0.0942383,-1.00342,0.00927734
1480688181788779,-0.0908203,-1.00098,-0.00292969
1480688181802315,-0.0878906,-0.98877,0.000488281
1480688181825378,-0.0654297,-0.979004,0
1480688181839915,-0.0532227,-0.964844,0.000976563
1480688181876512,-0.0644531,-0.963867,0.00732422
1480688181900075,-0.0668945,-0.970703,0.0078125
1480688181902581,-0.0664063,-0.969727,0.0180664
1480688181924139,-0.0742188,-0.964844,0.0146484
1480688181946699,-0.0727539,-0.971191,0.0102539
1480688181959735,-0.0664063,-0.975586,0.0112305
1480688181990315,-0.0688477,-0.986816,0.0224609
1480688182011371,-0.0717773,-0.997559,0.0224609
1480688182035435,-0.078125,-0.994141,0.0205078
1480688182042955,-0.0791016,-0.982422,0.0205078
1480688182065515,-0.0761719,-0.968262,0.0141602
1480688182086069,-0.0717773,-0.967285,0.0175781
1480688182110133,-0.0717773,-0.974609,0.0151367
1480688182132701,-0.0917969,-0.983887,0.00878906
1480688182139714,-0.106934,-0.991211,-0.00292969
1480688182170293,-0.0913086,-1.00049,-0.00927734
1480688182192853,-0.0717773,-0.990723,0.00341797
1480688182205889,-0.0620117,-0.984375,0.0107422
1480688182222934,-0.0703125,-0.975586,0.0131836
1480688182245995,-0.0791016,-0.976563,0.0170898
1480688182267552,-0.0791016,-0.978027,0.0117188
1480688182290615,-0.0839844,-0.994629,0.012207
1480688182321195,-0.0844727,-0.98877,0.015625
1480688182326208,-0.0712891,-0.98291,0.0239258
1480688182344256,-0.0717773,-0.971191,-0.00292969
1480688182365312,-0.0844727,-0.974609,0.0078125
1480688182389378,-0.0654297,-0.994141,0.0078125
1480688182405419,-0.081543,-1.0083,0.0107422
1480688182425472,-0.0844727,-0.995117,0.00341797
1480688182446528,-0.0981445,-0.967285,0.00146484
1480688182462571,-0.0957031,-0.962891,0.00537109
1480688182492651,-0.0668945,-0.971191,0.00732422
1480688182506191,-0.0664063,-0.992676,0.015625
1480688182522730,-0.0800781,-0.999512,0.0166016
1480688182552810,-0.0800781,-0.994141,0.019043
1480688182574367,-0.0727539,-0.984375,0.0180664
1480688182590915,-0.0678711,-0.969727,0.0229492
1480688182620991,-0.0698242,-0.96875,0.0244141
1480688182645056,-0.0795898,-0.977539,0.0205078
1480688182658592,-0.0864258,-0.989746,0.0229492
1480688182665109,-0.0859375,-1,0.0195313
1480688182687669,-0.0825195,-0.984863,0.0175781
1480688182703210,-0.0800781,-0.970215,0.0200195
1480688182727275,-0.0791016,-0.967285,0.0180664
1480688182747829,-0.0708008,-0.973633,0.0131836
1480688182762870,-0.0712891,-0.985352,0.0175781
1480688182791947,-0.0830078,-0.991699,0.0288086
1480688182807989,-0.0766602,-0.988281,0.0244141
1480688182822528,-0.0742188,-0.981445,0.0292969
1480688182845087,-0.0756836,-0.977539,0.0224609
1480688182867648,-0.0688477,-0.973145,0.0161133
1480688182891212,-0.0732422,-0.98584,0.0136719
1480688182912768,-0.0766602,-0.98877,0.0219727
1480688182942848,-0.0786133,-0.989258,0.0161133
1480688182944853,-0.0834961,-0.982422,0.0185547
1480688182965408,-0.0771484,-0.975586,0.0146484
1480688182987969,-0.074707,-0.969238,0.0234375
1480688183002005,-0.0712891,-0.976074,0.0224609
1480688183026069,-0.0810547,-0.983398,0.0175781
1480688183047627,-0.078125,-0.995117,0.015625
1480688183062165,-0.0727539,-0.990723,0.0195313
1480688183085226,-0.0751953,-0.980957,0.0268555
1480688183107786,-0.0708008,-0.976074,0.0244141
1480688183129345,-0.0683594,-0.976074,0.0175781
1480688183151402,-0.0703125,-0.979004,0.0205078
1480688183168949,-0.0771484,-0.98291,0.0200195
1480688183197023,-0.0805664,-0.987305,0.0166016
1480688183205546,-0.0751953,-0.981934,0.0170898
1480688183228106,-0.0761719,-0.976074,0.0200195
1480688183249163,-0.0712891,-0.972168,0.0112305
1480688183265205,-0.0698242,-0.975098,0.019043
1480688183287765,-0.074707,-0.983398,0.0195313
1480688183308821,-0.0727539,-0.992676,0.0209961
1480688183333386,-0.0742188,-0.981934,0.0249023
1480688183355446,-0.0722656,-0.979492,0.0141602
1480688183376500,-0.0634766,-0.974609,0.0195313
1480688183385525,-0.0712891,-0.970703,0.0253906
1480688183407083,-0.0834961,-0.976074,0.027832
1480688183413099,-0.0932617,-0.984863,0.015625
1480688183435660,-0.0825195,-0.993652,0.0151367
1480688183450699,-0.0800781,-0.995605,0.00976563
1480688183474763,-0.0732422,-0.987305,0.00878906
1480688183497322,-0.0664063,-0.983398,0.0112305
1480688183526902,-0.074707,-0.983398,0.00634766
1480688183533418,-0.081543,-0.981934,0.0146484
1480688183556982,-0.081543,-0.985352,0.0102539
1480688183570517,-0.0810547,-0.976563,0.0102539
1480688183593080,-0.0791016,-0.974121,0.00878906
1480688183632682,-0.0751953,-0.976563,0.0078125
1480688183637194,-0.0712891,-0.978027,0.00732422
1480688183653236,-0.0791016,-0.98584,0.0126953
1480688183684319,-0.0805664,-0.992676,0.00195313
1480688183698357,-0.0795898,-0.98291,0.00195313
1480688183713397,-0.081543,-0.977539,0.00195313
1480688183744479,-0.0751953,-0.981934,0.000976563
1480688183750495,-0.0717773,-0.984863,0
1480688183773055,-0.0688477,-0.993652,0.00244141
1480688183795615,-0.0791016,-0.990234,0.00390625
1480688183819679,-0.0854492,-0.988281,0.00146484
1480688183837728,-0.0810547,-0.984375,0.00195313
1480688183855777,-0.078125,-0.968262,0.00146484
1480688183870816,-0.0737305,-0.969727,0.00244141
1480688183893397,-0.0761719,-0.981934,-0.00244141
1480688183915434,-0.0737305,-0.992188,0.00341797
1480688183931979,-0.0756836,-0.98584,0.00341797
1480688183953034,-0.0800781,-0.979004,0.000976563
1480688183978603,-0.0712891,-0.978027,-0.00244141
1480688184007177,-0.0751953,-0.975586,0.00830078
1480688184013194,-0.074707,-0.970703,0.00341797
1480688184043774,-0.0742188,-0.984375,-0.000976563
1480688184052298,-0.0820313,-0.990723,0.00634766
1480688184073354,-0.0825195,-0.992188,0.00585938
1480688184096917,-0.0795898,-0.977539,0.0107422
1480688184119477,-0.0727539,-0.979004,0.00585938
1480688184143040,-0.0717773,-0.978516,0.00244141
1480688184166603,-0.0717773,-0.980469,0
1480688184179637,-0.0766602,-0.992188,0.00976563
1480688184209717,-0.0791016,-0.999023,0.00439453
1480688184215733,-0.0864258,-0.988281,0.00634766
1480688184233781,-0.0834961,-0.974609,0.00878906
1480688184257347,-0.0810547,-0.967285,0.00585938
1480688184279903,-0.0766602,-0.98584,0.00585938
1480688184299456,-0.0761719,-0.993652,0.00585938
1480688184312990,-0.0737305,-0.995117,0.00292969
1480688184344575,-0.0727539,-0.984863,0.00341797
1480688184352096,-0.0673828,-0.962402,0.0117188
1480688184374655,-0.074707,-0.95752,0.00927734
1480688184400224,-0.0810547,-0.970215,0.00390625
1480688184422282,-0.0751953,-0.988281,-0.000976563
1480688184443337,-0.0756836,-0.995605,0.00488281
1480688184455872,-0.0830078,-0.989746,0.00976563
1480688184489963,-0.0839844,-0.980957,0.0107422
1480688184501995,-0.0776367,-0.976563,0.0126953
1480688184515530,-0.0786133,-0.97168,0.0136719
1480688184534079,-0.0825195,-0.978027,0.0126953
1480688184556140,-0.0874023,-0.990234,0.00878906
1480688184586220,-0.0844727,-0.999512,0.00830078
1480688184609280,-0.0771484,-0.990234,0.0107422
1480688184613290,-0.0708008,-0.971191,0.0146484
1480688184635850,-0.0761719,-0.965332,0.0141602
1480688184674954,-0.0786133,-0.973145,0.00146484
1480688184677460,-0.0756836,-0.991699,0.000976563
1480688184698517,-0.0820313,-1.00049,0.00244141
1480688184721078,-0.0830078,-0.985352,0.00244141
1480688184750153,-0.078125,-0.981934,0.00292969
1480688184755672,-0.0776367,-0.97168,0.00732422
1480688184778228,-0.0766602,-0.96875,-0.000488281
1480688184793269,-0.0776367,-0.980469,0.00195313
1480688184815828,-0.0805664,-0.990723,0.00683594
1480688184839893,-0.0869141,-0.98877,-0.00341797
1480688184861952,-0.0820313,-0.990723,0.00439453
1480688184876991,-0.0825195,-0.980469,0.00537109
1480688184911081,-0.0737305,-0.97998,0.0102539
1480688184914591,-0.0795898,-0.979492,0.00439453
1480688184951689,-0.0913086,-0.991699,0.00634766
1480688184958207,-0.0922852,-1.00049,-0.00244141
1480688184973247,-0.0825195,-0.989746,0.00390625
1480688184998815,-0.0864258,-0.976074,0.00878906
1480688185026889,-0.0742188,-0.966797,0.00292969
1480688185033407,-0.0629883,-0.975586,0.0112305
1480688185062985,-0.0678711,-0.985352,0.0117188
1480688185078026,-0.0766602,-0.994141,0.00341797
1480688185093066,-0.0830078,-0.993164,0.00439453
1480688185115625,-0.0688477,-0.970703,0.019043
1480688185138189,-0.0698242,-0.960938,0.0166016
1480688185160745,-0.0742188,-0.970703,0.0185547
1480688185183305,-0.074707,-0.978516,0.0151367
1480688185206368,-0.0751953,-0.986328,0.019043
1480688185221912,-0.0908203,-0.992676,0.0253906
1480688185235445,-0.0922852,-0.991699,0.0214844
1480688185258004,-0.0830078,-0.96875,0.0258789
1480688185274548,-0.0751953,-0.966797,0.027832
1480688185295605,-0.0625,-0.97168,0.0253906
1480688185329193,-0.0703125,-0.984863,0.0209961
1480688185340729,-0.0776367,-0.996582,0.0239258
1480688185363283,-0.0727539,-0.98877,0.0229492
1480688185378324,-0.0771484,-0.978027,0.0151367
1480688185394868,-0.078125,-0.96582,0.0253906
1480688185415422,-0.0737305,-0.970215,0.0175781
1480688185446505,-0.0756836,-0.976563,0.019043
1480688185462046,-0.0776367,-0.980469,0.019043
1480688185483102,-0.0834961,-0.99707,0.0205078
1480688185501151,-0.0727539,-0.98877,0.019043
1480688185520703,-0.0761719,-0.978027,0.0170898
1480688185535743,-0.078125,-0.97168,0.0166016
1480688185558303,-0.0751953,-0.976563,0.0180664
1480688185575850,-0.0786133,-0.986328,0.0239258
1480688185595401,-0.0839844,-0.983398,0.0253906
1480688185620970,-0.090332,-0.978027,0.0180664
1480688185636009,-0.0864258,-0.985352,0.0224609
1480688185672609,-0.0737305,-0.980469,0.0170898
1480688185678121,-0.0761719,-0.971191,0.0141602
1480688185696170,-0.074707,-0.982422,0.0205078
1480688185718729,-0.081543,-0.984375,0.0239258
1480688185741288,-0.0810547,-0.984863,0.0268555
1480688185760842,-0.0810547,-0.972656,0.0180664
1480688185778889,-0.0805664,-0.96582,0.0166016
1480688185805964,-0.0693359,-0.972168,0.00927734
1480688185815988,-0.0678711,-0.982422,0.00439453
1480688185843561,-0.0791016,-0.989258,0.00683594
1480688185858100,-0.0859375,-1.00391,0.000976563
1480688185876148,-0.0883789,-0.99707,0.00244141
1480688185895701,-0.0888672,-0.985352,0
1480688185918260,-0.0874023,-0.96875,0.00244141
1480688185940819,-0.0859375,-0.96875,0.00195313
1480688185962879,-0.081543,-0.976563,0.00732422
1480688185985438,-0.0825195,-0.994141,-0.0078125
1480688185995966,-0.0834961,-0.994629,-0.000976563
1480688186017022,-0.0820313,-0.986816,0.00390625
1480688186041086,-0.0732422,-0.976074,0.00585938
1480688186056128,-0.0805664,-0.969238,0.00927734
1480688186077182,-0.0771484,-0.976074,-0.00390625
1480688186098239,-0.0849609,-0.991699,-0.00146484
1480688186129322,-0.0878906,-0.993652,0.00146484
1480688186135839,-0.0854492,-0.986328,0.00292969
1480688186158398,-0.0791016,-0.976074,0.00146484
1480688186181960,-0.0830078,-0.974609,-0.00390625
1480688186197003,-0.0888672,-0.980957,-0.00634766
1480688186227083,-0.0893555,-0.990234,-0.015625
1480688186243625,-0.0864258,-0.998535,-0.00292969
1480688186273204,-0.0844727,-1.00537,0.00830078
1480688186295262,-0.0771484,-0.986328,0.0131836
1480688186308799,-0.0756836,-0.959961,0.0166016
1480688186316820,-0.0727539,-0.95459,0.0200195
1480688186339382,-0.0766602,-0.971191,0.0229492
1480688186360435,-0.0786133,-0.989258,0.0166016
1480688186376979,-0.0786133,-1.00537,0.0185547
1480688186398036,-0.0732422,-0.98877,0.0224609
1480688186420596,-0.0795898,-0.967285,0.0229492
1480688186438645,-0.0771484,-0.965332,0.015625
1480688186458196,-0.0761719,-0.971191,0.0209961
1480688186482259,-0.0805664,-0.984863,0.0112305
1480688186503817,-0.0805664,-0.980957,0.0253906
1480688186528383,-0.0727539,-0.969727,0.0332031
1480688186547934,-0.0864258,-0.955566,0.0180664
1480688186565982,-0.0942383,-0.966309,0.0151367
1480688186585534,-0.0766602,-0.988281,-0.00341797
1480688186617619,-0.0791016,-1.00391,-0.0102539
1480688186620127,-0.0854492,-1.00244,-0.00830078
1480688186638176,-0.0913086,-0.996094,-0.000488281
1480688186662240,-0.0874023,-0.987793,-0.00683594
1480688186678782,-0.0839844,-0.977051,-0.00488281
1480688186705858,-0.0986328,-0.966309,-0.0131836
1480688186727914,-0.0913086,-0.976563,-0.0175781
1480688186739944,-0.0869141,-0.994629,-0.00976563
1480688186761502,-0.0869141,-0.999023,-0.00537109
1480688186783561,-0.0952148,-0.993652,-0.00830078
1480688186806123,-0.0922852,-0.987793,-0.00732422
1480688186827177,-0.0708008,-0.981445,0.00390625
1480688186843720,-0.0737305,-0.965332,0.012207
1480688186873299,-0.0830078,-0.958008,0.0141602
1480688186894355,-0.0776367,-0.971191,0.0136719
1480688186918420,-0.081543,-0.994629,0.0078125
1480688186920926,-0.0766602,-0.999512,0.00439453
1480688186937971,-0.0771484,-0.979492,0.015625
1480688186968052,-0.0810547,-0.968262,0.00390625
1480688186978579,-0.0786133,-0.964844,0.00244141
1480688187005655,-0.0844727,-0.979492,0.0136719
1480688187028213,-0.0834961,-0.98877,0.0117188
1480688187038741,-0.0795898,-0.989258,0.0136719
1480688187058291,-0.0751953,-0.978027,0.00830078
1480688187082857,-0.0805664,-0.978516,0.0161133
1480688187102910,-0.0751953,-0.969727,0.015625
1480688187128478,-0.0800781,-0.983887,0.0185547
1480688187151038,-0.0864258,-0.993652,0.0112305
1480688187168083,-0.0839844,-0.995605,0.0112305
1480688187179615,-0.0878906,-0.988281,0.0078125
1480688187200670,-0.078125,-0.975098,0.0170898
1480688187219220,-0.0771484,-0.970215,0.0205078
1480688187239774,-0.0732422,-0.975586,0.0219727
1480688187268350,-0.0820313,-0.991699,0.0126953
1480688187278377,-0.0722656,-0.979492,0.0288086
1480688187299433,-0.0742188,-0.960938,0.0166016
1480688187320491,-0.0810547,-0.968262,0.0307617
1480688187338543,-0.0839844,-0.97998,-0.00634766
1480688187359593,-0.0805664,-0.977539,-0.00439453
1480688187380648,-0.0703125,-0.999023,0.000976563
1480688187420255,-0.0766602,-1.01367,-0.00732422
1480688187427273,-0.0913086,-0.992676,-0.00390625
1480688187448346,-0.0917969,-0.961426,0.000976563
1480688187465875,-0.0922852,-0.956543,-0.0136719
1480688187486931,-0.0883789,-0.978027,-0.00244141
1480688187507986,-0.0834961,-0.993652,-0.0141602
1480688187518515,-0.0825195,-0.998535,-0.0078125
1480688187541075,-0.0830078,-0.990723,-0.00585938
1480688187562132,-0.0878906,-0.983887,0
1480688187592211,-0.0898438,-0.97998,0.000488281
1480688187601235,-0.0771484,-0.982422,-0.0131836
1480688187620788,-0.0830078,-0.995117,0.00195313
1480688187650868,-0.0786133,-0.977539,0.00537109
1480688187660894,-0.0776367,-0.977051,0.019043
1480688187680445,-0.0893555,-0.979004,0.0161133
1480688187703006,-0.0874023,-0.984375,0.00341797
1480688187728574,-0.0751953,-0.984375,0.00976563
1480688187740605,-0.0654297,-0.973145,0.00488281
1480688187763166,-0.0830078,-0.968262,0.00585938
1480688187787230,-0.0810547,-0.980957,0.00585938
1480688187800766,-0.0825195,-0.98877,0.00732422
1480688187823326,-0.0859375,-0.983887,0.00878906
1480688187840873,-0.0825195,-0.972168,0.00585938
1480688187863432,-0.0756836,-0.970215,0.00830078
1480688187890504,-0.0742188,-0.971191,0.0078125
1480688187906548,-0.0751953,-0.976563,0.015625
1480688187928104,-0.0756836,-0.980469,0.0175781
1480688187950664,-0.0864258,-0.983887,0.012207
1480688187962195,-0.0830078,-0.974609,0.00585938
1480688187983753,-0.0908203,-0.977051,-0.00537109
1480688188003304,-0.0888672,-0.986328,-0.00537109
1480688188042910,-0.0854492,-0.989746,-0.00878906
1480688188047923,-0.090332,-0.998047,-0.00439453
1480688188062963,-0.0927734,-0.996094,-0.00537109
1480688188081011,-0.0942383,-0.98291,-0.00830078
1480688188103069,-0.0874023,-0.972168,-0.00195313
1480688188126131,-0.0795898,-0.974121,-0.00585938
1480688188141171,-0.0820313,-0.968262,-0.00390625
1480688188171251,-0.0869141,-0.986328,-0.00683594
1480688188186291,-0.0888672,-0.994141,0
1480688188209353,-0.0893555,-0.987793,-0.00390625
1480688188229406,-0.0839844,-0.981934,-0.00683594
1480688188250462,-0.0839844,-0.978027,-0.00878906
1480688188260990,-0.0786133,-0.977051,-0.00537109
1480688188282048,-0.0786133,-0.97998,0.00390625
1480688188303102,-0.0839844,-0.985352,0.000488281
1480688188328670,-0.0849609,-0.986328,-0.000488281
1480688188342206,-0.0795898,-0.980957,0.000488281
1480688188370782,-0.0727539,-0.975098,-0.00439453
1480688188381309,-0.0742188,-0.97168,0.0078125
1480688188403369,-0.0800781,-0.980469,0.00537109
1480688188422921,-0.0908203,-0.986816,0.00488281
1480688188448488,-0.0947266,-0.994141,0.00341797
1480688188468041,-0.0927734,-0.986328,-0.00634766
1480688188486088,-0.0805664,-0.976074,-0.00634766
1480688188514664,-0.0834961,-0.976074,0.00537109
1480688188539732,-0.0825195,-0.975586,0.0112305
1480688188544744,-0.081543,-0.986328,0.000976563
1480688188561289,-0.0893555,-0.994141,0.0078125
1480688188583848,-0.0917969,-0.987793,0.00585938
1480688188602899,-0.0864258,-0.977539,0.00341797
1480688188621950,-0.0786133,-0.973633,0.00585938
1480688188646515,-0.0776367,-0.973145,0.00292969
1480688188670580,-0.0795898,-0.981934,0.00244141
1480688188681106,-0.0864258,-0.986328,0.00683594
1480688188703667,-0.0849609,-0.992676,0.00634766
1480688188724724,-0.0854492,-0.987793,-0.00488281
1480688188741768,-0.0854492,-0.976074,0.00341797
1480688188763827,-0.0810547,-0.962402,0.00390625
1480688188797416,-0.0830078,-0.973145,0.00732422
1480688188802429,-0.0854492,-0.990723,-0.000488281
1480688188838529,-0.0874023,-0.994629,-0.00390625
1480688188850559,-0.0834961,-0.98584,-0.00292969
1480688188861085,-0.0825195,-0.973633,0.00146484
1480688188883646,-0.0810547,-0.968262,-0.00292969
1480688188903197,-0.0839844,-0.97168,0.0107422
1480688188921248,-0.0820313,-0.983398,0.00585938
1480688188949822,-0.090332,-0.995605,0.00439453
1480688188964360,-0.0927734,-0.996094,0.00195313
1480688188980904,-0.0869141,-0.981934,0.00195313
1480688189003464,-0.0805664,-0.97168,0.00488281
1480688189024520,-0.081543,-0.96582,0.00537109
1480688189043573,-0.0830078,-0.983398,0.00292969
1480688189063624,-0.0859375,-0.993652,0.00390625
1480688189093704,-0.0883789,-0.996094,-0.00244141
1480688189114760,-0.0893555,-0.985352,0.00341797
1480688189140829,-0.0825195,-0.977051,-0.00244141
1480688189144843,-0.0810547,-0.964844,0.00634766
1480688189165395,-0.0791016,-0.966309,0.0112305
1480688189183443,-0.0869141,-0.98584,0.00634766
1480688189204498,-0.0883789,-0.999023,0.00488281
1480688189225555,-0.0810547,-0.990723,0.0131836
1480688189256137,-0.090332,-0.97168,0.00244141
1480688189272179,-0.0766602,-0.970215,0.00146484
1480688189285715,-0.0722656,-0.976563,0.00195313
1480688189304265,-0.0786133,-0.989258,0.00195313
1480688189324819,-0.0883789,-0.993652,-0.00146484
1480688189345875,-0.0898438,-0.990234,0.00341797
1480688189370941,-0.0830078,-0.979492,-0.00683594
1480688189394003,-0.0825195,-0.977539,0.00195313
1480688189414559,-0.081543,-0.969238,-0.00830078
1480688189423583,-0.0825195,-0.983887,-0.0126953
1480688189448147,-0.0844727,-0.990723,-0.00439453
1480688189465694,-0.0917969,-0.992188,0.00195313
1480688189483741,-0.090332,-0.986816,-0.00683594
1480688189507806,-0.0825195,-0.980957,-0.00146484
1480688189532873,-0.0825195,-0.971191,0.000488281
1480688189543400,-0.0771484,-0.97168,0.000488281
1480688189566461,-0.0791016,-0.978516,0.000488281
1480688189593032,-0.081543,-0.992188,-0.00390625
1480688189603560,-0.078125,-0.994629,-0.0078125
1480688189626120,-0.0830078,-0.986816,-0.00195313
1480688189645671,-0.0771484,-0.973145,-0.00634766
1480688189671248,-0.0795898,-0.970703,-0.00195313
1480688189692296,-0.0830078,-0.974121,-0.00195313
1480688189705833,-0.0893555,-0.994629,-0.00830078
1480688189723379,-0.0917969,-0.997559,0.000488281
1480688189745938,-0.0932617,-0.995605,-0.00488281
1480688189765992,-0.0849609,-0.974609,0
1480688189783538,-0.0698242,-0.967285,-0.00585938
1480688189810612,-0.0810547,-0.970703,-0.00488281
1480688189825650,-0.0888672,-0.987793,-0.000488281
1480688189843698,-0.0874023,-0.992676,0.00439453
1480688189880797,-0.0825195,-0.988281,-0.00146484
1480688189893330,-0.0839844,-0.977539,-0.00244141
1480688189903358,-0.0800781,-0.972656,-0.00390625
1480688189925918,-0.0771484,-0.975586,-0.00683594
1480688189948477,-0.0854492,-0.978516,-0.0117188
1480688189968029,-0.0888672,-0.986816,-0.00439453
1480688189990590,-0.0874023,-0.989746,-0.000488281
1480688190013149,-0.0888672,-0.98291,0.000976563
1480688190023678,-0.0834961,-0.974121,-0.00341797
1480688190059271,-0.078125,-0.97168,-0.00341797
1480688190067294,-0.0810547,-0.978027,-0.00683594
1480688190088850,-0.0830078,-0.985352,-0.0136719
1480688190111913,-0.0864258,-0.997559,-0.0136719
1480688190126952,-0.0913086,-0.991699,-0.0112305
1480688190156531,-0.0869141,-0.979492,-0.00585938
1480688190174077,-0.0839844,-0.96875,-0.00634766
1480688190204157,-0.0893555,-0.968262,-0.0170898
1480688190205660,-0.0878906,-0.986328,-0.00878906
1480688190226215,-0.0898438,-0.98877,-0.0107422
1480688190247271,-0.0913086,-0.992676,-0.00830078
1480688190268327,-0.0800781,-0.988281,-0.00488281
1480688190292893,-0.0825195,-0.972168,-0.00878906
1480688190324478,-0.0913086,-0.965332,-0.00927734
1480688190328988,-0.0854492,-0.984375,-0.012207
1480688190345031,-0.0917969,-0.993652,-0.00732422
1480688190367591,-0.0996094,-1.00244,-0.00976563
1480688190390153,-0.0991211,-0.984375,-0.012207
1480688190405196,-0.09375,-0.976563,-0.0107422
1480688190427752,-0.0878906,-0.983398,-0.0131836
1480688190457832,-0.0908203,-0.980957,-0.0112305
1480688190480391,-0.0996094,-0.967773,-0.0195313
1480688190493927,-0.0932617,-0.978516,-0.00927734
1480688190516487,-0.09375,-0.997559,-0.00146484
1480688190525512,-0.0722656,-0.98877,-0.00976563
1480688190547570,-0.0727539,-0.975098,-0.0102539
1480688190568627,-0.0673828,-0.976563,-0.00244141
1480688190585170,-0.0771484,-0.981934,-0.00878906
1480688190615752,-0.0786133,-0.982422,-0.00341797
1480688190629287,-0.0893555,-0.992676,-0.0117188
1480688190645329,-0.0893555,-0.986328,-0.00585938
1480688190668392,-0.0922852,-0.97998,-0.0175781
1480688190688946,-0.0932617,-0.974121,-0.0185547
1480688190704989,-0.0820313,-0.97168,-0.00976563
1480688190736573,-0.0869141,-0.979492,-0.00146484
1480688190750109,-0.0893555,-0.989746,-0.0117188
1480688190772669,-0.0883789,-0.989258,-0.0126953
1480688190787711,-0.0844727,-0.979492,-0.0112305
1480688190810268,-0.0922852,-0.970703,-0.012207
1480688190825309,-0.0864258,-0.97168,-0.00683594
1480688190847868,-0.0791016,-0.976074,0.000488281
1480688190868924,-0.090332,-0.986816,-0.0078125
1480688190886472,-0.0888672,-0.992676,-0.0102539
1480688190907527,-0.0859375,-0.988281,-0.00585938
1480688190936104,-0.0883789,-0.970215,-0.012207
1480688190946131,-0.078125,-0.975098,-0.00976563
1480688190967688,-0.0800781,-0.979004,-0.00830078
1480688190991251,-0.0834961,-0.995117,-0.00634766
1480688191006791,-0.081543,-0.992188,-0.00439453
1480688191028350,-0.0849609,-0.993652,-0.00292969
1480688191056424,-0.0820313,-0.979004,-0.00439453
1480688191064948,-0.0732422,-0.968262,0
1480688191094023,-0.0727539,-0.970215,-0.00585938
1480688191109564,-0.0830078,-0.982422,-0.0078125
1480688191125107,-0.0776367,-0.98877,-0.0141602
1480688191153683,-0.0805664,-0.991699,-0.0170898
1480688191177745,-0.0859375,-0.98584,-0.00683594
1480688191185266,-0.0825195,-0.975586,-0.00683594
1480688191221865,-0.0791016,-0.969238,-0.00634766
1480688191229383,-0.0761719,-0.979004,-0.00195313
1480688191245425,-0.0834961,-0.991211,-0.00244141
1480688191267987,-0.0825195,-0.990723,0.000488281
1480688191290546,-0.081543,-0.994141,-0.00146484
1480688191305587,-0.0751953,-0.973633,-0.00976563
1480688191334163,-0.0722656,-0.969727,-0.00732422
1480688191357724,-0.0751953,-0.970215,-0.00732422
1480688191371264,-0.0761719,-0.982422,-0.00341797
1480688191387806,-0.0839844,-0.995605,-0.000976563
1480688191410364,-0.0849609,-0.994629,-0.00146484
1480688191431922,-0.0825195,-0.986816,0.00146484
1480688191447462,-0.0786133,-0.973633,0.00244141
1480688191494088,-0.0756836,-0.974609,-0.00195313
1480688191498599,-0.0722656,-0.981445,-0.0102539
1480688191515143,-0.0688477,-0.989746,0
1480688191530183,-0.078125,-0.984863,-0.00195313
1480688191544721,-0.078125,-0.981445,0.000488281
1480688191567783,-0.081543,-0.971191,-0.00341797
1480688191590344,-0.0771484,-0.970215,-0.00390625
1480688191604882,-0.0795898,-0.973145,-0.0078125
1480688191635463,-0.0854492,-0.991211,0.00830078
1480688191657021,-0.0908203,-0.994141,-0.00292969
1480688191671561,-0.0927734,-0.991211,0.00195313
1480688191687602,-0.0864258,-0.983398,0.00146484
1480688191710161,-0.0756836,-0.97168,-0.00195313
1480688191731218,-0.0737305,-0.977051,-0.00585938
1480688191756786,-0.0800781,-0.98291,-0.012207
1480688191776338,-0.0839844,-0.993652,0
1480688191792380,-0.0854492,-0.994141,-0.00488281
1480688191808925,-0.0913086,-0.981934,-0.00341797
1480688191830482,-0.0800781,-0.96875,-0.00927734
1480688191851036,-0.0766602,-0.97168,-0.00244141
1480688191867580,-0.0766602,-0.982422,-0.00537109
1480688191890141,-0.0810547,-0.985352,-0.000976563
1480688191912701,-0.0878906,-0.994629,0.00195313
1480688191928243,-0.0869141,-0.999023,-0.00341797
1480688191950300,-0.0864258,-0.980957,-0.000976563
1480688191971356,-0.074707,-0.969727,-0.00195313
1480688191987900,-0.0698242,-0.973633,0.000976563
1480688192010460,-0.0820313,-0.981934,-0.00292969
1480688192031015,-0.0908203,-0.990723,-0.00341797
1480688192047558,-0.0913086,-0.994141,-0.00488281
1480688192077639,-0.0917969,-0.994141,0.000488281
1480688192098695,-0.0947266,-0.97998,-0.00195313
1480688192115238,-0.0927734,-0.971191,0.000488281
1480688192137819,-0.0844727,-0.975098,-0.0078125
1480688192151335,-0.0864258,-0.989746,-0.00927734
1480688192167879,-0.0771484,-0.992676,-0.00195313
1480688192190940,-0.074707,-0.986816,-0.00439453
1480688192219016,-0.0742188,-0.977539,-0.012207
1480688192227540,-0.074707,-0.967285,-0.0126953
1480688192250601,-0.0805664,-0.969238,0.000976563
1480688192272658,-0.0791016,-0.978516,0.000488281
1480688192287699,-0.0844727,-0.992188,-0.00292969
1480688192310257,-0.0898438,-0.996094,0.00634766
1480688192333820,-0.0849609,-0.977539,0.00927734
1480688192355379,-0.0820313,-0.970215,0.00341797
1480688192371424,-0.0859375,-0.96582,-0.00244141
1480688192392978,-0.0830078,-0.980469,0.00585938
1480688192407516,-0.0888672,-0.987793,-0.000976563
1480688192437601,-0.0922852,-0.999023,0.00292969
1480688192460156,-0.0898438,-0.993652,0.00390625
1480688192467175,-0.0874023,-0.978516,0.00244141
1480688192490237,-0.0830078,-0.96875,0.00537109
1480688192512795,-0.0820313,-0.973145,0.00927734
1480688192535356,-0.0869141,-0.986816,0.00488281
1480688192550397,-0.0869141,-0.994141,0.00244141
1480688192572956,-0.0917969,-0.98584,0
1480688192586993,-0.0898438,-0.977539,0.00292969
1480688192610054,-0.081543,-0.973633,0.00341797
1480688192633115,-0.0751953,-0.967285,-0.00292969
1480688192653673,-0.0864258,-0.98877,-0.000488281
1480688192670719,-0.0874023,-1.00049,-0.00146484
1480688192693778,-0.0854492,-0.991699,0.00634766
1480688192715335,-0.0849609,-0.972656,0.00537109
1480688192737897,-0.0805664,-0.976074,0.0126953
1480688192753938,-0.0751953,-0.972656,0.0078125
1480688192773488,-0.0766602,-0.98291,0.00292969
1480688192790033,-0.0771484,-0.990723,0.00976563
1480688192813095,-0.0825195,-0.994141,0.00537109
1480688192833649,-0.0869141,-0.987793,0.0078125
1480688192850193,-0.0805664,-0.977051,0.00390625
1480688192872753,-0.0800781,-0.96582,0.00488281
1480688192901329,-0.0834961,-0.967773,0.00585938
1480688192910352,-0.0805664,-0.983398,0.00292969
1480688192932913,-0.081543,-0.992188,0.00683594
1480688192953973,-0.0854492,-0.991699,0.0146484
1480688192971017,-0.0805664,-0.982422,0.0161133
1480688192993073,-0.0839844,-0.970215,0.00341797
1480688193013629,-0.0805664,-0.972656,0.00732422
1480688193030171,-0.0776367,-0.974609,0.0146484
1480688193052733,-0.0810547,-0.986816,0.0117188
1480688193073787,-0.0830078,-0.995605,0.0185547
1480688193090332,-0.0805664,-0.994141,0.00878906
1480688193112892,-0.074707,-0.974609,0.00634766
1480688193142972,-0.0732422,-0.970215,0.00927734
1480688193149990,-0.0742188,-0.977051,0.00585938
1480688193172550,-0.0722656,-0.98877,0.00976563
1480688193195614,-0.0810547,-0.995117,0.0166016
1480688193210150,-0.0922852,-0.992188,0.015625
1480688193233713,-0.0800781,-0.977539,0.00390625
1480688193255271,-0.0722656,-0.968262,0.0117188
1480688193277830,-0.0703125,-0.97168,0.0141602
1480688193298887,-0.0717773,-0.98584,0.019043
1480688193321447,-0.0756836,-0.996582,0.015625
1480688193330472,-0.0810547,-0.992188,0.0107422
1480688193352530,-0.0810547,-0.986816,0.0195313
1480688193376092,-0.0737305,-0.975098,0.0131836
1480688193397649,-0.0688477,-0.965332,0.00830078
1480688193412689,-0.0668945,-0.972656,0.0131836
1480688193442768,-0.0722656,-0.984375,0.0102539
1480688193456305,-0.0722656,-0.997559,0.00585938
1480688193472849,-0.0703125,-0.994629,0.0117188
1480688193502930,-0.0698242,-0.979004,0.0161133
1480688193509445,-0.0668945,-0.969238,0.0161133
1480688193532508,-0.0673828,-0.976074,0.0117188
1480688193555068,-0.0761719,-0.981934,0.0126953
1480688193569607,-0.0830078,-0.989258,0.0151367
1480688193600187,-0.0805664,-0.981934,0.0234375
1480688193615729,-0.0756836,-0.976074,0.0175781
1480688193636283,-0.0722656,-0.970215,0.0131836
1480688193652827,-0.0668945,-0.970703,0.0107422
1480688193683409,-0.0664063,-0.981445,0.0126953
1480688193696443,-0.0683594,-0.990723,0.00927734
1480688193712485,-0.0712891,-0.996582,0.00732422
1480688193735046,-0.074707,-0.984863,0.00341797
1480688193765126,-0.0751953,-0.972168,0.00878906
1480688193772646,-0.0751953,-0.966797,0.00341797
1480688193795206,-0.0683594,-0.974609,0.00830078
1480688193816763,-0.0678711,-0.983887,0.00830078
1480688193832806,-0.0791016,-0.994141,0.00830078
1480688193855367,-0.0844727,-0.995117,0.00927734
1480688193878428,-0.0795898,-0.983887,0.0161133
1480688193892464,-0.0800781,-0.974121,0.0141602
1480688193929564,-0.0805664,-0.968262,0.0141602
1480688193937586,-0.0771484,-0.974121,0.0117188
1480688193952625,-0.0776367,-0.98584,0.0136719
1480688193975184,-0.0786133,-0.994141,0.0170898
1480688193996241,-0.0786133,-0.988281,0.0151367
1480688194012785,-0.0766602,-0.976563,0.0126953
1480688194035345,-0.0737305,-0.969238,0.0180664
1480688194056401,-0.0791016,-0.966309,0.0185547
1480688194077457,-0.074707,-0.986816,0.0146484
1480688194111046,-0.0795898,-0.992188,0.0151367
1480688194117563,-0.0791016,-0.989746,0.0170898
1480688194132603,-0.0805664,-0.985352,0.0141602
1480688194155163,-0.0683594,-0.98291,0.0166016
1480688194183739,-0.0678711,-0.974609,0.0117188
1480688194193766,-0.0761719,-0.980469,0.0126953
1480688194216326,-0.0800781,-0.993164,0.0166016
1480688194237886,-0.081543,-0.990723,0.0141602
1480688194251920,-0.0776367,-0.981445,0.0161133
1480688194274981,-0.0756836,-0.976074,0.0112305
1480688194297544,-0.0722656,-0.976563,0.0136719
1480688194321105,-0.0708008,-0.980957,0.0078125
1480688194342663,-0.0771484,-0.991699,0.0102539
1480688194357702,-0.0795898,-0.993164,0.0141602
1480688194388785,-0.0791016,-0.985352,0.0131836
1480688194394801,-0.0756836,-0.972168,0.019043
1480688194417862,-0.0786133,-0.961426,0.0126953
1480688194431899,-0.081543,-0.976074,0.0107422
1480688194460475,-0.0883789,-0.98877,0.00341797
1480688194485040,-0.0859375,-0.997559,0.0117188
1480688194492561,-0.0893555,-0.99707,0.012207
1480688194515128,-0.0844727,-0.977539,0.00683594
1480688194538190,-0.0703125,-0.970703,0.00683594
1480688194552228,-0.0585938,-0.963379,0.00146484
1480688194575289,-0.0732422,-0.970703,0.00732422
1480688194597850,-0.0786133,-0.992188,0.00488281
1480688194618905,-0.0825195,-1.00049,0.00830078
1480688194634947,-0.0869141,-1,0.00292969
1480688194665028,-0.0869141,-0.97998,-0.00195313
1480688194679065,-0.081543,-0.964844,0.000976563
1480688194696110,-0.078125,-0.970703,0.00634766
1480688194734212,-0.0830078,-0.976074,0.00683594
1480688194740228,-0.0830078,-0.992188,0.00292969
1480688194755770,-0.09375,-0.99707,-0.00927734
1480688194777827,-0.0874023,-0.986328,-0.0112305
1480688194798884,-0.0864258,-0.971191,-0.0078125
1480688194815428,-0.0834961,-0.969727,-0.00927734
1480688194846009,-0.0805664,-0.980469,-0.00976563
1480688194859546,-0.0786133,-0.989258,-0.0117188
1480688194875086,-0.0849609,-0.994629,-0.00830078
1480688194897647,-0.0864258,-0.990234,-0.00292969
1480688194920211,-0.0820313,-0.974121,-0.00146484
1480688194935748,-0.0795898,-0.971191,-0.00146484
1480688194965326,-0.0830078,-0.978516,0.000488281
1480688194986382,-0.0800781,-0.984863,0
1480688195001422,-0.0869141,-0.994629,0.000488281
1480688195019972,-0.0893555,-0.996582,0.00683594
1480688195040025,-0.0800781,-0.988281,0.00488281
1480688195055065,-0.0810547,-0.969727,-0.000488281
1480688195077625,-0.0795898,-0.966797,0.00488281
1480688195100185,-0.0742188,-0.980469,-0.00341797
1480688195115225,-0.081543,-0.989258,-0.00195313
1480688195137785,-0.0839844,-0.997559,-0.00537109
1480688195160847,-0.0864258,-0.982422,0.00146484
1480688195181400,-0.0830078,-0.977051,-0.000488281
1480688195197443,-0.0766602,-0.977051,0.00292969
1480688195221007,-0.0732422,-0.984375,-0.00585938
1480688195242563,-0.0810547,-0.989258,0.00585938
1480688195258105,-0.0844727,-0.994629,0
1480688195280163,-0.0786133,-0.984375,0.00732422
1480688195302724,-0.0761719,-0.97998,0.000976563
1480688195318264,-0.0786133,-0.966797,0.0078125
1480688195340323,-0.0712891,-0.972656,0.00927734
1480688195354361,-0.0751953,-0.97998,0.00439453
1480688195377924,-0.0800781,-0.999512,0.0078125
1480688195400984,-0.0834961,-0.995117,0.00439453
1480688195414521,-0.0834961,-0.981445,0.0102539
1480688195437583,-0.081543,-0.969238,0.000976563
1480688195460643,-0.0805664,-0.970215,0.00878906
1480688195474681,-0.0761719,-0.980469,0.000488281
1480688195497742,-0.0820313,-0.995117,0.00390625
1480688195520307,-0.081543,-0.99707,0.00830078
1480688195541357,-0.0825195,-0.986816,-0.000976563
1480688195557904,-0.0766602,-0.976074,0.0078125
1480688195580461,-0.0693359,-0.970703,0.0102539
1480688195601018,-0.0732422,-0.972168,0.00830078
1480688195617560,-0.0737305,-0.981934,0.0102539
1480688195640622,-0.0898438,-0.989746,0.0175781
1480688195661177,-0.0996094,-0.977539,0.0185547
1480688195677720,-0.0942383,-0.976563,0.0268555
1480688195707800,-0.078125,-0.96875,0.0161133
1480688195722841,-0.0722656,-0.972656,0.0175781
1480688195752921,-0.0761719,-0.986816,0.0151367
1480688195760441,-0.0727539,-0.98877,0.0161133
1480688195780995,-0.0717773,-0.988281,0.019043
1480688195797539,-0.0732422,-0.987305,0.0131836
1480688195820099,-0.0795898,-0.976074,0.00927734
1480688195841155,-0.0722656,-0.968262,0.012207
1480688195857700,-0.078125,-0.971191,0.00830078
1480688195880259,-0.0869141,-0.986328,0.0209961
1480688195901315,-0.0820313,-0.989258,0.015625
1480688195917859,-0.0751953,-0.993652,0.0200195
1480688195940920,-0.0800781,-0.983887,0.0161133
1480688195961474,-0.0844727,-0.976074,0.0141602
1480688195985038,-0.0786133,-0.969727,0.0180664
1480688196007598,-0.0776367,-0.978516,0.0175781
1480688196031161,-0.0791016,-0.989746,0.0141602
1480688196045198,-0.0820313,-0.993164,0.0166016
1480688196060238,-0.078125,-0.988281,0.0214844
1480688196083299,-0.0771484,-0.976074,0.0209961
1480688196096835,-0.0771484,-0.972656,0.0185547
1480688196120397,-0.0810547,-0.97998,0.0180664
1480688196142456,-0.0800781,-0.990234,0.0170898
1480688196157997,-0.081543,-0.993164,0.0195313
1480688196187576,-0.0849609,-0.984863,0.019043
1480688196203624,-0.0805664,-0.972168,0.0205078
1480688196217156,-0.0727539,-0.972168,0.00830078
1480688196240717,-0.0771484,-0.972656,0.0112305
1480688196262776,-0.0771484,-0.980957,0.00683594
1480688196276813,-0.0791016,-0.994629,0.0078125
1480688196307896,-0.0849609,-0.990723,0.0180664
1480688196330457,-0.0766602,-0.981934,0.0200195
1480688196343992,-0.0766602,-0.96875,0.0200195
1480688196367556,-0.081543,-0.964844,0.0161133
1480688196383096,-0.0761719,-0.97998,0.0117188
1480688196397134,-0.0717773,-0.995605,0.0253906
1480688196420195,-0.0737305,-0.993164,0.0209961
1480688196450275,-0.0800781,-0.989746,0.0283203
1480688196457295,-0.0869141,-0.981934,0.0170898
1480688196487874,-0.0888672,-0.970215,0.015625
1480688196516952,-0.0810547,-0.968262,0.0234375
1480688196531491,-0.0751953,-0.97998,0.015625
1480688196540013,-0.0766602,-1.00049,0.0175781
1480688196563577,-0.0820313,-0.999512,0.0102539
1480688196584131,-0.081543,-0.982422,0.0151367
1480688196606192,-0.0776367,-0.964355,0.0151367
1480688196622734,-0.0766602,-0.964844,0.0195313
1480688196643789,-0.078125,-0.983398,0.0161133
1480688196667854,-0.0830078,-0.993164,0.0209961
1480688196682894,-0.0864258,-0.998047,0.0180664
1480688196711469,-0.0874023,-0.988281,0.0180664
1480688196720495,-0.0786133,-0.978027,0.0244141
1480688196750073,-0.0756836,-0.966309,0.0214844
1480688196771128,-0.0761719,-0.97168,0.0229492
1480688196780151,-0.0766602,-0.986328,0.0131836
1480688196803218,-0.0776367,-1,0.0126953
1480688196831288,-0.0825195,-0.995605,0.0180664
1480688196840312,-0.0820313,-0.980469,0.0219727
1480688196862873,-0.081543,-0.966797,0.0249023
1480688196883928,-0.0810547,-0.963867,0.012207
1480688196900472,-0.0756836,-0.97998,0.015625
1480688196930052,-0.0800781,-0.995117,0.0146484
1480688196945090,-0.0878906,-0.996094,0.0209961
1480688196960130,-0.0810547,-0.986328,0.0180664
1480688196982693,-0.0854492,-0.970215,0.0131836
1480688197005251,-0.0771484,-0.96875,0.0107422
1480688197028813,-0.0737305,-0.974121,0.00927734
1480688197050371,-0.0800781,-0.989258,0.0117188
1480688197072931,-0.0874023,-0.995605,0.0107422
1480688197079448,-0.0820313,-0.991699,0.0258789
1480688197103012,-0.0649414,-0.974121,0.0229492
1480688197125070,-0.0703125,-0.964355,0.0258789
1480688197139609,-0.074707,-0.964844,0.0249023
1480688197162670,-0.0698242,-0.983398,0.0170898
1480688197185230,-0.0810547,-1.00342,0.0209961
1480688197207789,-0.081543,-0.995117,0.0263672
1480688197223833,-0.0771484,-0.981934,0.0234375
1480688197245389,-0.0742188,-0.973145,0.0170898
1480688197259928,-0.074707,-0.969238,0.0185547
1480688197282990,-0.0839844,-0.979004,0.015625
1480688197305549,-0.0932617,-0.983398,0.00634766
1480688197319588,-0.09375,-0.985352,0.0112305
1480688197342648,-0.078125,-0.979004,0.0131836
1480688197372728,-0.0678711,-0.974609,0.0136719
1480688197380248,-0.0668945,-0.979004,0.0195313
1480688197403312,-0.0751953,-0.973145,0.0151367
1480688197440909,-0.081543,-0.983398,0.0195313
1480688197463469,-0.0820313,-0.987305,0.0239258
1480688197465475,-0.0830078,-0.98877,0.0253906
1480688197486531,-0.0849609,-0.976074,0.0253906
1480688197506083,-0.0766602,-0.976074,0.0185547
1480688197522627,-0.0717773,-0.972656,0.0214844
1480688197547192,-0.0761719,-0.980469,0.0175781
1480688197566246,-0.0825195,-0.990234,0.0185547
1480688197582787,-0.0751953,-0.984375,0.0170898
1480688197605347,-0.0791016,-0.985352,0.0214844
1480688197626402,-0.0737305,-0.974121,0.0185547
1480688197642445,-0.0820313,-0.974609,0.0185547
1480688197672525,-0.0800781,-0.976074,0.0141602
1480688197686061,-0.0742188,-0.983887,0.0200195
1480688197708622,-0.0776367,-0.993652,0.0205078
1480688197725165,-0.0878906,-0.993164,0.0283203
1480688197755245,-0.0834961,-0.987305,0.0288086
1480688197764771,-0.078125,-0.966309,0.0302734
1480688197786329,-0.0751953,-0.970703,0.0170898
1480688197807885,-0.0683594,-0.976074,0.019043
1480688197822925,-0.074707,-0.986328,0.0209961
1480688197844983,-0.0791016,-0.991699,0.0107422
1480688197866040,-0.0805664,-0.990234,0.0141602
1480688197883085,-0.078125,-0.973633,0.0195313
1480688197905145,-0.0712891,-0.959473,0.0239258
1480688197927704,-0.0737305,-0.976074,0.0195313
1480688197943747,-0.0859375,-0.984863,0.0166016
1480688197964802,-0.0864258,-0.991699,0.0229492
1480688197995885,-0.0917969,-0.995117,0.0283203
1480688198002402,-0.0849609,-0.978516,0.0263672
1480688198033986,-0.0761719,-0.967285,0.0239258
1480688198047522,-0.0668945,-0.968262,0.0185547
1480688198062061,-0.078125,-0.980957,0.0229492
1480688198085125,-0.0844727,-0.990234,0.0136719
1480688198107682,-0.0810547,-0.995117,0.0205078
1480688198122221,-0.0820313,-0.984375,0.0224609
1480688198145283,-0.0830078,-0.972168,0.0224609
1480688198168345,-0.0966797,-0.969727,0.0141602
1480688198182381,-0.0913086,-0.973633,0.0141602
1480688198206445,-0.0839844,-0.98877,0.0234375
1480688198228004,-0.0874023,-0.997559,0.0229492
1480688198242540,-0.0883789,-0.985352,0.0224609
1480688198265101,-0.0810547,-0.975586,0.0195313
1480688198293676,-0.0795898,-0.970215,0.0195313
1480688198302201,-0.0708008,-0.976563,0.0136719
1480688198332783,-0.0869141,-0.987793,0.0175781
1480688198349826,-0.0898438,-0.994141,0.0200195
1480688198363362,-0.0810547,-0.992676,0.0131836
1480688198385423,-0.0932617,-0.986328,0.015625
1480688198407981,-0.0917969,-0.968262,0.0131836
1480688198428537,-0.0849609,-0.968262,0.0166016
1480688198452599,-0.0839844,-0.973633,0.0209961
1480688198467642,-0.0839844,-0.98877,0.0180664
1480688198488696,-0.0854492,-0.994629,0.0224609
1480688198505240,-0.0878906,-0.98291,0.0195313
1480688198527800,-0.0922852,-0.973633,0.0195313
1480688198548855,-0.0805664,-0.975586,0.00927734
1480688198573921,-0.0893555,-0.979492,0.0112305
1480688198588962,-0.0913086,-0.986816,0.0141602
1480688198609016,-0.090332,-0.993164,0.0102539
1480688198626061,-0.0927734,-0.992188,0.0117188
1480688198648622,-0.0922852,-0.97998,0.00878906
1480688198668674,-0.0957031,-0.975586,-0.00195313
1480688198685720,-0.0898438,-0.986816,0.00537109
1480688198715299,-0.0883789,-0.989258,0.00878906
1480688198730338,-0.100586,-1.00146,0.00439453
1480688198745378,-0.102051,-1,0.0102539
1480688198767939,-0.0991211,-0.97998,0.019043
1480688198788994,-0.0859375,-0.956055,0.0200195
1480688198805038,-0.0756836,-0.952637,0.0288086
1480688198827596,-0.074707,-0.961426,0.0458984
1480688198850156,-0.0727539,-0.967773,0.046875
1480688198872716,-0.0849609,-0.98584,0.043457
1480688198888760,-0.0859375,-0.986328,0.0541992
1480688198910317,-0.0732422,-0.97998,0.0600586
1480688198926363,-0.0761719,-0.966309,0.0581055
1480688198947917,-0.0869141,-0.985352,0.0610352
1480688198969976,-0.0942383,-0.981445,0.0537109
1480688198984514,-0.10498,-0.991211,0.0483398
1480688199007575,-0.110352,-0.985352,0.0322266
1480688199038156,-0.0996094,-0.993164,0.0288086
1480688199051191,-0.0942383,-0.978516,0.0297852
1480688199069742,-0.081543,-0.975586,0.0292969
1480688199097815,-0.0698242,-0.975586,0.0532227
1480688199104835,-0.0732422,-0.938965,0.0581055
1480688199127895,-0.100098,-0.940918,0.0576172
1480688199150456,-0.109375,-0.973633,0.0400391
1480688199172514,-0.106934,-0.990723,0.0209961
1480688199187554,-0.107422,-0.989746,0.00634766
1480688199210114,-0.0976563,-0.992188,-0.00341797
1480688199231170,-0.0913086,-1.00244,-0.0102539
1480688199248215,-0.0947266,-1.00439,-0.0214844
1480688199270274,-0.109863,-0.99707,-0.0307617
1480688199291340,-0.081543,-0.993164,-0.0224609
1480688199315394,-0.0615234,-0.975098,-0.00976563
1480688199330434,-0.0805664,-0.961426,-0.00292969
1480688199352995,-0.0854492,-0.96582,0.00439453
1480688199368536,-0.0932617,-0.980957,0.000488281
1480688199405634,-0.0981445,-0.989258,0.000976563
1480688199411649,-0.0952148,-0.995605,0.00244141
1480688199428194,-0.0932617,-0.98584,0.0131836
1480688199450256,-0.0991211,-0.970703,0.00732422
1480688199471310,-0.100586,-0.975098,0.00927734
1480688199488355,-0.0991211,-0.983887,0.0078125
1480688199510412,-0.102051,-1.00293,0.00976563
1480688199538988,-0.0913086,-1.00098,0.0102539
1480688199549015,-0.09375,-0.975098,0.00292969
1480688199570071,-0.0893555,-0.965332,0.0102539
1480688199592631,-0.0776367,-0.956055,0.012207
1480688199615193,-0.0864258,-0.961426,0.0131836
1480688199631234,-0.09375,-0.988281,0.0112305
1480688199660311,-0.0996094,-0.999023,0.0102539
1480688199673847,-0.0913086,-0.981934,0.0180664
1480688199689891,-0.0888672,-0.965332,0.0209961
1480688199711447,-0.0942383,-0.950684,0.0151367
1480688199729498,-0.0981445,-0.963867,0.00683594
1480688199758574,-0.0839844,-0.986816,0.00634766
1480688199771107,-0.0878906,-1.00635,0.00976563
1480688199787150,-0.0922852,-0.999023,0.00195313
1480688199811713,-0.0898438,-0.97998,-0.00244141
1480688199833271,-0.0874023,-0.959961,-0.00488281
1480688199850818,-0.0878906,-0.963867,-0.00146484
1480688199870369,-0.0888672,-0.975586,-0.0102539
1480688199892931,-0.0966797,-0.989746,-0.0136719
1480688199907467,-0.0922852,-0.994141,-0.0078125
1480688199938052,-0.0922852,-0.98877,-0.00634766
1480688199961111,-0.0878906,-0.979492,-0.0117188
1480688199967127,-0.0874023,-0.972168,-0.0131836
1480688199997708,-0.0859375,-0.972656,-0.012207
1480688200012750,-0.09375,-0.984375,-0.0141602
1480688200027289,-0.0913086,-0.986816,-0.00634766
1480688200057868,-0.0957031,-0.98584,-0.0151367
1480688200078924,-0.0859375,-0.978516,-0.0112305
1480688200094967,-0.0922852,-0.97998,-0.0175781
1480688200111511,-0.0888672,-0.972168,-0.0141602
1480688200132567,-0.0839844,-0.977539,-0.012207
1480688200147105,-0.0908203,-0.984863,-0.0102539
1480688200170167,-0.0947266,-0.992188,-0.0136719
1480688200192727,-0.09375,-0.987305,-0.0117188
1480688200207767,-0.0952148,-0.979492,-0.00732422
1480688200230327,-0.0917969,-0.974609,-0.0141602
1480688200252909,-0.0869141,-0.976563,-0.0126953
1480688200266924,-0.0947266,-0.986816,-0.00341797
1480688200296002,-0.0981445,-0.990234,-0.00732422
1480688200312545,-0.097168,-0.995117,-0.00683594
1480688200341623,-0.0922852,-0.981445,-0.0146484
1480688200357666,-0.090332,-0.96582,-0.0141602
1480688200380226,-0.0893555,-0.971191,-0.0185547
1480688200396770,-0.090332,-0.977539,-0.0126953
1480688200410305,-0.0961914,-0.991699,-0.0175781
1480688200432865,-0.0942383,-0.999512,-0.0166016
1480688200453921,-0.0957031,-0.990723,-0.0112305
1480688200470466,-0.0922852,-0.968262,-0.0112305
1480688200492524,-0.0927734,-0.964844,-0.0185547
1480688200515084,-0.0952148,-0.98291,-0.0146484
1480688200530625,-0.102051,-0.990723,-0.0146484
1480688200560705,-0.0981445,-0.994141,-0.00683594
1480688200581259,-0.100098,-0.987305,-0.0102539
1480688200590786,-0.108398,-0.983398,-0.0161133
1480688200612844,-0.0981445,-0.970703,-0.015625
1480688200633899,-0.0888672,-0.972168,-0.00537109
1480688200649944,-0.0957031,-0.97998,-0.0112305
1480688200672502,-0.0952148,-0.990723,-0.0146484
1480688200701078,-0.0942383,-0.995605,-0.00976563
1480688200710102,-0.0957031,-0.986816,-0.015625
1480688200733665,-0.0932617,-0.967773,-0.0185547
1480688200770764,-0.0878906,-0.971191,-0.0170898
1480688200773270,-0.0898438,-0.97998,-0.00878906
1480688200815884,-0.0981445,-0.980469,-0.0131836
1480688200818391,-0.104492,-0.990234,-0.0131836
1480688200836439,-0.104492,-0.988281,-0.012207
1480688200852481,-0.102539,-0.979004,-0.0146484
1480688200875041,-0.0913086,-0.97168,-0.0131836
1480688200889580,-0.0917969,-0.974121,-0.0146484
1480688200912641,-0.097168,-0.986328,-0.0117188
1480688200935202,-0.105469,-0.992676,-0.0107422
1480688200950742,-0.104492,-0.98877,-0.0136719
1480688200980320,-0.0957031,-0.979492,-0.00976563
1480688200995361,-0.0952148,-0.961426,-0.0170898
1480688201024940,-0.0888672,-0.968262,-0.0205078
1480688201039980,-0.0952148,-0.979492,-0.0244141
1480688201055521,-0.100586,-0.992188,-0.0249023
1480688201076076,-0.101563,-0.995605,-0.0214844
1480688201092619,-0.103027,-0.987305,-0.0229492
1480688201116183,-0.100098,-0.979004,-0.0200195
1480688201137740,-0.0996094,-0.962891,-0.0214844
1480688201152781,-0.0917969,-0.967773,-0.0161133
1480688201175339,-0.097168,-0.988281,-0.0209961
1480688201189378,-0.104492,-0.992676,-0.0146484
1480688201213442,-0.106445,-0.995605,-0.0214844
1480688201237004,-0.0966797,-0.982422,-0.0263672
1480688201257058,-0.0981445,-0.968262,-0.0229492
1480688201278615,-0.0966797,-0.969727,-0.0224609
1480688201295158,-0.0942383,-0.977539,-0.0214844
1480688201317217,-0.102051,-0.989258,-0.0205078
1480688201332758,-0.0991211,-0.993164,-0.0185547
1480688201370358,-0.0893555,-0.982422,-0.0161133
1480688201385400,-0.0864258,-0.96875,-0.0141602
1480688201392918,-0.0869141,-0.969238,-0.0209961
1480688201415479,-0.108887,-0.992676,-0.0327148
1480688201436038,-0.117188,-0.998535,-0.034668
1480688201460097,-0.112793,-0.988281,-0.0292969
1480688201482657,-0.109863,-0.981934,-0.0219727
1480688201504215,-0.09375,-0.978516,-0.0229492
1480688201512737,-0.0864258,-0.965332,-0.0263672
1480688201535803,-0.081543,-0.962402,-0.00634766
1480688201557857,-0.101074,-0.960938,-0.0317383
1480688201573398,-0.106445,-0.980469,-0.0229492
1480688201594955,-0.107422,-1.01221,-0.0415039
1480688201623534,-0.118164,-1.00146,-0.0356445
1480688201633559,-0.100098,-0.999023,-0.0419922
1480688201663137,-0.0859375,-0.989258,-0.0288086
1480688201684193,-0.0991211,-0.975586,-0.0200195
1480688201693217,-0.108398,-0.975586,-0.0327148
1480688201715276,-0.100098,-0.98291,-0.0219727
1480688201743851,-0.0859375,-0.992676,-0.0258789
1480688201752876,-0.0825195,-0.978516,-0.0268555
1480688201775435,-0.0976563,-0.97168,-0.0439453
1480688201797494,-0.097168,-0.963379,-0.0249023
1480688201812534,-0.0825195,-0.963379,-0.0273438
1480688201836104,-0.0844727,-0.987305,-0.0224609
1480688201857656,-0.0942383,-1.00195,-0.0195313
1480688201872193,-0.0932617,-0.983398,-0.0175781
1480688201895254,-0.0893555,-0.961426,-0.0107422
1480688201918316,-0.0922852,-0.964355,-0.00146484
1480688201931851,-0.105469,-0.979004,-0.00683594
1480688201954913,-0.109375,-0.992676,-0.00585938
1480688201977472,-0.100098,-0.999023,-0.00683594
1480688201998528,-0.102051,-0.987305,-0.00878906
1480688202015574,-0.0913086,-0.969238,-0.012207
1480688202045152,-0.0844727,-0.965332,-0.0229492
1480688202066209,-0.0864258,-0.975586,-0.019043
1480688202090275,-0.0922852,-0.98291,-0.0170898
1480688202105314,-0.108398,-0.993652,-0.015625
1480688202111830,-0.116699,-1.00049,-0.0209961
1480688202135393,-0.10791,-0.979492,-0.0180664
1480688202157451,-0.0976563,-0.966797,-0.0136719
1480688202180011,-0.0922852,-0.967285,-0.00878906
1480688202202574,-0.0957031,-0.98584,-0.00439453
1480688202218113,-0.0898438,-0.990723,-0.000488281
