timestamp,x,y,z
1480688152185404,0,0.1875,0
1480688152206460,-0.0625,0.1875,-0.0625
1480688152223505,-0.125,0.375,-0.0625
1480688152251581,-0.125,0.5625,0.125
1480688152274140,-0.5,0.5625,0
1480688152283164,-0.25,0.25,0
1480688152305222,0.0625,0.3125,0
1480688152327784,0.0625,0.3125,0.0625
1480688152348894,-0.25,0.375,0
1480688152372958,-0.3125,0.125,0
1480688152388499,0,0,0.0625
1480688152402035,-0.0625,0.1875,0.0625
1480688152433118,-0.1875,0.25,-0.0625
1480688152455680,-0.25,0.1875,0
1480688152462198,-0.0625,0.125,0.0625
1480688152486761,0.0625,0.125,0.125
1480688152507817,0.0625,0.4375,-0.0625
1480688152522356,0.1875,0.375,-0.1875
1480688152551435,-0.125,0.3125,0
1480688152575997,-0.375,0.1875,0.0625
1480688152583518,-0.25,0.25,0.25
1480688152605576,0.5625,0.5625,0
1480688152627635,0.3125,0.5,0
1480688152642173,0.25,0.5,0.125
1480688152665235,0.8125,0.5625,-0.125
1480688152695317,0.375,0.1875,0
1480688152702334,-0.1875,0.1875,0.125
1480688152738931,-0.25,0.3125,-0.0625
1480688152757982,-0.3125,0.125,-0.1875
1480688152762495,-0.0625,0.1875,-0.0625
1480688152785557,-0.125,0.3125,-0.1875
1480688152808116,0.25,0.1875,0
1480688152830676,-0.3125,0.1875,-0.0625
1480688152845214,-0.1875,0.375,-0.25
1480688152867776,0.375,0.1875,-0.125
1480688152889332,0.0625,0,-0.125
1480688152906877,0.25,0.0625,-0.0625
1480688152927934,0.4375,0.0625,0.125
1480688152948990,0.4375,0.125,0.125
1480688152979070,-0.0625,0.1875,0.125
1480688152988094,-0.4375,0.1875,0.1875
1480688153010655,-0.1875,0.1875,0.0625
1480688153032713,-0.25,0.3125,-0.0625
1480688153055272,-0.0625,0.125,-0.125
1480688153068808,-0.1875,0.125,-0.25
1480688153085352,0.25,0.0625,-0.4375
1480688153107912,0.3125,-0.125,-0.5625
1480688153136488,0.375,-0.1875,-0.75
1480688153146014,0.75,-0.125,-0.625
1480688153174089,0.8125,-0.0625,-0.5
1480688153189129,0.9375,-0.25,-0.25
1480688153205171,1.125,-0.1875,-0.3125
1480688153227731,0.6875,0.1875,0
1480688153250291,-0.25,0.125,0
1480688153272851,-0.1875,-0.0625,0.125
1480688153289400,0.125,0.0625,-0.0625
1480688153318474,0.375,0,-0.3125
1480688153340531,1.25,0.125,-0.625
1480688153353566,1.3125,0,-0.8125
1480688153370611,0.6875,-0.4375,-0.625
1480688153384648,0.4375,-0.625,-0.5
1480688153408211,1.125,-0.375,-0.5
1480688153430270,0.9375,-0.25,-0.375
1480688153444811,0.5625,0.0625,-0.5
1480688153467871,0.8125,0.5625,-0.75
1480688153496446,1.125,0.375,-0.5625
1480688153504968,0.8125,0.1875,-0.5625
1480688153528029,0.375,0,-0.4375
1480688153550589,0.3125,0.125,-0.5
1480688153565129,0.4375,-0.0625,-0.5
1480688153595710,0.3125,0,-0.625
1480688153618270,-0.125,-0.0625,-0.5
1480688153638824,0.3125,-0.1875,-0.5
1480688153648349,0.5,-0.125,-0.3125
1480688153670910,0.9375,0.0625,-0.375
1480688153684947,0.5625,0,-0.3125
1480688153708008,0.1875,-0.125,-0.1875
1480688153730568,0.1875,-0.1875,0
1480688153751624,0.125,-0.125,0.0625
1480688153767667,0.1875,0,0.125
1480688153790227,0.3125,0.1875,0.0625
1480688153811784,0.125,0.1875,0.0625
1480688153827827,-0.1875,0.125,-0.0625
1480688153850386,-0.25,0.25,0
1480688153873450,-0.4375,0.0625,0.0625
1480688153894003,-0.125,0.0625,-0.0625
1480688153918067,0.4375,0.125,0.125
1480688153940626,0.375,0.125,0.0625
1480688153949149,-0.3125,-0.0625,0
1480688153970205,-0.75,-0.5625,0.125
1480688153991763,-0.5625,-0.75,0.25
1480688154007805,-0.3125,-0.5,0.0625
1480688154030366,-0.0625,-0.1875,0.125
1480688154053928,0,0,0
1480688154067965,0.125,-0.125,0.1875
1480688154090528,-0.25,-0.25,0.1875
1480688154111082,0,0.0625,0
1480688154128130,-0.5,0.375,0.0625
1480688154150685,-0.625,0.3125,0.0625
1480688154172744,-1.125,0.1875,0.25
1480688154195304,-0.25,0.5625,0.125
1480688154210344,0.4375,0.625,0.0625
1480688154238919,-0.1875,0.625,0.125
1480688154247944,0,0.6875,-0.1875
1480688154270504,-0.25,0.375,-0.125
1480688154299080,-1,-0.125,-0.1875
1480688154307101,-1.875,-0.4375,-0.3125
1480688154330665,-2.25,-0.6875,-0.375
1480688154352723,-1.5,-0.5,-0.25
1480688154381800,-1.3125,-0.4375,-0.125
1480688154403858,-0.625,-0.5625,-0.4375
1480688154429426,-0.4375,-0.5,-0.25
1480688154441459,-0.8125,-0.3125,-0.125
1480688154464019,-1.0625,0.0625,-0.3125
1480688154473044,-2.1875,0.0625,-0.25
1480688154487080,-2.875,-1,0.125
1480688154510643,-0.9375,-0.75,-0.4375
1480688154532701,0.8125,-0.3125,0
1480688154547240,1.0625,-0.125,-0.0625
1480688154576820,0.5,0,-0.125
1480688154592861,-0.375,-0.125,0
1480688154607401,-1.0625,-0.375,0.0625
1480688154630461,-0.9375,-0.3125,-0.3125
1480688154660542,-0.625,-0.6875,-0.3125
1480688154675080,-0.125,-1.125,-0.5
1480688154705661,0.6875,-1.5,-0.625
1480688154718695,1.0625,-1.5,-0.625
1480688154741757,0.8125,-2,-0.6875
1480688154751784,1.0625,-2,-0.625
1480688154772840,1.125,-1.6875,-0.5
1480688154793896,1.0625,-1.0625,-0.625
1480688154810440,0.4375,-0.5,-0.4375
1480688154832498,-0.0625,-0.1875,-0.3125
1480688154854557,0,0.0625,-0.1875
1480688154870600,-0.125,0.25,-0.375
1480688154892658,0.3125,0.6875,-0.3125
1480688154914217,0.5625,1,-0.3125
1480688154936274,0.5625,0.8125,-0.125
1480688154960339,0,0.5,-0.25
1480688154982898,0.625,0.875,-0.3125
1480688154996434,1.0625,0.9375,-0.1875
1480688155012979,0.625,0.5625,-0.1875
1480688155034036,0.9375,0.6875,-0.3125
1480688155052082,1.125,0.625,0.0625
1480688155072637,0.4375,0.4375,0
1480688155094195,-0.8125,-0.0625,0
1480688155125390,-0.75,-0.125,-0.125
1480688155132798,-0.25,0.125,0
1480688155171902,0,0.3125,0
1480688155183935,0.3125,0.5,0.0625
1480688155192957,-0.1875,0.5,0.0625
1480688155215517,-0.875,0.375,0.25
1480688155239581,-0.125,0.5,0.1875
1480688155254119,-0.25,0.375,0.25
1480688155275176,-0.6875,0.125,0.25
1480688155290216,-0.25,0.375,0.25
1480688155313778,0.25,0.5,0.375
1480688155335336,0.3125,0.375,0.3125
1480688155349875,-0.0625,0.4375,0.25
1480688155372935,-0.5,0.375,0.375
1480688155395495,-0.6875,0.3125,0.3125
1480688155411538,-0.8125,0.4375,0.375
1480688155446632,-0.6875,0.5,0.125
1480688155455154,-0.4375,0.3125,0.125
1480688155470194,-0.125,0.3125,0.1875
1480688155492754,-0.0625,0.25,0.0625
1480688155515314,-0.25,0,0.125
1480688155530354,-0.25,-0.125,0.0625
1480688155561437,-0.125,-0.125,0.0625
1480688155576477,0.0625,-0.0625,0.0625
1480688155598034,0,-0.125,0.0625
1480688155613075,0,-0.125,0.125
1480688155636136,-0.375,-0.3125,0.125
1480688155656691,-0.125,-0.125,0.1875
1480688155673234,-0.25,-0.0625,0.0625
1480688155702813,-0.25,0,0.125
1480688155723869,-0.375,-0.0625,0.3125
1480688155732893,-0.3125,0.0625,0.375
1480688155755955,0.3125,0.1875,0.25
1480688155776508,-0.125,0.25,0.3125
1480688155793054,-0.125,0.1875,0.125
1480688155815613,0.3125,0.375,-0.0625
1480688155836669,0.125,0.125,0.25
1480688155852712,-0.125,-0.1875,0.1875
1480688155875271,-0.25,-0.1875,0.0625
1480688155896327,-0.375,-0.125,0.0625
1480688155912870,-0.1875,0,0.1875
1480688155935431,-0.1875,0.125,0.1875
1480688155956488,0.1875,0.1875,0.0625
1480688155980551,-0.25,0.125,0.25
1480688156003112,-0.0625,0.375,0.25
1480688156024168,0.25,0.375,0.25
1480688156040710,-0.4375,0.1875,0.3125
1480688156070291,-0.5,0.375,0.1875
1480688156085330,-0.0625,0.375,0.375
1480688156092851,0.375,0.25,0.25
1480688156115410,0.1875,0.4375,0.0625
1480688156137975,0,0.4375,0
1480688156153511,-0.3125,0.375,0.0625
1480688156175570,-0.5625,0.3125,0.1875
1480688156197628,-0.6875,0.1875,0.0625
1480688156212168,-0.3125,0.25,0.125
1480688156235732,0.0625,0.25,0.125
1480688156258792,-0.125,0.125,0.3125
1480688156272327,-0.1875,0.1875,0.375
1480688156295890,-0.1875,0.375,0.3125
1480688156317948,-0.4375,0.5,0.25
1480688156340509,-0.8125,0,-0.1875
1480688156363068,-0.4375,-0.3125,-0.125
1480688156385127,0.125,0.0625,0.0625
1480688156393652,-0.125,0.125,-0.125
1480688156415207,-0.4375,0.125,-0.125
1480688156437767,0,0.25,-0.1875
1480688156453309,-0.25,0.125,-0.1875
1480688156476371,-0.1875,-0.1875,-0.0625
1480688156498430,-0.6875,-0.1875,0.125
1480688156512466,-0.125,-0.125,0.125
1480688156536028,0.75,0.0625,0
1480688156558087,0.0625,0.0625,0.25
1480688156579142,0.375,0.375,-0.125
1480688156595189,0.625,0.4375,-0.0625
1480688156625266,0,0.375,0.0625
1480688156641308,-0.9375,0.4375,-0.4375
1480688156662866,-0.75,0,-0.3125
1480688156677905,0.125,-0.1875,-0.5625
1480688156706484,0.5625,0,-0.3125
1480688156715506,0.625,-0.125,-0.6875
1480688156738066,1.125,-0.0625,-0.4375
1480688156760628,0.0625,0.125,-0.5625
1480688156775165,-0.5,0.125,-0.5625
1480688156797724,0,-0.1875,-0.4375
1480688156826301,0.375,-0.4375,-0.1875
1480688156835325,1.0625,-0.4375,-0.25
1480688156857885,0.625,-0.1875,-0.1875
1480688156878940,-0.0625,-0.375,-0.0625
1480688156895987,-0.4375,-0.5625,-0.125
1480688156919048,-0.375,-0.5,0.0625
1480688156941106,-0.375,0,-0.1875
1480688156955645,-0.3125,0,-0.1875
1480688156983719,-0.125,-0.375,-0.0625
1480688156998759,0.5,-0.75,0.125
1480688157015303,0.5625,-0.875,-0.0625
1480688157037863,0.0625,-0.6875,-0.25
1480688157061429,-0.5625,-0.3125,-0.4375
1480688157088999,-0.625,-0.3125,-0.625
1480688157098023,0.0625,-0.6875,-0.4375
1480688157120583,0.625,-0.6875,-0.4375
1480688157137127,0.5,-0.5625,-0.625
1480688157157682,0.25,-0.6875,-0.625
1480688157181745,0.4375,-0.6875,-0.75
1480688157201298,0.9375,-0.9375,-0.75
1480688157217842,0.9375,-0.875,-0.625
1480688157240904,0.75,-0.4375,-0.4375
1480688157268977,-0.125,-0.125,-0.4375
1480688157278005,0.375,-0.0625,-0.5625
1480688157300561,1.25,-0.0625,-0.375
1480688157314598,0.9375,0.25,-0.25
1480688157344181,0.8125,0.3125,-0.5
1480688157360221,0.5,0.4375,-0.375
1480688157382781,0.1875,0.375,-0.1875
1480688157397820,-0.3125,0.25,-0.5
1480688157426396,0.375,0.25,-0.375
1480688157436924,1.1875,0.4375,-0.5
1480688157457980,0.9375,0.875,-0.3125
1480688157481543,0.875,0.875,-0.3125
1480688157504102,0.125,1,-0.125
1480688157525159,-0.375,1.25,-0.0625
1480688157540700,0.375,1.5625,-0.0625
1480688157561261,0.6875,1.6875,0.125
1480688157577801,0.375,1.8125,0.1875
1480688157600360,0.25,1.75,0.25
1480688157621414,0.9375,1.25,0.75
1480688157637959,2.375,1.75,0.0625
1480688157661023,0.8125,2,0
1480688157683079,-0.9375,1.5,0.125
1480688157698620,-1.125,0.875,-0.1875
1480688157728200,-0.4375,0.4375,-0.0625
1480688157748753,0.25,0,-0.125
1480688157757777,0.625,-0.0625,-0.375
1480688157780337,0.875,-0.1875,-0.3125
1480688157801393,0.5,-0.375,-0.25
1480688157823957,0.1875,-0.5,-0.3125
1480688157840999,-0.125,-0.5,-0.1875
1480688157862055,-0.0625,-0.375,-0.1875
1480688157878098,-0.125,-0.25,-0.1875
1480688157900155,-0.375,-0.0625,-0.125
1480688157922716,-0.125,-0.125,-0.1875
1480688157937757,-0.1875,-0.0625,-0.0625
1480688157967836,-0.0625,-0.1875,-0.125
1480688157988892,-0.25,-0.25,0.0625
1480688158012956,0.4375,-0.375,-0.0625
1480688158027997,0.625,-0.5625,-0.125
1480688158049052,0.25,-0.625,-0.0625
1480688158058577,0.5625,-0.3125,-0.25
1480688158080635,0.5,-0.4375,-0.0625
1480688158103195,0,-0.4375,0
1480688158125756,-0.5,-0.4375,-0.0625
1480688158142301,-0.5625,-0.3125,0
1480688158163857,-0.8125,-0.125,0.125
1480688158178396,-0.9375,-0.3125,0.1875
1480688158200455,-0.25,-0.3125,0.125
1480688158223015,-0.3125,-0.125,0.125
1480688158237052,-0.4375,-0.0625,0.0625
1480688158260618,0.1875,-0.25,0.0625
1480688158283174,-0.3125,-0.3125,0.0625
1480688158307238,-0.625,-0.3125,0.0625
1480688158321276,-0.25,-0.1875,0.1875
1480688158343836,0.25,0,0.25
1480688158357372,0.0625,0,0.25
1480688158380433,-0.3125,0,0.25
1480688158402993,-0.5,0.25,0.3125
1480688158425553,-0.8125,0.4375,0.3125
1480688158440093,-0.9375,0.375,0.25
1480688158470674,-0.8125,0.375,0.3125
1480688158491729,-0.5625,0.3125,0.4375
1480688158502256,-0.5,0.25,0.4375
1480688158522812,-0.625,0.25,0.4375
1480688158544871,-0.8125,-0.125,0.375
1480688158560914,-0.375,-0.3125,0.25
1480688158582973,-0.5,-0.3125,0.25
1480688158605535,-0.1875,-0.5,0.1875
1480688158626588,0,-0.5,0
1480688158643132,0,-0.4375,-0.125
1480688158664187,-0.125,-0.5625,-0.125
1480688158681734,-0.25,-0.6875,0
1480688158703292,-0.25,-0.6875,0.0625
1480688158731367,0.5625,-0.5625,-0.125
1480688158740892,0.75,-0.625,-0.1875
1480688158762950,0.1875,-0.75,-0.25
1480688158791527,-0.0625,-0.6875,-0.4375
1480688158802054,-0.375,-0.6875,-0.1875
1480688158823110,-0.6875,-0.6875,-0.1875
1480688158846673,-0.625,-0.4375,-0.25
1480688158861713,-0.125,-0.25,-0.375
1480688158888787,0.125,-0.1875,-0.1875
1480688158905328,0.125,0.1875,-0.1875
1480688158920869,0.4375,0.25,-0.25
1480688158944935,-0.1875,0.0625,-0.125
1480688158965489,-0.5,-0.0625,-0.1875
1480688158980529,0.25,0.0625,-0.3125
1480688159003089,0.0625,-0.125,-0.4375
1480688159026150,0.125,-0.6875,-0.6875
1480688159040187,0.3125,-0.8125,-0.625
1480688159072774,0.125,-0.9375,-0.625
1480688159091323,0.0625,-0.875,-0.625
1480688159114385,0.1875,-0.8125,-0.75
1480688159124411,0.3125,-0.6875,-0.875
1480688159145468,0.4375,-0.4375,-0.9375
1480688159159505,-0.1875,-0.5,-0.875
1480688159183067,0.25,-0.4375,-0.875
1480688159213147,0.3125,-0.4375,-0.625
1480688159219665,0.375,-0.4375,-0.6875
1480688159242727,0.375,-0.4375,-0.625
1480688159266289,0.5,-0.5625,-0.75
1480688159281329,0.625,-0.625,-0.5625
1480688159308902,0.3125,-0.625,-0.5625
1480688159326449,0,-0.6875,-0.5625
1480688159346502,0.4375,-0.5625,-0.5625
1480688159370064,0.6875,-0.4375,-0.5625
1480688159401148,0.3125,-0.5,-0.5
1480688159414182,-0.3125,-0.8125,-0.1875
1480688159422706,-0.4375,-0.6875,-0.125
1480688159445264,0.25,-0.5,-0.3125
1480688159466320,0.5,-0.625,-0.25
1480688159483875,0.5,-0.5625,-0.1875
1480688159505425,0.6875,-0.5625,-0.25
1480688159526481,0.25,-0.875,-0.0625
1480688159543526,-0.5,-1.25,-0.125
1480688159565593,-0.625,-1.1875,-0.1875
1480688159586641,-0.375,-0.9375,-0.25
1480688159610204,0,-0.875,-0.125
1480688159625243,0.3125,-0.625,-0.0625
1480688159656327,0.25,-0.375,0.0625
1480688159670367,-0.9375,-0.4375,0.3125
1480688159701947,-0.9375,0.0625,0.375
1480688159713979,-0.6875,0.125,0.5
1480688159724511,-0.9375,0.375,0.75
1480688159745563,-0.625,0.8125,0.8125
1480688159775645,-0.3125,1,1.0625
1480688159783164,-0.75,1,1.1875
1480688159805724,-1.1875,1.1875,1.25
1480688159826280,-1.375,1.1875,1.125
1480688159842822,-1.3125,1.25,1.0625
1480688159865383,-1.0625,1.1875,1
1480688159887942,-1,1.125,0.75
1480688159902982,-0.5625,0.9375,0.5625
1480688159933061,-0.25,0.4375,0.8125
1480688159948102,2.0625,-0.25,0.5
1480688159970161,1.75,0.625,-0.0625
1480688159985702,-0.1875,0.1875,-0.125
1480688160007761,-1.4375,-0.5625,-0.3125
1480688160022299,-0.5,-0.875,-0.625
1480688160045862,0.6875,-0.8125,-0.4375
1480688160067921,1.4375,-0.8125,-0.75
1480688160081958,1.3125,-0.9375,-0.6875
1480688160105520,1,-0.9375,-0.5625
1480688160127579,0.875,-1,-0.6875
1480688160142118,0.0625,-1,-0.375
1480688160166683,0.125,-0.5625,-0.4375
1480688160188241,0.6875,-0.25,-0.5625
1480688160208795,0.6875,-0.3125,-0.25
1480688160225840,-0.0625,-0.1875,-0.375
1480688160247898,-0.4375,0.0625,-0.375
1480688160270459,-0.6875,0,-0.3125
1480688160285499,-0.375,0.5,-0.25
1480688160308059,0.0625,0.8125,-0.3125
1480688160322097,-0.1875,0.375,-0.3125
1480688160347168,-0.3125,0.1875,-0.3125
1480688160369221,0.5625,0.375,-0.375
1480688160390780,0.4375,0.375,-0.25
1480688160405317,0,0.4375,-0.375
1480688160433894,-0.0625,0.5625,-0.1875
1480688160448933,0.125,0,-0.125
1480688160465478,0.3125,0.0625,-0.3125
1480688160488540,0.5625,0.0625,-0.3125
1480688160511098,0.5,0.125,-0.375
1480688160527146,-0.0625,-0.1875,-0.5
1480688160549201,0,-0.25,-0.5
1480688160576775,0,-0.3125,-0.5
1480688160591312,0.25,-0.3125,-0.5625
1480688160615376,0.25,-0.375,-0.4375
1480688160629414,0.25,-0.3125,-0.4375
1480688160646458,0.25,-0.25,-0.375
1480688160675537,0.0625,-0.1875,-0.3125
1480688160689574,0.0625,0,-0.25
1480688160705617,-0.1875,0,-0.375
1480688160727676,0,0,-0.3125
1480688160748730,0.1875,-0.0625,-0.25
1480688160765275,0.125,0.0625,-0.1875
1480688160787836,-0.375,-0.0625,0.0625
1480688160810896,-0.4375,-0.125,0
1480688160832955,0.5,0,-0.125
1480688160847994,0.625,-0.1875,0
1480688160870556,0.6875,0.0625,-0.3125
1480688160893115,0.875,0.1875,-0.375
1480688160908656,0.4375,-0.125,-0.3125
1480688160930213,-0.125,-0.5,-0.25
1480688160945254,-0.25,-0.5625,-0.3125
1480688160968816,0,-0.25,-0.4375
1480688160990374,0,-0.25,-0.25
1480688161004914,0.3125,-0.0625,-0.1875
1480688161027973,0.5,0,-0.1875
1480688161050534,-0.375,-0.125,0
1480688161065573,-0.4375,0.1875,-0.125
1480688161089136,-0.1875,0.25,-0.125
1480688161111195,-0.3125,0.1875,-0.125
1480688161125233,0,0.4375,-0.125
1480688161147792,0.4375,0.4375,0
1480688161170352,0.375,0.25,-0.1875
1480688161184891,0.375,0.5625,0.0625
1480688161207951,0.1875,0.5625,-0.1875
1480688161230512,-0.3125,0.3125,-0.1875
1480688161244549,-0.125,0.1875,-0.25
1480688161275633,0.25,0.25,-0.375
1480688161290672,0.125,0,-0.5
1480688161311226,0.125,-0.125,-0.375
1480688161328773,0.4375,-0.1875,-0.25
1480688161357850,0.3125,-0.25,-0.3125
1480688161378906,0.1875,-0.375,-0.25
1480688161387931,0.1875,-0.375,-0.3125
1480688161410492,0.0625,-0.375,-0.1875
1480688161431547,0.1875,-0.4375,-0.3125
1480688161448592,0.1875,-0.3125,-0.1875
1480688161477670,0,-0.3125,-0.25
1480688161498725,-0.5,-0.3125,0
1480688161507749,-0.5625,-0.3125,-0.125
1480688161530309,0.5625,-0.125,-0.1875
1480688161551365,0.8125,-0.3125,-0.1875
1480688161567909,0.5,-0.375,-0.5
1480688161590471,0.6875,-0.25,-0.625
1480688161612528,0.8125,-0.5625,-0.3125
1480688161642608,0.0625,-0.75,-0.5
1480688161657649,-0.375,-1,-0.625
1480688161671184,-0.0625,-0.8125,-0.6875
1480688161687728,0.125,-0.75,-0.5625
1480688161710788,-0.375,-0.625,-0.6875
1480688161731344,0.3125,-0.6875,-0.5
1480688161747887,0.0625,-0.75,-0.25
1480688161777967,0.125,-0.6875,-0.4375
1480688161793008,0.1875,-0.5625,-0.375
1480688161807045,-0.375,-0.6875,-0.375
1480688161831108,0,-0.6875,-0.375
1480688161853168,0.375,-0.625,-0.25
1480688161867707,0.625,-0.5,-0.1875
1480688161891771,0.4375,-0.5,-0.375
1480688161913328,0.125,-0.4375,-0.4375
1480688161935888,-0.125,-0.1875,-0.375
1480688161950928,-0.3125,-0.0625,-0.3125
1480688161972986,-0.1875,0,-0.375
1480688161987024,0.0625,0,-0.3125
1480688162010587,0.1875,0.0625,-0.25
1480688162032645,-0.0625,0.0625,-0.1875
1480688162047184,-0.1875,-0.0625,-0.1875
1480688162076767,-0.0625,-0.25,-0.1875
1480688162092805,-0.25,-0.1875,-0.1875
1480688162107343,0.1875,-0.0625,-0.3125
1480688162130404,0.5,-0.125,-0.1875
1480688162153967,0.1875,-0.25,-0.0625
1480688162167002,-0.25,-0.1875,0.0625
1480688162191066,-0.1875,0,0.125
1480688162213125,0.25,0.3125,0.125
1480688162233679,0,0.1875,0.25
1480688162263759,0,0.5,0.3125
1480688162272783,0.375,0.625,0.125
1480688162294842,0,0.375,0.25
1480688162296346,-0.5,0.25,-0.0625
1480688162315898,-0.625,0.3125,-0.1875
1480688162340964,-0.4375,0.125,-0.3125
1480688162364026,-0.0625,-0.0625,-0.1875
1480688162376060,0.5,-0.1875,-0.0625
1480688162398117,0.1875,-0.5625,0
1480688162420677,-0.5,-0.625,-0.0625
1480688162452260,0.0625,-0.375,-0.0625
1480688162465797,0.1875,-0.125,0
1480688162489360,-0.0625,0.0625,-0.0625
1480688162495877,0.0625,0.5625,0
1480688162518436,0.25,0.6875,0.0625
1480688162544005,-0.1875,0.6875,0.0625
1480688162555538,-0.5625,0.6875,-0.0625
1480688162578095,-0.375,0.6875,0
1480688162618704,-0.25,0.5625,-0.0625
1480688162621712,-0.125,0.4375,-0.125
1480688162638256,-0.0625,0.3125,-0.1875
1480688162660816,0,0.25,-0.1875
1480688162675856,0.125,0,-0.25
1480688162701423,0.1875,-0.0625,-0.375
1480688162732506,0.1875,-0.1875,-0.4375
1480688162744538,0.1875,-0.4375,-0.4375
1480688162765594,0.25,-0.3125,-0.5
1480688162788656,0.375,-0.3125,-0.5625
1480688162799685,0.375,-0.5,-0.4375
1480688162821242,0.125,-0.6875,-0.125
1480688162840794,0,-0.5,-0.125
1480688162863355,0.5625,-0.375,-0.25
1480688162878394,0.5,-0.5,-0.125
1480688162902460,0.3125,-0.3125,-0.3125
1480688162915994,0.6875,-0.125,-0.4375
1480688162938053,0.3125,-0.3125,-0.25
1480688162970137,-0.125,-0.4375,-0.3125
1480688162983173,-0.5,-0.4375,-0.1875
1480688163001221,-0.4375,-0.375,-0.25
1480688163025285,-0.875,-0.1875,-0.3125
1480688163043333,-1,-0.125,-0.25
1480688163065892,-1.1875,-0.3125,-0.1875
1480688163080934,-1.0625,-1.1875,0.125
1480688163098479,0.3125,-1.0625,0.0625
1480688163127556,2.125,-0.5625,0.3125
1480688163140591,0.0625,1.125,-0.125
1480688163163151,-2.625,0.0625,-0.0625
1480688163178190,-0.5,-1.25,0.4375
1480688163200751,1.375,-0.4375,0.25
1480688163217295,0.125,0.25,-0.125
1480688163241363,-0.5,-0.125,0
1480688163260911,-0.0625,-0.1875,-0.1875
1480688163278458,-0.4375,-0.3125,0.125
1480688163303024,-0.8125,-0.375,0.0625
1480688163329093,-0.4375,-0.3125,-0.0625
1480688163337114,-0.0625,-0.125,0.0625
1480688163358170,0.0625,-0.125,0.0625
1480688163380730,0.0625,-0.375,0
1480688163399279,-0.125,-0.625,0
1480688163427355,-0.5625,-0.5,0
1480688163442897,-0.125,-0.5,0
1480688163457434,0,-0.5,-0.125
1480688163478490,0,-0.5625,-0.125
1480688163509071,-0.5,-0.5625,0.125
1480688163518095,-0.5,-0.4375,0.125
1480688163541156,0.25,-0.25,0
1480688163560708,0.375,-0.375,0.0625
1480688163586777,0.25,-0.25,0
1480688163611343,0,-0.0625,-0.125
1480688163628889,-0.8125,-0.375,0.1875
1480688163637412,-1.5,-0.6875,0.125
1480688163660975,-1.4375,-1.125,0
1480688163680526,-1,-1.25,-0.125
1480688163704591,-0.4375,-1.3125,-0.125
1480688163718127,-0.5625,-1.25,-0.0625
1480688163741689,0.1875,-1,0.0625
1480688163774778,-0.0625,-0.75,0.1875
1480688163780795,0.0625,0,0.0625
1480688163800847,-0.25,0.1875,0.0625
1480688163818895,-1.0625,-0.1875,-0.125
1480688163838447,-0.625,-0.75,-0.0625
1480688163863514,0.125,-0.5,0
1480688163886074,0.3125,-0.375,-0.25
1480688163898107,0,-0.25,-0.3125
1480688163929690,-0.0625,-0.5,-0.25
1480688163943227,-0.25,-0.25,-0.25
1480688163958768,-0.5625,-0.125,-0.25
1480688163980825,-0.75,-0.4375,-0.4375
1480688164003385,-0.1875,-0.8125,-0.375
1480688164019428,0,-0.875,-0.1875
1480688164041988,0.375,-0.9375,-0.5
1480688164064548,1,-1.75,-0.4375
1480688164078084,1.4375,-1.0625,-0.5625
1480688164108164,0.25,-0.75,-0.8125
1480688164140249,-1.125,-1.3125,-0.5625
1480688164142760,-1.25,-1.5,-0.6875
1480688164162308,0.0625,-1.5625,-0.75
1480688164186372,1.125,-1.6875,-0.8125
1480688164198404,1.625,-1.25,-1
1480688164220964,1.125,-1.1875,-1.625
1480688164243022,1.625,-1.25,-2.1875
1480688164258065,1.8125,-0.9375,-2.4375
1480688164280623,2.375,-0.6875,-2.6875
1480688164303183,2.8125,-0.3125,-3.0625
1480688164325744,3.125,-0.25,-2.8125
1480688164340785,2.25,0.0625,-2.5
1480688164374873,1,0.3125,-2.3125
1480688164396431,0.9375,0.9375,-1.9375
1480688164418489,0.8125,1.5625,-0.875
1480688164423002,-0.0625,1.625,0.1875
1480688164441050,-0.5,1.75,1.1875
1480688164461104,-1.8125,1.625,2
1480688164483161,-1.875,1.8125,2.3125
1480688164499705,-1.9375,1.875,2.25
1480688164520761,-1.75,1.4375,1.875
1480688164543321,-0.875,1.125,0.8125
1480688164561370,-0.0625,0.3125,0.375
1480688164583930,4,-0.5625,-0.1875
1480688164603482,3.5625,-0.1875,-1.9375
1480688164625540,0.3125,-1.0625,-1.75
1480688164648099,-0.6875,-1.75,-1.6875
1480688164663140,-1.3125,-1.5625,-2
1480688164696228,-0.75,-1.75,-1.25
1480688164708761,0.6875,-1.3125,-1.8125
1480688164723301,1.3125,-1,-1.125
1480688164741349,1.4375,-0.875,-0.1875
1480688164760900,1.0625,-0.625,0
1480688164783459,0.625,-0.25,0.375
1480688164801008,0.625,-0.0625,0.625
1480688164820558,0.0625,0.3125,0.5
1480688164843118,-0.375,-0.0625,0.8125
1480688164861166,0.0625,-0.4375,0.625
1480688164880718,0.375,-0.5,0.375
1480688164906787,1,-0.9375,0.4375
1480688164925838,1.0625,-1.25,0.4375
1480688164948398,1.25,-1.75,0.3125
1480688164970964,1.25,-1.6875,-0.0625
1480688164987002,0.9375,-2.4375,0.6875
1480688165008058,1.8125,-3.75,1.6875
1480688165023097,0,-4.375,0.875
1480688165041145,0,-4.9375,0.25
1480688165060699,2.25,-5.125,0.875
1480688165083256,3.75,-4.6875,0.75
1480688165101305,1.6875,-2.75,1.0625
1480688165120857,-3.6875,-0.875,0.875
1480688165160463,-6.9375,-0.125,0.875
1480688165162469,-5,-0.3125,0.6875
1480688165183524,-0.9375,-0.0625,0.3125
1480688165205583,2.4375,0.8125,-0.0625
1480688165225636,3.6875,1.1875,0.125
1480688165242180,2.375,1.4375,0.8125
1480688165273764,0.5,1.5,0.625
1480688165281283,-1.8125,1.375,0.625
1480688165302840,-1.5,0.9375,0.375
1480688165323397,-0.125,1,0.625
1480688165345955,0.875,1.1875,0.375
1480688165361999,0.75,0.875,0.3125
1480688165390575,0.4375,0.625,0.375
1480688165405614,0.4375,0.5625,0.375
1480688165422159,-0.1875,0.125,0.1875
1480688165443715,-0.4375,-0.0625,0.0625
1480688165465774,0.5,0.1875,-0.0625
1480688165485327,0.5,0.1875,-0.1875
1480688165506382,0,0,-0.25
1480688165525938,-0.375,0.0625,-0.1875
1480688165543481,-0.5,0.25,-0.0625
1480688165563040,-2.0625,0.25,0.25
1480688165596121,-1.25,0.1875,0.375
1480688165603641,0.5,0.5,0.125
1480688165647758,0.25,0.75,0.5
1480688165650265,0.75,1.0625,0.125
1480688165663800,0.3125,1.625,-0.25
1480688165683352,-0.8125,1.3125,-0.125
1480688165713432,-0.5625,0.125,0
1480688165723460,-0.625,-0.75,-0.25
1480688165743515,-0.75,-0.875,-0.25
1480688165765572,-0.9375,-0.875,0
1480688165783620,-0.25,-0.9375,-0.25
1480688165806179,0,-1,0.0625
1480688165825732,-0.5,-1.0625,-0.1875
1480688165844782,-0.25,-0.75,-0.0625
1480688165863423,-0.3125,-0.75,-0.1875
1480688165885982,-1.5,-1.125,-0.4375
1480688165917065,-2.75,-2,0.0625
1480688165923082,-3.1875,-3.0625,1.125
1480688165947145,-1.0625,-2.9375,0.5
1480688165971210,0.5625,-1.4375,0.5
1480688165984243,1,0.0625,0.375
1480688166005801,-0.5625,0.5625,0
1480688166023850,-1.5,-0.125,0
1480688166043401,-0.8125,-0.625,-0.125
1480688166073482,0.0625,-0.0625,-0.125
1480688166085513,1.5,0.5625,-0.3125
1480688166104564,1.0625,1,-0.5625
1480688166125620,0.6875,0.1875,-0.3125
1480688166143668,1.8125,-0.1875,-0.0625
1480688166163220,0.0625,-0.0625,-0.875
1480688166185796,-1.875,-0.8125,-0.3125
1480688166203828,-1.4375,-0.8125,-0.25
1480688166224885,-0.125,-0.5625,-0.4375
1480688166248948,0.8125,-0.625,-0.1875
1480688166271006,1.5,-0.5,-0.25
1480688166299582,1.25,-0.5,-0.125
1480688166305598,0.25,-0.375,-0.0625
1480688166324148,0.375,-0.5,-0.125
1480688166351220,0.125,-0.4375,-0.125
1480688166365758,0.25,-0.125,-0.5625
1480688166383806,0.625,-0.375,-0.4375
1480688166404862,0.6875,-0.625,-0.4375
1480688166425921,0.5,-1,-0.75
1480688166445470,0,-0.875,-0.625
1480688166464521,0.125,-0.9375,-0.6875
1480688166485577,0.375,-0.8125,-0.625
1480688166503625,0.8125,-0.75,-0.75
1480688166528190,0,-0.6875,-0.4375
1480688166545737,-0.125,-0.5625,-0.4375
1480688166572308,0.125,-0.5,-0.5625
1480688166586345,-0.125,-0.375,-0.5
1480688166605898,-0.125,-0.0625,-0.5625
1480688166630963,0.125,-0.125,-0.3125
1480688166646004,0.375,0,0.0625
1480688166665555,0.25,0,0.0625
1480688166685608,-0.25,-0.125,0.125
1480688166706664,-0.875,0.0625,0
1480688166727220,-0.625,0.1875,0.0625
1480688166744265,-0.25,0.125,-0.125
1480688166766324,0.1875,-0.0625,-0.0625
1480688166785875,0.4375,-0.125,-0.0625
1480688166803422,0.25,-0.25,0.125
1480688166825987,0,-0.3125,0.125
1480688166847037,-0.1875,-0.1875,0.25
1480688166876119,-0.25,-0.125,0.3125
1480688166893664,-0.5625,-0.125,0.1875
1480688166905694,0.125,-0.0625,0.125
1480688166929758,0.125,-0.125,0.3125
1480688166946803,-0.1875,-0.25,0.3125
1480688166965854,-0.4375,-0.1875,0.5
1480688166988414,-0.6875,0,0.4375
1480688167019496,-0.0625,0,0.375
1480688167026015,0.0625,-0.0625,0.5625
1480688167048073,0.375,0.25,0.375
1480688167066121,0.5625,0.6875,0.3125
1480688167085672,0.1875,0.1875,0.125
1480688167111240,-0.5625,-0.1875,0.0625
1480688167126782,-0.125,0.0625,0
1480688167147336,0,0,-0.0625
1480688167168392,0.1875,-0.125,-0.1875
1480688167185939,0,-0.125,-0.1875
1480688167206995,-0.6875,-0.4375,-0.125
1480688167237075,-0.6875,-0.5625,-0.1875
1480688167260138,-0.4375,-0.6875,-0.0625
1480688167273172,-0.625,-0.875,0.3125
1480688167288211,-0.4375,-0.8125,0.0625
1480688167306260,-0.5625,-0.6875,0.125
1480688167327315,0.125,-1,0.25
1480688167348371,0,-0.875,0.125
1480688167380456,-0.5,-0.625,0.0625
1480688167386974,-0.9375,-0.3125,0
1480688167409035,-0.8125,-0.3125,0.0625
1480688167426081,-0.625,-0.1875,0.125
1480688167447134,0,-0.0625,-0.125
1480688167468189,1.1875,0.1875,-0.125
1480688167486238,1.8125,0.625,-0.0625
1480688167513310,-0.4375,0.5625,-0.25
1480688167529854,-0.75,0.0625,0.0625
1480688167546398,0.5,-0.0625,0.125
1480688167568457,-0.6875,-0.0625,-0.25
1480688167588009,-0.25,-0.375,-0.0625
1480688167606558,0.875,-0.125,-0.25
1480688167629118,0.4375,-0.25,-0.3125
1480688167651678,0.0625,-0.625,-0.0625
1480688167670729,-0.0625,-0.3125,-0.25
1480688167688776,-0.3125,-0.4375,-0.125
1480688167708328,-0.4375,-0.375,0.0625
1480688167727880,0.3125,-0.0625,-0.125
1480688167748941,0.875,-0.125,0
1480688167767988,0.6875,0.125,-0.125
1480688167798068,0.5625,0.3125,-0.25
1480688167809097,0.125,0,-0.125
1480688167828148,-0.125,-0.25,-0.0625
1480688167846195,-0.4375,-0.375,-0.4375
1480688167870260,-0.5,-0.5625,-0.5
1480688167888307,0,-0.5,-0.375
1480688167910866,0,-0.5,-0.375
1480688167928915,0.1875,-0.4375,-0.375
1480688167957491,0.3125,-0.3125,-0.125
1480688167978045,0,-0.3125,-0.1875
1480688167989076,0,-0.3125,-0.125
1480688168025172,0.0625,-0.375,0.0625
1480688168028680,-0.1875,-0.1875,-0.0625
1480688168048734,-0.0625,-0.3125,0
1480688168068286,0.125,-0.3125,0.125
1480688168090846,0.375,-0.3125,0
1480688168109397,0.0625,-0.3125,-0.125
1480688168145994,-0.375,-0.375,-0.125
1480688168148499,-0.75,-0.4375,-0.0625
1480688168168553,-0.5625,-0.5,-0.0625
1480688168191113,-0.125,-0.5,-0.0625
1480688168214174,0.4375,-0.5,-0.1875
1480688168228712,0.125,-0.5,-0.125
1480688168259295,-0.625,-0.875,0
1480688168274334,-0.4375,-1.0625,-0.125
1480688168304414,-0.1875,-0.9375,-0.1875
1480688168309427,0.25,-0.875,-0.3125
1480688168330483,0.5625,-0.875,-0.1875
1480688168348531,0,-1,-0.125
1480688168370088,-0.25,-1,-0.375
1480688168393651,-0.25,-1,-0.1875
1480688168408691,0,-1.125,-0.25
1480688168444786,-0.5,-1.375,-0.3125
1480688168450803,-1,-1.4375,0.1875
1480688168469853,-1.0625,-1.75,0.375
1480688168491913,0.375,-1.875,0.625
1480688168513469,-0.25,-1.4375,0.4375
1480688168528509,-1.6875,-1,-0.0625
1480688168557588,-2,-0.75,0.125
1480688168572125,-2.0625,-0.875,-0.25
1480688168588671,-1.9375,-1.3125,-0.1875
1480688168612238,0.6875,-1.125,-0.4375
1480688168630781,2.125,-0.4375,-0.375
1480688168648829,2.1875,-0.4375,-0.625
1480688168670888,1.1875,-0.625,-0.6875
1480688168697960,-0.5,-0.75,-0.6875
1480688168716008,-0.6875,-0.5625,-0.5625
1480688168732051,0.5,-0.4375,-0.25
1480688168758120,1.0625,-0.3125,-0.3125
1480688168768648,1.125,-0.125,-0.3125
1480688168792717,1.8125,-0.125,-0.125
1480688168810762,1.1875,0,0
1480688168834824,-0.5,-0.125,-0.125
1480688168858888,-0.875,-0.25,-0.0625
1480688168870920,-0.5,0.0625,-0.25
1480688168888968,-0.4375,0.0625,-0.25
1480688168911027,-0.0625,0.125,-0.1875
1480688168930579,-0.125,-0.0625,-0.1875
1480688168949136,0.25,0.0625,-0.125
1480688168975707,0.125,-0.1875,-0.0625
1480688169001275,-0.0625,-0.125,-0.1875
1480688169015814,-0.0625,0,-0.1875
1480688169038875,0.125,-0.0625,0
1480688169059433,-0.0625,-0.0625,-0.125
1480688169068453,0.4375,0.4375,-0.25
1480688169091515,0.75,0.75,-0.375
1480688169113072,0.5625,0.5,-0.25
1480688169127611,0.375,0.5,0.25
1480688169150170,1.4375,0.4375,0.5
1480688169178746,1.6875,0.9375,0.1875
1480688169196795,2,1.1875,0.125
1480688169210330,2.0625,1.25,0.8125
1480688169231386,2.25,1.375,1.0625
1480688169247930,2.625,1.375,0.9375
1480688169276506,2.125,1.9375,0.25
1480688169300069,-0.4375,1.6875,0.875
1480688169308595,-2.0625,1.75,-0.8125
1480688169330650,-2.9375,1.5625,-0.25
1480688169351205,-2.75,0.3125,-0.125
1480688169367248,-0.875,-0.6875,0
1480688169390310,0.4375,-0.625,-0.6875
1480688169412869,0.0625,-0.3125,-0.9375
1480688169435931,1.4375,0.0625,-0.25
1480688169450469,0.5,0.125,-0.375
1480688169479045,-0.5,-0.375,-0.5625
1480688169501605,-0.9375,0,0.25
1480688169511130,-0.0625,0.625,0.375
1480688169532688,0,0.8125,-0.4375
1480688169553743,-0.625,1.3125,-0.125
1480688169577808,-0.5,2.125,-0.3125
1480688169593351,-2.5,2.375,-0.6875
1480688169615408,-4.1875,1.75,-0.5
1480688169637968,-3.875,1.4375,-0.5625
1480688169669552,-2.375,1,-0.3125
1480688169673563,-0.75,0.3125,-0.1875
1480688169692115,0.25,0.1875,0.0625
1480688169712667,1.0625,0.25,0.0625
1480688169727205,1.0625,0.0625,-0.3125
1480688169756282,0.125,-0.5,-0.375
1480688169772825,-0.0625,-0.875,-0.375
1480688169787365,0.1875,-0.6875,-0.5625
1480688169818448,0.75,-0.875,-0.6875
1480688169832987,1,-1.1875,-0.3125
1480688169854044,0.3125,-1.875,-0.1875
1480688169870085,-0.625,-1.8125,-0.1875
1480688169900165,0.9375,-1.5625,-0.1875
1480688169913700,2.0625,-1.375,-0.3125
1480688169930247,2.3125,-1.4375,-0.5
1480688169959323,1.375,-1.25,-0.625
1480688169973861,0.9375,-1.125,-0.4375
1480688169992414,0.1875,-0.875,-0.1875
1480688170012965,-0.8125,-0.8125,-0.1875
1480688170034021,-1,-1.1875,-0.3125
1480688170056582,-0.3125,-1.375,-0.25
1480688170073125,0.5,-0.875,-0.0625
1480688170093683,0.375,-0.5,0.0625
1480688170110223,-0.1875,-0.375,0
1480688170132783,-1,-0.25,0.125
1480688170155344,-0.8125,0.125,0.25
1480688170170383,-0.6875,0.1875,0.1875
1480688170192446,-0.625,0.375,0.1875
1480688170213999,-0.625,0.25,0.125
1480688170230543,-0.875,0.1875,0
1480688170253103,-1.1875,0.4375,-0.0625
1480688170273658,-1.3125,0.5625,-0.3125
1480688170290706,-1.4375,0.375,-0.375
1480688170312762,-2.125,-0.1875,-0.5
1480688170335824,-2.4375,-0.8125,-0.8125
1480688170365402,-1.75,-1.1875,-0.625
1480688170372923,-1.5,-1.3125,0
1480688170396487,-2.25,-2.1875,0.0625
1480688170410522,-3.4375,-3.75,0
1480688170440100,-2.8125,-6.375,-1.125
1480688170455642,-2.3125,-8.0625,-0.8125
1480688170476197,-1.0625,-8.1875,0.1875
1480688170498757,1.25,-7.0625,0.1875
1480688170522821,2.6875,-5.6875,-0.4375
1480688170529840,4.125,-5.25,0.125
1480688170552901,3.125,-6.5,1.3125
1480688170575461,5.25,-9.0625,2.375
1480688170590502,3.1875,-11.1875,2.25
1480688170612559,-1.3125,-12.5625,2.3125
1480688170635119,2,-12.6875,2.8125
1480688170658683,7.25,-11.8125,2.8125
1480688170680240,10.25,-11.0625,2.3125
1480688170695280,9.9375,-9.5625,1.25
1480688170709817,7.75,-10.1875,2.5
1480688170732881,10.5,-12.875,3.0625
1480688170756947,9.25,-13.625,3
1480688170778001,4.6875,-13.1875,1.625
1480688170793040,3.9375,-11,0.375
1480688170822618,4.6875,-7.8125,0.0625
1480688170843673,5.25,-4.875,-0.3125
1480688170860218,4.6875,-2.8125,0.0625
1480688170875272,2.875,-3.375,1
1480688170896314,5.875,-4.0625,0.9375
1480688170912857,4.3125,-4.875,0.375
1480688170935418,1.1875,-5.8125,-0.125
1480688170956474,1.125,-6.1875,0.0625
1480688170980037,1.625,-5.9375,0.8125
1480688170995076,2.125,-5.4375,0.5
1480688171023653,2.8125,-5.25,0.3125
1480688171032676,3.4375,-4.9375,0.375
1480688171055237,4.6875,-4.75,0.5
1480688171076292,4.625,-3.8125,0
1480688171092836,2.0625,-3.25,0
1480688171122917,-0.375,-2,0.0625
1480688171137957,-0.1875,-0.5625,0
1480688171152996,-0.375,0.1875,0.0625
1480688171175556,1.875,-0.25,0
1480688171197615,3.1875,-0.8125,-0.6875
1480688171212654,0.6875,-0.875,-0.5625
1480688171235215,1.25,-1.25,0.3125
1480688171256271,1.875,-2.375,0.8125
1480688171273818,1.75,-3.5,0.8125
1480688171295375,1.5625,-3.625,0.9375
1480688171318938,0.4375,-3.125,0.4375
1480688171332976,-2.75,-3.4375,0.625
1480688171355536,0.9375,-4.3125,0.875
1480688171378095,2.6875,-4.8125,1.125
1480688171393135,0.1875,-4.375,-0.0625
1480688171422715,0.5,-3.25,0.375
1480688171445275,1.9375,-1.5,1
1480688171452292,0.1875,-1.25,0.5
1480688171475354,-0.3125,-2,1.125
1480688171498415,0.8125,-3.1875,0.75
1480688171518971,0.4375,-4.125,0.25
1480688171543034,-0.75,-5.75,0
1480688171565092,0,-4.0625,0.5625
1480688171586650,-1.5625,-0.5625,2
1480688171595172,-2.125,1.6875,-0.3125
1480688171617732,0.625,4.75,-0.1875
1480688171632271,3.25,6.8125,-0.9375
1480688171656837,4.75,8.875,-0.125
1480688171677891,4.75,12.8125,-2.0625
1480688171700452,0.0625,19.875,-5.1875
1480688171715493,-5.25,27,-9.25
1480688171738554,-11.125,31.625,-9.8125
1480688171775652,-14,33.25,-7.4375
1480688171778158,-14.0625,31.25,-6
1480688171799215,-17.5,27.0625,-5.9375
1480688171820271,-21.25,20.75,-5.5625
1480688171842832,-20.875,14.5625,-3.4375
1480688171858874,-17.9375,9.6875,-3.4375
1480688171880431,-14.6875,6.75,-3.1875
1480688171902991,-10.5,6.0625,-2.1875
1480688171934574,-6.9375,6.1875,-1.375
1480688171938586,-5.4375,6.125,-0.9375
1480688171955130,-4.1875,5.9375,-1.125
1480688171977690,-6.5,6,-0.625
1480688172000249,-9.5625,4.6875,0.8125
1480688172015791,-10.25,4.3125,0.75
1480688172037348,-7.9375,4.25,0.75
1480688172066425,-6,4.625,0.375
1480688172075449,-5.5,3.9375,0.625
1480688172098511,-3.8125,3.5,-0.125
1480688172119065,-2.3125,2.625,0.1875
1480688172136111,-0.375,1.625,0.125
1480688172158171,-1.25,0.4375,-0.0625
1480688172180228,-2.25,-1.0625,0.0625
1480688172195268,-1.8125,-0.875,-0.4375
1480688172217828,-1.0625,-0.625,0.0625
1480688172240889,0.5625,0.3125,0
1480688172255431,1.125,-0.375,0.25
1480688172285508,0.3125,-0.75,-0.0625
1480688172308069,0.3125,-1.875,0.0625
1480688172321103,-1.0625,-2.375,0.1875
1480688172338149,1.0625,-1.9375,0.375
1480688172367727,1.3125,-1.125,0
1480688172374748,1.1875,-0.6875,0
1480688172397806,-0.375,-0.8125,0
1480688172420868,-1.375,-1.5,0.4375
1480688172443428,-1.625,-1.6875,0.1875
1480688172458470,-0.875,-1.0625,0.125
1480688172480527,-0.625,-0.0625,-0.125
1480688172495065,-0.625,0.125,-0.125
1480688172519129,-0.4375,0.3125,0
1480688172540185,-0.9375,0.375,0.5
1480688172555727,-1.5,0.5,0.4375
1480688172577785,-1.625,0.125,0.5
1480688172613382,-1.125,-0.125,0.5625
1480688172630425,0,0,0.1875
1480688172638446,0.125,-0.3125,-0.0625
1480688172668025,0,-0.8125,-0.25
1480688172674545,0.25,-0.6875,-0.125
1480688172697603,0.375,-1.0625,-0.0625
1480688172720164,-1.125,-1.75,-0.3125
1480688172741723,-2,-2.5,-0.625
1480688172757764,-1.375,-3.0625,-0.3125
1480688172780324,-1.0625,-3.8125,0
1480688172808900,0,-4.125,0.125
1480688172817928,0.75,-4.25,0.5625
1480688172840484,-0.6875,-3.8125,0.375
1480688172861540,-4.4375,-1.75,-0.375
1480688172883598,-11.3125,-0.1875,0.3125
1480688172907664,-13.1875,-0.375,0.375
1480688172922201,-9.375,-0.4375,0.375
1480688172945262,-4.625,0.5625,0.375
1480688172967822,0.125,-0.375,-0.1875
1480688172981358,1.9375,-1,-0.625
1480688172997903,3.625,-0.3125,-0.5
1480688173020463,1.5,0.3125,-0.5
1480688173041520,-1.3125,0.0625,-0.6875
1480688173058067,-1.875,-0.25,-0.25
1480688173089145,-0.0625,0.8125,-0.6875
1480688173101678,3.5,3,-0.875
1480688173117721,4.25,5,0.1875
1480688173140281,0.25,6,0.625
1480688173162849,-4.6875,5.6875,0.1875
1480688173178884,-7.5,5.25,0.125
1480688173200440,-5.375,4.9375,0.1875
1480688173224008,-1.8125,2.9375,-0.375
1480688173238043,-0.625,0,-0.125
1480688173273637,3.125,-1.8125,0.875
1480688173290180,2.5625,-2.3125,0.6875
1480688173297198,-3.75,-3.9375,0
1480688173321764,-6.3125,-4.375,0.4375
1480688173342819,-5.875,-4.25,0.9375
1480688173365380,0.0625,-4.75,1.6875
1480688173380419,6.125,-3.875,0.75
1480688173403481,7.4375,-1.3125,0.1875
1480688173417017,1.1875,-2.625,-0.5
1480688173440579,0.5,-5.8125,0.3125
1480688173464643,-1.125,-9.5625,2.625
1480688173477177,6.1875,-13,4.5
1480688173500238,9.6875,-11.375,4.5
1480688173532323,8.1875,-7.625,1.5
1480688173551374,4.0625,-5.4375,-0.625
1480688173575438,5.0625,-3.5,0.25
1480688173583459,4.5625,-0.6875,0.375
1480688173596996,2.9375,3.75,-0.6875
1480688173620057,0.125,8.4375,-0.3125
1480688173642617,-7.375,9.625,-1.875
1480688173665177,-15.5625,5.375,-3.375
1480688173708792,-15.8125,1.3125,-1.5
1480688173719822,-8.625,-0.0625,0
1480688173731352,-2.9375,1.75,0
1480688173740377,-0.5625,4.6875,-0.75
1480688173763950,-1,8.0625,-1.6875
1480688173783992,-3.625,8.375,-1.8125
1480688173800537,-8.625,7,-0.1875
1480688173824101,-12.625,6.25,-0.5
1480688173851672,-12.5625,6,-0.875
1480688173877241,-7.625,4.3125,0
1480688173884761,-0.5625,2.625,0.6875
1480688173903812,3.5,0.9375,0.0625
1480688173920356,4.0625,0.75,-0.1875
1480688173942915,2.1875,1.9375,0.0625
1480688173965477,-1.25,4,-0.6875
1480688173980516,-5.375,6.0625,-0.75
1480688174003076,-9.8125,8.0625,0.875
1480688174024132,-13.375,6.5625,0.6875
1480688174041177,-13.5,2.875,-0.1875
1480688174064739,-8.625,1.5,-0.25
1480688174083791,-2.375,1.5,0.1875
1480688174107854,3.4375,1.0625,0.25
1480688174130916,6.4375,-0.1875,-0.3125
1480688174151470,9.8125,-0.0625,-0.3125
1480688174160995,8.3125,0.625,-0.4375
1480688174197593,2.1875,0.1875,-1.25
1480688174205613,-1.6875,-1.5,-1.25
1480688174220152,-1.5,-1.9375,-0.1875
1480688174242712,0.1875,-2.125,-0.3125
1480688174265272,0.25,-1.5,-0.375
1480688174279811,-1.375,-0.375,-0.8125
1480688174318916,-1.5625,1.125,-0.375
1480688174331950,-6.375,3.625,0.9375
1480688174340976,-10.4375,5.1875,1.5625
1480688174364035,-14.125,2.5625,-0.875
1480688174385092,-10.6875,0.375,1.0625
1480688174408654,-0.8125,0.25,1.5
1480688174422695,5.6875,-0.1875,0.3125
1480688174451769,7.0625,-0.25,0.0625
1480688174474329,8.5,0.5625,0.1875
1480688174484857,3.4375,-0.25,-0.5
1480688174505411,-2.625,-1.1875,0.1875
1480688174519448,-3.9375,-2.125,0.375
1480688174550532,0,-2.125,0.5625
1480688174565070,2.75,-0.875,1.0625
1480688174579609,2.3125,-1.625,0.9375
1480688174602670,1.5,-4.125,0.125
1480688174625229,4.5625,-4.8125,0.0625
1480688174663331,5.625,-3.375,0.25
1480688174665837,4,-1.1875,-0.75
1480688174685390,-0.8125,-1.5,-0.9375
1480688174707951,-2.1875,-0.0625,0.625
1480688174723491,-1.375,0.0625,-0.25
1480688174759589,-2.3125,-1.875,-0.1875
1480688174766605,-0.125,-1.0625,-0.125
1480688174790171,2.375,1.5,0.5
1480688174813231,-1.0625,2.125,-0.5
1480688174826265,-6.6875,1.25,-2.1875
1480688174842809,-8.875,0.8125,-1.25
1480688174865871,-6.875,1.4375,-0.0625
1480688174886925,-4.9375,1.875,-0.9375
1480688174903980,-2.8125,1.75,-1.375
1480688174941571,0.1875,0.5,-1.25
1480688174953603,1.1875,-0.9375,-1
1480688174966136,2.1875,-1.3125,-1.4375
1480688174986691,2.5625,-0.375,-0.625
1480688175006243,0.875,-0.1875,-0.375
1480688175023291,-2.4375,0.4375,-0.875
1480688175046850,-2.75,0.1875,-1.1875
1480688175073924,-3.4375,0.3125,0.375
1480688175082946,-2.75,1.125,0.0625
1480688175107012,-2.625,1.1875,0.375
1480688175128066,-2.0625,0.75,0.9375
1480688175143608,-2,0.3125,0.5
1480688175172685,-0.3125,1,0.625
1480688175188729,1.1875,0.6875,0.375
1480688175202264,2.6875,-0.125,0.25
1480688175240365,3.75,0.3125,0.5
1480688175255405,3.75,0.8125,0.875
1480688175261924,0.875,0.0625,0.25
1480688175285486,-1,-1.3125,0.8125
1480688175308045,-0.4375,-0.8125,1
1480688175322084,0.5,-0.4375,0.1875
1480688175345144,2.5,-0.25,0.1875
1480688175367704,2.3125,-0.75,-0.25
1480688175382243,0.5625,-1.9375,-0.5625
1480688175412824,-0.0625,-2.625,-0.3125
1480688175427864,0.25,-3.3125,-0.625
1480688175450424,2.9375,-1.5625,0.3125
1480688175466467,2.125,0.25,0.5
1480688175488027,0.4375,-0.375,0.375
1480688175510082,-0.1875,-0.5625,0.75
1480688175539160,-1.25,0,1.1875
1480688175548184,-2.3125,-1.4375,0.375
1480688175570242,-1.5625,-2.25,1.25
1480688175585283,1,-1.875,1.625
1480688175607843,1.6875,-1.875,1
1480688175630403,1.625,-2.3125,0
1480688175644943,1.0625,-2.1875,-0.625
1480688175668003,-1.0625,-1.25,-1.0625
1480688175689059,-0.5,-1.25,-0.0625
1480688175705101,0,-0.25,0.6875
1480688175728163,1.75,1.75,0.3125
1480688175748718,2.25,1.5,-0.3125
1480688175772783,0.6875,-0.625,0.25
1480688175793837,1.4375,-2.375,-0.3125
1480688175808879,1.0625,-2.0625,-1.3125
1480688175825425,2.625,-0.4375,-0.25
1480688175847981,1.8125,0.75,-1.3125
1480688175876558,-0.4375,0.5625,-0.25
1480688175885080,-0.8125,-0.4375,-0.5625
1480688175907640,0.5625,-0.9375,-0.625
1480688175928697,1.6875,-0.625,-0.6875
1480688175945240,2.5,0,-0.75
1480688175967800,1.0625,-0.5,-0.8125
1480688175988857,-0.25,-0.6875,-0.75
1480688176005400,-1.0625,-1.0625,-0.375
1480688176029464,-1.1875,-0.9375,-0.3125
1480688176050520,-0.4375,-0.5625,0
1480688176072582,-0.9375,0.125,0.375
1480688176087618,-1.0625,0.1875,0.0625
1480688176110178,-0.0625,0.1875,0.25
1480688176125218,-0.1875,0.1875,0.375
1480688176148280,0.1875,0.4375,0
1480688176170338,0.8125,0.6875,0
1480688176184878,-0.5,0.1875,0
1480688176208439,-1.625,-0.1875,0.125
1480688176238018,-2,-0.5,0.25
1480688176244535,-1.4375,-0.625,-0.0625
1480688176267597,-0.1875,-0.75,0
1480688176306701,-0.0625,-0.9375,0
1480688176328258,-0.4375,-0.75,0
1480688176330765,-1,-0.75,0.125
1480688176350819,-0.8125,-0.6875,0.0625
1480688176365858,0,-0.6875,0.0625
1480688176387917,0.1875,-0.6875,0.125
1480688176410477,0.25,-0.5625,0
1480688176432535,0.25,-0.6875,-0.0625
1480688176448078,0.375,-0.5625,-0.125
1480688176470135,-0.0625,-0.875,0.0625
1480688176484675,-1.4375,-1.3125,-0.3125
1480688176515256,-1.5,-2.1875,-0.5
1480688176540323,-0.875,-2.8125,-0.125
1480688176551352,-0.375,-3.375,0.625
1480688176575416,3.5625,-4.875,0.6875
1480688176605999,5.625,-4.625,0.625
1480688176611011,3.6875,-3.125,0.375
1480688176627554,2,-3.875,-0.25
1480688176651118,2.4375,-3.875,0.0625
1480688176671170,5.375,-1.625,-0.0625
1480688176687714,3.375,0.875,-0.5625
1480688176710274,-1.0625,0.9375,-0.0625
1480688176731329,-2.25,0.8125,0.6875
1480688176748876,-3.25,0.125,0.3125
1480688176770435,-1.1875,0.1875,0.0625
1480688176791615,1.0625,0.25,0.1875
1480688176815052,1,-0.25,0.125
1480688176832600,0.9375,-0.5,-0.5
1480688176860173,1.1875,-0.4375,-0.0625
1480688176875213,0.0625,-0.4375,-0.25
1480688176904290,-0.375,-0.5,-0.75
1480688176911308,-1.4375,-0.1875,-0.875
1480688176927854,-1,-0.5625,-0.6875
1480688176950413,-0.375,-0.6875,-0.5
1480688176972973,0.625,-0.6875,-0.375
1480688176994029,1.125,-0.75,-0.25
1480688177010072,0.75,-0.5625,-0.4375
1480688177049175,0.5,-0.3125,-0.125
1480688177053687,-0.25,-0.1875,-0.0625
1480688177070231,-0.9375,0.1875,0.0625
1480688177092792,-0.625,0.375,0.25
1480688177115352,-1.125,-0.25,0.6875
1480688177130893,-0.125,0.0625,0.4375
1480688177152952,0.125,-0.1875,0.6875
1480688177175511,0.4375,-0.6875,0.375
1480688177196066,-0.125,0.8125,0.625
1480688177212610,-1.0625,0.5625,-0.1875
1480688177228653,-0.5625,-1.3125,-0.0625
1480688177250210,1.375,-1.5,-0.1875
1480688177272770,0.8125,-1.375,-0.4375
1480688177293826,0.1875,-0.625,-0.375
1480688177310369,-1.1875,-1.25,-0.8125
1480688177332929,0.1875,-2.9375,-0.6875
1480688177347468,2.5625,-1.375,-0.5
1480688177370029,2,0.3125,-0.6875
1480688177393091,1.25,-0.3125,-0.25
1480688177407130,-0.125,-0.75,0.25
1480688177436205,-0.625,-1,0.25
1480688177458766,-0.8125,0.0625,0.1875
1480688177473807,0,1.1875,-0.4375
1480688177490350,0.9375,1.5625,-0.25
1480688177512908,-0.5,0.75,0.625
1480688177533965,-2.3125,0.5625,0.625
1480688177550008,-2.6875,0.875,-0.3125
1480688177579084,-1.125,0.3125,0.375
1480688177594125,-0.6875,0.25,-0.1875
1480688177623703,1.125,0.4375,-0.5
1480688177633229,1.125,0.5,0
1480688177661303,0,0.4375,-0.5625
1480688177671831,-0.375,0.875,-0.125
1480688177692888,-2.0625,0.25,-0.1875
1480688177713943,-1.4375,-0.4375,-0.3125
1480688177730487,0.1875,-0.8125,0.1875
1480688177752546,0.625,-0.1875,-0.125
1480688177774107,0.1875,0.4375,-0.3125
1480688177790146,-0.5,0,-0.3125
1480688177814711,-0.25,0.375,-0.375
1480688177833761,-0.9375,0.1875,-0.375
1480688177850305,-0.5625,-1.25,0.25
1480688177872866,0,-1,0.5
1480688177901442,0.25,0.0625,0.0625
1480688177910966,-0.875,0.6875,0.375
1480688177940563,-1.75,0.0625,0
1480688177972130,-1.125,-1.6875,-0.625
1480688177976641,-0.0625,-1.6875,-0.375
1480688177992685,0.375,-0.3125,-0.3125
1480688178015244,0.75,-0.625,-0.4375
1480688178038305,-0.6875,-0.5,-0.1875
1480688178052845,-1.1875,-0.25,0.1875
1480688178081421,-1.25,-0.1875,0.5
1480688178089442,-1.3125,0.6875,0.4375
1480688178113004,-0.0625,1.0625,0.5625
1480688178135064,-0.3125,0.875,1.25
1480688178149602,-0.4375,0.4375,0.5625
1480688178172663,0.1875,0.75,0.5625
1480688178196225,-0.375,0.4375,0.5
1480688178218284,0,-0.5,0.1875
1480688178246359,0.5,-0.625,0.1875
1480688178255884,0.25,-0.5,0.1875
1480688178269421,0.4375,0.0625,0.125
1480688178294487,0,0.4375,-0.0625
1480688178315042,-0.5,0.25,-0.3125
1480688178336099,-1.1875,0.1875,-0.3125
1480688178352641,-1.125,-0.25,-0.4375
1480688178375702,0.4375,-0.5625,-0.5
1480688178390744,1.5,-0.5625,-0.4375
1480688178412802,1,-0.25,-0.5
1480688178435364,0.625,-0.3125,0.0625
1480688178456421,-0.125,-0.625,0.4375
1480688178478978,-0.625,-0.25,0.4375
1480688178503041,-0.5625,0.125,0.375
1480688178517580,0,-0.25,0.4375
1480688178538638,1.375,-0.875,0.25
1480688178563703,1.75,-0.875,0.0625
1480688178583757,1.875,-1,-0.25
1480688178592780,1.0625,-1.25,-0.25
1480688178615340,0.875,-1.25,-0.125
1480688178635895,1.25,-1.8125,-0.125
1480688178652940,1.375,-1.875,-0.0625
1480688178676002,0.6875,-1.875,-0.1875
1480688178696556,0.75,-1.6875,-0.375
1480688178712599,1.0625,-1.6875,-0.8125
1480688178735159,1.125,-1.75,-0.75
1480688178756215,1.8125,-2,-0.6875
1480688178773260,1.75,-0.75,-0.5
1480688178802840,1.4375,-0.9375,-1.25
1480688178818882,1.25,-1.875,-1
1480688178849463,1.3125,-1.6875,-0.625
1480688178869014,1.625,-1.0625,-1.3125
1480688178877537,1.1875,-0.375,-0.875
1480688178892076,0.4375,-0.3125,-0.875
1480688178915137,-1.0625,-0.1875,-0.625
1480688178939201,-1.125,-0.0625,-0.5625
1480688178953239,-0.625,0.3125,-0.875
1480688178975302,0.5,-0.0625,-0.6875
1480688178998366,2.25,0,-0.625
1480688179026433,2.4375,0.375,-0.5
1480688179035458,0.9375,0.375,-0.375
1480688179058019,0.3125,0.125,-0.5625
1480688179072057,0.125,0,-0.0625
1480688179095115,0.4375,0.25,-0.25
1480688179118177,0.5,-0.1875,-0.375
1480688179132216,1.1875,-0.25,-0.125
1480688179155277,1.1875,-0.3125,-0.125
1480688179178337,1,0,0.1875
1480688179192375,1.1875,0.4375,0.0625
1480688179215436,0.4375,0,0.125
1480688179237999,0.4375,-0.3125,0.5625
1480688179252033,0.8125,0.625,0.4375
1480688179275094,-0.125,0.0625,-0.0625
1480688179312694,-0.875,-0.8125,0.0625
1480688179315202,0.125,-0.25,0.125
1480688179338765,0,-0.4375,0.125
1480688179357818,-0.4375,-0.875,0.125
1480688179378871,-0.0625,-0.625,-0.3125
1480688179395416,0.5,-0.75,-0.1875
1480688179417975,0.625,-0.875,-0.0625
1480688179439031,0.5625,-0.875,0
1480688179455575,0.125,-0.6875,0
1480688179477633,-0.125,-0.6875,-0.375
1480688179500193,-0.25,-0.5625,-0.25
1480688179515233,1.0625,0.3125,-0.5
1480688179537793,1.5625,0.4375,-0.6875
1480688179560353,1.4375,0.1875,-0.5
1480688179575393,0.875,0.3125,-0.25
1480688179605976,2,-0.25,-0.5625
1480688179635554,4.3125,-0.9375,-0.625
1480688179638060,7.9375,-0.8125,-0.8125
1480688179657612,9,0.0625,-1.0625
1480688179680173,3.625,-0.3125,0.1875
1480688179696715,1.375,-1.0625,-0.625
1480688179725292,-0.875,-2.125,-0.25
1480688179738828,-0.5,-3.8125,0.25
1480688179755372,2.75,-3.3125,0.375
1480688179777933,5.8125,-2.375,0.1875
1480688179800492,4.5625,-1.75,0.625
1480688179821548,1.75,-2.4375,0.5
1480688179837591,-0.4375,-4.125,0.75
1480688179860652,-0.25,-4.8125,1.3125
1480688179882710,2.0625,-5.3125,0.6875
1480688179898252,4.25,-6.875,0.25
1480688179920311,5.3125,-8.4375,0.25
1480688179935350,5.9375,-10.8125,0.125
1480688179957911,5.25,-13.9375,1.0625
1480688179980470,5.6875,-14.9375,1.6875
1480688179994508,4.8125,-14.75,2
1480688180025100,7.75,-16.4375,2.75
1480688180048651,13.375,-19.6875,3.3125
1480688180079233,19.4375,-23.125,3.9375
1480688180081740,21.9375,-22,3.5
1480688180101793,17.3125,-17.875,2.4375
1480688180121345,11.25,-13.375,0.6875
1480688180137889,4.25,-9.5625,0.625
1480688180160449,-1.875,-5.6875,2
1480688180181505,-4.1875,-2.375,1.5625
1480688180198049,-3.625,2.3125,1.1875
1480688180220107,-6.5625,5.1875,1.0625
1480688180248683,-9.0625,6.125,0.3125
1480688180257710,-8.75,6.3125,-0.0625
1480688180281270,-6.25,6,0.0625
1480688180302326,-4.875,5.375,-0.9375
1480688180325391,-3.5,5.125,-1.25
1480688180346443,-2.5,5.0625,-1.125
1480688180369003,-2.8125,3.875,-0.8125
1480688180377526,-1.5625,2.6875,-0.125
1480688180400086,0.1875,1.1875,-0.0625
1480688180422646,-0.8125,0.5625,0.25
1480688180445206,-0.5,0.375,0.125
1480688180460246,1.375,0.875,0.375
1480688180481302,1.6875,1.1875,0.25
1480688180503862,0.0625,0.5,0.0625
1480688180534944,-1.5625,-1.1875,0.875
1480688180548481,0.625,-3.3125,0.9375
1480688180559511,3.4375,-4.375,0.1875
1480688180580065,3.75,-3.9375,-0.125
1480688180602625,2.4375,-2.5,-0.125
1480688180625687,0.75,-1.75,-0.375
1480688180647744,-0.4375,-1.6875,-0.5625
1480688180678326,-0.0625,-0.9375,-0.5625
1480688180680833,0.125,-0.0625,-0.875
1480688180701889,0.375,-0.5,-0.6875
1480688180721443,0,-1.8125,-0.25
1480688180737485,0.25,-2.3125,-0.3125
1480688180760043,-0.4375,-1.8125,-0.0625
1480688180783104,-0.3125,-1.125,0.0625
1480688180797643,-0.0625,-0.6875,0.1875
1480688180820203,0,-0.625,-0.125
1480688180842763,0.0625,-0.3125,-0.125
1480688180858304,-0.625,-0.6875,0.0625
1480688180881366,-2.125,-0.625,0.5625
1480688180902924,-3,-0.375,0.4375
1480688180931499,-2.3125,-0.4375,0.375
1480688180948545,-1.375,0.1875,0.375
1480688180977623,-0.625,0.375,0.375
1480688180982134,1.1875,-0.125,0.25
1480688181000684,1.4375,-0.125,0.4375
1480688181022749,-0.625,-0.375,0.375
1480688181043797,-2.75,-0.25,0.625
1480688181060342,-2.9375,0.625,0.625
1480688181090422,-2.6875,1.6875,1
1480688181105462,-3.3125,3.5625,1.375
1480688181120503,-5.5,5.4375,0.6875
1480688181142560,-8.5625,5.6875,0.875
1480688181163617,-10.9375,5.25,1.3125
1480688181180160,-9.375,4.3125,1.25
1480688181202721,-5.25,2.375,1.125
1480688181225284,-0.3125,0.6875,0.8125
1480688181247840,3.4375,-0.5625,1.1875
1480688181262880,5.875,-0.375,1.125
1480688181283939,4.375,1.375,0.625
1480688181300480,-1.5625,2.25,1.375
1480688181322540,-6.8125,3.1875,1.0625
1480688181343595,-9,5.125,1.375
1480688181361141,-8.6875,6.5625,0.8125
1480688181382700,-10.9375,5.9375,0.625
1480688181403755,-12.875,3.9375,0.375
1480688181420299,-10.5625,2.875,0.625
1480688181448373,-7.75,2.25,1.125
1480688181463915,-3.375,0.6875,0.875
1480688181481462,2.4375,-0.1875,-0.0625
1480688181504023,6.125,-1,-0.9375
1480688181526583,7.4375,-0.9375,-0.5
1480688181540119,6.5,0,0.125
1480688181563680,3.25,0.1875,0.125
1480688181583734,-0.9375,0.5625,0.125
1480688181600278,-3,1.4375,0.1875
1480688181623339,-2.625,0.875,0.375
1480688181643893,-0.75,0.3125,0.3125
1480688181660437,2.25,2.125,0.3125
1480688181682998,2.3125,2.4375,-0.0625
1480688181705061,-1.6875,1.0625,0.1875
1480688181720097,-3.625,1,0.375
1480688181742656,-4.5625,0.125,0.625
1480688181765217,-5.25,-2.25,0.5
1480688181788779,-1.8125,-4.125,-0.25
1480688181802315,1.5625,-6.9375,-0.125
1480688181825378,7.8125,-8.75,1.3125
1480688181839915,11.625,-7.1875,1.0625
1480688181876512,10.375,-4.625,0.6875
1480688181900075,5.125,-2.9375,0.6875
1480688181902581,-0.9375,-0.4375,1.375
1480688181924139,-3.1875,1.125,1.125
1480688181946699,-4.375,1.25,1.3125
1480688181959735,-1.9375,1.125,0.6875
1480688181990315,0.4375,1.125,0.25
1480688182011371,1.8125,1.125,0.125
1480688182035435,0.875,1.4375,-0.0625
1480688182042955,-0.4375,1.4375,0
1480688182065515,-0.9375,1.4375,-0.0625
1480688182086069,-2.1875,2,-0.4375
1480688182110133,-2.625,5.1875,-0.1875
1480688182132701,-5.5625,6.0625,0.625
1480688182139714,-8.875,3.0625,1.4375
1480688182170293,-6.25,0,1.4375
1480688182192853,-2.125,-1.4375,0.5
1480688182205889,3.125,-1,0.25
1480688182222934,5.5,-0.25,0.25
1480688182245995,3.9375,0.125,-0.125
1480688182267552,0.625,0,-0.375
1480688182290615,-1.6875,-0.8125,-0.4375
1480688182321195,-1,-1.375,-0.75
1480688182326208,1.0625,-0.3125,-0.875
1480688182344256,2.3125,0.6875,-1.125
1480688182365312,0.375,-0.6875,0.1875
1480688182389378,-0.6875,0.125,-0.6875
1480688182405419,1.1875,0.875,-0.75
1480688182425472,3.25,1.125,-0.8125
1480688182446528,3.75,-0.125,-0.1875
1480688182462571,1.5625,-2.0625,-0.4375
1480688182492651,0.4375,-2.375,-0.5
1480688182506191,1.5,-1.8125,-0.9375
1480688182522730,2.375,-1.25,0
1480688182552810,2.5625,-1.125,-0.625
1480688182574367,2.25,-1.375,-1
1480688182590915,1.5625,-1.625,-0.5
1480688182620991,1.125,-1.375,-0.5625
1480688182645056,0.5,-0.75,-0.625
1480688182658592,-0.4375,-1.125,-0.5
1480688182665109,0.5,-1.3125,-0.625
1480688182687669,1.875,-0.75,-0.25
1480688182703210,1.75,-0.0625,-0.4375
1480688182727275,1.0625,-0.625,-0.6875
1480688182747829,0.0625,-0.8125,-0.625
1480688182762870,0,-0.1875,-0.5625
1480688182791947,-0.5625,-0.25,-0.3125
1480688182807989,-0.9375,-0.5,-0.6875
1480688182822528,0,-0.5,-0.625
1480688182845087,0.375,-0.5625,-0.6875
1480688182867648,1.3125,-0.75,-0.5625
1480688182891212,0.75,-0.375,-0.4375
1480688182912768,0,-0.375,-0.5
1480688182942848,0.5625,-0.0625,-0.375
1480688182944853,0.4375,0.0625,-0.1875
1480688182965408,0.125,0.0625,-0.5
1480688182987969,0.8125,-0.0625,-0.5
1480688183002005,0.9375,-0.1875,-0.1875
1480688183026069,0.3125,-0.125,-0.125
1480688183047627,-1.1875,-0.125,-0.4375
1480688183062165,-1.125,0.3125,-0.3125
1480688183085226,-0.125,0.5625,-0.375
1480688183107786,0.5625,0.625,-0.0625
1480688183129345,0.9375,0.1875,-0.125
1480688183151402,0.9375,0.1875,-0.1875
1480688183168949,-0.0625,0.0625,0
1480688183197023,-1.5,0.0625,0.0625
1480688183205546,-1.875,0.1875,0
1480688183228106,-0.5,0,-0.0625
1480688183249163,0.6875,0.1875,0.0625
1480688183265205,1.5,0.625,0
1480688183287765,0.5,0.6875,0.3125
1480688183308821,-1.5625,1,0.375
1480688183333386,-1.875,1.9375,0.1875
1480688183355446,-2.3125,2.0625,0.375
1480688183376500,-1,2.5,0.6875
1480688183385525,-0.75,4.0625,0.5
1480688183407083,-2.9375,4.9375,0.9375
1480688183413099,-6.9375,4,0.625
1480688183435660,-8.75,2.875,0
1480688183450699,-6.375,1.8125,0.25
1480688183474763,-2,0.8125,0.1875
1480688183497322,2.3125,0.625,-0.25
1480688183526902,4.375,0.9375,-0.25
1480688183533418,3,0.875,-0.3125
1480688183556982,0.4375,0.875,-0.125
1480688183570517,-2.4375,1,0
1480688183593080,-4.4375,0.875,0
1480688183632682,-3.625,0.875,0.3125
1480688183637194,-2.6875,1.25,0.0625
1480688183653236,-2.25,1.25,0
1480688183684319,-2.4375,1.25,0.25
1480688183698357,-3.375,1.375,0.0625
1480688183713397,-4.8125,0.875,0.375
1480688183744479,-4,-0.375,0.125
1480688183750495,-0.75,-1.375,-0.375
1480688183773055,1.9375,-1,-0.25
1480688183795615,3.125,-0.0625,-0.4375
1480688183819679,2.5625,-0.4375,-0.5625
1480688183837728,1.1875,-0.6875,-0.375
1480688183855777,0.9375,-0.5625,-0.375
1480688183870816,0.8125,-0.5,-0.4375
1480688183893397,0.5625,-0.25,-0.375
1480688183915434,0.1875,0.1875,-0.5625
1480688183931979,0.125,-0.1875,-0.25
1480688183953034,-0.625,-0.75,-0.3125
1480688183978603,-0.6875,-0.625,-0.4375
1480688184007177,0.8125,0.125,-0.25
1480688184013194,1.5625,0.125,0
1480688184043774,1.375,0.1875,0.0625
1480688184052298,1.0625,0.5625,0
1480688184073354,0.4375,0.5,0.125
1480688184096917,-1.0625,0.3125,0.25
1480688184119477,-1.4375,0.1875,0
1480688184143040,0,0.4375,0.125
1480688184166603,1.4375,0.25,0
1480688184179637,1.5625,0.1875,0
1480688184209717,-0.25,-0.625,0
1480688184215733,-0.6875,-1.125,0.4375
1480688184233781,-0.5625,-1.75,0.75
1480688184257347,0.125,-1.75,0.5625
1480688184279903,0.6875,-2,-0.25
1480688184299456,2.5,-3.0625,-0.6875
1480688184312990,4.5625,-3.4375,-0.5
1480688184344575,4.125,-2.875,-0.3125
1480688184352096,2.5625,-1.375,-0.5625
1480688184374655,-1,-0.8125,0
1480688184400224,-1.5625,-1.125,0.25
1480688184422282,-0.6875,-0.75,0.1875
1480688184443337,0.9375,0.5625,0.3125
1480688184455872,1,1.0625,0.375
1480688184489963,-0.125,1.25,0.3125
1480688184501995,-0.75,1.125,0.375
1480688184515530,-0.9375,1.375,0.6875
1480688184534079,-1.4375,1,0.5625
1480688184556140,-1.125,0.25,0.1875
1480688184586220,-0.125,-0.3125,-0.3125
1480688184609280,0.5,-0.4375,-0.0625
1480688184613290,-0.5625,-0.1875,0.0625
1480688184635850,-2.25,-0.0625,-0.125
1480688184674954,-3.375,-0.625,-0.25
1480688184677460,-3.3125,-0.625,-0.4375
1480688184698517,-0.375,-0.1875,-0.125
1480688184721078,0.8125,0.1875,-0.125
1480688184750153,0,0.6875,-0.1875
1480688184755672,-1.0625,0.625,0.0625
1480688184778228,-1.9375,0.5,0.1875
1480688184793269,-2.0625,-0.125,-0.0625
1480688184815828,-1.1875,-0.1875,0.125
1480688184839893,-0.875,-0.3125,0
1480688184861952,-1.3125,-0.625,-0.25
1480688184876991,0,-1.3125,-0.625
1480688184911081,1.75,-1.3125,-0.5
1480688184914591,2.125,-1.5625,-0.1875
1480688184951689,1.5,-2.5,0.4375
1480688184958207,1.8125,-4.0625,0.1875
1480688184973247,3,-4.5625,-0.5625
1480688184998815,2.875,-6.0625,-0.3125
1480688185026889,2.0625,-6.8125,0.0625
1480688185033407,2.5,-6.125,0.0625
1480688185062985,3.375,-5.5,-0.75
1480688185078026,4.1875,-5.8125,-0.625
1480688185093066,5.4375,-6.4375,-0.0625
1480688185115625,4.875,-5.75,0.5
1480688185138189,2.125,-4.0625,-0.0625
1480688185160745,0.25,-3.1875,-0.3125
1480688185183305,0.875,-2.8125,-0.0625
1480688185206368,2.125,-1.75,-0.375
1480688185221912,3.4375,-1.125,-0.375
1480688185235445,3.125,-1.125,-0.5
1480688185258004,3.3125,-0.75,-1.1875
1480688185274548,1.0625,-0.875,-1.1875
1480688185295605,-0.125,-0.8125,-0.875
1480688185329193,-0.0625,-0.125,-0.75
1480688185340729,0.625,-0.25,-0.5625
1480688185363283,2.125,-0.0625,-0.125
1480688185378324,0.8125,0.4375,0.0625
1480688185394868,0,0.5,0.0625
1480688185415422,-0.625,0.5625,0.375
1480688185446505,-1.75,0.625,0.5625
1480688185462046,-1.75,1,0.0625
1480688185483102,-1.6875,0.6875,0.375
1480688185501151,-0.5625,0.375,0.6875
1480688185520703,-0.75,0.625,0.75
1480688185535743,-0.875,0.9375,0.5625
1480688185558303,-0.375,1.0625,0.5625
1480688185575850,-1.0625,0.875,0.6875
1480688185595401,-0.6875,1.5625,0.5
1480688185620970,-1.9375,1.5,0.25
1480688185636009,-2.625,0.625,-0.0625
1480688185672609,-1.125,0.3125,0.375
1480688185678121,0.3125,1,0.25
1480688185696170,0,1.375,-0.25
1480688185718729,-0.375,2.3125,-0.3125
1480688185741288,-1.875,3.3125,-0.25
1480688185760842,-3.5625,3.3125,-0.125
1480688185778889,-5.4375,2.9375,-0.25
1480688185805964,-6.125,3.25,-0.1875
1480688185815988,-5.25,3.875,-0.375
1480688185843561,-5.375,3.3125,-0.1875
1480688185858100,-4.25,2.125,0.375
1480688185876148,-1.75,2,0.375
1480688185895701,-0.25,2.125,0.3125
1480688185918260,-0.6875,1.5,-0.125
1480688185940819,-1.375,1.125,-0.5
1480688185962879,-1.1875,1.25,-0.25
1480688185985438,-1.5625,0.875,0.0625
1480688185995966,-1.0625,0.6875,-0.25
1480688186017022,-0.1875,0.8125,-0.25
1480688186041086,0,0.75,-0.25
1480688186056128,0,0,-0.25
1480688186077182,-0.375,-0.5,-0.25
1480688186098239,0,-0.375,-0.125
1480688186129322,0.5,-0.3125,-0.1875
1480688186135839,0.0625,-0.9375,0
1480688186158398,-0.125,-1.1875,-0.0625
1480688186181960,-0.125,-0.8125,-0.0625
1480688186197003,-0.3125,-2.3125,0.375
1480688186227083,1.875,-4.375,0.75
1480688186243625,3.625,-5.4375,0.6875
1480688186273204,6.5,-5.6875,0.1875
1480688186295262,8.6875,-5.125,0.25
1480688186308799,8.125,-4.25,0.5
1480688186316820,4.25,-3.4375,0.5
1480688186339382,0.875,-3.5625,0.1875
1480688186360435,0.3125,-3.875,0.1875
1480688186376979,1.5,-3.1875,0.0625
1480688186398036,2.5625,-1.3125,-0.3125
1480688186420596,1.875,0,-0.4375
1480688186438645,-0.875,0.875,0.1875
1480688186458196,-1.3125,1.75,0.3125
1480688186482259,-1.8125,3.3125,0.6875
1480688186503817,-2.75,5.8125,1
1480688186528383,-5.375,8.3125,1
1480688186547934,-11.1875,9.9375,0.4375
1480688186565982,-14.1875,9.25,-0.25
1480688186585534,-12.6875,6.5,-0.25
1480688186617619,-8.4375,4.25,-0.1875
1480688186620127,-3.3125,3.0625,0
1480688186638176,-0.9375,2.25,-0.5
1480688186662240,-0.1875,1.75,-0.9375
1480688186678782,0.4375,1.625,-0.875
1480688186705858,0.4375,-0.375,-1.125
1480688186727914,0.25,-2.5625,-1.0625
1480688186739944,1.9375,-2.25,-0.875
1480688186761502,3.25,-2.0625,-0.8125
1480688186783561,3.9375,-3.0625,0.375
1480688186806123,4.6875,-5.6875,0.1875
1480688186827177,8.5,-6.25,-0.25
1480688186843720,11.625,-4.125,0.5625
1480688186873299,7.4375,-1.75,-0.125
1480688186894355,-0.625,-2.375,-1.0625
1480688186918420,-3.75,-3.125,-0.4375
1480688186920926,-1.6875,-3,-0.25
1480688186937971,2.5625,-1.9375,-0.4375
1480688186968052,4.125,-0.8125,-0.5
1480688186978579,3.5,-0.5,-0.375
1480688187005655,1.5625,-1.375,-0.25
1480688187028213,-0.625,-1.6875,-0.25
1480688187038741,-0.625,-0.8125,-0.1875
1480688187058291,0.125,0.3125,-0.4375
1480688187082857,0.75,0.5625,-0.6875
1480688187102910,1.6875,-0.1875,-0.25
1480688187128478,1.5,-0.625,-0.4375
1480688187151038,0.5625,-1.5,0.0625
1480688187168083,0.4375,-2.0625,0.0625
1480688187179615,0.75,-1.75,0
1480688187200670,1.5,-1.25,-0.875
1480688187219220,0.5625,-1.125,-0.6875
1480688187239774,0.5625,-0.3125,-0.6875
1480688187268350,0.0625,1.125,-0.1875
1480688187278377,-2.3125,4.3125,0.75
1480688187299433,-7.0625,7.9375,-0.375
1480688187320491,-13.1875,7,-0.375
1480688187338543,-10.4375,6.0625,0.375
1480688187359593,-7.25,4.125,-0.625
1480688187380648,-2.9375,2.5,-1.125
1480688187420255,0.875,2.4375,-0.625
1480688187427273,3.3125,3.125,-0.1875
1480688187448346,1.0625,2.4375,0
1480688187465875,-3.9375,1.25,0.125
1480688187486931,-5.625,-0.4375,0.0625
1480688187507986,-1.5,-1.125,0.1875
1480688187518515,2.5625,-0.875,0.375
1480688187541075,4.375,-0.25,-0.1875
1480688187562132,2.5625,0.0625,0.1875
1480688187592211,1.1875,-1.25,0.75
1480688187601235,2.0625,-2.9375,0.375
1480688187620788,5.8125,-3.8125,0.25
1480688187650868,8.5625,-2.5625,0
1480688187660894,4.5,-1.125,-0.375
1480688187680445,-0.9375,-2.125,-0.75
1480688187703006,-2.25,-4.0625,0.375
1480688187728574,0.875,-4.1875,0.0625
1480688187740605,4,-2.5,0
1480688187763166,3.75,-0.875,-0.0625
1480688187787230,1.5,-1,-0.4375
1480688187800766,-0.5,-0.3125,0.1875
1480688187823326,-1.875,0.5625,0.4375
1480688187840873,-1.1875,0.875,0.5625
1480688187863432,-1.0625,0.6875,0.4375
1480688187890504,0.75,0.9375,0.375
1480688187906548,0.5625,1.75,0.4375
1480688187928104,-2.625,2.6875,0.25
1480688187950664,-5.75,3.125,0.0625
1480688187962195,-7.625,3.8125,0.625
1480688187983753,-8.8125,3.25,0.1875
1480688188003304,-5.875,1.9375,0.1875
1480688188042910,-2.4375,1.9375,0.1875
1480688188047923,-1.3125,1.8125,-0.1875
1480688188062963,-0.25,1.125,-0.1875
1480688188081011,0.125,0.1875,0
1480688188103069,0.25,-0.875,-0.25
1480688188126131,1.75,-0.75,0
1480688188141171,1.8125,-0.3125,0.0625
1480688188171251,0.5625,-1,-0.25
1480688188186291,-0.3125,-1.5625,0.0625
1480688188209353,-0.375,-1.4375,-0.3125
1480688188229406,0.3125,-1.3125,-0.25
1480688188250462,1.125,-1.6875,-0.3125
1480688188260990,2.875,-1.625,-0.5
1480688188282048,3.625,-0.1875,-0.25
1480688188303102,2.1875,0.25,0.0625
1480688188328670,0.375,-0.5,0
1480688188342206,-0.1875,-1.5625,-0.0625
1480688188370782,0.6875,-1.375,-0.0625
1480688188381309,1.375,-0.6875,0.125
1480688188403369,0.25,0.125,-0.0625
1480688188422921,-0.5625,0.125,-0.125
1480688188448488,-1.4375,0.125,0.1875
1480688188468041,-0.9375,-0.1875,0.1875
1480688188486088,0.0625,-0.1875,0.125
1480688188514664,1.125,0,0.0625
1480688188539732,1.125,0.125,0.1875
1480688188544744,0.75,0,-0.0625
1480688188561289,0.4375,0.1875,0.125
1480688188583848,0.1875,0,0.0625
1480688188602899,-0.375,0,-0.3125
1480688188621950,-1.4375,-0.5,-0.5
1480688188646515,-0.375,-0.75,-0.4375
1480688188670580,0.125,-0.6875,-0.375
1480688188681106,0,-0.875,-0.5
1480688188703667,0.375,-0.625,-0.5625
1480688188724724,-0.0625,-0.5625,0
1480688188741768,0.625,-0.625,-0.1875
1480688188763827,0.6875,-0.125,0.125
1480688188797416,0.0625,0.125,0.0625
1480688188802429,-0.375,0,0.125
1480688188838529,-0.375,0.3125,0.3125
1480688188850559,0.0625,0.0625,0.375
1480688188861085,0.6875,0.0625,0.375
1480688188883646,0,0.25,0.0625
1480688188903197,0.125,-0.1875,0.0625
1480688188921248,-0.0625,0,0.125
1480688188949822,-0.5,-0.1875,-0.0625
1480688188964360,-0.3125,-0.625,-0.1875
1480688188980904,0.0625,-0.6875,0
1480688189003464,0.6875,-0.625,0
1480688189024520,0.375,-0.625,-0.3125
1480688189043573,-0.25,-0.6875,-0.625
1480688189063624,0.25,-0.8125,-0.375
1480688189093704,0.9375,-0.5625,-0.375
1480688189114760,1.1875,-0.6875,-0.6875
1480688189140829,0.625,-0.5625,-0.375
1480688189144843,0.875,-0.5625,-0.3125
1480688189165395,0.0625,-0.25,-0.1875
1480688189183443,-0.8125,-0.125,-0.3125
1480688189204498,-0.5,0.375,-0.1875
1480688189225555,-1.0625,1.1875,-0.0625
1480688189256137,-3.1875,0.875,-0.4375
1480688189272179,-3.1875,0.75,-1.1875
1480688189285715,-2.8125,0.5,-0.6875
1480688189304265,-1,0.875,-0.5
1480688189324819,0.0625,0.6875,-0.8125
1480688189345875,0,0.25,-0.5625
1480688189370941,-1.625,0,-0.5
1480688189394003,-2.75,-0.0625,-0.625
1480688189414559,-1.5,-0.3125,-0.5625
1480688189423583,-0.875,-0.75,-0.125
1480688189448147,0.625,-0.75,-0.5625
1480688189465694,1.6875,-0.25,-0.1875
1480688189483741,0.6875,-0.6875,-0.1875
1480688189507806,0,-0.875,0.0625
1480688189532873,0.625,-0.625,0.125
1480688189543400,0.8125,-0.4375,0
1480688189566461,0.5625,-0.375,-0.0625
1480688189593032,-0.1875,-0.5,-0.0625
1480688189603560,-1.125,-0.625,-0.1875
1480688189626120,-0.5625,-0.5625,-0.1875
1480688189645671,-0.125,-0.1875,-0.0625
1480688189671248,0.0625,0,0
1480688189692296,-0.6875,-0.25,0
1480688189705833,-0.9375,-0.375,0.125
1480688189723379,-1,-0.5625,0.125
1480688189745938,-0.8125,-0.5,0.25
1480688189765992,-0.5,-0.6875,0.0625
1480688189783538,-1.125,-0.1875,-0.1875
1480688189810612,-1.1875,0.1875,0.125
1480688189825650,-1,0,0.5
1480688189843698,-0.0625,0,0.5625
1480688189880797,0.5,0.5,0.5625
1480688189893330,-0.75,0.1875,0.4375
1480688189903358,-1.375,-0.125,0.1875
1480688189925918,-0.9375,0.125,0.875
1480688189948477,0.625,0.25,0.4375
1480688189968029,1.0625,0.3125,0.375
1480688189990590,0.25,0.3125,0.4375
1480688190013149,-0.875,0.25,0.4375
1480688190023678,-1.75,0.125,0.3125
1480688190059271,-2.625,0.4375,0.4375
1480688190067294,-3.3125,1,0.1875
1480688190088850,-2.1875,0.375,-0.0625
1480688190111913,-1.625,0.375,-0.0625
1480688190126952,-0.375,0.5,-0.3125
1480688190156531,0.4375,0.75,0
1480688190174077,-0.125,0.625,0.1875
1480688190204157,-0.9375,0.5,-0.0625
1480688190205660,-0.875,0.5,0.3125
1480688190226215,0,1.0625,0.125
1480688190247271,-1.4375,0.875,0.3125
1480688190268327,-1.75,0.9375,0.1875
1480688190292893,-1.6875,1.3125,0.125
1480688190324478,-2.375,0.4375,-0.1875
1480688190328988,-0.625,0.1875,-0.1875
1480688190345031,1.5,0.375,0.0625
1480688190367591,1.625,0.375,0
1480688190390153,1.375,0.0625,0.125
1480688190405196,1.25,-0.0625,0.4375
1480688190427752,-0.5,-0.4375,0.75
1480688190457832,0.625,-0.75,1.625
1480688190480391,0.1875,-1.1875,2.1875
1480688190493927,-5.0625,-1.6875,0.9375
1480688190516487,-4.4375,-2.375,-0.8125
1480688190525512,-0.1875,-2.1875,-0.5
1480688190547570,2.1875,-1.75,-0.5625
1480688190568627,3.125,-1.3125,-0.9375
1480688190585170,4.25,-0.5,-0.875
1480688190615752,2.5625,-0.375,-1.4375
1480688190629287,0.5625,0.6875,-1.1875
1480688190645329,-0.0625,1.1875,-1
1480688190668392,-0.5625,0.8125,-1.8125
1480688190688946,0.6875,0.1875,-1.375
1480688190704989,1.875,0.6875,-1.375
1480688190736573,1.125,1.6875,-0.9375
1480688190750109,-0.4375,1.75,-1.3125
1480688190772669,-0.9375,1.5,-0.75
1480688190787711,-0.25,1.75,-0.4375
1480688190810268,0,1.1875,-1
1480688190825309,0,0.25,-0.625
1480688190847868,0.4375,0.4375,-1.0625
1480688190868924,0,0.6875,-1
1480688190886472,0,-0.0625,-0.5
1480688190907527,-0.1875,-0.3125,-0.625
1480688190936104,0.25,-0.125,-0.6875
1480688190946131,0.5,0.0625,-0.625
1480688190967688,0,-0.0625,-0.625
1480688190991251,0,-0.875,-0.9375
1480688191006791,0.3125,-1,-1.125
1480688191028350,0.375,-0.6875,-1.1875
1480688191056424,0.4375,-1.375,-0.9375
1480688191064948,0.25,-1.9375,-1.25
1480688191094023,0.625,-1.375,-1.0625
1480688191109564,0.9375,-1.0625,-0.8125
1480688191125107,0.75,-0.6875,-0.75
1480688191153683,0.875,-0.375,-1
1480688191177745,0.625,-0.3125,-0.375
1480688191185266,2,-0.1875,-0.6875
1480688191221865,1.5,-0.3125,-0.75
1480688191229383,0.9375,-0.75,-0.75
1480688191245425,0.9375,-0.9375,-0.5625
1480688191267987,0.75,-0.4375,-0.5
1480688191290546,0.625,-0.125,-0.75
1480688191305587,1.125,0,-0.25
1480688191334163,0.875,0,-0.1875
1480688191357724,0.1875,-0.4375,-0.125
1480688191371264,0.375,-0.75,0.0625
1480688191387806,0.3125,-0.3125,-0.0625
1480688191410364,0.8125,-0.8125,0
1480688191431922,0.25,-0.625,-0.125
1480688191447462,-0.0625,-0.5,-0.625
1480688191494088,0.4375,-0.625,-0.4375
1480688191498599,1.0625,-0.8125,-0.375
1480688191515143,1.375,-0.5,-0.5625
1480688191530183,0.9375,-0.0625,0.0625
1480688191544721,-0.75,0.0625,0.375
1480688191567783,-1.3125,0.125,0.8125
1480688191590344,-1.0625,0.0625,1.125
1480688191604882,-1.125,0.3125,0.9375
1480688191635463,-0.25,0.375,1.0625
1480688191657021,0.375,0.25,1.125
1480688191671561,-0.125,-0.4375,0.625
1480688191687602,-0.625,-0.75,0.6875
1480688191710161,-0.625,-1.125,0.375
1480688191731218,0.125,-0.9375,0.25
1480688191756786,0.25,-0.6875,0.0625
1480688191776338,0.875,-0.8125,0.0625
1480688191792380,1.8125,-0.625,-0.125
1480688191808925,0.625,-0.5,0.5
1480688191830482,-0.3125,-0.8125,0.375
1480688191851036,0,-0.625,0.375
1480688191867580,0.3125,-0.25,0.375
1480688191890141,0.625,0.125,0.375
1480688191912701,-0.0625,-0.3125,0.3125
1480688191928243,0.25,-0.0625,0.25
1480688191950300,0,-0.25,0.125
1480688191971356,0.375,-0.1875,0.1875
1480688191987900,0.25,-0.125,0.375
1480688192010460,0.4375,-0.125,0.625
1480688192031015,0,-0.4375,0.625
1480688192047558,-0.6875,-0.9375,0.6875
1480688192077639,-0.375,-0.625,0.4375
1480688192098695,0.125,-0.8125,0.125
1480688192115238,0.0625,-1,0.0625
1480688192137819,-0.875,-0.9375,-0.75
1480688192151335,-0.8125,-1.9375,-0.8125
1480688192167879,0.5625,-2.25,-0.625
1480688192190940,1.875,-2.25,-0.9375
1480688192219016,2.5,-2.9375,-0.875
1480688192227540,2.6875,-2.4375,-0.25
1480688192250601,1.375,-2.0625,-0.0625
1480688192272658,0.25,-1.0625,-0.125
1480688192287699,-0.625,-0.4375,0
1480688192310257,-0.125,-0.25,0
1480688192333820,0.875,0.25,0.4375
1480688192355379,0.5,0.6875,0.4375
1480688192371424,-0.4375,-0.0625,0.375
1480688192392978,-0.375,-0.25,0.5
1480688192407516,-0.6875,-0.125,0.25
1480688192437601,-0.8125,-0.25,0.125
1480688192460156,0.5,-0.1875,0
1480688192467175,1.25,0,-0.4375
1480688192490237,1.25,0,-0.625
1480688192512795,0.875,-0.0625,-0.625
1480688192535356,0.3125,-0.25,-0.6875
1480688192550397,0.125,-0.875,-0.375
1480688192572956,-0.0625,-1.0625,-0.5625
1480688192586993,0.25,-1.5625,-0.625
1480688192610054,0.3125,-1.625,-0.5
1480688192633115,0.375,-1.6875,-0.5
1480688192653673,1,-2.5,-0.6875
1480688192670719,3.125,-2.5,-0.1875
1480688192693778,3.75,-0.75,0.1875
1480688192715335,1.8125,-0.5,-0.5625
1480688192737897,-1.375,-1.125,0.3125
1480688192753938,-1.25,-1.0625,-0.625
1480688192773488,-0.1875,-0.75,-0.875
1480688192790033,0.5,-1.0625,-0.5
1480688192813095,1.375,-0.6875,-1.125
1480688192833649,1.9375,-0.625,-1.25
1480688192850193,1.375,-0.75,-1
1480688192872753,0.75,-0.5,-1.25
1480688192901329,0.5625,-0.1875,-1.3125
1480688192910352,0.9375,-0.125,-1.1875
1480688192932913,0.9375,0.0625,-1.0625
1480688192953973,1.1875,-0.375,-1.0625
1480688192971017,1.125,-0.3125,-0.875
1480688192993073,0,-0.5,-0.9375
1480688193013629,0.125,-0.8125,-0.875
1480688193030171,0.375,-0.875,-0.8125
1480688193052733,-0.4375,-0.375,-0.9375
1480688193073787,0,-0.6875,-0.9375
1480688193090332,1.125,-0.6875,-0.375
1480688193112892,1.8125,-0.9375,-0.9375
1480688193142972,1.5625,-0.75,-1.25
1480688193149990,1.375,-0.75,-0.9375
1480688193172550,2,-0.125,-1
1480688193195614,1.375,0.625,-0.8125
1480688193210150,0.375,-0.375,-1.125
1480688193233713,-0.125,-1.1875,-0.875
1480688193255271,-0.75,-0.8125,-0.875
1480688193277830,-1.0625,-0.75,-1
1480688193298887,-0.875,-0.75,-0.9375
1480688193321447,0.875,-0.6875,-0.625
1480688193330472,1.4375,-0.4375,-0.8125
1480688193352530,1.0625,-0.625,-0.5625
1480688193376092,0.75,-0.6875,-0.6875
1480688193397649,0.6875,-1,-0.9375
1480688193412689,0.0625,-0.75,-0.625
1480688193442768,-0.4375,-0.6875,-0.5625
1480688193456305,-0.25,-0.75,-0.5
1480688193472849,0.375,-0.375,-0.5
1480688193502930,1.4375,0,-0.75
1480688193509445,0.9375,0.0625,-0.5
1480688193532508,0.625,0.0625,-0.5625
1480688193555068,0.5625,-0.3125,-0.25
1480688193569607,0.625,-0.1875,-0.0625
1480688193600187,-0.6875,0.5,-0.5625
1480688193615729,-2.1875,0.875,-1.125
1480688193636283,-2.9375,0.25,-0.5
1480688193652827,-3,-0.5625,-0.5625
1480688193683409,-1.625,-0.4375,-0.375
1480688193696443,-0.125,-0.1875,0.375
1480688193712485,1.1875,0,0.8125
1480688193735046,1.9375,0.125,0.4375
1480688193765126,1.0625,0.875,0.375
1480688193772646,0.625,-0.25,0.6875
1480688193795206,1.375,-0.625,0.875
1480688193816763,0.8125,-0.0625,0.75
1480688193832806,1.125,0.8125,0.6875
1480688193855367,-0.125,0.6875,0.4375
1480688193878428,0.25,0.6875,0.125
1480688193892464,0.375,0.5625,-0.0625
1480688193929564,0.75,0.125,0.125
1480688193937586,0.625,-0.4375,0.25
1480688193952625,-0.1875,-0.3125,0.25
1480688193975184,-0.3125,-0.25,0.375
1480688193996241,0.5,-0.25,0.4375
1480688194012785,1.1875,-0.0625,0.3125
1480688194035345,1.4375,0.25,0.375
1480688194056401,0.8125,0.5,0.25
1480688194077457,-0.875,-0.4375,0.375
1480688194111046,-0.8125,-0.5,0.3125
1480688194117563,-1.5,-0.375,0
1480688194132603,-1.4375,-0.6875,0.125
1480688194155163,-0.25,-0.5,0.625
1480688194183739,0.4375,0.25,0.3125
1480688194193766,0.0625,0,0.25
1480688194216326,-0.3125,-0.4375,0.3125
1480688194237886,-0.75,-0.5,-0.0625
1480688194251920,-1.625,-0.625,0.3125
1480688194274981,-2.3125,-0.5625,0.0625
1480688194297544,-1.6875,-0.375,0.125
1480688194321105,-0.625,0.125,0
1480688194342663,0.3125,0.25,-0.0625
1480688194357702,-0.375,0.6875,-0.125
1480688194388785,-0.3125,0.875,0.25
1480688194394801,-1.8125,1.5,0.375
1480688194417862,-4.6875,2.0625,0.625
1480688194431899,-4.75,2.5625,0.5625
1480688194460475,-2.1875,2.4375,0.8125
1480688194485040,1,2.0625,0.5625
1480688194492561,1.8125,1.875,0.3125
1480688194515128,0.8125,0.875,-0.1875
1480688194538190,0.0625,0,0
1480688194552228,-1.5625,1.0625,0.5625
1480688194575289,-3.8125,1.75,0.4375
1480688194597850,-4.75,1.9375,0.5625
1480688194618905,-4.5625,1.8125,0.25
1480688194634947,-2.375,1.8125,0.375
1480688194665028,-0.125,2.25,0.1875
1480688194679065,-0.25,2.25,0
1480688194696110,-1.875,2.4375,-0.125
1480688194734212,-2.875,2.5,0.25
1480688194740228,-3.9375,2,0.0625
1480688194755770,-3.5,1.625,-0.1875
1480688194777827,-2.6875,1.3125,-0.125
1480688194798884,-1.5625,0.75,-0.1875
1480688194815428,-0.375,-0.375,-0.3125
1480688194846009,1.4375,-0.6875,-0.4375
1480688194859546,1.9375,-0.375,-0.375
1480688194875086,1.8125,0.125,-0.25
1480688194897647,1.625,0.1875,-0.0625
1480688194920211,0.625,-0.25,0.375
1480688194935748,-0.5625,0,-0.0625
1480688194965326,0,0.0625,-0.25
1480688194986382,0.8125,-0.5,-0.3125
1480688195001422,1.0625,-0.875,-0.5625
1480688195019972,1.375,-1.1875,-0.75
1480688195040025,2.4375,-1.1875,-0.625
1480688195055065,2.4375,-1.3125,-0.5
1480688195077625,0.625,-1.5,-0.5
1480688195100185,0.0625,-1.4375,-0.5
1480688195115225,-1,-1.5625,-0.0625
1480688195137785,0.125,-1.375,0.0625
1480688195160847,0.8125,-1.625,0.375
1480688195181400,0.5,-2.3125,0.375
1480688195197443,-1.5625,-2.6875,0.125
1480688195221007,0.75,-1.8125,0.1875
1480688195242563,3.125,-0.9375,0.3125
1480688195258105,2.125,-1.1875,-0.5
1480688195280163,1.75,-1.1875,-0.5
1480688195302724,1,-1,-0.375
1480688195318264,0.1875,-1.1875,-0.375
1480688195340323,0.5,-0.9375,-0.6875
1480688195354361,0.625,-0.3125,-0.625
1480688195377924,0.125,-0.0625,-0.4375
1480688195400984,-0.125,-0.125,-0.5625
1480688195414521,0.5,-0.25,-0.625
1480688195437583,0.4375,-0.125,-0.4375
1480688195460643,0.0625,-0.25,-0.4375
1480688195474681,-0.3125,-0.3125,-0.6875
1480688195497742,0.5,-0.3125,-0.5625
1480688195520307,2,-0.375,-0.625
1480688195541357,2.5625,-0.3125,-0.375
1480688195557904,3.75,-0.0625,-0.3125
1480688195580461,5.75,0.5,-0.8125
1480688195601018,7.125,1.125,-0.5625
1480688195617560,6.0625,1.3125,0.0625
1480688195640622,7.125,1.375,-0.3125
1480688195661177,5.125,0.4375,-0.0625
1480688195677720,2.0625,-0.375,-0.125
1480688195707800,-1.125,-0.5,-0.8125
1480688195722841,-1.25,-0.5625,-0.375
1480688195752921,-0.875,-1.25,-0.125
1480688195760441,0,-1.5625,-0.1875
1480688195780995,0.1875,-1.25,-0.4375
1480688195797539,-1.625,-0.8125,0.125
1480688195820099,-0.9375,-1.125,0.3125
1480688195841155,0.5625,-1.25,0.3125
1480688195857700,0.4375,-0.5,0.6875
1480688195880259,0.75,0.125,0.5
1480688195901315,-0.125,0.4375,0.375
1480688195917859,-1.125,0.1875,0.4375
1480688195940920,-1,0.3125,0.375
1480688195961474,0.375,0.0625,0.375
1480688195985038,0.125,-0.1875,0.375
1480688196007598,-0.25,-0.5625,-0.0625
1480688196031161,-0.9375,-0.3125,-0.3125
1480688196045198,-0.625,-0.375,-0.125
1480688196060238,-0.8125,-0.1875,0.1875
1480688196083299,-0.1875,0.1875,-0.0625
1480688196096835,-0.25,0.1875,-0.125
1480688196120397,-0.5,-0.0625,-0.375
1480688196142456,-0.5,-0.6875,-0.625
1480688196157997,0.3125,-0.9375,-0.6875
1480688196187576,0.625,-0.875,-0.5625
1480688196203624,0.75,-0.9375,-0.3125
1480688196217156,-0.0625,-0.8125,-0.25
1480688196240717,-0.1875,-0.75,-0.25
1480688196262776,0.1875,-0.75,-0.0625
1480688196276813,0.625,-0.5625,-0.0625
1480688196307896,1.8125,0.25,-0.1875
1480688196330457,1.5,0.6875,0.1875
1480688196343992,0.4375,0.3125,0.25
1480688196367556,-1.625,-0.4375,0
1480688196383096,-1.4375,-0.75,0
1480688196397134,-0.9375,-0.3125,0
1480688196420195,0,0.625,-0.1875
1480688196450275,0.75,0.75,-0.3125
1480688196457295,0.4375,-0.375,-0.375
1480688196487874,0.75,-0.875,-0.3125
1480688196516952,0.6875,-0.25,0.0625
1480688196531491,0,0.125,-0.4375
1480688196540013,-0.75,-0.25,-0.5
1480688196563577,1,-0.5,-0.1875
1480688196584131,1.9375,-0.25,-0.1875
1480688196606192,1.125,-0.1875,-0.1875
1480688196622734,0.1875,0,0.1875
1480688196643789,-0.5,0.5,0.0625
1480688196667854,-0.625,0.5,-0.125
1480688196682894,-0.125,0.1875,-0.0625
1480688196711469,0.0625,-0.125,-0.5
1480688196720495,0.75,-0.4375,-0.375
1480688196750073,0.75,-0.3125,0
1480688196771128,0.375,-0.125,-0.25
1480688196780151,-0.875,-0.0625,-0.5625
1480688196803218,-0.3125,-0.375,-0.4375
1480688196831288,0.5625,-0.5,-0.375
1480688196840312,1.1875,-0.25,-0.1875
1480688196862873,0.5,-0.125,-0.125
1480688196883928,-0.75,-0.375,-0.25
1480688196900472,-1.6875,-0.4375,0.125
1480688196930052,-1.4375,-0.6875,0
1480688196945090,-0.3125,-1.0625,0
1480688196960130,0,-1,0.25
1480688196982693,-0.375,-1.0625,0.25
1480688197005251,-1.6875,-1.1875,-0.125
1480688197028813,-2.125,-1.625,-0.25
1480688197050371,-0.75,-2.375,0.125
1480688197072931,1.875,-2.9375,0.125
1480688197079448,2.8125,-2.4375,0.1875
1480688197103012,2.375,-1.3125,-0.1875
1480688197125070,1.0625,-0.375,0.125
1480688197139609,0.125,-0.4375,0.1875
1480688197162670,-1.3125,-0.625,-0.1875
1480688197185230,-0.6875,-0.625,-0.3125
1480688197207789,1.25,-0.8125,-0.375
1480688197223833,1.5625,-0.375,-0.1875
1480688197245389,1.1875,0.3125,-0.6875
1480688197259928,1.0625,-0.0625,-0.4375
1480688197282990,1,-0.625,-0.3125
1480688197305549,0.25,-1.5625,-0.4375
1480688197319588,-1,-2.625,-0.3125
1480688197342648,-3.25,-2.6875,-0.1875
1480688197372728,-4.1875,-2.25,0.1875
1480688197380248,-1.375,-1.9375,0.25
1480688197403312,1.5625,-1.125,-0.0625
1480688197440909,1.9375,-0.625,0.0625
1480688197463469,1.9375,-0.4375,-0.25
1480688197465475,0.25,-0.75,-0.1875
1480688197486531,-1.4375,-1.1875,-0.3125
1480688197506083,-1.375,-1.25,-0.125
1480688197522627,-0.3125,-1.3125,-0.1875
1480688197547192,0.75,-1,-0.375
1480688197566246,1.625,-1,-0.375
1480688197582787,1.875,-0.5,-0.375
1480688197605347,0.5625,-0.625,-0.125
1480688197626402,-0.9375,-0.25,0
1480688197642445,-0.1875,-0.1875,-0.125
1480688197672525,0.375,-0.625,0.1875
1480688197686061,0.5,-0.625,-0.25
1480688197708622,1,-0.5,-0.3125
1480688197725165,1.4375,-1.3125,0.3125
1480688197755245,0.8125,-1.9375,-0.0625
1480688197764771,0.6875,-1.6875,-0.0625
1480688197786329,0.375,-1.6875,0.125
1480688197807885,0.25,-1.0625,-0.125
1480688197822925,0.0625,-0.9375,0
1480688197844983,0,-0.9375,0.25
1480688197866040,-0.5625,-0.875,0.375
1480688197883085,0.6875,-0.1875,0.375
1480688197905145,0.25,0.875,0.5
1480688197927704,-0.9375,1.5,0.5
1480688197943747,-0.75,0.9375,0.8125
1480688197964802,0.125,0.4375,1.0625
1480688197995885,0.6875,0.0625,0.9375
1480688198002402,0.5,0.4375,0.875
1480688198033986,-0.4375,0.6875,0.625
1480688198047522,-1.25,0.5,0.4375
1480688198062061,-1.5625,0.25,0.6875
1480688198085125,-1.1875,0,0.875
1480688198107682,-0.25,-0.375,0.5625
1480688198122221,-0.0625,0.25,0.5
1480688198145283,0.1875,0.1875,0.5
1480688198168345,-0.25,-0.5,0.5625
1480688198182381,-0.375,-1.125,0.5625
1480688198206445,-0.0625,-0.5625,0.375
1480688198228004,0.25,-0.1875,0.25
1480688198242540,0,-0.4375,0.4375
1480688198265101,-0.8125,-1,0.375
1480688198293676,-0.8125,-1.1875,0.4375
1480688198302201,-1.125,-0.6875,0.5625
1480688198332783,-0.6875,-0.5625,0.375
1480688198349826,0.0625,-0.625,0.1875
1480688198363362,0.25,-0.125,0.1875
1480688198385423,0.25,0.25,0.125
1480688198407981,0.1875,-0.0625,0.125
1480688198428537,-0.625,-0.4375,-0.125
1480688198452599,-1.625,-0.25,-0.1875
1480688198467642,-1.1875,-0.0625,0
1480688198488696,-0.9375,-0.0625,0
1480688198505240,-1.6875,0.5,-0.25
1480688198527800,-3.875,0.25,0.1875
1480688198548855,-3.875,-0.5,0.375
1480688198573921,-1.25,-0.75,0
1480688198588962,0.4375,-0.8125,0.0625
1480688198609016,0.25,-0.8125,0.25
1480688198626061,-0.5,-1.0625,0.5625
1480688198648622,-0.375,-1.8125,0.75
1480688198668674,-1.25,-3.5,0.4375
1480688198685720,1.4375,-6.0625,0.5625
1480688198715299,6.1875,-6.9375,1.1875
1480688198730338,9.75,-7.8125,0.375
1480688198745378,11.4375,-10.125,1.1875
1480688198767939,12.25,-12.625,2.1875
1480688198788994,11.5625,-13.1875,1.6875
1480688198805038,9.6875,-11.5,0.6875
1480688198827596,7.5,-8.9375,0.125
1480688198850156,4.9375,-6.5,0.4375
1480688198872716,1.0625,-5.875,-0.1875
1480688198888760,-0.8125,-5.3125,0.375
1480688198910317,-1.6875,-2.125,1.0625
1480688198926363,-1.625,0.75,0.125
1480688198947917,-1.5,1.4375,0.1875
1480688198969976,0.4375,1.25,0.1875
1480688198984514,0.3125,0.9375,-0.3125
1480688199007575,-0.5,0.25,-0.25
1480688199038156,-1.5625,-1.3125,-0.1875
1480688199051191,-1.4375,-2.9375,0.5
1480688199069742,-0.3125,-2.5625,2.0625
1480688199097815,0.6875,-0.25,0.8125
1480688199104835,-5.3125,5.0625,2.25
1480688199127895,-15.8125,8.75,2.125
1480688199150456,-27.375,10.625,0.5625
1480688199172514,-28.5,10.5,1.9375
1480688199187554,-22.625,9.5625,0.9375
1480688199210114,-15.125,7.4375,0.5625
1480688199231170,-7.6875,5.6875,0.375
1480688199248215,-0.875,3.75,-1.1875
1480688199270274,3.1875,-0.3125,-0.4375
1480688199291340,5.3125,-2.8125,-0.8125
1480688199315394,7.75,-0.5625,-1.4375
1480688199330434,6.9375,1.1875,-0.8125
1480688199352995,4.4375,0.75,-0.8125
1480688199368536,2.5,0.6875,-0.6875
1480688199405634,0.3125,0.25,-0.0625
1480688199411649,0,0.3125,0
1480688199428194,1.625,1.4375,-0.25
1480688199450256,1.9375,1.625,-0.5
1480688199471310,0.6875,0.75,-1
1480688199488355,1.1875,-0.4375,-0.8125
1480688199510412,2.1875,-1.75,-1.125
1480688199538988,4.25,-1.625,-0.875
1480688199549015,5.3125,-1.125,-0.4375
1480688199570071,4.6875,-1.75,-0.5
1480688199592631,3.5,-1.5,-0.5625
1480688199615193,-0.5,-0.25,-0.5
1480688199631234,-3.125,0.25,-0.1875
1480688199660311,-2.1875,1.375,-0.5
1480688199673847,-2.5,3.125,-0.625
1480688199689891,-3.625,4.5625,-0.25
1480688199711447,-5.9375,5.375,-0.5
1480688199729498,-7.3125,4.3125,-0.375
1480688199758574,-6.1875,3.6875,-0.375
1480688199771107,-3.75,3.6875,-0.625
1480688199787150,-0.8125,4,-0.3125
1480688199811713,-0.6875,3.75,0.1875
1480688199833271,-3.625,3.125,-0.1875
1480688199850818,-5.25,3.0625,-0.125
1480688199870369,-5.25,3.1875,-0.125
1480688199892931,-5.25,2.8125,-0.3125
1480688199907467,-3.6875,2.5625,-0.375
1480688199938052,-1.9375,2.5625,-0.8125
1480688199961111,-1.4375,2.3125,-0.4375
1480688199967127,-0.6875,1.1875,-0.5
1480688199997708,0.4375,0.625,-0.125
1480688200012750,0.25,0.8125,0.0625
1480688200027289,-0.125,1.625,0
1480688200057868,-1.4375,1.5625,-0.25
1480688200078924,-2.3125,1.25,-0.25
1480688200094967,-1.4375,1.375,0
1480688200111511,1.1875,0.6875,0.6875
1480688200132567,1.9375,1,0.375
1480688200147105,0.4375,1.5,0.3125
1480688200170167,-1.125,1.5625,0.25
1480688200192727,-1,1.5,0.375
1480688200207767,-1,1,0.375
1480688200230327,0.375,0.75,0.5625
1480688200252909,0.75,0.75,0.375
1480688200266924,0.0625,0.5,0.375
1480688200296002,-0.9375,0.1875,0.5
1480688200312545,-1.25,0,0.25
1480688200341623,0.125,0.5,0.625
1480688200357666,0.5625,1.0625,0.4375
1480688200380226,-0.5625,1,0.125
1480688200396770,-1.625,0.3125,0.5625
1480688200410305,-2,-0.375,0.25
1480688200432865,-1.25,-0.4375,0.4375
1480688200453921,0.5625,0.25,0.5
1480688200470466,1.125,0.5625,0.4375
1480688200492524,-0.4375,0.125,0.4375
1480688200515084,-1.125,-0.125,0.375
1480688200530625,0.0625,-0.5,0.125
1480688200560705,0.9375,0.125,0.875
1480688200581259,-0.5,0.6875,-0.25
1480688200590786,-0.0625,-0.125,-0.0625
1480688200612844,0.6875,-1.3125,-0.1875
1480688200633899,1.25,-0.5,-0.4375
1480688200649944,1.5,-0.125,-0.125
1480688200672502,1.3125,-0.375,-0.1875
1480688200701078,-0.0625,0.25,-0.125
1480688200710102,-0.1875,-0.0625,0
1480688200733665,-0.25,-0.5625,0.125
1480688200770764,0,0.3125,0.125
1480688200773270,0.0625,0.75,0.25
1480688200815884,0.0625,0.5625,0.375
1480688200818391,-0.5625,0.3125,0.5625
1480688200836439,-1.1875,0.375,0.3125
1480688200852481,-1.125,0.25,0.3125
1480688200875041,-0.375,0.375,0.1875
1480688200889580,0.3125,0.5625,0.0625
1480688200912641,-0.3125,0.3125,0
1480688200935202,-0.5,-0.25,0.125
1480688200950742,-0.375,0.125,0.3125
1480688200980320,-0.875,0,0.0625
1480688200995361,-1.8125,-0.125,-0.4375
1480688201024940,-3.3125,0.0625,0
1480688201039980,-2.875,0.25,-0.125
1480688201055521,-2.625,0.5,0.0625
1480688201076076,-2.0625,0.625,0.0625
1480688201092619,-1.4375,0.5625,0.0625
1480688201116183,-0.25,0.4375,0.125
1480688201137740,0,0.1875,0.0625
1480688201152781,-0.8125,-0.125,0.0625
1480688201175339,-1.375,0.125,0.0625
1480688201189378,-0.9375,-0.0625,0
1480688201213442,-0.8125,-0.25,0.25
1480688201237004,-0.1875,-0.125,-0.25
1480688201257058,0.25,0.0625,-0.625
1480688201278615,0.0625,-0.4375,-0.375
1480688201295158,-0.125,-0.3125,-0.5
1480688201317217,0.375,-0.5,-0.5625
1480688201332758,0,-0.3125,-0.3125
1480688201370358,-1,0,-0.375
1480688201385400,-2.25,-0.0625,-1.0625
1480688201392918,-2.75,0.8125,-0.8125
1480688201415479,-3.875,1.1875,0.375
1480688201436038,-1.9375,0.3125,2.1875
1480688201460097,1.4375,0.0625,2.625
1480688201482657,0.375,0.0625,1.1875
1480688201504215,0.625,0.1875,0.5
1480688201512737,1.5,0.6875,0.3125
1480688201535803,0.1875,3.3125,0.625
1480688201557857,-7.25,5.5625,0.0625
1480688201573398,-13.0625,4.125,-1.3125
1480688201594955,-12.625,2.5625,-2.375
1480688201623534,-6.4375,0.375,-1.0625
1480688201633559,0.9375,-2.6875,-1.625
1480688201663137,9.375,-2.5,-2.4375
1480688201684193,13.5625,-0.9375,-2
1480688201693217,11.875,-1.25,-1.5
1480688201715276,5.625,-3.25,-1.5625
1480688201743851,3.875,-4.25,-1.0625
1480688201752876,3.75,-2.8125,0.3125
1480688201775435,3.9375,-2.4375,-0.0625
1480688201797494,4.125,-2.625,0.625
1480688201812534,1.625,-2.5625,0.125
1480688201836104,1.25,-2.5625,-0.3125
1480688201857656,3.5,-2.25,0.375
1480688201872193,5.25,-1.0625,0.5625
1480688201895254,4.125,0,-0.1875
1480688201918316,1.0625,0.4375,0.4375
1480688201931851,-0.3125,0.4375,-0.125
1480688201954913,-0.25,0.125,-0.1875
1480688201977472,0.125,0.25,-0.375
1480688201998528,-0.125,0.3125,0.375
1480688202015574,0,0.1875,0.375
1480688202045152,-1.875,-0.875,-0.1875
1480688202066209,-1.4375,-0.875,0.3125
1480688202090275,0.25,-0.6875,0.0625
1480688202105314,0.875,-0.3125,1.125
1480688202111830,0.125,-1.375,1.3125
1480688202135393,0.6875,-3.25,1.9375
1480688202157451,1,-3.75,1.9375
1480688202180011,1.8125,-3.9375,0.875
1480688202202574,4.6875,-3.5625,1
1480688202218113,6.4375,-2.875,1
1480688202238667,4.0625,-0.875,0.1875
1480688202261227,-0.6875,-0.0625,-0.1875
1480688202277771,-2.75,-0.875,0.3125
1480688202300331,-3.625,-2.1875,0.625
1480688202322892,-0.4375,-5.6875,0.875
1480688202337433,5.125,-7.5625,1.25
1480688202358486,8.3125,-6,0.4375
1480688202382550,7.6875,-4.375,-0.0625
1480688202398091,4.25,-3,-0.125
1480688202418647,-0.5,-2.125,0.0625
1480688202435190,-2.75,-1.125,0.5
1480688202457750,-1.375,0,0.375
1480688202478805,-0.375,0.125,-0.1875
1480688202495851,0.3125,-1.125,-0.0625
1480688202518912,0.5625,-2.0625,0
1480688202546987,0.0625,-2.625,0.5625
1480688202557015,0.8125,-2.375,0.3125
1480688202577567,1,-2.3125,-0.125
1480688202598625,0.875,-2.875,-0.3125
1480688202628705,2.6875,-3.125,0.5625
1480688202645249,2.3125,-3.4375,0.5625
1480688202660289,0.1875,-3.1875,0.5
1480688202681344,-2,-2.1875,0.375
1480688202705408,-3.125,-1.625,-0.0625
1480688202719947,-2.375,-1.75,-0.5
1480688202736491,-0.25,-1.375,-0.3125
1480688202758550,2.4375,-0.75,0
1480688202780107,1.5625,-0.3125,-0.25
1480688202794646,1.25,-0.3125,-0.25
1480688202817708,0.375,-0.3125,0.5
1480688202855307,-0.0625,-0.0625,0.0625
1480688202857839,-0.875,0.0625,0.1875
1480688202877867,-0.875,-0.3125,0.375
1480688202900428,-1.125,-0.4375,0.1875
1480688202914464,-1.6875,-0.25,0.375
1480688202943541,-1.9375,-0.0625,0.375
1480688202969115,-1.5,-0.1875,0.125
1480688202982646,0,0,0.0625
1480688202998187,1.125,0.0625,0.1875
1480688203020246,1.5,-0.75,0.125
1480688203034784,0.4375,-1.5,0.0625
1480688203058848,-1.3125,-0.3125,0.375
1480688203087925,-1.3125,-0.0625,0
1480688203102965,-2.3125,0.9375,-0.0625
1480688203117505,-0.4375,3.4375,0.25
1480688203147584,-1.25,6.25,1
1480688203161120,-5.875,8.625,-0.0625
1480688203177664,-12.125,8.4375,-1.9375
1480688203200727,-15.625,6.25,-1.9375
1480688203221280,-13,4.125,-0.9375
1480688203245344,-5,1.6875,-0.4375
1480688203260385,3.3125,1.5625,-0.6875
1480688203281440,3.75,2.1875,-1.3125
1480688203298486,1.375,1.625,-0.875
1480688203320044,-1.75,0.25,-0.9375
1480688203341098,-2.9375,-0.5,-0.5625
1480688203357643,-2.375,0.25,-0.5625
1480688203380203,-2.6875,0.5625,-0.5625
1480688203409280,-2.5625,0.4375,-0.625
1480688203419307,-2.0625,1.0625,-0.625
1480688203441365,-1.875,0.5625,-0.6875
1480688203461419,-1,-0.6875,-0.0625
1480688203477462,0.875,-0.5,-0.25
1480688203501025,2.0625,0.1875,0
1480688203521077,0.1875,-0.75,0.3125
1480688203544640,-0.625,-1.75,0.375
1480688203560182,0.25,-2.3125,0.75
1480688203588765,0.375,-2.1875,0.4375
1480688203597782,2.4375,-1.8125,0.8125
1480688203619842,3,-1.125,0.4375
1480688203642900,1.25,0.5,0.1875
1480688203663957,-2.375,0.1875,0.375
1480688203687520,-2.4375,-0.8125,0.375
1480688203709078,-0.625,-0.3125,0
1480688203725623,1,0.5625,0
1480688203740661,0.6875,0.4375,-0.25
1480688203763221,-0.6875,-0.75,-0.375
1480688203777258,-0.875,-1.125,-0.0625
1480688203800321,0.25,-0.8125,-0.0625
1480688203822881,0.0625,-1.1875,-0.1875
1480688203844939,-0.0625,-1.6875,1.1875
1480688203868001,1.8125,-3.25,1.4375
1480688203897579,4.1875,-4.125,0.875
1480688203900085,6.625,-4,0.1875
1480688203920640,6.0625,-3.3125,0.0625
1480688203942699,3.6875,-2.125,0.4375
1480688203957238,1.0625,-0.8125,-0.125
1480688203980299,0.1875,0,-0.3125
1480688204002859,-0.4375,0,-0.9375
1480688204023915,0.0625,0.4375,-1.3125
1480688204047478,1.0625,0.625,-1.25
1480688204064522,2,0.5625,-1.125
1480688204091094,1.0625,0.8125,-1.25
1480688204100123,0.5,0.875,-0.9375
1480688204122678,-0.5625,0.9375,-0.8125
1480688204143733,0.25,1.125,-0.6875
1480688204168821,1.125,1.375,-0.3125
1480688204190358,1.25,1.25,-0.375
1480688204210912,1.1875,2,-0.3125
1480688204221440,0.0625,2,-0.1875
1480688204243498,-1.75,1.375,-0.3125
1480688204263552,-1.4375,0.75,-0.6875
1480688204280096,-0.25,0.5,-0.75
1480688204303157,0,0.3125,-0.8125
1480688204333237,-0.5,0.8125,-0.875
1480688204346274,-1.625,0.6875,-0.875
1480688204378358,-3,0,-0.375
1480688204383872,-4,-0.25,-0.5625
1480688204399915,-1.875,2,-0.875
1480688204422976,-5.375,5.625,-0.75
1480688204446037,-14.1875,10.0625,-1
1480688204461078,-23,10.3125,-2.125
1480688204491157,-24.6875,5.5,-0.3125
1480688204503691,-12.5,3.3125,1.1875
1480688204510709,-1.4375,4.1875,0.5625
1480688204533269,1.5625,6,-0.5
1480688204555327,0.4375,6.0625,-0.625
1480688204570869,-8.0625,3.125,-0.3125
1480688204585409,-11.3125,1.125,0.6875
1480688204607967,-8.6875,0.5625,1.25
1480688204633034,-4.4375,0,0.9375
1480688204656097,0.1875,-0.25,0.25
1480688204677151,4.875,-1.1875,0
1480688204698710,5.875,-1.5,0.1875
1480688204708234,2.875,-0.6875,0.375
1480688204728287,-1,-0.9375,0.3125
1480688204752351,-3,-1.5625,0.5625
1480688204766890,-2.5625,-1.3125,0.25
1480688204787946,0,-1.625,0.1875
1480688204810506,0.6875,-1.875,0.25
1480688204827050,1.9375,-1.375,-0.0625
1480688204848106,1.8125,-1.25,0.1875
1480688204870667,2.0625,-1.5,0.3125
1480688204887210,1.5625,-1.625,0.375
1480688204910773,1.375,-1.0625,0.3125
1480688204931828,0,-0.8125,0.375
1480688204961908,-0.8125,-1.1875,-0.0625
1480688204975445,-0.25,-1,0.25
1480688204998506,1.75,-0.5625,0.3125
1480688205008032,2.6875,-0.625,0
1480688205035606,3,-1.8125,0.125
1480688205050645,4.75,-1.8125,0.3125
1480688205067189,5.5,-1.5625,0.25
1480688205088245,4.5625,-1.5625,1.0625
1480688205135872,2.8125,-2.375,0.4375
1480688205141887,3.3125,-2.625,0
1480688205147903,4.9375,-2.25,0.625
1480688205170465,4.9375,-2,0.125
1480688205187510,3.375,-0.3125,0.0625
1480688205209567,-0.0625,0.125,-0.1875
1480688205230623,-1.75,0,0.25
1480688205247167,-1.25,0.5,0.1875
1480688205277248,-0.5,0.9375,0.0625
1480688205290784,-0.4375,1.9375,0.25
1480688205308832,-2.6875,2.0625,-0.125
1480688205327881,-5.4375,1.875,-0.3125
1480688205350443,-6.375,1.25,0
1480688205373002,-5.6875,0.5,-0.125
1480688205398073,-3.375,0.8125,-0.6875
1480688205418125,-1.6875,1.5625,-0.25
1480688205433165,-3.125,1.625,-0.25
1480688205455723,-6.0625,1.1875,-0.375
1480688205470762,-5.1875,0,0.125
1480688205509364,-2.4375,-0.8125,0.125
1480688205518892,1.25,-0.0625,-0.1875
1480688205533429,2.5625,0.3125,-0.0625
1480688205554484,0.4375,-0.625,-0.25
1480688205568025,-0.75,-0.1875,-0.375
1480688205590587,-1.1875,0.125,-0.5625
1480688205613140,-1.9375,-0.5625,-0.75
1480688205628181,-1.4375,-0.4375,-0.6875
1480688205653248,-0.5625,-0.6875,-0.375
1480688205673300,0.1875,-1,-0.6875
1480688205695359,0.375,-1,-0.625
1480688205719924,1.4375,-0.5625,-0.4375
1480688205742484,1.5,-0.25,-0.1875
1480688205749503,0.5,0,-0.5
1480688205770559,-0.875,-0.6875,-0.0625
1480688205793119,-0.1875,-0.9375,-0.25
1480688205808159,1.1875,-1.25,-0.3125
1480688205832224,2.75,-1.1875,-0.3125
1480688205853279,1.4375,-0.1875,0.125
1480688205868322,-0.5625,-0.875,0.125
1480688205891882,-0.8125,-1.5,0.25
1480688205912937,2,-2.375,0.25
1480688205927979,5.1875,-2.8125,-0.125
1480688205950539,6.25,-1.6875,0.3125
1480688205974602,2.3125,-1.25,-0.1875
1480688205995658,-0.3125,-2.1875,-0.125
1480688206019722,0.4375,-2.5625,0.6875
1480688206043284,2.125,-1.5625,0.75
1480688206047796,3,-0.25,0.3125
1480688206078378,2.375,0.5,0.25
1480688206093418,-0.375,0.25,0.25
1480688206109460,-1.0625,-0.1875,0.375
1480688206130517,-0.5,0.125,1
1480688206153077,-0.1875,0.375,1
1480688206169621,-0.0625,0.5,0.6875
1480688206198197,-0.3125,0.1875,0.75
1480688206230282,-0.1875,-0.0625,1.0625
1480688206232287,1.125,0.25,1
1480688206253350,1.75,0.125,0.375
1480688206275903,2.875,-0.3125,0.4375
1480688206312499,1.75,0.0625,0.5
1480688206315007,-0.0625,-0.5625,0.25
1480688206337566,-0.8125,-1.4375,-0.0625
1480688206355615,-0.3125,-2.4375,-0.25
1480688206370655,1.25,-2.125,-0.3125
1480688206393217,1.75,-0.8125,-0.125
1480688206409759,0.75,0.25,-0.4375
1480688206430314,-0.0625,0.375,-0.0625
1480688206452873,-0.5,0.0625,-0.3125
1480688206470922,0.3125,-0.5,0.1875
1480688206507017,1.875,-0.375,-0.1875
1480688206513034,0.9375,0.25,-0.5625
1480688206531083,0.3125,0.375,0.0625
1480688206553643,0.1875,0.0625,-0.0625
1480688206573193,0.5,-0.25,0
1480688206598264,1.375,0.125,-0.125
1480688206610794,1.25,0.5,-0.3125
1480688206632853,0.25,0,0.1875
1480688206656917,-1,0.1875,0.625
1480688206670453,-1.9375,0.375,0.0625
1480688206693012,-2.3125,-0.25,0.4375
1480688206711561,-1.625,-0.5625,0.3125
1480688206730612,-0.4375,-0.375,0
1480688206760694,-0.0625,-0.4375,-0.125
1480688206785760,0.25,-0.3125,0.1875
1480688206790777,0.5625,-0.1875,0.125
1480688206812830,0,-1.125,0.25
1480688206844414,0,-1.6875,0.375
1480688206850431,1.1875,-1.9375,0.4375
1480688206872990,1.625,-1.75,0.375
1480688206895551,3.0625,-2.25,0.375
1480688206910591,4.0625,-2.5625,0.4375
1480688206933151,4.8125,-2.375,0.5625
1480688206965237,3.5625,-1.375,0.375
1480688206978271,2.5625,-0.5,0.4375
1480688206993812,0.5,-0.125,0.5625
1480688207018379,-1.5625,-0.6875,0.0625
1480688207033418,-0.9375,-0.75,0.375
1480688207060490,-0.3125,0,0.25
1480688207085556,1.25,0.5625,0.3125
1480688207095082,1.5,-0.125,0.0625
1480688207113130,1.125,-0.125,-0.0625
1480688207145215,-1.25,0.0625,-0.1875
1480688207152233,-1.6875,0.5625,-0.0625
1480688207173289,-1.6875,0.875,-0.3125
1480688207195349,-1.25,0.6875,0.375
1480688207217910,-1.3125,0.5,0.1875
1480688207232948,-1.125,-0.125,-0.125
1480688207255509,-1,-0.5625,0.0625
1480688207272553,-0.375,-0.1875,0.125
1480688207294613,-0.0625,0.375,-0.25
1480688207317172,-1.3125,0.4375,-0.25
1480688207332212,-2.625,0.625,-0.3125
1480688207360788,-3.875,0.5625,-0.625
1480688207382846,-4.625,0.3125,-0.5
1480688207393375,-3.5,0.1875,-0.25
1480688207420949,-1.875,-0.125,-0.5
1480688207443006,-0.4375,-0.4375,-0.25
1480688207453535,0.5,-0.1875,0.0625
1480688207476094,-0.875,-0.1875,0.25
1480688207495647,-1.125,-0.3125,0.125
1480688207513694,-1.4375,-0.6875,0.5
1480688207540767,-0.6875,-0.5625,0.25
1480688207558313,-0.375,-0.8125,0.125
1480688207577865,-0.0625,-0.5,0.25
1480688207592905,-1.1875,-0.9375,0.4375
1480688207615465,-1.9375,-1.0625,0.375
1480688207633513,-1.75,-0.875,0.375
1480688207653069,-0.75,-0.375,-0.0625
1480688207675625,0,-0.4375,-0.125
1480688207700692,-0.25,-0.375,-0.0625
1480688207720745,-0.875,-0.6875,-0.25
1480688207742808,-0.5625,-1.25,-0.3125
1480688207753332,0.0625,-1.3125,-0.375
1480688207773887,1.4375,-1.125,-0.5625
1480688207802963,2.625,-1.0625,-0.5
1480688207813492,3.1875,-1.5,-0.6875
1480688207833044,3.5625,-1.9375,-0.625
1480688207863123,3.5625,-2.3125,-0.6875
1480688207873652,3.4375,-2.4375,-0.5
1480688207896713,2.5,-1.125,-0.375
1480688207923284,0.5625,-0.1875,-0.0625
1480688207934816,-2.625,-0.5625,0.0625
1480688207952863,-1.5625,-0.875,0
1480688207978430,1.0625,-0.375,0.125
1480688208006004,1.4375,0,0.0625
1480688208014528,0.9375,0.375,0.0625
1480688208052627,-0.3125,-0.0625,0
1480688208055135,-1.1875,-0.6875,0
1480688208074686,-1.1875,-0.625,-0.0625
1480688208104767,0.0625,-0.0625,0.125
1480688208113790,1.0625,0.1875,0.1875
1480688208140361,-0.9375,0.0625,0.1875
1480688208162921,-1.375,-0.0625,0.3125
1480688208173449,-1.375,-0.125,0.375
1480688208198014,-0.9375,-0.1875,0.25
1480688208234112,0,-0.25,0.4375
1480688208238121,-0.25,0.125,0.375
1480688208256173,-0.1875,0.5,0.375
1480688208280233,-1,-0.125,0.3125
1480688208297779,-2.5,0.375,0.3125
1480688208314325,-1.3125,1.0625,0.75
1480688208342899,-2.75,2.375,0.875
1480688208353428,-4.9375,3.0625,0.375
1480688208375987,-6.75,1.375,0
1480688208398547,-5.3125,1.8125,0.5
1480688208425620,-4.8125,3.625,0.4375
1480688208436148,-7,3.25,0.5625
1480688208455701,-8.8125,2,0.4375
1480688208478259,-7.6875,1.1875,0.375
1480688208495806,-3.5625,1.25,1.0625
1480688208521375,-0.5,1.4375,0.5625
1480688208541428,-0.3125,0.875,0.625
1480688208560478,0.25,0.3125,0.5
1480688208579528,-0.4375,-0.1875,0.6875
1480688208599583,-2.625,-1.3125,0.25
1480688208616628,-1.8125,-1.3125,0.25
1480688208643198,0.5625,-0.75,0.1875
1480688208659743,2.6875,-0.875,0.375
1480688208688318,3.1875,-1.125,0.1875
1480688208702862,2.3125,-1.1875,0.0625
1480688208717899,1.625,-0.4375,-0.125
1480688208737448,-0.0625,0.375,0.1875
1480688208763016,-3.4375,-0.625,0
1480688208778056,-2.9375,-0.6875,-0.0625
1480688208796105,-2.4375,0.3125,0.1875
1480688208815657,-2.125,0.4375,0.5625
1480688208841224,-1.875,-0.0625,0.8125
1480688208864286,-1.0625,-0.0625,0.5
1480688208878323,-0.875,-1.0625,0.625
1480688208905395,0,-1.125,0.625
1480688208915923,0.6875,-0.9375,0.25
1480688208936979,-0.125,-1.5625,0.125
1480688208958035,1.3125,-1.0625,0
1480688208976083,1.5,-1.6875,-0.25
1480688208999144,1.4375,-3.5625,-0.125
1480688209018198,4.1875,-5.125,-0.125
1480688209035742,9.75,-6.1875,-0.125
1480688209073342,14.25,-5.8125,0.1875
1480688209095902,12.1875,-4.1875,-0.25
1480688209098409,8.25,-3.875,0.0625
1480688209118963,5.25,-4.375,-0.6875
1480688209138013,2.3125,-3.8125,-0.625
1480688209156062,1.625,-4.8125,-0.125
1480688209178621,3.25,-6.625,0.375
1480688209198174,7.5625,-6.5,1.125
1480688209217728,8.6875,-5.3125,1.375
1480688209236777,5.9375,-5.375,0.25
1480688209258334,2.5625,-5.1875,-0.5625
1480688209276382,1,-3.375,-0.5625
1480688209298440,0.25,-1.75,-0.625
1480688209327017,0.9375,-0.4375,-0.75
1480688209340552,2.4375,1,-0.5625
1480688209360606,1.3125,1.4375,-0.5
1480688209378153,-1.1875,1.5625,-1.0625
1480688209396200,-3,0.8125,-1.875
1480688209418259,-3.25,-0.25,-1.875
1480688209438312,-1.25,-0.5625,-1.3125
1480688209460373,1.75,-0.0625,-1.25
1480688209478419,2,0.875,-1.375
1480688209497972,0.3125,1.125,-1.1875
1480688209516019,-1.5,2.125,-1.3125
1480688209538579,-4.0625,2.6875,-1.5625
1480688209558132,-6.4375,2.625,-1.1875
1480688209576179,-8.4375,3,-0.9375
1480688209598238,-7.9375,2.8125,-0.4375
1480688209625811,-5.0625,2.5,-0.8125
1480688209640350,-2.4375,2.25,-0.4375
1480688209665918,-0.4375,2.375,-0.5625
1480688209685469,-1.9375,2,0.1875
1480688209695997,-3.9375,1.0625,-0.25
1480688209718559,-3.9375,0.3125,0.0625
1480688209739614,-0.875,0.1875,0.0625
1480688209760670,2.0625,1.25,0.125
1480688209778216,1,1.375,-0.4375
1480688209805789,-1.3125,1.0625,-0.25
1480688209815816,-3.625,0.25,-0.1875
1480688209838877,-2.875,-0.1875,-0.125
1480688209857930,-1.3125,0.5,-0.0625
1480688209883497,-0.875,-0.0625,0
1480688209898536,-0.8125,-0.75,0.125
1480688209919592,-0.0625,-1.4375,0.1875
1480688209949672,0.1875,-1.4375,-0.0625
1480688209963208,1.6875,-1.375,0
1480688209979250,2.5625,-1.4375,0.3125
1480688210000812,2.625,-0.875,-0.1875
1480688210018356,2.5625,-0.8125,-0.125
1480688210039411,1.375,-1.4375,0.375
1480688210063475,-0.1875,-0.9375,0.25
1480688210091048,-0.8125,-0.5625,0.0625
1480688210114110,-1.25,-0.125,-0.0625
1480688210137672,1.1875,-0.125,0.0625
1480688210140179,2.125,-0.25,-0.125
1480688210160733,1.5,-1.0625,0
1480688210183294,0.75,-0.625,-0.25
1480688210204350,1,-0.8125,-0.125
1480688210220894,1.25,-1.3125,0.0625
1480688210249471,1.875,-1.1875,0
1480688210272530,1.8125,-0.125,0.0625
1480688210282057,-0.75,-0.1875,0.25
1480688210300606,-1.25,-0.0625,0.375
1480688210320158,-0.3125,0.5,0.1875
1480688210341715,-0.3125,0,-0.0625
1480688210362771,-0.6875,-0.625,-0.0625
1480688210398866,0.8125,-1.4375,0.375
1480688210406887,2.1875,-1.8125,0.25
1480688210420425,2.5,-2.6875,-0.1875
1480688210438472,2.6875,-3.125,0.5625
1480688210461033,6.25,-3.9375,1.125
1480688210480584,7.5625,-5.0625,0.375
1480688210498632,8.1875,-4.4375,0.1875
1480688210521193,6.375,-3.4375,0.125
1480688210548263,2.75,-2.1875,-0.25
1480688210562802,0.125,-1.75,-0.4375
1480688210580851,0.75,-1.0625,-0.0625
1480688210600910,1.1875,0.25,0.0625
1480688210622965,0.5625,1.1875,0.1875
1480688210645522,0.0625,2.1875,0.5625
1480688210663572,-1,3.0625,0.3125
1480688210683123,-2.625,3.125,-0.375
1480688210701172,-4.0625,3.6875,0.1875
1480688210728243,-5.1875,3.9375,-0.0625
1480688210738271,-5.25,2.875,-0.0625
1480688210761331,-3.125,1.5625,-0.375
1480688210781885,-1.5625,1.625,0
1480688210805950,-1.625,1.8125,-0.25
1480688210820990,-2.8125,2,-0.125
1480688210856083,-4.8125,1,-0.3125
1480688210872126,-3.375,0.25,0.25
1480688210881149,-2.0625,1.125,0.1875
1480688210902205,-2.0625,1.6875,-0.375
1480688210925267,-3.625,0.375,0
1480688210940808,-4.125,-0.625,0
1480688210961864,-2.4375,-1.25,0.0625
1480688210979411,0.0625,-1.625,-0.375
1480688211008487,1.75,-0.6875,-0.0625
1480688211028040,0.5625,-0.875,-0.375
1480688211038568,-1.8125,-1.5625,-0.375
1480688211061130,-1.3125,-0.75,0
1480688211082183,-0.8125,-0.625,-0.3125
1480688211106248,-0.5,-1.4375,-0.1875
1480688211120787,0.6875,-1.4375,-0.3125
1480688211157385,0.9375,-1.3125,-0.1875
1480688211159890,-0.5,-0.625,-0.4375
1480688211185458,-0.1875,-0.25,-0.5
1480688211203506,-1.125,-0.875,-0.0625
1480688211223059,-1.125,-0.6875,-0.0625
1480688211241107,-1.375,0.125,0.1875
1480688211263667,-3.625,0,0.1875
1480688211278706,-3.8125,-1.0625,-0.125
1480688211300775,-2.75,-0.5,0.6875
1480688211336861,-1.625,-1.5,0
1480688211342878,0.0625,-2.6875,-0.1875
1480688211359923,2.6875,-1.4375,-1.1875
1480688211383486,1.25,-0.375,-1.4375
1480688211403541,1.5625,-0.3125,-1
1480688211420083,1.625,-0.8125,-0.625
1480688211442642,2.5625,-0.1875,-1.1875
1480688211481247,3.8125,0.5625,-0.5625
1480688211483754,0.9375,-0.125,-0.8125
1480688211502802,-0.1875,-1,-0.5
1480688211523861,2,-2.3125,0.125
1480688211540402,3.5625,-2.625,0.1875
1480688211568476,4.75,-2.125,-1.25
1480688211583520,5.3125,-2.125,-0.3125
1480688211600061,2.875,-2.3125,0.375
1480688211623123,0.5625,-1.875,0.3125
1480688211643677,0.4375,-1.3125,0.3125
1480688211661725,0.375,-1.25,0
1480688211684287,0.625,-0.8125,-0.1875
1480688211703837,1.1875,0.125,0
1480688211720381,1.0625,1.3125,0.375
1480688211758483,1.5625,1.375,0.625
1480688211763499,1.375,2.1875,1
1480688211781042,-2.4375,3.3125,0.6875
1480688211802600,-6.25,3.125,0.5
1480688211823656,-8.0625,2.75,0.8125
1480688211840701,-7.0625,2.6875,1.125
1480688211864262,-6,2.8125,0.5
1480688211885320,-6.875,1.875,1.0625
1480688211905874,-5.5,0.75,0.75
1480688211923923,-2.3125,1.625,0.8125
1480688211945479,-3.1875,2.3125,0.875
1480688211960018,-6.3125,1.75,1
1480688211982583,-9,0.1875,1.375
1480688212012658,-7.4375,-1.375,0.75
1480688212027197,-0.75,-1.75,-0.0625
1480688212042739,4.8125,-0.8125,-0.4375
1480688212071314,5.3125,-0.75,-1.1875
1480688212080338,3.0625,-1.25,-1.125
1480688212102898,1.625,-1.0625,-0.75
1480688212124957,0.5,-0.875,-0.5625
1480688212140498,0.5,-1.4375,-0.25
1480688212162558,1,-1.4375,-0.1875
1480688212185116,1.8125,-2,-0.625
1480688212215208,4.125,-2,-0.3125
1480688212222718,5.375,-1.1875,-0.625
1480688212245276,4.3125,-1.75,-0.4375
1480688212260819,2.875,-3.375,-0.3125
1480688212282376,3.625,-2.875,0.125
1480688212312456,3.5625,-1.8125,0.25
1480688212319975,3.3125,-1.6875,-0.375
1480688212351059,2.4375,-1.75,-0.1875
1480688212380135,2,-1.6875,-0.25
1480688212382642,1.125,-1.125,-0.1875
1480688212403196,0.5,-0.625,-0.125
1480688212425256,1.25,-0.25,-0.0625
1480688212439292,0.8125,-0.9375,-0.3125
1480688212463357,2.125,-0.9375,-0.1875
1480688212492434,2,-1.3125,-0.125
1480688212499958,1.125,-1.8125,-0.5
1480688212528530,0.8125,-2.875,0.25
1480688212545078,1.375,-2.125,0.25
1480688212567636,2.625,-0.875,0
1480688212590197,0.9375,-0.4375,-0.1875
1480688212613257,0.6875,0.1875,0
1480688212626290,1.5,0.875,0
1480688212642833,0.625,0.875,0
1480688212665897,-0.875,0.5,-0.375
1480688212685948,-1.875,-0.6875,-0.3125
1480688212702493,-1.5625,-1.6875,-0.125
1480688212726127,0.0625,-1,-0.125
1480688212746109,2.5,-1.375,-0.6875
1480688212768668,2.6875,-0.625,-0.5625
1480688212785213,1.4375,-0.3125,-0.75
1480688212806269,-0.0625,0,-0.8125
1480688212822813,-1.125,0.0625,-0.375
1480688212844872,-1.125,0.4375,-0.4375
1480688212868434,-0.5,0.25,-0.0625
1480688212897511,1,-1.625,-0.5625
1480688212912550,1.5625,-1.4375,-0.5
1480688212926087,1.25,-0.3125,-0.3125
1480688212943133,0.4375,-1.0625,0.375
1480688212973716,0.6875,-2.875,-0.875
1480688212985746,2.625,-4.375,-0.8125
1480688213002791,5.625,-6.125,-1.375
1480688213025351,8.1875,-7.5625,-1.625
1480688213047409,10.125,-8.375,-0.25
1480688213062451,11.75,-9.4375,0
1480688213085011,9.6875,-8.9375,-0.4375
1480688213113586,6.1875,-8.125,-0.6875
1480688213123613,3.5625,-7.75,-0.625
1480688213145170,3.8125,-5.25,0.1875
1480688213168231,1.375,-1.6875,0.3125
1480688213183274,-3.375,0.75,0.4375
1480688213205831,-4.5,0.0625,0.5625
1480688213227889,-4.5,-1.3125,1.875
1480688213242929,-0.875,-1.75,3.3125
1480688213264993,-1.5,-2.0625,2.1875
1480688213287548,-0.6875,-2.25,1.375
1480688213302088,1.1875,-3.125,2.875
1480688213325150,2.125,-5.5,2.1875
1480688213347708,2.4375,-7.25,0.875
1480688213361746,6.4375,-8.6875,1.1875
1480688213385308,9.9375,-9.1875,0.6875
1480688213407366,5.5625,-8.1875,-0.5625
1480688213421906,-0.1875,-6.875,-0.1875
1480688213444966,-1.625,-4.75,-0.9375
1480688213467527,-0.875,-2.625,-1.4375
1480688213490589,2.25,-1,-0.9375
1480688213505628,4.625,3.6875,-2.875
1480688213527687,0.0625,9.625,-3.375
1480688213550246,-8.75,13.25,-1.5625
1480688213565287,-14.125,11.5,-2.0625
1480688213587847,-13.625,7.375,-2.0625
1480688213608903,-11,10.0625,-0.6875
1480688213625447,-10,13.375,1
1480688213647505,-10.625,10.0625,-0.3125
1480688213677586,-8.875,5.125,0.125
1480688213686108,-4.9375,3.9375,1.4375
1480688213707666,-1.5625,5.75,1.625
1480688213736242,-3.6875,4.0625,0.5625
1480688213746268,-3.625,1.375,0.875
1480688213767826,-1.125,-0.1875,1.625
1480688213788882,1.3125,-1.375,1.25
1480688213812945,2.0625,-1,0.1875
1480688213827986,0.4375,0.0625,0.1875
1480688213856061,-1.125,-0.5625,0.0625
1480688213865084,-1.0625,-0.75,0.5
1480688213887644,-0.25,0.25,0.3125
1480688213908699,-0.6875,1.25,0
1480688213933268,-2.8125,1.0625,-0.25
1480688213961841,-2.6875,-0.6875,0.1875
1480688213968359,-1.625,-1.3125,0.125
1480688213984903,0.375,-1.25,-0.5
1480688214007463,2.1875,-1.75,0.125
1480688214028519,3.25,-1.9375,-0.1875
1480688214045062,2.5625,-3.375,-0.1875
1480688214067622,4.9375,-6.8125,0.75
1480688214090184,10.125,-8.6875,1.75
1480688214113245,11.3125,-6.6875,1.25
1480688214135804,9.4375,-2.1875,-0.25
1480688214157863,2.875,-0.1875,-0.375
1480688214165383,-2.0625,-1.3125,-0.25
1480688214187441,-0.6875,-2.4375,-0.75
1480688214210001,3.5,-2.875,-0.6875
1480688214224541,6,-2.125,-0.75
1480688214247601,4.5,-2.875,-1.0625
1480688214277681,2.875,-2.8125,-0.8125
1480688214291217,0.5625,-1.5625,-0.3125
1480688214307761,-0.6875,-0.5625,-0.25
1480688214331324,1.125,-0.5625,-0.25
1480688214344359,1.625,-1.125,-0.0625
1480688214367420,0.5625,-2.0625,0.125
1480688214389980,2.125,-2.625,0.375
1480688214412540,1.875,-2.5625,0.1875
1480688214436104,1.5,-3.1875,-0.375
1480688214458163,3.625,-3.8125,0.375
1480688214464679,3.625,-3.75,-0.125
1480688214487740,3.125,-3.3125,-0.1875
1480688214510299,0.875,-2.75,-0.125
1480688214531355,-0.0625,-1.5625,0.125
1480688214547398,-0.5,-0.6875,0.3125
1480688214576977,0.25,-0.375,0.125
1480688214591015,0,-2,-0.375
1480688214607558,2.125,-2.5625,0.375
1480688214630119,2,-3.125,0.125
1480688214658695,2.25,-2.8125,-0.25
1480688214667719,0.75,-1.9375,-0.6875
1480688214690279,0.125,-1.375,-1.0625
1480688214720358,-0.5625,-0.3125,-0.9375
1480688214729383,-0.3125,0.375,-1
1480688214749941,1.0625,1.4375,-0.375
1480688214770993,1.4375,2.5625,-0.625
1480688214787537,0.1875,6.375,-0.75
1480688214810097,-3.5625,7.0625,-3.125
1480688214831154,-7.8125,1.8125,-2.125
1480688214847698,0.5625,-1.9375,1.6875
1480688214870258,3,-2.125,0.375
1480688214900339,1,-0.8125,-1.6875
1480688214907355,-1,0.8125,-0.1875
1480688214945958,-3.4375,3.625,0.5625
1480688214950972,-7.5,4.3125,0.75
1480688214967515,-7.9375,4.5,0.5
1480688214990076,-4.9375,3.875,-0.625
1480688215013642,-4.4375,2.875,-1.3125
1480688215027675,-3.6875,2.125,-1.25
1480688215050737,-1.625,1.875,-1.5625
1480688215073297,-1.6875,1.875,-2.4375
1480688215087334,-2.8125,2.5,-1.9375
1480688215109894,-4.1875,2.75,-1.375
1480688215132454,-5.625,2.25,-0.875
1480688215147995,-6.25,1.25,-0.8125
1480688215177574,-4,0.75,-0.4375
1480688215200636,-0.75,0.5625,-0.375
1480688215207152,1,0.25,-0.4375
1480688215235729,1.875,0.0625,0.1875
1480688215253275,1.1875,0.625,0.0625
1480688215266812,0,0.8125,0.375
1480688215289873,-1,1,0.5625
1480688215312433,-2.1875,0.3125,0.125
1480688215326971,-3,0.3125,0.3125
1480688215350034,-3.125,-0.25,0.3125
1480688215372593,-1.0625,-0.5625,0.125
1480688215387132,1.5625,-0.0625,-0.125
1480688215410193,2.75,0.3125,-0.125
1480688215433756,1.125,0.3125,0.1875
1480688215453808,0.75,0.5,0
1480688215477873,0.875,0.625,0.375
1480688215492411,0.9375,0.75,0.75
1480688215514972,0.0625,0.5,0.0625
1480688215538535,-0.125,0.625,0.625
1480688215569115,0.8125,0.5,0.1875
1480688215581649,2.1875,0.75,0.1875
1480688215590173,4.8125,2,0.3125
1480688215612731,9.4375,2.8125,-0.125
1480688215633791,12.9375,3.4375,-1.5625
1480688215657852,6.5625,3.4375,-0.3125
1480688215680913,0.5625,1.8125,-1.0625
1480688215693446,-3.1875,1.25,-2
1480688215709990,-1.625,1.5625,-1.1875
1480688215732550,0.5,1.25,-1.875
1480688215755110,3,2,-2.0625
1480688215777670,1.5,2.375,-2.3125
1480688215800231,-0.5,-1.3125,-1
1480688215821286,-0.0625,-2.125,-0.625
1480688215836827,1.5,0.375,-1.4375
1480688215852870,1.125,1.1875,-0.75
1480688215874427,1.875,0.125,-0.75
1480688215897488,0.5,-1.125,-0.75
1480688215912528,-0.1875,-0.875,-1.25
1480688215942608,0.3125,-0.3125,-1.125
1480688215950128,1.6875,-1,-1
1480688215973190,2.5625,-2.1875,-1.0625
1480688215995248,3.375,-3,-1.125
1480688216010288,4.25,-3.625,-1.3125
1480688216032851,5.375,-5.1875,-1.25
1480688216054907,3.9375,-8.75,-1
1480688216077467,7.6875,-13.1875,-1
1480688216093009,14.1875,-16.75,0.4375
1480688216116072,17.75,-14.1875,0.875
1480688216137627,14.0625,-8.5625,0.8125
1480688216152667,5.125,3.25,1.1875
1480688216175227,-12.1875,12.0625,2.6875
1480688216196284,-27.5625,12.4375,3.0625
1480688216220347,-31.4375,8,2.25
1480688216242406,-18.875,5.625,2.125
1480688216263462,-9.375,4,0.4375
1480688216272486,-4.75,2.0625,-0.9375
1480688216303067,-1.8125,-0.8125,-1.4375
1480688216309584,3.0625,-1,-0.5625
1480688216332646,6.0625,-0.625,-0.25
1480688216355206,4.25,0.0625,-0.8125
1480688216369243,3.5625,0.875,-0.375
1480688216400326,1.125,1.375,0.5625
1480688216423387,-4.25,1.1875,1.375
1480688216435920,-7.75,0.4375,1.1875
1480688216453467,-6.4375,-0.0625,0.9375
1480688216475024,-2.25,0,0.375
1480688216497584,3,0.5,0.1875
1480688216518640,3.75,0.25,0.5
1480688216534685,0,-0.3125,0.0625
1480688216563760,-3.5625,-1.0625,-0.4375
1480688216586321,-3.8125,-1.6875,0
1480688216609381,-2.8125,-1.75,-0.125
1480688216616410,-1.3125,-2.3125,-0.4375
1480688216632948,0.6875,-1.625,-0.375
1480688216662523,2,-0.25,0.5
1480688216676059,0.625,0.3125,-0.0625
1480688216707642,0.0625,0.375,-0.25
1480688216715164,0.0625,-0.375,0.25
1480688216736219,-0.75,-0.9375,0
1480688216753265,-2.0625,-0.875,-0.4375
1480688216776326,-1.375,-0.6875,0
1480688216796379,-0.6875,-1.125,0
1480688216825957,-0.625,-1.375,-0.25
1480688216834982,0.3125,-1.6875,-0.5625
1480688216859046,0.9375,-2.3125,-0.25
1480688216872581,1.6875,-1.375,-0.1875
1480688216894640,1.125,-1,-0.4375
1480688216918203,0.4375,-1.75,-0.0625
1480688216932743,0.75,-2.125,-0.5
1480688216955302,1.875,-1.8125,-0.4375
1480688216977359,2.5625,0.0625,-0.0625
1480688216991900,2.0625,0.5,-0.25
1480688217022481,-1.0625,-1.125,-0.375
1480688217045541,-0.8125,-1.625,-0.5
1480688217052059,1.4375,-1.0625,-0.625
1480688217075622,2.75,-0.75,-1.0625
1480688217098182,2.6875,-0.625,-1.4375
1480688217118736,1,-0.6875,-0.75
1480688217141296,-0.125,-0.3125,-0.8125
1480688217157840,0,1.25,-0.875
1480688217171881,-1.25,2.5,-0.625
1480688217210480,-4.25,2.6875,-0.875
1480688217217499,-4,2.875,-0.75
1480688217241562,-0.9375,2.125,-0.875
1480688217264123,1.8125,2.1875,0.25
1480688217277658,1.1875,1.6875,1.0625
1480688217300219,-1.5,1.375,0.3125
1480688217315761,-1.9375,2,0.6875
1480688217337818,-1.125,2.625,0.6875
1480688217351856,-0.1875,3,0.375
1480688217375920,-2.125,2.9375,0.5625
1480688217397477,-3.125,2.375,0.8125
1480688217418535,-3.375,1.5625,1.0625
1480688217435077,-2.375,2.0625,0.6875
1480688217457637,-0.5625,2.5,0.25
1480688217480199,-0.3125,1.4375,0.3125
1480688217495237,-0.875,-0.25,0.0625
1480688217517798,0.1875,-0.1875,0.125
1480688217546373,0.9375,0.125,0.25
1480688217555397,0.1875,-0.125,0.375
1480688217577456,-0.4375,-0.0625,0.0625
1480688217599014,-0.375,-0.5,0.375
1480688217616560,0.0625,-1.3125,0.5625
1480688217637616,0.9375,-1.625,0.0625
1480688217659173,1.375,-1.0625,0.375
1480688217675216,2.25,-1.0625,0.5
1480688217697779,2.5,-1.125,-0.0625
1480688217718833,2.5625,0.0625,0.0625
1480688217735377,2.25,1.125,-0.0625
1480688217757435,-1.0625,1.25,0.375
1480688217778490,-2.25,0.4375,0.625
1480688217795034,-1.125,-0.25,0.5625
1480688217817595,0.9375,0.125,0.5
1480688217840155,1.75,0,0.5
1480688217861210,1.9375,-0.0625,0.25
1480688217883770,1.6875,0.0625,-0.25
1480688217900315,2.625,0.0625,0.0625
1480688217928390,3.75,0.1875,-0.0625
1480688217937413,4.3125,0.75,-0.4375
1480688217967493,3.8125,1.625,0.9375
1480688217976016,2.875,1.8125,0.25
1480688217997573,2.0625,2.3125,-0.375
