timestamp,x,y,z,w
1480688152185404,0.206055,-0.653137,0.685669,-0.246582
1480688152206460,0.206055,-0.653137,0.685669,-0.246582
1480688152223505,0.206055,-0.653137,0.685669,-0.246582
1480688152251581,0.206055,-0.653137,0.685669,-0.246521
1480688152274140,0.206055,-0.653137,0.685669,-0.246582
1480688152283164,0.206055,-0.653198,0.685669,-0.246582
1480688152305222,0.206055,-0.653198,0.685669,-0.246582
1480688152327784,0.206055,-0.653198,0.685669,-0.246582
1480688152348894,0.206055,-0.653198,0.685669,-0.246582
1480688152372958,0.206055,-0.653137,0.685669,-0.246582
1480688152388499,0.206055,-0.653198,0.685608,-0.246582
1480688152402035,0.206055,-0.653198,0.685608,-0.246582
1480688152433118,0.206055,-0.653198,0.685608,-0.246582
1480688152455680,0.206055,-0.653198,0.685608,-0.246582
1480688152462198,0.206055,-0.653198,0.685608,-0.246582
1480688152486761,0.206055,-0.653198,0.685608,-0.246582
1480688152507817,0.206055,-0.653198,0.685608,-0.246521
1480688152522356,0.206055,-0.653198,0.685608,-0.246582
1480688152551435,0.206055,-0.653198,0.685608,-0.246582
1480688152575997,0.206055,-0.653198,0.685608,-0.246582
1480688152583518,0.206055,-0.653259,0.685608,-0.246582
1480688152605576,0.206055,-0.653259,0.685608,-0.246582
1480688152627635,0.206055,-0.653259,0.685547,-0.246582
1480688152642173,0.206055,-0.653259,0.685547,-0.246582
1480688152665235,0.206055,-0.653259,0.685547,-0.246582
1480688152695317,0.206055,-0.653259,0.685547,-0.246582
1480688152702334,0.206055,-0.653259,0.685547,-0.246582
1480688152738931,0.206055,-0.653259,0.685547,-0.246582
1480688152757982,0.206055,-0.653259,0.685547,-0.246582
1480688152762495,0.206055,-0.653259,0.685547,-0.246582
1480688152785557,0.206055,-0.653259,0.685547,-0.246582
1480688152808116,0.206055,-0.653259,0.685547,-0.246582
1480688152830676,0.206055,-0.653259,0.685547,-0.246582
1480688152845214,0.206055,-0.653259,0.685547,-0.246582
1480688152867776,0.205994,-0.653259,0.685547,-0.246582
1480688152889332,0.206055,-0.653259,0.685547,-0.246582
1480688152906877,0.206055,-0.653259,0.685547,-0.246582
1480688152927934,0.205994,-0.653259,0.685547,-0.246582
1480688152948990,0.205994,-0.65332,0.685547,-0.246582
1480688152979070,0.206055,-0.65332,0.685547,-0.246582
1480688152988094,0.206055,-0.65332,0.685486,-0.246582
1480688153010655,0.206055,-0.65332,0.685486,-0.246582
1480688153032713,0.206055,-0.65332,0.685486,-0.246582
1480688153055272,0.205994,-0.65332,0.685486,-0.246582
1480688153068808,0.205994,-0.65332,0.685486,-0.246582
1480688153085352,0.205994,-0.65332,0.685486,-0.246582
1480688153107912,0.205994,-0.65332,0.685486,-0.246582
1480688153136488,0.206055,-0.65332,0.685486,-0.246582
1480688153146014,0.206055,-0.65332,0.685486,-0.246582
1480688153174089,0.206055,-0.65332,0.685486,-0.246582
1480688153189129,0.206055,-0.65332,0.685547,-0.246582
1480688153205171,0.206055,-0.653198,0.685608,-0.246582
1480688153227731,0.206055,-0.653198,0.685608,-0.246582
1480688153250291,0.206055,-0.653198,0.685608,-0.246643
1480688153272851,0.206055,-0.653198,0.685608,-0.246582
1480688153289400,0.206055,-0.653198,0.685608,-0.246582
1480688153318474,0.206055,-0.653198,0.685608,-0.246643
1480688153340531,0.205933,-0.652954,0.685913,-0.246643
1480688153353566,0.205933,-0.65271,0.686096,-0.246643
1480688153370611,0.205933,-0.65271,0.686096,-0.246643
1480688153384648,0.205933,-0.65271,0.686096,-0.246582
1480688153408211,0.206055,-0.652527,0.686279,-0.246582
1480688153430270,0.206055,-0.652527,0.686279,-0.246582
1480688153444811,0.206055,-0.652527,0.686279,-0.246582
1480688153467871,0.206055,-0.652527,0.686279,-0.246582
1480688153496446,0.205994,-0.652344,0.686462,-0.246521
1480688153504968,0.205994,-0.652283,0.686523,-0.246521
1480688153528029,0.205994,-0.652283,0.686523,-0.246521
1480688153550589,0.205994,-0.652283,0.686523,-0.246521
1480688153565129,0.205994,-0.652222,0.686584,-0.246521
1480688153595710,0.205994,-0.652222,0.686584,-0.246521
1480688153618270,0.205994,-0.652222,0.686584,-0.246521
1480688153638824,0.206055,-0.652222,0.686584,-0.246521
1480688153648349,0.206055,-0.652222,0.686584,-0.246521
1480688153670910,0.206055,-0.652222,0.686584,-0.246521
1480688153684947,0.206055,-0.652222,0.686584,-0.246521
1480688153708008,0.206055,-0.652222,0.686584,-0.246521
1480688153730568,0.206055,-0.652222,0.686584,-0.246521
1480688153751624,0.206055,-0.652161,0.686584,-0.246521
1480688153767667,0.206055,-0.652161,0.686646,-0.246521
1480688153790227,0.206055,-0.652161,0.686646,-0.24646
1480688153811784,0.206055,-0.652161,0.686646,-0.24646
1480688153827827,0.206055,-0.652161,0.686646,-0.24646
1480688153850386,0.206055,-0.652161,0.686646,-0.24646
1480688153873450,0.206055,-0.652161,0.686646,-0.24646
1480688153894003,0.206116,-0.6521,0.686707,-0.24646
1480688153918067,0.206055,-0.6521,0.686707,-0.24646
1480688153940626,0.206116,-0.6521,0.686707,-0.24646
1480688153949149,0.206116,-0.6521,0.686707,-0.24646
1480688153970205,0.206055,-0.6521,0.686707,-0.24646
1480688153991763,0.206055,-0.6521,0.686707,-0.24646
1480688154007805,0.206055,-0.652039,0.686707,-0.24646
1480688154030366,0.206055,-0.652039,0.686768,-0.24646
1480688154053928,0.206116,-0.652039,0.686768,-0.24646
1480688154067965,0.206116,-0.652039,0.686768,-0.24646
1480688154090528,0.206116,-0.652039,0.686768,-0.24646
1480688154111082,0.206116,-0.652039,0.686768,-0.24646
1480688154128130,0.206116,-0.652039,0.686768,-0.246399
1480688154150685,0.206116,-0.651978,0.686768,-0.246399
1480688154172744,0.206177,-0.652161,0.686646,-0.246338
1480688154195304,0.206177,-0.652161,0.686646,-0.246338
1480688154210344,0.206177,-0.652161,0.686646,-0.246338
1480688154238919,0.206177,-0.652161,0.686646,-0.246338
1480688154247944,0.206177,-0.652161,0.686646,-0.246338
1480688154270504,0.206177,-0.652161,0.686707,-0.246338
1480688154299080,0.206238,-0.652161,0.686707,-0.246277
1480688154307101,0.206421,-0.652283,0.686523,-0.246216
1480688154330665,0.206604,-0.652466,0.686279,-0.246216
1480688154352723,0.206726,-0.652649,0.686096,-0.246216
1480688154381800,0.206848,-0.652771,0.685913,-0.246216
1480688154403858,0.206848,-0.652771,0.685974,-0.246155
1480688154429426,0.206848,-0.65271,0.685974,-0.246155
1480688154441459,0.206848,-0.65271,0.685974,-0.246155
1480688154464019,0.206909,-0.652771,0.685913,-0.246094
1480688154473044,0.20697,-0.653015,0.68573,-0.246033
1480688154487080,0.207214,-0.653259,0.685425,-0.246033
1480688154510643,0.207214,-0.653259,0.685425,-0.246033
1480688154532701,0.207214,-0.653259,0.685425,-0.246033
1480688154547240,0.207214,-0.653076,0.685608,-0.246033
1480688154576820,0.207214,-0.653076,0.685608,-0.246033
1480688154592861,0.207214,-0.653076,0.685608,-0.246033
1480688154607401,0.207275,-0.653137,0.685486,-0.246094
1480688154630461,0.207275,-0.653137,0.685486,-0.246094
1480688154660542,0.207275,-0.653137,0.685486,-0.246094
1480688154675080,0.207458,-0.653015,0.685547,-0.246155
1480688154705661,0.207642,-0.65271,0.685669,-0.246277
1480688154718695,0.207886,-0.652527,0.685791,-0.246399
1480688154741757,0.20813,-0.652344,0.685791,-0.246582
1480688154751784,0.208435,-0.652161,0.685852,-0.246765
1480688154772840,0.208679,-0.651917,0.685913,-0.246887
1480688154793896,0.208923,-0.651733,0.686035,-0.246826
1480688154810440,0.208984,-0.651733,0.686035,-0.246826
1480688154832498,0.208984,-0.651733,0.686035,-0.246826
1480688154854557,0.208984,-0.651733,0.686035,-0.246765
1480688154870600,0.209045,-0.651733,0.686035,-0.246765
1480688154892658,0.209045,-0.651733,0.686035,-0.246765
1480688154914217,0.208923,-0.651672,0.686157,-0.246643
1480688154936274,0.208923,-0.651672,0.686157,-0.246582
1480688154960339,0.208923,-0.651672,0.686157,-0.246582
1480688154982898,0.208923,-0.651672,0.686157,-0.246582
1480688154996434,0.208801,-0.651611,0.686279,-0.246521
1480688155012979,0.208801,-0.651611,0.68634,-0.246521
1480688155034036,0.208801,-0.651611,0.68634,-0.246521
1480688155052082,0.208679,-0.651428,0.686523,-0.246521
1480688155072637,0.208679,-0.651428,0.686523,-0.246521
1480688155094195,0.208679,-0.651428,0.686523,-0.24646
1480688155125390,0.208679,-0.651428,0.686523,-0.24646
1480688155132798,0.208679,-0.651428,0.686523,-0.24646
1480688155171902,0.208679,-0.651428,0.686584,-0.24646
1480688155183935,0.208679,-0.651428,0.686584,-0.24646
1480688155192957,0.20874,-0.651367,0.686584,-0.24646
1480688155215517,0.20874,-0.651367,0.686584,-0.24646
1480688155239581,0.20874,-0.651367,0.686584,-0.24646
1480688155254119,0.208679,-0.651367,0.686584,-0.24646
1480688155275176,0.208679,-0.651367,0.686646,-0.24646
1480688155290216,0.208679,-0.651367,0.686646,-0.24646
1480688155313778,0.208679,-0.651306,0.686646,-0.24646
1480688155335336,0.20874,-0.651306,0.686646,-0.24646
1480688155349875,0.20874,-0.651306,0.686646,-0.24646
1480688155372935,0.208679,-0.651306,0.686646,-0.24646
1480688155395495,0.208679,-0.651306,0.686646,-0.24646
1480688155411538,0.208679,-0.651306,0.686646,-0.24646
1480688155446632,0.208679,-0.651306,0.686707,-0.24646
1480688155455154,0.208679,-0.651245,0.686707,-0.24646
1480688155470194,0.20874,-0.651245,0.686707,-0.24646
1480688155492754,0.208679,-0.651245,0.686707,-0.24646
1480688155515314,0.208679,-0.651245,0.686707,-0.24646
1480688155530354,0.208679,-0.651245,0.686707,-0.24646
1480688155561437,0.208679,-0.651245,0.686707,-0.24646
1480688155576477,0.208679,-0.651245,0.686768,-0.24646
1480688155598034,0.208679,-0.651245,0.686768,-0.24646
1480688155613075,0.20874,-0.651245,0.686707,-0.24646
1480688155636136,0.20874,-0.651245,0.686707,-0.24646
1480688155656691,0.20874,-0.651245,0.686707,-0.24646
1480688155673234,0.20874,-0.651245,0.686707,-0.24646
1480688155702813,0.20874,-0.651245,0.686707,-0.24646
1480688155723869,0.20874,-0.651245,0.686707,-0.24646
1480688155732893,0.20874,-0.651245,0.686707,-0.246399
1480688155755955,0.20874,-0.651245,0.686707,-0.24646
1480688155776508,0.20874,-0.651245,0.686707,-0.24646
1480688155793054,0.20874,-0.651245,0.686707,-0.24646
1480688155815613,0.20874,-0.651184,0.686768,-0.24646
1480688155836669,0.20874,-0.651184,0.686768,-0.24646
1480688155852712,0.20874,-0.651184,0.686768,-0.24646
1480688155875271,0.20874,-0.651184,0.686768,-0.24646
1480688155896327,0.208679,-0.651184,0.686768,-0.24646
1480688155912870,0.208679,-0.651184,0.686768,-0.24646
1480688155935431,0.208679,-0.651184,0.686768,-0.24646
1480688155956488,0.20874,-0.651184,0.686768,-0.24646
1480688155980551,0.20874,-0.651184,0.686768,-0.24646
1480688156003112,0.20874,-0.651184,0.686768,-0.246399
1480688156024168,0.20874,-0.651184,0.686768,-0.24646
1480688156040710,0.20874,-0.651184,0.686768,-0.24646
1480688156070291,0.20874,-0.651184,0.686768,-0.24646
1480688156085330,0.20874,-0.651184,0.686768,-0.24646
1480688156092851,0.20874,-0.651184,0.686768,-0.24646
1480688156115410,0.20874,-0.651184,0.686768,-0.24646
1480688156137975,0.20874,-0.651184,0.686768,-0.24646
1480688156153511,0.20874,-0.651184,0.686768,-0.24646
1480688156175570,0.20874,-0.651184,0.686768,-0.24646
1480688156197628,0.20874,-0.651184,0.686768,-0.24646
1480688156212168,0.20874,-0.651184,0.686768,-0.24646
1480688156235732,0.20874,-0.651184,0.686768,-0.24646
1480688156258792,0.208679,-0.651184,0.686768,-0.24646
1480688156272327,0.208679,-0.651184,0.686768,-0.24646
1480688156295890,0.208679,-0.651184,0.686768,-0.246521
1480688156317948,0.208679,-0.651184,0.686768,-0.246521
1480688156340509,0.208679,-0.651184,0.686768,-0.246521
1480688156363068,0.208679,-0.651184,0.686768,-0.24646
1480688156385127,0.208679,-0.651184,0.686768,-0.24646
1480688156393652,0.208679,-0.651184,0.686768,-0.24646
1480688156415207,0.208679,-0.651184,0.686768,-0.246521
1480688156437767,0.208679,-0.651184,0.686768,-0.246521
1480688156453309,0.208679,-0.651184,0.686768,-0.246521
1480688156476371,0.208679,-0.651184,0.686768,-0.24646
1480688156498430,0.208679,-0.651184,0.686768,-0.24646
1480688156512466,0.208679,-0.651184,0.686768,-0.24646
1480688156536028,0.208679,-0.651184,0.686768,-0.24646
1480688156558087,0.208679,-0.651184,0.686768,-0.246521
1480688156579142,0.208679,-0.651245,0.686707,-0.246521
1480688156595189,0.208679,-0.651245,0.686707,-0.246521
1480688156625266,0.208679,-0.651245,0.686707,-0.246521
1480688156641308,0.208679,-0.651245,0.686707,-0.246521
1480688156662866,0.208618,-0.651245,0.686707,-0.246521
1480688156677905,0.208618,-0.651245,0.686707,-0.246521
1480688156706484,0.208618,-0.651245,0.686707,-0.246521
1480688156715506,0.208618,-0.651245,0.686707,-0.246521
1480688156738066,0.208618,-0.651062,0.68689,-0.246521
1480688156760628,0.208618,-0.651062,0.68689,-0.246521
1480688156775165,0.208618,-0.651062,0.68689,-0.246521
1480688156797724,0.208618,-0.651062,0.68689,-0.246521
1480688156826301,0.208618,-0.651062,0.68689,-0.246582
1480688156835325,0.208557,-0.651001,0.686951,-0.246643
1480688156857885,0.208557,-0.651001,0.68689,-0.246643
1480688156878940,0.208557,-0.651001,0.68689,-0.246643
1480688156895987,0.208557,-0.651001,0.68689,-0.246643
1480688156919048,0.208557,-0.651001,0.68689,-0.246643
1480688156941106,0.208557,-0.651062,0.68689,-0.246643
1480688156955645,0.208618,-0.651001,0.68689,-0.246643
1480688156983719,0.208618,-0.651001,0.68689,-0.246643
1480688156998759,0.208557,-0.651001,0.68689,-0.246643
1480688157015303,0.208557,-0.651001,0.68689,-0.246643
1480688157037863,0.208557,-0.651062,0.68689,-0.246704
1480688157061429,0.208557,-0.651001,0.68689,-0.246704
1480688157088999,0.208557,-0.651062,0.68689,-0.246704
1480688157098023,0.208557,-0.651001,0.68689,-0.246704
1480688157120583,0.208557,-0.651001,0.68689,-0.246704
1480688157137127,0.208496,-0.651001,0.68689,-0.246704
1480688157157682,0.208557,-0.651001,0.68689,-0.246704
1480688157181745,0.208496,-0.651001,0.68689,-0.246704
1480688157201298,0.208496,-0.651062,0.68689,-0.246704
1480688157217842,0.208496,-0.651062,0.68689,-0.246704
1480688157240904,0.208496,-0.651001,0.68689,-0.246704
1480688157268977,0.208496,-0.651062,0.68689,-0.246704
1480688157278005,0.208557,-0.651062,0.68689,-0.246704
1480688157300561,0.208496,-0.65094,0.687012,-0.246704
1480688157314598,0.208496,-0.65094,0.687012,-0.246704
1480688157344181,0.208496,-0.65094,0.687012,-0.246704
1480688157360221,0.208496,-0.650879,0.687012,-0.246704
1480688157382781,0.208496,-0.650879,0.687012,-0.246704
1480688157397820,0.208496,-0.650879,0.687012,-0.246704
1480688157426396,0.208496,-0.650879,0.687012,-0.246704
1480688157436924,0.208435,-0.650696,0.687256,-0.246643
1480688157457980,0.208435,-0.650696,0.687256,-0.246643
1480688157481543,0.208496,-0.650696,0.687195,-0.246643
1480688157504102,0.208374,-0.650696,0.687317,-0.24646
1480688157525159,0.208313,-0.650818,0.687256,-0.246277
1480688157540700,0.208069,-0.650879,0.687378,-0.246155
1480688157561261,0.207825,-0.650879,0.6875,-0.245972
1480688157577801,0.20752,-0.65094,0.687561,-0.24585
1480688157600360,0.207214,-0.651001,0.687683,-0.245728
1480688157621414,0.20697,-0.65094,0.687805,-0.245728
1480688157637959,0.206665,-0.650696,0.688171,-0.245605
1480688157661023,0.206299,-0.650635,0.688354,-0.245422
1480688157683079,0.206055,-0.650757,0.688416,-0.245361
1480688157698620,0.205933,-0.650879,0.688293,-0.245239
1480688157728200,0.205933,-0.650879,0.688293,-0.245239
1480688157748753,0.205933,-0.650879,0.688354,-0.2453
1480688157757777,0.205933,-0.650879,0.688354,-0.2453
1480688157780337,0.205933,-0.650818,0.688354,-0.2453
1480688157801393,0.205872,-0.650818,0.688354,-0.2453
1480688157823957,0.205872,-0.650818,0.688354,-0.2453
1480688157840999,0.205872,-0.650818,0.688354,-0.2453
1480688157862055,0.205872,-0.650818,0.688354,-0.2453
1480688157878098,0.205933,-0.650818,0.688354,-0.2453
1480688157900155,0.205933,-0.650818,0.688354,-0.2453
1480688157922716,0.205933,-0.650818,0.688354,-0.2453
1480688157937757,0.205933,-0.650818,0.688416,-0.2453
1480688157967836,0.205872,-0.650757,0.688416,-0.2453
1480688157988892,0.205872,-0.650757,0.688416,-0.2453
1480688158012956,0.205872,-0.650757,0.688416,-0.2453
1480688158027997,0.205872,-0.650757,0.688416,-0.2453
1480688158049052,0.205872,-0.650757,0.688416,-0.2453
1480688158058577,0.205872,-0.650757,0.688416,-0.2453
1480688158080635,0.205872,-0.650757,0.688416,-0.2453
1480688158103195,0.205872,-0.650818,0.688416,-0.245361
1480688158125756,0.205872,-0.650818,0.688416,-0.245361
1480688158142301,0.205872,-0.650818,0.688416,-0.245361
1480688158163857,0.205872,-0.650757,0.688416,-0.2453
1480688158178396,0.205872,-0.650757,0.688416,-0.2453
1480688158200455,0.205872,-0.650757,0.688416,-0.2453
1480688158223015,0.205872,-0.650757,0.688416,-0.2453
1480688158237052,0.205872,-0.650757,0.688416,-0.245361
1480688158260618,0.205872,-0.650757,0.688416,-0.245361
1480688158283174,0.205872,-0.650757,0.688477,-0.245361
1480688158307238,0.205872,-0.650757,0.688477,-0.245361
1480688158321276,0.205872,-0.650757,0.688416,-0.245361
1480688158343836,0.205811,-0.650757,0.688416,-0.245361
1480688158357372,0.205811,-0.650757,0.688416,-0.245361
1480688158380433,0.205811,-0.650757,0.688416,-0.245361
1480688158402993,0.205811,-0.650757,0.688416,-0.245361
1480688158425553,0.205811,-0.650757,0.688416,-0.245361
1480688158440093,0.205811,-0.650757,0.688416,-0.245361
1480688158470674,0.205811,-0.650757,0.688416,-0.245361
1480688158491729,0.205811,-0.650757,0.688416,-0.245361
1480688158502256,0.205811,-0.650757,0.688416,-0.245422
1480688158522812,0.20575,-0.650757,0.688416,-0.245422
1480688158544871,0.20575,-0.650757,0.688416,-0.245422
1480688158560914,0.20575,-0.650757,0.688416,-0.245422
1480688158582973,0.20575,-0.650757,0.688416,-0.245422
1480688158605535,0.20575,-0.650757,0.688416,-0.245422
1480688158626588,0.20575,-0.650757,0.688416,-0.245483
1480688158643132,0.205688,-0.650818,0.688416,-0.245483
1480688158664187,0.205688,-0.650818,0.688416,-0.245483
1480688158681734,0.205688,-0.650818,0.688416,-0.245483
1480688158703292,0.205688,-0.650818,0.688354,-0.245483
1480688158731367,0.205688,-0.650818,0.688354,-0.245483
1480688158740892,0.205688,-0.650818,0.688354,-0.245483
1480688158762950,0.205688,-0.650818,0.688354,-0.245483
1480688158791527,0.205627,-0.650879,0.688354,-0.245544
1480688158802054,0.205627,-0.650879,0.688354,-0.245544
1480688158823110,0.205627,-0.650879,0.688354,-0.245544
1480688158846673,0.205627,-0.650879,0.688293,-0.245544
1480688158861713,0.205627,-0.650879,0.688293,-0.245544
1480688158888787,0.205627,-0.650879,0.688293,-0.245544
1480688158905328,0.205627,-0.650879,0.688293,-0.245544
1480688158920869,0.205627,-0.650879,0.688293,-0.245544
1480688158944935,0.205627,-0.65094,0.688293,-0.245544
1480688158965489,0.205627,-0.65094,0.688293,-0.245544
1480688158980529,0.205566,-0.65094,0.688232,-0.245544
1480688159003089,0.205566,-0.65094,0.688293,-0.245605
1480688159026150,0.205566,-0.65094,0.688293,-0.245605
1480688159040187,0.205566,-0.65094,0.688293,-0.245605
1480688159072774,0.205566,-0.65094,0.688293,-0.245605
1480688159091323,0.205566,-0.65094,0.688293,-0.245605
1480688159114385,0.205566,-0.65094,0.688232,-0.245605
1480688159124411,0.205566,-0.65094,0.688232,-0.245605
1480688159145468,0.205566,-0.65094,0.688232,-0.245605
1480688159159505,0.205566,-0.65094,0.688232,-0.245605
1480688159183067,0.205566,-0.65094,0.688232,-0.245605
1480688159213147,0.205566,-0.65094,0.688232,-0.245605
1480688159219665,0.205566,-0.651001,0.688232,-0.245605
1480688159242727,0.205505,-0.651001,0.688232,-0.245605
1480688159266289,0.205505,-0.651001,0.688232,-0.245667
1480688159281329,0.205505,-0.65094,0.688232,-0.245667
1480688159308902,0.205505,-0.651001,0.688232,-0.245667
1480688159326449,0.205505,-0.651001,0.688232,-0.245667
1480688159346502,0.205505,-0.651001,0.688171,-0.245605
1480688159370064,0.205505,-0.651001,0.688232,-0.245667
1480688159401148,0.205505,-0.651001,0.688171,-0.245667
1480688159414182,0.205505,-0.651001,0.688171,-0.245667
1480688159422706,0.205505,-0.651001,0.688171,-0.245667
1480688159445264,0.205505,-0.651001,0.688171,-0.245667
1480688159466320,0.205505,-0.651001,0.688171,-0.245667
1480688159483875,0.205505,-0.651001,0.688171,-0.245667
1480688159505425,0.205505,-0.651001,0.688171,-0.245667
1480688159526481,0.205444,-0.651001,0.688171,-0.245667
1480688159543526,0.205627,-0.651001,0.68811,-0.245789
1480688159565593,0.205811,-0.651001,0.687988,-0.245911
1480688159586641,0.205872,-0.651001,0.687988,-0.24585
1480688159610204,0.205872,-0.651001,0.687988,-0.24585
1480688159625243,0.205872,-0.651001,0.687988,-0.24585
1480688159656327,0.205872,-0.651062,0.687988,-0.24585
1480688159670367,0.205872,-0.651062,0.687988,-0.24585
1480688159701947,0.205933,-0.651062,0.687988,-0.24585
1480688159713979,0.205933,-0.651062,0.687927,-0.24585
1480688159724511,0.205933,-0.651062,0.687927,-0.245789
1480688159745563,0.205933,-0.651123,0.687927,-0.245789
1480688159775645,0.205688,-0.651245,0.687805,-0.24585
1480688159783164,0.205383,-0.651489,0.687683,-0.24585
1480688159805724,0.205139,-0.651733,0.687561,-0.24585
1480688159826280,0.204956,-0.652039,0.687317,-0.245789
1480688159842822,0.204712,-0.652283,0.687195,-0.245728
1480688159865383,0.204468,-0.652527,0.687073,-0.245728
1480688159887942,0.204224,-0.65271,0.686951,-0.245667
1480688159902982,0.204224,-0.65271,0.686951,-0.245728
1480688159933061,0.204224,-0.65271,0.686951,-0.245667
1480688159948102,0.204102,-0.652405,0.687256,-0.24585
1480688159970161,0.203979,-0.652161,0.6875,-0.24585
1480688159985702,0.203918,-0.652161,0.6875,-0.24585
1480688160007761,0.203979,-0.652344,0.687317,-0.245911
1480688160022299,0.203979,-0.652344,0.687256,-0.245972
1480688160045862,0.203979,-0.652344,0.687256,-0.245972
1480688160067921,0.204041,-0.6521,0.687439,-0.246033
1480688160081958,0.204224,-0.651855,0.687622,-0.246094
1480688160105520,0.204346,-0.651733,0.687683,-0.246155
1480688160127579,0.204346,-0.651733,0.687683,-0.246155
1480688160142118,0.204346,-0.651733,0.687683,-0.246155
1480688160166683,0.204346,-0.651733,0.687622,-0.246155
1480688160188241,0.204285,-0.651794,0.687622,-0.246155
1480688160208795,0.204346,-0.651794,0.687622,-0.246155
1480688160225840,0.204285,-0.651794,0.687622,-0.246155
1480688160247898,0.204285,-0.651794,0.687622,-0.246155
1480688160270459,0.204346,-0.651855,0.687561,-0.246155
1480688160285499,0.204346,-0.651855,0.687561,-0.246155
1480688160308059,0.204346,-0.651855,0.687561,-0.246155
1480688160322097,0.204346,-0.651855,0.687561,-0.246155
1480688160347168,0.204346,-0.651855,0.687561,-0.246155
1480688160369221,0.204346,-0.651855,0.687561,-0.246155
1480688160390780,0.204346,-0.651855,0.687561,-0.246155
1480688160405317,0.204346,-0.651855,0.687561,-0.246155
1480688160433894,0.204346,-0.651917,0.687561,-0.246155
1480688160448933,0.204285,-0.651917,0.6875,-0.246155
1480688160465478,0.204285,-0.651917,0.6875,-0.246155
1480688160488540,0.204285,-0.651917,0.6875,-0.246155
1480688160511098,0.204285,-0.651917,0.6875,-0.246155
1480688160527146,0.204285,-0.651917,0.6875,-0.246216
1480688160549201,0.204285,-0.651917,0.6875,-0.246216
1480688160576775,0.204285,-0.651917,0.6875,-0.246216
1480688160591312,0.204285,-0.651917,0.6875,-0.246216
1480688160615376,0.204285,-0.651917,0.6875,-0.246216
1480688160629414,0.204285,-0.651917,0.6875,-0.246216
1480688160646458,0.204285,-0.651917,0.6875,-0.246216
1480688160675537,0.204285,-0.651917,0.6875,-0.246216
1480688160689574,0.204285,-0.651917,0.6875,-0.246216
1480688160705617,0.204285,-0.651917,0.6875,-0.246216
1480688160727676,0.204285,-0.651917,0.6875,-0.246216
1480688160748730,0.204285,-0.651917,0.6875,-0.246216
1480688160765275,0.204285,-0.651917,0.6875,-0.246216
1480688160787836,0.204285,-0.651917,0.6875,-0.246216
1480688160810896,0.204285,-0.651978,0.6875,-0.246216
1480688160832955,0.204224,-0.651917,0.6875,-0.246216
1480688160847994,0.204285,-0.651917,0.6875,-0.246216
1480688160870556,0.204224,-0.651978,0.6875,-0.246216
1480688160893115,0.204285,-0.651978,0.687439,-0.246216
1480688160908656,0.204224,-0.651978,0.687439,-0.246216
1480688160930213,0.204224,-0.651978,0.687439,-0.246277
1480688160945254,0.204224,-0.651978,0.687439,-0.246277
1480688160968816,0.204224,-0.651978,0.687439,-0.246277
1480688160990374,0.204224,-0.651978,0.687439,-0.246216
1480688161004914,0.204224,-0.651978,0.687439,-0.246216
1480688161027973,0.204224,-0.651978,0.687439,-0.246216
1480688161050534,0.204224,-0.651978,0.687439,-0.246216
1480688161065573,0.204224,-0.651978,0.687439,-0.246277
1480688161089136,0.204224,-0.651978,0.687439,-0.246277
1480688161111195,0.204224,-0.651978,0.687439,-0.246277
1480688161125233,0.204224,-0.652039,0.687378,-0.246277
1480688161147792,0.204224,-0.652039,0.687378,-0.246277
1480688161170352,0.204224,-0.652039,0.687378,-0.246277
1480688161184891,0.204224,-0.652039,0.687378,-0.246277
1480688161207951,0.204224,-0.652039,0.687378,-0.246277
1480688161230512,0.204224,-0.652039,0.687378,-0.246277
1480688161244549,0.204224,-0.652039,0.687378,-0.246277
1480688161275633,0.204224,-0.652039,0.687378,-0.246277
1480688161290672,0.204163,-0.652039,0.687439,-0.246277
1480688161311226,0.204163,-0.651978,0.687439,-0.246277
1480688161328773,0.204163,-0.651978,0.687439,-0.246338
1480688161357850,0.204163,-0.651978,0.687439,-0.246338
1480688161378906,0.204163,-0.651978,0.687439,-0.246338
1480688161387931,0.204163,-0.651978,0.687439,-0.246338
1480688161410492,0.204163,-0.651978,0.687439,-0.246277
1480688161431547,0.204163,-0.651978,0.687439,-0.246277
1480688161448592,0.204163,-0.651978,0.687439,-0.246338
1480688161477670,0.204163,-0.651978,0.687439,-0.246338
1480688161498725,0.204163,-0.651978,0.687439,-0.246338
1480688161507749,0.204163,-0.652039,0.687378,-0.246338
1480688161530309,0.204163,-0.652039,0.687439,-0.246338
1480688161551365,0.204163,-0.652039,0.687378,-0.246338
1480688161567909,0.204163,-0.651978,0.687439,-0.246338
1480688161590471,0.204102,-0.651978,0.687439,-0.246338
1480688161612528,0.204102,-0.651978,0.687439,-0.246338
1480688161642608,0.204102,-0.651978,0.687439,-0.246338
1480688161657649,0.204102,-0.651978,0.687439,-0.246338
1480688161671184,0.204102,-0.651978,0.687439,-0.246338
1480688161687728,0.204102,-0.651978,0.687439,-0.246338
1480688161710788,0.204102,-0.651978,0.687439,-0.246338
1480688161731344,0.204102,-0.651978,0.687439,-0.246338
1480688161747887,0.204102,-0.651978,0.687439,-0.246338
1480688161777967,0.204102,-0.651978,0.687439,-0.246338
1480688161793008,0.204102,-0.651978,0.687439,-0.246338
1480688161807045,0.204102,-0.651978,0.687439,-0.246338
1480688161831108,0.204102,-0.651978,0.687439,-0.246338
1480688161853168,0.204102,-0.651978,0.687439,-0.246338
1480688161867707,0.204102,-0.651978,0.687439,-0.246338
1480688161891771,0.204163,-0.651978,0.687439,-0.246338
1480688161913328,0.204163,-0.651978,0.687439,-0.246338
1480688161935888,0.204163,-0.651978,0.687439,-0.246338
1480688161950928,0.204163,-0.651978,0.687439,-0.246338
1480688161972986,0.204102,-0.651978,0.687439,-0.246338
1480688161987024,0.204163,-0.651978,0.687439,-0.246338
1480688162010587,0.204163,-0.651978,0.687439,-0.246338
1480688162032645,0.204163,-0.651978,0.687439,-0.246338
1480688162047184,0.204163,-0.651978,0.687439,-0.246338
1480688162076767,0.204163,-0.651978,0.687439,-0.246338
1480688162092805,0.204102,-0.651978,0.687439,-0.246338
1480688162107343,0.204102,-0.651978,0.687439,-0.246338
1480688162130404,0.204102,-0.651978,0.687439,-0.246338
1480688162153967,0.204163,-0.651978,0.687439,-0.246338
1480688162167002,0.204163,-0.651978,0.687439,-0.246338
1480688162191066,0.204163,-0.651978,0.687439,-0.246338
1480688162213125,0.204163,-0.651978,0.687439,-0.246338
1480688162233679,0.204163,-0.651978,0.687439,-0.246338
1480688162263759,0.204163,-0.651978,0.687439,-0.246338
1480688162272783,0.204163,-0.651978,0.687439,-0.246338
1480688162294842,0.204163,-0.651917,0.6875,-0.246338
1480688162296346,0.204102,-0.651917,0.6875,-0.246338
1480688162315898,0.204102,-0.651917,0.6875,-0.246338
1480688162340964,0.204102,-0.651917,0.6875,-0.246399
1480688162364026,0.204102,-0.651917,0.6875,-0.246399
1480688162376060,0.204102,-0.651855,0.6875,-0.246399
1480688162398117,0.204102,-0.651855,0.687561,-0.246399
1480688162420677,0.204102,-0.651855,0.687561,-0.246399
1480688162452260,0.204102,-0.651855,0.6875,-0.246399
1480688162465797,0.204102,-0.651917,0.6875,-0.246399
1480688162489360,0.204102,-0.651917,0.6875,-0.246338
1480688162495877,0.204102,-0.651917,0.6875,-0.246338
1480688162518436,0.204102,-0.651917,0.6875,-0.246338
1480688162544005,0.204163,-0.651917,0.6875,-0.246338
1480688162555538,0.204163,-0.651917,0.6875,-0.246338
1480688162578095,0.204163,-0.651917,0.6875,-0.246338
1480688162618704,0.204102,-0.651917,0.6875,-0.246338
1480688162621712,0.204102,-0.651917,0.6875,-0.246338
1480688162638256,0.204102,-0.651917,0.6875,-0.246399
1480688162660816,0.204102,-0.651917,0.6875,-0.246399
1480688162675856,0.204102,-0.651917,0.6875,-0.246399
1480688162701423,0.204102,-0.651917,0.6875,-0.246399
1480688162732506,0.204041,-0.651917,0.6875,-0.246399
1480688162744538,0.204041,-0.651917,0.6875,-0.246399
1480688162765594,0.204041,-0.651917,0.6875,-0.246399
1480688162788656,0.204041,-0.651917,0.6875,-0.246399
1480688162799685,0.204041,-0.651917,0.6875,-0.246399
1480688162821242,0.204041,-0.651917,0.6875,-0.246399
1480688162840794,0.204041,-0.651917,0.6875,-0.246399
1480688162863355,0.204041,-0.651917,0.6875,-0.246399
1480688162878394,0.204041,-0.651917,0.6875,-0.246399
1480688162902460,0.204041,-0.651917,0.6875,-0.246399
1480688162915994,0.204041,-0.651917,0.6875,-0.246399
1480688162938053,0.204041,-0.651855,0.6875,-0.246399
1480688162970137,0.204041,-0.651917,0.6875,-0.246399
1480688162983173,0.204041,-0.651917,0.6875,-0.24646
1480688163001221,0.204041,-0.651917,0.6875,-0.24646
1480688163025285,0.204041,-0.651917,0.6875,-0.24646
1480688163043333,0.204041,-0.651917,0.6875,-0.246399
1480688163065892,0.204163,-0.652039,0.687378,-0.246399
1480688163080934,0.204285,-0.652161,0.687195,-0.246521
1480688163098479,0.204346,-0.6521,0.687134,-0.246704
1480688163127556,0.204285,-0.651733,0.687439,-0.246887
1480688163140591,0.204163,-0.651733,0.6875,-0.246704
1480688163163151,0.204285,-0.6521,0.687195,-0.246643
1480688163178190,0.204407,-0.6521,0.687073,-0.246765
1480688163200751,0.204407,-0.651978,0.687195,-0.246826
1480688163217295,0.204407,-0.651978,0.687134,-0.246826
1480688163241363,0.204407,-0.651978,0.687134,-0.246826
1480688163260911,0.204407,-0.651978,0.687134,-0.246826
1480688163278458,0.204407,-0.651978,0.687134,-0.246826
1480688163303024,0.204407,-0.651978,0.687134,-0.246826
1480688163329093,0.204407,-0.651978,0.687134,-0.246826
1480688163337114,0.204407,-0.651978,0.687134,-0.246826
1480688163358170,0.204407,-0.651978,0.687195,-0.246887
1480688163380730,0.204407,-0.651978,0.687195,-0.246887
1480688163399279,0.204407,-0.651978,0.687195,-0.246887
1480688163427355,0.204407,-0.651978,0.687195,-0.246887
1480688163442897,0.204407,-0.651978,0.687134,-0.246887
1480688163457434,0.204407,-0.651978,0.687134,-0.246887
1480688163478490,0.204346,-0.651978,0.687134,-0.246887
1480688163509071,0.204346,-0.651978,0.687134,-0.246887
1480688163518095,0.204346,-0.651978,0.687134,-0.246887
1480688163541156,0.204407,-0.651978,0.687134,-0.246887
1480688163560708,0.204407,-0.651978,0.687134,-0.246887
1480688163586777,0.204407,-0.651978,0.687134,-0.246826
1480688163611343,0.204407,-0.652039,0.687134,-0.246887
1480688163628889,0.204407,-0.652039,0.687134,-0.246887
1480688163637412,0.204468,-0.652222,0.68689,-0.246948
1480688163660975,0.20459,-0.652405,0.686646,-0.24707
1480688163680526,0.204834,-0.652466,0.686523,-0.247131
1480688163704591,0.204956,-0.652466,0.686401,-0.247253
1480688163718127,0.205139,-0.652405,0.68634,-0.247375
1480688163741689,0.205139,-0.652466,0.68634,-0.247375
1480688163774778,0.205139,-0.652466,0.68634,-0.247375
1480688163780795,0.205139,-0.652405,0.68634,-0.247375
1480688163800847,0.205139,-0.652405,0.68634,-0.247437
1480688163818895,0.2052,-0.652527,0.686218,-0.247375
1480688163838447,0.2052,-0.652527,0.686218,-0.247375
1480688163863514,0.2052,-0.652527,0.686218,-0.247375
1480688163886074,0.2052,-0.652527,0.686218,-0.247375
1480688163898107,0.205139,-0.652527,0.686218,-0.247437
1480688163929690,0.205139,-0.652527,0.686218,-0.247437
1480688163943227,0.2052,-0.652588,0.686218,-0.247375
1480688163958768,0.2052,-0.652588,0.686157,-0.247437
1480688163980825,0.205139,-0.652588,0.686218,-0.247437
1480688164003385,0.205139,-0.652588,0.686218,-0.247437
1480688164019428,0.205139,-0.652527,0.686218,-0.247437
1480688164041988,0.205139,-0.652527,0.686218,-0.247437
1480688164064548,0.205322,-0.652344,0.686279,-0.247681
1480688164078084,0.205444,-0.652039,0.686462,-0.247742
1480688164108164,0.205444,-0.652039,0.686462,-0.247742
1480688164140249,0.205688,-0.652161,0.686279,-0.247803
1480688164142760,0.205933,-0.652283,0.686035,-0.247864
1480688164162308,0.206238,-0.652222,0.686035,-0.247925
1480688164186372,0.206421,-0.651978,0.686157,-0.248108
1480688164198404,0.206665,-0.651672,0.686279,-0.248169
1480688164220964,0.206848,-0.651489,0.686462,-0.248169
1480688164243022,0.207153,-0.651184,0.686646,-0.248169
1480688164258065,0.207397,-0.650818,0.68689,-0.248047
1480688164280623,0.207703,-0.650513,0.687195,-0.247864
1480688164303183,0.208069,-0.650024,0.687683,-0.247559
1480688164325744,0.208374,-0.649536,0.688171,-0.247253
1480688164340785,0.20874,-0.649231,0.688477,-0.246887
1480688164374873,0.208984,-0.649109,0.68866,-0.246521
1480688164396431,0.209167,-0.649048,0.688782,-0.246094
1480688164418489,0.209106,-0.649109,0.688904,-0.245789
1480688164423002,0.208923,-0.649231,0.688843,-0.245544
1480688164441050,0.208679,-0.649475,0.688782,-0.245422
1480688164461104,0.208313,-0.649902,0.688538,-0.245422
1480688164483161,0.207825,-0.650269,0.688232,-0.245483
1480688164499705,0.207275,-0.650635,0.687988,-0.245605
1480688164520761,0.206726,-0.65094,0.687805,-0.245789
1480688164543321,0.20636,-0.651062,0.687805,-0.245911
1480688164561370,0.206299,-0.651062,0.687805,-0.245972
1480688164583930,0.206177,-0.650391,0.688416,-0.246216
1480688164603482,0.206238,-0.649841,0.688904,-0.246094
1480688164625540,0.206482,-0.649597,0.689026,-0.246094
1480688164648099,0.206909,-0.649597,0.688965,-0.246033
1480688164663140,0.207458,-0.649658,0.688782,-0.24585
1480688164696228,0.207886,-0.649719,0.68866,-0.24585
1480688164708761,0.208313,-0.649536,0.688721,-0.245667
1480688164723301,0.208557,-0.649353,0.688843,-0.245667
1480688164741349,0.208618,-0.649231,0.688904,-0.245789
1480688164760900,0.208618,-0.649048,0.689026,-0.245972
1480688164783459,0.208557,-0.649048,0.689026,-0.245972
1480688164801008,0.208557,-0.649048,0.689026,-0.245972
1480688164820558,0.208557,-0.649048,0.689026,-0.245972
1480688164843118,0.208557,-0.648987,0.689026,-0.245972
1480688164861166,0.208557,-0.648987,0.689026,-0.245972
1480688164880718,0.208557,-0.648987,0.689026,-0.245972
1480688164906787,0.208435,-0.648804,0.689148,-0.246277
1480688164925838,0.208435,-0.648621,0.68927,-0.246582
1480688164948398,0.208496,-0.648376,0.689331,-0.246887
1480688164970964,0.208618,-0.648193,0.689392,-0.247131
1480688164987002,0.20874,-0.64801,0.689331,-0.24762
1480688165008058,0.208862,-0.647827,0.68927,-0.248352
1480688165023097,0.209167,-0.647644,0.689026,-0.249023
1480688165041145,0.209717,-0.647522,0.688782,-0.249634
1480688165060699,0.210144,-0.647156,0.688721,-0.250366
1480688165083256,0.210571,-0.646484,0.688965,-0.251038
1480688165101305,0.210815,-0.646118,0.689087,-0.251465
1480688165120857,0.210938,-0.646484,0.68866,-0.251526
1480688165160463,0.21106,-0.647339,0.687866,-0.251465
1480688165162469,0.211182,-0.647949,0.687256,-0.251465
1480688165183524,0.211182,-0.647888,0.687317,-0.251465
1480688165205583,0.210999,-0.647705,0.687561,-0.251465
1480688165225636,0.210632,-0.647278,0.688049,-0.251465
1480688165242180,0.210327,-0.647095,0.688354,-0.251465
1480688165273764,0.209961,-0.647095,0.688416,-0.251465
1480688165281283,0.209656,-0.6474,0.688232,-0.251404
1480688165302840,0.209473,-0.647705,0.688049,-0.251404
1480688165323397,0.209229,-0.647766,0.688049,-0.251404
1480688165345955,0.209045,-0.647644,0.688232,-0.251343
1480688165361999,0.208984,-0.647644,0.688232,-0.251343
1480688165390575,0.208984,-0.647644,0.688293,-0.251343
1480688165405614,0.208984,-0.647644,0.688293,-0.251343
1480688165422159,0.208984,-0.647644,0.688293,-0.251343
1480688165443715,0.208984,-0.647644,0.688293,-0.251343
1480688165465774,0.208984,-0.647583,0.688293,-0.251343
1480688165485327,0.208984,-0.647583,0.688293,-0.251343
1480688165506382,0.208984,-0.647583,0.688293,-0.251404
1480688165525938,0.208923,-0.647583,0.688293,-0.251404
1480688165543481,0.208923,-0.647583,0.688293,-0.251404
1480688165563040,0.208923,-0.647949,0.687988,-0.251343
1480688165596121,0.208862,-0.648132,0.687866,-0.251343
1480688165603641,0.208923,-0.648071,0.687866,-0.251343
1480688165647758,0.208923,-0.648132,0.687866,-0.251343
1480688165650265,0.208679,-0.648071,0.687988,-0.251282
1480688165663800,0.208435,-0.648132,0.688049,-0.25116
1480688165683352,0.208191,-0.648254,0.687988,-0.251099
1480688165713432,0.20813,-0.648254,0.687988,-0.251099
1480688165723460,0.20813,-0.648254,0.687988,-0.251099
1480688165743515,0.20813,-0.648254,0.687988,-0.251099
1480688165765572,0.208191,-0.648254,0.687988,-0.251099
1480688165783620,0.208191,-0.648254,0.687988,-0.251099
1480688165806179,0.20813,-0.648254,0.687988,-0.251099
1480688165825732,0.208252,-0.648315,0.687927,-0.251221
1480688165844782,0.208252,-0.648315,0.687927,-0.251221
1480688165863423,0.208252,-0.648315,0.687927,-0.251221
1480688165885982,0.208496,-0.648438,0.687683,-0.251221
1480688165917065,0.208801,-0.648743,0.687256,-0.251465
1480688165923082,0.209106,-0.649109,0.686646,-0.251831
1480688165947145,0.209473,-0.64917,0.68634,-0.252136
1480688165971210,0.209595,-0.649048,0.68634,-0.25238
1480688165984243,0.209534,-0.648987,0.686462,-0.25238
1480688166005801,0.209534,-0.648987,0.686462,-0.252441
1480688166023850,0.209534,-0.64917,0.686279,-0.252441
1480688166043401,0.209534,-0.64917,0.686279,-0.252441
1480688166073482,0.209534,-0.64917,0.686279,-0.252441
1480688166085513,0.209351,-0.648926,0.686523,-0.252441
1480688166104564,0.209229,-0.648865,0.686707,-0.252319
1480688166125620,0.209229,-0.648865,0.686707,-0.25238
1480688166143668,0.209167,-0.648621,0.68689,-0.252441
1480688166163220,0.209167,-0.648682,0.686829,-0.252441
1480688166185796,0.20929,-0.648926,0.686523,-0.252502
1480688166203828,0.209473,-0.649109,0.686279,-0.252502
1480688166224885,0.209473,-0.649109,0.68634,-0.252502
1480688166248948,0.209473,-0.649109,0.68634,-0.252502
1480688166271006,0.209473,-0.648926,0.686462,-0.252563
1480688166299582,0.209534,-0.648743,0.686584,-0.252625
1480688166305598,0.209534,-0.648804,0.686584,-0.252625
1480688166324148,0.209473,-0.648804,0.686584,-0.252625
1480688166351220,0.209473,-0.648804,0.686523,-0.252686
1480688166365758,0.209473,-0.648804,0.686584,-0.252686
1480688166383806,0.209473,-0.648804,0.686584,-0.252686
1480688166404862,0.209473,-0.648804,0.686584,-0.252686
1480688166425921,0.209473,-0.648804,0.686584,-0.252686
1480688166445470,0.209473,-0.648804,0.686523,-0.252686
1480688166464521,0.209473,-0.648804,0.686523,-0.252686
1480688166485577,0.209473,-0.648804,0.686523,-0.252686
1480688166503625,0.209473,-0.648804,0.686523,-0.252686
1480688166528190,0.209473,-0.648804,0.686523,-0.252686
1480688166545737,0.209473,-0.648804,0.686523,-0.252686
1480688166572308,0.209473,-0.648804,0.686523,-0.252686
1480688166586345,0.209473,-0.648804,0.686523,-0.252686
1480688166605898,0.209473,-0.648804,0.686523,-0.252686
1480688166630963,0.209473,-0.648804,0.686523,-0.252686
1480688166646004,0.209473,-0.648804,0.686523,-0.252686
1480688166665555,0.209473,-0.648804,0.686523,-0.252686
1480688166685608,0.209473,-0.648804,0.686523,-0.252686
1480688166706664,0.209473,-0.648804,0.686523,-0.252686
1480688166727220,0.209473,-0.648804,0.686523,-0.252686
1480688166744265,0.209412,-0.648804,0.686523,-0.252686
1480688166766324,0.209473,-0.648804,0.686523,-0.252686
1480688166785875,0.209473,-0.648804,0.686523,-0.252686
1480688166803422,0.209412,-0.648804,0.686523,-0.252686
1480688166825987,0.209412,-0.648804,0.686523,-0.252686
1480688166847037,0.209412,-0.648804,0.686584,-0.252747
1480688166876119,0.209412,-0.648804,0.686523,-0.252747
1480688166893664,0.209412,-0.648804,0.686523,-0.252747
1480688166905694,0.209412,-0.648804,0.686523,-0.252747
1480688166929758,0.209412,-0.648804,0.686523,-0.252747
1480688166946803,0.209412,-0.648804,0.686523,-0.252747
1480688166965854,0.209412,-0.648804,0.686523,-0.252747
1480688166988414,0.209412,-0.648804,0.686523,-0.252747
1480688167019496,0.209412,-0.648804,0.686523,-0.252747
1480688167026015,0.209412,-0.648804,0.686523,-0.252747
1480688167048073,0.209412,-0.648804,0.686523,-0.252747
1480688167066121,0.209412,-0.648804,0.686523,-0.252747
1480688167085672,0.209351,-0.648804,0.686523,-0.252747
1480688167111240,0.209351,-0.648804,0.686523,-0.252747
1480688167126782,0.209351,-0.648804,0.686523,-0.252808
1480688167147336,0.209351,-0.648804,0.686523,-0.252808
1480688167168392,0.209351,-0.648804,0.686523,-0.252808
1480688167185939,0.209351,-0.648804,0.686523,-0.252808
1480688167206995,0.209351,-0.648804,0.686523,-0.252808
1480688167237075,0.20929,-0.648804,0.686523,-0.252808
1480688167260138,0.20929,-0.648804,0.686523,-0.252869
1480688167273172,0.20929,-0.648804,0.686523,-0.252869
1480688167288211,0.20929,-0.648804,0.686523,-0.252869
1480688167306260,0.20929,-0.648804,0.686523,-0.252869
1480688167327315,0.20929,-0.648804,0.686523,-0.252869
1480688167348371,0.20929,-0.648865,0.686523,-0.252869
1480688167380456,0.209229,-0.648804,0.686523,-0.252869
1480688167386974,0.209229,-0.648865,0.686523,-0.252869
1480688167409035,0.209229,-0.648865,0.686523,-0.252869
1480688167426081,0.20929,-0.648865,0.686462,-0.252869
1480688167447134,0.20929,-0.648865,0.686462,-0.252869
1480688167468189,0.209106,-0.648743,0.686584,-0.25293
1480688167486238,0.208923,-0.648621,0.686768,-0.252991
1480688167513310,0.208923,-0.648621,0.686768,-0.252991
1480688167529854,0.208862,-0.648621,0.686768,-0.252991
1480688167546398,0.208862,-0.648621,0.686768,-0.252991
1480688167568457,0.208862,-0.648621,0.686768,-0.253052
1480688167588009,0.208862,-0.648621,0.686768,-0.253052
1480688167606558,0.208862,-0.648621,0.686768,-0.253052
1480688167629118,0.208862,-0.648621,0.686768,-0.253052
1480688167651678,0.208862,-0.648621,0.686768,-0.253052
1480688167670729,0.208801,-0.648621,0.686768,-0.253052
1480688167688776,0.208862,-0.648621,0.686768,-0.253052
1480688167708328,0.208862,-0.648621,0.686768,-0.253052
1480688167727880,0.208862,-0.648621,0.686768,-0.253052
1480688167748941,0.208801,-0.648621,0.686768,-0.253052
1480688167767988,0.208801,-0.648621,0.686707,-0.253052
1480688167798068,0.208801,-0.648621,0.686768,-0.253052
1480688167809097,0.208801,-0.648621,0.686768,-0.253052
1480688167828148,0.208801,-0.648621,0.686768,-0.253052
1480688167846195,0.208801,-0.648621,0.686768,-0.253113
1480688167870260,0.208801,-0.648621,0.686768,-0.253113
1480688167888307,0.208801,-0.648621,0.686768,-0.253113
1480688167910866,0.208801,-0.648621,0.686768,-0.253113
1480688167928915,0.208801,-0.648621,0.686768,-0.253113
1480688167957491,0.208801,-0.648621,0.686707,-0.253113
1480688167978045,0.208801,-0.648682,0.686707,-0.253113
1480688167989076,0.208801,-0.648682,0.686707,-0.253113
1480688168025172,0.20874,-0.648682,0.686707,-0.253113
1480688168028680,0.20874,-0.648682,0.686707,-0.253113
1480688168048734,0.20874,-0.648682,0.686707,-0.253113
1480688168068286,0.20874,-0.648682,0.686707,-0.253113
1480688168090846,0.20874,-0.648682,0.686707,-0.253113
1480688168109397,0.20874,-0.648682,0.686707,-0.253113
1480688168145994,0.20874,-0.648682,0.686707,-0.253174
1480688168148499,0.20874,-0.648682,0.686707,-0.253174
1480688168168553,0.208679,-0.648682,0.686707,-0.253174
1480688168191113,0.20874,-0.648682,0.686707,-0.253174
1480688168214174,0.208679,-0.648682,0.686707,-0.253174
1480688168228712,0.208679,-0.648682,0.686707,-0.253174
1480688168259295,0.208679,-0.648682,0.686707,-0.253174
1480688168274334,0.208801,-0.648682,0.686584,-0.253296
1480688168304414,0.208801,-0.648682,0.686584,-0.253296
1480688168309427,0.208801,-0.648682,0.686584,-0.253296
1480688168330483,0.208801,-0.648682,0.686584,-0.253296
1480688168348531,0.208801,-0.648682,0.686584,-0.253296
1480688168370088,0.208801,-0.648682,0.686584,-0.253296
1480688168393651,0.208801,-0.648743,0.686584,-0.253296
1480688168408691,0.208923,-0.648682,0.686523,-0.253418
1480688168444786,0.209167,-0.648682,0.686462,-0.25354
1480688168450803,0.209351,-0.648682,0.686279,-0.253601
1480688168469853,0.209595,-0.648865,0.686035,-0.253845
1480688168491913,0.209656,-0.648804,0.685913,-0.25415
1480688168513469,0.209778,-0.648804,0.685791,-0.254395
1480688168528509,0.2099,-0.648987,0.685547,-0.254517
1480688168557588,0.210022,-0.649231,0.685242,-0.254517
1480688168572125,0.210266,-0.649475,0.684998,-0.254517
1480688168588671,0.210571,-0.649597,0.684753,-0.254517
1480688168612238,0.210815,-0.649475,0.684814,-0.254578
1480688168630781,0.210815,-0.64917,0.685059,-0.254639
1480688168648829,0.210754,-0.648926,0.685303,-0.2547
1480688168670888,0.210815,-0.648682,0.685425,-0.254822
1480688168697960,0.210815,-0.648743,0.685425,-0.254822
1480688168716008,0.210815,-0.648743,0.685425,-0.254822
1480688168732051,0.210815,-0.648743,0.685364,-0.254822
1480688168758120,0.210815,-0.648621,0.685486,-0.254822
1480688168768648,0.210754,-0.648499,0.685608,-0.254883
1480688168792717,0.210754,-0.648254,0.685791,-0.254944
1480688168810762,0.210693,-0.648193,0.685913,-0.254944
1480688168834824,0.210693,-0.648193,0.685852,-0.255005
1480688168858888,0.210693,-0.648193,0.685852,-0.254944
1480688168870920,0.210693,-0.648193,0.685852,-0.254944
1480688168888968,0.210693,-0.648193,0.685852,-0.255005
1480688168911027,0.210693,-0.648193,0.685852,-0.255005
1480688168930579,0.210693,-0.648193,0.685852,-0.255005
1480688168949136,0.210693,-0.648193,0.685852,-0.255005
1480688168975707,0.210693,-0.648193,0.685852,-0.255005
1480688169001275,0.210693,-0.648193,0.685852,-0.255005
1480688169015814,0.210693,-0.648193,0.685852,-0.255005
1480688169038875,0.210693,-0.648254,0.685852,-0.255005
1480688169059433,0.210632,-0.648254,0.685852,-0.255005
1480688169068453,0.210632,-0.648254,0.685852,-0.255005
1480688169091515,0.210632,-0.648254,0.685852,-0.255005
1480688169113072,0.210693,-0.648254,0.685852,-0.255005
1480688169127611,0.210693,-0.648254,0.685791,-0.255005
1480688169150170,0.210449,-0.648193,0.685913,-0.255127
1480688169178746,0.210205,-0.648071,0.686096,-0.255127
1480688169196795,0.209961,-0.647888,0.68634,-0.255066
1480688169210330,0.209595,-0.647766,0.686584,-0.255127
1480688169231386,0.209167,-0.647583,0.68689,-0.255127
1480688169247930,0.208801,-0.647339,0.687195,-0.255188
1480688169276506,0.208374,-0.647156,0.6875,-0.255127
1480688169300069,0.207947,-0.647339,0.6875,-0.255127
1480688169308595,0.208008,-0.647522,0.687439,-0.2547
1480688169330650,0.207947,-0.647949,0.687134,-0.254456
1480688169351205,0.207947,-0.648315,0.686829,-0.254395
1480688169367248,0.207947,-0.648315,0.686829,-0.254395
1480688169390310,0.207886,-0.648315,0.686829,-0.254395
1480688169412869,0.207886,-0.648315,0.686829,-0.254395
1480688169435931,0.207825,-0.648132,0.687012,-0.254456
1480688169450469,0.207825,-0.648132,0.687012,-0.254456
1480688169479045,0.207825,-0.648132,0.687012,-0.254395
1480688169501605,0.207825,-0.648132,0.687012,-0.254395
1480688169511130,0.207886,-0.648132,0.687012,-0.254395
1480688169532688,0.207825,-0.648132,0.687012,-0.254395
1480688169553743,0.207703,-0.648315,0.686951,-0.254272
1480688169577808,0.207458,-0.648438,0.687012,-0.253967
1480688169593351,0.207397,-0.648804,0.68689,-0.25354
1480688169615408,0.207458,-0.649414,0.686462,-0.253052
1480688169637968,0.20752,-0.649963,0.686035,-0.252625
1480688169669552,0.20752,-0.650391,0.68573,-0.252441
1480688169673563,0.20752,-0.650391,0.68573,-0.252441
1480688169692115,0.20752,-0.650391,0.68573,-0.252441
1480688169712667,0.207397,-0.65033,0.685791,-0.252441
1480688169727205,0.207397,-0.650269,0.685852,-0.252441
1480688169756282,0.207397,-0.650269,0.685852,-0.252441
1480688169772825,0.207397,-0.650269,0.685852,-0.252441
1480688169787365,0.207397,-0.650269,0.685852,-0.252441
1480688169818448,0.207397,-0.650269,0.685852,-0.252441
1480688169832987,0.20752,-0.650085,0.685974,-0.252625
1480688169854044,0.207764,-0.649902,0.685974,-0.252808
1480688169870085,0.208069,-0.649902,0.685852,-0.25293
1480688169900165,0.208191,-0.649658,0.685913,-0.253113
1480688169913700,0.208252,-0.649414,0.686096,-0.253357
1480688169930247,0.208252,-0.649109,0.686279,-0.253601
1480688169959323,0.208313,-0.648865,0.686401,-0.253845
1480688169973861,0.208435,-0.648621,0.686523,-0.253967
1480688169992414,0.208435,-0.648621,0.686523,-0.253967
1480688170012965,0.208435,-0.648682,0.686523,-0.253967
1480688170034021,0.208618,-0.648743,0.68634,-0.254028
1480688170056582,0.208862,-0.648743,0.686279,-0.254089
1480688170073125,0.208862,-0.648682,0.686279,-0.254089
1480688170093683,0.208862,-0.648682,0.686279,-0.254089
1480688170110223,0.208862,-0.648682,0.686279,-0.254089
1480688170132783,0.208862,-0.648682,0.686279,-0.254089
1480688170155344,0.208862,-0.648743,0.686279,-0.254089
1480688170170383,0.208862,-0.648743,0.686279,-0.254089
1480688170192446,0.208862,-0.648743,0.686218,-0.254089
1480688170213999,0.208862,-0.648743,0.686279,-0.25415
1480688170230543,0.208862,-0.648743,0.686218,-0.254089
1480688170253103,0.208984,-0.648926,0.686096,-0.253906
1480688170273658,0.209045,-0.649109,0.686035,-0.253723
1480688170290706,0.209106,-0.649292,0.685852,-0.25354
1480688170312762,0.209229,-0.649475,0.685669,-0.253479
1480688170335824,0.209534,-0.649658,0.685425,-0.253418
1480688170365402,0.209778,-0.64978,0.685242,-0.253418
1480688170372923,0.2099,-0.649841,0.685059,-0.253601
1480688170396487,0.210205,-0.650085,0.684631,-0.253784
1480688170410522,0.210693,-0.65033,0.684143,-0.254211
1480688170440100,0.211609,-0.650452,0.683533,-0.254761
1480688170455642,0.212708,-0.650452,0.682861,-0.255554
1480688170476197,0.213745,-0.650269,0.682434,-0.256409
1480688170498757,0.214539,-0.649841,0.682312,-0.257263
1480688170522821,0.215149,-0.649231,0.682373,-0.257935
1480688170529840,0.215637,-0.64856,0.682617,-0.258667
1480688170552901,0.215942,-0.648193,0.682434,-0.259766
1480688170575461,0.216309,-0.647461,0.682373,-0.261475
1480688170590502,0.217102,-0.646912,0.681946,-0.263245
1480688170612559,0.218323,-0.646729,0.681091,-0.264954
1480688170635119,0.219482,-0.646057,0.680664,-0.266724
1480688170658683,0.220276,-0.644775,0.680908,-0.268616
1480688170680240,0.220886,-0.643066,0.68158,-0.270508
1480688170695280,0.221375,-0.641418,0.682312,-0.272095
1480688170709817,0.221924,-0.640076,0.682678,-0.273865
1480688170732881,0.222534,-0.638367,0.683167,-0.276123
1480688170756947,0.223389,-0.636719,0.683533,-0.278381
1480688170778001,0.224609,-0.635437,0.683533,-0.280151
1480688170793040,0.22583,-0.634216,0.683838,-0.281433
1480688170822618,0.226746,-0.632996,0.684204,-0.282349
1480688170843673,0.227173,-0.631958,0.684814,-0.282959
1480688170860218,0.227356,-0.631165,0.685303,-0.283386
1480688170875272,0.227417,-0.630676,0.685425,-0.284058
1480688170896314,0.227417,-0.629822,0.685852,-0.284912
1480688170912857,0.227661,-0.629089,0.686096,-0.285767
1480688170935418,0.228271,-0.628662,0.685974,-0.286438
1480688170956474,0.228882,-0.628296,0.685852,-0.287231
1480688170980037,0.229309,-0.62793,0.685669,-0.288086
1480688170995076,0.229858,-0.627502,0.685608,-0.288818
1480688171023653,0.230286,-0.626892,0.685669,-0.289551
1480688171032676,0.230713,-0.626343,0.68573,-0.290222
1480688171055237,0.231018,-0.625549,0.686035,-0.290955
1480688171076292,0.231262,-0.624878,0.68634,-0.291565
1480688171092836,0.231567,-0.624451,0.686462,-0.291931
1480688171122917,0.231934,-0.624268,0.686462,-0.292053
1480688171137957,0.231934,-0.624207,0.686462,-0.292053
1480688171152996,0.231934,-0.624207,0.686462,-0.292053
1480688171175556,0.231812,-0.624023,0.686646,-0.292175
1480688171197615,0.231812,-0.623535,0.687012,-0.292358
1480688171212654,0.231812,-0.623535,0.687012,-0.292358
1480688171235215,0.231812,-0.623474,0.687012,-0.292603
1480688171256271,0.231812,-0.62323,0.686951,-0.293091
1480688171273818,0.231934,-0.622986,0.68689,-0.293762
1480688171295375,0.232178,-0.622681,0.686829,-0.294312
1480688171318938,0.232422,-0.622498,0.686707,-0.294739
1480688171332976,0.23291,-0.622742,0.686157,-0.295105
1480688171355536,0.233154,-0.622498,0.685974,-0.295837
1480688171378095,0.233459,-0.62207,0.685974,-0.29657
1480688171393135,0.234131,-0.621765,0.685852,-0.296936
1480688171422715,0.234558,-0.62146,0.685913,-0.297241
1480688171445275,0.234619,-0.621033,0.686096,-0.297485
1480688171452292,0.23468,-0.620972,0.686035,-0.297791
1480688171475354,0.234619,-0.620972,0.685852,-0.298218
1480688171498415,0.234802,-0.620789,0.68573,-0.298767
1480688171518971,0.235168,-0.620605,0.685547,-0.299316
1480688171543034,0.23584,-0.620422,0.685181,-0.299927
1480688171565092,0.236328,-0.620117,0.68512,-0.300415
1480688171586650,0.236267,-0.620178,0.684937,-0.300659
1480688171595172,0.236328,-0.620361,0.684937,-0.300232
1480688171617732,0.235901,-0.6203,0.685425,-0.299561
1480688171632271,0.235107,-0.620056,0.686279,-0.298767
1480688171656837,0.233887,-0.619751,0.687317,-0.297913
1480688171677891,0.232483,-0.619507,0.688721,-0.296387
1480688171700452,0.230896,-0.619873,0.690186,-0.293335
1480688171715493,0.229126,-0.621094,0.691528,-0.28894
1480688171738554,0.22699,-0.62323,0.692444,-0.283813
1480688171775652,0.224426,-0.626099,0.692749,-0.278809
1480688171778158,0.22168,-0.62915,0.692627,-0.274353
1480688171799215,0.219604,-0.632446,0.691895,-0.270203
1480688171820271,0.218384,-0.636169,0.690308,-0.266724
1480688171842832,0.217773,-0.639587,0.688354,-0.264099
1480688171858874,0.217651,-0.642395,0.686523,-0.262024
1480688171880431,0.217712,-0.644775,0.684875,-0.260437
1480688171902991,0.217651,-0.646484,0.683777,-0.259155
1480688171934574,0.217285,-0.647888,0.682983,-0.258118
1480688171938586,0.216858,-0.649048,0.682373,-0.25708
1480688171955130,0.21637,-0.650024,0.681946,-0.256226
1480688171977690,0.215942,-0.651184,0.681274,-0.25531
1480688172000249,0.215637,-0.652649,0.680237,-0.254578
1480688172015791,0.215454,-0.654053,0.679199,-0.253784
1480688172037348,0.215332,-0.655212,0.678467,-0.252991
1480688172066425,0.215088,-0.656067,0.67804,-0.252197
1480688172075449,0.214844,-0.656799,0.677612,-0.251526
1480688172098511,0.2146,-0.657349,0.677368,-0.251038
1480688172119065,0.214294,-0.657715,0.677185,-0.250732
1480688172136111,0.213989,-0.657837,0.677246,-0.25061
1480688172158171,0.213928,-0.658081,0.677002,-0.25061
1480688172180228,0.214111,-0.658447,0.676575,-0.25061
1480688172195268,0.214355,-0.658691,0.676331,-0.25061
1480688172217828,0.214417,-0.658813,0.676086,-0.25061
1480688172240889,0.214417,-0.658875,0.676086,-0.25061
1480688172255431,0.214355,-0.658752,0.676147,-0.250793
1480688172285508,0.214355,-0.658752,0.676147,-0.250793
1480688172308069,0.214478,-0.65863,0.676147,-0.251099
1480688172321103,0.214783,-0.65863,0.675903,-0.251343
1480688172338149,0.214966,-0.658386,0.676025,-0.251648
1480688172367727,0.215027,-0.658142,0.676147,-0.25177
1480688172374748,0.214966,-0.657959,0.676331,-0.251953
1480688172397806,0.214966,-0.657959,0.67627,-0.252014
1480688172420868,0.215088,-0.658081,0.676025,-0.252197
1480688172443428,0.215332,-0.658325,0.675659,-0.252319
1480688172458470,0.215515,-0.658447,0.675476,-0.25238
1480688172480527,0.215515,-0.658447,0.675476,-0.25238
1480688172495065,0.215515,-0.658508,0.675476,-0.252441
1480688172519129,0.215515,-0.658508,0.675476,-0.252441
1480688172540185,0.215515,-0.658508,0.675415,-0.252441
1480688172555727,0.215515,-0.658691,0.675293,-0.252319
1480688172577785,0.215515,-0.658936,0.675049,-0.252319
1480688172613382,0.215454,-0.659058,0.674927,-0.25238
1480688172630425,0.215454,-0.659058,0.674927,-0.25238
1480688172638446,0.215454,-0.659058,0.674927,-0.25238
1480688172668025,0.215393,-0.659058,0.674927,-0.252441
1480688172674545,0.215393,-0.659058,0.674927,-0.252441
1480688172697603,0.215515,-0.658936,0.674927,-0.252563
1480688172720164,0.21582,-0.658997,0.674805,-0.252686
1480688172741723,0.216187,-0.659058,0.6745,-0.252869
1480688172757764,0.216614,-0.659119,0.674194,-0.253174
1480688172780324,0.21698,-0.65918,0.673828,-0.253662
1480688172808900,0.217407,-0.659058,0.673584,-0.254211
1480688172817928,0.217712,-0.658875,0.673462,-0.254822
1480688172840484,0.218079,-0.658813,0.673157,-0.255371
1480688172861540,0.218628,-0.659119,0.672791,-0.255249
1480688172883598,0.219116,-0.660339,0.671509,-0.254883
1480688172907664,0.219666,-0.661865,0.669983,-0.254517
1480688172922201,0.220093,-0.662903,0.668945,-0.254211
1480688172945262,0.220215,-0.663513,0.668396,-0.253967
1480688172967822,0.220215,-0.663513,0.668396,-0.253967
1480688172981358,0.220337,-0.663208,0.66864,-0.254089
1480688172997903,0.220276,-0.662781,0.669006,-0.254211
1480688173020463,0.220154,-0.662659,0.669128,-0.254211
1480688173041520,0.220215,-0.662903,0.668945,-0.25415
1480688173058067,0.220398,-0.663208,0.66864,-0.254028
1480688173089145,0.220398,-0.663208,0.66864,-0.254028
1480688173101678,0.220154,-0.662842,0.669189,-0.25354
1480688173117721,0.219421,-0.662659,0.669861,-0.253113
1480688173140281,0.218567,-0.662903,0.670105,-0.252502
1480688173162849,0.218079,-0.663757,0.669739,-0.25177
1480688173178884,0.217712,-0.664856,0.669006,-0.250916
1480688173200440,0.217346,-0.66571,0.66864,-0.250122
1480688173224008,0.217102,-0.666016,0.668518,-0.249695
1480688173238043,0.217041,-0.666016,0.668518,-0.249756
1480688173273637,0.216858,-0.665588,0.668762,-0.250366
1480688173290180,0.216858,-0.665222,0.668945,-0.250916
1480688173297198,0.217285,-0.665527,0.668335,-0.251343
1480688173321764,0.217957,-0.666077,0.667419,-0.25177
1480688173342819,0.218628,-0.666748,0.666382,-0.252075
1480688173365380,0.218933,-0.666748,0.666016,-0.252869
1480688173380419,0.218994,-0.665894,0.666504,-0.253662
1480688173403481,0.218811,-0.664917,0.667419,-0.254089
1480688173417017,0.219116,-0.664734,0.667419,-0.254395
1480688173440579,0.219727,-0.664551,0.667053,-0.255127
1480688173464643,0.220642,-0.664612,0.66626,-0.256409
1480688173477177,0.221375,-0.663696,0.666077,-0.258667
1480688173500238,0.221863,-0.66217,0.666565,-0.260742
1480688173532323,0.222229,-0.660828,0.667236,-0.262024
1480688173551374,0.222717,-0.659912,0.667725,-0.262817
1480688173575438,0.2229,-0.659058,0.668274,-0.263428
1480688173583459,0.222717,-0.658325,0.668945,-0.263672
1480688173596996,0.22229,-0.657837,0.669678,-0.263245
1480688173620057,0.221375,-0.657959,0.670288,-0.262268
1480688173642617,0.220581,-0.658997,0.670105,-0.260803
1480688173665177,0.220886,-0.661011,0.668579,-0.259338
1480688173708792,0.221619,-0.662964,0.666748,-0.258423
1480688173719822,0.222046,-0.664063,0.665649,-0.258057
1480688173731352,0.222107,-0.664551,0.665344,-0.257568
1480688173740377,0.221802,-0.664856,0.665466,-0.256836
1480688173763950,0.221191,-0.665283,0.66571,-0.255554
1480688173783992,0.22052,-0.666138,0.665588,-0.254272
1480688173800537,0.220032,-0.667542,0.664734,-0.253174
1480688173824101,0.219849,-0.669434,0.663391,-0.251953
1480688173851672,0.219727,-0.671143,0.662109,-0.250732
1480688173877241,0.219482,-0.672241,0.661377,-0.25
1480688173884761,0.218994,-0.672424,0.661377,-0.249878
1480688173903812,0.218628,-0.672058,0.661865,-0.25
1480688173920356,0.218262,-0.67157,0.662354,-0.250183
1480688173942915,0.217957,-0.671448,0.662659,-0.250061
1480688173965477,0.217712,-0.671692,0.662781,-0.249329
1480688173980516,0.217468,-0.672546,0.662415,-0.248169
1480688174003076,0.21698,-0.67395,0.661621,-0.246826
1480688174024132,0.216675,-0.675842,0.660278,-0.245667
1480688174041177,0.216858,-0.677551,0.658752,-0.244873
1480688174064739,0.217102,-0.67865,0.657776,-0.244324
1480688174083791,0.216919,-0.679016,0.657471,-0.244141
1480688174107854,0.216492,-0.67865,0.657898,-0.244324
1480688174130916,0.216125,-0.677979,0.65863,-0.244629
1480688174151470,0.215576,-0.676819,0.65979,-0.245178
1480688174160995,0.215088,-0.675903,0.660828,-0.245483
1480688174197593,0.215088,-0.675537,0.661133,-0.245422
1480688174205613,0.215515,-0.675659,0.66095,-0.245361
1480688174220152,0.215942,-0.67572,0.660767,-0.245422
1480688174242712,0.216248,-0.675537,0.660767,-0.245544
1480688174265272,0.216553,-0.675415,0.660767,-0.245605
1480688174279811,0.216736,-0.675659,0.660522,-0.245483
1480688174318916,0.216675,-0.675903,0.660339,-0.2453
1480688174331950,0.21637,-0.676819,0.659668,-0.244751
1480688174340976,0.216064,-0.678345,0.658569,-0.243896
1480688174364035,0.216553,-0.680115,0.656921,-0.242859
1480688174385092,0.216858,-0.681396,0.65564,-0.242554
1480688174408654,0.216553,-0.681641,0.655396,-0.242737
1480688174422695,0.216125,-0.68103,0.656006,-0.243164
1480688174451769,0.215576,-0.680298,0.656738,-0.243713
1480688174474329,0.214966,-0.679382,0.657776,-0.244141
1480688174484857,0.214905,-0.678894,0.658203,-0.244324
1480688174505411,0.21521,-0.679199,0.657837,-0.244263
1480688174519448,0.215637,-0.679626,0.657227,-0.244385
1480688174550532,0.21582,-0.679565,0.657104,-0.244629
1480688174565070,0.215637,-0.679138,0.657471,-0.244995
1480688174579609,0.215576,-0.678955,0.657471,-0.245422
1480688174602670,0.216003,-0.67865,0.657471,-0.245972
1480688174625229,0.21637,-0.677979,0.657776,-0.246643
1480688174663331,0.216492,-0.677063,0.658447,-0.247314
1480688174665837,0.216553,-0.676392,0.659058,-0.247498
1480688174685390,0.216858,-0.676331,0.658997,-0.247559
1480688174707951,0.216858,-0.676575,0.658752,-0.247498
1480688174723491,0.216797,-0.67688,0.658386,-0.24762
1480688174759589,0.217041,-0.677124,0.65802,-0.247742
1480688174766605,0.217346,-0.677063,0.65802,-0.247742
1480688174790171,0.21698,-0.676941,0.658264,-0.247681
1480688174813231,0.216797,-0.677063,0.658325,-0.247375
1480688174826265,0.217224,-0.677917,0.657593,-0.246704
1480688174842809,0.217651,-0.678955,0.656555,-0.246094
1480688174865871,0.217712,-0.679871,0.655762,-0.245728
1480688174886925,0.217712,-0.680481,0.655273,-0.2453
1480688174903980,0.217712,-0.680786,0.65509,-0.244934
1480688174941571,0.217712,-0.680725,0.655151,-0.244812
1480688174953603,0.217896,-0.680542,0.655334,-0.244873
1480688174966136,0.21814,-0.680115,0.65564,-0.244873
1480688174986691,0.218201,-0.67981,0.655945,-0.244873
1480688175006243,0.218262,-0.67981,0.655945,-0.244873
1480688175023291,0.218445,-0.680054,0.655762,-0.244568
1480688175046850,0.218689,-0.680359,0.655396,-0.244324
1480688175073924,0.21875,-0.680847,0.654968,-0.244202
1480688175082946,0.218628,-0.681213,0.654663,-0.244019
1480688175107012,0.218567,-0.68158,0.654419,-0.243774
1480688175128066,0.218445,-0.681946,0.654053,-0.243713
1480688175143608,0.218445,-0.682251,0.653748,-0.243713
1480688175172685,0.218201,-0.682434,0.653687,-0.243652
1480688175188729,0.217957,-0.682373,0.653748,-0.243774
1480688175202264,0.217712,-0.682129,0.654053,-0.244019
1480688175240365,0.217468,-0.681763,0.65448,-0.244141
1480688175255405,0.217163,-0.681335,0.654907,-0.244263
1480688175261924,0.217163,-0.681335,0.654968,-0.244263
1480688175285486,0.217346,-0.681396,0.654785,-0.244324
1480688175308045,0.217346,-0.681396,0.654724,-0.244568
1480688175322084,0.217285,-0.681396,0.654724,-0.244568
1480688175345144,0.217102,-0.681091,0.655029,-0.244812
1480688175367704,0.217102,-0.680786,0.655273,-0.244995
1480688175382243,0.217346,-0.680664,0.655273,-0.245178
1480688175412824,0.217651,-0.680603,0.65509,-0.245483
1480688175427864,0.218079,-0.680481,0.654968,-0.245789
1480688175450424,0.218079,-0.680054,0.655273,-0.246155
1480688175466467,0.217834,-0.679871,0.655457,-0.246338
1480688175488027,0.217834,-0.679932,0.655457,-0.246338
1480688175510082,0.217834,-0.679871,0.655457,-0.246338
1480688175539160,0.217712,-0.680054,0.655273,-0.246399
1480688175548184,0.217957,-0.680298,0.654907,-0.246582
1480688175570242,0.218018,-0.680481,0.654541,-0.247009
1480688175585283,0.217896,-0.68042,0.654419,-0.247498
1480688175607843,0.217834,-0.680237,0.654419,-0.248047
1480688175630403,0.218018,-0.679932,0.654541,-0.248352
1480688175644943,0.218323,-0.679626,0.654724,-0.248535
1480688175668003,0.21875,-0.679626,0.654602,-0.248413
1480688175689059,0.219055,-0.679504,0.654663,-0.248413
1480688175705101,0.219055,-0.679504,0.654663,-0.248413
1480688175728163,0.21875,-0.679443,0.654907,-0.248291
1480688175748718,0.218445,-0.679321,0.655151,-0.24823
1480688175772783,0.218445,-0.679321,0.65509,-0.24823
1480688175793837,0.218628,-0.679138,0.65509,-0.248596
1480688175808879,0.218872,-0.678955,0.655151,-0.248779
1480688175825425,0.218811,-0.678528,0.655518,-0.248962
1480688175847981,0.218689,-0.678345,0.655823,-0.248901
1480688175876558,0.218689,-0.678284,0.655823,-0.248901
1480688175885080,0.218689,-0.678284,0.655823,-0.248901
1480688175907640,0.218689,-0.678345,0.655823,-0.248901
1480688175928697,0.21875,-0.67804,0.656067,-0.248962
1480688175945240,0.218689,-0.677673,0.656433,-0.248962
1480688175967800,0.218811,-0.67749,0.656616,-0.249023
1480688175988857,0.218811,-0.67749,0.656616,-0.249023
1480688176005400,0.218994,-0.677551,0.656433,-0.249023
1480688176029464,0.219177,-0.677734,0.656189,-0.249084
1480688176050520,0.219177,-0.677734,0.656189,-0.249084
1480688176072582,0.219177,-0.677795,0.656189,-0.249084
1480688176087618,0.219177,-0.677917,0.656067,-0.249023
1480688176110178,0.219177,-0.677917,0.656006,-0.249023
1480688176125218,0.219177,-0.677917,0.656067,-0.249023
1480688176148280,0.219177,-0.677917,0.656067,-0.249023
1480688176170338,0.219177,-0.677917,0.656067,-0.249023
1480688176184878,0.219177,-0.677917,0.656067,-0.249023
1480688176208439,0.219177,-0.67804,0.655884,-0.249084
1480688176238018,0.219238,-0.678284,0.655579,-0.249146
1480688176244535,0.21936,-0.678467,0.655334,-0.249207
1480688176267597,0.21936,-0.678467,0.655334,-0.249207
1480688176306701,0.21936,-0.678528,0.655334,-0.249146
1480688176328258,0.21936,-0.678528,0.655334,-0.249146
1480688176330765,0.21936,-0.678528,0.655273,-0.249146
1480688176350819,0.21936,-0.678528,0.655273,-0.249207
1480688176365858,0.21936,-0.678528,0.655273,-0.249207
1480688176387917,0.219299,-0.678528,0.655273,-0.249207
1480688176410477,0.219299,-0.678528,0.655273,-0.249207
1480688176432535,0.21936,-0.678528,0.655273,-0.249207
1480688176448078,0.21936,-0.678528,0.655273,-0.249207
1480688176470135,0.21936,-0.678528,0.655273,-0.249207
1480688176484675,0.219543,-0.678589,0.65509,-0.249268
1480688176515256,0.219849,-0.67865,0.654846,-0.249451
1480688176540323,0.220215,-0.67865,0.654602,-0.249756
1480688176551352,0.220459,-0.678711,0.654297,-0.250305
1480688176575416,0.220703,-0.678162,0.654419,-0.25116
1480688176605999,0.220947,-0.677368,0.654907,-0.251953
1480688176611011,0.221008,-0.67688,0.655151,-0.252625
1480688176627554,0.221313,-0.676514,0.655212,-0.253174
1480688176651118,0.22168,-0.675964,0.655396,-0.253662
1480688176671170,0.221741,-0.675171,0.656128,-0.253967
1480688176687714,0.221558,-0.674744,0.656677,-0.253906
1480688176710274,0.221497,-0.674866,0.656555,-0.253784
1480688176731329,0.221375,-0.675293,0.656189,-0.253723
1480688176748876,0.221436,-0.67572,0.655823,-0.253601
1480688176770435,0.221436,-0.675903,0.65564,-0.25354
1480688176791615,0.221313,-0.675842,0.655701,-0.253601
1480688176815052,0.221313,-0.67572,0.655762,-0.253662
1480688176832600,0.221313,-0.67572,0.655762,-0.253662
1480688176860173,0.221313,-0.675598,0.655945,-0.253784
1480688176875213,0.221252,-0.675598,0.655945,-0.253784
1480688176904290,0.221252,-0.675598,0.655945,-0.253784
1480688176911308,0.221436,-0.67572,0.655762,-0.253723
1480688176927854,0.221436,-0.67572,0.655762,-0.253662
1480688176950413,0.221436,-0.67572,0.655762,-0.253662
1480688176972973,0.221436,-0.67572,0.655701,-0.253662
1480688176994029,0.221497,-0.675659,0.655762,-0.253784
1480688177010072,0.221497,-0.675659,0.655762,-0.253784
1480688177049175,0.221497,-0.67572,0.655701,-0.253784
1480688177053687,0.221497,-0.67572,0.655701,-0.253784
1480688177070231,0.221497,-0.67572,0.655762,-0.253784
1480688177092792,0.221497,-0.675659,0.655762,-0.253784
1480688177115352,0.221436,-0.675842,0.655579,-0.253845
1480688177130893,0.221436,-0.675842,0.655579,-0.253845
1480688177152952,0.221436,-0.675842,0.655518,-0.253906
1480688177175511,0.221436,-0.675842,0.655579,-0.253906
1480688177196066,0.221436,-0.675842,0.655579,-0.253906
1480688177212610,0.221375,-0.675964,0.655457,-0.253784
1480688177228653,0.221497,-0.676025,0.655334,-0.253967
1480688177250210,0.221619,-0.675781,0.655396,-0.254211
1480688177272770,0.221741,-0.675537,0.655579,-0.254395
1480688177293826,0.221741,-0.675476,0.65564,-0.254395
1480688177310369,0.221985,-0.675598,0.655457,-0.254456
1480688177332929,0.22229,-0.675354,0.655396,-0.254761
1480688177347468,0.222473,-0.674988,0.655701,-0.254944
1480688177370029,0.222412,-0.674866,0.655823,-0.254883
1480688177393091,0.222412,-0.674744,0.655945,-0.254944
1480688177407130,0.222412,-0.674805,0.655884,-0.254944
1480688177436205,0.222412,-0.674805,0.655884,-0.254944
1480688177458766,0.222412,-0.674805,0.655884,-0.254944
1480688177473807,0.222473,-0.674805,0.656006,-0.254578
1480688177490350,0.222351,-0.674744,0.656189,-0.254333
1480688177512908,0.22229,-0.674805,0.656189,-0.254395
1480688177533965,0.222107,-0.67511,0.655823,-0.254456
1480688177550008,0.222107,-0.675537,0.655457,-0.254272
1480688177579084,0.221985,-0.675659,0.655396,-0.254272
1480688177594125,0.222046,-0.675659,0.655396,-0.254272
1480688177623703,0.221985,-0.675537,0.655579,-0.254211
1480688177633229,0.221802,-0.675415,0.655701,-0.254272
1480688177661303,0.221741,-0.675415,0.655701,-0.254272
1480688177671831,0.221741,-0.675415,0.655701,-0.254333
1480688177692888,0.221802,-0.675598,0.655518,-0.254211
1480688177713943,0.221924,-0.67572,0.655396,-0.25415
1480688177730487,0.221924,-0.67572,0.655396,-0.25415
1480688177752546,0.221924,-0.67572,0.655334,-0.25415
1480688177774107,0.221924,-0.675781,0.655334,-0.254211
1480688177790146,0.221924,-0.675781,0.655334,-0.254211
1480688177814711,0.221924,-0.67572,0.655334,-0.254211
1480688177833761,0.221924,-0.675781,0.655334,-0.25415
1480688177850305,0.222046,-0.675781,0.655212,-0.254395
1480688177872866,0.222046,-0.675781,0.655212,-0.254395
1480688177901442,0.222046,-0.675781,0.655212,-0.254395
1480688177910966,0.221985,-0.675781,0.655212,-0.254395
1480688177940563,0.221924,-0.676086,0.654907,-0.254456
1480688177972130,0.222229,-0.676208,0.654663,-0.254517
1480688177976641,0.222534,-0.676147,0.654602,-0.254578
1480688177992685,0.222534,-0.676147,0.654602,-0.254578
1480688178015244,0.222595,-0.676147,0.654602,-0.254578
1480688178038305,0.222595,-0.676147,0.654602,-0.254578
1480688178052845,0.222595,-0.676331,0.654419,-0.254639
1480688178081421,0.222656,-0.676514,0.654175,-0.254578
1480688178089442,0.222656,-0.676697,0.654053,-0.254456
1480688178113004,0.222412,-0.676758,0.654053,-0.254395
1480688178135064,0.222168,-0.67688,0.653992,-0.254456
1480688178149602,0.222107,-0.67688,0.653992,-0.254517
1480688178172663,0.222107,-0.67688,0.653992,-0.254517
1480688178196225,0.222107,-0.67688,0.653992,-0.254517
1480688178218284,0.222107,-0.67688,0.653992,-0.254517
1480688178246359,0.222107,-0.676941,0.653992,-0.254517
1480688178255884,0.222107,-0.67688,0.653992,-0.254517
1480688178269421,0.222107,-0.67688,0.653992,-0.254517
1480688178294487,0.222046,-0.676941,0.653992,-0.254578
1480688178315042,0.222046,-0.676941,0.653931,-0.254578
1480688178336099,0.222046,-0.677124,0.653809,-0.254517
1480688178352641,0.222107,-0.677246,0.653625,-0.254517
1480688178375702,0.222168,-0.677246,0.653625,-0.254517
1480688178390744,0.222229,-0.677063,0.653748,-0.254578
1480688178412802,0.22229,-0.676941,0.653931,-0.254517
1480688178435364,0.22229,-0.676941,0.65387,-0.254517
1480688178456421,0.22229,-0.676941,0.65387,-0.254517
1480688178478978,0.22229,-0.676941,0.65387,-0.254517
1480688178503041,0.222229,-0.676941,0.65387,-0.254578
1480688178517580,0.222229,-0.676941,0.65387,-0.254578
1480688178538638,0.222107,-0.676758,0.653992,-0.254822
1480688178563703,0.222046,-0.676575,0.654114,-0.255127
1480688178583757,0.222046,-0.67627,0.654297,-0.25531
1480688178592780,0.222229,-0.676086,0.654419,-0.255432
1480688178615340,0.222351,-0.675903,0.654541,-0.255554
1480688178635895,0.222534,-0.675659,0.654663,-0.255798
1480688178652940,0.222595,-0.675415,0.654724,-0.256165
1480688178676002,0.222778,-0.675293,0.654663,-0.256409
1480688178696556,0.222839,-0.675171,0.654663,-0.256714
1480688178712599,0.223022,-0.674988,0.654724,-0.256897
1480688178735159,0.223267,-0.674805,0.654724,-0.25708
1480688178756215,0.22345,-0.674561,0.654846,-0.257324
1480688178773260,0.223572,-0.674316,0.655029,-0.257385
1480688178802840,0.223755,-0.674133,0.655212,-0.257385
1480688178818882,0.22406,-0.673889,0.655273,-0.257507
1480688178849463,0.224304,-0.673706,0.655334,-0.257629
1480688178869014,0.224548,-0.673401,0.655579,-0.257629
1480688178877537,0.224731,-0.673157,0.655762,-0.257568
1480688178892076,0.224731,-0.673157,0.655762,-0.257568
1480688178915137,0.224731,-0.673279,0.65564,-0.257568
1480688178939201,0.224792,-0.673462,0.655457,-0.257507
1480688178953239,0.224792,-0.673462,0.655396,-0.257507
1480688178975302,0.224792,-0.673523,0.655396,-0.257507
1480688178998366,0.224731,-0.673218,0.655701,-0.257568
1480688179026433,0.224609,-0.672913,0.656006,-0.257568
1480688179035458,0.224609,-0.672974,0.656006,-0.257568
1480688179058019,0.224609,-0.672974,0.656006,-0.257568
1480688179072057,0.224609,-0.672913,0.656006,-0.257568
1480688179095115,0.224609,-0.672913,0.656006,-0.257568
1480688179118177,0.224609,-0.672913,0.656006,-0.257568
1480688179132216,0.224609,-0.672852,0.656128,-0.257629
1480688179155277,0.224548,-0.672668,0.65625,-0.25769
1480688179178337,0.224487,-0.672546,0.656372,-0.257813
1480688179192375,0.224365,-0.672424,0.656555,-0.257813
1480688179215436,0.224365,-0.672424,0.656555,-0.257813
1480688179237999,0.224304,-0.672424,0.656494,-0.257813
1480688179252033,0.224304,-0.672424,0.656555,-0.257874
1480688179275094,0.224304,-0.672424,0.656494,-0.257874
1480688179312694,0.224304,-0.672424,0.656555,-0.257874
1480688179315202,0.224304,-0.672424,0.656555,-0.257874
1480688179338765,0.224304,-0.672424,0.656555,-0.257874
1480688179357818,0.224304,-0.672424,0.656555,-0.257874
1480688179378871,0.224304,-0.672424,0.656555,-0.257874
1480688179395416,0.224304,-0.672363,0.656555,-0.257874
1480688179417975,0.224304,-0.672363,0.656555,-0.257874
1480688179439031,0.224243,-0.672363,0.656555,-0.257935
1480688179455575,0.224243,-0.672363,0.656555,-0.257935
1480688179477633,0.224243,-0.672363,0.656555,-0.257935
1480688179500193,0.224243,-0.672363,0.656555,-0.257935
1480688179515233,0.224304,-0.672241,0.656738,-0.257813
1480688179537793,0.224304,-0.672119,0.656921,-0.25769
1480688179560353,0.224243,-0.671936,0.657166,-0.25769
1480688179575393,0.224182,-0.671936,0.657166,-0.25769
1480688179605976,0.224121,-0.671692,0.657349,-0.257813
1480688179635554,0.22406,-0.671143,0.657837,-0.258057
1480688179638060,0.223877,-0.670105,0.658813,-0.258362
1480688179657612,0.223511,-0.669067,0.659912,-0.258667
1480688179680173,0.223328,-0.668701,0.660278,-0.258911
1480688179696715,0.223389,-0.668396,0.660461,-0.259094
1480688179725292,0.223633,-0.668457,0.660217,-0.259338
1480688179738828,0.224121,-0.668396,0.659973,-0.259766
1480688179755372,0.224365,-0.667908,0.660217,-0.260254
1480688179777933,0.224365,-0.667114,0.660767,-0.260742
1480688179800492,0.224243,-0.666565,0.661194,-0.261169
1480688179821548,0.224304,-0.666321,0.661255,-0.261719
1480688179837591,0.224609,-0.66626,0.66095,-0.262329
1480688179860652,0.224915,-0.666138,0.660645,-0.263123
1480688179882710,0.225281,-0.66571,0.660583,-0.263977
1480688179898252,0.22583,-0.664917,0.660767,-0.264954
1480688179920311,0.226501,-0.66394,0.661072,-0.266174
1480688179935350,0.227417,-0.662903,0.661133,-0.267761
1480688179957911,0.228516,-0.661926,0.66095,-0.269775
1480688179980470,0.229675,-0.660828,0.660767,-0.272034
1480688179994508,0.230835,-0.659729,0.660461,-0.27417
1480688180025100,0.231995,-0.658264,0.660461,-0.276733
1480688180048651,0.233215,-0.656067,0.660889,-0.279907
1480688180079233,0.234497,-0.653076,0.661804,-0.283813
1480688180081740,0.235535,-0.649597,0.663208,-0.287598
1480688180101793,0.236633,-0.646606,0.66449,-0.290466
1480688180121345,0.237732,-0.644348,0.665466,-0.292358
1480688180137889,0.238708,-0.643005,0.665894,-0.293579
1480688180160449,0.23938,-0.642578,0.66571,-0.29425
1480688180181505,0.239746,-0.6427,0.665405,-0.294434
1480688180198049,0.239685,-0.643066,0.665283,-0.294067
1480688180220107,0.239258,-0.64386,0.664917,-0.293396
1480688180248683,0.238831,-0.645142,0.664246,-0.29248
1480688180257710,0.238403,-0.646423,0.663574,-0.291504
1480688180281270,0.237915,-0.6474,0.663147,-0.29071
1480688180302326,0.23761,-0.648315,0.662781,-0.289856
1480688180325391,0.237305,-0.648926,0.662659,-0.289001
1480688180346443,0.236938,-0.649536,0.662537,-0.288147
1480688180369003,0.236694,-0.650208,0.662231,-0.287537
1480688180377526,0.23645,-0.650696,0.661987,-0.28717
1480688180400086,0.236328,-0.650818,0.661987,-0.286987
1480688180422646,0.236328,-0.650879,0.661926,-0.286987
1480688180445206,0.236328,-0.650879,0.661926,-0.286987
1480688180460246,0.236145,-0.650818,0.662109,-0.286926
1480688180481302,0.23584,-0.650635,0.662354,-0.286987
1480688180503862,0.235779,-0.650635,0.662354,-0.286987
1480688180534944,0.235779,-0.650818,0.662048,-0.287292
1480688180548481,0.235901,-0.650696,0.661865,-0.287903
1480688180559511,0.236206,-0.650085,0.662048,-0.288513
1480688180580065,0.236511,-0.649353,0.662415,-0.289063
1480688180602625,0.236694,-0.648804,0.66272,-0.289429
1480688180625687,0.236877,-0.64856,0.662842,-0.289673
1480688180647744,0.237122,-0.648499,0.662781,-0.289795
1480688180678326,0.237122,-0.648438,0.662842,-0.289795
1480688180680833,0.237122,-0.648438,0.662842,-0.289795
1480688180701889,0.237122,-0.648438,0.662842,-0.289795
1480688180721443,0.237305,-0.648376,0.66272,-0.290039
1480688180737485,0.237549,-0.648193,0.662659,-0.290344
1480688180760043,0.237793,-0.648254,0.662476,-0.290466
1480688180783104,0.237915,-0.648254,0.662354,-0.290588
1480688180797643,0.237915,-0.648254,0.662354,-0.290588
1480688180820203,0.237915,-0.648254,0.662354,-0.290588
1480688180842763,0.237915,-0.648254,0.662354,-0.290588
1480688180858304,0.237915,-0.648254,0.662354,-0.290588
1480688180881366,0.237976,-0.648438,0.662109,-0.29071
1480688180902924,0.238159,-0.648865,0.661682,-0.290649
1480688180931499,0.238342,-0.649109,0.661377,-0.290588
1480688180948545,0.238403,-0.649231,0.661255,-0.290466
1480688180977623,0.238403,-0.649292,0.661255,-0.290466
1480688180982134,0.23822,-0.649231,0.661255,-0.290649
1480688181000684,0.238037,-0.64917,0.661316,-0.290833
1480688181022749,0.238037,-0.64917,0.661316,-0.290833
1480688181043797,0.238098,-0.649475,0.66095,-0.290833
1480688181060342,0.238159,-0.649841,0.660645,-0.29071
1480688181090422,0.237976,-0.650269,0.6604,-0.290466
1480688181105462,0.23761,-0.650818,0.660156,-0.2901
1480688181120503,0.237122,-0.651794,0.659729,-0.289368
1480688181142560,0.236755,-0.653076,0.658936,-0.288513
1480688181163617,0.23645,-0.654724,0.657776,-0.287659
1480688181180160,0.236206,-0.656067,0.65686,-0.286987
1480688181202721,0.236023,-0.65686,0.65625,-0.286682
1480688181225284,0.236084,-0.65686,0.656189,-0.286682
1480688181247840,0.235779,-0.656555,0.656494,-0.287048
1480688181262880,0.235474,-0.655884,0.657104,-0.287415
1480688181283939,0.235046,-0.655518,0.657654,-0.287476
1480688181300480,0.23468,-0.655823,0.657471,-0.287292
1480688181322540,0.234558,-0.656799,0.656799,-0.286743
1480688181343595,0.234253,-0.658081,0.655945,-0.28595
1480688181361141,0.233704,-0.659424,0.655212,-0.285034
1480688181382700,0.233398,-0.661011,0.654114,-0.284119
1480688181403755,0.233459,-0.66272,0.65271,-0.283264
1480688181420299,0.233643,-0.664124,0.651611,-0.282471
1480688181448373,0.233582,-0.665161,0.650696,-0.282043
1480688181463915,0.233521,-0.66571,0.650208,-0.281982
1480688181481462,0.233337,-0.665466,0.650452,-0.282166
1480688181504023,0.233276,-0.664795,0.651062,-0.28241
1480688181526583,0.233093,-0.664001,0.651794,-0.282715
1480688181540119,0.232727,-0.663269,0.652527,-0.28302
1480688181563680,0.232544,-0.662964,0.652832,-0.283142
1480688181583734,0.232544,-0.662964,0.652832,-0.283081
1480688181600278,0.232544,-0.663452,0.652527,-0.282776
1480688181623339,0.232483,-0.663879,0.652161,-0.282654
1480688181643893,0.232483,-0.663879,0.652161,-0.282654
1480688181660437,0.232056,-0.663696,0.652527,-0.282593
1480688181682998,0.231628,-0.663513,0.652954,-0.282471
1480688181705061,0.231445,-0.663757,0.652771,-0.282349
1480688181720097,0.231445,-0.664246,0.652405,-0.282166
1480688181742656,0.231384,-0.664734,0.651855,-0.282227
1480688181765217,0.231689,-0.665283,0.651123,-0.282471
1480688181788779,0.232117,-0.665405,0.650635,-0.282959
1480688181802315,0.232788,-0.664978,0.650391,-0.283936
1480688181825378,0.233276,-0.663757,0.650879,-0.285278
1480688181839915,0.233582,-0.66217,0.651855,-0.286499
1480688181876512,0.233643,-0.660828,0.652771,-0.287476
1480688181900075,0.233704,-0.660217,0.653137,-0.288025
1480688181902581,0.233704,-0.660339,0.652954,-0.288147
1480688181924139,0.233582,-0.660828,0.652588,-0.288025
1480688181946699,0.233521,-0.661438,0.652039,-0.287781
1480688181959735,0.233459,-0.661804,0.651794,-0.287598
1480688181990315,0.233276,-0.661682,0.651978,-0.287476
1480688182011371,0.233093,-0.661499,0.652283,-0.287415
1480688182035435,0.232849,-0.661438,0.652466,-0.287292
1480688182042955,0.232666,-0.66156,0.652527,-0.28717
1480688182065515,0.232544,-0.661743,0.652466,-0.286987
1480688182086069,0.232483,-0.662048,0.652344,-0.28656
1480688182110133,0.232056,-0.662598,0.652283,-0.285828
1480688182132701,0.231384,-0.663635,0.651794,-0.285095
1480688182139714,0.23114,-0.664978,0.650574,-0.284729
1480688182170293,0.231201,-0.665955,0.649658,-0.284729
1480688182192853,0.231445,-0.666138,0.649292,-0.28479
1480688182205889,0.231506,-0.665649,0.649719,-0.284912
1480688182222934,0.231262,-0.664978,0.650391,-0.285156
1480688182245995,0.231018,-0.66449,0.65094,-0.285339
1480688182267552,0.231018,-0.664429,0.65094,-0.285339
1480688182290615,0.23114,-0.664612,0.650696,-0.2854
1480688182321195,0.231384,-0.664551,0.650635,-0.285522
1480688182326208,0.231445,-0.664246,0.650879,-0.285461
1480688182344256,0.231445,-0.664124,0.651184,-0.285278
1480688182365312,0.231445,-0.664124,0.651123,-0.285339
1480688182389378,0.231445,-0.664124,0.651123,-0.285278
1480688182405419,0.231384,-0.664001,0.651367,-0.285156
1480688182425472,0.23114,-0.663757,0.651733,-0.285095
1480688182446528,0.230835,-0.663452,0.651978,-0.2854
1480688182462571,0.230835,-0.663269,0.651978,-0.285767
1480688182492651,0.231262,-0.663086,0.651978,-0.28595
1480688182506191,0.231567,-0.662781,0.652161,-0.286011
1480688182522730,0.231567,-0.662415,0.652405,-0.286255
1480688182552810,0.231567,-0.662048,0.65271,-0.286499
1480688182574367,0.23175,-0.661682,0.652954,-0.286621
1480688182590915,0.231934,-0.661316,0.653198,-0.286743
1480688182620991,0.232117,-0.661011,0.65332,-0.286865
1480688182645056,0.232117,-0.661011,0.65332,-0.286926
1480688182658592,0.232178,-0.661011,0.653259,-0.287048
1480688182665109,0.2323,-0.660889,0.65332,-0.287231
1480688182687669,0.232239,-0.660645,0.653442,-0.287415
1480688182703210,0.232178,-0.660461,0.653687,-0.287476
1480688182727275,0.232239,-0.660278,0.653748,-0.287537
1480688182747829,0.232239,-0.660278,0.653748,-0.287537
1480688182762870,0.232239,-0.660278,0.653748,-0.287537
1480688182791947,0.232239,-0.660278,0.653748,-0.287537
1480688182807989,0.232239,-0.660278,0.653809,-0.287598
1480688182822528,0.232239,-0.660278,0.653809,-0.287598
1480688182845087,0.232178,-0.660217,0.653809,-0.287598
1480688182867648,0.232361,-0.660034,0.653931,-0.287598
1480688182891212,0.232361,-0.660095,0.653931,-0.287598
1480688182912768,0.232361,-0.660095,0.653931,-0.287598
1480688182942848,0.232361,-0.660095,0.653931,-0.287598
1480688182944853,0.2323,-0.660095,0.653931,-0.287598
1480688182965408,0.2323,-0.660095,0.65387,-0.287598
1480688182987969,0.2323,-0.660095,0.65387,-0.287598
1480688183002005,0.2323,-0.660095,0.653931,-0.287598
1480688183026069,0.2323,-0.660095,0.65387,-0.287598
1480688183047627,0.232422,-0.660278,0.653748,-0.287537
1480688183062165,0.232483,-0.6604,0.653625,-0.287415
1480688183085226,0.232483,-0.660339,0.653687,-0.287415
1480688183107786,0.232483,-0.660339,0.653687,-0.287415
1480688183129345,0.232483,-0.660339,0.653687,-0.287415
1480688183151402,0.232483,-0.660339,0.653687,-0.287415
1480688183168949,0.232483,-0.660339,0.653687,-0.287415
1480688183197023,0.232544,-0.660583,0.653442,-0.287354
1480688183205546,0.232605,-0.660767,0.653259,-0.287292
1480688183228106,0.232605,-0.660767,0.653259,-0.287292
1480688183249163,0.232605,-0.660767,0.653259,-0.287292
1480688183265205,0.232483,-0.660645,0.653442,-0.287231
1480688183287765,0.232483,-0.660645,0.653442,-0.287231
1480688183308821,0.232422,-0.660828,0.65332,-0.287109
1480688183333386,0.232239,-0.661133,0.653259,-0.286804
1480688183355446,0.232056,-0.661499,0.653076,-0.286499
1480688183376500,0.231812,-0.661682,0.653076,-0.286194
1480688183385525,0.231323,-0.661926,0.653198,-0.285767
1480688183407083,0.230713,-0.662476,0.653076,-0.285278
1480688183413099,0.230347,-0.663513,0.652344,-0.28479
1480688183435660,0.230408,-0.664612,0.651489,-0.284119
1480688183450699,0.230469,-0.665466,0.650818,-0.283691
1480688183474763,0.230469,-0.66571,0.650635,-0.283569
1480688183497322,0.230347,-0.665405,0.651001,-0.283447
1480688183526902,0.230103,-0.664978,0.65155,-0.283508
1480688183533418,0.229797,-0.664612,0.651978,-0.283508
1480688183556982,0.229797,-0.664612,0.651978,-0.283508
1480688183570517,0.229736,-0.664978,0.651733,-0.283386
1480688183593080,0.229858,-0.665527,0.651245,-0.283142
1480688183632682,0.229858,-0.665955,0.650818,-0.282898
1480688183637194,0.229919,-0.666321,0.650574,-0.282593
1480688183653236,0.229797,-0.666565,0.650452,-0.28241
1480688183684319,0.229736,-0.666992,0.650146,-0.282227
1480688183698357,0.229736,-0.667419,0.649841,-0.281921
1480688183713397,0.229736,-0.66803,0.649231,-0.281738
1480688183744479,0.22998,-0.668457,0.648804,-0.281616
1480688183750495,0.230286,-0.668457,0.648682,-0.281677
1480688183773055,0.230347,-0.668152,0.648926,-0.281738
1480688183795615,0.230225,-0.667786,0.649292,-0.28186
1480688183819679,0.230164,-0.66748,0.649597,-0.282043
1480688183837728,0.230164,-0.667297,0.649719,-0.282166
1480688183855777,0.230164,-0.667297,0.649719,-0.282166
1480688183870816,0.230164,-0.667297,0.649719,-0.282166
1480688183893397,0.230164,-0.667358,0.649658,-0.282166
1480688183915434,0.230164,-0.667358,0.649658,-0.282104
1480688183931979,0.230164,-0.667358,0.649658,-0.282104
1480688183953034,0.230164,-0.667358,0.649658,-0.282104
1480688183978603,0.230225,-0.667358,0.649658,-0.282104
1480688184007177,0.230225,-0.667358,0.649658,-0.282104
1480688184013194,0.230103,-0.667175,0.649841,-0.282166
1480688184043774,0.230042,-0.667053,0.650024,-0.282166
1480688184052298,0.229858,-0.666931,0.650146,-0.282166
1480688184073354,0.229858,-0.666931,0.650146,-0.282227
1480688184096917,0.229797,-0.667053,0.650085,-0.282227
1480688184119477,0.229858,-0.667175,0.649963,-0.282104
1480688184143040,0.229858,-0.667175,0.649963,-0.282104
1480688184166603,0.229797,-0.667053,0.650085,-0.282043
1480688184179637,0.229736,-0.66687,0.65033,-0.282104
1480688184209717,0.229736,-0.66687,0.65033,-0.282104
1480688184215733,0.229736,-0.666931,0.650146,-0.282349
1480688184233781,0.229797,-0.666931,0.650024,-0.282715
1480688184257347,0.229858,-0.66687,0.649902,-0.28302
1480688184279903,0.230103,-0.666626,0.649963,-0.283264
1480688184299456,0.230408,-0.666199,0.650146,-0.28363
1480688184312990,0.230652,-0.665527,0.650513,-0.284058
1480688184344575,0.230835,-0.664917,0.650879,-0.284485
1480688184352096,0.231018,-0.66449,0.651184,-0.284668
1480688184374655,0.231018,-0.66449,0.651184,-0.284668
1480688184400224,0.23114,-0.664673,0.65094,-0.28479
1480688184422282,0.23114,-0.664673,0.650879,-0.284729
1480688184443337,0.23114,-0.664734,0.650879,-0.284729
1480688184455872,0.230896,-0.664673,0.651001,-0.284729
1480688184489963,0.230652,-0.664795,0.651001,-0.284668
1480688184501995,0.230469,-0.664917,0.651001,-0.284546
1480688184515530,0.230286,-0.6651,0.65094,-0.284485
1480688184534079,0.230103,-0.665283,0.650818,-0.284424
1480688184556140,0.230042,-0.665466,0.650635,-0.284424
1480688184586220,0.22998,-0.665466,0.650635,-0.284485
1480688184609280,0.22998,-0.665466,0.650635,-0.284485
1480688184613290,0.230042,-0.665466,0.650635,-0.284424
1480688184635850,0.230103,-0.665649,0.650452,-0.284363
1480688184674954,0.230408,-0.666016,0.650024,-0.284302
1480688184677460,0.230713,-0.666382,0.649597,-0.284119
1480688184698517,0.230713,-0.666382,0.649597,-0.284119
1480688184721078,0.230713,-0.666382,0.649597,-0.284119
1480688184750153,0.230713,-0.666382,0.649597,-0.284119
1480688184755672,0.230652,-0.666565,0.649475,-0.284058
1480688184778228,0.230652,-0.666809,0.649231,-0.283936
1480688184793269,0.230835,-0.667053,0.648987,-0.283813
1480688184815828,0.230835,-0.667175,0.648865,-0.283813
1480688184839893,0.230835,-0.667175,0.648865,-0.283875
1480688184861952,0.230957,-0.667297,0.648682,-0.283875
1480688184876991,0.23114,-0.667175,0.648682,-0.283997
1480688184911081,0.231262,-0.66687,0.648926,-0.28418
1480688184914591,0.231323,-0.666504,0.649109,-0.284424
1480688184951689,0.231323,-0.66626,0.649109,-0.284912
1480688184958207,0.231628,-0.665955,0.649048,-0.285583
1480688184973247,0.231995,-0.665405,0.649231,-0.286133
1480688184998815,0.232544,-0.664795,0.649292,-0.286987
1480688185026889,0.233215,-0.664246,0.649231,-0.287842
1480688185033407,0.233887,-0.663635,0.649353,-0.288574
1480688185062985,0.234497,-0.662903,0.649597,-0.289185
1480688185078026,0.235046,-0.66217,0.649841,-0.289917
1480688185093066,0.235474,-0.661316,0.650085,-0.290833
1480688185115625,0.235901,-0.660461,0.650452,-0.291748
1480688185138189,0.236267,-0.659973,0.650574,-0.292236
1480688185160745,0.236633,-0.659729,0.650513,-0.292542
1480688185183305,0.236938,-0.659485,0.650452,-0.292908
1480688185206368,0.237122,-0.65918,0.650696,-0.293152
1480688185221912,0.236938,-0.658691,0.651062,-0.293457
1480688185235445,0.236877,-0.658264,0.651367,-0.293823
1480688185258004,0.236816,-0.657837,0.651733,-0.293945
1480688185274548,0.237,-0.657532,0.651978,-0.294006
1480688185295605,0.237,-0.657532,0.651978,-0.293945
1480688185329193,0.237,-0.657532,0.651978,-0.293945
1480688185340729,0.237,-0.657532,0.651978,-0.293945
1480688185363283,0.236938,-0.657288,0.652222,-0.294006
1480688185378324,0.236938,-0.657288,0.652222,-0.294006
1480688185394868,0.236938,-0.657288,0.652222,-0.294006
1480688185415422,0.236938,-0.657288,0.652222,-0.294006
1480688185446505,0.236938,-0.657593,0.651978,-0.293884
1480688185462046,0.236877,-0.657837,0.651794,-0.293701
1480688185483102,0.236816,-0.658142,0.651611,-0.29364
1480688185501151,0.236816,-0.658142,0.651611,-0.29364
1480688185520703,0.236816,-0.658142,0.651611,-0.29364
1480688185535743,0.236816,-0.658142,0.65155,-0.29364
1480688185558303,0.236633,-0.658264,0.65155,-0.293579
1480688185575850,0.236511,-0.658447,0.651428,-0.293518
1480688185595401,0.236206,-0.65863,0.651428,-0.293457
1480688185620970,0.236023,-0.658997,0.651184,-0.293274
1480688185636009,0.236023,-0.659302,0.650879,-0.293152
1480688185672609,0.236023,-0.659485,0.650757,-0.293091
1480688185678121,0.23584,-0.659485,0.650818,-0.292969
1480688185696170,0.235779,-0.659546,0.65094,-0.292786
1480688185718729,0.235474,-0.659668,0.651001,-0.292542
1480688185741288,0.235168,-0.659973,0.651001,-0.292114
1480688185760842,0.234985,-0.660522,0.650757,-0.291565
1480688185778889,0.234924,-0.661255,0.650269,-0.291016
1480688185805964,0.234924,-0.662109,0.649719,-0.290283
1480688185815988,0.234924,-0.662903,0.649292,-0.28949
1480688185843561,0.234802,-0.663696,0.648804,-0.288879
1480688185858100,0.23468,-0.664368,0.648315,-0.288513
1480688185876148,0.234436,-0.664734,0.648071,-0.28833
1480688185895701,0.234131,-0.664978,0.648071,-0.288147
1480688185918260,0.233948,-0.665161,0.64801,-0.288025
1480688185940819,0.233826,-0.665405,0.647827,-0.287781
1480688185962879,0.233765,-0.665588,0.647766,-0.287598
1480688185985438,0.233765,-0.665894,0.647522,-0.287415
1480688185995966,0.233704,-0.666077,0.6474,-0.287292
1480688186017022,0.233704,-0.666077,0.6474,-0.287292
1480688186041086,0.233704,-0.666077,0.6474,-0.287292
1480688186056128,0.233704,-0.666077,0.647461,-0.287292
1480688186077182,0.233704,-0.666077,0.6474,-0.287292
1480688186098239,0.233704,-0.666138,0.6474,-0.287292
1480688186129322,0.233704,-0.666138,0.6474,-0.287292
1480688186135839,0.233704,-0.666138,0.6474,-0.287354
1480688186158398,0.233826,-0.666077,0.647339,-0.287476
1480688186181960,0.233826,-0.666138,0.647278,-0.287476
1480688186197003,0.234009,-0.666138,0.647034,-0.287781
1480688186227083,0.234253,-0.665955,0.646851,-0.288452
1480688186243625,0.234619,-0.665344,0.646973,-0.289368
1480688186273204,0.234863,-0.664307,0.647461,-0.290344
1480688186295262,0.234985,-0.663086,0.648315,-0.29126
1480688186308799,0.234985,-0.661926,0.649109,-0.292175
1480688186316820,0.235107,-0.661194,0.649475,-0.292786
1480688186339382,0.235474,-0.660889,0.649475,-0.293213
1480688186360435,0.235901,-0.660645,0.649353,-0.293701
1480688186376979,0.236145,-0.660278,0.649475,-0.294128
1480688186398036,0.236267,-0.659851,0.64978,-0.29425
1480688186420596,0.236206,-0.659546,0.650085,-0.294312
1480688186438645,0.236206,-0.659546,0.650085,-0.294312
1480688186458196,0.236023,-0.65979,0.650024,-0.294067
1480688186482259,0.235657,-0.660217,0.649841,-0.293701
1480688186503817,0.234985,-0.660767,0.64978,-0.293091
1480688186528383,0.234253,-0.661682,0.649658,-0.291992
1480688186547934,0.233521,-0.663452,0.648743,-0.290527
1480688186565982,0.233093,-0.665466,0.647522,-0.289001
1480688186585534,0.233032,-0.667236,0.646362,-0.287659
1480688186617619,0.233032,-0.668457,0.645508,-0.286743
1480688186620127,0.232849,-0.669006,0.645203,-0.286255
1480688186638176,0.232666,-0.669189,0.645203,-0.28595
1480688186662240,0.232483,-0.669312,0.645264,-0.285706
1480688186678782,0.232361,-0.669312,0.645386,-0.285461
1480688186705858,0.232361,-0.669373,0.645325,-0.285522
1480688186727914,0.232727,-0.669312,0.645203,-0.285706
1480688186739944,0.232971,-0.669006,0.645325,-0.286011
1480688186761502,0.233093,-0.668518,0.645569,-0.286316
1480688186783561,0.233093,-0.66803,0.645813,-0.286926
1480688186806123,0.233398,-0.667297,0.645996,-0.287903
1480688186827177,0.233765,-0.666016,0.64679,-0.288818
1480688186843720,0.233643,-0.664429,0.64801,-0.289795
1480688186873299,0.233398,-0.663513,0.648865,-0.290344
1480688186894355,0.233826,-0.663391,0.648743,-0.290466
1480688186918420,0.234436,-0.663635,0.648193,-0.290649
1480688186920926,0.234924,-0.663696,0.647888,-0.290833
1480688186937971,0.235046,-0.663208,0.648193,-0.291138
1480688186968052,0.234985,-0.66272,0.648621,-0.291321
1480688186978579,0.234924,-0.662354,0.648926,-0.291443
1480688187005655,0.234985,-0.662109,0.649109,-0.291687
1480688187028213,0.235229,-0.662109,0.648926,-0.291809
1480688187038741,0.235229,-0.662109,0.648926,-0.291809
1480688187058291,0.235229,-0.662109,0.648926,-0.291809
1480688187082857,0.235229,-0.662109,0.648926,-0.291809
1480688187102910,0.235229,-0.661865,0.64917,-0.29187
1480688187128478,0.235229,-0.661621,0.649414,-0.291992
1480688187151038,0.235291,-0.661499,0.649353,-0.292175
1480688187168083,0.235474,-0.661377,0.649292,-0.29248
1480688187179615,0.235596,-0.661255,0.649231,-0.292725
1480688187200670,0.235779,-0.661011,0.649414,-0.292847
1480688187219220,0.235901,-0.660767,0.649536,-0.292908
1480688187239774,0.235962,-0.660767,0.649536,-0.292908
1480688187268350,0.235779,-0.660828,0.649597,-0.292786
1480688187278377,0.235352,-0.661194,0.649597,-0.292297
1480688187299433,0.234863,-0.662354,0.64917,-0.291016
1480688187320491,0.23468,-0.664001,0.648132,-0.289734
1480688187338543,0.234497,-0.665588,0.647095,-0.288635
1480688187359593,0.234436,-0.666626,0.646362,-0.287781
1480688187380648,0.234497,-0.666992,0.64624,-0.28717
1480688187420255,0.234314,-0.667053,0.646423,-0.286804
1480688187427273,0.233704,-0.666931,0.646912,-0.286621
1480688187448346,0.233276,-0.666931,0.647034,-0.286499
1480688187465875,0.233215,-0.667603,0.646484,-0.286255
1480688187486931,0.233459,-0.668274,0.645752,-0.286133
1480688187507986,0.233643,-0.668457,0.645447,-0.286194
1480688187518515,0.233582,-0.668213,0.645691,-0.286438
1480688187541075,0.233398,-0.667725,0.646118,-0.286621
1480688187562132,0.233154,-0.66748,0.646362,-0.286804
1480688187592211,0.233093,-0.667358,0.646423,-0.28717
1480688187601235,0.233337,-0.667114,0.646423,-0.287537
1480688187620788,0.233398,-0.66626,0.646912,-0.288269
1480688187650868,0.233276,-0.665161,0.647827,-0.288879
1480688187660894,0.233215,-0.66449,0.648376,-0.289185
1480688187680445,0.233521,-0.664429,0.648254,-0.289429
1480688187703006,0.233948,-0.664551,0.647766,-0.289856
1480688187728574,0.234436,-0.664185,0.647766,-0.290344
1480688187740605,0.234619,-0.663574,0.648132,-0.29071
1480688187763166,0.234497,-0.663147,0.648499,-0.290955
1480688187787230,0.234619,-0.662964,0.648621,-0.291077
1480688187800766,0.234619,-0.662964,0.648621,-0.291077
1480688187823326,0.234558,-0.663269,0.648376,-0.291016
1480688187840873,0.234436,-0.663513,0.648193,-0.290955
1480688187863432,0.234375,-0.663696,0.648132,-0.290833
1480688187890504,0.234375,-0.663696,0.648132,-0.290833
1480688187906548,0.234131,-0.663635,0.648315,-0.290649
1480688187928104,0.233948,-0.664001,0.648193,-0.290283
1480688187950664,0.233765,-0.664795,0.647644,-0.289734
1480688187962195,0.233643,-0.665833,0.646912,-0.289063
1480688187983753,0.233643,-0.667114,0.645935,-0.288391
1480688188003304,0.233643,-0.667908,0.645264,-0.288025
1480688188042910,0.233521,-0.668335,0.64502,-0.28772
1480688188047923,0.233337,-0.668579,0.644897,-0.287476
1480688188062963,0.233154,-0.668701,0.644897,-0.287354
1480688188081011,0.233154,-0.668762,0.644836,-0.287354
1480688188103069,0.233154,-0.668762,0.644836,-0.287415
1480688188126131,0.233154,-0.668518,0.64502,-0.287537
1480688188141171,0.233093,-0.668335,0.645203,-0.287659
1480688188171251,0.233093,-0.668335,0.645203,-0.287659
1480688188186291,0.233215,-0.668335,0.645081,-0.287842
1480688188209353,0.233398,-0.668274,0.644958,-0.288025
1480688188229406,0.233521,-0.668213,0.644897,-0.288147
1480688188250462,0.233704,-0.668091,0.644958,-0.28833
1480688188260990,0.233826,-0.667664,0.645203,-0.288513
1480688188282048,0.233704,-0.667175,0.645691,-0.288635
1480688188303102,0.233521,-0.666992,0.645935,-0.288757
1480688188328670,0.233521,-0.666992,0.645935,-0.288757
1480688188342206,0.233765,-0.666931,0.645874,-0.288879
1480688188370782,0.233948,-0.666809,0.645874,-0.289001
1480688188381309,0.233948,-0.666565,0.646057,-0.289063
1480688188403369,0.233948,-0.666504,0.646057,-0.289063
1480688188422921,0.233948,-0.666504,0.646057,-0.289124
1480688188448488,0.233887,-0.666748,0.645874,-0.289124
1480688188468041,0.233887,-0.666748,0.645874,-0.289185
1480688188486088,0.233887,-0.666748,0.645874,-0.289185
1480688188514664,0.233765,-0.666626,0.645996,-0.289246
1480688188539732,0.233643,-0.666443,0.646179,-0.289307
1480688188544744,0.233643,-0.666443,0.646179,-0.289307
1480688188561289,0.233643,-0.666443,0.646179,-0.289307
1480688188583848,0.233643,-0.666443,0.646179,-0.289368
1480688188602899,0.233643,-0.666443,0.646179,-0.289368
1480688188621950,0.233826,-0.666504,0.646057,-0.289307
1480688188646515,0.233826,-0.666504,0.646118,-0.289307
1480688188670580,0.233826,-0.666504,0.646118,-0.289307
1480688188681106,0.233826,-0.666504,0.646118,-0.289307
1480688188703667,0.233826,-0.666504,0.646118,-0.289307
1480688188724724,0.233826,-0.666504,0.646118,-0.289307
1480688188741768,0.233765,-0.666504,0.646118,-0.289307
1480688188763827,0.233765,-0.666504,0.646118,-0.289307
1480688188797416,0.233765,-0.666504,0.646118,-0.289307
1480688188802429,0.233765,-0.666504,0.646118,-0.289307
1480688188838529,0.233765,-0.666504,0.646057,-0.289307
1480688188850559,0.233765,-0.666504,0.646057,-0.289307
1480688188861085,0.233765,-0.666504,0.646057,-0.289307
1480688188883646,0.233765,-0.666504,0.646057,-0.289307
1480688188903197,0.233765,-0.666504,0.646057,-0.289307
1480688188921248,0.233765,-0.666504,0.646057,-0.289307
1480688188949822,0.233765,-0.666504,0.646057,-0.289368
1480688188964360,0.233765,-0.666504,0.646057,-0.289368
1480688188980904,0.233704,-0.666504,0.646057,-0.289368
1480688189003464,0.233704,-0.666504,0.646057,-0.289368
1480688189024520,0.233704,-0.666504,0.646057,-0.289368
1480688189043573,0.233704,-0.666504,0.646057,-0.289368
1480688189063624,0.233704,-0.666504,0.646057,-0.289368
1480688189093704,0.233704,-0.666504,0.646057,-0.289368
1480688189114760,0.233765,-0.666321,0.646179,-0.28949
1480688189140829,0.233765,-0.666321,0.646179,-0.28949
1480688189144843,0.233765,-0.666321,0.646179,-0.28949
1480688189165395,0.233765,-0.666321,0.646179,-0.28949
1480688189183443,0.233704,-0.666321,0.64624,-0.28949
1480688189204498,0.233704,-0.666321,0.64624,-0.28949
1480688189225555,0.233643,-0.666382,0.64624,-0.289368
1480688189256137,0.233643,-0.666809,0.645874,-0.289124
1480688189272179,0.233887,-0.667114,0.64563,-0.288757
1480688189285715,0.234131,-0.667419,0.645447,-0.288452
1480688189304265,0.234131,-0.667358,0.645447,-0.288452
1480688189324819,0.234131,-0.667419,0.645447,-0.288452
1480688189345875,0.234131,-0.667419,0.645447,-0.288452
1480688189370941,0.234253,-0.667603,0.645203,-0.28833
1480688189394003,0.234436,-0.667847,0.644958,-0.288208
1480688189414559,0.234619,-0.66803,0.644714,-0.288086
1480688189423583,0.234619,-0.66803,0.644714,-0.288086
1480688189448147,0.234619,-0.668091,0.644714,-0.288086
1480688189465694,0.234497,-0.667847,0.644897,-0.288269
1480688189483741,0.234436,-0.667847,0.644897,-0.288269
1480688189507806,0.234436,-0.667847,0.644897,-0.288269
1480688189532873,0.234436,-0.667847,0.644897,-0.288269
1480688189543400,0.234436,-0.667847,0.644897,-0.288269
1480688189566461,0.234436,-0.667847,0.644897,-0.288269
1480688189593032,0.234497,-0.667847,0.644897,-0.288269
1480688189603560,0.23468,-0.667969,0.644714,-0.288208
1480688189626120,0.23468,-0.667969,0.644714,-0.288208
1480688189645671,0.23468,-0.667969,0.644714,-0.288208
1480688189671248,0.23468,-0.667969,0.644714,-0.288208
1480688189692296,0.23468,-0.667969,0.644714,-0.288208
1480688189705833,0.23468,-0.667969,0.644714,-0.288208
1480688189723379,0.234619,-0.667969,0.644714,-0.288269
1480688189745938,0.234619,-0.66803,0.644714,-0.288269
1480688189765992,0.234619,-0.66803,0.644714,-0.288269
1480688189783538,0.234802,-0.668091,0.644592,-0.288147
1480688189810612,0.234802,-0.668274,0.644409,-0.288086
1480688189825650,0.234802,-0.668274,0.644409,-0.288086
1480688189843698,0.234741,-0.668274,0.64447,-0.288147
1480688189880797,0.234741,-0.668274,0.64447,-0.288147
1480688189893330,0.234741,-0.668274,0.64447,-0.288147
1480688189903358,0.234802,-0.668396,0.644287,-0.288086
1480688189925918,0.234802,-0.668396,0.644287,-0.288086
1480688189948477,0.234802,-0.668457,0.644226,-0.288086
1480688189968029,0.234619,-0.668335,0.644348,-0.288208
1480688189990590,0.234619,-0.668335,0.644348,-0.288208
1480688190013149,0.234619,-0.668335,0.644348,-0.288208
1480688190023678,0.234619,-0.668579,0.644165,-0.288208
1480688190059271,0.23468,-0.668884,0.64386,-0.288086
1480688190067294,0.23468,-0.669312,0.643494,-0.287842
1480688190088850,0.234802,-0.669617,0.643188,-0.287659
1480688190111913,0.234802,-0.669861,0.643005,-0.287537
1480688190126952,0.234802,-0.669922,0.642944,-0.287598
1480688190156531,0.234802,-0.669922,0.642944,-0.287598
1480688190174077,0.234802,-0.669922,0.642944,-0.287598
1480688190204157,0.234802,-0.669922,0.642944,-0.287598
1480688190205660,0.234741,-0.669922,0.642944,-0.287598
1480688190226215,0.234558,-0.670044,0.642944,-0.287537
1480688190247271,0.234436,-0.670288,0.642761,-0.287476
1480688190268327,0.234436,-0.670471,0.642639,-0.287292
1480688190292893,0.234314,-0.670715,0.642456,-0.287109
1480688190324478,0.234314,-0.671021,0.642212,-0.286987
1480688190328988,0.234314,-0.671021,0.642212,-0.286987
1480688190345031,0.234131,-0.670898,0.642395,-0.287109
1480688190367591,0.233887,-0.670776,0.642517,-0.287231
1480688190390153,0.233704,-0.670715,0.642639,-0.287415
1480688190405196,0.233459,-0.670593,0.6427,-0.287598
1480688190427752,0.233459,-0.670654,0.6427,-0.287598
1480688190457832,0.233276,-0.670654,0.642578,-0.287903
1480688190480391,0.233093,-0.670776,0.642334,-0.288391
1480688190493927,0.233337,-0.671326,0.641602,-0.288574
1480688190516487,0.233826,-0.67157,0.641113,-0.288635
1480688190525512,0.234253,-0.671387,0.641052,-0.288696
1480688190547570,0.234497,-0.671021,0.641357,-0.288879
1480688190568627,0.23468,-0.670471,0.641785,-0.28894
1480688190585170,0.23468,-0.669922,0.642334,-0.289001
1480688190615752,0.234802,-0.669495,0.642761,-0.28894
1480688190629287,0.234802,-0.669495,0.642883,-0.288757
1480688190645329,0.234741,-0.669495,0.642944,-0.288574
1480688190668392,0.234802,-0.669678,0.642883,-0.288269
1480688190688946,0.234863,-0.669678,0.642883,-0.288208
1480688190704989,0.234863,-0.669434,0.643188,-0.288025
1480688190736573,0.23468,-0.669373,0.643494,-0.287842
1480688190750109,0.234558,-0.669495,0.643494,-0.287537
1480688190772669,0.234497,-0.669739,0.643433,-0.287231
1480688190787711,0.234375,-0.669861,0.643433,-0.286987
1480688190810268,0.234253,-0.669983,0.643433,-0.286804
1480688190825309,0.234253,-0.669983,0.643433,-0.286804
1480688190847868,0.234253,-0.6698,0.643616,-0.286682
1480688190868924,0.234253,-0.6698,0.643616,-0.286682
1480688190886472,0.234253,-0.669861,0.643616,-0.286682
1480688190907527,0.234253,-0.669861,0.643616,-0.286682
1480688190936104,0.234253,-0.669861,0.643616,-0.286743
1480688190946131,0.234253,-0.669861,0.643616,-0.286743
1480688190967688,0.234253,-0.669861,0.643616,-0.286682
1480688190991251,0.234253,-0.669861,0.643616,-0.286743
1480688191006791,0.234436,-0.669678,0.643677,-0.286743
1480688191028350,0.234619,-0.669556,0.643799,-0.286743
1480688191056424,0.234802,-0.669373,0.64386,-0.286804
1480688191064948,0.235168,-0.669128,0.643921,-0.286926
1480688191094023,0.235474,-0.668945,0.644043,-0.286926
1480688191109564,0.235596,-0.668762,0.644104,-0.286987
1480688191125107,0.235596,-0.668823,0.644104,-0.286987
1480688191153683,0.235596,-0.668823,0.644043,-0.286987
1480688191177745,0.235596,-0.668823,0.644043,-0.286987
1480688191185266,0.235535,-0.668579,0.644287,-0.287048
1480688191221865,0.235596,-0.668396,0.64447,-0.287048
1480688191229383,0.235596,-0.668396,0.64447,-0.287048
1480688191245425,0.235596,-0.668396,0.64447,-0.287109
1480688191267987,0.235596,-0.668396,0.64447,-0.287109
1480688191290546,0.235596,-0.668396,0.64447,-0.287109
1480688191305587,0.235596,-0.668274,0.644592,-0.287048
1480688191334163,0.235596,-0.668274,0.644592,-0.287048
1480688191357724,0.235596,-0.668274,0.644592,-0.287048
1480688191371264,0.235596,-0.668274,0.644592,-0.287048
1480688191387806,0.235596,-0.668274,0.644592,-0.287048
1480688191410364,0.235596,-0.668274,0.644592,-0.287048
1480688191431922,0.235596,-0.668274,0.644592,-0.287109
1480688191447462,0.235596,-0.668274,0.644592,-0.287109
1480688191494088,0.235596,-0.668274,0.644592,-0.287109
1480688191498599,0.235718,-0.668091,0.644714,-0.287109
1480688191515143,0.23584,-0.667847,0.644958,-0.287109
1480688191530183,0.23584,-0.667847,0.644958,-0.287109
1480688191544721,0.23584,-0.667847,0.644958,-0.287109
1480688191567783,0.235718,-0.66803,0.644775,-0.28717
1480688191590344,0.235657,-0.668213,0.644592,-0.287231
1480688191604882,0.235535,-0.668396,0.644409,-0.287231
1480688191635463,0.235352,-0.668396,0.644409,-0.287415
1480688191657021,0.235046,-0.668457,0.644348,-0.287598
1480688191671561,0.235046,-0.668457,0.644348,-0.287659
1480688191687602,0.234985,-0.668457,0.644409,-0.287659
1480688191710161,0.235168,-0.668457,0.644287,-0.287781
1480688191731218,0.235168,-0.668457,0.644287,-0.287781
1480688191756786,0.235168,-0.668457,0.644287,-0.28772
1480688191776338,0.235168,-0.668457,0.644287,-0.287781
1480688191792380,0.235107,-0.668213,0.64447,-0.287903
1480688191808925,0.235107,-0.668213,0.644409,-0.287903
1480688191830482,0.235107,-0.668274,0.644409,-0.287903
1480688191851036,0.235107,-0.668213,0.644409,-0.287903
1480688191867580,0.235107,-0.668274,0.644409,-0.287903
1480688191890141,0.235107,-0.668213,0.644409,-0.287903
1480688191912701,0.235107,-0.668213,0.644409,-0.287964
1480688191928243,0.235107,-0.668213,0.644409,-0.287964
1480688191950300,0.235046,-0.668213,0.644409,-0.287964
1480688191971356,0.235107,-0.668213,0.644409,-0.287964
1480688191987900,0.235107,-0.668213,0.64447,-0.287964
1480688192010460,0.235107,-0.668213,0.64447,-0.287964
1480688192031015,0.235046,-0.668213,0.64447,-0.287964
1480688192047558,0.235046,-0.668213,0.644409,-0.287964
1480688192077639,0.235046,-0.668213,0.644409,-0.288025
1480688192098695,0.234985,-0.668213,0.644409,-0.288025
1480688192115238,0.234985,-0.668213,0.644409,-0.288025
1480688192137819,0.234985,-0.668274,0.644409,-0.288086
1480688192151335,0.235291,-0.668274,0.644226,-0.288208
1480688192167879,0.235596,-0.66803,0.644226,-0.288391
1480688192190940,0.235901,-0.667664,0.644409,-0.288574
1480688192219016,0.236328,-0.667297,0.644592,-0.288818
1480688192227540,0.236511,-0.666931,0.644714,-0.289124
1480688192250601,0.236694,-0.666626,0.644836,-0.289429
1480688192272658,0.236755,-0.666565,0.644836,-0.289551
1480688192287699,0.236755,-0.666565,0.644836,-0.289551
1480688192310257,0.236755,-0.666565,0.644836,-0.289612
1480688192333820,0.236755,-0.666504,0.644836,-0.289612
1480688192355379,0.236694,-0.666504,0.644836,-0.289612
1480688192371424,0.236694,-0.666504,0.644836,-0.289612
1480688192392978,0.236694,-0.666504,0.644836,-0.289673
1480688192407516,0.236694,-0.666504,0.644836,-0.289673
1480688192437601,0.236633,-0.666504,0.644836,-0.289673
1480688192460156,0.236633,-0.666504,0.644836,-0.289734
1480688192467175,0.236511,-0.666382,0.64502,-0.289795
1480688192490237,0.236511,-0.666199,0.645203,-0.289795
1480688192512795,0.23645,-0.666138,0.645203,-0.289856
1480688192535356,0.23645,-0.666138,0.645203,-0.289856
1480688192550397,0.23645,-0.666138,0.645203,-0.289856
1480688192572956,0.236511,-0.666138,0.645142,-0.290039
1480688192586993,0.236694,-0.666016,0.645142,-0.290222
1480688192610054,0.236877,-0.665833,0.645142,-0.290405
1480688192633115,0.237122,-0.66571,0.645142,-0.290527
1480688192653673,0.237366,-0.665466,0.645142,-0.290771
1480688192670719,0.237488,-0.665039,0.645386,-0.29126
1480688192693778,0.237305,-0.664612,0.645752,-0.291565
1480688192715335,0.237244,-0.664368,0.645996,-0.291687
1480688192737897,0.237366,-0.664368,0.645813,-0.291809
1480688192753938,0.237671,-0.664429,0.645691,-0.291809
1480688192773488,0.237671,-0.664429,0.645691,-0.291809
1480688192790033,0.237793,-0.664246,0.645813,-0.29187
1480688192813095,0.237915,-0.664001,0.645996,-0.29187
1480688192833649,0.237976,-0.663696,0.64624,-0.291992
1480688192850193,0.238037,-0.663513,0.646423,-0.291992
1480688192872753,0.23822,-0.66333,0.646545,-0.291992
1480688192901329,0.238281,-0.663269,0.646606,-0.291931
1480688192910352,0.238342,-0.663147,0.646729,-0.29187
1480688192932913,0.238403,-0.662964,0.646912,-0.291809
1480688192953973,0.238403,-0.662781,0.647095,-0.29187
1480688192971017,0.238403,-0.662537,0.647339,-0.291931
1480688192993073,0.238403,-0.662537,0.647278,-0.291931
1480688193013629,0.238403,-0.662537,0.647278,-0.291931
1480688193030171,0.238403,-0.662537,0.647278,-0.291931
1480688193052733,0.238403,-0.662537,0.647339,-0.291931
1480688193073787,0.238342,-0.662537,0.647339,-0.291992
1480688193090332,0.238403,-0.662354,0.647461,-0.292053
1480688193112892,0.238525,-0.662048,0.647644,-0.292114
1480688193142972,0.238708,-0.661804,0.647888,-0.292114
1480688193149990,0.238831,-0.661621,0.64801,-0.292114
1480688193172550,0.238892,-0.661316,0.648315,-0.292053
1480688193195614,0.23877,-0.661133,0.64856,-0.292053
1480688193210150,0.23877,-0.661072,0.648621,-0.292114
1480688193233713,0.239014,-0.661072,0.648499,-0.292175
1480688193255271,0.239014,-0.661072,0.648499,-0.292175
1480688193277830,0.239258,-0.661072,0.648438,-0.292053
1480688193298887,0.239258,-0.661011,0.648438,-0.292053
1480688193321447,0.239258,-0.661011,0.648438,-0.292053
1480688193330472,0.239258,-0.660828,0.648621,-0.292114
1480688193352530,0.239258,-0.660645,0.648804,-0.292236
1480688193376092,0.239258,-0.660645,0.648804,-0.292236
1480688193397649,0.239258,-0.660645,0.648804,-0.292236
1480688193412689,0.239319,-0.660583,0.648804,-0.292236
1480688193442768,0.239319,-0.660645,0.648804,-0.292236
1480688193456305,0.239319,-0.660645,0.648804,-0.292236
1480688193472849,0.239319,-0.660645,0.648804,-0.292175
1480688193502930,0.23938,-0.6604,0.649048,-0.292175
1480688193509445,0.23938,-0.6604,0.649048,-0.292175
1480688193532508,0.23938,-0.6604,0.649048,-0.292114
1480688193555068,0.23938,-0.6604,0.649048,-0.292114
1480688193569607,0.23938,-0.6604,0.649048,-0.292175
1480688193600187,0.239319,-0.660339,0.649048,-0.292175
1480688193615729,0.239441,-0.660583,0.648926,-0.29187
1480688193636283,0.239624,-0.660889,0.648621,-0.291687
1480688193652827,0.239929,-0.661133,0.648315,-0.291504
1480688193683409,0.240173,-0.661255,0.648193,-0.291443
1480688193696443,0.240173,-0.661255,0.648193,-0.291443
1480688193712485,0.240051,-0.661194,0.648254,-0.291504
1480688193735046,0.239868,-0.661011,0.648438,-0.291626
1480688193765126,0.239624,-0.661011,0.64856,-0.291626
1480688193772646,0.239624,-0.661011,0.648499,-0.291626
1480688193795206,0.239563,-0.660889,0.648621,-0.291809
1480688193816763,0.239624,-0.660889,0.648621,-0.291809
1480688193832806,0.239319,-0.660889,0.648682,-0.29187
1480688193855367,0.239319,-0.660889,0.648682,-0.29187
1480688193878428,0.239319,-0.660889,0.648682,-0.29187
1480688193892464,0.239319,-0.660889,0.648682,-0.291931
1480688193929564,0.239258,-0.660889,0.648682,-0.291931
1480688193937586,0.239258,-0.660889,0.648682,-0.291931
1480688193952625,0.239258,-0.660889,0.648682,-0.291931
1480688193975184,0.239258,-0.660889,0.648682,-0.291931
1480688193996241,0.239258,-0.660889,0.648682,-0.291931
1480688194012785,0.239136,-0.660767,0.648804,-0.292053
1480688194035345,0.238953,-0.660583,0.648987,-0.292175
1480688194056401,0.238953,-0.660522,0.648987,-0.292175
1480688194077457,0.238953,-0.660522,0.648987,-0.292175
1480688194111046,0.238953,-0.660522,0.648987,-0.292175
1480688194117563,0.239014,-0.660645,0.648865,-0.292236
1480688194132603,0.239075,-0.660828,0.648621,-0.292297
1480688194155163,0.239075,-0.660767,0.648682,-0.292297
1480688194183739,0.239136,-0.660767,0.648682,-0.292297
1480688194193766,0.239136,-0.660767,0.648682,-0.292297
1480688194216326,0.239075,-0.660767,0.648682,-0.292297
1480688194237886,0.239075,-0.660767,0.648682,-0.292297
1480688194251920,0.239136,-0.660889,0.648499,-0.292358
1480688194274981,0.239319,-0.661133,0.648193,-0.292358
1480688194297544,0.239441,-0.661316,0.64801,-0.292358
1480688194321105,0.239441,-0.661316,0.64801,-0.292297
1480688194342663,0.239441,-0.661316,0.64801,-0.292297
1480688194357702,0.239441,-0.661316,0.64801,-0.292358
1480688194388785,0.239441,-0.661316,0.64801,-0.292358
1480688194394801,0.239258,-0.661499,0.647888,-0.292175
1480688194417862,0.239136,-0.66217,0.647461,-0.29187
1480688194431899,0.238953,-0.662842,0.646973,-0.291504
1480688194460475,0.238586,-0.663269,0.646729,-0.291321
1480688194485040,0.238159,-0.663269,0.646912,-0.29126
1480688194492561,0.237732,-0.663147,0.647217,-0.29126
1480688194515128,0.237671,-0.663208,0.647217,-0.29126
1480688194538190,0.237732,-0.663208,0.647217,-0.29126
1480688194552228,0.237732,-0.663452,0.647034,-0.290955
1480688194575289,0.237671,-0.66394,0.646729,-0.290649
1480688194597850,0.23761,-0.664612,0.64624,-0.290283
1480688194618905,0.237549,-0.665161,0.645813,-0.289978
1480688194634947,0.237366,-0.665527,0.645569,-0.289795
1480688194665028,0.237061,-0.66571,0.645569,-0.289612
1480688194679065,0.236755,-0.665894,0.64563,-0.289368
1480688194696110,0.236572,-0.666138,0.645569,-0.289001
1480688194734212,0.236328,-0.666565,0.645386,-0.288696
1480688194740228,0.236267,-0.667114,0.64502,-0.28833
1480688194755770,0.236145,-0.667664,0.644592,-0.288086
1480688194777827,0.236084,-0.668091,0.644226,-0.287842
1480688194798884,0.236084,-0.668335,0.644043,-0.28772
1480688194815428,0.236084,-0.668396,0.644043,-0.28772
1480688194846009,0.236084,-0.668213,0.644165,-0.287781
1480688194859546,0.236145,-0.66803,0.644348,-0.287842
1480688194875086,0.236023,-0.667847,0.644531,-0.287903
1480688194897647,0.23584,-0.667725,0.644714,-0.287964
1480688194920211,0.23584,-0.667725,0.644714,-0.287964
1480688194935748,0.23584,-0.667725,0.644714,-0.287964
1480688194965326,0.23584,-0.667664,0.644714,-0.288025
1480688194986382,0.23584,-0.667664,0.644714,-0.288025
1480688195001422,0.235901,-0.66748,0.644836,-0.288147
1480688195019972,0.235901,-0.667175,0.64502,-0.28833
1480688195040025,0.235962,-0.666809,0.645325,-0.288513
1480688195055065,0.236023,-0.666443,0.645569,-0.288757
1480688195077625,0.236206,-0.66626,0.64563,-0.28894
1480688195100185,0.23645,-0.666199,0.645569,-0.289001
1480688195115225,0.236633,-0.66626,0.645386,-0.289124
1480688195137785,0.236755,-0.666199,0.645325,-0.289307
1480688195160847,0.236816,-0.666077,0.645264,-0.289612
1480688195181400,0.236938,-0.665955,0.645203,-0.289978
1480688195197443,0.237305,-0.665955,0.644958,-0.290222
1480688195221007,0.237549,-0.665833,0.644958,-0.290466
1480688195242563,0.237427,-0.665405,0.645264,-0.29071
1480688195258105,0.237488,-0.6651,0.645447,-0.290955
1480688195280163,0.237549,-0.664795,0.645691,-0.291077
1480688195302724,0.237671,-0.664612,0.645752,-0.291199
1480688195318264,0.237793,-0.66449,0.645813,-0.291321
1480688195340323,0.237793,-0.66449,0.645813,-0.29126
1480688195354361,0.237854,-0.66449,0.645813,-0.29126
1480688195377924,0.237854,-0.66449,0.645813,-0.29126
1480688195400984,0.237793,-0.66449,0.645813,-0.291321
1480688195414521,0.237793,-0.664429,0.645813,-0.291321
1480688195437583,0.237793,-0.66449,0.645813,-0.291321
1480688195460643,0.237793,-0.664429,0.645813,-0.291321
1480688195474681,0.237793,-0.664429,0.645813,-0.291321
1480688195497742,0.237793,-0.66449,0.645813,-0.291321
1480688195520307,0.237793,-0.664185,0.646118,-0.291382
1480688195541357,0.237732,-0.663879,0.646362,-0.291504
1480688195557904,0.237549,-0.663452,0.64679,-0.291626
1480688195580461,0.237366,-0.662781,0.647583,-0.291687
1480688195601018,0.236938,-0.661987,0.648499,-0.291748
1480688195617560,0.236511,-0.661377,0.649231,-0.291809
1480688195640622,0.235962,-0.660645,0.650085,-0.291992
1480688195661177,0.235474,-0.660156,0.650635,-0.292297
1480688195677720,0.235229,-0.659851,0.650879,-0.292603
1480688195707800,0.235413,-0.659973,0.650757,-0.29248
1480688195722841,0.235657,-0.660034,0.650635,-0.292419
1480688195752921,0.23584,-0.660034,0.650513,-0.29248
1480688195760441,0.236084,-0.659973,0.650452,-0.292603
1480688195780995,0.236328,-0.659851,0.650513,-0.292664
1480688195797539,0.236511,-0.659973,0.650269,-0.292664
1480688195820099,0.236633,-0.660095,0.650024,-0.292786
1480688195841155,0.236755,-0.660034,0.650024,-0.292908
1480688195857700,0.236755,-0.660034,0.650024,-0.292908
1480688195880259,0.236755,-0.660034,0.650024,-0.292908
1480688195901315,0.236755,-0.660034,0.649963,-0.292908
1480688195917859,0.236755,-0.660156,0.649902,-0.292908
1480688195940920,0.236755,-0.660156,0.649902,-0.292908
1480688195961474,0.236694,-0.660156,0.649902,-0.292908
1480688195985038,0.236694,-0.660156,0.649902,-0.292908
1480688196007598,0.236694,-0.660156,0.649902,-0.292908
1480688196031161,0.236694,-0.660156,0.649902,-0.292908
1480688196045198,0.236694,-0.660156,0.649902,-0.292908
1480688196060238,0.236694,-0.660156,0.649902,-0.292969
1480688196083299,0.236694,-0.660156,0.649902,-0.292969
1480688196096835,0.236694,-0.660156,0.649902,-0.292969
1480688196120397,0.236694,-0.660156,0.649902,-0.292969
1480688196142456,0.236694,-0.660156,0.649902,-0.292969
1480688196157997,0.236694,-0.660156,0.649902,-0.292969
1480688196187576,0.236633,-0.660156,0.649902,-0.292969
1480688196203624,0.236633,-0.660156,0.649902,-0.292969
1480688196217156,0.236694,-0.660156,0.649902,-0.292969
1480688196240717,0.236694,-0.660156,0.649902,-0.292969
