timestamp,emg1,emg2,emg3,emg4,emg5,emg6,emg7,emg8
1480528389442326,-3,-4,-9,-2,-5,0,-2,-1
1480528389442326,1,0,1,-5,-1,2,0,0
1480528389443329,-2,-2,2,-1,-2,-2,-1,-1
1480528389443329,-1,-2,-3,-2,1,-2,-1,0
1480528389464886,0,-2,-5,6,3,-3,-1,-1
1480528389464886,0,0,-1,8,-4,-1,-1,0
1480528389465889,-2,-2,-2,-20,-9,0,-1,-1
1480528389465889,-1,0,3,4,3,2,0,0
1480528389487446,0,1,3,-8,-1,-1,1,1
1480528389487446,-1,-1,-2,3,2,-1,-2,-2
1480528389488453,0,1,-4,8,1,-1,-2,-2
1480528389488453,-1,-1,5,-15,-5,0,1,-2
1480528389503990,-5,-6,-11,2,2,1,1,-1
1480528389503990,-2,4,1,-2,-5,-1,-1,-1
1480528389504996,-1,0,3,8,2,-1,-2,-2
1480528389504996,1,1,2,-1,1,-1,-1,0
1480528389525046,0,-1,0,3,-5,-2,-2,-2
1480528389525046,-2,0,-3,-3,5,0,-1,-1
1480528389533068,1,1,5,12,3,1,-1,-1
1480528389533068,-1,-3,-4,-22,-8,-2,-3,-1
1480528389547606,0,1,-1,13,2,-1,-1,0
1480528389547606,0,-2,-3,-16,-4,-1,0,-1
1480528389548107,1,0,1,5,1,-1,1,-1
1480528389548107,0,1,-3,10,2,0,-1,-3
1480528389562145,1,2,1,-16,-7,1,0,2
1480528389562145,0,0,0,2,1,-2,-1,-1
1480528389563148,0,-3,0,-3,-1,1,0,0
1480528389563148,-1,-2,0,7,2,1,1,-1
1480528389584705,2,3,0,6,1,0,0,-1
1480528389584705,0,-2,-2,2,-3,-2,0,-1
1480528389585709,0,1,-1,-5,-3,-1,-1,-1
1480528389585709,0,-1,-3,-3,-1,-3,0,1
1480528389607266,-2,-2,0,-5,-3,-3,-3,-2
1480528389607266,0,-1,0,10,4,2,1,0
1480528389608268,-1,0,-3,-3,1,0,0,-1
1480528389608268,0,2,6,11,3,-1,1,1
1480528389622807,1,-1,-1,-13,-2,1,0,0
1480528389622807,-1,-2,2,3,1,0,0,-1
1480528389629825,-2,-1,-4,-19,-9,-2,0,0
1480528389629825,-1,0,-3,4,1,1,-1,2
1480528389644865,-2,-3,-3,-5,-4,-1,0,-1
1480528389644865,-2,-4,4,2,1,0,0,0
1480528389645868,-1,0,1,5,1,-1,-2,1
1480528389645868,-2,-2,-1,-3,0,0,0,0
1480528389675447,1,3,2,8,6,0,-2,0
1480528389675447,-1,-4,-6,-9,-8,0,-2,-1
1480528389676449,-1,-2,1,5,6,1,1,-1
1480528389676449,0,-1,-4,-6,-2,0,0,-2
1480528389682465,-2,-4,0,9,1,-2,0,0
1480528389682465,-1,1,-5,-3,-2,0,-1,-3
1480528389683468,0,-3,-4,5,1,0,0,-1
1480528389683468,1,0,1,-2,0,0,0,-2
1480528389705025,-1,-2,-1,-1,-1,-1,1,0
1480528389705025,1,5,4,0,-2,-1,-1,1
1480528389706030,-1,2,1,-2,2,-1,0,2
1480528389706030,-2,-1,-2,2,-3,-3,-1,-2
1480528389727585,-3,-6,-3,-5,2,0,-2,0
1480528389727585,0,-1,-1,4,0,-2,1,-1
1480528389728087,0,3,2,0,-2,0,0,1
1480528389728087,0,1,-2,-1,0,-2,1,2
1480528389741623,-1,-2,0,4,3,-2,0,0
1480528389741623,1,2,4,-6,-3,-1,0,0
1480528389749643,-1,1,2,6,1,-1,0,-3
1480528389749643,-1,-2,-6,-8,1,1,-2,-1
1480528389764683,0,0,5,11,-2,1,0,-1
1480528389764683,2,0,-1,6,6,0,-1,1
1480528389765686,0,-2,-1,-7,-1,-1,0,-1
1480528389765686,0,4,6,-10,-6,-1,-2,0
1480528389787245,0,3,0,8,2,-1,0,1
1480528389787245,-3,-7,-5,-14,-2,-1,0,-1
1480528389788249,0,1,0,6,-3,-3,-2,-1
1480528389788249,-1,-4,-3,9,2,-2,-1,-1
1480528389802284,2,3,2,-12,-7,0,0,-1
1480528389802284,1,2,0,3,0,-2,-1,0
1480528389817324,-2,-8,-9,-6,-5,0,0,-2
1480528389817324,-4,-1,1,-3,-2,1,-2,-1
1480528389824844,-1,0,-2,10,4,1,0,-1
1480528389824844,0,-1,-2,-12,-3,-1,-1,0
1480528389825847,-1,0,-5,0,-4,-1,-2,-2
1480528389825847,0,-4,1,3,-3,-2,1,-1
1480528389847410,-1,0,-1,0,2,1,0,-1
1480528389847410,-1,-4,-7,-1,-6,-1,-1,0
1480528389848406,-1,1,-1,0,1,0,-1,0
1480528389848406,1,5,2,0,3,1,-1,-1
1480528389861942,-1,-1,-3,-14,-6,-2,0,0
1480528389861942,0,-2,-2,0,2,1,0,-1
1480528389869964,-1,-1,2,2,-1,0,-1,-2
1480528389869964,-2,-5,-5,-8,-4,1,-1,-1
1480528389885003,-2,-3,-6,5,2,0,-1,0
1480528389885003,0,2,-2,-11,-5,-3,-2,0
1480528389885505,1,-1,4,7,0,-1,0,0
1480528389885505,1,0,1,4,3,1,1,-1
1480528389907564,-1,-2,-5,-10,-5,-3,-1,-2
1480528389907564,-1,3,-1,3,5,3,0,-1
1480528389908065,2,0,0,2,0,0,-2,0
1480528389908065,-1,-2,-4,-4,-2,-2,-1,-1
1480528389921603,-2,2,3,0,2,2,-2,-2
1480528389921603,1,4,2,9,0,0,0,1
1480528389930124,-2,-3,-1,-9,-2,-2,-2,-1
1480528389930124,-1,-3,-2,2,-3,1,-1,0
1480528389953185,0,1,3,7,7,0,0,-1
1480528389953185,0,0,2,-2,-2,-1,0,0
1480528389959702,0,-2,-8,-4,-3,-1,-1,-1
1480528389959702,2,1,-1,-2,1,-3,-1,0
1480528389968225,0,1,0,1,-2,-1,0,0
1480528389968225,0,1,0,7,0,-2,-2,-1
1480528389968727,2,0,0,7,3,-1,1,0
1480528389968727,-3,-3,-2,-17,-4,0,0,0
1480528389981761,2,0,-1,-8,-4,-3,0,0
1480528389981761,-2,0,2,5,-2,0,1,-1
1480528389989784,0,0,-3,-5,0,0,-1,-1
1480528389989784,-3,-2,-3,9,4,0,-1,0
1480528390012843,1,1,3,5,1,-1,-2,-2
1480528390012843,1,-1,0,-4,0,-1,0,-2
1480528390013846,0,1,0,-3,-2,-2,-1,-1
1480528390013846,1,1,4,3,-2,-2,-2,-1
1480528390027382,0,-4,-3,-12,-4,0,1,0
1480528390027382,1,0,-1,0,0,-1,-1,0
1480528390028385,-2,1,-1,6,-3,-1,1,0
1480528390028385,0,-1,2,-10,-1,1,-2,0
1480528390041937,-2,-4,1,5,2,2,0,-1
1480528390041937,0,-1,2,-10,-3,0,-2,0
1480528390049942,-3,-4,-10,6,4,-2,-1,0
1480528390049942,2,2,-1,-15,-4,-1,0,-1
1480528390064982,0,0,-2,9,-1,0,0,0
1480528390064982,-1,-1,2,6,0,1,-2,-3
1480528390065484,1,-1,5,-7,1,2,-1,1
1480528390065484,-1,0,-2,9,-1,-3,0,0
1480528390087543,-1,0,-4,0,-2,-1,-1,1
1480528390087543,-4,-2,-2,3,1,-1,-1,0
1480528390088549,1,1,2,-5,0,-1,0,0
1480528390088549,1,-2,1,8,2,1,0,0
1480528390101580,-2,-4,-1,-5,-4,-1,-1,1
1480528390101580,-1,-2,0,3,1,-1,0,0
1480528390110102,0,0,0,-3,2,2,2,0
1480528390110102,0,3,3,-2,-2,-2,-2,-1
1480528390124642,1,-1,-2,4,1,-1,-2,-2
1480528390124642,0,1,3,3,4,-1,-2,-2
1480528390125646,-1,-4,0,-5,-10,-2,-1,-1
1480528390125646,-2,-1,-1,-7,-1,-1,0,-1
1480528390147703,-2,-1,-4,-6,-2,-2,-1,0
1480528390147703,0,-4,-1,-17,-10,-2,0,-2
1480528390154728,-1,1,0,1,-1,-2,0,-1
1480528390154728,2,0,0,9,2,2,0,1
1480528390161739,0,-3,-2,1,-3,-2,-2,-3
1480528390161739,1,1,-3,5,1,-2,-1,-2
1480528390169761,-5,-4,1,-11,-2,-1,-1,-2
1480528390169761,-2,0,-3,3,-2,-1,-1,-1
1480528390184801,-2,-4,-2,-2,3,0,-1,0
1480528390184801,0,-1,-1,4,2,1,2,1
1480528390185805,1,2,0,-1,-4,0,-2,0
1480528390185805,-3,-2,-3,2,5,0,-1,-1
1480528390207362,0,1,3,3,0,0,0,-1
1480528390207362,0,2,2,3,2,0,-1,0
1480528390208365,0,1,-1,-7,-5,0,2,-1
1480528390208365,2,2,5,-6,-2,-4,0,-2
1480528390230924,-2,0,-2,2,7,1,-1,0
1480528390230924,0,0,-1,0,-6,-2,-1,0
1480528390231929,1,1,3,4,6,1,-1,1
1480528390231929,0,-3,2,5,0,0,-1,-2
1480528390252982,0,2,3,-5,-4,-4,-1,-2
1480528390252982,-1,0,-1,11,5,0,0,-1
1480528390253986,0,3,2,0,1,0,0,0
1480528390253986,0,-2,-6,-1,-7,-3,-1,-2
1480528390267522,1,-1,1,-11,-1,0,-1,0
1480528390267522,0,-1,0,-3,-3,2,-1,-1
1480528390268023,-2,-2,-2,5,1,0,-2,0
1480528390268023,-2,-1,0,5,1,0,0,-1
1480528390290583,-3,1,0,1,-3,0,0,-2
1480528390290583,-1,-2,-4,-4,0,0,0,0
1480528390291585,0,-2,0,-4,1,-1,-1,0
1480528390291585,1,4,1,6,2,1,0,-1
1480528390305125,-1,-3,-8,-3,-7,-2,-1,-3
1480528390305125,2,1,0,1,0,-1,0,-2
1480528390305623,-1,-2,-3,6,-1,-2,-2,-1
1480528390305623,0,1,-2,0,1,1,-1,1
1480528390327183,0,1,-1,2,-2,-1,1,1
1480528390327183,-3,-6,-3,7,6,-1,-2,-3
1480528390328183,-2,-1,-4,-13,-6,-4,0,-1
1480528390328183,-2,2,2,2,-1,0,1,1
1480528390358262,3,2,3,1,1,0,1,0
1480528390358262,-2,-5,-3,-5,-2,-1,-1,1
1480528390358763,1,-1,3,11,0,2,0,-2
1480528390358763,0,-2,-6,-5,1,-1,-1,-2
1480528390364780,2,3,2,2,-1,-1,-1,-1
1480528390364780,-1,2,-2,-15,-4,2,1,-1
1480528390365783,-2,-2,-2,4,-4,-2,0,0
1480528390365783,-1,-2,-5,0,2,0,0,0
1480528390402882,-3,-4,0,3,1,1,-2,-2
1480528390402882,1,-1,-3,-8,-6,-3,-1,0
1480528390403884,2,1,-2,-2,0,0,-2,-2
1480528390403884,1,-1,-6,-7,-5,1,-1,0
1480528390410154,-2,1,2,9,4,-1,-2,-1
1480528390410154,-2,0,0,-3,-4,0,-1,-1
1480528390410903,-1,-2,-4,-5,0,-1,-2,-2
1480528390410903,-1,-5,0,-2,-2,-2,-1,-1
1480528390424940,2,2,4,6,4,0,0,1
1480528390424940,-1,0,-3,-15,-11,-1,0,2
1480528390425943,0,1,1,0,2,-1,-1,-1
1480528390425943,-1,1,2,2,1,-1,0,-1
1480528390447500,-1,-3,-1,-5,-4,-1,-2,0
1480528390447500,-2,-6,-1,5,0,-2,-1,-2
1480528390448503,0,-1,1,8,0,0,0,-1
1480528390448503,1,3,8,-11,-3,1,0,-2
1480528390470563,-1,0,-7,-7,-4,0,1,-2
1480528390470563,0,3,2,9,5,0,0,1
1480528390471568,-1,-3,-1,-15,-4,-1,1,1
1480528390471568,1,-1,1,4,-1,-1,-1,0
1480528390485100,-1,-3,-3,2,2,-2,0,-2
1480528390485100,0,2,1,-12,-1,0,-1,-1
1480528390485601,0,3,0,5,6,-1,0,-1
1480528390485601,-1,0,-1,-12,-9,-2,0,1
1480528390507662,-1,0,-1,1,3,1,-1,1
1480528390507662,1,2,-1,-5,-3,-2,-1,-3
1480528390508162,-1,-4,-2,1,1,2,1,1
1480528390508162,-1,-2,-4,3,0,-2,0,0
1480528390530721,-1,-3,3,3,-3,-2,1,-1
1480528390530721,1,2,-6,0,-1,-2,0,-2
1480528390531724,-1,-1,-2,-4,-2,-1,0,0
1480528390531724,-1,-1,1,4,2,0,-1,0
1480528390544760,-3,-1,-1,0,-1,-1,0,-1
1480528390544760,1,0,-2,2,2,-2,-2,-2
1480528390545761,0,0,-1,-8,-6,0,-1,0
1480528390545761,1,-1,3,5,0,1,-2,-1
1480528390567320,0,0,2,6,6,-2,-1,1
1480528390567320,-2,-1,5,3,-2,1,0,0
1480528390568322,-1,0,-4,7,4,-1,-3,-1
1480528390568322,0,4,3,-5,0,1,0,1
1480528390589880,1,1,-2,-11,-8,0,-1,-1
1480528390589880,-4,-6,-2,12,5,1,0,1
1480528390590882,1,3,4,-12,-6,-4,-1,1
1480528390590882,-2,-2,-4,3,-3,1,1,0
1480528390612940,1,3,0,-3,-4,-1,-2,-1
1480528390612940,-1,-1,1,5,5,3,0,-1
1480528390613943,-5,-5,-1,8,3,0,0,-1
1480528390613943,0,-3,-8,-7,-2,-4,1,-1
1480528390627980,0,-4,-2,-8,-3,0,0,0
1480528390627980,0,-2,-1,3,5,-3,-3,-1
1480528390634999,-2,1,-1,-13,-7,2,1,-2
1480528390634999,0,0,1,11,5,1,-1,0
1480528390650039,1,3,2,6,7,1,1,0
1480528390650039,1,1,0,-9,-7,0,-1,-1
1480528390650540,-1,-4,-1,5,0,-2,-2,-2
1480528390650540,-1,1,3,4,2,-1,-2,0
1480528390665079,-1,0,1,-15,-6,-2,-2,-1
1480528390665079,1,1,-1,5,2,1,1,1
1480528390665580,0,2,3,4,5,-1,-1,0
1480528390665580,-1,-2,0,1,-8,-1,-1,0
1480528390687641,2,1,3,6,0,1,-1,0
1480528390687641,-1,-4,-4,-11,-5,0,0,-1
1480528390688141,0,0,1,1,2,0,-1,-3
1480528390688141,0,0,-3,-5,2,1,-1,-2
1480528390718220,-5,-3,-4,2,-3,-1,-1,0
1480528390718220,-3,-3,3,6,4,-3,-2,1
1480528390718721,0,-1,-3,-2,0,0,0,-1
1480528390718721,-2,-1,-2,-4,-1,0,-2,-1
1480528390724738,-1,-1,-1,-3,-2,-1,0,-1
1480528390724738,-2,0,1,2,2,0,-2,0
1480528390725740,-1,-1,-3,2,-4,-3,-1,2
1480528390725740,-1,1,1,8,6,1,-1,-1
1480528390747297,0,0,2,-12,-6,-1,-1,-1
1480528390747297,1,0,-5,-4,0,0,0,0
1480528390748301,1,1,4,1,2,-1,-1,0
1480528390748301,0,-1,0,-1,-4,-1,-1,2
1480528390770359,0,-2,1,10,4,0,1,0
1480528390770359,-1,-3,0,-5,-4,-1,-1,-2
1480528390777879,0,-3,-1,-1,0,-2,0,0
1480528390777879,1,0,1,8,3,-1,-1,0
1480528390786401,-1,-3,-4,-13,-2,-1,1,-2
1480528390786401,1,3,1,1,-1,-1,1,0
1480528390787404,-1,0,-1,2,-1,-1,-1,-1
1480528390787404,-5,-8,-1,3,2,1,0,1
1480528390815479,2,3,1,8,6,1,1,-1
1480528390815479,0,-3,-4,6,1,0,-1,-2
1480528390816481,1,1,-1,-7,-7,0,-3,0
1480528390816481,0,-1,-2,-2,2,0,0,-1
1480528390830017,-2,-3,3,1,2,0,-1,1
1480528390830017,-1,-1,-4,-1,-2,-2,0,-1
1480528390830519,-2,-2,1,5,1,1,0,2
1480528390830519,-1,3,0,-3,-4,-1,0,-2
1480528390844054,-1,-2,-2,-1,-2,-1,-2,-1
1480528390844054,-1,-3,-6,1,2,-1,0,-1
1480528390852577,-1,-1,2,-2,0,-1,-2,-2
1480528390852577,0,1,4,-1,-5,0,1,-2
1480528390867618,-1,1,-4,0,1,-2,-1,1
1480528390867618,0,0,4,6,0,0,0,0
1480528390868118,-1,-2,-3,-5,-1,0,-2,0
1480528390868118,1,1,-2,-12,-2,-4,-1,-2
1480528390889676,0,-1,0,4,-2,1,1,0
1480528390889676,2,0,1,-5,0,0,0,-1
1480528390890679,-1,0,-1,7,3,-1,0,1
1480528390890679,-1,-3,-5,-5,3,0,0,0
1480528390904215,1,-2,-2,1,-5,-1,-3,-1
1480528390904215,-2,2,0,-4,-1,1,-1,0
1480528390913567,-4,0,-1,-2,-3,-1,-2,-1
1480528390913567,-1,-6,-5,-1,-6,-2,-2,-1
1480528390927276,0,-1,-2,-2,-1,-2,0,-1
1480528390927276,1,2,3,0,0,2,1,2
1480528390928279,-1,-1,-2,-5,-1,-1,0,-3
1480528390928279,-3,1,-3,4,-2,0,-3,-2
1480528390949836,0,-1,-1,-12,-2,-1,0,0
1480528390949836,-3,-3,5,1,-4,-1,-1,1
1480528390950839,0,1,1,5,2,0,1,1
1480528390950839,1,-1,2,5,3,0,-1,1
1480528390964374,-1,-2,-5,-1,1,-2,0,-2
1480528390964374,0,1,0,-6,-5,-3,0,-1
1480528390972397,2,3,0,-1,3,2,-1,0
1480528390972397,-2,-3,-2,8,4,0,1,0
1480528390987439,-1,-2,-3,0,0,2,-1,-2
1480528390987439,1,2,-1,-1,-4,-1,-3,-3
1480528390988439,-2,-2,-2,3,1,2,1,-1
1480528390988439,-2,-1,0,-6,-2,-3,-3,-2
1480528391009495,-2,-1,-5,3,-1,0,-1,-1
1480528391009495,-4,-3,-1,1,1,2,-1,0
1480528391017516,3,3,0,0,-3,-1,-1,-1
1480528391017516,0,-1,0,-3,0,0,0,1
1480528391033057,-4,-4,-1,1,1,0,0,0
1480528391033057,-1,0,0,-3,-1,-3,0,-2
1480528391034060,0,-3,0,7,3,0,2,1
1480528391034060,-1,-1,5,-1,-3,1,-1,-2
1480528391047595,2,2,4,7,3,0,-2,-1
1480528391047595,-1,1,1,-3,-4,-1,0,2
1480528391048097,-4,-6,-7,-4,2,0,-2,-3
1480528391048097,-1,1,0,2,-1,-2,-1,-1
1480528391069655,-1,-1,-1,-12,-8,-1,-1,0
1480528391069655,0,0,0,9,2,0,-2,-2
1480528391070660,-2,-2,-4,-3,-4,-3,-3,-2
1480528391070660,2,-1,-1,3,2,1,-2,1
1480528391084193,-1,1,-5,-13,-5,-2,0,-2
1480528391084193,0,-3,-2,-4,0,0,-2,1
1480528391099735,1,2,1,-1,-3,-1,0,-1
1480528391099735,0,1,0,1,-1,-1,0,0
1480528391107255,3,-1,2,3,2,-1,-2,-2
1480528391107255,-1,1,2,-2,-2,-2,0,-1
1480528391108259,-1,-1,0,2,1,-1,-1,-1
1480528391108259,-1,2,2,-4,0,-1,-2,-2
1480528391129816,-1,0,-3,-3,4,0,0,1
1480528391129816,0,0,2,2,-5,1,0,0
1480528391130818,-1,-3,1,-1,2,-1,-3,-1
1480528391130818,-1,-1,0,-7,-4,-3,-1,0
1480528391152877,1,2,3,12,4,1,-1,1
1480528391152877,0,-3,0,-1,5,1,-2,0
1480528391153378,1,2,1,-3,-4,-2,-1,0
1480528391153378,2,2,1,-3,-1,0,0,0
1480528391167414,-1,-1,0,1,-2,-2,0,-1
1480528391167414,-3,0,-1,-1,-2,-1,-2,0
1480528391167916,-1,-1,1,-1,-1,1,1,1
1480528391167916,-2,-5,-4,-9,-4,-1,1,-1
1480528391189974,-2,-4,-2,7,0,1,0,0
1480528391189974,1,2,-3,-3,0,-1,0,-2
1480528391190476,-1,-2,-6,-8,-4,-2,-1,0
1480528391190476,-1,0,0,11,4,0,-1,-1
1480528391213537,1,1,2,-16,-5,-3,-2,0
1480528391213537,-1,-1,-3,2,-1,3,1,0
1480528391214541,-2,-1,6,11,8,1,1,0
1480528391214541,1,-2,-2,-6,1,1,-2,-2
1480528391227575,2,4,2,11,-2,-2,-1,2
1480528391227575,0,0,-8,-2,-3,-3,-1,0
1480528391228077,-1,-1,0,0,0,0,-1,-1
1480528391228077,-2,-1,-1,5,0,1,-1,0
1480528391250135,-1,-1,-3,-4,1,-2,-2,-1
1480528391250135,-1,-6,1,2,1,-2,-1,0
1480528391250637,0,3,2,-2,-1,1,-1,1
1480528391250637,1,-2,-2,-4,-3,-3,2,0
1480528391273196,-1,1,0,0,1,0,1,-1
1480528391273196,-1,-2,-3,-5,-3,-1,-1,-3
1480528391273698,0,0,0,0,-1,-1,0,-1
1480528391273698,-1,-1,0,-4,-2,0,-2,1
1480528391288239,1,0,3,4,1,1,-1,-2
1480528391288239,-2,0,2,-8,-5,-1,1,0
1480528391288740,-2,-3,-1,1,3,0,0,-2
1480528391288740,0,-2,1,-1,-2,-1,0,-1
1480528391309794,-3,-4,0,11,9,1,2,1
1480528391309794,2,2,1,-3,-5,-2,-2,0
1480528391310796,1,-1,-7,-7,-3,2,0,1
1480528391310796,1,1,-2,0,1,-1,0,-1
1480528391332854,1,-4,1,7,4,2,0,-2
1480528391332854,-1,-3,-5,-8,-1,-1,-1,-1
1480528391333858,0,1,0,-3,-2,-2,-2,-1
1480528391333858,0,1,-1,2,2,-2,0,-1
1480528391347394,1,2,-1,-3,-3,-4,-2,-2
1480528391347394,-2,-2,-4,2,4,1,1,0
1480528391348397,0,1,2,3,-4,0,-1,0
1480528391348397,-1,3,0,-3,-2,-1,1,0
1480528391371460,-2,-4,-2,-7,-6,-2,-1,0
1480528391371460,1,-1,-1,13,3,-1,0,2
1480528391372460,-1,-3,-4,-16,-4,-1,-1,-1
1480528391372460,-2,-2,0,4,0,0,0,0
1480528391393015,2,6,2,-7,0,-2,1,-1
1480528391393015,1,-5,-3,-5,-5,-1,0,-2
1480528391394018,-2,1,6,11,4,0,-1,0
1480528391394018,-2,-4,-5,4,-2,-2,-1,-1
1480528391408055,-1,0,3,-6,-1,1,1,-1
1480528391408055,0,3,-3,10,5,1,0,1
1480528391408557,0,-2,1,-4,-7,-2,-2,0
1480528391408557,0,0,-1,-5,-2,-2,-1,1
1480528391430114,0,2,3,3,-1,2,-1,-1
1480528391430114,-1,-2,3,0,3,-1,-3,-2
1480528391430616,1,1,-4,-2,0,2,2,0
1480528391430616,0,2,0,-1,0,-1,0,1
1480528391453175,-1,-3,-2,-2,0,1,1,1
1480528391453175,0,2,5,4,0,-1,1,0
1480528391453677,-2,1,1,-10,-6,-4,-2,-2
1480528391453677,1,2,2,11,6,1,0,1
1480528391467212,-2,-2,-6,-21,-6,-2,0,-1
1480528391467212,-1,-4,3,-5,0,-1,-1,-2
1480528391468215,-1,-3,-2,9,6,1,2,0
1480528391468215,0,-2,-1,-7,-4,-3,-2,0
1480528391489775,-1,-2,0,5,0,1,1,3
1480528391489775,-1,-2,-8,-6,-1,0,1,0
1480528391490776,2,5,0,1,-2,0,1,-1
1480528391490776,-1,0,1,2,-2,-2,-1,-1
1480528391512834,-2,-2,0,9,2,2,1,0
1480528391512834,0,0,-1,-12,-3,2,-2,-1
1480528391513842,0,0,-1,2,1,-1,0,0
1480528391513842,-2,-2,-6,-2,-1,0,1,-2
1480528391527874,0,-1,-1,-2,-4,0,0,-1
1480528391527874,-1,1,1,2,-1,-1,-1,0
1480528391534892,-2,-2,0,0,1,-1,-2,0
1480528391534892,1,1,1,-3,3,2,-1,-1
1480528391549933,0,-2,-3,1,1,-1,-3,0
1480528391549933,-1,2,1,9,-2,1,1,0
1480528391550438,-1,-1,-3,-14,-4,0,-1,-2
1480528391550438,0,0,5,7,3,1,-1,-2
1480528391572998,-2,-2,-4,6,2,-2,0,-1
1480528391572998,-1,-2,1,-17,-7,-2,-2,-2
1480528391573998,0,-3,-3,6,-4,-1,-1,-1
1480528391573998,0,-1,-2,-4,-4,2,-1,0
1480528391587535,1,0,-2,2,1,0,-1,-2
1480528391587535,-1,1,-3,3,2,-2,-1,-2
1480528391588537,-1,-1,-3,-7,-6,-2,-1,0
1480528391588537,-1,-4,1,-8,-3,-2,0,0
1480528391610093,-2,3,1,0,-1,-1,0,2
1480528391610093,2,3,5,9,4,1,-1,0
1480528391610594,1,3,3,-2,4,-1,0,0
1480528391610594,-2,-3,-6,0,-1,0,0,-1
1480528391633153,0,-1,0,-5,-7,-2,-1,-1
1480528391633153,-3,-4,-3,1,2,0,-1,-2
1480528391633655,-1,-1,-5,-2,-5,-1,1,-1
1480528391633655,0,1,0,-10,-1,-2,-1,1
1480528391647191,2,-1,2,-3,-1,1,-1,0
1480528391647191,-3,-4,-4,-5,-1,-2,-2,-1
1480528391648195,-1,0,3,19,3,-2,0,0
1480528391648195,-2,-2,-3,-13,-9,0,2,-1
1480528391678274,1,3,0,5,3,-1,-1,-3
1480528391678274,0,-1,-1,-10,-4,1,-1,-3
1480528391678775,1,1,1,3,1,0,-1,0
1480528391678775,-2,0,0,3,-3,-2,-1,-1
1480528391692812,-1,-2,1,6,5,0,0,0
1480528391692812,0,0,-1,-8,-5,0,-1,1
1480528391693815,-2,-3,0,2,3,-1,-1,-3
1480528391693815,0,0,-1,2,-3,0,0,-1
1480528391707353,-1,-1,-5,3,0,0,-1,0
1480528391707353,-2,0,0,6,-3,-2,1,1
1480528391708355,0,0,0,-13,0,0,-1,1
1480528391708355,2,2,2,10,2,0,2,0
1480528391729911,-2,0,-3,-7,-3,0,0,-3
1480528391729911,-2,-4,0,7,1,0,2,0
1480528391730913,-1,-2,-3,3,-2,-1,-1,1
1480528391730913,-1,0,-4,2,0,-1,-2,0
1480528391752972,-2,2,0,-3,-4,-1,-1,0
1480528391752972,-1,-3,3,9,11,1,1,0
1480528391753975,-1,-2,-2,-16,-8,-1,-2,1
1480528391753975,-1,-5,-5,9,3,1,-2,0
1480528391767010,0,0,-2,-5,0,-1,1,1
1480528391767010,-1,2,2,2,-2,-1,-1,1
1480528391775031,-2,-5,-4,2,1,0,1,-2
1480528391775031,0,-2,-3,-1,-1,0,0,0
1480528391790072,-2,-1,1,-8,-3,-1,-1,1
1480528391790072,-1,-3,-1,6,-1,0,-2,0
1480528391790575,-1,2,1,1,1,1,0,-2
1480528391790575,0,0,3,-5,-1,-2,0,0
1480528391813133,0,-2,-1,2,-1,0,-1,-2
1480528391813133,2,2,-2,2,0,-1,-1,1
1480528391813635,-1,-4,-3,-6,1,2,1,1
1480528391813635,-3,-4,2,0,-2,-2,-1,-3
1480528391826670,2,1,1,0,0,-1,0,-1
1480528391826670,-2,-3,-5,-11,2,-1,0,-2
1480528391834689,-1,-1,-4,3,-7,0,-2,0
1480528391834689,0,1,3,8,5,-1,-1,0
1480528391858252,1,-3,-3,-13,-4,-2,0,-2
1480528391858252,-1,-3,-5,1,-2,-1,-2,-3
1480528391858753,0,1,2,3,-2,-1,-1,-1
1480528391858753,-1,0,1,3,3,0,-1,1
1480528391873293,-1,-4,4,-6,-2,0,-1,1
1480528391873293,0,1,5,1,5,1,-1,-1
1480528391873795,0,1,-2,-7,0,-1,-1,-1
1480528391873795,-1,-2,0,-2,0,0,0,-1
1480528391886828,-1,0,3,9,-1,0,0,2
1480528391886828,-2,0,-2,-2,0,0,0,3
1480528391894849,1,-1,0,8,4,-1,-1,1
1480528391894849,-1,0,-5,-14,-4,2,-1,-1
1480528391909890,-1,0,-2,-1,-1,0,-2,0
1480528391909890,1,1,5,4,0,0,-1,0
1480528391910892,-2,-1,1,3,1,-1,-1,-1
1480528391910892,1,2,-1,-1,-4,-1,0,0
1480528391932950,-1,-3,-1,3,4,0,1,-1
1480528391932950,1,1,-1,-3,-5,-3,-1,-1
1480528391933954,-1,-2,3,3,4,-1,0,-1
1480528391933954,0,-3,-3,-2,-1,0,-2,0
1480528391955511,-2,-2,0,0,0,0,-2,0
1480528391955511,1,0,-3,-3,-1,0,0,-1
1480528391956514,-3,-2,-2,-4,-1,0,1,1
1480528391956514,-1,-2,2,7,2,-1,-1,-2
1480528391970050,0,-3,-5,8,-1,-1,-2,-3
1480528391970050,-3,-5,-3,-10,-3,0,0,0
1480528391970553,3,0,-7,8,-3,-3,0,1
1480528391970553,-1,-3,-2,-10,-4,-2,-1,1
1480528391992109,0,0,1,3,2,1,0,-2
1480528391992109,-1,2,3,6,2,0,3,1
1480528392000130,-2,0,2,-2,-3,0,1,-3
1480528392000130,1,0,0,2,3,-1,0,2
1480528392006649,-1,0,0,5,1,0,0,-1
1480528392006649,-1,-1,-6,-4,-2,0,-2,-2
1480528392014670,2,1,2,2,1,-1,0,0
1480528392014670,0,0,0,-6,-1,-1,0,0
1480528392029708,1,0,1,-3,-6,-2,-1,1
1480528392029708,-1,-2,-1,3,5,1,0,0
1480528392030712,-1,-3,2,-6,-2,-2,-1,0
1480528392030712,-1,0,-3,1,4,1,1,-3
1480528392053271,-2,-2,-3,-3,-6,-5,-1,-1
1480528392053271,0,3,5,-15,-6,-3,-2,-1
1480528392053773,-1,-5,-2,9,5,3,1,-2
1480528392053773,-2,-2,-2,-28,-8,-1,-1,0
1480528392066807,0,2,3,6,6,1,1,-1
1480528392066807,3,-1,-2,1,-4,-2,-4,-1
1480528392074829,1,-1,0,2,-1,-1,1,0
1480528392074829,-1,3,-3,5,1,-2,-2,-1
1480528392089869,-2,0,-1,1,-3,1,1,0
1480528392089869,1,-1,-2,-3,-4,-3,0,1
1480528392090872,-2,0,2,-4,-1,-1,-1,-1
1480528392090872,0,2,2,11,-4,-2,1,-2
1480528392112429,-2,-1,0,-9,4,1,1,-1
1480528392112429,0,1,2,2,-1,0,-1,-2
1480528392113431,1,2,-4,4,5,0,1,0
1480528392113431,0,-3,-1,-7,-2,2,0,1
1480528392135490,0,-2,-3,0,-3,-1,-3,-2
1480528392135490,-3,-2,0,-9,-5,-1,1,-1
1480528392136493,0,1,-1,-8,-1,0,1,-2
1480528392136493,2,2,4,21,10,2,1,0
1480528392150028,1,-2,-6,-11,-4,-1,-2,-1
1480528392150028,-1,-1,-1,-6,1,0,0,0
1480528392150530,0,2,0,-1,-6,-3,-1,0
1480528392150530,-3,-4,-2,0,-2,0,-1,-1
1480528392172590,1,1,0,6,2,0,1,-1
1480528392172590,-2,-1,-1,3,3,-1,0,-1
1480528392173091,0,0,1,-1,-3,-1,-2,0
1480528392173091,-1,0,3,6,2,-1,0,0
1480528392195650,-2,-1,1,0,-1,2,1,2
1480528392195650,-1,-4,-1,-5,-3,-2,0,0
1480528392196151,2,1,2,2,1,-1,-3,-3
1480528392196151,-1,-2,-3,-3,-4,-2,0,-1
1480528392209687,-1,0,-1,1,0,0,-2,-3
1480528392209687,-1,1,-3,4,-5,0,-1,-2
1480528392210690,-2,-7,-3,-5,3,1,0,-1
1480528392210690,0,0,-1,-3,-6,-1,-1,-2
1480528392232251,1,0,3,5,8,-1,-1,1
1480528392232251,1,2,-1,-3,-3,0,-1,-1
1480528392233250,-1,0,0,13,1,-1,-1,0
1480528392233250,0,-2,-9,-23,-3,0,-2,-1
1480528392255311,-2,-2,0,2,-3,-4,1,-1
1480528392255311,-1,-1,0,7,1,-1,-1,0
1480528392256311,-2,-5,-9,-9,-4,0,0,0
1480528392256311,0,0,1,10,6,-1,-1,-1
1480528392269847,-1,1,-1,-7,-8,-1,-1,0
1480528392269847,1,-2,-2,3,7,1,-1,0
1480528392270850,-2,-3,-3,2,-1,-1,0,0
1480528392270850,-4,-4,-1,1,-4,2,0,-2
1480528392292408,-1,-2,-3,-3,-1,-3,-2,-1
1480528392292408,0,1,3,4,1,0,-1,-1
1480528392293414,1,3,4,-6,-2,3,-1,-2
1480528392293414,-1,0,0,3,4,-1,-1,2
1480528392315469,-3,-2,-1,-3,-5,0,0,0
1480528392315469,0,0,-1,0,1,0,-1,0
1480528392316472,0,-3,-5,-3,-4,-2,-1,0
1480528392316472,1,0,-4,1,-2,-4,-2,-1
1480528392330007,1,1,-4,-8,-2,1,-1,-1
1480528392330007,1,0,-2,-9,-4,-3,-1,0
1480528392345048,-2,-1,-5,-7,-4,-2,-2,-1
1480528392345048,-2,-6,-1,7,1,1,-1,-1
1480528392352568,1,0,-1,-6,3,-2,-1,-2
1480528392352568,-1,-1,-2,5,-3,0,0,0
1480528392353069,-1,2,7,0,1,1,-1,0
1480528392353069,0,-1,-1,1,-1,-2,0,-2
1480528392375629,-1,-3,0,-5,-3,-1,1,0
1480528392375629,0,2,-1,0,-1,0,0,-2
1480528392376131,0,1,6,3,6,0,-1,-1
1480528392376131,-2,0,-2,-2,-1,1,2,1
1480528392389666,-2,-1,-7,-1,-6,-4,0,1
1480528392389666,-1,-1,3,-1,3,1,-2,0
1480528392390674,1,-2,0,1,-1,-1,1,0
1480528392390674,1,3,1,10,3,0,-1,-1
1480528392412621,1,0,1,0,1,2,-1,-1
1480528392412621,-1,-7,-1,1,-4,-1,-1,-3
1480528392413228,-2,-1,-3,2,0,-2,-3,0
1480528392413228,1,1,1,-7,-4,-2,-2,1
1480528392435789,-2,1,2,0,1,0,1,0
1480528392435789,-2,-1,0,9,2,1,0,-2
1480528392436290,0,-1,-1,-3,0,-1,0,0
1480528392436290,-1,-2,-4,-7,-8,-2,-1,-1
1480528392450328,1,2,5,3,1,-1,-3,0
1480528392450328,-1,0,-4,-5,3,0,-1,-1
1480528392451330,-1,1,1,0,-3,0,-2,0
1480528392451330,-3,-1,3,-2,-2,-1,-1,-2
1480528392472887,1,-1,0,-2,-1,-1,0,1
1480528392472887,-1,0,-1,-5,-3,-2,0,0
1480528392473390,0,1,-4,-1,-1,-1,-1,0
1480528392473390,1,2,3,6,-1,2,0,0
1480528392495449,-3,-4,-4,-4,3,2,-1,0
1480528392495449,0,-2,3,3,0,-1,0,0
1480528392496466,-1,3,2,-1,-1,-1,0,-1
1480528392496466,1,-2,-2,-3,-2,-1,2,0
1480528392509986,0,-1,-5,7,4,-1,-1,-2
1480528392509986,-1,-2,-3,-14,-3,0,0,-2
1480528392510487,-1,-5,-6,-1,-6,-3,0,-1
1480528392510487,0,2,-1,-2,0,1,-1,0
1480528392532546,-1,0,2,-6,0,-1,-1,0
1480528392532546,-1,2,3,8,2,-1,-1,0
1480528392533047,1,-3,0,-4,-4,0,1,-1
1480528392533047,-3,-2,-2,-3,1,-1,-1,-3
1480528392555607,1,0,1,3,-3,0,-1,1
1480528392555607,-2,-1,-1,3,2,0,0,1
1480528392556108,0,3,-1,-6,-3,-1,0,0
1480528392556108,0,0,-3,-7,-1,-2,-1,-2
1480528392569645,-3,-6,-3,1,-1,0,0,-1
1480528392569645,0,0,-1,2,0,-2,-1,-1
1480528392570648,0,0,4,8,6,0,0,0
1480528392570648,0,-3,-1,-5,-7,-3,-2,0
1480528392592205,-1,0,3,-1,2,0,0,-1
1480528392592205,0,-2,-6,-4,-1,0,0,0
1480528392593208,-2,-3,-4,1,6,-2,0,-1
1480528392593208,-1,-2,2,4,-4,-1,-2,1
1480528392615767,1,-2,0,-11,-2,-1,-1,-1
1480528392615767,1,-2,0,3,-1,-1,-1,1
1480528392616269,-2,-2,2,-1,-2,1,0,-2
1480528392616269,1,3,-1,3,1,-1,1,-1
1480528392629804,0,1,-2,10,-1,0,1,0
1480528392629804,-2,1,3,-11,-4,0,-1,-2
1480528392630807,-2,1,3,-1,-1,0,-1,2
1480528392630807,-1,-1,0,-2,5,0,0,0
1480528392652365,2,2,-1,-2,-1,0,-3,-2
1480528392652365,-1,-4,-1,2,-2,0,-2,-1
1480528392653368,0,1,3,3,-2,1,2,0
1480528392653368,1,-2,-2,-8,5,1,0,-1
1480528392676429,-3,-1,5,6,-1,-4,2,0
1480528392676429,1,1,-4,1,2,1,0,-2
1480528392676930,0,-1,-1,7,6,-2,-3,-1
1480528392676930,-1,-1,-2,-14,-6,1,-1,0
1480528392689463,0,2,1,-1,1,1,0,-1
1480528392689463,-2,-1,3,6,-3,-1,1,0
1480528392697484,1,-1,1,1,-1,0,0,0
1480528392697484,1,1,3,-3,-2,-2,1,1
1480528392721047,-3,-7,-3,3,1,2,-1,-1
1480528392721047,2,3,4,-1,3,2,1,0
1480528392721549,-2,-3,-3,0,0,-1,-2,-2
1480528392721549,-2,-4,-1,-1,-5,-1,0,-1
1480528392735586,0,2,0,2,-2,-1,-1,2
1480528392735586,-1,0,0,0,3,1,0,0
1480528392736590,1,1,-1,-4,-1,0,0,-1
1480528392736590,0,-3,1,5,-1,0,-1,0
1480528392749123,0,1,-1,-4,-3,-2,-2,0
1480528392749123,-3,-3,1,6,3,0,-1,-2
1480528392757143,-2,-1,-2,-2,-1,-1,-2,-1
1480528392757143,-2,1,-6,-15,-7,-1,0,-1
1480528392772183,0,-2,-1,4,5,1,-1,-1
1480528392772183,2,1,-5,-2,-6,-3,0,0
1480528392773186,0,-1,-1,-13,-6,0,0,0
1480528392773186,0,1,-2,9,6,-1,-3,-3
1480528392795746,0,1,0,0,0,-1,-1,0
1480528392795746,-1,-3,1,2,0,-1,0,-2
1480528392796248,-3,-5,-6,-6,-4,-2,-1,-2
1480528392796248,-2,-2,1,2,-1,1,0,-2
1480528392809282,2,4,1,-1,0,-1,0,2
1480528392809282,-1,-4,-3,-1,1,-1,-1,-2
1480528392817303,-1,0,-1,-1,-4,-2,0,-1
1480528392817303,0,1,0,7,6,3,0,1
1480528392832343,-3,-3,-1,-8,-2,-2,-1,-1
1480528392832343,-3,-1,0,1,0,-2,-1,0
1480528392833346,1,-1,-3,6,3,0,-1,0
1480528392833346,0,-2,-2,8,0,-2,-1,0
1480528392862925,-2,-3,-1,-1,-5,1,1,-1
1480528392862925,1,0,-3,-7,-4,-1,-2,-1
1480528392863928,-1,0,2,4,5,1,0,1
1480528392863928,0,-4,0,7,4,-1,-1,0
1480528392869443,-1,-1,-2,-2,-3,-2,-2,-2
1480528392869443,-2,-1,-2,5,-3,-3,-1,-1
1480528392877463,-1,1,-2,-5,1,-1,-2,-1
1480528392877463,3,2,-1,0,-4,-1,-1,1
1480528392892503,0,0,2,-2,6,0,-2,-2
1480528392892503,-1,1,-1,-9,-3,-2,1,0
1480528392893005,1,-1,-1,0,-1,0,-1,0
1480528392893005,-4,-2,-2,-7,-4,-1,-2,-1
1480528392914562,-1,-1,-2,1,-1,0,0,-1
1480528392914562,0,0,0,4,1,-3,-3,-1
1480528392922584,0,1,0,3,-3,0,1,-1
1480528392922584,1,1,2,11,6,0,1,-1
1480528392929100,-3,-2,0,-2,-4,0,0,-1
1480528392929100,-2,-6,0,-13,-3,-1,1,-1
1480528392937624,0,-1,-2,-2,-1,0,0,0
1480528392937624,-1,0,-1,-3,2,-1,-2,-3
1480528392960685,3,1,1,15,5,-2,0,1
1480528392960685,0,0,-1,-4,-1,1,-2,-1
1480528392961187,-1,0,0,-5,-3,-2,0,1
1480528392961187,-2,-2,3,4,6,0,0,-1
1480528392975725,1,0,-5,-8,-3,0,-3,-2
1480528392975725,-3,-3,-3,0,-1,0,-1,0
1480528392976229,-1,2,0,1,0,-1,0,0
1480528392976229,1,2,-3,-2,-7,-1,-1,0
1480528392989261,-3,-2,1,-9,-2,-2,2,0
1480528392989261,2,3,-1,-5,2,0,-2,-1
1480528392997282,-2,-1,-2,2,-3,1,0,-1
1480528392997282,-1,2,1,1,3,0,0,1
1480528393012322,0,-1,-4,4,0,-1,1,1
1480528393012322,2,-2,-2,11,-2,-1,0,-1
1480528393013325,0,-1,2,-2,-1,0,-1,0
1480528393013325,-3,-2,2,-8,-3,0,0,-1
1480528393035885,0,2,-3,-2,-1,0,-3,0
1480528393035885,1,1,1,5,2,1,-1,0
1480528393036890,0,1,3,13,8,1,-2,-2
1480528393036890,0,1,0,-7,-7,-1,-1,0
1480528393057943,-1,0,2,1,-1,0,-1,0
1480528393057943,-4,-3,-2,-6,1,-1,1,1
1480528393058946,-1,-3,-3,-6,-3,0,0,-1
1480528393058946,0,1,1,1,6,-1,-1,0
1480528393072482,0,-1,3,-15,-4,0,0,-2
1480528393072482,-1,0,-4,-1,0,-1,-2,-1
1480528393072985,0,-3,1,-4,-5,-3,0,-2
1480528393072985,-1,-3,0,1,1,1,1,-1
1480528393095543,0,-2,-1,10,4,2,0,-1
1480528393095543,0,0,2,7,-4,3,0,-1
1480528393096546,1,2,-2,-16,-3,-2,0,0
1480528393096546,2,-2,-1,-10,-4,-2,0,0
1480528393118104,-1,-2,-4,1,-1,-1,-1,-1
1480528393118104,1,1,0,5,5,0,-1,0
1480528393119107,-3,-1,-3,2,-1,-1,-1,1
1480528393119107,0,-2,-3,5,-2,0,-1,-1
1480528393132141,-1,0,0,-12,-5,-2,-2,0
1480528393132141,0,1,0,-9,-2,0,1,1
1480528393133144,1,-2,-2,6,-1,-2,-4,-1
1480528393133144,-1,-6,-4,-12,-1,0,0,0
1480528393155704,-1,-2,1,6,-2,-1,-1,-2
1480528393155704,-2,-2,-2,1,4,0,2,1
1480528393156205,0,-1,1,-3,-3,-2,-1,-1
1480528393156205,-1,3,1,7,5,3,0,-1
1480528393178269,1,0,0,5,4,1,-1,0
1480528393178269,0,0,1,-3,-5,-2,-1,-2
1480528393178765,-1,-1,6,7,1,-1,1,0
1480528393178765,0,0,1,-4,-6,-3,0,-2
1480528393192301,-1,-2,-2,-18,-3,-1,0,-1
1480528393192301,-2,-1,-5,6,2,1,2,-1
1480528393193304,1,0,2,0,1,0,-1,-1
1480528393193304,0,0,-5,0,-4,-2,-1,0
1480528393215362,-1,1,0,11,5,1,-1,-1
1480528393215362,-1,0,2,-7,-8,-2,-2,-1
1480528393216365,-3,-6,1,-7,-3,-1,-1,0
1480528393216365,0,3,-1,2,2,1,-1,0
1480528393237923,1,1,4,1,-4,0,0,2
1480528393237923,-2,0,-1,1,-1,-3,-3,-3
1480528393238925,-2,1,-2,4,3,2,0,-1
1480528393238925,0,-1,1,2,2,1,-1,0
1480528393252462,1,1,-1,1,-1,-2,0,0
1480528393252462,0,3,4,3,-1,0,-1,0
1480528393252962,0,-1,-2,8,4,0,0,-1
1480528393252962,-2,-1,1,-12,-7,-3,-1,-1
1480528393275556,0,0,-3,0,3,-1,0,1
1480528393275556,0,0,1,0,-3,0,1,0
1480528393276526,-1,1,0,2,3,0,-1,0
1480528393276526,-2,-1,1,11,0,-1,-2,-2
1480528393297581,-2,-3,-2,2,-3,-1,0,0
1480528393297581,2,1,2,-8,-1,0,0,-1
1480528393298585,1,1,-3,-1,1,0,-1,1
1480528393298585,-1,-3,-4,-11,-5,-1,-1,0
1480528393312621,-4,-2,0,1,0,0,-3,-4
1480528393312621,0,-4,-4,-1,-2,-2,-3,-1
1480528393313123,-1,-2,-2,-5,-3,1,0,1
1480528393313123,0,1,0,3,1,0,1,3
1480528393334679,1,-2,-4,-3,-2,1,0,-1
1480528393334679,1,-2,0,1,3,-3,-1,0
1480528393349721,1,2,2,-1,-2,-2,-1,-1
1480528393349721,-2,-2,-10,5,-3,-3,-1,-1
1480528393358242,-1,-2,3,2,4,0,-1,0
1480528393358242,-5,-7,-3,-6,-4,0,-1,1
1480528393358748,2,3,-2,-14,-8,-2,-2,-1
1480528393358748,1,2,2,3,3,0,-1,-2
1480528393372280,1,2,-2,1,-5,-2,-2,-1
1480528393372280,1,3,0,3,2,-1,-1,-1
1480528393373283,-2,-5,-4,0,-1,1,-1,-2
1480528393373283,-2,-1,2,0,-2,1,-1,0
1480528393395341,1,-2,-3,-1,-2,-2,1,0
1480528393395341,-1,0,3,0,3,-1,2,1
1480528393396350,1,0,0,5,0,0,1,0
1480528393396350,-2,-3,-7,-2,-3,0,0,0
1480528393417901,-2,-2,1,-4,3,3,0,0
1480528393417901,-2,0,1,1,2,1,1,1
1480528393418904,-1,-3,-4,-3,-3,-3,-1,1
1480528393418904,2,-3,-3,3,-1,-4,-2,0
1480528393432440,0,0,0,9,2,-2,-1,1
1480528393432440,0,1,-3,-25,-7,0,0,-1
1480528393433443,-1,0,0,1,0,-1,0,1
1480528393433443,-1,-3,2,1,0,1,0,0
1480528393455501,-2,-3,-4,0,3,0,0,-1
1480528393455501,0,0,-2,8,-2,-1,1,-1
1480528393456505,-2,-1,0,2,2,-1,-1,0
1480528393456505,-3,-2,1,-5,2,0,0,-1
1480528393477560,0,-2,-2,2,-3,-2,-3,-1
1480528393477560,0,-2,-2,-3,-4,-1,-2,-2
1480528393478563,0,2,1,-4,-3,-2,0,-1
1480528393478563,-1,-3,5,4,2,1,1,0
1480528393492600,0,2,0,2,2,-1,-2,-3
1480528393492600,-2,-1,1,-6,-4,0,0,0
1480528393493102,-1,-2,-3,-4,-2,-2,-1,-2
1480528393493102,-1,0,-2,3,0,-1,0,0
1480528393515661,1,0,-1,-16,-12,-2,0,1
1480528393515661,-1,1,1,-6,0,0,-1,-1
1480528393516162,-2,-5,-1,10,4,1,-2,-3
1480528393516162,1,1,-1,-16,-8,-3,-3,-1
1480528393538221,-2,-3,0,8,4,1,0,-2
1480528393538221,-1,1,-1,7,1,-2,0,0
1480528393538723,-1,0,1,-5,-2,1,0,-1
1480528393538723,0,-1,0,6,0,-1,-1,-4
1480528393560280,-1,-4,-4,-2,1,0,1,0
1480528393560280,-1,-2,-2,-2,-3,-1,-1,0
1480528393561282,-1,-3,-1,10,0,2,1,0
1480528393561282,1,1,3,1,8,0,0,-1
1480528393574820,2,0,2,-2,-2,1,-2,-2
1480528393574820,0,-2,1,4,4,0,0,1
1480528393575824,0,0,-1,-6,-5,-2,0,0
1480528393575824,-1,0,0,8,-3,0,-1,-2
1480528393597879,-5,-4,-2,-21,-6,-3,0,-2
1480528393597879,-3,-3,0,13,4,3,1,1
1480528393598882,2,-1,0,-8,-1,-2,-3,-3
1480528393598882,-1,0,-3,-2,-4,-1,-1,0
1480528393612418,1,2,3,7,1,0,0,0
1480528393612418,1,1,3,2,-1,0,0,-1
1480528393613421,-3,-1,-7,-4,-4,-1,-1,-1
1480528393613421,0,0,-1,-3,5,1,-1,2
1480528393634978,-2,1,1,2,0,2,0,1
1480528393634978,-1,-3,0,0,-3,0,0,0
1480528393635480,0,-1,1,3,4,-1,1,0
1480528393635480,0,1,4,4,-1,-2,-1,-2
1480528393658042,-2,-5,-1,-7,-1,0,1,1
1480528393658042,-1,3,-2,1,5,0,-2,-2
1480528393659043,-2,2,1,2,2,-1,0,1
1480528393659043,-1,-1,1,-1,-4,-1,0,0
1480528393671576,0,1,2,-6,-5,1,-3,0
1480528393671576,1,-2,-3,-1,-2,-1,-1,0
1480528393680601,-1,-1,1,-1,-1,-1,0,-1
1480528393680601,-1,0,-3,7,2,2,1,0
1480528393694637,1,-1,-7,-13,-7,-2,0,-2
1480528393694637,-1,-1,1,1,-1,1,-1,-2
1480528393695642,0,1,-2,-1,3,0,0,1
1480528393695642,1,-1,-1,3,3,-1,-1,-1
1480528393725721,-1,-1,3,6,2,-1,0,1
1480528393725721,-1,0,-2,-5,-4,0,0,-1
1480528393726222,-2,-2,-3,1,-3,-2,-1,-1
1480528393726222,0,-3,-3,-14,-8,-1,-1,-1
1480528393731736,1,2,-1,7,5,0,-1,0
1480528393731736,1,-2,0,-3,1,-2,-1,-1
1480528393739758,0,0,2,-1,0,1,-1,0
1480528393739758,1,-2,-7,-4,-6,-1,0,-1
1480528393754797,-1,1,1,-1,-3,0,-1,-1
1480528393754797,0,-2,-4,2,3,0,1,0
1480528393755806,0,0,2,5,1,-1,0,0
1480528393755806,0,3,2,2,4,-2,-1,-2
1480528393777859,-2,-2,-1,-5,-7,3,1,-2
1480528393777859,-1,-1,-2,-6,4,-1,0,-1
1480528393778864,0,0,0,-6,-6,-1,-1,0
1480528393778864,-2,-1,1,-4,-3,-1,0,0
1480528393791897,1,-1,0,12,4,-1,0,0
1480528393791897,0,-3,-4,0,-1,-1,-1,-1
1480528393799917,-3,-3,-2,-6,-4,0,-1,0
1480528393799917,0,0,1,-8,3,2,0,1
1480528393814958,0,1,-1,3,-3,-3,-2,-1
1480528393814958,0,-3,-4,1,0,-1,-2,-2
1480528393815458,0,-1,-1,-2,-3,0,0,0
1480528393815458,-1,-1,-5,0,-2,-1,-3,0
1480528393838019,3,2,5,1,1,1,0,1
1480528393838019,-3,-3,-2,3,2,1,0,-1
1480528393839021,-2,1,2,5,1,-1,0,0
1480528393839021,-1,-1,8,-2,-1,0,0,0
1480528393851555,0,0,2,18,8,-1,0,-1
1480528393851555,0,2,-2,-19,-8,-2,-3,-1
1480528393860080,1,-1,-7,-4,0,1,0,-1
1480528393860080,-1,-1,0,3,1,-2,-1,-1
1480528393875118,-3,-5,-2,-12,-5,-3,1,-2
1480528393875118,0,2,3,8,0,-2,0,0
1480528393875619,0,-1,-1,-4,0,0,-1,-2
1480528393875619,-1,-1,-3,-4,-4,-1,1,0
1480528393898178,1,6,3,8,5,1,-1,0
1480528393898178,0,-2,1,-3,-2,0,0,-1
1480528393898680,-1,1,1,-13,-5,-1,0,-2
1480528393898680,0,0,-1,6,-1,0,-2,0
1480528393919745,-2,-4,2,-4,1,0,-1,0
1480528393919745,0,2,4,3,6,2,-2,-1
1480528393927256,1,-1,-2,4,1,-1,-1,-1
1480528393927256,1,0,0,0,1,1,1,-1
1480528393942797,-1,3,0,-5,-2,-1,-2,-1
1480528393942797,-1,-2,-2,1,-2,2,0,2
1480528393943800,-1,-4,0,8,1,-4,-1,-4
1480528393943800,0,1,-2,-7,-4,-1,-1,-3
1480528393965357,-3,-1,-3,-12,-3,2,1,0
1480528393965357,-1,-2,-4,7,0,-2,1,0
1480528393966360,2,1,2,2,2,0,0,1
1480528393966360,-1,-3,1,2,-1,1,0,0
1480528393971874,2,2,-2,3,3,-4,-2,-1
1480528393971874,0,-1,-4,-2,-7,-1,-1,-1
1480528393979896,-3,-4,-3,4,-1,0,0,-1
1480528393979896,1,0,2,-9,-2,-3,-2,0
1480528393994936,0,-1,1,3,-1,0,0,0
1480528393994936,-1,1,-3,-3,5,1,-1,-2
1480528393995437,-2,-1,-1,4,1,1,0,0
1480528393995437,1,1,2,1,2,-2,0,0
1480528394017997,0,-5,-1,-3,-5,-1,0,0
1480528394017997,0,0,2,-3,-1,-3,1,-3
1480528394019004,-1,-1,-2,-2,-1,-1,-1,-1
1480528394019004,-1,-2,-4,-3,-2,0,-3,-3
1480528394041060,0,1,-2,-2,1,1,0,0
1480528394041060,0,4,3,15,3,-1,0,0
1480528394042062,0,0,-5,-32,-11,-1,0,1
1480528394042062,-1,-2,-1,3,1,-2,-2,-1
1480528394055096,1,-1,-3,0,-3,-1,0,0
1480528394055096,1,3,-1,7,6,0,-1,-1
1480528394055597,-1,0,-2,4,-2,-1,0,-2
1480528394055597,-2,-3,-11,-8,-6,3,3,-1
1480528394078157,-3,-4,-2,0,2,2,1,-2
1480528394078157,-1,-2,1,-6,-7,-1,-2,0
1480528394078658,-2,0,0,7,3,0,-1,0
1480528394078658,-1,-3,0,6,4,0,-1,-1
1480528394100718,-2,-4,-6,-3,-1,-2,-1,-1
1480528394100718,-1,-1,-2,-6,-5,-2,1,2
1480528394101219,1,1,6,6,-1,-1,0,-1
1480528394101219,-1,-1,-3,-6,-2,-2,-1,-2
1480528394114755,-1,-2,0,2,-3,-3,-2,-2
1480528394114755,0,-2,1,0,3,1,-2,1
1480528394115758,-1,-1,5,5,2,1,-2,-1
1480528394115758,-1,-2,-1,7,3,1,0,1
1480528394138317,1,-1,-3,-5,-3,-3,0,-2
1480528394138317,-1,0,0,-16,-5,1,-1,-1
1480528394139320,0,2,4,4,7,0,1,1
1480528394139320,-1,-1,-3,-1,-3,0,-1,-1
1480528394160376,-2,-3,1,-2,-4,-1,0,-1
1480528394160376,2,0,-3,6,5,-1,-2,-2
1480528394161379,0,1,-2,-6,0,1,-1,-1
1480528394161379,1,1,2,-1,-3,1,1,2
1480528394174915,0,-1,0,10,2,-3,-1,-1
1480528394174915,-2,-1,0,-3,-3,0,-1,0
1480528394175917,2,-2,0,4,-1,0,0,-1
1480528394175917,-1,1,2,-3,0,0,-1,-1
1480528394197975,1,1,1,1,1,-2,-1,-1
1480528394197975,-4,-4,-7,-8,-4,-2,0,-1
1480528394198477,0,-3,-5,-4,-3,-2,-1,0
1480528394198477,-1,-3,-7,8,6,-1,-1,-1
1480528394220541,0,0,1,-14,-7,1,-1,1
1480528394220541,0,1,2,12,6,-1,0,-1
1480528394221539,-2,-2,-5,-13,-9,0,-2,-1
1480528394221539,0,-1,-1,1,4,0,0,-2
1480528394234573,-2,0,-2,-3,-3,-1,-1,-1
1480528394234573,2,-1,-2,7,7,2,2,1
1480528394242595,-2,-1,-2,-5,-4,-1,-2,-1
1480528394242595,0,1,1,-9,-5,-1,-1,0
1480528394258136,0,1,-1,-2,3,0,0,-1
1480528394258136,1,-1,3,1,-5,-1,1,0
1480528394258638,-2,-3,-3,0,-1,-2,-3,-1
1480528394258638,0,0,3,-1,2,0,-1,-1
1480528394280194,-1,1,3,3,0,1,0,2
1480528394280194,0,-3,2,5,-1,-1,0,-1
1480528394281199,1,-5,-3,-10,-2,0,0,0
1480528394281199,0,1,2,-8,-3,-2,0,1
1480528394294733,-2,1,-6,3,0,0,-2,-1
1480528394294733,-2,-3,1,-4,-5,-2,-1,-1
1480528394295736,-2,3,1,5,0,-1,-1,-1
1480528394295736,0,2,5,9,3,1,0,-2
1480528394317797,0,-2,-4,-11,-3,-1,0,-1
1480528394317797,-1,-1,-2,-1,-6,-2,-1,0
1480528394318799,0,0,3,8,5,0,1,0
1480528394318799,-2,-1,-3,-11,-6,-2,0,0
1480528394346872,0,0,3,9,8,0,-1,0
1480528394346872,-3,-2,-3,-3,1,1,1,-2
1480528394356397,1,3,2,5,4,-1,-2,-1
1480528394356397,-2,-4,-6,-4,-5,0,-1,1
1480528394357902,-2,2,1,2,0,1,-1,-2
1480528394357902,0,1,2,-3,-1,-3,-2,1
1480528394358404,-1,-4,-3,-3,0,-1,1,0
1480528394358404,-1,0,1,7,0,0,0,0
1480528394377956,0,0,-1,4,0,3,1,-1
1480528394377956,0,-1,-1,-2,0,0,-1,0
1480528394378958,-1,-3,-2,-14,-4,-1,-2,-2
1480528394378958,-1,-2,3,0,-3,-2,-2,-2
1480528394400515,-1,-1,0,10,10,1,1,2
1480528394400515,1,2,3,-2,-4,0,-2,-2
1480528394401518,1,1,-4,-4,-2,-1,1,1
1480528394401518,1,0,0,4,6,0,3,1
1480528394415556,0,0,1,0,-3,-4,-2,0
1480528394415556,-1,2,2,10,5,2,1,0
1480528394416056,-1,-1,-2,2,-4,2,0,-1
1480528394416056,-1,2,2,2,4,0,0,-1
1480528394438115,0,-3,-5,1,-2,-1,-1,-1
1480528394438115,2,-1,-2,-2,-4,-1,0,1
1480528394438616,-1,0,2,-4,4,-1,-1,-1
1480528394438616,-1,0,0,-2,0,0,0,-1
1480528394460674,-2,-6,-5,-5,-3,-1,0,-1
1480528394460674,-2,-3,-1,0,-2,-2,-1,-3
1480528394461176,0,1,1,5,-2,-2,0,0
1480528394461176,0,-1,-1,-3,-5,-2,-1,0
1480528394475716,1,0,5,-13,0,2,-1,-1
1480528394475716,-1,-1,-4,-5,-1,0,0,-2
1480528394476217,0,2,0,7,5,2,1,1
1480528394476217,0,0,3,2,-3,1,0,0
1480528394498278,0,-1,2,2,-2,-2,-2,0
1480528394498278,-1,-1,2,0,1,-1,0,0
1480528394498777,-1,-3,-4,-2,-3,-2,-1,-1
1480528394498777,-2,-3,-2,7,1,0,-2,-2
1480528394520338,0,1,0,-2,-1,-2,-2,-2
1480528394520338,1,2,1,-1,0,1,0,-1
1480528394521336,0,-1,1,3,5,1,0,1
1480528394521336,-1,-5,-6,-7,-3,-2,-3,-1
1480528394534872,0,0,-4,-3,-5,-3,0,1
1480528394534872,1,2,0,-2,-2,-3,-1,0
1480528394535876,-4,-5,0,4,0,1,1,-1
1480528394535876,0,-1,-5,-1,2,0,-1,0
1480528394557934,-1,1,5,12,4,0,-2,0
1480528394557934,-1,0,-2,-17,-2,0,-1,-1
1480528394558936,1,2,3,1,1,1,-1,-1
1480528394558936,1,-1,2,1,0,-2,0,1
1480528394580493,-1,-5,-3,2,0,0,1,-1
1480528394580493,-1,-1,1,8,0,1,-1,1
1480528394581497,1,1,-2,-10,-5,-2,0,0
1480528394581497,-2,-1,0,-5,-6,-1,1,0
1480528394594029,2,4,-1,-2,-3,-2,0,-2
1480528394594029,-3,0,1,9,5,-1,0,-1
1480528394602553,-1,-1,1,-3,-1,0,-1,0
1480528394602553,0,-1,-2,2,0,-1,-2,0
1480528394617091,-3,-2,-1,-6,-4,0,-1,1
1480528394617091,0,-1,2,-2,-3,-2,-1,1
1480528394624611,0,1,-4,2,-1,-2,0,-1
1480528394624611,0,-2,1,-3,3,-1,2,-1
1480528394640654,-1,0,2,7,2,-1,-2,-1
1480528394640654,0,-3,-4,-14,-3,-2,-1,0
1480528394642741,-4,1,0,5,2,-3,-2,-2
1480528394642741,1,2,2,9,-4,0,0,-1
1480528394654189,-4,-3,-4,-16,-3,1,2,-2
1480528394654189,-2,-3,-1,8,1,1,-1,0
1480528394662211,1,-3,1,0,0,-2,-1,-1
1480528394662211,-2,-1,-2,4,1,-3,-3,-3
1480528394677752,2,4,-1,-4,-4,1,1,1
1480528394677752,-2,-3,-3,-3,-5,-1,-1,-1
1480528394678755,0,-1,0,-4,-1,0,-1,-2
1480528394678755,-1,-5,-4,1,0,0,0,0
1480528394700312,-1,-3,-1,1,2,-3,-1,1
1480528394700312,-1,-1,0,0,2,-2,-1,-1
1480528394701316,-2,-4,-6,-13,-5,-1,2,1
1480528394701316,2,5,3,1,0,-1,0,0
1480528394714350,-3,-2,-1,0,3,2,-1,-2
1480528394714350,-3,-1,-2,-1,-2,1,0,-2
1480528394722371,-1,1,1,9,2,1,-2,-1
1480528394722371,-1,-3,2,0,-1,2,-1,-2
1480528394745432,0,-1,0,-5,1,1,-1,-1
1480528394745432,3,2,2,3,4,1,-1,-2
1480528394746435,3,1,-2,-11,-3,1,-1,-1
1480528394746435,-3,-4,0,-2,3,-1,0,0
1480528394760472,0,0,-4,7,0,-1,-2,-1
1480528394760472,0,1,0,4,-5,-2,1,-2
1480528394761475,-3,-2,2,11,4,2,-1,0
1480528394761475,1,2,-7,-10,-4,0,2,0
1480528394774008,0,0,1,-1,0,-2,-1,-1
1480528394774008,-1,0,-4,-2,-2,0,-1,0
1480528394782531,-2,-2,-1,2,-3,-1,-1,0
1480528394782531,0,0,4,2,-1,-2,-2,-1
1480528394798573,-1,-2,-6,-7,-1,-2,0,-1
1480528394798573,1,-1,0,-3,2,1,-2,0
1480528394799075,0,-2,3,5,-5,-3,-1,0
1480528394799075,-1,0,-2,-10,-1,-1,-1,-2
1480528394820641,1,0,1,-5,-2,-2,3,0
1480528394820641,-2,-4,-4,1,1,-2,-1,-1
1480528394821136,-2,0,1,6,1,1,1,-2
1480528394821136,0,-3,-1,-2,1,-1,-1,0
1480528394834168,0,-2,0,-6,-3,-1,-2,0
1480528394834168,0,-2,0,-3,-2,-1,-1,-1
1480528394842996,-2,0,-1,-3,-2,-1,-2,0
1480528394842996,0,0,-3,7,0,0,-3,-1
1480528394858232,-2,-4,-3,-11,-3,2,0,-1
1480528394858232,0,2,-1,4,-1,-2,1,-1
1480528394858733,1,0,-1,-5,-1,-1,-2,-2
1480528394858733,1,0,0,-4,0,1,1,1
1480528394880291,0,-1,4,8,2,-1,-2,-2
1480528394880291,-3,-5,-5,-4,1,-1,1,-2
1480528394881293,2,0,2,1,-1,-2,0,0
1480528394881293,-1,1,-2,11,0,0,-2,-1
1480528394909368,1,-1,-1,-5,0,-1,-2,-1
1480528394909368,-1,-3,0,-4,-2,-2,-1,0
1480528394919396,-1,1,-1,2,3,0,1,-1
1480528394919396,0,-1,3,4,2,0,1,0
1480528394920901,-1,0,-7,-1,0,-1,1,-1
1480528394920901,0,1,1,2,0,0,-2,0
1480528394921909,-1,-5,-6,-4,-6,-1,0,0
1480528394921909,-1,0,2,0,-1,-2,-1,0
1480528394947971,-1,-3,0,6,1,-1,-2,-1
1480528394947971,-1,-1,-2,0,-2,2,1,-1
1480528394948974,1,1,-3,-3,1,-2,-1,-1
1480528394948974,-3,-3,-3,-6,-2,0,-1,-2
1480528394963011,1,2,5,5,1,0,-1,-1
1480528394963011,2,1,0,-1,1,0,1,1
1480528394964014,-2,-1,-3,-4,-2,-2,0,-1
1480528394964014,-1,-2,0,1,0,1,1,0
1480528394978051,-3,-4,-5,-2,-1,0,-1,-1
1480528394978051,0,1,0,5,-2,-3,-2,-2
1480528394978552,1,-1,1,-20,-5,0,0,0
1480528394978552,1,1,0,-1,-1,-2,-2,0
1480528395001112,-1,0,1,5,-1,1,-1,0
1480528395001112,1,-1,1,-1,0,0,-1,2
1480528395001613,-2,-3,-2,8,1,-1,-2,-2
1480528395001613,2,0,-5,0,2,-1,-1,1
1480528395023171,-2,-1,-1,-8,-4,0,0,-1
1480528395023171,-2,0,1,-3,0,-2,-2,-1
1480528395023673,0,0,3,5,2,1,1,0
1480528395023673,0,-1,-1,-3,0,-1,1,0
1480528395037211,0,-2,2,4,-1,-2,-1,-1
1480528395037211,-1,0,-3,-3,-3,-2,1,1
1480528395038211,0,1,2,5,3,1,0,0
1480528395038211,0,-1,5,4,3,-2,0,-1
1480528395060270,0,0,-8,1,-1,0,-1,-1
1480528395060270,-1,-1,-1,-10,-8,0,0,1
1480528395061273,0,-3,-1,2,2,-1,-2,-1
1480528395061273,-2,-1,0,-7,-6,-2,0,-2
1480528395082830,2,1,-1,1,4,3,1,0
1480528395082830,1,0,-1,4,1,-1,0,2
1480528395083832,-1,0,-1,14,4,0,-1,-3
1480528395083832,-2,-2,-4,-10,-9,1,1,-3
1480528395097368,-3,-1,0,-7,0,-1,-2,-2
1480528395097368,-1,-2,1,-5,-1,0,0,-1
1480528395097869,-1,-1,-3,-3,-4,-3,0,0
1480528395097869,0,-1,2,3,2,0,0,-3
1480528395120432,-1,-3,-3,5,-5,-1,-1,0
1480528395120432,-2,2,-1,-2,8,1,-2,0
1480528395121433,-2,-2,0,4,-1,0,0,0
1480528395121433,0,0,1,2,1,2,-1,-1
1480528395143295,-2,-1,4,-16,-5,-1,1,0
1480528395143295,0,-1,1,9,-1,-3,-1,-2
1480528395143993,0,-4,-1,-8,-4,-1,-1,-2
1480528395143993,0,1,-3,3,3,-1,-1,2
1480528395157528,-2,-2,-2,5,-1,-3,0,0
1480528395157528,-3,-4,0,-4,1,-1,0,-2
1480528395158029,0,1,0,1,0,-2,-1,0
1480528395158029,-1,4,2,1,-1,-2,-1,-1
1480528395180590,2,2,1,3,1,0,-1,1
1480528395180590,-1,0,1,5,-3,-1,-1,-1
1480528395181091,0,-4,-2,-4,1,1,-2,1
1480528395181091,1,0,0,-2,4,-1,-2,0
1480528395202147,0,2,3,6,-3,0,1,0
1480528395202147,-1,-1,-1,-3,-1,0,0,-1
1480528395209667,-2,1,0,3,-2,-1,0,0
1480528395209667,-1,-2,2,4,3,0,0,1
1480528395218694,-3,-3,-4,4,5,1,-1,-1
1480528395218694,-2,-2,-5,-3,-3,-2,1,-1
1480528395219695,0,0,0,-5,0,1,-1,1
1480528395219695,-5,-4,-2,-2,-2,-1,-1,0
1480528395240750,1,2,-1,6,0,0,-2,-2
1480528395240750,1,-1,0,-9,-4,-1,0,-1
1480528395242255,-1,-3,0,7,1,-2,-2,-1
1480528395242255,1,3,-1,-6,-5,-1,-1,0
1480528395262808,0,-2,-3,-12,-7,-2,-1,0
1480528395262808,-2,-4,0,5,4,0,-2,-1
1480528395263811,2,5,11,5,2,-1,2,0
1480528395263811,0,-1,-7,-23,-10,-1,0,-1
1480528395276845,0,1,3,-1,-1,-2,-1,-1
1480528395276845,0,1,-2,1,-4,0,-2,2
1480528395293390,-1,-2,-4,-4,1,1,2,-3
1480528395293390,-1,-3,-1,3,1,-2,0,-1
1480528395300408,-2,-1,-3,-1,-1,0,0,1
1480528395300408,-2,-1,-3,-10,-3,-1,-1,-1
1480528395302415,0,2,-2,0,-2,-1,-3,1
1480528395302415,0,2,2,-1,-3,-3,-1,-2
1480528395322968,-1,-1,-3,9,5,-1,-2,-3
1480528395322968,1,0,0,1,-1,2,0,-1
1480528395324472,-4,-6,-6,1,2,0,-1,0
1480528395324472,2,4,3,1,-1,0,1,-1
1480528395336509,-2,-3,-1,-2,3,0,-2,0
1480528395336509,-2,-1,0,7,1,-2,1,-2
1480528395361070,2,2,0,-9,-8,-2,0,0
1480528395361070,-1,-5,-1,5,-2,0,-2,1
1480528395362073,3,1,-1,13,3,-1,0,-1
1480528395362073,0,0,0,-13,-1,1,-2,-1
1480528395363577,0,-1,-1,-3,-4,-2,-1,1
1480528395363577,-3,-2,5,6,2,0,-1,-1
1480528395383129,-3,0,-3,-10,-2,1,2,1
1480528395383129,2,1,3,7,3,-2,0,-2
1480528395384633,0,-1,-3,-4,-3,0,1,-2
1480528395384633,1,0,1,1,2,1,-1,0
1480528395396664,0,0,2,2,2,0,1,1
1480528395396664,-2,1,5,3,1,2,-1,0
1480528395405691,-2,-1,-1,1,2,-1,0,-2
1480528395405691,0,0,-5,-10,-1,0,1,1
1480528395420731,-1,-1,2,0,-4,0,-2,-1
1480528395420731,0,-2,-2,-9,1,-1,-1,-1
1480528395422234,-1,0,0,-3,-2,-2,-1,0
1480528395422234,-3,-5,-5,4,-1,0,-2,0
1480528395443290,-1,3,3,1,0,-2,0,-1
1480528395443290,-3,-5,-12,-6,-2,-2,1,0
1480528395444793,2,-4,1,8,4,2,-2,-2
1480528395444793,0,-1,-1,2,1,-2,-1,-1
1480528395456824,0,1,3,-12,-4,-1,0,0
1480528395456824,1,2,0,3,-5,0,1,0
1480528395465849,-3,-3,-2,-4,2,-1,1,-1
1480528395465849,0,2,-7,-3,-6,-2,0,-2
1480528395480387,0,-3,2,4,-1,-2,0,1
1480528395480387,-1,-2,0,3,2,-1,-3,-1
1480528395482392,1,1,1,-2,1,1,0,-1
1480528395482392,1,-5,-3,0,1,-1,1,0
1480528395502949,2,3,2,-2,-4,0,0,-2
1480528395502949,2,0,3,1,-2,-1,0,-1
1480528395504452,-2,-3,-6,7,-2,0,-3,-2
1480528395504452,-2,0,-2,-11,-4,0,1,0
1480528395525507,-1,-2,0,2,1,2,-1,1
1480528395525507,-2,-3,-3,3,1,0,-1,0
1480528395527012,4,3,0,1,0,-3,0,-2
1480528395527012,-4,-2,2,7,1,-1,-1,0
1480528395541551,-2,-8,-8,-7,-2,-2,-1,-2
1480528395541551,0,3,0,3,1,1,1,0
1480528395543054,-2,-1,-5,-6,-5,0,-1,-1
1480528395543054,-1,-4,0,4,1,0,-2,-1
1480528395563107,1,4,1,-1,2,-1,0,-1
1480528395563107,-2,-1,1,0,1,-1,1,-1
1480528395564611,-1,-1,-2,-1,-3,-3,-1,-1
1480528395564611,1,0,3,-1,-1,1,1,0
1480528395576643,0,-1,-1,2,-1,1,-1,0
1480528395576643,0,0,-2,6,8,0,-1,-2
1480528395585668,0,-1,4,-9,-5,-2,-1,0
1480528395585668,0,0,-2,-1,0,-2,-1,-2
1480528395600707,-1,-1,1,3,0,-1,0,-1
1480528395600707,0,-1,1,-2,-1,-2,-1,-2
1480528395602212,-2,-2,1,2,0,1,-1,1
1480528395602212,2,6,-1,2,0,0,-2,-3
1480528395630287,2,1,0,-1,1,-3,0,-2
1480528395630287,-2,-4,3,-4,-8,-1,-2,-1
1480528395632292,-1,-2,-6,-7,3,-1,0,0
1480528395632292,0,-1,1,0,-3,0,-1,0
1480528395636805,1,0,-1,8,-2,0,0,1
1480528395636805,1,0,0,-1,-1,-2,-2,0
1480528395645827,-2,-2,5,8,0,-1,0,-1
1480528395645827,1,1,-2,-11,-3,-1,0,-1
1480528395660366,-2,-4,-1,8,4,0,-1,-1
1480528395660366,0,0,-2,-8,-1,1,-2,0
1480528395662371,0,5,-1,0,0,0,1,-1
1480528395662371,-1,-3,-3,10,4,-1,1,2
1480528395682926,-2,-3,-2,-7,-6,0,-1,-1
1480528395682926,0,-2,-4,-1,-3,-1,0,-1
1480528395686435,0,4,1,-2,-1,-1,-1,-2
1480528395686435,-2,-1,0,-1,-3,-1,-1,0
1480528395696462,1,0,-1,-3,0,-2,1,3
1480528395696462,-1,3,-3,1,2,-2,-2,-1
1480528395705486,1,1,4,-7,-4,-2,-1,1
1480528395705486,-1,-2,0,-1,-1,1,-2,0
1480528395720529,-2,-4,-1,4,-3,-3,-3,-3
1480528395720529,0,-2,-6,3,1,0,1,-3
1480528395722030,-2,-5,1,-10,-4,-1,-1,1
1480528395722030,-3,-4,-3,-5,-1,-1,0,-2
1480528395743086,-1,-1,-1,-5,0,0,-3,-2
1480528395743086,-5,-5,-2,7,0,1,0,-1
1480528395744590,1,1,-5,6,-1,-2,-1,0
1480528395744590,0,-3,0,-8,-1,0,1,0
1480528395756622,-3,1,0,1,1,-1,-1,-1
1480528395756622,2,3,-1,-8,-3,-1,-1,-1
1480528395765646,0,-2,-1,2,1,1,0,0
1480528395765646,0,1,1,1,0,0,0,1
1480528395780686,-2,0,-2,-2,0,-1,1,0
1480528395780686,-4,-7,4,3,-2,-1,-1,-1
1480528395782190,0,2,0,-5,-1,-1,0,1
1480528395782190,1,-1,-5,3,5,1,-1,-1
1480528395803248,0,-1,-2,-4,-5,1,0,0
1480528395803248,0,-1,1,-11,-1,0,1,1
1480528395804750,-2,-2,-7,-5,-2,-3,-2,-1
1480528395804750,0,0,0,3,-1,0,-1,1
1480528395816782,-1,-3,1,-3,-1,-3,-3,0
1480528395816782,0,2,-1,1,4,1,0,-1
1480528395825806,-2,-3,-1,0,4,2,-1,1
1480528395825806,-1,1,4,2,-2,-2,0,-1
1480528395840364,0,0,-1,-4,-2,-2,0,-2
1480528395840364,0,5,6,1,2,1,0,1
1480528395843622,-1,-5,2,0,0,0,1,-1
1480528395843622,-2,1,1,14,4,-2,0,1
1480528395862905,-3,-3,-3,-10,-4,2,0,0
1480528395862905,-1,-1,-5,-10,-4,0,-1,0
1480528395864408,-1,-1,2,11,-2,1,-1,-1
1480528395864408,-1,0,0,-15,-5,-1,1,0
1480528395886467,0,-3,-3,6,3,0,-1,1
1480528395886467,0,1,1,2,-6,-2,-1,1
1480528395887977,-2,2,-2,2,6,2,-1,-3
1480528395887977,-1,-1,2,7,3,0,-1,-1
1480528395915545,-1,2,1,-10,-6,-1,-2,-2
1480528395915545,-1,-3,-2,4,6,1,0,1
1480528395921061,1,3,0,-5,-5,-3,0,-1
1480528395921061,0,-4,1,7,0,0,0,-1
1480528395923066,-5,-6,-2,-10,-4,-3,0,0
1480528395923066,0,0,-3,-3,-1,-1,-1,0
1480528395924571,1,-2,-1,-2,-1,-2,0,0
1480528395924571,0,4,-2,-4,-1,-1,-1,0
1480528395945626,3,4,2,12,4,2,1,0
1480528395945626,0,-2,1,0,-3,-3,-2,-1
1480528395947129,-4,-3,-5,-1,2,-2,-1,0
1480528395947129,-3,-1,0,-8,-3,0,0,-2
1480528395960664,0,0,1,6,2,3,-1,-2
1480528395960664,0,-1,0,-6,0,-2,2,0
1480528395962169,3,-2,2,-2,-3,-1,-1,-1
1480528395962169,-1,1,0,5,-1,-2,0,1
1480528395983225,1,1,0,7,6,0,-2,-1
1480528395983225,-2,-6,-1,0,-7,-1,-1,-1
1480528395984729,-1,-2,-7,6,2,-2,0,0
1480528395984729,-1,1,-5,-11,-7,-1,-2,-1
1480528396005285,4,5,3,7,2,-1,0,0
1480528396005285,1,-1,0,-4,-5,-3,0,1
1480528396013305,-1,0,-3,-4,-3,-3,0,0
1480528396013305,-1,-3,1,5,5,-1,-1,-1
1480528396020324,1,-1,-1,-4,-5,-2,1,-1
1480528396020324,1,0,2,0,1,-1,0,-2
1480528396022330,-1,-1,-1,11,1,0,-1,0
1480528396022330,0,0,0,-26,-7,2,-1,-1
1480528396042887,-1,-2,0,0,0,-2,-3,1
1480528396042887,-2,-1,0,12,1,-1,-2,-1
1480528396044893,1,-1,-3,-14,-2,3,1,0
1480528396044893,1,-3,-1,8,7,0,2,0
1480528396065443,-2,-2,-3,-5,-4,-2,1,-1
1480528396065443,-2,-2,-4,1,2,-2,1,0
1480528396067450,-4,-3,3,1,0,-2,-1,-1
1480528396067450,0,-1,-3,-2,-3,-3,-3,-1
1480528396079991,-2,-2,-2,0,-1,2,0,0
1480528396079991,1,4,1,0,3,0,-1,0
1480528396086499,1,3,3,-3,-6,-1,0,-1
1480528396086499,0,0,2,1,1,-1,-1,0
1480528396103044,-1,0,1,7,2,0,-1,-2
1480528396103044,-2,-5,1,-1,-2,-1,0,0
1480528396104548,-1,3,-2,-12,-3,0,-2,-2
1480528396104548,0,1,1,3,-2,-3,-2,-2
1480528396125606,-1,-1,-1,0,-1,0,-1,0
1480528396125606,-2,1,1,4,-4,-3,-2,0
1480528396127107,1,-1,-5,-1,5,-2,-1,-1
1480528396127107,-2,-3,-6,3,-3,2,1,0
1480528396140143,-1,0,-4,-4,2,-1,-1,0
1480528396140143,0,1,-5,-9,-4,0,-2,-1
1480528396146660,-1,-1,-1,1,-1,-1,-1,0
1480528396146660,-1,1,0,6,1,-2,-3,-2
1480528396163203,-2,-1,3,1,0,-1,1,0
1480528396163203,2,3,4,3,3,1,-1,-1
1480528396164708,-2,-2,-1,-2,1,0,0,1
1480528396164708,2,0,0,4,0,0,1,-2
1480528396185764,0,-2,-1,-10,-2,-1,0,-1
1480528396185764,-1,-2,0,4,0,0,0,-3
1480528396187771,0,-1,4,-1,-2,-1,-1,0
1480528396187771,-2,-1,-6,5,3,0,-1,0
1480528396199800,0,1,-3,3,0,0,-2,-1
1480528396199800,1,1,-4,-2,0,-1,1,2
1480528396206820,-3,-2,1,-1,-3,-2,0,1
1480528396206820,0,-3,0,-4,-2,0,1,0
1480528396222864,-2,-1,-2,2,2,0,-1,-2
1480528396222864,0,-2,-3,-3,-3,0,-2,1
1480528396224873,1,3,0,-2,-1,1,0,-1
1480528396224873,-2,-4,0,1,-2,-3,-2,-1
1480528396245436,-1,-2,-5,-1,-2,-1,0,0
1480528396245436,-5,-3,1,-6,-1,-1,-1,-1
1480528396246926,1,1,-2,6,1,1,-2,-1
1480528396246926,2,2,3,5,0,-1,0,-1
1480528396259960,1,-2,2,3,11,-1,0,-2
1480528396259960,0,-1,-3,-9,-8,-1,0,0
1480528396266479,-1,0,2,1,1,0,0,-2
1480528396266479,-3,-3,-6,-2,-2,-2,-1,-1
1480528396283022,1,2,3,0,-1,0,1,0
1480528396283022,0,-1,3,8,0,0,0,-1
1480528396290543,-2,-1,-5,-6,-1,1,0,1
1480528396290543,0,-2,-2,-2,0,0,0,0
1480528396306086,-1,-1,-1,-4,-3,-1,-1,-1
1480528396306086,0,-1,-2,6,3,-2,-1,-1
1480528396307590,-3,-7,0,-2,-5,-2,0,-1
1480528396307590,0,2,2,-1,-2,1,0,1
1480528396319621,-1,0,-1,0,-3,-3,-2,-1
1480528396319621,-1,1,-1,-2,0,0,0,-3
1480528396326639,1,-1,4,7,-1,1,0,0
1480528396326639,-2,3,-1,0,1,-2,-1,1
1480528396343183,-2,-3,1,-8,-2,1,1,0
1480528396343183,1,0,2,12,4,1,0,0
1480528396344686,1,0,-1,-24,-8,-1,0,-3
1480528396344686,-1,-3,-3,4,5,-1,-1,-2
1480528396365742,3,3,-1,7,-1,-1,-1,1
1480528396365742,-1,-4,-5,-11,-4,-1,0,1
1480528396367246,1,1,1,5,0,-1,-1,0
1480528396367246,-1,0,0,-2,4,2,1,-1
1480528396379280,-2,-1,-4,-4,0,-1,-2,-3
1480528396379280,-2,-2,0,3,0,-2,-1,-1
1480528396395822,-2,-1,-1,12,4,-2,0,-1
1480528396395822,0,1,1,-7,-5,-1,0,0
1480528396402841,0,1,2,-2,-4,-4,2,0
1480528396402841,-1,0,-5,4,3,1,1,0
1480528396404847,2,-1,-3,-2,1,-1,0,0
1480528396404847,-1,-2,0,0,-3,-2,0,0
1480528396432921,1,0,0,9,1,1,-1,-1
1480528396432921,-1,-3,1,-11,-9,1,0,1
1480528396434926,0,1,0,2,6,-1,-1,-1
1480528396434926,-2,-5,-3,2,-3,-2,-1,0
1480528396439439,-2,-3,-1,-14,-8,-1,1,-1
1480528396439439,1,1,4,6,2,0,0,0
1480528396447961,1,-6,-4,-3,-4,0,1,0
1480528396447961,1,1,1,3,7,2,-1,0
1480528396463001,-2,-4,-1,3,-2,0,-1,-2
1480528396463001,-1,0,-1,-7,0,-4,-4,-2
1480528396464505,-1,-1,-4,-2,-4,-1,1,-1
1480528396464505,-1,0,-3,-8,0,2,0,1
1480528396485561,0,-2,-3,2,2,2,-1,0
1480528396485561,0,-2,-8,-9,-5,-3,0,-1
1480528396487065,1,1,1,5,1,-1,1,-1
1480528396487065,-1,1,1,0,-1,-2,0,-2
1480528396499598,1,3,3,5,-1,-2,0,-1
1480528396499598,0,0,2,1,1,1,-2,-3
1480528396508125,-1,0,-1,-12,-6,-1,0,0
1480528396508125,-2,-2,-1,0,-2,1,-1,-1
1480528396523161,-5,-6,-1,-2,0,-1,-2,-1
1480528396523161,1,2,3,3,8,1,0,1
1480528396524666,-1,-1,-2,-4,-6,0,-2,-2
1480528396524666,1,4,3,-4,-2,-1,0,0
1480528396545721,0,-1,-7,-11,-3,-1,-1,0
1480528396545721,-1,0,0,6,3,-1,-1,-2
1480528396547226,-3,2,-1,3,1,-1,0,2
1480528396547226,1,0,0,-8,-5,-4,0,-1
1480528396559257,-1,-2,-2,5,3,-2,-1,-2
1480528396559257,-1,-3,-4,3,-2,0,-1,-2
1480528396568281,1,2,0,-1,0,0,-2,-1
1480528396568281,-1,-2,3,3,-2,-3,-2,-2
1480528396582820,-1,-1,0,-3,-3,-1,1,1
1480528396582820,0,6,2,0,3,1,0,0
1480528396584826,-1,-2,-1,1,-1,0,-1,-3
1480528396584826,-2,-4,0,13,0,-1,-2,-2
1480528396605381,3,8,0,-12,-7,-1,0,1
1480528396605381,-2,-5,-3,-7,-3,0,-1,0
1480528396607392,0,-1,4,10,5,-1,-1,-2
1480528396607392,1,-1,-4,-12,-6,-1,0,0
1480528396618916,0,1,0,6,0,1,1,-2
1480528396618916,-1,-2,-4,-7,-2,-1,-2,-2
1480528396634458,0,-1,-1,3,0,-1,-2,1
1480528396634458,0,0,-1,-1,-1,-1,-2,0
1480528396642980,0,0,-1,4,5,1,0,2
1480528396642980,1,-2,-2,-9,-8,-2,2,1
1480528396644484,-2,-4,-3,7,3,-1,-2,-2
1480528396644484,-1,-1,-2,-3,1,1,0,-1
1480528396672058,-1,0,-1,1,2,0,-2,0
1480528396672058,1,1,9,0,-2,-1,-2,0
1480528396681909,-1,-3,-11,-9,-4,-2,0,-2
1480528396681909,-1,0,3,16,6,0,0,-1
1480528396682084,0,0,-2,-17,-7,-1,0,-2
1480528396682084,-1,0,1,2,2,-1,-2,0
1480528396688101,-2,2,-1,0,-4,-2,0,0
1480528396688101,-1,-2,-4,-6,1,1,-1,0
1480528396703140,0,-1,0,2,1,-1,-1,0
1480528396703140,-1,-4,-2,9,1,-2,1,-1
1480528396704644,-1,1,3,-16,-2,-2,1,-2
1480528396704644,-1,-3,-3,1,-4,-1,0,-1
1480528396725699,0,-1,1,3,0,-2,-2,1
1480528396725699,0,0,-6,-5,-1,-1,2,1
1480528396727204,-2,0,4,9,1,1,-2,1
1480528396727204,2,4,-4,-2,-3,0,0,-1
1480528396739737,1,-2,-1,-2,3,-1,0,1
1480528396739737,-1,1,-1,-2,0,-1,0,-1
1480528396748260,-1,-1,3,11,5,1,0,1
1480528396748260,-1,-3,-6,-19,-9,-3,-1,0
1480528396762798,-2,2,2,11,1,0,-2,-2
1480528396762798,-2,-3,-2,3,0,-1,-2,-1
1480528396764804,0,0,2,1,0,1,0,0
1480528396764804,-1,-3,-5,-2,-1,-1,0,0
1480528396785358,-2,-3,-2,-7,-2,-3,-1,-3
1480528396785358,0,1,-2,1,1,1,0,0
1480528396787365,0,2,1,1,1,0,-1,0
1480528396787365,-3,-3,4,0,-1,-2,-2,-2
1480528396799396,-5,-6,-1,3,2,0,0,-1
1480528396799396,2,1,-2,3,0,-2,0,-2
1480528396808422,1,-2,-8,-12,-7,-1,-1,-1
1480528396808422,0,-2,-1,7,-2,1,0,-1
1480528396822959,0,0,1,-1,4,0,-1,0
1480528396822959,-3,-2,-2,1,-3,-1,0,0
1480528396824465,-2,-2,1,4,0,1,-1,-1
1480528396824465,1,-1,-2,-2,-1,1,1,0
1480528396846023,2,3,2,2,-1,0,0,-2
1480528396846023,-3,-3,1,-12,-3,1,1,0
1480528396851534,-1,-1,-2,5,-3,-3,-2,0
1480528396851534,-3,-1,2,-16,2,2,1,0
1480528396868079,1,0,2,6,-2,0,-1,1
1480528396868079,0,2,0,0,-4,-2,0,-1
1480528396869583,2,-1,1,0,5,0,1,0
1480528396869583,0,3,-3,4,2,-1,-2,-2
1480528396883119,2,2,-3,0,0,2,-1,0
1480528396883119,-6,-6,-1,-10,-2,0,-2,0
1480528396884622,-2,-1,-1,-1,-2,-1,-1,-1
1480528396884622,2,3,4,7,2,-3,-2,-1
1480528396905680,-3,-2,-2,-4,-1,0,1,1
1480528396905680,3,5,-1,7,0,-1,0,0
1480528396907183,-3,-8,2,-4,-2,-2,-2,0
1480528396907183,0,0,2,0,-2,-1,1,-1
1480528396928238,-1,-1,-1,2,-4,0,0,-1
1480528396928238,-2,0,4,13,9,1,-2,-2
1480528396929744,2,0,0,-21,-9,-2,-1,1
1480528396929744,1,-2,-3,0,-2,-3,-2,-1
1480528396942777,-3,-3,0,-3,-2,0,-1,0
1480528396942777,0,-4,-2,1,0,0,-1,0
1480528396958318,-2,2,1,6,1,-2,0,-3
1480528396958318,-3,1,0,5,2,-2,-1,-4
1480528396965337,-1,2,0,-5,-3,-2,-1,-1
1480528396965337,-1,-3,-1,0,-1,0,0,-1
1480528396967342,-2,1,-1,-7,2,-1,-2,0
1480528396967342,-1,-2,5,0,-1,2,2,2
1480528396987899,-1,-2,-1,-1,-3,-1,0,-2
1480528396987899,0,1,2,7,-1,-1,-1,-2
1480528396989905,1,-5,1,7,4,1,0,2
1480528396989905,0,1,-3,-15,-2,-2,-2,-2
1480528397002436,1,0,1,9,1,-2,-2,-1
1480528397002436,-1,0,-1,-26,-12,-2,-1,-2
1480528397016474,0,2,-7,4,3,3,-1,-1
1480528397016474,-1,2,3,2,-5,-1,-1,1
1480528397025500,0,-3,-2,-1,5,0,-2,0
1480528397025500,-2,0,-4,3,0,-1,0,-1
1480528397027002,-3,-2,-1,-1,-4,-1,0,0
1480528397027002,-2,-1,2,2,3,0,-1,-1
1480528397048057,-1,0,1,-2,-1,2,1,0
1480528397048057,1,5,-2,1,-2,-1,-1,-1
1480528397049561,1,-2,1,4,5,1,0,-1
1480528397049561,1,1,2,-5,-2,0,-1,0
1480528397062597,-2,-3,-3,7,1,-2,0,-1
1480528397062597,0,-1,-2,-2,0,-1,0,-1
1480528397069114,-1,0,1,1,5,0,-1,-2
1480528397069114,-2,-2,-5,4,-2,-2,-2,0
1480528397085657,1,-2,-3,-5,-2,-1,-3,-3
1480528397085657,1,-1,-2,2,0,0,0,0
1480528397087162,0,1,1,3,1,1,0,1
1480528397087162,-3,-4,-1,-3,1,1,-1,1
1480528397108217,0,-1,-1,1,-3,-1,2,-2
1480528397108217,-1,-5,-4,5,1,-1,-2,-1
1480528397109722,-1,2,0,-7,-4,-1,0,0
1480528397109722,0,1,6,12,0,0,1,-2
1480528397122257,-1,4,-4,-24,-10,-1,1,0
1480528397122257,0,-2,-1,-2,1,0,0,-1
1480528397129274,0,0,-2,-1,-1,-1,0,-2
1480528397129274,0,-2,-2,7,1,2,-1,-1
1480528397146318,0,0,-1,4,-4,-4,-2,-1
1480528397146318,0,2,3,5,8,1,-1,0
1480528397147823,0,0,0,-9,-7,-1,1,1
1480528397147823,0,-1,0,2,3,0,0,-1
1480528397167875,-3,-1,-4,-7,2,4,-1,-2
1480528397167875,-3,-2,1,-2,0,-2,-2,-1
1480528397169882,0,-2,-2,7,-1,-1,-1,-1
1480528397169882,1,1,-1,3,2,0,1,1
1480528397190438,-2,-1,0,-6,-2,-2,-1,-1
1480528397190438,-1,-2,-1,1,1,2,0,-1
1480528397191943,1,2,-5,-1,-3,0,0,-1
1480528397191943,0,-2,-1,-5,-3,-2,0,-1
1480528397205479,0,-2,-6,7,3,-1,0,-1
1480528397205479,-2,-3,-1,-12,-8,-1,2,0
1480528397207482,-1,1,4,5,-1,-1,1,-2
1480528397207482,1,0,-3,-3,2,0,0,-1
1480528397228036,0,1,4,3,1,0,0,-1
1480528397228036,1,3,4,7,0,0,-1,2
1480528397229540,0,0,-3,-10,-3,0,-1,-1
1480528397229540,-1,1,1,-2,-1,1,0,-2
1480528397242575,-3,-4,-3,0,-4,-3,-2,-1
1480528397242575,1,1,-7,-3,-1,-2,-2,-1
1480528397256612,-1,-1,0,1,0,0,-1,0
1480528397256612,1,2,1,6,1,-1,0,1
1480528397265636,-1,-4,-1,-9,-4,0,-1,0
1480528397265636,1,1,-2,0,-3,-1,-2,-3
1480528397267140,-1,-3,-5,14,6,-1,0,2
1480528397267140,-2,-4,-4,-26,-10,-3,-3,-1
1480528397296217,3,3,4,7,1,-1,1,0
1480528397296217,-1,-1,-1,-3,3,0,-1,1
1480528397297726,-3,-4,-3,-2,-3,-2,-2,-1
1480528397297726,-1,1,-2,6,-3,-1,-1,0
1480528397302233,0,-3,1,0,1,-1,-1,-1
1480528397302233,-4,-3,0,-1,-1,0,2,-1
1480528397309252,1,0,-1,-3,3,-2,-1,-2
1480528397309252,-2,-2,-3,-1,-2,-1,0,0
1480528397325295,1,2,2,1,-3,-1,0,2
1480528397325295,-3,-4,-3,-5,-2,0,0,0
1480528397327300,-3,0,4,5,0,1,-2,-1
1480528397327300,-1,0,2,0,1,2,0,1
1480528397347856,0,1,-6,-2,-1,-1,-1,0
1480528397347856,2,3,5,15,7,-1,1,0
1480528397349860,0,0,-4,-23,-9,-1,0,-2
1480528397349860,-1,-2,-3,7,1,-1,0,0
1480528397370417,-2,-2,-5,-11,-3,-1,-1,-2
1480528397370417,0,-1,-2,-1,-5,0,1,2
1480528397372421,-1,-4,-1,4,-1,-2,-2,-1
1480528397372421,-1,-2,2,0,1,-3,-2,-1
1480528397385455,-1,-3,-1,6,-1,0,0,1
1480528397385455,1,2,-1,0,-1,-3,-1,-3
1480528397387461,1,3,3,3,2,0,0,1
1480528397387461,0,0,-5,-5,-1,0,-1,1
1480528397408015,0,2,7,4,1,0,-1,0
1480528397408015,-1,-2,-2,-5,-2,0,0,0
1480528397409519,0,-1,-4,1,-1,0,-2,1
1480528397409519,1,2,2,0,3,-1,0,-1
1480528397421551,-1,1,1,8,5,1,0,-1
1480528397421551,0,-2,-5,-7,-2,-3,-1,-1
1480528397430575,0,2,0,7,1,0,0,0
1480528397430575,1,2,2,-10,-6,-2,-1,0
1480528397445617,-1,-6,-3,5,3,-1,-1,0
1480528397445617,-1,-1,-1,-9,-4,0,-1,-1
1480528397447199,-1,-2,-1,2,-1,-2,-2,0
1480528397447199,0,-1,-3,5,-2,1,-1,-1
1480528397475696,0,1,3,4,1,-1,0,1
1480528397475696,-1,-2,1,3,-3,1,-1,1
1480528397477199,1,-2,-9,-3,-2,-1,0,0
1480528397477199,-1,-2,-1,1,-1,0,-2,0
1480528397481711,1,-1,-2,0,2,0,-1,-1
1480528397481711,1,0,0,3,-2,1,-1,-1
1480528397490735,-1,1,4,-4,-2,3,1,-2
1480528397490735,-2,-1,-1,2,5,-1,-2,-1
1480528397513797,-1,-1,-1,-6,-6,-2,0,0
1480528397513797,-1,-3,-1,-2,6,1,-1,-1
1480528397515300,-1,0,1,0,-4,-2,-1,2
1480528397515300,-1,-3,-4,2,-2,1,-2,-3
1480528397527833,1,3,2,-1,-3,0,-2,-2
1480528397527833,0,3,3,17,6,-1,0,-1
1480528397529838,-2,0,-2,-21,-8,-2,-1,-1
1480528397529838,0,0,1,-5,3,2,0,0
1480528397541874,1,-1,-5,-4,-2,-4,-1,-1
1480528397541874,-1,-5,0,5,1,-1,0,-1
1480528397551396,1,3,2,6,3,-3,-1,-2
1480528397551396,-2,0,0,1,0,-1,0,1
1480528397572954,-3,-1,-1,0,-1,0,-2,-1
1480528397572954,-3,-4,-2,-6,-2,2,-2,-1
1480528397574459,-1,-4,-5,-1,4,0,0,0
1480528397574459,0,0,-1,-4,-5,0,0,0
1480528397587995,-3,-4,-1,-1,0,0,-1,-1
1480528397587995,1,2,-2,-1,-4,-2,0,0
1480528397589498,2,0,3,6,-3,1,1,0
1480528397589498,1,-2,-4,-4,-5,-2,1,0
1480528397610554,-2,-2,-5,2,9,2,1,1
1480528397610554,0,1,3,-2,-3,-1,-1,1
1480528397612058,0,-3,-2,-1,2,1,-1,-1
1480528397612058,0,0,-1,12,3,-2,-1,-3
1480528397625594,-1,1,-2,-7,-9,-3,-1,1
1480528397625594,0,0,-3,-12,-5,1,-2,0
1480528397627097,-2,-1,-1,1,6,1,-1,2
1480528397627097,1,-1,4,4,1,-2,-1,-1
1480528397647652,0,1,0,-5,-6,-1,1,-2
1480528397647652,-2,1,0,-2,2,-2,0,-1
1480528397654171,-3,1,1,-5,-5,0,-1,0
1480528397654171,-3,-5,-1,-5,0,0,-1,0
1480528397661689,-1,-5,-4,3,1,-1,-2,-2
1480528397661689,1,1,5,-1,2,1,2,1
1480528397678234,0,0,-1,3,-3,-1,-1,-2
1480528397678234,-1,-1,-3,-2,-4,-1,-1,1
1480528397685753,-1,-1,1,-3,2,1,-1,-1
1480528397685753,1,0,3,3,-1,0,-1,-1
1480528397687257,0,-1,2,1,1,-1,1,0
1480528397687257,-1,-2,-5,-4,-2,-2,0,-2
1480528397707812,1,-1,1,8,0,-2,-2,0
1480528397707812,-2,2,1,-11,-4,1,-1,0
1480528397709819,-1,-1,1,8,2,0,0,-2
1480528397709819,-1,-1,-8,-24,-5,-3,0,1
1480528397721855,1,2,5,10,1,2,0,-1
1480528397721855,-1,-1,-4,0,4,-2,-2,-4
1480528397730874,-2,-4,0,1,-1,-2,1,-2
1480528397730874,-2,3,4,5,2,1,-1,-3
1480528397745419,-1,0,2,0,0,0,1,0
1480528397745419,0,-2,-1,3,-2,-1,0,1
1480528397746916,1,1,-1,-2,-5,-1,-1,0
1480528397746916,-2,-3,2,2,3,3,-2,0
1480528397767973,1,0,3,-4,-4,-2,0,0
1480528397767973,1,0,-2,2,1,-3,1,-1
1480528397769477,-1,-4,-1,1,4,1,0,2
1480528397769477,1,2,5,2,-1,-1,-2,-2
1480528397791542,0,0,-9,2,2,1,-1,-1
1480528397791542,0,-4,-3,-4,-1,-2,-1,-3
1480528397792537,-1,-3,-1,-13,-5,1,-1,-1
1480528397792537,0,-1,0,6,1,-1,0,-1
1480528397805576,0,1,-1,-15,-4,-4,-2,0
1480528397805576,-2,-4,-3,9,1,1,0,0
1480528397807081,0,2,-2,-7,3,-1,-2,-1
1480528397807081,0,-3,-1,6,-5,-1,0,1
1480528397828132,-1,0,0,1,3,0,-2,-2
1480528397828132,1,0,-2,3,0,0,0,2
1480528397829637,0,4,0,-1,-2,-2,0,0
1480528397829637,-2,-2,-6,-3,0,-2,1,0
1480528397850692,-1,-2,-3,3,1,-2,1,-1
1480528397850692,-2,-2,-3,-10,-6,-1,0,-3
1480528397852196,-2,-1,0,6,1,0,-1,-1
1480528397852196,-1,2,0,1,1,-1,1,1
1480528397865732,-2,-4,1,0,0,-1,-2,0
1480528397865732,-3,-2,-5,3,-4,1,0,-1
1480528397867236,0,3,2,-8,-2,-3,0,0
1480528397867236,1,-1,1,19,9,2,1,1
1480528397888294,-3,-2,0,-10,-6,-1,1,-1
1480528397888294,-1,-1,1,2,-1,-3,-2,0
1480528397889797,-2,-3,-2,7,3,-1,-1,1
1480528397889797,0,-3,-3,-8,-5,-1,-2,-3
1480528397910351,-1,-1,2,9,4,2,1,0
1480528397910351,1,0,0,-3,1,-2,0,1
1480528397916869,1,-1,-3,-3,-4,0,1,0
1480528397916869,0,0,1,-1,2,0,0,-1
1480528397924891,0,1,-4,-5,-6,-3,-3,-2
1480528397924891,1,1,-1,-2,1,-1,1,0
1480528397931908,-1,-2,2,1,3,-1,0,-1
1480528397931908,0,-2,-5,-1,-3,1,0,0
1480528397948954,1,2,0,-15,-6,0,0,-1
1480528397948954,0,1,1,4,2,1,0,2
1480528397953968,-3,-2,-2,7,2,1,-1,-3
1480528397953968,-4,-3,5,0,0,-1,-2,-2
1480528397970514,-1,-4,-7,-9,-5,0,1,-1
1480528397970514,0,-1,-3,2,-3,-2,-3,-1
1480528397972517,0,2,-3,-11,-5,-2,-2,0
1480528397972517,1,2,2,5,0,1,-1,-1
1480528397985050,-1,-4,-4,4,5,1,0,-1
1480528397985050,-1,-1,-2,3,-1,0,4,0
1480528397991569,0,-1,-3,-7,-2,-3,-1,-1
1480528397991569,1,0,1,-9,-5,-3,-2,-1
1480528398008114,-1,-2,-1,1,0,1,-1,-1
1480528398008114,-1,1,2,1,1,1,-2,1
1480528398009615,1,0,-1,3,-4,-1,1,1
1480528398009615,-4,-7,-1,-1,1,-1,-1,-3
1480528398030671,-2,-3,-2,-2,-2,-1,2,0
1480528398030671,-1,1,-2,-3,-5,0,-1,-1
1480528398032175,0,0,2,5,5,-1,-1,0
1480528398032175,-1,1,-5,-10,-3,0,-1,-2
1480528398044709,0,0,2,8,3,0,-1,1
1480528398044709,-2,-4,1,3,2,-3,0,0
1480528398068773,-2,-4,-7,-17,-12,-1,0,-2
1480528398068773,0,0,-1,-6,-2,-2,1,1
1480528398069274,1,1,3,2,4,1,-1,-1
1480528398069274,-3,-3,-7,-5,-3,-3,-1,-2
1480528398071280,0,-1,5,10,7,0,-1,-1
1480528398071280,1,1,-3,6,0,-1,2,1
1480528398090833,2,1,-1,-1,-2,-1,0,0
1480528398090833,0,3,2,-1,-2,0,0,1
1480528398092335,-4,-3,-4,8,-1,1,0,-1
1480528398092335,-3,-5,-2,-10,-4,0,-3,-1
1480528398104869,-1,-1,-3,5,3,-2,-2,0
1480528398104869,3,1,-2,-3,-1,0,0,1
1480528398111889,-1,-4,-2,0,2,-1,-1,-2
1480528398111889,2,4,-1,2,-2,1,-3,-2
1480528398135450,-1,2,5,-1,-2,0,-1,0
1480528398135450,-1,-1,-1,3,0,-1,-2,-2
1480528398137456,0,0,3,-14,-4,0,1,1
1480528398137456,-2,-2,-5,3,-3,-2,0,1
1480528398150490,-1,-3,1,-5,0,1,0,0
1480528398150490,1,-2,-1,-7,-3,-2,-1,-2
1480528398151994,2,3,2,9,3,-2,-2,1
1480528398151994,-1,2,4,0,2,-1,-1,0
1480528398165028,1,1,5,6,1,-3,1,-2
1480528398165028,-2,-2,-1,3,2,2,1,2
1480528398171547,-2,-1,-3,-1,-2,0,-2,-2
1480528398171547,-2,0,1,-8,0,1,1,1
1480528398188090,1,2,2,-2,-2,-3,-2,0
1480528398188090,-1,1,5,5,2,0,0,-1
1480528398189596,2,2,1,-1,-3,-3,-1,0
1480528398189596,1,3,2,3,0,1,-2,-4
1480528398211153,-4,-4,-1,0,-2,-1,1,1
1480528398211153,-1,0,-1,-3,1,-1,0,0
1480528398212655,1,2,-3,5,-4,-1,0,0
1480528398212655,-1,-1,-3,-7,-2,-3,1,0
1480528398233210,0,0,-2,4,3,0,0,1
1480528398233210,-3,-2,0,-1,-1,-2,-1,-1
1480528398234715,2,-2,0,-1,1,0,0,1
1480528398234715,0,-4,-2,5,2,-1,0,0
1480528398248250,0,2,-1,-4,-3,-1,-3,-1
1480528398248250,0,-2,0,7,2,3,-1,2
1480528398249754,-1,-1,-4,-4,1,0,-2,0
1480528398249754,1,0,3,0,2,-1,-1,-1
1480528398270310,-1,-1,-4,-3,0,-1,0,0
1480528398270310,1,0,1,2,-3,-4,-3,-2
1480528398276826,-4,-3,-2,-2,-3,-1,1,-3
1480528398276826,-1,-1,-3,0,-3,-1,-2,-1
1480528398284345,-1,-2,0,1,1,0,-2,-2
1480528398284345,0,1,1,-4,-2,0,-1,-1
1480528398293370,2,-2,-3,8,4,-2,-2,-2
1480528398293370,-3,-5,-4,-6,-7,-1,0,1
1480528398307911,0,0,-5,-3,-4,1,-1,0
1480528398307911,-1,-2,-4,-6,3,0,0,1
1480528398309914,-3,-2,2,-15,-3,-3,-2,0
1480528398309914,1,1,4,10,1,-1,0,-1
1480528398329465,-2,0,-3,-15,-3,1,-1,-2
1480528398329465,0,0,1,-1,-1,-2,-2,1
1480528398337990,-1,1,1,8,8,3,0,0
1480528398337990,0,-2,-3,1,8,1,0,0
1480528398353029,0,-1,3,2,-3,-1,0,-1
1480528398353029,-1,0,3,0,-3,0,-2,-2
1480528398354534,1,1,1,-2,1,1,1,0
1480528398354534,-1,3,1,-5,-6,-1,-3,-1
1480528398367568,-1,-3,-1,8,3,0,1,-2
1480528398367568,1,2,1,0,1,-1,-1,1
1480528398375588,0,0,4,6,-1,-1,0,-1
1480528398375588,-1,-1,-2,-11,-5,-3,-1,0
1480528398390632,-2,-4,-8,0,0,-2,-1,-3
1480528398390632,2,1,2,2,-1,-1,0,-3
1480528398392135,-3,1,0,5,-1,0,1,0
1480528398392135,2,1,-2,-6,-3,1,-1,-1
1480528398404168,0,3,3,2,-1,-1,-1,0
1480528398404168,-1,-1,-1,-3,2,1,1,-2
1480528398413191,1,-1,-2,-3,-6,-2,-1,1
1480528398413191,-1,-1,-2,4,1,0,0,-2
1480528398428230,1,0,-3,1,1,0,0,-3
1480528398428230,-3,-4,-1,-2,-2,0,0,0
1480528398429732,0,-1,-4,-4,-1,-1,1,-2
1480528398429732,1,-1,-1,9,1,0,0,1
1480528398450287,0,3,5,-3,-6,0,-1,1
1480528398450287,-2,-3,-9,-4,0,-2,-3,-3
1480528398452292,-3,-3,3,3,-3,0,-1,-2
1480528398452292,-1,1,2,1,0,0,-1,-1
1480528398464324,0,0,3,8,7,-1,0,0
1480528398464324,1,2,1,2,-2,3,1,0
1480528398473353,2,1,-2,-23,-6,-3,-2,1
1480528398473353,-1,0,2,8,0,1,0,-2
1480528398487896,-3,-1,0,-5,-2,0,0,1
1480528398487896,-1,-2,-2,4,3,-2,0,1
1480528398489392,-2,0,0,2,-1,-1,-3,-3
1480528398489392,1,3,1,5,-1,-3,-1,-1
1480528398510447,-2,-2,-1,-1,0,0,2,1
1480528398510447,-1,-2,-5,-7,-4,-3,-1,-1
1480528398511951,0,1,0,-1,-1,-1,0,1
1480528398511951,1,1,0,-8,-4,-1,-1,0
1480528398524486,-1,-6,-4,1,1,0,-1,1
1480528398524486,-1,-4,0,-4,-3,-3,-2,-2
1480528398533007,-1,0,0,3,2,-1,-1,-2
1480528398533007,0,-1,2,5,0,-2,-2,-1
1480528398555568,1,5,-3,-5,-1,1,0,0
1480528398555568,0,1,1,2,4,1,0,0
1480528398557073,0,-2,2,10,1,-1,-2,1
1480528398557073,0,-3,-4,-6,-6,1,1,0
1480528398578127,1,3,5,0,7,-2,-2,1
1480528398578127,2,1,-1,-12,-8,-3,-1,2
1480528398579631,-2,1,-2,5,3,0,1,-3
1480528398579631,-3,-4,1,4,3,-1,-1,-3
1480528398584143,1,-3,-1,4,-4,-2,-2,-2
1480528398584143,-3,0,0,1,-1,2,-1,0
1480528398593669,1,-1,2,-4,-1,0,1,0
1480528398593669,-2,-8,-5,-1,2,-1,-1,-2
1480528398608207,0,1,4,-7,-5,-2,0,-1
1480528398608207,-1,0,-3,-2,1,1,0,-1
1480528398614223,-4,-4,-5,1,0,1,1,0
1480528398614223,-3,-3,-4,-3,0,-1,-1,0
1480528398630768,0,-3,-2,4,-3,1,2,-2
1480528398630768,0,-3,-1,3,1,-1,-1,-2
1480528398632271,1,1,0,1,-5,-2,-1,0
1480528398632271,-1,2,1,-9,0,-1,1,2
1480528398644303,-1,-2,-3,4,2,-1,1,1
1480528398644303,-1,-2,2,-1,-6,0,0,-1
1480528398659343,-2,-3,-5,1,7,-1,-1,0
1480528398659343,3,3,4,7,0,0,-1,-1
1480528398667866,0,-5,-6,-8,-5,-1,-1,-1
1480528398667866,-5,-5,-1,-1,0,-1,-1,-1
1480528398669371,1,0,1,-4,-3,0,0,-2
1480528398669371,1,1,2,1,3,1,0,0
1480528398690429,-1,1,-1,-1,-3,-3,-1,-2
1480528398690429,1,3,4,0,-2,-2,0,1
1480528398692432,-2,-2,2,-3,3,0,0,0
1480528398692432,-2,-2,-6,6,0,0,-1,0
1480528398704464,-1,-1,3,-5,0,0,0,1
1480528398704464,1,0,0,-6,-3,-2,-2,0
1480528398719002,-1,-1,-4,-8,-3,-1,-2,-1
1480528398719002,-2,-1,0,0,2,1,0,-1
1480528398727525,-1,0,-3,3,1,2,-2,0
1480528398727525,1,0,1,11,4,0,0,0
1480528398734042,0,-3,-8,-5,-9,-2,-2,-1
1480528398734042,-2,-4,-10,-14,-4,-1,1,-2
1480528398750585,0,0,3,6,2,-1,-2,-1
1480528398750585,-1,-3,0,-3,-3,-1,1,-1
1480528398752090,0,-2,0,7,3,-1,0,0
1480528398752090,-1,1,-2,0,-2,-1,-2,1
1480528398773152,-3,-3,-2,-2,-2,1,-2,0
1480528398773152,2,5,0,5,4,0,0,0
1480528398774650,-1,1,6,0,2,1,-1,-1
1480528398774650,0,0,-1,-2,0,-3,-1,0
1480528398788187,-1,0,-2,-1,-6,2,0,2
1480528398788187,-2,-6,-2,-2,-1,0,-1,0
1480528398789694,0,-1,2,0,1,-1,-1,3
1480528398789694,0,2,5,3,1,0,0,0
1480528398810746,1,0,-2,-6,1,-1,0,0
1480528398810746,0,-2,-3,-6,-4,2,1,-2
1480528398812250,1,1,0,8,0,-1,-1,-2
1480528398812250,-1,-6,2,-4,-3,-2,-1,-3
1480528398832804,-1,-1,-2,-2,4,0,0,0
1480528398832804,1,0,4,6,3,-2,0,2
1480528398834810,0,-1,-2,-7,-2,-1,0,1
1480528398834810,0,3,2,3,-2,0,1,0
1480528398847845,0,-2,-1,-13,-6,-2,-2,-2
1480528398847845,-3,0,-1,-7,-3,0,-1,-2
1480528398855866,0,-2,1,11,5,1,-1,1
1480528398855866,-1,0,2,-3,-1,-1,0,-2
1480528398870405,3,0,-1,4,-7,-2,-2,-2
1480528398870405,-2,-4,-9,5,7,0,0,-1
1480528398871911,-1,-1,-3,-6,-1,1,2,-1
1480528398871911,2,2,0,-3,-4,-2,-3,0
1480528398900485,-3,-1,0,1,1,-2,1,-1
1480528398900485,-2,-2,0,-3,-3,-1,-1,0
1480528398901989,2,0,-1,-8,-7,-3,-3,-4
1480528398901989,-1,0,2,0,0,-2,0,-1
1480528398907504,0,0,2,1,2,2,1,0
1480528398907504,-1,-4,-2,1,2,-1,-1,-1
1480528398914020,-2,0,2,1,-2,0,1,1
1480528398914020,-1,-3,-3,-4,0,1,0,0
1480528398929564,0,-1,1,0,1,-3,-2,-2
1480528398929564,0,1,1,1,-4,1,-1,-1
1480528398944101,-2,0,4,6,1,0,0,1
1480528398944101,1,0,-4,-8,-3,3,0,0
1480528398953125,-2,-7,-5,2,3,-1,1,0
1480528398953125,-1,5,-3,-6,0,0,-1,-2
1480528398954629,3,4,-4,-2,-3,-3,0,-1
1480528398954629,-2,-5,3,10,2,0,0,-1
1480528398967162,-2,0,-1,-4,-2,-1,0,0
1480528398967162,-2,-3,1,0,1,0,-1,1
1480528398974182,0,2,0,-8,-2,0,-1,1
1480528398974182,0,0,-3,-3,-1,-1,0,0
1480528399005766,1,3,4,2,1,-1,-1,-2
1480528399005766,2,0,0,-2,-4,-5,-2,-2
1480528399007272,-1,-1,-2,1,6,0,0,-2
1480528399007272,-1,-1,-3,6,2,1,-1,-1
1480528399012783,0,0,2,-5,-6,0,-1,1
1480528399012783,-1,-2,-4,-22,-10,-3,-1,0
1480528399015116,-3,-2,-4,-3,1,-1,-1,-1
1480528399015116,-2,-1,-4,2,-2,-3,1,-1
1480528399027322,-1,-1,1,12,5,0,1,0
1480528399027322,-1,-3,-4,-9,-3,-2,0,-1
1480528399034341,0,-2,-5,-6,-4,-3,-1,0
1480528399034341,0,0,0,-3,0,0,1,-2
1480528399050383,1,3,0,3,-3,-1,-1,-2
1480528399050383,1,-2,2,5,3,2,2,0
1480528399051888,0,-1,3,1,-1,-1,-1,0
1480528399051888,-3,-1,2,4,2,0,0,1
1480528399080464,-2,-3,-4,-1,1,-1,1,-2
1480528399080464,-2,-3,-1,1,-3,-2,-1,-1
1480528399081969,1,0,-1,2,4,0,-1,-2
1480528399081969,0,0,-2,4,-1,-1,-2,0
1480528399087483,-1,0,1,-7,-1,1,1,2
1480528399087483,0,1,-1,-18,-1,0,-2,-2
1480528399094002,-3,-3,2,-1,-3,-1,-1,-1
1480528399094002,0,-3,0,-3,-3,-2,-1,2
1480528399110543,-1,2,3,7,5,-1,-2,1
1480528399110543,0,1,0,12,1,2,0,1
1480528399112048,0,-2,-1,-7,-3,0,1,-1
1480528399112048,2,4,3,2,2,1,0,-2
1480528399133103,-1,-1,-3,-9,-1,-1,0,-1
1480528399133103,1,-1,-2,1,2,0,0,0
1480528399134607,-3,-4,-9,1,-3,1,-2,-1
1480528399134607,0,2,-1,-10,-3,-1,0,0
1480528399147140,1,0,-5,5,-1,2,1,0
1480528399147140,-2,-1,3,2,0,-2,-1,-1
1480528399154170,-1,-4,1,0,0,0,0,0
1480528399154170,-1,-2,-2,1,-1,-4,-1,-2
1480528399170704,-1,-1,-1,0,-1,1,-1,-2
1480528399170704,0,2,1,8,5,2,1,0
1480528399172209,-4,0,0,-15,-8,1,1,-1
1480528399172209,-1,-1,2,-3,0,1,0,2
1480528399200282,0,0,1,0,-3,-1,0,-2
1480528399200282,-1,-2,-2,12,2,-2,-2,-1
1480528399202288,-2,-1,1,-2,0,0,0,-1
1480528399202288,0,-1,-2,-2,-2,-2,-1,0
1480528399207302,-2,-5,-4,-2,-3,0,-2,-1
1480528399207302,-1,1,0,4,2,2,-1,0
1480528399215823,2,5,6,9,4,0,1,1
1480528399215823,1,0,0,-4,1,1,-1,-2
1480528399229360,-3,-6,-3,-12,-6,-2,0,0
1480528399229360,1,1,0,-3,-1,-3,-1,-3
1480528399238385,0,2,1,1,-1,-1,-2,1
1480528399238385,0,0,-1,10,-5,-3,0,-2
1480528399252922,1,2,4,0,7,0,-1,1
1480528399252922,-2,-4,-3,-7,-5,1,1,-1
1480528399254927,-1,1,-2,1,-1,-1,-2,-1
1480528399254927,-1,0,-1,0,0,1,-2,0
1480528399266458,-1,-2,1,2,1,-1,0,-2
1480528399266458,0,5,2,0,1,-2,0,-1
1480528399275483,0,-3,-2,-13,-2,2,2,0
1480528399275483,-1,-2,-2,-1,-2,-1,-1,0
1480528399290528,0,5,0,6,0,-1,-3,-1
1480528399290528,0,1,-1,-8,-3,0,-1,1
1480528399292028,-2,-5,-1,5,0,-1,-1,-1
1480528399292028,-5,-5,-3,-4,5,2,0,0
1480528399313083,1,-2,-4,-3,-1,1,0,0
1480528399313083,1,1,2,5,1,1,0,0
1480528399314586,1,-1,-3,7,-6,0,-3,-3
1480528399314586,1,0,-2,-3,6,-1,-1,-2
1480528399326620,1,0,1,-1,0,-1,0,-2
1480528399326620,-1,0,-4,-4,-4,-3,0,1
1480528399335642,1,-2,2,1,-1,0,0,0
1480528399335642,-2,-1,3,5,2,0,-1,-3
1480528399350682,0,-1,-4,-3,-4,-2,0,-2
1480528399350682,0,-1,-1,1,1,-2,-2,-2
1480528399352187,0,1,0,1,0,-2,2,1
1480528399352187,1,1,-2,-15,-5,1,-1,-1
1480528399372742,-1,0,0,-4,0,-2,-1,0
1480528399372742,-2,-4,-2,2,-4,0,1,-2
1480528399379258,0,0,1,15,8,-1,0,-1
1480528399379258,0,-1,0,-9,-3,0,0,1
1480528399386780,0,0,4,2,1,-2,-1,1
1480528399386780,0,0,-4,7,3,1,-1,0
1480528399395802,-1,0,-4,-18,-6,-1,-1,-1
1480528399395802,-2,-3,1,3,2,-1,0,0
1480528399418363,1,2,5,3,-3,1,0,0
1480528399418363,-1,-3,2,4,1,-3,0,-2
1480528399419867,1,0,1,5,4,0,0,-1
1480528399419867,0,-1,-2,-1,-4,-2,-1,-1
1480528399432900,0,0,-5,-1,-2,-2,-3,-1
1480528399432900,-1,-2,-2,0,-1,1,1,0
1480528399434906,-1,-1,-2,-2,-3,-4,-1,-2
1480528399434906,0,3,2,7,6,1,0,1
1480528399446436,-1,-4,-4,-1,-4,0,-1,-2
1480528399446436,0,0,3,1,3,0,2,-2
1480528399455462,-3,0,-7,-6,-1,-2,-3,0
1480528399455462,-1,-3,-1,11,1,-2,0,1
1480528399470502,-2,0,-3,-11,-6,0,-1,-1
1480528399470502,0,0,-3,-11,-4,3,0,0
1480528399472005,1,-2,2,2,5,0,0,-2
1480528399472005,1,1,0,-2,-5,-3,-2,-1
1480528399493061,1,0,-3,4,6,0,-1,-1
1480528399493061,0,1,4,6,0,0,-2,0
1480528399494565,1,3,1,-5,-5,0,-1,0
1480528399494565,-1,0,-1,6,-3,1,-2,-1
1480528399515621,0,-2,0,-1,0,-1,0,0
1480528399515621,-2,-1,-3,-4,-1,-1,-2,-1
1480528399517125,0,0,3,6,4,-2,-1,1
1480528399517125,2,0,-2,2,3,1,1,0
1480528399530660,-1,-1,5,0,-1,0,0,-1
1480528399530660,-3,-2,-8,-4,-3,0,-1,0
1480528399532164,-1,-4,-1,1,1,-1,0,-1
1480528399532164,-1,-1,0,1,1,0,-1,-1
1480528399553221,-1,-1,0,-1,0,-3,0,-1
1480528399553221,-1,-4,-3,-5,-3,-2,-1,-1
1480528399554726,-1,-1,0,3,1,0,0,-2
1480528399554726,-1,3,-1,-11,0,1,0,-1
1480528399566756,-3,-4,-1,3,-3,-3,-1,-2
1480528399566756,1,2,3,6,6,1,1,1
1480528399575781,-1,-2,-1,-1,-1,-1,-2,2
1480528399575781,-1,-1,-2,-3,-4,-2,0,-3
1480528399590321,-1,0,1,5,3,1,0,2
1480528399590321,1,1,2,-5,0,-2,1,-1
1480528399592325,0,0,-1,0,-2,1,2,-2
1480528399592325,-1,1,-1,1,-1,1,1,1
1480528399620400,-2,-3,-3,-2,0,1,-2,-2
1480528399620400,0,-1,0,5,1,-1,-1,0
1480528399621906,-1,-5,-3,1,-3,0,1,-1
1480528399621906,-1,0,1,-4,-2,-1,-2,-1
1480528399626916,-1,0,-1,-16,-6,-1,0,0
1480528399626916,0,-2,-2,6,0,-2,-2,1
1480528399635440,2,3,2,-7,-5,-1,1,1
1480528399635440,-1,-3,0,-1,-1,-1,0,-3
1480528399650480,-1,-2,-3,6,3,0,0,-1
1480528399650480,0,0,1,2,2,0,-2,-1
1480528399651984,-1,1,0,2,-3,-2,-1,1
1480528399651984,-2,-1,-1,-3,-3,0,-1,0
1480528399673041,0,3,-1,-1,-1,-1,0,-1
1480528399673041,-3,-4,-2,-4,-2,-1,-1,-3
1480528399674545,2,1,2,2,2,0,1,-1
1480528399674545,3,0,-2,-3,-1,-2,-1,-1
1480528399696101,-1,-4,-7,-2,-2,1,0,0
1480528399696101,0,-1,-2,-2,-1,-1,0,1
1480528399697606,-2,-1,-3,-1,1,0,0,0
1480528399697606,0,1,6,1,2,-1,-2,-1
1480528399711141,2,5,2,6,2,0,1,2
1480528399711141,-3,-1,0,2,3,3,0,-1
1480528399712144,-2,-3,-1,-5,-5,1,-2,-2
1480528399712144,0,-2,-5,-6,-3,0,-2,1
1480528399733200,-2,0,3,5,5,-1,-1,-1
1480528399733200,1,-1,-2,-14,-7,-1,-2,1
1480528399734704,-1,-1,-2,7,1,-2,0,-3
1480528399734704,1,3,-1,3,1,0,0,-1
1480528399755259,1,2,7,0,0,0,0,0
1480528399755259,1,0,0,5,2,-2,1,-1
1480528399757266,-4,-3,1,-1,2,0,0,-1
1480528399757266,-1,-5,-2,-3,-2,-2,0,-2
1480528399770298,-2,-3,-1,0,-2,-2,0,-3
1480528399770298,-2,2,2,4,3,-1,1,-2
1480528399772305,2,4,1,-8,-4,0,0,2
1480528399772305,1,2,0,5,3,0,2,1
1480528399792858,-1,-1,0,0,0,-3,-2,-1
1480528399792858,0,-5,-2,-4,-2,0,1,1
1480528399794362,-2,-2,-3,3,-3,0,-4,-1
1480528399794362,1,-3,4,2,-5,-2,0,1
1480528399815418,-1,1,-6,-3,-4,0,-1,-1
1480528399815418,-2,0,0,-7,0,-3,0,-1
1480528399817423,-1,-4,-6,-9,-6,0,0,0
1480528399817423,-4,-2,-5,2,3,-2,-1,0
1480528399829957,3,4,0,5,1,0,1,0
1480528399829957,-2,-1,-3,-14,-12,-1,-3,-2
1480528399836475,-1,0,-1,2,2,0,-2,-2
1480528399836475,-3,-2,0,1,0,0,-3,-2
1480528399853018,-4,-9,0,3,4,0,-1,-1
1480528399853018,1,3,2,-2,-6,-2,-1,0
1480528399854524,2,0,-1,-1,-1,-2,-2,-2
1480528399854524,1,1,2,-1,1,2,2,0
1480528399875579,-1,-3,-4,0,0,-2,-1,-2
1480528399875579,0,-2,2,4,-2,0,-1,1
1480528399877083,-3,-2,-4,5,0,-3,-2,-1
1480528399877083,0,-1,1,-2,-2,-1,0,-1
1480528399890119,-1,-2,-4,-5,-1,2,-1,0
1480528399890119,1,1,0,3,-2,-1,-1,0
1480528399896634,0,-1,-1,4,8,3,1,2
1480528399896634,-1,-2,1,1,-1,0,-3,-3
1480528399913178,-1,0,-3,2,-2,-1,1,-2
1480528399913178,0,-3,-2,-16,-8,-1,2,0
1480528399914683,0,-3,-2,0,-1,-3,-3,-3
1480528399914683,-2,-1,-3,-1,-3,-1,0,0
1480528399943259,0,0,0,-1,1,0,-2,-1
1480528399943259,0,-2,-3,6,1,-1,-2,-1
1480528399944762,-3,-1,1,0,3,1,1,-2
1480528399944762,1,0,-1,1,0,0,-1,0
1480528399949776,1,0,1,-1,-3,-3,-2,-1
1480528399949776,-1,-1,-2,3,1,1,-2,-1
1480528399956796,1,1,2,-3,3,0,-2,1
1480528399956796,-2,-1,-6,-4,2,2,-2,0
1480528399972838,-1,-1,-3,0,-3,-1,-1,1
1480528399972838,0,2,4,14,8,2,2,0
1480528399974844,0,0,1,-15,-7,-1,-1,-1
1480528399974844,0,0,-3,-14,-8,-3,-1,-1
1480528399995397,0,-1,1,-4,-4,0,0,0
1480528399995397,-4,-4,-9,7,8,2,-3,-1
1480528399996916,0,2,3,0,-4,-1,0,0
1480528399996916,0,0,1,8,0,-1,-1,0
1480528400008933,-1,-1,-3,-8,-4,0,0,1
1480528400008933,2,3,1,0,3,0,-1,0
1480528400018459,-1,-4,-2,3,0,0,-1,1
1480528400018459,-2,-2,5,4,4,1,-2,0
1480528400032997,-1,1,-2,4,-3,-1,-1,-1
1480528400032997,0,1,2,0,1,-1,0,0
1480528400034501,0,-1,1,1,-2,0,-1,-1
1480528400034501,2,0,-1,-1,2,-1,-1,-1
1480528400055559,-1,-1,1,-4,-1,-2,0,1
1480528400055559,-2,1,-2,3,-1,-1,0,-1
1480528400057061,1,-2,-5,2,-1,-1,0,-1
1480528400057061,-1,-1,-2,4,2,-1,0,0
1480528400070096,-1,-1,4,-4,0,1,0,0
1480528400070096,-1,-1,2,-4,-4,0,0,-2
1480528400084135,2,2,-2,1,1,0,0,1
1480528400084135,-1,2,0,6,-2,-1,1,0
1480528400093157,-2,1,-1,-16,-3,0,-1,-2
1480528400093157,0,-3,0,4,1,1,1,-1
1480528400094661,-3,-4,-5,-16,-6,-1,-2,-3
1480528400094661,0,-1,2,-1,-1,-2,-1,-2
1480528400115216,0,1,-4,-1,0,0,0,0
1480528400115216,0,0,1,0,-4,-2,-1,0
1480528400117221,-1,-2,0,3,-1,0,1,0
1480528400117221,-4,-8,-11,-7,1,0,-1,-1
1480528400129754,-2,-2,-1,4,-1,-2,-1,-3
1480528400129754,-1,1,-2,-8,-4,-3,0,-2
1480528400136774,2,0,-2,4,2,0,3,0
1480528400136774,-1,-2,0,10,1,0,0,0
1480528400153319,1,1,3,-12,-3,-1,0,-2
1480528400153319,1,-3,-2,-13,0,1,0,2
1480528400159333,-1,1,1,1,2,-2,3,-1
1480528400159333,2,3,1,-2,-5,-2,0,-1
1480528400182895,-2,-6,1,11,5,0,0,0
1480528400182895,1,3,1,3,-2,-2,-2,-1
1480528400184402,-2,-3,-5,-4,-1,-1,-3,-2
1480528400184402,-1,0,-2,-3,-2,-3,-2,-1
1480528400188912,2,0,0,9,4,2,0,0
1480528400188912,-1,-4,-6,-21,-2,0,0,0
1480528400198437,1,1,2,6,3,-2,-2,-1
1480528400198437,0,1,-3,-14,-9,-2,-1,-1
1480528400213978,-2,0,2,1,4,-1,-2,0
1480528400213978,-3,-2,0,12,6,0,2,1
1480528400218992,-2,1,-1,-3,-1,2,-2,-1
1480528400218992,1,0,0,-4,0,1,1,0
1480528400235537,-1,0,0,6,0,-1,-1,-1
1480528400235537,1,0,-3,-9,-5,1,0,-1
1480528400237041,-1,-1,0,1,3,-2,-1,0
1480528400237041,-3,1,-2,1,-1,-1,-1,1
1480528400249071,-2,-3,-6,-7,-2,0,-2,-1
1480528400249071,-2,-2,4,11,0,-3,-1,-2
1480528400258097,2,6,0,-4,-1,0,-1,-1
1480528400258097,1,-1,2,-2,-3,2,1,1
1480528400273140,-2,0,-2,5,6,-2,-1,-1
1480528400273140,-1,-1,2,2,0,2,-2,-1
1480528400274639,-1,-2,-3,-3,-6,-1,0,1
1480528400274639,-1,1,-3,-4,1,-1,-2,-3
1480528400295696,1,-1,-1,-4,-2,0,0,0
1480528400295696,1,0,2,5,1,-2,0,-1
1480528400297200,-2,-2,0,2,1,-1,-1,-1
1480528400297200,-3,-1,-4,-2,-1,1,1,-1
1480528400309233,4,1,2,14,2,1,0,2
1480528400309233,-2,-3,-4,-24,-6,-1,-2,-2
1480528400318256,-2,0,2,4,-2,0,1,0
1480528400318256,0,-1,1,-1,-1,-3,-2,-1
1480528400332795,-2,1,2,-1,-2,-2,0,-1
1480528400332795,-1,2,0,10,1,0,0,0
1480528400334812,-2,-1,-1,-1,1,1,-1,0
1480528400334812,-3,-3,-1,-2,-4,-2,0,-1
1480528400355354,1,0,-5,1,3,1,1,-3
1480528400355354,0,-2,-1,0,0,2,0,-1
1480528400357364,-1,-1,-1,4,0,-2,1,-1
1480528400357364,-2,-4,1,-9,-3,1,0,0
1480528400369393,-1,-1,-2,-5,0,-1,-3,0
1480528400369393,1,2,-1,6,2,-1,-1,0
1480528400378417,1,-1,-2,-9,-1,0,-1,0
1480528400378417,-1,-7,-2,6,-1,0,0,-1
1480528400392954,-1,-5,-1,-3,-2,0,0,-1
1480528400392954,0,1,-3,8,2,-1,0,-1
1480528400394458,0,2,2,-5,-3,-1,-1,-2
1480528400394458,2,2,0,-4,-3,-4,1,0
1480528400415515,-5,-3,0,-15,-7,-2,0,-2
1480528400415515,0,-1,1,0,0,-2,0,-2
1480528400417019,-1,-4,-3,5,4,3,0,0
1480528400417019,-1,2,3,0,2,1,-1,0
1480528400429050,3,1,2,2,-2,1,-1,0
1480528400429050,-1,-3,-4,-5,2,-4,-3,-1
1480528400438075,-1,2,2,7,-4,-3,-1,-1
1480528400438075,1,-2,-1,10,13,2,-2,-1
1480528400453115,-4,-4,-5,-25,-15,-3,0,-2
1480528400453115,-1,1,0,3,5,2,-1,1
1480528400454619,-1,-4,-3,-2,-2,-1,-1,-1
1480528400454619,1,2,-2,2,0,-3,-2,-1
1480528400475675,1,1,4,12,0,-4,-1,1
1480528400475675,1,-2,-3,-9,-4,-1,-1,1
1480528400477180,-3,-2,4,-1,-1,0,-2,-1
1480528400477180,-2,1,-3,6,0,-3,1,-2
1480528400489213,0,2,0,-13,-3,-2,-2,1
1480528400489213,-1,0,1,5,-3,-1,1,1
1480528400498235,0,0,-1,8,9,2,-1,0
1480528400498235,2,2,-1,-12,-6,0,-3,-1
1480528400520295,2,0,4,4,2,1,0,-1
1480528400520295,-2,0,-7,-2,-8,-3,-1,-1
1480528400522303,-1,2,-2,-4,4,-3,1,1
1480528400522303,-1,0,2,5,1,2,1,1
1480528400535334,-3,-6,-3,1,-3,-2,0,-2
1480528400535334,-1,-2,-1,6,-1,-1,-1,-2
1480528400537340,1,-1,-3,-22,-9,0,1,1
1480528400537340,-1,-1,0,-1,2,-2,-1,-1
1480528400548869,0,2,0,8,4,2,-1,0
1480528400548869,-2,-1,7,-8,-2,-1,0,-1
1480528400565915,-2,-1,-1,1,-1,-3,0,-1
1480528400565915,0,0,-2,3,0,0,-1,-2
1480528400572934,0,-1,-2,4,1,-2,0,-1
1480528400572934,-1,-2,2,9,-1,-1,-1,-1
1480528400574440,1,3,-13,-14,-6,-3,-2,-2
1480528400574440,-5,-2,0,-9,-5,-3,0,0
1480528400603014,1,1,-1,9,-1,0,-1,0
1480528400603014,2,0,-2,-7,4,1,-1,0
1480528400604518,0,-3,4,10,-4,-2,-1,2
1480528400604518,0,-3,-4,-7,-3,-2,1,2
1480528400609030,-2,-1,-1,-4,-2,-1,-1,0
1480528400609030,-2,-2,1,-3,1,0,-2,-2
1480528400618054,1,1,2,7,-2,-1,0,-2
1480528400618054,-2,-5,0,8,8,4,0,-2
1480528400633093,-3,-4,-5,-3,-5,-3,-1,-1
1480528400633093,0,3,-5,-12,-5,-1,0,1
1480528400634598,1,3,1,4,5,0,-1,-2
1480528400634598,2,1,2,-3,-4,-2,-1,1
1480528400655654,-1,2,-2,2,2,0,0,-2
1480528400655654,-2,-3,-2,4,-1,-2,-1,-1
1480528400657161,0,1,-1,-6,-1,0,0,-1
1480528400657161,2,1,2,3,-4,-1,1,1
1480528400678214,-3,-4,-2,-7,1,0,-2,-2
1480528400678214,-2,-4,1,6,4,1,2,0
1480528400679724,0,-1,2,-2,-3,-3,0,0
1480528400679724,2,-1,-1,5,3,-3,-4,-3
1480528400692752,0,-1,-6,-7,-7,-1,1,-1
1480528400692752,-1,2,3,-2,-4,1,-1,0
1480528400694758,-4,-3,-2,-1,1,2,1,0
1480528400694758,-2,-3,-3,0,2,1,0,-2
1480528400715312,-1,-2,-2,4,2,-1,0,0
1480528400715312,0,-2,-2,6,-1,-2,-1,-3
1480528400717318,0,-1,0,-7,-5,0,-1,-1
1480528400717318,0,3,1,-3,-2,0,0,0
1480528400737875,0,2,1,3,0,-1,0,0
1480528400737875,-3,-4,-2,-4,-2,1,-1,0
1480528400743889,-1,1,0,5,1,1,-1,1
1480528400743889,-2,-1,-2,-2,0,1,0,-2
1480528400752912,2,1,1,-4,-3,-3,0,-2
1480528400752912,-2,0,2,10,-1,-2,0,1
1480528400754417,2,-4,-4,1,4,-1,-1,-2
1480528400754417,-2,-2,-3,-3,-3,-3,-1,0
1480528400775474,1,2,2,2,3,-1,-1,-1
1480528400775474,2,0,1,-5,-2,-2,-2,0
1480528400776976,-2,-1,1,3,1,0,-1,-2
1480528400776976,-1,0,1,2,0,-1,0,0
1480528400798032,-1,-2,-1,0,2,0,0,-1
1480528400798032,-2,0,-2,-3,-2,-1,-1,-2
1480528400799537,-1,-2,1,4,-2,1,2,1
1480528400799537,0,0,3,-9,0,-1,-2,0
1480528400812571,-2,-2,-3,6,1,-1,0,-1
1480528400812571,0,-3,-1,-10,-7,0,-1,-1
1480528400819088,-2,-2,0,4,4,1,-1,0
1480528400819088,-1,0,-2,-6,-6,-1,0,-1
1480528400835632,1,1,1,2,-1,0,-2,1
1480528400835632,-1,-1,2,4,7,-2,-2,-2
1480528400837136,0,0,-2,-7,-8,0,0,0
1480528400837136,0,-2,2,7,3,0,1,1
1480528400858194,0,0,0,-3,-6,1,-1,-1
1480528400858194,-1,-1,-6,-5,1,1,0,-1
1480528400864207,-2,0,1,1,1,-2,-3,-3
1480528400864207,-2,1,-2,1,0,-2,0,0
1480528400872231,1,4,5,0,0,0,0,0
1480528400872231,2,2,0,-4,0,1,1,1
1480528400879248,-1,0,3,2,0,-2,0,-1
1480528400879248,2,2,-1,3,-2,4,2,0
1480528400902811,-3,-4,0,-1,2,-1,-1,-1
1480528400902811,0,1,0,-2,1,-1,-1,0
1480528400904818,0,-1,0,2,0,-3,-1,0
1480528400904818,-2,-1,0,6,2,-1,-3,-1
1480528400917851,2,1,-1,3,-3,1,1,-1
1480528400917851,3,1,-1,-10,-2,1,1,2
1480528400919358,0,-2,0,0,0,-3,0,-1
1480528400919358,-1,-2,-3,-8,-8,-1,-1,-2
1480528400932389,-2,-4,-3,-2,0,-3,-3,-3
1480528400932389,-1,1,1,4,-1,-1,0,1
1480528400938908,-1,-3,0,-2,2,-1,0,1
1480528400938908,0,-3,-3,0,-5,-3,-1,-3
1480528400955454,-4,0,2,0,7,2,1,0
1480528400955454,3,4,2,-2,-2,-1,0,-1
1480528400956959,-3,-6,-10,-6,-4,1,-2,-1
1480528400956959,-1,-2,-2,1,3,-1,1,1
1480528400978011,0,0,-3,-7,-3,-3,-3,-2
1480528400978011,-2,-3,-1,3,-1,-4,-2,-1
1480528400979515,0,-2,1,1,0,1,-2,-1
1480528400979515,-1,-1,1,2,5,0,0,-2
1480528400992049,-4,-2,-6,-16,-8,-1,0,1
1480528400992049,0,0,-3,7,2,0,2,1
1480528401006590,0,2,-2,-9,-4,-1,0,0
1480528401006590,-1,-2,1,4,1,1,-1,1
1480528401015611,0,-4,-8,0,2,0,-1,0
1480528401015611,0,-1,4,-1,-2,0,1,-1
1480528401017114,-3,-3,1,5,2,-1,0,0
1480528401017114,1,0,2,-2,1,1,-1,1
1480528401038171,1,1,4,0,-1,-1,-1,-2
1480528401038171,-3,0,-1,8,4,0,-1,0
1480528401039675,1,4,-1,6,-2,1,-2,0
1480528401039675,0,-1,-1,-19,-3,-1,0,1
1480528401052208,-4,-6,1,-3,-8,-2,0,-1
1480528401052208,-1,0,-6,6,5,1,0,-2
1480528401059227,-1,0,-2,-4,1,-1,0,0
1480528401059227,-2,-4,-2,-2,-2,-1,-2,2
1480528401075771,1,4,7,0,-1,-2,-2,-2
1480528401075771,-2,-5,-5,2,-4,-1,0,-2
1480528401077776,2,4,1,-1,-1,1,1,-1
1480528401077776,0,-1,-3,-7,-6,-3,0,0
1480528401097830,0,-2,-1,5,4,3,-1,-1
1480528401097830,-2,-1,2,-9,-5,-3,-2,-1
1480528401099333,1,-2,-3,2,-2,-2,-2,-3
1480528401099333,-1,0,2,3,0,-1,-1,-1
1480528401120892,-1,1,2,7,3,1,1,0
1480528401120892,-1,-1,-7,0,-4,-1,-2,-2
1480528401122898,1,-3,-1,-13,-3,0,-1,1
1480528401122898,1,-2,-1,5,0,-2,-2,-1
1480528401135430,-4,-4,-1,0,-2,0,-2,-3
1480528401135430,1,1,3,-6,0,1,1,0
1480528401136935,-2,-1,-1,0,5,-3,-2,1
1480528401136935,-1,3,2,6,3,2,0,-1
1480528401157990,-1,-1,1,-1,-1,0,-2,-2
1480528401157990,-3,-5,-8,-5,-8,-3,0,-2
1480528401159493,-1,-3,-1,0,-2,0,0,-2
1480528401159493,-1,-2,-6,0,1,-2,-2,0
1480528401180549,2,0,1,6,3,-1,1,0
1480528401180549,0,2,3,-8,-1,-1,1,0
1480528401182053,-1,-2,-4,-3,0,0,-2,-3
1480528401182053,-3,-4,-1,9,-2,-3,-2,-2
1480528401195589,-1,2,-3,-8,-1,2,1,1
1480528401195589,0,-2,2,-8,-2,-1,1,0
1480528401197094,-1,0,2,-2,0,-1,1,0
1480528401197094,0,-1,-1,-1,0,0,-1,-2
1480528401218150,-1,0,-2,-1,0,-2,-1,-1
1480528401218150,-1,-2,-1,7,-1,1,-3,0
1480528401219654,0,0,3,9,5,1,-1,-1
1480528401219654,-3,-3,-6,-10,-3,-2,0,-1
1480528401231689,0,1,-7,-4,-5,-3,1,-1
1480528401231689,3,5,3,1,3,1,0,2
1480528401246725,-3,-3,0,4,-3,-1,1,0
1480528401246725,1,2,0,-8,-4,-2,-1,0
1480528401262767,-2,-5,0,0,-1,-1,-1,-2
1480528401262767,-2,-6,-1,-10,-6,-1,-2,-1
1480528401265275,1,1,1,-2,-2,0,0,-1
1480528401265275,1,1,0,5,0,1,0,-1
1480528401285329,0,4,2,5,4,-1,0,1
1480528401285329,-1,-2,-1,-6,-4,1,-1,0
1480528401287342,-3,-1,0,-3,-4,-2,-1,-1
1480528401287342,1,0,0,-2,0,0,0,0
1480528401291848,-1,1,3,7,3,1,1,-1
1480528401291848,1,-1,1,6,1,-3,-3,-1
1480528401300870,0,-1,-6,-1,-3,-1,-1,0
1480528401300870,0,1,-2,-1,-1,1,1,0
1480528401315408,-1,1,2,5,8,1,-1,1
1480528401315408,-1,0,-3,-8,3,1,2,-1
1480528401316913,-1,-1,0,2,-3,-2,1,-2
1480528401316913,0,-1,2,4,1,0,-2,-1
1480528401338972,1,-2,-2,-6,-4,0,0,1
1480528401338972,-2,-1,-2,3,-1,-2,-1,-3
1480528401340976,-1,-1,-5,0,-2,-1,-1,2
1480528401340976,0,-1,1,22,5,1,2,0
1480528401352006,-1,-2,-6,-36,-14,-2,-2,0
1480528401352006,0,-2,2,0,4,0,0,-1
1480528401360528,2,1,1,7,2,-1,1,0
1480528401360528,-2,-1,2,-13,-5,-1,-2,-2
1480528401375568,0,-1,0,12,-6,-1,0,0
1480528401375568,-2,-1,-2,10,8,1,-1,-1
1480528401377084,-2,1,4,-4,0,-1,-1,-1
1480528401377084,-2,-1,-6,-5,-2,0,1,0
1480528401398128,0,0,2,-1,-2,-2,0,0
1480528401398128,1,3,-1,-1,-2,2,-1,0
1480528401399633,1,-1,0,7,3,0,-2,0
1480528401399633,-1,1,1,-4,-5,-2,-2,-1
1480528401411667,1,3,-3,-1,-1,-1,-1,-4
1480528401411667,-1,2,1,6,-1,0,0,0
1480528401420689,-1,-2,-1,-8,0,-1,1,1
1480528401420689,-1,0,1,-2,2,3,1,0
1480528401435730,0,-1,-4,-2,-3,0,2,1
1480528401435730,-2,-3,-3,0,-4,-3,0,-2
1480528401437734,0,1,0,3,-1,1,1,-3
1480528401437734,1,1,-1,-9,-6,-4,0,-3
1480528401465808,1,-2,-2,8,8,1,0,-1
1480528401465808,1,0,-3,-11,-9,-1,1,-1
1480528401467314,-1,0,-1,3,-2,0,0,-1
1480528401467314,0,-3,-4,5,1,1,1,3
1480528401471825,-3,1,0,-1,1,-1,-1,1
1480528401471825,0,0,1,6,-3,-2,1,1
1480528401480848,-1,-2,-3,-4,0,1,-1,-1
1480528401480848,1,2,6,7,2,0,-2,-2
1480528401495388,-2,-4,-5,-14,-4,-2,1,-1
1480528401495388,-1,-3,0,0,3,-1,1,0
1480528401496891,2,2,1,0,-1,-2,-1,-1
1480528401496891,1,-1,-2,0,-1,-1,-2,1
1480528401517948,-1,0,1,5,3,2,0,0
1480528401517948,-3,-2,3,3,-3,-1,-1,-1
1480528401519451,0,2,-4,1,6,0,-2,0
1480528401519451,0,0,2,-3,-3,-1,-1,1
1480528401540514,-2,-1,-1,1,-1,-1,-2,-4
1480528401540514,-1,1,0,1,-2,1,0,1
1480528401543016,-1,0,-3,-4,-3,0,-1,0
1480528401543016,-1,-1,0,3,0,-2,0,0
1480528401563571,0,2,4,7,4,0,0,0
1480528401563571,-1,1,3,-8,-2,-3,-2,-2
1480528401565072,-1,-2,-6,-4,-6,-2,0,-1
1480528401565072,-3,-5,-1,5,5,0,-1,-1
1480528401578608,-1,-3,-5,-15,-10,-4,-1,1
1480528401578608,2,2,1,1,7,1,0,-1
1480528401579611,0,2,2,-4,-3,0,1,1
1480528401579611,0,0,-4,-2,-3,-1,0,0
1480528401600667,-1,0,-3,6,4,0,-1,-1
1480528401600667,0,0,-5,0,-4,-2,-2,-1
1480528401602171,0,0,2,4,6,0,0,2
1480528401602171,-1,-1,1,-2,-1,1,0,0
1480528401615708,0,-4,-2,5,3,-1,-1,0
1480528401615708,-1,1,-2,2,0,1,0,1
1480528401617212,0,-1,-2,-2,-4,0,0,-2
1480528401617212,-2,-1,0,-10,-4,-1,0,-2
1480528401637765,0,-6,-5,-5,5,-1,-1,0
1480528401637765,0,-2,0,4,-3,-2,-1,-2
1480528401639772,-1,-1,2,-4,-4,0,-1,-1
1480528401639772,-1,-1,-3,-1,-1,-1,-1,-1
1480528401659322,-2,0,3,-2,-2,-2,-1,-1
1480528401659322,-1,-2,0,7,5,-1,1,0
1480528401668348,-2,-3,0,-9,-3,0,-3,-1
1480528401668348,3,2,1,-1,3,1,1,0
1480528401675366,1,0,2,4,-2,-1,1,0
1480528401675366,-1,-4,-5,-7,-2,-1,-1,-1
1480528401676870,-1,0,-1,3,0,2,-1,-2
1480528401676870,1,2,-1,1,3,2,-1,2
1480528401697926,0,-1,1,4,-3,-2,-1,0
1480528401697926,0,2,2,-1,1,-1,-1,1
1480528401699430,-2,-6,-2,-3,-3,-2,-1,0
1480528401699430,-2,-1,0,2,-5,-2,-3,-2
1480528401720491,-1,0,3,8,10,2,1,0
1480528401720491,-2,-1,-5,-27,-18,-1,-1,0
1480528401721990,-3,-2,2,1,5,1,1,0
1480528401721990,-2,1,2,-1,0,0,1,-1
1480528401735024,1,-1,4,5,-2,-1,-1,0
1480528401735024,0,-1,-5,8,3,-1,-3,-4
1480528401742043,-1,-2,-5,-4,-1,0,1,0
1480528401742043,1,-1,-2,-2,1,0,-1,0
1480528401758085,-2,-1,-2,0,-3,0,-1,0
1480528401758085,3,2,3,-3,0,1,1,1
1480528401759590,0,-4,1,3,-3,-4,-2,-2
1480528401759590,-2,0,2,3,2,-1,0,-2
1480528401780646,-1,-3,-7,-7,-3,0,-1,-2
1480528401780646,-2,0,-3,1,0,-1,-2,-2
1480528401782150,2,5,6,-2,1,0,1,1
1480528401782150,-2,-4,-9,0,2,0,0,-1
1480528401794683,1,3,6,-3,0,-2,-2,-2
1480528401794683,-1,1,2,4,4,1,0,0
1480528401801702,-1,-2,0,0,1,-2,-2,0
1480528401801702,0,-1,-1,3,-2,0,-1,0
1480528401818246,0,1,-2,2,-3,0,-1,0
1480528401818246,-1,-3,-2,-10,-3,-1,1,0
1480528401824268,-2,-1,-2,3,-3,0,-1,0
1480528401824268,-1,0,1,0,4,-1,-2,0
1480528401840305,-1,-1,-3,2,-2,-4,-1,-1
1480528401840305,1,0,1,3,0,-2,0,-1
1480528401843313,-1,0,-4,-4,-4,-3,-1,-1
1480528401843313,0,3,4,0,-3,-1,0,-1
1480528401854843,1,-4,-2,-10,1,3,-1,0
1480528401854843,0,-1,3,5,3,1,2,2
1480528401861361,-1,1,-1,-2,-2,0,0,0
1480528401861361,-2,-2,0,3,1,1,0,-1
1480528401877904,1,2,-3,-10,-8,-2,0,-2
1480528401877904,-4,-3,-4,-11,-5,-2,-1,-2
1480528401879408,0,-1,-1,11,10,2,1,-1
1480528401879408,1,0,-1,-1,-4,-3,-2,-1
1480528401899462,-3,-2,0,-2,-2,-1,-2,-2
1480528401899462,-2,-5,0,-4,2,-1,-3,-2
1480528401908511,-1,2,-2,-1,-3,-2,0,0
1480528401908511,-1,-2,-8,-5,-1,-2,-2,-1
1480528401915003,-1,1,2,8,3,1,0,0
1480528401915003,1,0,0,6,-2,1,-1,1
1480528401921521,0,1,5,2,2,1,-1,-1
1480528401921521,-1,-2,-3,-2,2,2,2,2
1480528401945584,2,-2,3,1,-2,0,-1,-1
1480528401945584,-5,-3,-4,7,3,-3,-2,-2
1480528401947089,1,2,4,3,-1,0,0,1
1480528401947089,0,-1,2,-14,-6,-1,-1,0
1480528401961125,0,0,-4,7,4,2,0,-2
1480528401961125,0,2,2,4,1,-1,-1,0
1480528401962630,-2,-2,-1,-2,3,2,-3,-3
1480528401962630,-3,-2,-2,-1,-4,-3,-1,-1
1480528401974663,-1,3,1,5,0,-1,0,1
1480528401974663,0,-3,-4,-12,-6,1,-1,0
1480528401981680,-1,-2,0,-5,-5,-2,1,0
1480528401981680,1,1,0,4,6,4,-1,1
1480528401997724,0,-4,-4,-3,-2,-2,-1,-1
1480528401997724,1,1,2,6,2,1,0,-1
1480528401999729,-2,-4,-1,-10,-3,-3,-1,-3
1480528401999729,-1,-1,-8,-7,-4,0,0,0
1480528402020283,-3,-3,-1,0,-2,-1,-1,-1
1480528402020283,0,1,-2,5,3,1,1,0
1480528402022289,0,0,0,1,-4,0,0,1
1480528402022289,0,-2,4,4,0,-4,-1,-2
1480528402034321,-1,1,-2,2,-1,-1,-1,0
1480528402034321,-2,-3,-2,-4,-2,1,0,0
1480528402043345,0,-1,-3,-10,-4,-1,-2,0
1480528402043345,-2,-1,0,3,2,-3,0,-2
1480528402057883,1,1,-1,-9,-3,-1,3,1
1480528402057883,-1,-2,3,5,1,-2,1,-1
1480528402059387,-1,-3,-3,-7,-4,2,0,0
1480528402059387,0,0,-3,-1,2,-2,-4,-2
1480528402080444,-1,-3,0,2,2,0,0,0
1480528402080444,-1,1,-1,0,-3,-1,-2,-2
1480528402081947,1,4,0,-2,-2,0,-1,0
1480528402081947,-1,-5,-6,1,-2,0,0,0
1480528402093979,0,4,6,7,7,1,-1,-1
1480528402093979,1,-1,-5,-11,0,-1,-1,1
1480528402103508,0,0,1,5,-2,-2,-1,0
1480528402103508,1,5,5,0,0,0,1,1
1480528402118046,-2,0,0,4,2,-1,-1,0
1480528402118046,2,3,4,-6,-1,2,-1,-1
1480528402119550,1,-1,0,5,4,0,-2,-2
1480528402119550,4,4,3,-1,0,0,-1,1
1480528402141105,-3,-4,-2,1,-2,-2,-2,-2
1480528402141105,-2,-3,0,-6,1,-1,0,-1
1480528402142609,1,-1,0,4,0,-1,0,-2
1480528402142609,-1,0,0,0,0,-1,-1,-1
1480528402154140,-1,1,-4,-11,-6,0,1,0
1480528402154140,-2,-4,1,7,2,-3,-1,0
1480528402163164,-1,-2,-2,-7,-6,-1,0,0
1480528402163164,-1,1,-3,6,0,-1,1,2
1480528402185726,1,-1,-4,-19,-8,-2,0,-1
1480528402185726,1,1,0,8,2,0,-1,1
1480528402187228,-1,-1,-1,-1,1,-1,-2,0
1480528402187228,-1,-1,3,-3,-5,1,-1,-2
1480528402200262,0,1,0,-1,3,-1,0,-1
1480528402200262,-1,-1,-1,8,4,1,0,-1
1480528402202269,-1,0,-3,-5,-10,-3,-1,-1
1480528402202269,-1,-2,-1,-8,5,3,-1,-2
1480528402214300,-1,-2,4,5,-1,0,-2,1
1480528402214300,2,3,0,-1,-1,-1,-1,-1
1480528402223323,-3,-1,-3,5,2,-2,-2,-1
1480528402223323,-3,-6,1,3,0,0,0,0
1480528402237862,-3,-4,-4,1,0,2,1,1
1480528402237862,-2,0,-1,-6,-3,-1,0,-1
1480528402239868,-2,0,-2,5,1,0,-1,-1
1480528402239868,0,-2,-2,-5,-1,-3,2,-1
1480528402260422,0,1,-1,-4,-3,0,-2,-1
1480528402260422,0,-2,-3,0,-2,0,-2,-1
1480528402261926,0,-3,1,2,3,1,0,0
1480528402261926,-2,-2,-4,-8,-9,-3,0,-1
1480528402273958,0,0,1,8,7,1,0,-2
1480528402273958,0,-1,-4,-2,0,-1,-1,-1
1480528402290502,0,1,0,2,0,-1,1,-1
1480528402290502,-2,-1,-2,3,-5,-1,-2,-1
1480528402298022,1,0,-2,-13,-2,-2,-1,-1
1480528402298022,-1,-1,1,2,-4,-2,0,-1
1480528402299526,-3,-4,-3,-5,1,-1,0,-1
1480528402299526,1,-2,-3,3,0,0,-1,-3
1480528402320583,1,1,-2,1,-3,-1,1,0
1480528402320583,1,2,5,-1,-3,-3,0,-1
1480528402322092,-1,-1,-4,3,0,0,0,1
1480528402322092,-1,-2,0,1,0,-2,0,-1
1480528402334118,-2,-4,-3,-1,-4,0,0,-1
1480528402334118,-2,-4,-6,1,3,1,-1,0
1480528402343142,1,1,2,11,5,1,-1,0
1480528402343142,-1,-2,-1,-31,-13,0,-1,1
1480528402358182,1,2,1,3,0,-1,-2,0
1480528402358182,-2,-1,-4,3,0,2,0,0
1480528402359686,3,3,1,-1,1,-2,-3,-2
1480528402359686,3,2,2,15,4,2,-1,2
1480528402380241,-3,-4,0,0,-1,-1,-2,-3
1480528402380241,-3,-4,-1,2,-3,-2,-1,0
1480528402382246,0,-2,-2,-6,0,1,-1,1
1480528402382246,1,1,3,6,3,0,0,-1
1480528402394278,-1,1,-1,-6,0,0,0,-1
1480528402394278,-2,-2,-5,3,-2,-2,-1,1
1480528402409318,-1,0,3,2,1,1,1,-2
1480528402409318,-1,0,-3,-1,-1,0,-1,-1
1480528402417841,-1,-5,-2,0,-1,-1,-1,0
1480528402417841,0,1,4,-2,4,0,1,-1
1480528402419347,0,0,-5,-3,-2,-1,-2,0
1480528402419347,1,0,3,19,5,0,0,0
1480528402440401,0,-4,-3,-27,-9,-1,0,-1
1480528402440401,0,3,-1,-3,-3,0,-1,0
1480528402442907,-2,-3,-5,-2,0,0,1,0
1480528402442907,0,0,1,6,8,-2,-1,0
1480528402453936,-3,-1,-3,11,-2,-1,-2,-1
1480528402453936,2,3,0,-5,0,1,-1,-1
1480528402462960,-1,1,2,-2,-3,-1,-1,0
1480528402462960,-3,-2,-2,0,-4,0,-2,-2
1480528402478000,0,-1,-2,4,0,-2,0,1
1480528402478000,-2,-2,-3,-20,-2,-1,-2,0
1480528402479505,-2,-2,1,1,-3,-1,-1,-2
1480528402479505,-1,-2,-5,-2,1,-1,1,-1
1480528402500561,0,1,2,0,0,0,1,-1
1480528402500561,0,0,2,7,0,0,-2,0
1480528402502066,1,0,0,-9,-1,-1,-1,1
1480528402502066,-2,0,-1,-6,0,-1,-1,-1
1480528402514097,-2,-1,-1,-1,1,0,2,0
1480528402514097,0,-1,0,4,-1,-2,-1,0
1480528402525126,-4,-3,3,0,-5,1,0,-1
1480528402525126,1,0,-3,0,3,-2,0,0
1480528402538160,1,2,1,3,-2,-1,-2,2
1480528402538160,-3,-4,-1,-1,-3,1,1,0
1480528402539665,1,2,-2,4,0,-1,-1,-1
1480528402539665,0,0,4,-2,-5,0,0,-2
1480528402575260,2,0,-1,7,4,0,1,-2
1480528402575260,0,-2,-2,3,-1,-1,-1,-1
1480528402577265,-1,-4,0,-3,1,-2,0,0
1480528402577265,-2,0,-3,-2,2,1,-1,1
1480528402582779,3,2,-3,2,0,-3,-3,-2
1480528402582779,0,1,-1,-3,-3,0,0,-1
1480528402584786,-1,-2,-3,4,0,-2,-1,-1
1480528402584786,-3,1,0,-6,-2,-2,-1,-2
1480528402597318,2,3,4,-2,-1,0,1,-1
1480528402597318,-3,-5,0,1,-2,-1,0,-1
1480528402605841,0,1,-6,-4,2,0,1,-1
1480528402605841,-1,-2,-3,4,4,1,-1,-1
1480528402620381,-2,-3,-4,-19,-6,-1,-2,-2
1480528402620381,0,1,-3,2,-1,-2,-2,-2
1480528402622387,-1,1,0,-3,-2,-1,0,-2
1480528402622387,0,-1,-2,-1,1,-3,-1,0
1480528402642939,0,1,3,13,2,-2,0,0
1480528402642939,-2,-3,-4,-20,-5,2,0,-1
1480528402644443,-1,-1,-1,2,0,0,-1,0
1480528402644443,0,0,-1,1,-3,-1,0,0
1480528402657979,-1,-4,-4,-3,1,0,-2,1
1480528402657979,-2,0,2,2,1,1,0,1
1480528402659483,-2,-2,-3,1,0,-1,-2,-2
1480528402659483,1,0,1,-6,-2,1,-1,-2
1480528402680540,-1,-1,-1,3,-1,0,1,1
1480528402680540,-2,-4,-1,-2,-4,-4,0,-3
1480528402682043,1,-3,-4,-4,1,1,-1,-1
1480528402682043,0,2,-2,0,0,-1,-1,-1
1480528402703100,1,-2,-1,-2,1,0,0,0
1480528402703100,2,1,3,6,1,0,0,1
1480528402704603,0,2,7,8,1,1,1,1
1480528402704603,-1,2,3,-20,-7,-1,0,1
1480528402717137,-3,-2,-2,3,1,-1,-3,-1
1480528402717137,2,1,0,3,1,1,-1,1
1480528402724155,-3,-3,-6,-4,-1,-1,0,-2
1480528402724155,0,-3,-1,2,-2,-2,-3,-3
1480528402748219,-2,1,1,-1,-1,1,2,1
1480528402748219,1,3,5,7,2,-1,0,0
1480528402749724,-1,-5,-7,-6,-5,-3,-1,-4
1480528402749724,1,3,0,1,-3,-1,-1,2
1480528402762757,-3,-4,-4,-5,2,-1,0,-2
1480528402762757,-5,-4,-5,-4,-2,0,-1,0
1480528402764763,1,1,2,0,0,-1,-1,-1
1480528402764763,0,-1,-2,5,-3,0,2,0
1480528402777297,1,2,2,2,-1,1,1,-1
1480528402777297,2,3,0,3,0,-2,0,-1
1480528402784319,0,-1,-2,-10,-3,-1,0,-2
1480528402784319,0,-2,-2,3,2,0,1,-1
1480528402800362,-2,0,1,2,1,0,0,-1
1480528402800362,0,-3,-2,-11,-1,-3,-1,-3
1480528402802368,0,1,-1,0,2,0,0,1
1480528402802368,-1,-3,1,8,-3,-1,-1,-1
1480528402830442,-1,0,4,-3,4,2,1,-1
1480528402830442,1,0,-2,-1,-5,-2,-1,-1
1480528402831946,-1,0,3,7,4,0,-1,-2
1480528402831946,-1,1,-3,-6,-3,1,-1,-1
1480528402837962,0,0,2,8,8,2,-1,-2
1480528402837962,-4,-6,-4,-5,-2,-1,-1,-1
1480528402843978,0,3,1,-2,-2,-1,-1,1
1480528402843978,0,2,0,1,-1,-1,-1,-1
1480528402860522,0,-1,-1,5,-4,-1,-2,-1
1480528402860522,-1,2,1,-13,-4,0,-1,-2
1480528402862025,-3,-1,-1,-2,1,1,1,-1
1480528402862025,-2,-1,3,-1,2,1,-1,-1
1480528402883082,1,1,-1,3,-2,-3,-1,-1
1480528402883082,-1,1,2,18,8,-2,-1,-1
1480528402884586,1,-3,-4,-17,-10,0,-1,2
1480528402884586,-1,-1,-4,-9,-5,1,-2,-1
1480528402897119,1,-1,2,-4,0,-1,-1,-1
1480528402897119,1,-1,-2,3,-1,-2,0,-1
1480528402904138,-1,-3,1,8,8,1,1,-2
1480528402904138,0,-1,0,3,0,-1,1,0
1480528402920681,0,-3,-10,-4,-3,-2,0,1
1480528402920681,-2,-1,-2,-3,8,3,-1,0
1480528402922186,0,0,2,8,-3,1,0,-1
1480528402922186,-1,-4,1,-5,-2,-2,-1,-1
1480528402942741,-2,0,-1,-1,-1,0,-2,-1
1480528402942741,5,6,2,9,0,1,0,1
1480528402944749,-1,-3,-5,-7,-2,-2,-2,-1
1480528402944749,-3,-5,0,2,3,-4,-1,-2
1480528402957279,-1,-1,-1,11,7,-2,-1,-2
1480528402957279,-3,-5,-3,-18,-11,-2,-2,-3
1480528402964298,-3,-2,2,2,-2,0,-1,1
1480528402964298,1,0,-7,1,4,0,-1,-2
1480528402980340,-2,-1,-3,-10,-6,-1,-3,-1
1480528402980340,-1,1,-2,4,2,0,1,-2
1480528402981845,1,0,2,7,2,2,1,0
1480528402981845,-2,-1,-2,-9,-3,-1,-2,0
1480528403002902,0,-2,2,10,4,1,-1,0
1480528403002902,0,0,-3,-4,-4,0,-1,-1
1480528403004906,-1,1,0,-2,-5,-2,-3,-2
1480528403004906,1,1,2,4,0,-1,0,-1
1480528403016436,2,0,1,-6,-3,0,-1,-1
1480528403016436,-1,2,2,9,2,-1,0,2
1480528403025461,0,-3,-5,-14,-2,-3,-3,-1
1480528403025461,1,3,2,2,1,0,0,-1
1480528403041002,-2,-1,-4,-3,-3,-1,-2,-1
1480528403041002,1,-4,-7,-1,1,-2,0,-1
1480528403043170,0,-2,-3,11,1,-2,-3,-1
1480528403043170,0,-1,0,-16,-13,0,-1,2
1480528403070581,-2,-1,-1,-3,2,3,-1,0
1480528403070581,-3,-1,-1,6,4,0,0,0
1480528403072085,-2,-7,-1,6,3,-4,-2,-1
1480528403072085,-2,-6,-4,-4,0,2,1,-1
1480528403076597,-1,0,-1,-3,-4,0,-1,1
1480528403076597,0,0,0,-8,0,0,-1,0
1480528403085625,-2,3,1,-1,-4,0,0,1
1480528403085625,-1,1,2,5,2,-2,0,-2
1480528403100661,-1,-1,-1,1,-4,-2,0,-1
1480528403100661,0,-3,0,1,3,0,-2,-1
1480528403102166,3,2,4,3,-2,0,0,0
1480528403102166,0,-1,2,-4,3,1,0,-1
1480528403123221,0,2,2,-3,-1,-3,1,0
1480528403123221,1,-2,1,1,2,-1,-1,-1
1480528403125226,0,0,-3,-4,-1,-1,0,0
1480528403125226,2,2,-1,9,-3,-1,-1,-1
1480528403136758,0,2,1,-13,-8,-3,0,1
1480528403136758,-1,0,-1,1,6,2,1,1
1480528403145781,-2,1,2,3,0,-1,0,-1
1480528403145781,-1,-1,-4,0,2,-2,-2,-2
1480528403160319,-3,-3,-1,3,-2,-1,0,-1
1480528403160319,0,0,-2,1,-6,0,1,-1
1480528403161823,0,1,1,3,4,2,0,-1
1480528403161823,-1,-1,-3,-13,-6,-2,2,3
1480528403182879,1,1,2,0,2,-2,0,-2
1480528403182879,-2,-4,-2,1,-2,-2,-3,0
1480528403184384,1,-1,-8,-3,-1,0,2,-1
1480528403184384,-2,0,4,6,-1,-1,0,0
1480528403196415,-1,-1,-5,6,-1,-1,-3,-3
1480528403196415,-1,0,1,-8,-3,-2,-3,1
1480528403205942,-2,-2,2,-2,-1,-1,-1,-1
1480528403205942,-1,1,-4,3,1,1,-1,0
1480528403235522,-1,-5,-4,3,7,-2,2,-1
1480528403235522,1,1,1,6,-3,0,-1,-1
1480528403237023,1,1,0,-9,-1,-2,-2,0
1480528403237023,-2,-1,2,-13,-1,0,1,0
1480528403243039,-3,-3,3,1,-1,0,0,0
1480528403243039,1,1,-1,0,-1,0,-1,0
1480528403244543,2,0,4,1,-2,-3,-1,-1
1480528403244543,-1,1,1,2,1,-1,-2,-2
1480528403273119,-1,0,-2,4,-1,1,0,0
1480528403273119,-2,0,-2,-1,-2,-2,0,0
1480528403274626,1,0,-1,-3,-2,1,-1,-2
1480528403274626,1,-1,1,4,-1,-1,0,0
1480528403280639,0,-2,-4,-3,-3,-1,-2,-2
1480528403280639,-1,3,2,-2,0,0,1,0
1480528403282143,-3,0,1,11,4,1,0,0
1480528403282143,1,-2,-6,-7,-4,-1,0,0
1480528403303201,0,-1,0,1,1,0,-1,-3
1480528403303201,-2,-3,-2,7,0,1,0,0
1480528403304704,-3,-1,-4,-27,-11,-3,1,0
1480528403304704,-1,-4,-1,10,3,-1,-1,-2
1480528403316735,0,3,-3,-10,-4,2,0,1
1480528403316735,-2,-3,-1,2,0,-4,-3,-2
1480528403325759,-2,-1,-5,0,-2,-1,-2,-1
1480528403325759,0,0,2,3,1,1,-1,-1
1480528403340298,0,-3,-2,-3,-3,-1,-1,2
1480528403340298,-2,0,1,-3,-2,-1,2,0
1480528403342805,0,-3,0,3,-1,-1,0,-1
1480528403342805,0,3,4,5,4,0,-1,-1
1480528403362858,0,0,-3,7,0,-1,-3,-1
1480528403362858,1,2,2,-7,-2,-2,0,-4
1480528403364362,0,-3,-6,-10,-3,0,-2,-1
1480528403364362,-2,0,1,0,0,-1,0,0
1480528403376394,1,3,3,2,4,0,1,0
1480528403376394,1,-2,-2,-2,-4,-1,0,1
1480528403385926,-1,2,2,3,-2,-1,-2,-1
1480528403385926,-1,-2,-6,-7,1,-1,-1,-1
1480528403400458,-2,-2,-4,-14,0,0,1,-1
1480528403400458,0,2,1,3,2,-1,-2,-2
1480528403413994,1,2,3,7,2,1,0,0
1480528403413994,0,-2,-3,3,-1,1,1,0
1480528403423021,0,-3,5,6,-1,-3,-2,-1
1480528403423021,1,0,-5,-5,-1,0,1,-1
1480528403424522,0,1,5,0,4,0,2,3
1480528403424522,-2,-3,-2,1,-9,-4,-2,-2
1480528403436555,0,2,0,5,2,0,0,0
1480528403436555,0,1,-1,-10,2,1,-2,-1
1480528403445578,0,-1,1,1,-1,0,0,-3
1480528403445578,-1,2,0,6,0,-1,1,0
1480528403460618,1,1,0,-11,-7,1,0,0
1480528403460618,-2,-3,-4,6,1,-1,0,-1
1480528403462122,-1,1,-1,2,0,-2,0,0
1480528403462122,-2,-2,-2,2,1,-1,-2,0
1480528403482677,-1,1,-2,-13,-8,-4,-2,-3
1480528403482677,-1,3,2,2,-1,0,1,1
1480528403484683,1,-4,-3,-3,-2,0,0,-2
1480528403484683,0,-2,-2,4,6,0,1,0
1480528403512757,0,0,1,-1,2,0,-1,1
1480528403512757,-2,-1,-2,1,-4,-1,-2,-3
1480528403514762,1,0,-1,1,5,1,0,0
1480528403514762,-1,-3,0,-6,-4,2,-1,0
1480528403520279,-1,-4,-3,2,3,0,0,0
1480528403520279,0,-2,-1,-3,1,2,1,-3
1480528403522283,-1,-2,-5,11,-3,0,0,0
1480528403522283,-1,-1,0,-10,-3,-1,-3,-1
1480528403542836,-1,1,0,7,9,1,1,0
1480528403542836,-2,-2,-3,-7,-2,-1,-1,0
1480528403544341,-3,0,3,3,1,0,-1,-2
1480528403544341,2,2,-1,-1,0,-1,-1,-1
1480528403565397,0,0,3,12,0,0,0,-2
1480528403565397,-4,-2,0,-10,-3,1,0,1
1480528403566902,-2,-5,-1,-6,-3,0,-1,-2
1480528403566902,0,2,2,1,0,1,0,0
1480528403580437,-4,-3,-3,-2,0,0,-2,-3
1480528403580437,2,1,2,8,1,-1,-2,0
1480528403581941,0,1,-4,-7,0,0,0,-1
1480528403581941,1,-2,0,3,0,0,0,-1
1480528403603498,-4,-3,-1,-12,-5,0,1,0
1480528403603498,0,-2,-4,-1,-3,-1,-2,-3
1480528403609013,-1,4,3,0,3,-2,-1,1
1480528403609013,1,-1,1,4,2,-1,0,1
1480528403625557,0,0,-4,3,1,0,0,3
1480528403625557,-1,-3,0,-26,-10,-1,0,1
1480528403627061,-2,-3,-5,5,2,-1,-3,-2
1480528403627061,-1,0,-3,-10,-1,-3,0,-1
1480528403640098,0,0,3,5,0,-1,0,0
1480528403640098,-1,-1,-2,7,1,-1,-1,1
1480528403646612,-1,-2,0,2,-3,-1,-1,-4
1480528403646612,1,0,0,0,0,-1,-1,-1
1480528403663156,0,-2,1,1,-1,0,-2,0
1480528403663156,-1,-1,0,1,-3,-2,0,1
1480528403664661,2,2,0,-2,-2,-2,-1,-1
1480528403664661,-1,-4,-6,2,1,2,-1,-1
1480528403685718,-2,-4,-2,-7,-5,-1,-1,-1
1480528403685718,-1,-1,0,7,6,-2,-1,-1
1480528403687221,-1,-2,-2,-4,-2,-1,-1,0
1480528403687221,0,3,-1,-2,0,-1,-1,-1
1480528403699754,1,2,1,25,4,-2,-1,-2
1480528403699754,-2,-3,-5,-21,-8,2,-1,-1
1480528403706789,-2,-1,-1,-10,-1,0,0,0
1480528403706789,-2,0,-2,0,-4,-3,1,-3
1480528403722817,-1,1,-4,-8,-5,-1,-3,-4
1480528403722817,1,3,4,19,6,-3,2,0
1480528403724319,1,3,3,-2,-2,0,-1,0
1480528403724319,-1,-3,-4,-9,-2,1,0,0
1480528403745375,0,1,1,1,-1,-1,-1,-1
1480528403745375,4,3,5,9,6,2,1,0
1480528403746879,-1,-5,-3,2,-1,0,-2,0
1480528403746879,-4,0,0,-11,-5,-3,-1,-2
1480528403759914,-1,-3,1,-3,-3,-1,-1,-2
1480528403759914,-2,-1,-2,2,1,0,1,-1
1480528403766432,-1,0,-2,3,0,-2,0,1
1480528403766432,-1,-4,-1,2,1,0,-1,0
1480528403789994,0,1,2,-7,-1,-1,-1,1
1480528403789994,-1,-1,-1,3,-3,-3,-1,0
1480528403796511,0,-1,-3,7,2,0,0,-1
1480528403796511,-1,0,1,21,7,-1,1,2
1480528403805535,-1,-3,-5,-32,-12,0,-1,0
1480528403805535,0,-4,-2,-1,0,0,-3,-1
1480528403807039,0,0,-1,1,-2,0,0,-1
1480528403807039,-1,-1,1,-2,3,-1,-2,0
1480528403828099,-1,-1,1,9,4,0,0,1
1480528403828099,-2,-1,-1,7,0,-2,-2,-1
1480528403829599,0,0,0,-2,-5,0,0,-3
1480528403829599,-3,-1,-5,-4,-1,1,-1,-1
1480528403843135,2,0,5,6,3,-2,1,2
1480528403843135,-2,-1,0,-7,1,1,0,0
1480528403844639,0,-2,-1,6,3,0,-1,1
1480528403844639,1,0,2,-5,-2,-1,-1,0
1480528403865696,-1,1,2,1,-3,0,1,-1
1480528403865696,1,-3,-3,1,-1,-3,-1,-1
1480528403867200,0,2,3,2,4,-1,1,0
1480528403867200,1,1,-1,1,0,0,0,-1
1480528403887754,-1,-1,-1,4,0,-1,0,-1
1480528403887754,-1,-1,-2,-17,-8,-2,-1,-2
1480528403889761,-2,-1,0,-9,-6,-2,0,-1
1480528403889761,0,3,1,1,5,2,1,0
1480528403902794,1,-2,-6,11,4,0,-1,-2
1480528403902794,-1,0,-3,-10,-4,-1,-1,0
1480528403904799,0,1,-3,-4,0,-1,0,1
1480528403904799,-2,-3,-5,-4,-3,-2,0,-1
1480528403925355,-2,-3,1,-2,-1,-1,1,-1
1480528403925355,1,1,-1,7,3,-1,1,0
1480528403926858,-2,-1,1,-6,-7,-1,-1,-1
1480528403926858,1,0,2,2,4,2,-1,1
1480528403938891,-1,1,-1,-1,-2,0,0,-1
1480528403938891,2,1,3,4,3,2,-1,-1
1480528403948415,-1,-2,0,1,1,-3,0,0
1480528403948415,0,-2,0,4,-6,0,0,0
1480528403961952,1,3,-1,-11,-3,-2,-2,-1
1480528403961952,-1,-3,0,11,6,-1,0,-1
1480528403970474,0,-2,1,-3,-1,0,-1,-2
1480528403970474,2,-1,-2,-6,-5,-2,-2,-1
1480528403986018,0,-1,-4,-13,-4,-1,-1,1
1480528403986018,-4,-3,-5,3,-2,1,-1,-2
1480528403991530,0,2,-1,-5,-1,-2,-1,0
1480528403991530,0,-4,4,4,0,0,-2,-2
1480528403999050,0,-3,-4,1,0,-1,1,1
1480528403999050,1,1,1,1,1,1,-1,-1
1480528404008075,-2,-2,-2,4,0,1,1,1
1480528404008075,0,-2,-1,1,-1,-1,-1,-2
1480528404023115,-1,-2,1,-2,-2,-2,-1,-2
1480528404023115,1,2,-1,-1,1,-1,-1,-2
1480528404024619,2,-5,-6,-1,-2,1,-1,-2
1480528404024619,0,2,0,-3,-4,-3,0,0
1480528404045674,1,-2,-1,6,4,3,0,0
1480528404045674,1,4,4,1,0,1,0,0
1480528404047178,-2,1,-1,-3,4,-2,-2,-1
1480528404047178,-5,-5,-2,-1,2,1,-2,0
1480528404059711,2,2,-1,-2,-3,1,0,-1
1480528404059711,-1,-1,1,-9,-3,0,0,1
1480528404068234,0,0,-3,0,2,0,0,0
1480528404068234,0,2,2,4,0,0,-3,0
1480528404082772,0,2,-2,10,3,0,0,-1
1480528404082772,-2,-3,-3,2,-4,0,-3,2
1480528404084779,-2,-4,-6,-15,-4,1,1,-2
1480528404084779,0,1,0,4,3,-1,0,-1
1480528404105333,0,0,0,0,-1,-2,-2,-2
1480528404105333,-2,-1,-5,-1,1,-3,0,-2
1480528404107339,-1,-1,4,6,-2,0,1,2
1480528404107339,-1,-1,-2,-4,-5,-2,0,-2
1480528404119375,0,-2,0,7,2,-3,-1,-1
1480528404119375,2,0,1,-5,-6,0,2,1
1480528404127892,-1,-2,1,-4,2,0,-1,0
1480528404127892,3,2,-1,-4,-3,0,0,-2
1480528404142932,-2,-2,0,-2,-2,-1,0,1
1480528404142932,-2,-3,-2,12,5,-1,-1,0
1480528404144437,-2,-2,0,-7,-4,0,1,-1
1480528404144437,0,1,-4,4,-4,-1,-2,1
1480528404165493,-3,-5,-7,-8,5,0,-2,-2
1480528404165493,-3,-6,-4,-6,-4,-2,1,-2
1480528404166997,2,3,4,8,-1,-2,-3,0
1480528404166997,0,-2,1,5,5,1,0,0
1480528404179029,-4,-4,-2,-2,-6,-2,-2,-1
1480528404179029,-1,-2,-1,0,0,-1,0,-1
1480528404188054,1,0,-6,-3,-2,-2,-1,0
1480528404188054,1,1,2,-2,-3,-2,0,-1
1480528404210613,-2,0,2,9,4,4,0,2
1480528404210613,0,-2,1,0,-5,-1,0,-1
1480528404212117,-2,-2,-3,7,1,-1,-1,-2
1480528404212117,-1,-1,2,-8,0,-1,0,0
1480528404224650,0,-1,-3,-4,0,0,-2,-1
1480528404224650,0,2,3,6,5,-1,-3,-1
1480528404233174,0,-1,-1,-2,-7,0,-1,0
1480528404233174,-1,1,3,2,1,-1,-1,-1
1480528404239189,-3,-5,-5,2,2,0,0,-2
1480528404239189,1,1,-2,-16,0,1,-1,0
1480528404248213,2,0,-2,4,-1,-2,-1,-1
1480528404248213,-3,-5,-1,-7,-1,1,-1,-2
1480528404262751,1,4,3,-5,-5,-2,1,0
1480528404262751,1,-1,0,7,5,1,-2,-1
1480528404264757,-1,-1,1,0,-2,0,-3,-2
1480528404264757,0,0,-1,3,5,1,2,1
1480528404285315,1,1,3,-3,-5,-1,-2,-1
1480528404285315,1,1,-1,3,-2,-2,-1,-2
1480528404287317,-4,-1,3,-10,3,0,1,0
1480528404287317,0,1,1,6,0,-1,-1,1
1480528404299348,1,2,-4,-7,-1,-5,-2,0
1480528404299348,-1,-1,0,7,6,0,1,0
1480528404307873,2,-1,0,0,-3,2,1,0
1480528404307873,-1,-2,0,3,-1,0,0,0
1480528404322911,0,-2,0,4,1,1,2,1
1480528404322911,-3,-1,2,-7,-4,2,0,-3
1480528404324416,-2,-2,-1,10,4,-4,0,-1
1480528404324416,-2,0,-5,-21,-8,-1,0,-2
1480528404345471,1,0,3,-1,1,0,0,-1
1480528404345471,-2,0,2,2,-3,-2,-1,0
1480528404346976,1,1,-2,6,2,-1,0,-1
1480528404346976,-3,-4,-2,-6,-4,-1,-2,-1
1480528404359007,-4,-6,-3,0,-1,-2,-3,-1
1480528404359007,-1,1,2,-5,-3,1,0,0
1480528404368032,1,1,-4,-1,0,-1,-1,0
1480528404368032,1,0,-3,-1,-5,-2,-1,-1
1480528404383071,0,1,4,5,4,1,0,-2
1480528404383071,0,-3,-3,-5,-3,0,-1,0
1480528404384576,0,3,4,6,-3,-1,0,0
1480528404384576,0,-3,-5,-10,-1,0,0,1
1480528404406133,-1,-1,-3,0,-3,0,-2,-2
1480528404406133,0,2,1,2,-3,1,0,-1
1480528404407638,-2,-1,0,-12,1,2,1,-2
1480528404407638,-1,-2,0,10,-1,-2,-1,-2
1480528404419169,0,0,-6,6,4,1,0,1
1480528404419169,0,0,1,1,-2,-1,0,1
1480528404428191,-1,-2,3,4,1,0,-1,0
1480528404428191,-2,-2,1,-11,-3,-1,-1,-2
1480528404442229,1,2,2,-1,-4,-2,-1,-2
1480528404442229,-2,-1,-3,0,2,-1,-1,-1
1480528404450752,-2,-5,-5,-1,-2,-1,-1,1
1480528404450752,0,4,1,4,2,-1,1,-1
1480528404464288,-1,-2,5,-1,1,-2,-1,1
1480528404464288,-1,-4,-5,-9,-9,-2,-1,1
1480528404473312,3,4,1,4,4,2,1,-1
1480528404473312,-1,1,1,1,-1,1,-2,-2
1480528404487851,-1,3,5,5,1,-2,-2,-3
1480528404487851,-4,-5,-5,-7,3,0,1,2
1480528404489355,0,-2,-2,-9,-4,-1,-1,0
1480528404489355,0,-1,-2,4,-1,-3,1,0
1480528404502891,0,-1,-2,-2,-2,0,0,0
1480528404502891,-1,0,0,-2,-1,-1,-1,-2
1480528404504396,-2,-4,-4,4,0,-1,-2,0
1480528404504396,-2,-4,-6,-8,-2,-1,0,-1
1480528404525450,1,0,-3,-13,-1,0,0,0
1480528404525450,-1,-3,0,7,1,-2,-2,-1
1480528404526954,1,-1,-4,1,3,1,1,1
1480528404526954,0,-2,1,5,1,0,-1,2
1480528404548011,-1,0,1,-2,-2,0,-1,-2
1480528404548011,2,1,0,-6,-5,-3,-2,-1
1480528404549514,-2,1,6,4,3,1,1,-1
1480528404549514,0,0,-2,6,3,0,-1,0
1480528404563050,0,0,-2,0,-6,-2,-1,-1
1480528404563050,0,0,2,1,4,1,0,1
1480528404564554,0,-1,0,-5,-6,-2,-1,-1
1480528404564554,0,1,0,-2,0,-1,1,-2
1480528404585612,0,1,-1,-3,-2,1,1,1
1480528404585612,1,2,1,1,0,-1,0,-1
1480528404587114,0,-3,-1,11,5,-1,-1,-1
1480528404587114,-1,-2,-4,-34,-14,0,2,2
1480528404615690,-2,-1,0,-1,-1,-2,-1,1
1480528404615690,0,2,0,-2,-4,-4,0,-1
1480528404623210,-2,-3,-3,0,6,1,-1,1
1480528404623210,0,1,3,18,6,1,-3,-1
1480528404623713,1,0,-2,-2,0,0,-1,0
1480528404623713,2,0,1,-3,-4,-3,0,1
1480528404629226,-3,-7,-1,-1,-6,-2,-1,-5
1480528404629226,-1,-3,-2,10,9,0,2,-1
1480528404645269,-1,-1,-2,5,-2,-1,0,-1
1480528404645269,-1,1,0,0,3,2,-2,-1
1480528404647284,2,3,3,-8,-3,0,-2,0
1480528404647284,0,2,3,3,-3,-2,-2,-2
1480528404667829,0,-3,-1,8,6,0,-2,0
1480528404667829,0,-2,-5,-15,-4,0,-1,-2
1480528404669333,-1,-1,-3,1,-1,-2,0,-1
1480528404669333,1,0,-2,0,-2,0,0,1
1480528404682878,-1,0,-2,-7,-3,-4,0,-1
1480528404682878,2,-1,4,17,6,1,0,0
1480528404688885,-2,-2,0,-5,-7,-1,1,-1
1480528404688885,1,1,3,7,8,1,0,-1
1480528404705430,2,0,-6,-2,-1,-1,-1,-2
1480528404705430,0,-1,-1,5,-1,1,1,2
1480528404706934,1,0,-4,-6,-1,-1,0,-1
1480528404706934,-1,-2,-1,2,-3,-1,1,0
1480528404728491,-2,-2,1,2,5,3,-1,-2
1480528404728491,-1,-2,-4,-6,-4,-1,-1,-3
1480528404729996,2,1,5,-1,0,-3,-3,0
1480528404729996,-2,-1,-5,-13,-9,-2,-3,-2
1480528404742528,-2,0,-1,-1,2,1,0,-2
1480528404742528,-2,1,0,6,-2,-1,-2,-1
1480528404749045,1,1,1,4,0,1,1,2
1480528404749045,0,-3,-2,4,0,0,0,1
1480528404765589,0,2,3,-19,-10,-1,-2,-1
1480528404765589,-3,-4,-6,-3,-2,-3,1,-3
1480528404767093,0,2,3,-4,-2,-1,-1,-1
1480528404767093,0,0,-5,5,5,-1,-1,0
1480528404788149,-3,-2,-2,-4,-3,0,0,0
1480528404788149,2,3,4,-2,1,-1,0,0
1480528404789653,-2,-3,-3,0,0,0,0,-2
1480528404789653,-2,-1,4,14,6,-1,-1,-1
1480528404802188,0,-2,2,-4,-4,-2,0,-1
1480528404802188,1,2,2,-4,-1,1,0,1
1480528404809205,0,2,3,-1,1,-2,-2,-3
1480528404809205,-1,0,-2,-1,-2,-3,-1,-1
1480528404825247,-2,0,1,10,3,1,0,1
1480528404825247,1,-1,-2,1,0,-2,-2,-2
1480528404827254,-1,-2,-2,0,-2,-2,-4,-3
1480528404827254,-1,2,1,-1,0,0,-1,-2
1480528404847808,-2,-4,-3,-2,-5,0,0,-1
1480528404847808,-3,-3,-5,-3,-3,-1,1,0
1480528404849312,0,-1,-3,-1,-3,-2,0,1
1480528404849312,-1,-1,2,-7,0,-1,0,0
1480528404870368,0,0,-1,4,2,0,1,-1
1480528404870368,-4,-3,0,2,0,2,2,0
1480528404872373,0,-3,2,1,4,0,0,0
1480528404872373,-1,-3,-3,3,-4,-2,0,0
1480528404892927,0,1,5,17,3,1,0,0
1480528404892927,0,1,0,-16,-2,1,-1,1
1480528404894432,-2,0,-2,-4,-4,0,0,1
1480528404894432,0,-2,0,-2,-1,3,1,1
1480528404907968,-1,0,1,6,2,-4,0,-3
1480528404907968,1,0,2,6,3,1,-1,0
1480528404909472,-1,-1,-2,-6,-6,-3,-1,-1
1480528404909472,2,2,0,0,2,0,2,0
1480528404921504,-1,-1,0,-3,3,0,-1,1
1480528404921504,-2,-2,-3,5,4,0,-2,-2
1480528404930529,-1,0,-7,-18,-8,-1,0,1
1480528404930529,2,0,-1,-1,-4,-1,-2,-2
1480528404945567,0,-3,-2,-2,3,1,-1,1
1480528404945567,-1,0,3,0,1,-1,0,-1
1480528404947072,-1,-3,-3,12,7,-1,-1,0
1480528404947072,1,1,-5,-17,-10,-3,-1,1
1480528404968130,0,-1,-3,3,1,1,-1,-2
1480528404968130,0,1,6,3,-6,-2,0,-1
1480528404969631,-1,0,0,-3,5,2,0,-1
1480528404969631,-2,-1,3,2,-5,-1,-2,-1
1480528404981664,1,-1,-5,-7,-3,-2,0,0
1480528404981664,0,-5,-7,3,1,0,-1,0
1480528404990689,-2,0,1,6,1,-1,0,0
1480528404990689,-2,-2,2,-5,-4,-1,-1,-1
1480528405005227,-2,1,5,2,7,3,-1,0
1480528405005227,0,0,-5,2,3,2,-1,-2
1480528405007232,1,0,0,-4,-2,-1,0,0
1480528405007232,-2,1,0,7,2,0,-1,-1
1480528405027285,-1,-3,0,-17,-10,-1,0,1
1480528405027285,1,5,0,-4,-5,-1,-1,0
1480528405052352,-1,-1,2,-2,3,-1,0,0
1480528405052352,-1,-1,2,16,3,2,2,0
1480528405053355,0,0,-4,-12,-3,-3,1,1
1480528405053355,0,-2,-1,-3,-2,-2,-2,0
1480528405066891,-2,1,-1,2,0,0,1,1
1480528405066891,-1,-2,-5,-1,0,-1,-2,-2
1480528405067393,-2,-2,-2,5,-5,-2,-2,-3
1480528405067393,0,0,1,5,3,-1,-1,1
1480528405069400,0,1,3,7,-1,0,-1,0
1480528405069400,-2,-5,-8,-19,2,0,1,0
1480528405087946,1,0,-2,3,0,-1,-2,0
1480528405087946,0,2,3,-5,-2,-3,0,0
1480528405089451,0,-1,2,-2,-6,0,-4,-2
1480528405089451,0,-1,1,3,3,0,-1,0
1480528405101486,-1,0,0,-3,-7,-4,-3,-2
1480528405101486,0,2,1,6,1,0,0,-2
1480528405110641,-1,-2,-6,-1,0,0,-1,-1
1480528405110641,1,2,2,2,-1,-1,-2,-2
1480528405125547,-2,-2,-3,-1,-5,2,1,0
1480528405125547,0,-1,2,-2,1,-1,-1,0
1480528405127051,1,4,-2,-1,-1,-1,1,-2
1480528405127051,-1,-2,-3,2,1,-1,-2,-1
1480528405148608,0,0,-2,8,3,0,-1,-1
1480528405148608,-2,-5,-6,1,-5,-1,-1,-2
1480528405150114,0,-3,-5,-1,3,0,-1,-1
1480528405150114,-2,0,-1,-3,-1,-2,1,-1
1480528405161642,-1,2,2,1,0,-5,-2,-3
1480528405161642,1,-1,-3,-14,-9,0,-2,0
1480528405170667,-1,2,6,6,5,0,-1,0
1480528405170667,-2,-2,-1,0,2,3,2,1
1480528405185713,-2,-1,1,-14,-4,-2,-1,1
1480528405185713,-1,0,-3,6,3,-1,-1,0
1480528405187211,1,0,2,-6,-6,-2,0,1
1480528405187211,-1,1,7,6,5,0,0,-1
1480528405215285,0,-1,-5,0,1,1,0,-1
1480528405215285,-2,-2,-3,1,1,0,1,-2
1480528405217291,-2,-3,-5,-5,-2,-2,-1,0
1480528405217291,0,3,0,2,-4,-2,-1,0
1480528405221803,-1,-4,0,-3,0,0,0,1
1480528405221803,-5,-3,1,3,-4,-2,-3,-3
1480528405237845,0,-1,-4,0,3,0,-1,-1
1480528405237845,-1,1,0,-2,-7,-2,0,0
1480528405245365,2,2,2,0,1,-1,0,-1
1480528405245365,-2,-1,0,-4,4,-1,-1,0
1480528405246870,-2,-3,0,0,-3,2,-1,-1
1480528405246870,-3,-5,-3,0,0,-2,0,0
1480528405267925,-1,-2,-2,13,6,0,-2,-3
1480528405267925,0,1,-6,-16,-11,-1,1,-1
1480528405269429,1,-2,2,-4,-1,0,2,0
1480528405269429,-1,-1,3,-2,2,0,-1,-2
1480528405281963,-2,0,2,1,2,1,0,0
1480528405281963,-1,-3,-2,-1,0,0,-2,-1
1480528405290486,1,1,-1,7,-2,-2,-1,-1
1480528405290486,-2,-2,-1,-11,-2,1,-2,0
1480528405305525,0,0,0,4,-3,-1,0,0
1480528405305525,0,1,5,5,6,1,0,1
1480528405307030,-2,0,2,0,-8,-2,1,1
1480528405307030,-1,-1,-1,-2,2,-1,0,-1
1480528405328085,-2,-4,-3,-4,1,1,1,0
1480528405328085,0,0,4,6,0,0,0,0
1480528405329590,-2,-1,-2,-8,2,0,0,-1
1480528405329590,0,-1,-3,-2,-2,-5,-2,0
1480528405342123,1,0,-1,2,-4,0,0,0
1480528405342123,-2,-1,-5,-6,0,-1,-1,0
1480528405356662,0,1,-1,-2,-1,-1,0,-1
1480528405356662,1,0,-1,7,5,1,2,0
1480528405366187,-1,-3,-2,-5,-4,-1,-1,-1
1480528405366187,1,0,-2,-11,-7,-3,-1,-2
1480528405367691,-1,0,0,1,0,-2,-1,-1
1480528405367691,1,2,-2,-1,-2,-3,-2,-2
1480528405387744,0,-1,0,0,1,-1,0,1
1480528405387744,-2,-3,-5,7,-1,1,2,1
1480528405389758,-2,0,1,-2,3,1,1,-3
1480528405389758,0,1,-4,-4,-10,-1,0,-1
1480528405410304,-1,-2,2,3,7,0,0,0
1480528405410304,-1,-2,-1,2,-1,0,-1,-1
1480528405412309,0,-1,2,14,6,0,-1,-1
1480528405412309,0,-1,2,-17,-3,-1,1,0
1480528405424358,0,2,-3,-4,-3,-1,0,-2
1480528405424358,-1,-1,-5,-8,-1,-1,0,1
1480528405433366,-2,-3,-3,-2,-3,-1,0,0
1480528405433366,-1,-3,3,8,2,-1,-2,-1
1480528405455425,0,-1,-3,-10,-4,0,0,1
1480528405455425,0,-1,2,2,3,-1,-1,-4
1480528405456928,-2,0,0,12,1,0,-1,0
1480528405456928,-3,-4,-4,-21,-8,2,-3,-1
1480528405470464,-2,0,-1,-1,-1,-2,-1,-1
1480528405470464,1,0,1,6,0,-1,-1,-1
1480528405471968,0,-2,-2,3,-1,-2,1,1
1480528405471968,0,-1,-4,-4,-2,0,0,-1
1480528405485507,-4,-4,-1,0,-1,-3,0,-1
1480528405485507,0,1,-2,-1,-6,-1,-3,-2
1480528405487010,0,-1,-4,3,6,-2,-3,-2
1480528405487010,1,3,0,-6,-4,-2,-1,0
1480528405508565,1,3,1,2,-1,3,-1,-1
1480528405508565,-1,-7,-5,-12,-5,-4,0,0
1480528405510070,-2,-2,1,-2,-4,-2,-2,-2
1480528405510070,1,1,1,5,2,1,1,-1
1480528405530624,1,2,1,5,1,1,0,-1
1480528405530624,0,1,3,7,6,0,-1,1
1480528405532128,-1,-2,-2,-11,-5,-3,-1,-1
1480528405532128,0,3,0,14,7,0,1,1
1480528405544662,0,0,1,-10,-7,-1,-2,-2
1480528405544662,-3,1,0,2,3,3,0,1
1480528405559200,1,0,-2,-4,-2,0,1,1
1480528405559200,-1,0,2,11,2,-1,0,-1
1480528405568228,-1,-1,1,0,3,0,1,0
1480528405568228,1,-1,1,4,-1,0,-1,0
1480528405569728,-2,-1,0,-6,4,2,-1,0
