timestamp,roll,pitch,yaw
1480528389434305,-0.890133,-0.0680254,-0.471596
1480528389456866,-0.890133,-0.0680254,-0.471596
1480528389471906,-0.889985,-0.0679979,-0.471588
1480528389502988,-0.890133,-0.0680254,-0.471596
1480528389509506,-0.890133,-0.0680254,-0.471596
1480528389534073,-0.890133,-0.0680254,-0.471596
1480528389554124,-0.890133,-0.0680254,-0.471596
1480528389569164,-0.890133,-0.0680254,-0.471596
1480528389591724,-0.890133,-0.0680254,-0.471596
1480528389614286,-0.890133,-0.0680254,-0.471596
1480528389630828,-0.890133,-0.0680254,-0.471596
1480528389667425,-0.890133,-0.0680254,-0.471596
1480528389677451,-0.890133,-0.0680254,-0.471596
1480528389689485,-0.890159,-0.0678665,-0.47153
1480528389711544,-0.890159,-0.0678665,-0.47153
1480528389734102,-0.890159,-0.0678665,-0.47153
1480528389750647,-0.890159,-0.0678665,-0.47153
1480528389771702,-0.890159,-0.0678665,-0.47153
1480528389794262,-0.890159,-0.0678665,-0.47153
1480528389818326,-0.890159,-0.0678665,-0.47153
1480528389831862,-0.890133,-0.0680254,-0.471596
1480528389854425,-0.890159,-0.0678665,-0.47153
1480528389870465,-0.890307,-0.067894,-0.471537
1480528389892024,-0.890307,-0.067894,-0.471537
1480528389914082,-0.890307,-0.067894,-0.471537
1480528389930625,-0.890307,-0.067894,-0.471537
1480528389960705,-0.890307,-0.067894,-0.471537
1480528389974242,-0.890307,-0.067894,-0.471537
1480528389990790,-0.890307,-0.067894,-0.471537
1480528390014849,-0.890307,-0.067894,-0.471537
1480528390034401,-0.890307,-0.067894,-0.471537
1480528390050945,-0.890307,-0.067894,-0.471537
1480528390072004,-0.890307,-0.067894,-0.471537
1480528390094060,-0.890307,-0.067894,-0.471537
1480528390110649,-0.890307,-0.067894,-0.471537
1480528390131659,-0.890307,-0.067894,-0.471537
1480528390155726,-0.890307,-0.067894,-0.471537
1480528390170767,-0.890307,-0.067894,-0.471537
1480528390191821,-0.890282,-0.068053,-0.471603
1480528390214379,-0.890307,-0.067894,-0.471537
1480528390232930,-0.890307,-0.067894,-0.471537
1480528390254489,-0.890307,-0.067894,-0.471537
1480528390274542,-0.890307,-0.067894,-0.471537
1480528390292089,-0.891013,-0.067942,-0.471581
1480528390311638,-0.89084,-0.0680735,-0.471639
1480528390334198,-0.890251,-0.0681599,-0.471549
1480528390359767,-0.890108,-0.0681844,-0.471662
1480528390371801,-0.890372,-0.0682481,-0.471652
1480528390404889,-0.89095,-0.0680576,-0.471502
1480528390416919,-0.89095,-0.0680576,-0.471502
1480528390431958,-0.89095,-0.0680576,-0.471502
1480528390454521,-0.89095,-0.0680576,-0.471502
1480528390472066,-0.89095,-0.0680576,-0.471502
1480528390491617,-0.891098,-0.0680851,-0.47151
1480528390514177,-0.891098,-0.0680851,-0.47151
1480528390532726,-0.890919,-0.0681644,-0.471448
1480528390551778,-0.890919,-0.0681644,-0.471448
1480528390574343,-0.89095,-0.0680576,-0.471502
1480528390596897,-0.89095,-0.0680576,-0.471502
1480528390614945,-0.890952,-0.0681558,-0.471473
1480528390636002,-0.890919,-0.0681644,-0.471448
1480528390656557,-0.89095,-0.0680576,-0.471502
1480528390671596,-0.89095,-0.0680576,-0.471502
1480528390701676,-0.89095,-0.0680576,-0.471502
1480528390719724,-0.890952,-0.0681558,-0.471473
1480528390731757,-0.890919,-0.0681644,-0.471448
1480528390761836,-0.89095,-0.0680576,-0.471502
1480528390785399,-0.89095,-0.0680576,-0.471502
1480528390791916,-0.890919,-0.0681644,-0.471448
1480528390817484,-0.890919,-0.0681644,-0.471448
1480528390836535,-0.890919,-0.0681644,-0.471448
1480528390853079,-0.890919,-0.0681644,-0.471448
1480528390874135,-0.890919,-0.0681644,-0.471448
1480528390896694,-0.890924,-0.0682165,-0.471568
1480528390913740,-0.890924,-0.0682165,-0.471568
1480528390934294,-0.890919,-0.0681644,-0.471448
1480528390956855,-0.890919,-0.0681644,-0.471448
1480528390973400,-0.890952,-0.0681558,-0.471473
1480528390994455,-0.890919,-0.0681644,-0.471448
1480528391018017,-0.890919,-0.0681644,-0.471448
1480528391034561,-0.89095,-0.0680576,-0.471502
1480528391054617,-0.89095,-0.0680576,-0.471502
1480528391076674,-0.890919,-0.0681644,-0.471448
1480528391100738,-0.891067,-0.068192,-0.471456
1480528391114273,-0.891067,-0.068192,-0.471456
1480528391136834,-0.890919,-0.0681644,-0.471448
1480528391159394,-0.890919,-0.0681644,-0.471448
1480528391174434,-0.891331,-0.0682556,-0.471447
1480528391196993,-0.891362,-0.0681488,-0.471501
1480528391215544,-0.891362,-0.0681488,-0.471501
1480528391234092,-0.891331,-0.0682556,-0.471447
1480528391256652,-0.891331,-0.0682556,-0.471447
1480528391274701,-0.891331,-0.0682556,-0.471447
1480528391294252,-0.891331,-0.0682556,-0.471447
1480528391316812,-0.891183,-0.0682281,-0.471439
1480528391334861,-0.891188,-0.0682802,-0.471559
1480528391370455,-0.891183,-0.0682281,-0.471439
1480528391376972,-0.891214,-0.0681213,-0.471493
1480528391394519,-0.891214,-0.0681213,-0.471493
1480528391414071,-0.891214,-0.0681213,-0.471493
1480528391444151,-0.891183,-0.0682281,-0.471439
1480528391454681,-0.891214,-0.0681213,-0.471493
1480528391474232,-0.891214,-0.0681213,-0.471493
1480528391496791,-0.891214,-0.0681213,-0.471493
1480528391514839,-0.891216,-0.0682195,-0.471463
1480528391535895,-0.891183,-0.0682281,-0.471439
1480528391556951,-0.891214,-0.0681213,-0.471493
1480528391574498,-0.891214,-0.0681213,-0.471493
1480528391594049,-0.891214,-0.0681213,-0.471493
1480528391616610,-0.891214,-0.0681213,-0.471493
1480528391634658,-0.891214,-0.0681213,-0.471493
1480528391654213,-0.891214,-0.0681213,-0.471493
1480528391679779,-0.891214,-0.0681213,-0.471493
1480528391694817,-0.891098,-0.0680851,-0.47151
1480528391714369,-0.891214,-0.0681213,-0.471493
1480528391736930,-0.891214,-0.0681213,-0.471493
1480528391754982,-0.891214,-0.0681213,-0.471493
1480528391775533,-0.891214,-0.0681213,-0.471493
1480528391796603,-0.891183,-0.0682281,-0.471439
1480528391814637,-0.891214,-0.0681213,-0.471493
1480528391835694,-0.891214,-0.0681213,-0.471493
1480528391859756,-0.891214,-0.0681213,-0.471493
1480528391874798,-0.891214,-0.0681213,-0.471493
1480528391895853,-0.891214,-0.0681213,-0.471493
1480528391916909,-0.891214,-0.0681213,-0.471493
1480528391934455,-0.891214,-0.0681213,-0.471493
1480528391957016,-0.891214,-0.0681213,-0.471493
1480528391977212,-0.891214,-0.0681213,-0.471493
1480528392000631,-0.891214,-0.0681213,-0.471493
1480528392021690,-0.891214,-0.0681213,-0.471493
1480528392036727,-0.891214,-0.0681213,-0.471493
1480528392054778,-0.891214,-0.0681213,-0.471493
1480528392075832,-0.891214,-0.0681213,-0.471493
1480528392104410,-0.891214,-0.0681213,-0.471493
1480528392119448,-0.891214,-0.0681213,-0.471493
1480528392137511,-0.891246,-0.0681126,-0.471518
1480528392164066,-0.891214,-0.0681213,-0.471493
1480528392179106,-0.891214,-0.0681213,-0.471493
1480528392197155,-0.891214,-0.0681213,-0.471493
1480528392216706,-0.891098,-0.0680851,-0.47151
1480528392246786,-0.891246,-0.0681126,-0.471518
1480528392257315,-0.891214,-0.0681213,-0.471493
1480528392284386,-0.891214,-0.0681213,-0.471493
1480528392299426,-0.891246,-0.0681126,-0.471518
1480528392316976,-0.891098,-0.0680851,-0.47151
1480528392345549,-0.891098,-0.0680851,-0.47151
1480528392359085,-0.891098,-0.0680851,-0.47151
1480528392377134,-0.890773,-0.0682351,-0.471411
1480528392396684,-0.890773,-0.0682351,-0.471411
1480528392419246,-0.890773,-0.0682351,-0.471411
1480528392437292,-0.890773,-0.0682351,-0.471411
1480528392456844,-0.890773,-0.0682351,-0.471411
1480528392479548,-0.890773,-0.0682351,-0.471411
1480528392497453,-0.890773,-0.0682351,-0.471411
1480528392516503,-0.890773,-0.0682351,-0.471411
1480528392539064,-0.890921,-0.0682627,-0.471418
1480528392557111,-0.890921,-0.0682627,-0.471418
1480528392576663,-0.890773,-0.0682351,-0.471411
1480528392599223,-0.890952,-0.0681558,-0.471473
1480528392617272,-0.890952,-0.0681558,-0.471473
1480528392636824,-0.890952,-0.0681558,-0.471473
1480528392659383,-0.890804,-0.0681283,-0.471465
1480528392677933,-0.890804,-0.0681283,-0.471465
1480528392697986,-0.890804,-0.0681283,-0.471465
1480528392726562,-0.890804,-0.0681283,-0.471465
1480528392737091,-0.890804,-0.0681283,-0.471465
1480528392758146,-0.890804,-0.0681283,-0.471465
1480528392779202,-0.890804,-0.0681283,-0.471465
1480528392797250,-0.890804,-0.0681283,-0.471465
1480528392818306,-0.890804,-0.0681283,-0.471465
1480528392839372,-0.891216,-0.0682195,-0.471463
1480528392864429,-0.891185,-0.0683263,-0.471409
1480528392878467,-0.891216,-0.0682195,-0.471463
1480528392899021,-0.891216,-0.0682195,-0.471463
1480528392923085,-0.891067,-0.068192,-0.471456
1480528392938124,-0.891067,-0.068192,-0.471456
1480528392962189,-0.891067,-0.068192,-0.471456
1480528392977230,-0.891216,-0.0682195,-0.471463
1480528392998285,-0.890599,-0.0683666,-0.471469
1480528393019341,-0.890484,-0.0683304,-0.471486
1480528393041901,-0.891011,-0.0684578,-0.471467
1480528393059447,-0.891042,-0.0683509,-0.471522
1480528393078999,-0.891037,-0.0682988,-0.471401
1480528393097048,-0.891042,-0.0683509,-0.471522
1480528393119608,-0.891042,-0.0683509,-0.471522
1480528393139159,-0.891042,-0.0683509,-0.471522
1480528393157208,-0.891037,-0.0682988,-0.471401
1480528393179767,-0.891037,-0.0682988,-0.471401
1480528393199319,-0.891042,-0.0683509,-0.471522
1480528393217368,-0.891042,-0.0683509,-0.471522
1480528393240430,-0.891037,-0.0682988,-0.471401
1480528393259479,-0.891037,-0.0682988,-0.471401
1480528393277029,-0.890894,-0.0683234,-0.471514
1480528393304098,-0.890888,-0.0682713,-0.471394
1480528393319139,-0.891067,-0.068192,-0.471456
1480528393350724,-0.891067,-0.068192,-0.471456
1480528393359747,-0.890888,-0.0682713,-0.471394
1480528393379298,-0.890888,-0.0682713,-0.471394
1480528393397346,-0.890888,-0.0682713,-0.471394
1480528393419907,-0.891067,-0.068192,-0.471456
1480528393439459,-0.891067,-0.068192,-0.471456
1480528393457005,-0.890888,-0.0682713,-0.471394
1480528393484077,-0.891037,-0.0682988,-0.471401
1480528393499117,-0.891037,-0.0682988,-0.471401
1480528393517166,-0.891067,-0.068192,-0.471456
1480528393539728,-0.890919,-0.0681644,-0.471448
1480528393562285,-0.890888,-0.0682713,-0.471394
1480528393581838,-0.891067,-0.068192,-0.471456
1480528393599885,-0.891067,-0.068192,-0.471456
1480528393619438,-0.890919,-0.0681644,-0.471448
1480528393641998,-0.890888,-0.0682713,-0.471394
1480528393659544,-0.890919,-0.0681644,-0.471448
1480528393681603,-0.890919,-0.0681644,-0.471448
1480528393701656,-0.890919,-0.0681644,-0.471448
1480528393727224,-0.890919,-0.0681644,-0.471448
1480528393741763,-0.890767,-0.068183,-0.47129
1480528393761815,-0.890767,-0.068183,-0.47129
1480528393779865,-0.891152,-0.068335,-0.471385
1480528393800922,-0.891452,-0.0683439,-0.47155
1480528393821977,-0.891452,-0.0683439,-0.47155
1480528393839527,-0.890919,-0.0681644,-0.471448
1480528393866595,-0.890919,-0.0681644,-0.471448
1480528393881634,-0.890919,-0.0681644,-0.471448
1480528393899683,-0.890983,-0.0680489,-0.471527
1480528393928258,-0.890983,-0.0680489,-0.471527
1480528393944802,-0.890977,-0.0679968,-0.471407
1480528393967362,-0.890977,-0.0679968,-0.471407
1480528393980898,-0.890983,-0.0680489,-0.471527
1480528394001954,-0.890952,-0.0681558,-0.471473
1480528394019502,-0.890952,-0.0681558,-0.471473
1480528394043064,-0.89095,-0.0680576,-0.471502
1480528394069134,-0.89095,-0.0680576,-0.471502
1480528394079663,-0.890952,-0.0681558,-0.471473
1480528394102224,-0.890952,-0.0681558,-0.471473
1480528394121774,-0.890919,-0.0681644,-0.471448
1480528394140824,-0.89095,-0.0680576,-0.471502
1480528394162381,-0.890983,-0.0680489,-0.471527
1480528394181933,-0.890804,-0.0681283,-0.471465
1480528394211513,-0.890983,-0.0680489,-0.471527
1480528394222052,-0.89095,-0.0680576,-0.471502
1480528394243096,-0.890952,-0.0681558,-0.471473
1480528394259640,-0.890804,-0.0681283,-0.471465
1480528394286713,-0.890804,-0.0681283,-0.471465
1480528394301752,-0.890983,-0.0680489,-0.471527
1480528394319800,-0.890983,-0.0680489,-0.471527
1480528394356899,-0.890834,-0.0680214,-0.471519
1480528394361912,-0.890804,-0.0681283,-0.471465
1480528394379459,-0.890983,-0.0680489,-0.471527
1480528394402019,-0.890983,-0.0680489,-0.471527
1480528394421571,-0.890834,-0.0680214,-0.471519
1480528394439620,-0.890804,-0.0681283,-0.471465
1480528394462178,-0.890804,-0.0681283,-0.471465
1480528394481731,-0.890834,-0.0680214,-0.471519
1480528394499779,-0.890804,-0.0681283,-0.471465
1480528394522339,-0.890804,-0.0681283,-0.471465
1480528394542236,-0.890804,-0.0681283,-0.471465
1480528394559438,-0.890834,-0.0680214,-0.471519
1480528394581998,-0.890834,-0.0680214,-0.471519
1480528394603056,-0.891216,-0.0682195,-0.471463
1480528394625614,-0.891183,-0.0682281,-0.471439
1480528394643160,-0.890921,-0.0682627,-0.471418
1480528394663214,-0.890946,-0.0681037,-0.471352
1480528394679758,-0.890946,-0.0681037,-0.471352
1480528394702318,-0.890921,-0.0682627,-0.471418
1480528394723374,-0.890888,-0.0682713,-0.471394
1480528394747438,-0.891062,-0.0681398,-0.471336
1480528394761977,-0.891062,-0.0681398,-0.471336
1480528394783033,-0.890921,-0.0682627,-0.471418
1480528394800078,-0.890921,-0.0682627,-0.471418
1480528394822136,-0.890946,-0.0681037,-0.471352
1480528394843192,-0.890946,-0.0681037,-0.471352
1480528394859736,-0.890946,-0.0681037,-0.471352
1480528394882297,-0.890921,-0.0682627,-0.471418
1480528394920399,-0.890921,-0.0682627,-0.471418
1480528394924409,-0.890946,-0.0681037,-0.471352
1480528394949475,-0.890946,-0.0681037,-0.471352
1480528394964515,-0.890946,-0.0681037,-0.471352
1480528394979555,-0.890921,-0.0682627,-0.471418
1480528395014147,-0.890921,-0.0682627,-0.471418
1480528395024676,-0.890946,-0.0681037,-0.471352
1480528395044227,-0.890952,-0.0681558,-0.471473
1480528395062275,-0.890921,-0.0682627,-0.471418
1480528395084835,-0.890921,-0.0682627,-0.471418
1480528395104387,-0.890946,-0.0681037,-0.471352
1480528395122437,-0.890946,-0.0681037,-0.471352
1480528395144508,-0.890804,-0.0681283,-0.471465
1480528395164046,-0.890804,-0.0681283,-0.471465
1480528395182094,-0.890798,-0.0680762,-0.471345
1480528395218192,-0.890946,-0.0681037,-0.471352
1480528395224207,-0.890798,-0.0680762,-0.471345
1480528395243258,-0.890798,-0.0680762,-0.471345
1480528395264814,-0.890946,-0.0681037,-0.471352
1480528395292387,-0.890946,-0.0681037,-0.471352
1480528395301412,-0.890946,-0.0681037,-0.471352
1480528395323971,-0.890921,-0.0682627,-0.471418
1480528395352046,-0.890773,-0.0682351,-0.471411
1480528395362573,-0.890946,-0.0681037,-0.471352
1480528395383630,-0.890946,-0.0681037,-0.471352
1480528395404686,-0.890798,-0.0680762,-0.471345
1480528395421230,-0.890798,-0.0680762,-0.471345
1480528395443789,-0.890798,-0.0680762,-0.471345
1480528395464845,-0.890798,-0.0680762,-0.471345
1480528395481391,-0.890798,-0.0680762,-0.471345
1480528395503950,-0.89065,-0.0680486,-0.471337
1480528395526511,-0.890798,-0.0680762,-0.471345
1480528395542052,-0.890798,-0.0680762,-0.471345
1480528395563609,-0.890798,-0.0680762,-0.471345
1480528395584664,-0.890655,-0.0681007,-0.471457
1480528395601209,-0.890688,-0.0680921,-0.471482
1480528395631289,-0.890798,-0.0680762,-0.471345
1480528395644840,-0.890798,-0.0680762,-0.471345
1480528395661369,-0.890798,-0.0680762,-0.471345
1480528395683929,-0.890625,-0.0682076,-0.471403
1480528395704985,-0.890773,-0.0682351,-0.471411
1480528395721530,-0.890534,-0.0680125,-0.471354
1480528395744089,-0.890534,-0.0680125,-0.471354
1480528395765145,-0.890534,-0.0680125,-0.471354
1480528395781188,-0.890534,-0.0680125,-0.471354
1480528395803751,-0.890414,-0.0679243,-0.47125
1480528395824803,-0.890414,-0.0679243,-0.47125
1480528395842350,-0.890414,-0.0679243,-0.47125
1480528395863908,-0.890677,-0.0679879,-0.471241
1480528395886970,-0.890856,-0.0679085,-0.471303
1480528395921061,-0.890587,-0.0677928,-0.471192
1480528395924069,-0.890587,-0.0677928,-0.471192
1480528395946126,-0.890556,-0.0678997,-0.471138
1480528395961166,-0.890556,-0.0678997,-0.471138
1480528395983726,-0.890523,-0.0679083,-0.471113
1480528396012302,-0.890523,-0.0679083,-0.471113
1480528396021328,-0.890523,-0.0679083,-0.471113
1480528396043886,-0.890523,-0.0679083,-0.471113
1480528396066446,-0.890672,-0.0679358,-0.471121
1480528396080499,-0.890672,-0.0679358,-0.471121
1480528396104047,-0.890556,-0.0678997,-0.471138
1480528396126607,-0.890556,-0.0678997,-0.471138
1480528396141646,-0.890556,-0.0678997,-0.471138
1480528396163704,-0.890556,-0.0678997,-0.471138
1480528396186767,-0.890556,-0.0678997,-0.471138
1480528396200804,-0.890556,-0.0678997,-0.471138
1480528396223866,-0.890531,-0.0680586,-0.471204
1480528396246425,-0.890526,-0.0680066,-0.471084
1480528396260463,-0.890966,-0.0678926,-0.471166
1480528396290041,-0.890966,-0.0678926,-0.471166
1480528396307087,-0.890818,-0.0678651,-0.471159
1480528396320623,-0.890966,-0.0678926,-0.471166
1480528396343684,-0.890966,-0.0678926,-0.471166
1480528396366244,-0.890966,-0.0678926,-0.471166
1480528396394819,-0.890966,-0.0678926,-0.471166
1480528396403844,-0.890966,-0.0678926,-0.471166
1480528396433924,-0.890966,-0.0678926,-0.471166
1480528396447460,-0.891114,-0.0679201,-0.471174
1480528396464003,-0.890966,-0.0678926,-0.471166
1480528396486564,-0.890966,-0.0678926,-0.471166
1480528396507620,-0.890818,-0.0678651,-0.471159
1480528396524165,-0.890966,-0.0678926,-0.471166
1480528396546784,-0.890997,-0.0677857,-0.47122
1480528396567278,-0.890966,-0.0678926,-0.471166
1480528396583824,-0.890966,-0.0678926,-0.471166
1480528396606384,-0.890997,-0.0677857,-0.47122
1480528396626937,-0.890997,-0.0677857,-0.47122
1480528396643982,-0.890966,-0.0678926,-0.471166
1480528396680582,-0.890966,-0.0678926,-0.471166
1480528396687097,-0.890966,-0.0678926,-0.471166
1480528396703641,-0.890997,-0.0677857,-0.47122
1480528396726201,-0.890997,-0.0677857,-0.47122
1480528396747926,-0.890966,-0.0678926,-0.471166
1480528396763801,-0.890966,-0.0678926,-0.471166
1480528396786361,-0.890966,-0.0678926,-0.471166
1480528396807419,-0.890997,-0.0677857,-0.47122
1480528396823967,-0.890966,-0.0678926,-0.471166
1480528396846721,-0.890966,-0.0678926,-0.471166
1480528396869081,-0.890997,-0.0677857,-0.47122
1480528396883620,-0.890997,-0.0677857,-0.47122
1480528396906181,-0.890997,-0.0677857,-0.47122
1480528396928742,-0.890997,-0.0677857,-0.47122
1480528396957317,-0.890997,-0.0677857,-0.47122
1480528396966340,-0.891145,-0.0678132,-0.471228
1480528396988900,-0.891114,-0.0679201,-0.471174
1480528397003438,-0.890966,-0.0678926,-0.471166
1480528397026501,-0.890966,-0.0678926,-0.471166
1480528397049060,-0.891145,-0.0678132,-0.471228
1480528397063098,-0.891145,-0.0678132,-0.471228
1480528397086159,-0.891145,-0.0678132,-0.471228
1480528397108719,-0.890997,-0.0677857,-0.47122
1480528397123258,-0.891145,-0.0678132,-0.471228
1480528397146819,-0.890992,-0.0677336,-0.4711
1480528397168879,-0.891024,-0.0677249,-0.471125
1480528397191443,-0.891255,-0.0677972,-0.471091
1480528397206482,-0.891404,-0.0678247,-0.471099
1480528397229039,-0.891022,-0.0676267,-0.471155
1480528397243076,-0.891022,-0.0676267,-0.471155
1480528397266137,-0.890907,-0.0675905,-0.471171
1480528397296719,-0.890907,-0.0675905,-0.471171
1480528397303236,-0.890548,-0.0672797,-0.471011
1480528397326298,-0.890548,-0.0672797,-0.471011
1480528397348857,-0.891017,-0.0675746,-0.471034
1480528397371418,-0.89105,-0.0675659,-0.471059
1480528397386461,-0.890607,-0.0675817,-0.471006
1480528397409034,-0.890401,-0.0673505,-0.470974
1480528397430073,-0.890369,-0.0673591,-0.470949
1480528397446116,-0.890612,-0.0676338,-0.471126
1480528397476196,-0.890582,-0.0677407,-0.471072
1480528397489735,-0.890312,-0.067625,-0.470961
1480528397514297,-0.890312,-0.067625,-0.470961
1480528397528836,-0.890312,-0.067625,-0.470961
1480528397550394,-0.89017,-0.0676496,-0.471073
1480528397573959,-0.890312,-0.067625,-0.470961
1480528397589001,-0.890312,-0.067625,-0.470961
1480528397611056,-0.890312,-0.067625,-0.470961
1480528397626596,-0.890312,-0.067625,-0.470961
1480528397648656,-0.890287,-0.0677839,-0.471027
1480528397677231,-0.890312,-0.067625,-0.470961
1480528397686255,-0.890312,-0.067625,-0.470961
1480528397708816,-0.890164,-0.0675975,-0.470953
1480528397729870,-0.89017,-0.0676496,-0.471073
1480528397746414,-0.890287,-0.0677839,-0.471027
1480528397768976,-0.890287,-0.0677839,-0.471027
1480528397792038,-0.889819,-0.0679587,-0.47104
1480528397806075,-0.889152,-0.0679543,-0.471141
1480528397828636,-0.889152,-0.0679543,-0.471141
1480528397851194,-0.889146,-0.0679023,-0.471021
1480528397866234,-0.889177,-0.0677953,-0.471075
1480528397888794,-0.888998,-0.0678748,-0.471013
1480528397911357,-0.889003,-0.0679268,-0.471133
1480528397925893,-0.889003,-0.0679268,-0.471133
1480528397949957,-0.888998,-0.0678748,-0.471013
1480528397971514,-0.889003,-0.0679268,-0.471133
1480528397985551,-0.889003,-0.0679268,-0.471133
1480528398008615,-0.889003,-0.0679268,-0.471133
1480528398031173,-0.889003,-0.0679268,-0.471133
1480528398045711,-0.889003,-0.0679268,-0.471133
1480528398070277,-0.889003,-0.0679268,-0.471133
1480528398091335,-0.889003,-0.0679268,-0.471133
1480528398105871,-0.889003,-0.0679268,-0.471133
1480528398136452,-0.889146,-0.0679023,-0.471021
1480528398151492,-0.889146,-0.0679023,-0.471021
1480528398165530,-0.889152,-0.0679543,-0.471141
1480528398189095,-0.889152,-0.0679543,-0.471141
1480528398212155,-0.889152,-0.0679543,-0.471141
1480528398233711,-0.889152,-0.0679543,-0.471141
1480528398248751,-0.888973,-0.0680337,-0.471079
1480528398271312,-0.888973,-0.0680337,-0.471079
1480528398292367,-0.889152,-0.0679543,-0.471141
1480528398308911,-0.889003,-0.0679268,-0.471133
1480528398337487,-0.888973,-0.0680337,-0.471079
1480528398354032,-0.888973,-0.0680337,-0.471079
1480528398375089,-0.888973,-0.0680337,-0.471079
1480528398391131,-0.889003,-0.0679268,-0.471133
1480528398412185,-0.889003,-0.0679268,-0.471133
1480528398428730,-0.888973,-0.0680337,-0.471079
1480528398451291,-0.888973,-0.0680337,-0.471079
1480528398472347,-0.889121,-0.0680612,-0.471087
1480528398488891,-0.888973,-0.0680337,-0.471079
1480528398511450,-0.889267,-0.0679904,-0.471124
1480528398532505,-0.889267,-0.0679904,-0.471124
1480528398556072,-0.889415,-0.0680179,-0.471132
1480528398578628,-0.889415,-0.0680179,-0.471132
1480528398593168,-0.889415,-0.0680179,-0.471132
1480528398609211,-0.889236,-0.0680973,-0.47107
1480528398631268,-0.889384,-0.0681248,-0.471078
1480528398652324,-0.889415,-0.0680179,-0.471132
1480528398668869,-0.889415,-0.0680179,-0.471132
1480528398691430,-0.889267,-0.0679904,-0.471124
1480528398713488,-0.889267,-0.0679904,-0.471124
1480528398728026,-0.889261,-0.0679384,-0.471004
1480528398751088,-0.88944,-0.0678589,-0.471066
1480528398773648,-0.889261,-0.0679384,-0.471004
1480528398788688,-0.889261,-0.0679384,-0.471004
1480528398811253,-0.889261,-0.0679384,-0.471004
1480528398833808,-0.88944,-0.0678589,-0.471066
1480528398854865,-0.88944,-0.0678589,-0.471066
1480528398871412,-0.889261,-0.0679384,-0.471004
1480528398901488,-0.88941,-0.0679659,-0.471012
1480528398908007,-0.88941,-0.0679659,-0.471012
1480528398937584,-0.88941,-0.0679659,-0.471012
1480528398953627,-0.88941,-0.0679659,-0.471012
1480528398968165,-0.889267,-0.0679904,-0.471124
1480528399006270,-0.88941,-0.0679659,-0.471012
1480528399013787,-0.88941,-0.0679659,-0.471012
1480528399028325,-0.88941,-0.0679659,-0.471012
1480528399051387,-0.889384,-0.0681248,-0.471078
1480528399081466,-0.889415,-0.0680179,-0.471132
1480528399088486,-0.88941,-0.0679659,-0.471012
1480528399111547,-0.889783,-0.0680136,-0.470865
1480528399133605,-0.889789,-0.0680656,-0.470986
1480528399148144,-0.889821,-0.068057,-0.47101
1480528399171206,-0.889789,-0.0680656,-0.470986
1480528399201285,-0.889789,-0.0680656,-0.470986
1480528399214820,-0.889789,-0.0680656,-0.470986
1480528399237382,-0.889821,-0.068057,-0.47101
1480528399253927,-0.889789,-0.0680656,-0.470986
1480528399274981,-0.889937,-0.0680931,-0.470993
1480528399291525,-0.889937,-0.0680931,-0.470993
1480528399313584,-0.889789,-0.0680656,-0.470986
1480528399334640,-0.889758,-0.0681725,-0.470931
1480528399351185,-0.889758,-0.0681725,-0.470931
1480528399373744,-0.889937,-0.0680931,-0.470993
1480528399394799,-0.889789,-0.0680656,-0.470986
1480528399419365,-0.889789,-0.0680656,-0.470986
1480528399433905,-0.889937,-0.0680931,-0.470993
1480528399454962,-0.889937,-0.0680931,-0.470993
1480528399471505,-0.889937,-0.0680931,-0.470993
1480528399494065,-0.889906,-0.0682,-0.470939
1480528399516122,-0.889906,-0.0682,-0.470939
1480528399531162,-0.889937,-0.0680931,-0.470993
1480528399553725,-0.889937,-0.0680931,-0.470993
1480528399574778,-0.889231,-0.0680453,-0.47095
1480528399591323,-0.889236,-0.0680973,-0.47107
1480528399621403,-0.889384,-0.0681248,-0.471078
1480528399635440,-0.889384,-0.0681248,-0.471078
1480528399651482,-0.889384,-0.0681248,-0.471078
1480528399673542,-0.889205,-0.0682043,-0.471016
1480528399696602,-0.889121,-0.0680612,-0.471087
1480528399711141,-0.888883,-0.0678386,-0.47103
1480528399733701,-0.888883,-0.0678386,-0.47103
1480528399756266,-0.888883,-0.0678386,-0.47103
1480528399771301,-0.888883,-0.0678386,-0.47103
1480528399793861,-0.888883,-0.0678386,-0.47103
1480528399816421,-0.889031,-0.0678661,-0.471038
1480528399830960,-0.888883,-0.0678386,-0.47103
1480528399854023,-0.888883,-0.0678386,-0.47103
1480528399876080,-0.888883,-0.0678386,-0.47103
1480528399890620,-0.888883,-0.0678386,-0.47103
1480528399913680,-0.888883,-0.0678386,-0.47103
1480528399943760,-0.888883,-0.0678386,-0.47103
1480528399950779,-0.888883,-0.0678386,-0.47103
1480528399973842,-0.888883,-0.0678386,-0.47103
1480528399996410,-0.888883,-0.0678386,-0.47103
1480528400017458,-0.888883,-0.0678386,-0.47103
1480528400033999,-0.888883,-0.0678386,-0.47103
1480528400056563,-0.888883,-0.0678386,-0.47103
1480528400070597,-0.888883,-0.0678386,-0.47103
1480528400093658,-0.888877,-0.0677866,-0.47091
1480528400116218,-0.888883,-0.0678386,-0.47103
1480528400130757,-0.888883,-0.0678386,-0.47103
1480528400154322,-0.888883,-0.0678386,-0.47103
1480528400183905,-0.888877,-0.0677866,-0.47091
1480528400197434,-0.888883,-0.0678386,-0.47103
1480528400214481,-0.888883,-0.0678386,-0.47103
1480528400236539,-0.888883,-0.0678386,-0.47103
1480528400257597,-0.888883,-0.0678386,-0.47103
1480528400273637,-0.88876,-0.0676522,-0.470956
1480528400296198,-0.888734,-0.0678111,-0.471022
1480528400317253,-0.888734,-0.0678111,-0.471022
1480528400333797,-0.888908,-0.0676797,-0.470964
1480528400356358,-0.888908,-0.0676797,-0.470964
1480528400377413,-0.888908,-0.0676797,-0.470964
1480528400393958,-0.888877,-0.0677866,-0.47091
1480528400416518,-0.888908,-0.0676797,-0.470964
1480528400437574,-0.888908,-0.0676797,-0.470964
1480528400453617,-0.888908,-0.0676797,-0.470964
1480528400476176,-0.888883,-0.0678386,-0.47103
1480528400497232,-0.888883,-0.0678386,-0.47103
1480528400521297,-0.888908,-0.0676797,-0.470964
1480528400536336,-0.888908,-0.0676797,-0.470964
1480528400564912,-0.888908,-0.0676797,-0.470964
1480528400573936,-0.888908,-0.0676797,-0.470964
1480528400604017,-0.888908,-0.0676797,-0.470964
1480528400617553,-0.888908,-0.0676797,-0.470964
1480528400634098,-0.888908,-0.0676797,-0.470964
1480528400656658,-0.88876,-0.0676522,-0.470956
1480528400678963,-0.888908,-0.0676797,-0.470964
1480528400693755,-0.888908,-0.0676797,-0.470964
1480528400716314,-0.888908,-0.0676797,-0.470964
1480528400738876,-0.88876,-0.0676522,-0.470956
1480528400753916,-0.88876,-0.0676522,-0.470956
1480528400776475,-0.888908,-0.0676797,-0.470964
1480528400799035,-0.888939,-0.0675728,-0.471018
1480528400813379,-0.88876,-0.0676522,-0.470956
1480528400836136,-0.88876,-0.0676522,-0.470956
1480528400859195,-0.88879,-0.0675453,-0.47101
1480528400873235,-0.888939,-0.0675728,-0.471018
1480528400903814,-0.888939,-0.0675728,-0.471018
1480528400918854,-0.88876,-0.0676522,-0.470956
1480528400933392,-0.88879,-0.0675453,-0.47101
1480528400956457,-0.88879,-0.0675453,-0.47101
1480528400979015,-0.88879,-0.0675453,-0.47101
1480528400993051,-0.88879,-0.0675453,-0.47101
1480528401016112,-0.888823,-0.0675366,-0.471035
1480528401038672,-0.88879,-0.0675453,-0.47101
1480528401053212,-0.88879,-0.0675453,-0.47101
1480528401076774,-0.88879,-0.0675453,-0.47101
1480528401098832,-0.88879,-0.0675453,-0.47101
1480528401121897,-0.88879,-0.0675453,-0.47101
1480528401136433,-0.888823,-0.0675366,-0.471035
1480528401158994,-0.888849,-0.0673777,-0.470969
1480528401181553,-0.888675,-0.0675091,-0.471027
1480528401196592,-0.888675,-0.0675091,-0.471027
1480528401218653,-0.888675,-0.0675091,-0.471027
1480528401239708,-0.888849,-0.0673777,-0.470969
1480528401263770,-0.888675,-0.0675091,-0.471027
1480528401286331,-0.888675,-0.0675091,-0.471027
1480528401299867,-0.888675,-0.0675091,-0.471027
1480528401316412,-0.888675,-0.0675091,-0.471027
1480528401339477,-0.888706,-0.0674022,-0.471081
1480528401360027,-0.888675,-0.0675091,-0.471027
1480528401376070,-0.888527,-0.0674817,-0.471019
1480528401398629,-0.888675,-0.0675091,-0.471027
1480528401419687,-0.888675,-0.0675091,-0.471027
1480528401436734,-0.888527,-0.0674817,-0.471019
1480528401466811,-0.888527,-0.0674817,-0.471019
1480528401479845,-0.888527,-0.0674817,-0.471019
1480528401496390,-0.888527,-0.0674817,-0.471019
1480528401518950,-0.888527,-0.0674817,-0.471019
1480528401542011,-0.888527,-0.0674817,-0.471019
1480528401564571,-0.888527,-0.0674817,-0.471019
1480528401578608,-0.888527,-0.0674817,-0.471019
1480528401601169,-0.888527,-0.0674817,-0.471019
1480528401616209,-0.888529,-0.06758,-0.47099
1480528401638768,-0.888529,-0.06758,-0.47099
1480528401667345,-0.888527,-0.0674817,-0.471019
1480528401676368,-0.888527,-0.0674817,-0.471019
1480528401698929,-0.888412,-0.0674455,-0.471036
1480528401721489,-0.888381,-0.0675525,-0.470982
1480528401735527,-0.888381,-0.0675525,-0.470982
1480528401758587,-0.888412,-0.0674455,-0.471036
1480528401781147,-0.888412,-0.0674455,-0.471036
1480528401795686,-0.888412,-0.0674455,-0.471036
1480528401819249,-0.888381,-0.0675525,-0.470982
1480528401842310,-0.888412,-0.0674455,-0.471036
1480528401855845,-0.888412,-0.0674455,-0.471036
1480528401878907,-0.888412,-0.0674455,-0.471036
1480528401907483,-0.888412,-0.0674455,-0.471036
1480528401915505,-0.888412,-0.0674455,-0.471036
1480528401946086,-0.888412,-0.0674455,-0.471036
1480528401962128,-0.888412,-0.0674455,-0.471036
1480528401975668,-0.888381,-0.0675525,-0.470982
1480528401998726,-0.888675,-0.0675091,-0.471027
1480528402021287,-0.888823,-0.0675366,-0.471035
1480528402042341,-0.888818,-0.0674846,-0.470914
1480528402058885,-0.888675,-0.0675091,-0.471027
1480528402081445,-0.888675,-0.0675091,-0.471027
1480528402102504,-0.888823,-0.0675366,-0.471035
1480528402119047,-0.888849,-0.0673777,-0.470969
1480528402142207,-0.888849,-0.0673777,-0.470969
1480528402162161,-0.88867,-0.0674572,-0.470907
1480528402186227,-0.888818,-0.0674846,-0.470914
1480528402201265,-0.888849,-0.0673777,-0.470969
1480528402222321,-0.888849,-0.0673777,-0.470969
1480528402238865,-0.8887,-0.0673502,-0.470961
1480528402261424,-0.8887,-0.0673502,-0.470961
1480528402290001,-0.8887,-0.0673502,-0.470961
1480528402299025,-0.8887,-0.0673502,-0.470961
1480528402321084,-0.889081,-0.0675483,-0.470905
1480528402342140,-0.889087,-0.0676003,-0.471026
1480528402358683,-0.889087,-0.0676003,-0.471026
1480528402381243,-0.889087,-0.0676003,-0.471026
1480528402402302,-0.889087,-0.0676003,-0.471026
1480528402418844,-0.888908,-0.0676797,-0.470964
1480528402442682,-0.888908,-0.0676797,-0.470964
1480528402462459,-0.888908,-0.0676797,-0.470964
1480528402479004,-0.888908,-0.0676797,-0.470964
1480528402501564,-0.888908,-0.0676797,-0.470964
1480528402525126,-0.888908,-0.0676797,-0.470964
1480528402538662,-0.888908,-0.0676797,-0.470964
1480528402576262,-0.888908,-0.0676797,-0.470964
1480528402583782,-0.888908,-0.0676797,-0.470964
1480528402604839,-0.888908,-0.0676797,-0.470964
1480528402621382,-0.889171,-0.0677433,-0.470955
1480528402643943,-0.889171,-0.0677433,-0.470955
1480528402658982,-0.889202,-0.0676364,-0.471009
1480528402681041,-0.889171,-0.0677433,-0.470955
1480528402703602,-0.889171,-0.0677433,-0.470955
1480528402718141,-0.889704,-0.0679226,-0.471057
1480528402748721,-0.889704,-0.0679226,-0.471057
1480528402763761,-0.888998,-0.0678748,-0.471013
1480528402778299,-0.888883,-0.0678386,-0.47103
1480528402801365,-0.889175,-0.067697,-0.471105
1480528402831445,-0.889323,-0.0677245,-0.471112
1480528402838965,-0.889323,-0.0677245,-0.471112
1480528402861525,-0.889208,-0.0676884,-0.471129
1480528402883583,-0.889177,-0.0677953,-0.471075
1480528402898123,-0.889208,-0.0676884,-0.471129
1480528402921183,-0.889208,-0.0676884,-0.471129
1480528402943743,-0.889208,-0.0676884,-0.471129
1480528402958282,-0.889029,-0.0677678,-0.471067
1480528402981344,-0.889029,-0.0677678,-0.471067
1480528403003904,-0.889177,-0.0677953,-0.471075
1480528403024959,-0.889029,-0.0677678,-0.471067
1480528403042006,-0.889029,-0.0677678,-0.471067
1480528403071082,-0.889029,-0.0677678,-0.471067
1480528403084617,-0.889029,-0.0677678,-0.471067
1480528403101162,-0.889059,-0.0676609,-0.471121
1480528403124223,-0.889119,-0.0679629,-0.471116
1480528403144778,-0.889124,-0.0680149,-0.471237
1480528403161321,-0.889119,-0.0679629,-0.471116
1480528403183882,-0.889119,-0.0679629,-0.471116
1480528403204939,-0.889119,-0.0679629,-0.471116
1480528403236524,-0.889152,-0.0679543,-0.471141
1480528403243541,-0.889157,-0.0680063,-0.471261
1480528403273622,-0.889124,-0.0680149,-0.471237
1480528403281141,-0.889119,-0.0679629,-0.471116
1480528403303701,-0.889157,-0.0680063,-0.471261
1480528403324756,-0.889009,-0.0679788,-0.471253
1480528403342303,-0.889157,-0.0680063,-0.471261
1480528403363861,-0.889152,-0.0679543,-0.471141
1480528403384916,-0.889003,-0.0679268,-0.471133
1480528403400959,-0.889687,-0.0680873,-0.471393
1480528403424021,-0.889687,-0.0680873,-0.471393
1480528403445079,-0.889687,-0.0680873,-0.471393
1480528403461119,-0.889687,-0.0680873,-0.471393
1480528403483679,-0.889693,-0.0681394,-0.471513
1480528403513759,-0.890245,-0.0681078,-0.471429
1480528403521279,-0.890245,-0.0681078,-0.471429
1480528403544066,-0.890245,-0.0681078,-0.471429
1480528403566399,-0.890245,-0.0681078,-0.471429
1480528403581440,-0.890072,-0.0682392,-0.471487
1480528403603999,-0.89022,-0.0682668,-0.471495
1480528403626058,-0.890245,-0.0681078,-0.471429
1480528403641601,-0.890245,-0.0681078,-0.471429
1480528403663658,-0.890072,-0.0682392,-0.471487
1480528403686218,-0.890072,-0.0682392,-0.471487
1480528403700757,-0.890245,-0.0681078,-0.471429
1480528403723818,-0.890097,-0.0680803,-0.471421
1480528403746379,-0.890097,-0.0680803,-0.471421
1480528403760415,-0.889509,-0.0681667,-0.471331
1480528403790997,-0.889541,-0.0681581,-0.471355
1480528403806037,-0.890282,-0.068053,-0.471603
1480528403828597,-0.890692,-0.068046,-0.471632
1480528403843638,-0.890256,-0.0682119,-0.471669
1480528403866197,-0.889402,-0.0681363,-0.471618
1480528403888757,-0.889581,-0.068057,-0.47168
1480528403903797,-0.890054,-0.0679344,-0.471787
1480528403926357,-0.890054,-0.0679344,-0.471787
1480528403947413,-0.889469,-0.0679746,-0.471847
1480528403969973,-0.8895,-0.0678677,-0.471901
1480528403986517,-0.8895,-0.0678677,-0.471901
1480528404007573,-0.8895,-0.0678677,-0.471901
1480528404023615,-0.889321,-0.067947,-0.471839
1480528404046175,-0.889321,-0.067947,-0.471839
1480528404067232,-0.889321,-0.067947,-0.471839
1480528404083776,-0.889321,-0.067947,-0.471839
1480528404106336,-0.889205,-0.0679108,-0.471856
1480528404127391,-0.889205,-0.0679108,-0.471856
1480528404143936,-0.889354,-0.0679384,-0.471863
1480528404166495,-0.889354,-0.0679384,-0.471863
1480528404187050,-0.889354,-0.0679384,-0.471863
1480528404211115,-0.889211,-0.0679628,-0.471976
1480528404232170,-0.889205,-0.0679108,-0.471856
1480528404247210,-0.889354,-0.0679384,-0.471863
1480528404263755,-0.889205,-0.0679108,-0.471856
1480528404286315,-0.889205,-0.0679108,-0.471856
1480528404307371,-0.889211,-0.0679628,-0.471976
1480528404323914,-0.889205,-0.0679108,-0.471856
1480528404346474,-0.889205,-0.0679108,-0.471856
1480528404367530,-0.889205,-0.0679108,-0.471856
1480528404383573,-0.889057,-0.0678833,-0.471848
1480528404406636,-0.889057,-0.0678833,-0.471848
1480528404427189,-0.889205,-0.0679108,-0.471856
1480528404449755,-0.889205,-0.0679108,-0.471856
1480528404472309,-0.889205,-0.0679108,-0.471856
1480528404488853,-0.889205,-0.0679108,-0.471856
1480528404503893,-0.889205,-0.0679108,-0.471856
1480528404526453,-0.889205,-0.0679108,-0.471856
1480528404548511,-0.889057,-0.0678833,-0.471848
1480528404563551,-0.889057,-0.0678833,-0.471848
1480528404586112,-0.889057,-0.0678833,-0.471848
1480528404616694,-0.889236,-0.0678039,-0.47191
1480528404624715,-0.888774,-0.0680305,-0.472044
1480528404646272,-0.888595,-0.0681098,-0.471982
1480528404668832,-0.888628,-0.0681012,-0.472006
1480528404683872,-0.888626,-0.0680029,-0.472036
1480528404706433,-0.888653,-0.0679423,-0.47194
1480528404728992,-0.888659,-0.0679943,-0.47206
1480528404743029,-0.88851,-0.0679667,-0.472053
1480528404766091,-0.888659,-0.0679943,-0.47206
1480528404788651,-0.888653,-0.0679423,-0.47194
1480528404803190,-0.888659,-0.0679943,-0.47206
1480528404826250,-0.88851,-0.0679667,-0.472053
1480528404848810,-0.888659,-0.0679943,-0.47206
1480528404871371,-0.88862,-0.0679509,-0.471916
1480528404893931,-0.88862,-0.0679509,-0.471916
1480528404908971,-0.888659,-0.0679943,-0.47206
1480528404930027,-0.888917,-0.068006,-0.471931
1480528404946069,-0.888947,-0.0678991,-0.471985
1480528404968632,-0.888947,-0.0678991,-0.471985
1480528404989685,-0.888947,-0.0678991,-0.471985
1480528405006230,-0.888947,-0.0678991,-0.471985
1480528405051858,-0.888947,-0.0678991,-0.471985
1480528405054357,-0.889063,-0.0679353,-0.471968
1480528405068398,-0.889063,-0.0679353,-0.471968
1480528405088950,-0.889063,-0.0679353,-0.471968
1480528405110006,-0.889063,-0.0679353,-0.471968
1480528405126048,-0.889063,-0.0679353,-0.471968
1480528405149109,-0.889063,-0.0679353,-0.471968
1480528405169664,-0.889063,-0.0679353,-0.471968
1480528405186208,-0.888947,-0.0678991,-0.471985
1480528405216288,-0.889096,-0.0679267,-0.471993
1480528405237346,-0.889094,-0.0678284,-0.472022
1480528405246368,-0.889094,-0.0678284,-0.472022
1480528405268930,-0.889063,-0.0679353,-0.471968
1480528405289984,-0.889096,-0.0679267,-0.471993
1480528405306027,-0.889094,-0.0678284,-0.472022
1480528405328588,-0.889088,-0.0677764,-0.471902
1480528405349644,-0.889088,-0.0677764,-0.471902
1480528405367190,-0.889126,-0.0678197,-0.472047
1480528405388747,-0.889088,-0.0677764,-0.471902
1480528405411307,-0.888819,-0.0676607,-0.471791
1480528405432362,-0.888852,-0.067652,-0.471816
1480528405456427,-0.889205,-0.0679108,-0.471856
1480528405471470,-0.889642,-0.0678432,-0.471788
1480528405486508,-0.889404,-0.0676205,-0.471731
1480528405509568,-0.888877,-0.0674931,-0.471749
1480528405531125,-0.888698,-0.0675725,-0.471688
1480528405545665,-0.889141,-0.0675568,-0.47174
1480528405568727,-0.889172,-0.0674499,-0.471795
1480528405598806,-0.888903,-0.0673342,-0.471683
1480528405605824,-0.888787,-0.067298,-0.4717
1480528405628885,-0.888787,-0.067298,-0.4717
1480528405658464,-0.888754,-0.0673066,-0.471676
1480528405666987,-0.888754,-0.0673066,-0.471676
1480528405689547,-0.888754,-0.0673066,-0.471676
1480528405711104,-0.888787,-0.067298,-0.4717
1480528405725644,-0.888787,-0.067298,-0.4717
1480528405748704,-0.888754,-0.0673066,-0.471676
1480528405771264,-0.888787,-0.067298,-0.4717
1480528405785804,-0.888639,-0.0672705,-0.471692
1480528405808865,-0.888639,-0.0672705,-0.471692
1480528405838946,-0.888639,-0.0672705,-0.471692
1480528405852984,-0.888639,-0.0672705,-0.471692
1480528405869027,-0.888639,-0.0672705,-0.471692
1480528405898603,-0.888639,-0.0672705,-0.471692
1480528405912139,-0.888639,-0.0672705,-0.471692
1480528405928683,-0.888639,-0.0672705,-0.471692
1480528405951244,-0.888639,-0.0672705,-0.471692
1480528405972300,-0.888639,-0.0672705,-0.471692
1480528405988843,-0.888639,-0.0672705,-0.471692
1480528406018925,-0.888639,-0.0672705,-0.471692
1480528406033963,-0.888639,-0.0672705,-0.471692
1480528406049003,-0.888787,-0.067298,-0.4717
1480528406071062,-0.888608,-0.0673774,-0.471638
1480528406092118,-0.888608,-0.0673774,-0.471638
1480528406108865,-0.888608,-0.0673774,-0.471638
1480528406131723,-0.888903,-0.0673342,-0.471683
1480528406152278,-0.888903,-0.0673342,-0.471683
1480528406176845,-0.888903,-0.0673342,-0.471683
1480528406191382,-0.888903,-0.0673342,-0.471683
1480528406212438,-0.888903,-0.0673342,-0.471683
1480528406228982,-0.888754,-0.0673066,-0.471676
1480528406251042,-0.888724,-0.0674136,-0.471622
1480528406272598,-0.888903,-0.0673342,-0.471683
1480528406288640,-0.888903,-0.0673342,-0.471683
1480528406311703,-0.888903,-0.0673342,-0.471683
1480528406333760,-0.888903,-0.0673342,-0.471683
1480528406349303,-0.888724,-0.0674136,-0.471622
1480528406371362,-0.888903,-0.0673342,-0.471683
1480528406393920,-0.888903,-0.0673342,-0.471683
1480528406409180,-0.888787,-0.067298,-0.4717
1480528406431019,-0.888993,-0.0675293,-0.471733
1480528406453580,-0.889583,-0.0675411,-0.471793
1480528406468120,-0.889283,-0.0675323,-0.471628
1480528406491180,-0.889135,-0.0675048,-0.47162
1480528406519757,-0.889141,-0.0675568,-0.47174
1480528406528278,-0.889141,-0.0675568,-0.47174
1480528406558859,-0.889141,-0.0675568,-0.47174
1480528406573899,-0.889289,-0.0675843,-0.471748
1480528406587937,-0.88911,-0.0676637,-0.471686
1480528406611009,-0.88911,-0.0676637,-0.471686
1480528406633559,-0.889141,-0.0675568,-0.47174
1480528406648097,-0.889289,-0.0675843,-0.471748
1480528406671157,-0.889258,-0.0676912,-0.471694
1480528406693718,-0.88911,-0.0676637,-0.471686
1480528406708257,-0.889258,-0.0676912,-0.471694
1480528406731317,-0.889258,-0.0676912,-0.471694
1480528406769921,-0.889289,-0.0675843,-0.471748
1480528406775435,-0.88911,-0.0676637,-0.471686
1480528406791478,-0.889258,-0.0676912,-0.471694
1480528406813537,-0.889225,-0.0676999,-0.471669
1480528406835096,-0.888877,-0.0674931,-0.471749
1480528406851137,-0.888877,-0.0674931,-0.471749
1480528406873697,-0.888993,-0.0675293,-0.471733
1480528406894752,-0.889141,-0.0675568,-0.47174
1480528406911297,-0.889172,-0.0674499,-0.471795
1480528406942379,-0.889141,-0.0675568,-0.47174
1480528406954913,-0.889262,-0.067645,-0.471844
1480528406971458,-0.889262,-0.067645,-0.471844
1480528406994020,-0.889262,-0.067645,-0.471844
1480528407014572,-0.889262,-0.067645,-0.471844
1480528407031116,-0.889262,-0.067645,-0.471844
1480528407054177,-0.889262,-0.067645,-0.471844
1480528407075736,-0.889115,-0.0677157,-0.471806
1480528407091275,-0.889115,-0.0677157,-0.471806
1480528407113835,-0.889115,-0.0677157,-0.471806
1480528407134893,-0.888973,-0.0677402,-0.471919
1480528407151436,-0.889121,-0.0677677,-0.471927
1480528407189537,-0.889115,-0.0677157,-0.471806
1480528407194550,-0.889083,-0.0677244,-0.471782
1480528407217110,-0.889121,-0.0677677,-0.471927
1480528407233654,-0.889121,-0.0677677,-0.471927
1480528407254710,-0.889083,-0.0677244,-0.471782
1480528407271255,-0.889088,-0.0677764,-0.471902
1480528407293815,-0.889121,-0.0677677,-0.471927
1480528407316375,-0.88909,-0.0678746,-0.471873
1480528407331915,-0.88909,-0.0678746,-0.471873
1480528407353975,-0.889121,-0.0677677,-0.471927
1480528407376032,-0.888973,-0.0677402,-0.471919
1480528407391075,-0.88842,-0.0677716,-0.472003
1480528407414134,-0.88842,-0.0677716,-0.472003
1480528407436193,-0.888563,-0.0677472,-0.471891
1480528407458753,-0.888563,-0.0677472,-0.471891
1480528407473793,-0.888569,-0.0677992,-0.472011
1480528407503874,-0.887953,-0.0679462,-0.472017
1480528407510391,-0.887805,-0.0679186,-0.472009
1480528407533953,-0.888567,-0.0677009,-0.472041
1480528407557014,-0.888567,-0.0677009,-0.472041
1480528407570551,-0.888567,-0.0677009,-0.472041
1480528407608652,-0.888567,-0.0677009,-0.472041
1480528407616172,-0.888567,-0.0677009,-0.472041
1480528407630711,-0.888567,-0.0677009,-0.472041
1480528407653772,-0.888567,-0.0677009,-0.472041
1480528407676332,-0.888567,-0.0677009,-0.472041
1480528407690369,-0.888567,-0.0677009,-0.472041
1480528407715436,-0.888715,-0.0677284,-0.472048
1480528407736492,-0.888567,-0.0677009,-0.472041
1480528407750530,-0.888567,-0.0677009,-0.472041
1480528407779607,-0.888567,-0.0677009,-0.472041
1480528407803675,-0.888597,-0.067594,-0.472095
1480528407817207,-0.888597,-0.067594,-0.472095
1480528407833750,-0.888597,-0.067594,-0.472095
1480528407856310,-0.888567,-0.0677009,-0.472041
1480528407884890,-0.888567,-0.0677009,-0.472041
1480528407893910,-0.888567,-0.0677009,-0.472041
1480528407916471,-0.888567,-0.0677009,-0.472041
1480528407937528,-0.888567,-0.0677009,-0.472041
1480528407953569,-0.888567,-0.0677009,-0.472041
1480528407976129,-0.888597,-0.067594,-0.472095
1480528407997186,-0.888597,-0.067594,-0.472095
1480528408021750,-0.888567,-0.0677009,-0.472041
1480528408036289,-0.888567,-0.0677009,-0.472041
1480528408057345,-0.888567,-0.0677009,-0.472041
1480528408073890,-0.888597,-0.067594,-0.472095
1480528408096449,-0.888597,-0.067594,-0.472095
1480528408119010,-0.888567,-0.0677009,-0.472041
1480528408134049,-0.888597,-0.067594,-0.472095
1480528408156107,-0.888597,-0.067594,-0.472095
1480528408177665,-0.888597,-0.067594,-0.472095
1480528408193708,-0.888597,-0.067594,-0.472095
1480528408223788,-0.888597,-0.067594,-0.472095
1480528408238828,-0.888597,-0.067594,-0.472095
1480528408253869,-0.888597,-0.067594,-0.472095
1480528408276427,-0.888597,-0.067594,-0.472095
1480528408298987,-0.888449,-0.0675664,-0.472087
1480528408313527,-0.888597,-0.067594,-0.472095
1480528408336087,-0.888597,-0.067594,-0.472095
1480528408358647,-0.888449,-0.0675664,-0.472087
1480528408373185,-0.888482,-0.0675578,-0.472112
1480528408396247,-0.888449,-0.0675664,-0.472087
1480528408418807,-0.888513,-0.0674508,-0.472166
1480528408432844,-0.888507,-0.0673988,-0.472046
1480528408456407,-0.88848,-0.0674595,-0.472141
1480528408478967,-0.888449,-0.0675664,-0.472087
1480528408493004,-0.888449,-0.0675664,-0.472087
1480528408516067,-0.888475,-0.0674075,-0.472021
1480528408538626,-0.888744,-0.0675232,-0.472132
1480528408553165,-0.888776,-0.0675146,-0.472157
1480528408576415,-0.888217,-0.0673957,-0.47215
1480528408606306,-0.887894,-0.0670299,-0.472164
1480528408613324,-0.887889,-0.066978,-0.472044
1480528408636385,-0.888132,-0.0672526,-0.472221
1480528408658946,-0.888132,-0.0672526,-0.472221
1480528408673484,-0.887721,-0.0671612,-0.472223
1480528408696043,-0.887721,-0.0671612,-0.472223
1480528408718605,-0.8879,-0.0670818,-0.472285
1480528408739660,-0.8879,-0.0670818,-0.472285
1480528408756204,-0.8879,-0.0670818,-0.472285
1480528408778764,-0.887931,-0.0669749,-0.472339
1480528408799820,-0.8879,-0.0670818,-0.472285
1480528408816365,-0.8879,-0.0670818,-0.472285
1480528408844941,-0.887752,-0.0670543,-0.472277
1480528408859980,-0.888488,-0.0669955,-0.472375
1480528408876023,-0.888488,-0.0669955,-0.472375
1480528408898583,-0.888463,-0.0671544,-0.472441
1480528408919639,-0.888315,-0.0671269,-0.472433
1480528408936183,-0.888309,-0.0670749,-0.472313
1480528408958742,-0.888812,-0.0667473,-0.472504
1480528408979799,-0.888812,-0.0667473,-0.472504
1480528408996343,-0.888812,-0.0667473,-0.472504
1480528409018905,-0.888844,-0.0667385,-0.472528
1480528409042465,-0.888839,-0.0666866,-0.472408
1480528409071542,-0.888839,-0.0666866,-0.472408
1480528409078562,-0.888844,-0.0667385,-0.472528
1480528409099618,-0.888844,-0.0667385,-0.472528
1480528409116161,-0.888844,-0.0667385,-0.472528
1480528409138722,-0.888812,-0.0667473,-0.472504
1480528409161282,-0.888844,-0.0667385,-0.472528
1480528409176322,-0.888844,-0.0667385,-0.472528
1480528409198882,-0.888844,-0.0667385,-0.472528
1480528409221442,-0.888844,-0.0667385,-0.472528
1480528409235980,-0.888844,-0.0667385,-0.472528
1480528409266061,-0.888016,-0.0665039,-0.472411
1480528409281101,-0.888164,-0.0665314,-0.472418
1480528409296141,-0.888164,-0.0665314,-0.472418
1480528409318701,-0.888133,-0.0666384,-0.472364
1480528409342775,-0.887581,-0.0666697,-0.472448
1480528409355799,-0.88755,-0.0667766,-0.472394
1480528409379362,-0.887581,-0.0666697,-0.472448
1480528409401923,-0.887581,-0.0666697,-0.472448
1480528409415460,-0.887581,-0.0666697,-0.472448
1480528409438519,-0.88755,-0.0667766,-0.472394
1480528409461079,-0.88755,-0.0667766,-0.472394
1480528409475619,-0.887581,-0.0666697,-0.472448
1480528409506201,-0.887581,-0.0666697,-0.472448
1480528409521239,-0.886956,-0.0668111,-0.472184
1480528409549815,-0.885858,-0.0666059,-0.471775
1480528409558839,-0.885385,-0.0662592,-0.471631
1480528409581400,-0.885385,-0.0662592,-0.471631
1480528409595436,-0.885385,-0.0662592,-0.471631
1480528409624513,-0.88477,-0.0664064,-0.471637
1480528409642060,-0.88477,-0.0664064,-0.471637
1480528409663620,-0.885359,-0.0664181,-0.471698
1480528409685682,-0.885768,-0.0664109,-0.471726
1480528409687180,-0.885768,-0.0664109,-0.471726
1480528409706733,-0.885768,-0.0664109,-0.471726
1480528409724780,-0.885738,-0.0665179,-0.471672
1480528409744332,-0.885738,-0.0665179,-0.471672
1480528409766392,-0.885738,-0.0665179,-0.471672
1480528409788952,-0.885738,-0.0665179,-0.471672
1480528409803991,-0.885738,-0.0665179,-0.471672
1480528409829560,-0.885738,-0.0665179,-0.471672
1480528409852120,-0.885738,-0.0665179,-0.471672
1480528409864151,-0.885738,-0.0665179,-0.471672
1480528409886712,-0.885738,-0.0665179,-0.471672
1480528409909271,-0.885738,-0.0665179,-0.471672
1480528409924311,-0.885738,-0.0665179,-0.471672
1480528409962913,-0.885768,-0.0664109,-0.471726
1480528409969431,-0.885738,-0.0665179,-0.471672
1480528409991489,-0.885738,-0.0665179,-0.471672
1480528410006531,-0.885738,-0.0665179,-0.471672
1480528410029089,-0.885738,-0.0665179,-0.471672
1480528410044129,-0.885738,-0.0665179,-0.471672
1480528410070200,-0.885738,-0.0665179,-0.471672
1480528410097772,-0.885738,-0.0665179,-0.471672
1480528410104290,-0.885738,-0.0665179,-0.471672
1480528410126349,-0.885738,-0.0665179,-0.471672
1480528410148909,-0.885738,-0.0665179,-0.471672
1480528410166957,-0.885886,-0.0665454,-0.47168
1480528410186510,-0.885886,-0.0665454,-0.47168
1480528410212578,-0.885738,-0.0665179,-0.471672
1480528410224109,-0.886091,-0.0667766,-0.471712
1480528410246668,-0.886091,-0.0667766,-0.471712
1480528410270733,-0.886091,-0.0667766,-0.471712
1480528410284271,-0.886091,-0.0667766,-0.471712
1480528410306830,-0.886091,-0.0667766,-0.471712
1480528410338913,-0.88606,-0.0668836,-0.471658
1480528410343927,-0.88606,-0.0668836,-0.471658
1480528410374008,-0.886091,-0.0667766,-0.471712
1480528410389047,-0.886091,-0.0667766,-0.471712
1480528410404087,-0.88606,-0.0668836,-0.471658
1480528410426648,-0.886239,-0.0668041,-0.47172
1480528410452215,-0.886239,-0.0668041,-0.47172
1480528410464249,-0.886239,-0.0668041,-0.47172
1480528410486808,-0.88606,-0.0668836,-0.471658
1480528410510370,-0.886091,-0.0667766,-0.471712
1480528410525410,-0.886239,-0.0668041,-0.47172
1480528410546466,-0.886533,-0.0667608,-0.471765
1480528410569026,-0.886385,-0.0667333,-0.471757
1480528410585580,-0.88639,-0.0667852,-0.471878
1480528410614146,-0.886533,-0.0667608,-0.471765
1480528410632195,-0.886563,-0.0666538,-0.471819
1480528410651749,-0.886563,-0.0666538,-0.471819
1480528410666786,-0.886533,-0.0667608,-0.471765
1480528410689347,-0.886533,-0.0667608,-0.471765
1480528410705399,-0.8865,-0.0667695,-0.471741
1480528410726445,-0.8865,-0.0667695,-0.471741
1480528410749005,-0.886538,-0.0668127,-0.471885
1480528410773072,-0.886538,-0.0668127,-0.471885
1480528410789614,-0.886538,-0.0668127,-0.471885
1480528410809164,-0.886563,-0.0666538,-0.471819
1480528410827214,-0.886563,-0.0666538,-0.471819
1480528410846766,-0.886533,-0.0667608,-0.471765
1480528410869325,-0.886533,-0.0667608,-0.471765
1480528410885367,-0.8865,-0.0667695,-0.471741
1480528410906430,-0.8865,-0.0667695,-0.471741
1480528410928983,-0.886533,-0.0667608,-0.471765
1480528410945528,-0.886533,-0.0667608,-0.471765
1480528410966584,-0.886563,-0.0666538,-0.471819
1480528410989144,-0.886563,-0.0666538,-0.471819
1480528411005688,-0.886248,-0.0668095,-0.47199
1480528411026744,-0.885544,-0.0668598,-0.471917
1480528411049304,-0.884666,-0.0669431,-0.471932
1480528411067355,-0.884845,-0.0668636,-0.471994
1480528411086402,-0.885057,-0.067245,-0.472118
1480528411108962,-0.885027,-0.067352,-0.472064
1480528411133026,-0.885951,-0.0676884,-0.47253
1480528411146562,-0.886093,-0.0676641,-0.472418
1480528411169122,-0.885629,-0.0673225,-0.472544
1480528411187170,-0.885665,-0.0672673,-0.472718
1480528411208226,-0.88608,-0.0673122,-0.472867
1480528411229282,-0.88608,-0.0673122,-0.472867
1480528411254362,-0.88619,-0.0672967,-0.47273
1480528411274404,-0.886668,-0.067226,-0.472957
1480528411288941,-0.887113,-0.0677784,-0.473017
1480528411311501,-0.887522,-0.0677716,-0.473045
1480528411326541,-0.888105,-0.0676335,-0.473015
1480528411349101,-0.888136,-0.0675266,-0.473069
1480528411380685,-0.88852,-0.0676787,-0.473163
1480528411386701,-0.889111,-0.0681606,-0.47326
1480528411416781,-0.889908,-0.0684044,-0.473353
1480528411431821,-0.890466,-0.0684254,-0.473389
1480528411446360,-0.890766,-0.0684346,-0.473554
1480528411468919,-0.890617,-0.068407,-0.473547
1480528411491480,-0.890676,-0.0682394,-0.473505
1480528411506521,-0.890082,-0.0676591,-0.473438
1480528411529079,-0.889401,-0.0669818,-0.473292
1480528411551642,-0.888605,-0.0667381,-0.473198
1480528411568184,-0.888218,-0.0671019,-0.47299
1480528411590744,-0.887805,-0.0676246,-0.472849
1480528411621827,-0.887183,-0.0678642,-0.472555
1480528411626840,-0.886793,-0.0676604,-0.472341
1480528411656418,-0.885908,-0.0669026,-0.471501
1480528411671459,-0.884738,-0.0654057,-0.470151
1480528411688003,-0.884227,-0.0633932,-0.468543
1480528411709058,-0.882801,-0.0616681,-0.466596
1480528411731618,-0.880406,-0.0597397,-0.464641
1480528411748163,-0.879574,-0.0584525,-0.462942
1480528411769220,-0.881947,-0.056345,-0.460513
1480528411791778,-0.885686,-0.0533886,-0.457343
1480528411808824,-0.885769,-0.0521565,-0.455277
1480528411828878,-0.883633,-0.0517495,-0.453752
1480528411851438,-0.882396,-0.0516581,-0.45189
1480528411883022,-0.882291,-0.0513871,-0.449924
1480528411889038,-0.881899,-0.0512148,-0.44803
1480528411911598,-0.881128,-0.0508499,-0.446191
1480528411934158,-0.880262,-0.0502418,-0.444184
1480528411949198,-0.878914,-0.0500271,-0.442372
1480528411971757,-0.877975,-0.0501172,-0.441283
1480528411987800,-0.876019,-0.0503789,-0.440168
1480528412011864,-0.873541,-0.050839,-0.439762
1480528412031416,-0.872262,-0.0509504,-0.439744
1480528412049464,-0.872268,-0.0510014,-0.439863
1480528412071021,-0.872102,-0.0511857,-0.44004
1480528412091576,-0.871054,-0.0518267,-0.440504
1480528412109624,-0.871107,-0.052291,-0.441105
1480528412129177,-0.871374,-0.0527157,-0.44191
1480528412151736,-0.871529,-0.0530582,-0.442879
1480528412174296,-0.872739,-0.0536433,-0.444086
1480528412191843,-0.873891,-0.0541303,-0.444493
1480528412220419,-0.873359,-0.0548865,-0.444674
1480528412229442,-0.872721,-0.0554156,-0.445469
1480528412248995,-0.874047,-0.0561849,-0.44648
1480528412279075,-0.875039,-0.0574729,-0.446924
1480528412289604,-0.876367,-0.0584925,-0.446981
1480528412310660,-0.876883,-0.0593427,-0.447308
1480528412331715,-0.878207,-0.0597476,-0.447505
1480528412355278,-0.878722,-0.0606462,-0.447682
1480528412369315,-0.879564,-0.0614419,-0.448077
1480528412391373,-0.880929,-0.0622599,-0.448484
1480528412409421,-0.882529,-0.06283,-0.448909
1480528412428973,-0.882995,-0.0634846,-0.449478
1480528412454542,-0.882711,-0.0643696,-0.450284
1480528412469581,-0.883069,-0.0649942,-0.451138
1480528412489134,-0.883728,-0.0652586,-0.451612
1480528412511693,-0.883404,-0.0657309,-0.452208
1480528412529743,-0.882974,-0.0661253,-0.45324
1480528412556813,-0.883247,-0.0665613,-0.454314
1480528412571353,-0.883839,-0.0667928,-0.455367
1480528412604440,-0.883588,-0.067059,-0.45661
1480528412609168,-0.88293,-0.0673354,-0.457826
1480528412633023,-0.883194,-0.0676686,-0.458661
1480528412649560,-0.883545,-0.0677276,-0.459509
1480528412670617,-0.884159,-0.0677031,-0.460526
1480528412693178,-0.884529,-0.0678712,-0.461884
1480528412709722,-0.884849,-0.0679397,-0.462708
1480528412730776,-0.885292,-0.0681945,-0.463606
1480528412751833,-0.885763,-0.068244,-0.464587
1480528412776899,-0.886346,-0.0683764,-0.465403
1480528412790435,-0.887389,-0.0683283,-0.465934
1480528412811491,-0.887873,-0.0681632,-0.46646
1480528412834056,-0.888287,-0.0682069,-0.466609
1480528412852099,-0.889059,-0.0680913,-0.46688
1480528412874659,-0.890087,-0.0678884,-0.467053
1480528412894212,-0.890407,-0.0676855,-0.467032
1480528412910759,-0.890437,-0.0675786,-0.467086
1480528412939342,-0.889706,-0.0676911,-0.467108
1480528412953870,-0.888601,-0.0677567,-0.467277
1480528412971918,-0.887697,-0.0680008,-0.467358
1480528412991971,-0.886846,-0.0680255,-0.467277
1480528413014030,-0.886114,-0.0676687,-0.467263
1480528413032079,-0.885058,-0.0673177,-0.46733
1480528413051631,-0.884269,-0.0671284,-0.467357
1480528413074190,-0.884269,-0.0671284,-0.467357
1480528413092238,-0.884643,-0.0669788,-0.46802
1480528413114297,-0.885972,-0.0667374,-0.468506
1480528413141369,-0.886808,-0.0663615,-0.469036
1480528413151897,-0.886794,-0.0660098,-0.469485
1480528413171448,-0.886794,-0.0660098,-0.469485
1480528413194008,-0.886794,-0.0660098,-0.469485
1480528413218072,-0.886825,-0.0659027,-0.469539
1480528413234619,-0.885912,-0.0661407,-0.46935
1480528413255673,-0.884651,-0.0666884,-0.469129
1480528413272216,-0.883624,-0.0668908,-0.468957
1480528413291768,-0.882531,-0.0672561,-0.468559
1480528413314328,-0.881914,-0.067451,-0.468416
1480528413331876,-0.881037,-0.0676816,-0.468253
1480528413352932,-0.879569,-0.0678028,-0.468061
1480528413373987,-0.879247,-0.0674379,-0.468075
1480528413392536,-0.879246,-0.0668229,-0.468214
1480528413411588,-0.879131,-0.0667871,-0.468231
1480528413434148,-0.879131,-0.0667871,-0.468231
1480528413458211,-0.879131,-0.0667871,-0.468231
1480528413471747,-0.879131,-0.0667871,-0.468231
1480528413495310,-0.878707,-0.066641,-0.467843
1480528413511854,-0.877764,-0.0664202,-0.467593
1480528413531406,-0.876673,-0.0661725,-0.467336
1480528413561486,-0.876405,-0.0660581,-0.467225
1480528413572015,-0.875917,-0.0664911,-0.467278
1480528413593070,-0.87574,-0.0665712,-0.467217
1480528413614126,-0.876068,-0.0664709,-0.467435
1480528413632174,-0.876784,-0.0659571,-0.468007
1480528413653232,-0.877445,-0.0650946,-0.468733
1480528413674287,-0.878302,-0.06399,-0.469184
1480528413691833,-0.879944,-0.0635922,-0.469498
1480528413712888,-0.882616,-0.0630913,-0.469957
1480528413733945,-0.882731,-0.0631274,-0.469941
1480528413751993,-0.880568,-0.0628342,-0.469903
1480528413774553,-0.877985,-0.0629627,-0.469486
1480528413794104,-0.876455,-0.0634443,-0.469006
1480528413819673,-0.875219,-0.0638826,-0.468571
1480528413839235,-0.873959,-0.0638647,-0.468343
1480528413854265,-0.874083,-0.0639041,-0.468597
1480528413871812,-0.875228,-0.0638862,-0.468841
1480528413892867,-0.875228,-0.0638862,-0.468841
1480528413921444,-0.876062,-0.0631912,-0.46867
1480528413931972,-0.874705,-0.0631446,-0.468998
1480528413954532,-0.87459,-0.0631086,-0.469015
1480528413974083,-0.875329,-0.063568,-0.469271
1480528413992132,-0.876718,-0.0638239,-0.469695
1480528414014692,-0.876565,-0.0637453,-0.469567
1480528414034243,-0.876423,-0.0637692,-0.469679
1480528414057806,-0.876455,-0.0637605,-0.469704
1480528414074351,-0.877242,-0.0639507,-0.469677
1480528414093901,-0.878038,-0.0641449,-0.46992
1480528414119470,-0.878133,-0.0643909,-0.47009
1480528414134511,-0.878133,-0.0643909,-0.47009
1480528414161582,-0.877987,-0.0644621,-0.470053
1480528414172110,-0.878018,-0.0643549,-0.470107
1480528414202190,-0.878406,-0.0645572,-0.470322
1480528414221743,-0.879229,-0.0646918,-0.470469
1480528414236782,-0.879229,-0.0646918,-0.470469
1480528414259342,-0.879229,-0.0646918,-0.470469
1480528414273881,-0.87949,-0.0646568,-0.470489
1480528414296441,-0.880026,-0.0648867,-0.470712
1480528414314488,-0.879911,-0.0648506,-0.470729
1480528414334041,-0.879506,-0.0648111,-0.47085
1480528414359609,-0.879359,-0.0647837,-0.470843
1480528414380669,-0.879769,-0.0648747,-0.470841
1480528414397209,-0.87959,-0.0649544,-0.47078
1480528414416764,-0.879274,-0.0652552,-0.470773
1480528414434812,-0.878545,-0.0653665,-0.470797
1480528414453862,-0.877139,-0.065272,-0.470711
1480528414476420,-0.874487,-0.0653593,-0.47061
1480528414494468,-0.87178,-0.0656143,-0.470554
1480528414514019,-0.870391,-0.0657212,-0.470683
1480528414536580,-0.869599,-0.0653808,-0.470619
1480528414554628,-0.869163,-0.0651946,-0.471376
1480528414575684,-0.869974,-0.0649255,-0.472118
1480528414604264,-0.870398,-0.0644552,-0.472644
1480528414614287,-0.870862,-0.0644965,-0.473357
1480528414635343,-0.871408,-0.0641141,-0.473988
1480528414656398,-0.871924,-0.063938,-0.474537
1480528414674448,-0.872173,-0.0635485,-0.475004
1480528414695503,-0.872198,-0.0633902,-0.474936
1480528414716562,-0.871854,-0.0631824,-0.475016
1480528414743129,-0.87084,-0.0633865,-0.475117
1480528414755663,-0.870693,-0.0633588,-0.475109
1480528414776719,-0.870662,-0.0634662,-0.475056
1480528414794766,-0.870662,-0.0634662,-0.475056
1480528414815321,-0.870662,-0.0634662,-0.475056
1480528414836379,-0.870667,-0.0635171,-0.475176
1480528414854425,-0.870667,-0.0635171,-0.475176
1480528414884506,-0.87175,-0.0637171,-0.475314
1480528414896548,-0.872366,-0.0635234,-0.475456
1480528414915088,-0.872366,-0.0635234,-0.475456
1480528414937145,-0.872367,-0.0640911,-0.475467
1480528414956698,-0.872807,-0.0640756,-0.475519
1480528414974746,-0.872807,-0.0640756,-0.475519
1480528414996803,-0.872807,-0.0640756,-0.475519
1480528415016862,-0.873314,-0.0643659,-0.475838
1480528415034404,-0.873911,-0.064382,-0.476169
1480528415061475,-0.873911,-0.064382,-0.476169
1480528415076516,-0.873911,-0.064382,-0.476169
1480528415094563,-0.873911,-0.064382,-0.476169
1480528415117125,-0.874287,-0.0644827,-0.476143
1480528415136681,-0.874527,-0.0640902,-0.47634
1480528415162243,-0.874705,-0.0640107,-0.476401
1480528415176784,-0.874705,-0.0640107,-0.476401
1480528415197838,-0.874527,-0.0640902,-0.47634
1480528415214384,-0.874978,-0.0641773,-0.476633
1480528415242959,-0.875559,-0.0640403,-0.476602
1480528415256494,-0.875559,-0.0640403,-0.476602
1480528415274544,-0.87538,-0.0641197,-0.47654
1480528415297604,-0.876088,-0.0642201,-0.476704
1480528415316658,-0.876936,-0.0641987,-0.476784
1480528415339214,-0.87749,-0.0641218,-0.476849
1480528415357263,-0.877459,-0.0642289,-0.476795
1480528415376815,-0.877732,-0.0643959,-0.477028
1480528415394361,-0.877732,-0.0643959,-0.477028
1480528415416924,-0.877879,-0.0644237,-0.477035
1480528415436474,-0.877323,-0.0643038,-0.477029
1480528415454522,-0.877328,-0.0643551,-0.477149
1480528415477082,-0.878031,-0.0644045,-0.477193
1480528415498139,-0.877998,-0.0644133,-0.477168
1480528415514681,-0.87769,-0.0641493,-0.477422
1480528415537242,-0.87769,-0.0641493,-0.477422
1480528415557796,-0.877893,-0.064381,-0.477456
1480528415574344,-0.878455,-0.0644541,-0.477612
1480528415596900,-0.878449,-0.0644027,-0.477491
1480528415617956,-0.878449,-0.0644027,-0.477491
1480528415634500,-0.878423,-0.0645612,-0.477558
1480528415657060,-0.878423,-0.0645612,-0.477558
1480528415678116,-0.878455,-0.0644541,-0.477612
1480528415699174,-0.878455,-0.0644541,-0.477612
1480528415724239,-0.878309,-0.0645246,-0.477575
1480528415737775,-0.878309,-0.0645246,-0.477575
1480528415758830,-0.878309,-0.0645246,-0.477575
1480528415784399,-0.878456,-0.0645524,-0.477583
1480528415797936,-0.878309,-0.0645246,-0.477575
1480528415818991,-0.878309,-0.0645246,-0.477575
1480528415837040,-0.878309,-0.0645246,-0.477575
1480528415867119,-0.878309,-0.0645246,-0.477575
1480528415886672,-0.878423,-0.0645612,-0.477558
1480528415897215,-0.878309,-0.0645246,-0.477575
1480528415919257,-0.878512,-0.0647563,-0.477608
1480528415941317,-0.87866,-0.0647841,-0.477616
1480528415956858,-0.877873,-0.0645908,-0.477643
1480528415979418,-0.877873,-0.0645908,-0.477643
1480528415998969,-0.877962,-0.0647859,-0.477693
1480528416017020,-0.878749,-0.0649793,-0.477666
1480528416039578,-0.87864,-0.064994,-0.477804
1480528416060633,-0.878492,-0.0649662,-0.477796
1480528416077179,-0.878461,-0.0650733,-0.477742
1480528416107258,-0.878313,-0.0650455,-0.477734
1480528416119290,-0.878461,-0.0650733,-0.477742
1480528416136836,-0.878492,-0.0649662,-0.477796
1480528416159396,-0.878313,-0.0650455,-0.477734
1480528416181959,-0.878346,-0.0650367,-0.477759
1480528416212036,-0.878313,-0.0650455,-0.477734
1480528416219557,-0.878461,-0.0650733,-0.477742
1480528416239108,-0.878791,-0.0649749,-0.477961
1480528416257658,-0.879316,-0.0651039,-0.477943
1480528416279216,-0.879316,-0.0651039,-0.477943
1480528416299270,-0.878476,-0.0651291,-0.478133
1480528416316817,-0.879216,-0.0651232,-0.478351
1480528416345391,-0.879536,-0.06549,-0.478338
1480528416358927,-0.879536,-0.06549,-0.478338
1480528416381488,-0.879536,-0.06549,-0.478338
1480528416413071,-0.879536,-0.06549,-0.478338
1480528416419087,-0.879536,-0.06549,-0.478338
1480528416437135,-0.878855,-0.0658964,-0.478088
1480528416459694,-0.878855,-0.0658964,-0.478088
1480528416480250,-0.879034,-0.0658171,-0.47815
1480528416496794,-0.878886,-0.0657893,-0.478142
1480528416519855,-0.878154,-0.065945,-0.478016
1480528416540410,-0.877305,-0.0659658,-0.477936
1480528416562970,-0.876943,-0.0656037,-0.477654
1480528416579513,-0.876943,-0.0656037,-0.477654
1480528416600070,-0.876943,-0.0656037,-0.477654
1480528416616125,-0.876294,-0.0659035,-0.477458
1480528416638672,-0.875562,-0.0660596,-0.477333
1480528416659727,-0.875562,-0.0660596,-0.477333
1480528416676274,-0.875562,-0.0660596,-0.477333
1480528416698832,-0.875531,-0.0661668,-0.477279
1480528416721391,-0.874945,-0.0662525,-0.477191
1480528416735429,-0.874945,-0.0662525,-0.477191
1480528416765008,-0.874945,-0.0662525,-0.477191
1480528416781051,-0.874976,-0.0661453,-0.477244
1480528416795589,-0.87381,-0.0663679,-0.477189
1480528416824666,-0.87381,-0.0663679,-0.477189
1480528416842713,-0.873924,-0.0664044,-0.477172
1480528416862265,-0.873988,-0.0662885,-0.47725
1480528416878810,-0.87381,-0.0663679,-0.477189
1480528416901370,-0.87381,-0.0663679,-0.477189
1480528416922426,-0.873957,-0.0663958,-0.477197
1480528416938469,-0.873841,-0.0662607,-0.477242
1480528416961028,-0.874108,-0.0663762,-0.477354
1480528416982086,-0.87393,-0.0664556,-0.477293
1480528416999133,-0.874077,-0.0664834,-0.4773
1480528417028709,-0.874077,-0.0664834,-0.4773
1480528417035727,-0.874077,-0.0664834,-0.4773
1480528417059289,-0.874077,-0.0664834,-0.4773
1480528417081350,-0.874046,-0.0665907,-0.477247
1480528417096389,-0.874044,-0.0664921,-0.477276
1480528417118447,-0.874077,-0.0664834,-0.4773
1480528417142011,-0.874077,-0.0664834,-0.4773
1480528417169585,-0.874077,-0.0664834,-0.4773
1480528417178607,-0.874077,-0.0664834,-0.4773
1480528417207184,-0.874077,-0.0664834,-0.4773
1480528417222223,-0.874077,-0.0664834,-0.4773
1480528417238767,-0.874077,-0.0664834,-0.4773
1480528417261327,-0.874046,-0.0665907,-0.477247
1480528417282387,-0.874044,-0.0664921,-0.477276
1480528417298929,-0.874191,-0.0665199,-0.477283
1480528417320986,-0.874044,-0.0664921,-0.477276
1480528417342309,-0.874018,-0.0666505,-0.477343
1480528417358587,-0.87416,-0.0666272,-0.47723
1480528417381146,-0.87416,-0.0666272,-0.47723
1480528417409793,-0.874166,-0.0666783,-0.477351
1480528417418747,-0.874051,-0.0666418,-0.477368
1480528417447322,-0.874051,-0.0666418,-0.477368
1480528417462362,-0.874191,-0.0665199,-0.477283
1480528417478906,-0.874191,-0.0665199,-0.477283
1480528417500964,-0.874051,-0.0666418,-0.477368
1480528417522020,-0.874051,-0.0666418,-0.477368
1480528417538565,-0.874166,-0.0666783,-0.477351
1480528417561126,-0.874166,-0.0666783,-0.477351
1480528417582182,-0.874166,-0.0666783,-0.477351
1480528417598725,-0.874166,-0.0666783,-0.477351
1480528417620784,-0.874166,-0.0666783,-0.477351
1480528417642352,-0.874166,-0.0666783,-0.477351
1480528417658884,-0.874166,-0.0666783,-0.477351
1480528417681445,-0.874166,-0.0666783,-0.477351
1480528417702501,-0.874135,-0.0667856,-0.477297
1480528417726063,-0.874166,-0.0666783,-0.477351
1480528417742310,-0.874166,-0.0666783,-0.477351
1480528417763663,-0.874018,-0.0666505,-0.477343
1480528417778704,-0.874166,-0.0666783,-0.477351
1480528417801264,-0.874166,-0.0666783,-0.477351
1480528417824326,-0.874166,-0.0666783,-0.477351
1480528417837861,-0.874166,-0.0666783,-0.477351
1480528417861423,-0.874166,-0.0666783,-0.477351
1480528417883482,-0.874166,-0.0666783,-0.477351
1480528417898021,-0.874166,-0.0666783,-0.477351
1480528417921083,-0.874166,-0.0666783,-0.477351
1480528417943642,-0.874166,-0.0666783,-0.477351
1480528417958181,-0.874135,-0.0667856,-0.477297
1480528417981245,-0.873931,-0.0665542,-0.477264
1480528418003804,-0.873898,-0.0665628,-0.477239
1480528418017840,-0.873898,-0.0665628,-0.477239
1480528418042519,-0.873931,-0.0665542,-0.477264
1480528418063461,-0.873867,-0.06667,-0.477186
1480528418077999,-0.874046,-0.0665907,-0.477247
1480528418108581,-0.874046,-0.0665907,-0.477247
1480528418123621,-0.873898,-0.0665628,-0.477239
1480528418153701,-0.873867,-0.06667,-0.477186
1480528418161221,-0.873664,-0.0664387,-0.477153
1480528418183782,-0.873664,-0.0664387,-0.477153
1480528418204837,-0.874217,-0.0663615,-0.477216
1480528418221381,-0.874186,-0.0664688,-0.477163
1480528418243440,-0.87392,-0.0664519,-0.477022
1480528418264497,-0.873511,-0.0663597,-0.477024
1480528418281542,-0.873511,-0.0663597,-0.477024
1480528418303600,-0.873511,-0.0663597,-0.477024
1480528418324655,-0.87325,-0.0662953,-0.477033
1480528418342202,-0.872899,-0.0660361,-0.476992
1480528418363799,-0.873013,-0.0660726,-0.476975
1480528418384819,-0.873013,-0.0660726,-0.476975
1480528418401360,-0.873046,-0.066064,-0.477
1480528418423920,-0.872868,-0.0661434,-0.476939
1480528418451995,-0.873013,-0.0660726,-0.476975
1480528418461018,-0.872899,-0.0660361,-0.476992
1480528418483582,-0.872868,-0.0661434,-0.476939
1480528418504634,-0.873015,-0.0661713,-0.476947
1480528418521179,-0.872982,-0.0661799,-0.476922
1480528418543739,-0.872428,-0.0661585,-0.476887
1480528418565803,-0.872612,-0.0661302,-0.477069
1480528418581339,-0.872612,-0.0661302,-0.477069
1480528418604400,-0.872387,-0.0660096,-0.477253
1480528418625456,-0.872354,-0.0660183,-0.477228
1480528418642230,-0.872354,-0.0660183,-0.477228
1480528418663557,-0.872209,-0.066089,-0.477192
1480528418686118,-0.872209,-0.066089,-0.477192
1480528418707173,-0.872323,-0.0661255,-0.477175
1480528418723718,-0.872354,-0.0660183,-0.477228
1480528418746779,-0.87224,-0.0659818,-0.477245
1480528418761317,-0.872209,-0.066089,-0.477192
1480528418783879,-0.872209,-0.066089,-0.477192
1480528418806438,-0.872323,-0.0661255,-0.477175
1480528418820475,-0.872323,-0.0661255,-0.477175
1480528418843536,-0.872323,-0.0661255,-0.477175
1480528418873616,-0.872323,-0.0661255,-0.477175
1480528418880635,-0.87247,-0.0661534,-0.477182
1480528418904197,-0.87247,-0.0661534,-0.477182
1480528418926255,-0.872323,-0.0661255,-0.477175
1480528418941297,-0.872323,-0.0661255,-0.477175
1480528418963856,-0.872323,-0.0661255,-0.477175
1480528418985915,-0.87247,-0.0661534,-0.477182
1480528419000456,-0.871922,-0.066183,-0.477269
1480528419023515,-0.871774,-0.0661552,-0.477261
1480528419046075,-0.872181,-0.0661488,-0.477288
1480528419060613,-0.872354,-0.0660183,-0.477228
1480528419083676,-0.872354,-0.0660183,-0.477228
1480528419105734,-0.872176,-0.0660977,-0.477167
1480528419120274,-0.872176,-0.0660977,-0.477167
1480528419151356,-0.872354,-0.0660183,-0.477228
1480528419166396,-0.872354,-0.0660183,-0.477228
1480528419187453,-0.872176,-0.0660977,-0.477167
1480528419203493,-0.872176,-0.0660977,-0.477167
1480528419232071,-0.872323,-0.0661255,-0.477175
1480528419247110,-0.873087,-0.0659603,-0.477324
1480528419263654,-0.873087,-0.0659603,-0.477324
1480528419286214,-0.873616,-0.0661402,-0.477426
1480528419307270,-0.873616,-0.0661402,-0.477426
1480528419323814,-0.873725,-0.0661256,-0.477288
1480528419345872,-0.873577,-0.0660977,-0.47728
1480528419367430,-0.873616,-0.0661402,-0.477426
1480528419383475,-0.873583,-0.0661488,-0.477401
1480528419406033,-0.87373,-0.0661767,-0.477409
1480528419427089,-0.873725,-0.0661256,-0.477288
1480528419443632,-0.87373,-0.0661767,-0.477409
1480528419466193,-0.87373,-0.0661767,-0.477409
1480528419494768,-0.87373,-0.0661767,-0.477409
1480528419503792,-0.873872,-0.0661534,-0.477296
1480528419532369,-0.873903,-0.0660462,-0.477349
1480528419547408,-0.873872,-0.0661534,-0.477296
1480528419563451,-0.873877,-0.0662046,-0.477417
1480528419586015,-0.873877,-0.0662046,-0.477417
1480528419607067,-0.873877,-0.0662046,-0.477417
1480528419623611,-0.872934,-0.0658814,-0.477195
1480528419646171,-0.872171,-0.0655776,-0.477006
1480528419674747,-0.87191,-0.0655132,-0.477015
1480528419683771,-0.871904,-0.0654622,-0.476895
1480528419706332,-0.872018,-0.0654987,-0.476878
1480528419728891,-0.871653,-0.065969,-0.477186
1480528419742928,-0.872016,-0.0664289,-0.47744
1480528419765991,-0.872537,-0.066459,-0.47745
1480528419788550,-0.87257,-0.0664504,-0.477475
1480528419809606,-0.87257,-0.0664504,-0.477475
1480528419826150,-0.872684,-0.0664869,-0.477458
1480528419848713,-0.872684,-0.0664869,-0.477458
1480528419862747,-0.872684,-0.0664869,-0.477458
1480528419886310,-0.872684,-0.0664869,-0.477458
1480528419909117,-0.872684,-0.0664869,-0.477458
1480528419922907,-0.872684,-0.0664869,-0.477458
1480528419946470,-0.872832,-0.0665148,-0.477465
1480528419968528,-0.872832,-0.0665148,-0.477465
1480528419983067,-0.872832,-0.0665148,-0.477465
1480528420006130,-0.872832,-0.0665148,-0.477465
1480528420028688,-0.872946,-0.0665513,-0.477448
1480528420051249,-0.872946,-0.0665513,-0.477448
1480528420066289,-0.872979,-0.0665427,-0.477473
1480528420088849,-0.872946,-0.0665513,-0.477448
1480528420109403,-0.872946,-0.0665513,-0.477448
1480528420126448,-0.872946,-0.0665513,-0.477448
1480528420149014,-0.872946,-0.0665513,-0.477448
1480528420169563,-0.873093,-0.0665792,-0.477456
1480528420186108,-0.873062,-0.0666864,-0.477403
1480528420208667,-0.873093,-0.0665792,-0.477456
1480528420229222,-0.873093,-0.0665792,-0.477456
1480528420246267,-0.873062,-0.0666864,-0.477403
1480528420268828,-0.873062,-0.0666864,-0.477403
1480528420289883,-0.873617,-0.0667079,-0.477437
1480528420305926,-0.873617,-0.0667079,-0.477437
1480528420328487,-0.873617,-0.0667079,-0.477437
1480528420349544,-0.873469,-0.0666801,-0.477429
1480528420366088,-0.873962,-0.0669161,-0.477357
1480528420388646,-0.873962,-0.0669161,-0.477357
1480528420409702,-0.87414,-0.0668367,-0.477418
1480528420426747,-0.873842,-0.0668284,-0.477253
1480528420448808,-0.873262,-0.0669653,-0.477287
1480528420477382,-0.872759,-0.0671949,-0.477128
1480528420486406,-0.872405,-0.0669833,-0.476938
1480528420515985,-0.871642,-0.0671487,-0.47679
1480528420530022,-0.871026,-0.067342,-0.476649
1480528420546066,-0.870759,-0.0672268,-0.476538
1480528420568625,-0.870759,-0.0672268,-0.476538
1480528420591185,-0.870906,-0.0672546,-0.476545
1480528420613746,-0.870875,-0.067362,-0.476492
1480528420628785,-0.870442,-0.067527,-0.476534
1480528420651345,-0.87041,-0.0675355,-0.476509
1480528420665883,-0.870588,-0.067456,-0.47657
1480528420688443,-0.870557,-0.0675634,-0.476516
1480528420718530,-0.870557,-0.0675634,-0.476516
1480528420725542,-0.870557,-0.0675634,-0.476516
1480528420749106,-0.870557,-0.0675634,-0.476516
1480528420771665,-0.870557,-0.0675634,-0.476516
1480528420785712,-0.870557,-0.0675634,-0.476516
1480528420808763,-0.870557,-0.0675634,-0.476516
1480528420831324,-0.870735,-0.0674839,-0.476577
1480528420845361,-0.870702,-0.0674924,-0.476552
1480528420868423,-0.870671,-0.0675998,-0.476499
1480528420890982,-0.870671,-0.0675998,-0.476499
1480528420905521,-0.870818,-0.0676276,-0.476507
1480528420928582,-0.870818,-0.0676276,-0.476507
1480528420951144,-0.870818,-0.0676276,-0.476507
1480528420965681,-0.870818,-0.0676276,-0.476507
1480528420988743,-0.870818,-0.0676276,-0.476507
1480528421011302,-0.870818,-0.0676276,-0.476507
1480528421025341,-0.870818,-0.0676276,-0.476507
1480528421055921,-0.870818,-0.0676276,-0.476507
1480528421070961,-0.870818,-0.0676276,-0.476507
1480528421101041,-0.870818,-0.0676276,-0.476507
1480528421108561,-0.870965,-0.0676555,-0.476514
1480528421131122,-0.870965,-0.0676555,-0.476514
1480528421152177,-0.870787,-0.0677349,-0.476454
1480528421168721,-0.870934,-0.0677628,-0.476461
1480528421191281,-0.870965,-0.0676555,-0.476514
1480528421212350,-0.870965,-0.0676555,-0.476514
1480528421228881,-0.870934,-0.0677628,-0.476461
1480528421250940,-0.871316,-0.0679145,-0.476555
1480528421272999,-0.871463,-0.0679423,-0.476563
1480528421288540,-0.871463,-0.0679423,-0.476563
1480528421311100,-0.871463,-0.0679423,-0.476563
1480528421332157,-0.871463,-0.0679423,-0.476563
1480528421348702,-0.871463,-0.0679423,-0.476563
1480528421371260,-0.871577,-0.0679787,-0.476546
1480528421392315,-0.871577,-0.0679787,-0.476546
1480528421408859,-0.871577,-0.0679787,-0.476546
1480528421430919,-0.87143,-0.0679508,-0.476538
1480528421451974,-0.871577,-0.0679787,-0.476546
1480528421468520,-0.871572,-0.0679277,-0.476425
1480528421491079,-0.871572,-0.0679277,-0.476425
1480528421512134,-0.871692,-0.0680151,-0.476529
1480528421528678,-0.871839,-0.068043,-0.476536
1480528421551741,-0.871839,-0.068043,-0.476536
1480528421573798,-0.871839,-0.068043,-0.476536
1480528421588838,-0.871839,-0.068043,-0.476536
1480528421611398,-0.871839,-0.068043,-0.476536
1480528421633457,-0.871839,-0.068043,-0.476536
1480528421648503,-0.87187,-0.0679357,-0.476589
1480528421671058,-0.87187,-0.0679357,-0.476589
1480528421693618,-0.87143,-0.0679508,-0.476538
1480528421708157,-0.87143,-0.0679508,-0.476538
1480528421731218,-0.871577,-0.0679787,-0.476546
1480528421753778,-0.871577,-0.0679787,-0.476546
1480528421767814,-0.871577,-0.0679787,-0.476546
1480528421790875,-0.871577,-0.0679787,-0.476546
1480528421814945,-0.871577,-0.0679787,-0.476546
1480528421834492,-0.872184,-0.067782,-0.476416
1480528421851036,-0.872151,-0.0677905,-0.476391
1480528421873597,-0.87175,-0.0678482,-0.476486
1480528421888135,-0.87175,-0.0678482,-0.476486
1480528421911196,-0.87175,-0.0678482,-0.476486
1480528421939779,-0.871452,-0.0678402,-0.476321
1480528421947793,-0.871076,-0.0677396,-0.476348
1480528421971356,-0.871076,-0.0677396,-0.476348
1480528422000935,-0.871076,-0.0677396,-0.476348
1480528422014975,-0.871043,-0.0677482,-0.476323
1480528422031015,-0.870584,-0.0675038,-0.47642
1480528422059591,-0.870584,-0.0675038,-0.47642
1480528422075207,-0.870577,-0.067354,-0.476328
1480528422091175,-0.871164,-0.0673666,-0.476387
1480528422114236,-0.871131,-0.0673752,-0.476362
1480528422134791,-0.871131,-0.0673752,-0.476362
1480528422151335,-0.871136,-0.0674262,-0.476483
1480528422173895,-0.871136,-0.0674262,-0.476483
1480528422194449,-0.871278,-0.067403,-0.476369
1480528422210993,-0.871283,-0.0674541,-0.47649
1480528422233553,-0.871278,-0.067403,-0.476369
1480528422254610,-0.871278,-0.067403,-0.476369
1480528422271655,-0.871309,-0.0672957,-0.476423
1480528422293714,-0.871425,-0.0674309,-0.476377
1480528422316274,-0.871278,-0.067403,-0.476369
1480528422331315,-0.871425,-0.0674309,-0.476377
1480528422353873,-0.871423,-0.0673321,-0.476405
1480528422374930,-0.871423,-0.0673321,-0.476405
1480528422390972,-0.871456,-0.0673236,-0.47643
1480528422413532,-0.871456,-0.0673236,-0.47643
1480528422434588,-0.872145,-0.0671717,-0.476259
1480528422451132,-0.872292,-0.0671996,-0.476266
1480528422479708,-0.871707,-0.0672857,-0.476179
1480528422496252,-0.871122,-0.0673719,-0.476092
1480528422511292,-0.8713,-0.0672924,-0.476152
1480528422533853,-0.87088,-0.0670984,-0.475912
1480528422555910,-0.870034,-0.0671206,-0.475835
1480528422571953,-0.869418,-0.0673144,-0.475695
1480528422593511,-0.869097,-0.0675639,-0.47557
1480528422623592,-0.868856,-0.0672906,-0.475391
1480528422630611,-0.868856,-0.0672906,-0.475391
1480528422661191,-0.868888,-0.0672821,-0.475415
1480528422676289,-0.868856,-0.0672906,-0.475391
1480528422690268,-0.868856,-0.0672906,-0.475391
1480528422721370,-0.868856,-0.0672906,-0.475391
1480528422736391,-0.868856,-0.0672906,-0.475391
1480528422750429,-0.868825,-0.0673979,-0.475338
1480528422774493,-0.868563,-0.0673339,-0.475347
1480528422796049,-0.868594,-0.0672265,-0.4754
1480528422810589,-0.868741,-0.0672543,-0.475408
1480528422833650,-0.86871,-0.0673617,-0.475355
1480528422856210,-0.86871,-0.0673617,-0.475355
1480528422870247,-0.868188,-0.0672335,-0.475374
1480528422893810,-0.868155,-0.067242,-0.475349
1480528422916370,-0.868188,-0.0672335,-0.475374
1480528422938930,-0.868188,-0.0672335,-0.475374
1480528422954471,-0.868302,-0.0672698,-0.475357
1480528422976029,-0.868302,-0.0672698,-0.475357
1480528422998590,-0.868302,-0.0672698,-0.475357
1480528423013633,-0.867945,-0.067576,-0.475058
1480528423036193,-0.867324,-0.0677194,-0.474798
1480528423057248,-0.867335,-0.0675077,-0.474339
1480528423073793,-0.866874,-0.0674675,-0.473627
1480528423096353,-0.865245,-0.0676028,-0.472743
1480528423117408,-0.864034,-0.0678329,-0.472128
1480528423147488,-0.8641,-0.0679723,-0.471518
1480528423156011,-0.863739,-0.0682295,-0.4711
1480528423177067,-0.863424,-0.0681197,-0.470425
1480528423193611,-0.862145,-0.0682608,-0.470272
1480528423216173,-0.862145,-0.0682608,-0.470272
1480528423237728,-0.863388,-0.0681766,-0.470251
1480528423253772,-0.863388,-0.0681766,-0.470251
1480528423276331,-0.862314,-0.0680308,-0.470238
1480528423297387,-0.862314,-0.0680308,-0.470238
1480528423313430,-0.863077,-0.0678135,-0.470533
1480528423335990,-0.864079,-0.0673014,-0.470993
1480528423357047,-0.86464,-0.0667069,-0.471431
1480528423373591,-0.865634,-0.0661932,-0.471623
1480528423396162,-0.866302,-0.065633,-0.471775
1480528423434252,-0.866623,-0.064914,-0.471859
1480528423436759,-0.866233,-0.0643592,-0.472359
1480528423456310,-0.866627,-0.0639955,-0.472832
1480528423478870,-0.867697,-0.0640922,-0.472727
1480528423493408,-0.867697,-0.0640922,-0.472727
1480528423515970,-0.867697,-0.0640922,-0.472727
1480528423538529,-0.867003,-0.0644085,-0.473506
1480528423561090,-0.868044,-0.0643109,-0.474185
1480528423576129,-0.86943,-0.0648221,-0.473919
1480528423598691,-0.86943,-0.0648221,-0.473919
1480528423619745,-0.869435,-0.064873,-0.47404
1480528423636290,-0.868788,-0.0649209,-0.474534
1480528423659350,-0.87014,-0.0651875,-0.474932
1480528423672887,-0.871839,-0.0651935,-0.475209
1480528423696449,-0.872751,-0.064909,-0.475544
1480528423718509,-0.872777,-0.0647506,-0.475477
1480528423733046,-0.87179,-0.0648948,-0.475482
1480528423756108,-0.871309,-0.0652302,-0.475836
1480528423778668,-0.872104,-0.0655248,-0.47605
1480528423792705,-0.873271,-0.0658692,-0.476116
1480528423816268,-0.873743,-0.0663144,-0.476232
1480528423838828,-0.874016,-0.0664809,-0.476465
1480528423852869,-0.874016,-0.0664809,-0.476465
1480528423876428,-0.874344,-0.0662833,-0.476712
1480528423898488,-0.875302,-0.0663456,-0.476624
1480528423920545,-0.875271,-0.0664528,-0.476571
1480528423936588,-0.875302,-0.0663456,-0.476624
1480528423972684,-0.875302,-0.0663456,-0.476624
1480528423981210,-0.875589,-0.0662514,-0.476547
1480528423996246,-0.875444,-0.0663221,-0.476511
1480528424018806,-0.875475,-0.0662149,-0.476564
1480528424041367,-0.875442,-0.0662236,-0.47654
1480528424055905,-0.875589,-0.0662514,-0.476547
1480528424078465,-0.874458,-0.0663198,-0.476695
1480528424099521,-0.874491,-0.0663111,-0.476719
1480528424116065,-0.875337,-0.066191,-0.476827
1480528424144641,-0.875814,-0.06612,-0.477053
1480528424159681,-0.875814,-0.06612,-0.477053
1480528424176227,-0.875814,-0.06612,-0.477053
1480528424198788,-0.875781,-0.0661287,-0.477028
1480528424219840,-0.875223,-0.0661545,-0.476844
1480528424235884,-0.874051,-0.0663262,-0.476668
1480528424258443,-0.873209,-0.066399,-0.47671
1480528424281506,-0.873863,-0.0667175,-0.477037
1480528424296044,-0.874811,-0.0666775,-0.476707
1480528424318618,-0.873985,-0.0665882,-0.476411
1480528424342331,-0.872153,-0.0666074,-0.476517
1480528424356203,-0.872185,-0.0665988,-0.476542
1480528424379266,-0.873376,-0.0662173,-0.476529
1480528424401324,-0.873376,-0.0662173,-0.476529
1480528424416363,-0.873351,-0.0663757,-0.476597
1480528424438423,-0.873238,-0.0661931,-0.476792
1480528424460983,-0.873946,-0.0662935,-0.476955
1480528424476023,-0.874677,-0.066137,-0.47708
1480528424498584,-0.874708,-0.0660297,-0.477133
1480528424521143,-0.874594,-0.0659932,-0.47715
1480528424535681,-0.874563,-0.0661004,-0.477097
1480528424566262,-0.875535,-0.0656503,-0.47739
1480528424581306,-0.87647,-0.0651579,-0.477538
1480528424595341,-0.87647,-0.0651579,-0.477538
1480528424618404,-0.876418,-0.064907,-0.477662
1480528424642235,-0.877298,-0.0647788,-0.477795
1480528424663521,-0.878056,-0.0644645,-0.477854
1480528424678562,-0.878559,-0.0641372,-0.478044
1480528424708643,-0.87845,-0.0641519,-0.478181
1480528424715659,-0.87845,-0.0641519,-0.478181
1480528424746241,-0.879188,-0.0640477,-0.478428
1480528424760780,-0.87979,-0.0637014,-0.47821
1480528424775319,-0.879524,-0.0636836,-0.478069
1480528424798382,-0.878653,-0.0638159,-0.478205
1480528424821441,-0.879214,-0.0638892,-0.478361
1480528424842498,-0.879183,-0.0639963,-0.478308
1480528424858540,-0.879183,-0.0639963,-0.478308
1480528424881104,-0.87859,-0.0640301,-0.478097
1480528424902156,-0.87859,-0.0640301,-0.478097
1480528424918700,-0.87859,-0.0640301,-0.478097
1480528424942338,-0.87859,-0.0640301,-0.478097
1480528424962316,-0.878003,-0.0641154,-0.478008
1480528424979363,-0.878003,-0.0641154,-0.478008
1480528425015457,-0.878334,-0.064017,-0.478227
1480528425021974,-0.878365,-0.0639098,-0.478281
1480528425039522,-0.877689,-0.0637999,-0.478141
1480528425061078,-0.876699,-0.0638442,-0.478173
1480528425082140,-0.876667,-0.0639513,-0.47812
1480528425098681,-0.876699,-0.0638442,-0.478173
1480528425121239,-0.876699,-0.0638442,-0.478173
1480528425149814,-0.876667,-0.0639513,-0.47812
1480528425165858,-0.876127,-0.0636686,-0.477775
1480528425181404,-0.876906,-0.063243,-0.477618
1480528425202455,-0.877552,-0.0629902,-0.477665
1480528425218498,-0.87796,-0.0629842,-0.477693
1480528425242061,-0.878385,-0.0631322,-0.478084
1480528425262113,-0.879029,-0.0633493,-0.47817
1480528425278157,-0.879512,-0.0637999,-0.478556
1480528425301218,-0.880746,-0.0640305,-0.478703
1480528425331800,-0.881476,-0.0644898,-0.478689
1480528425338820,-0.881927,-0.0648281,-0.478293
1480528425360876,-0.880799,-0.0649473,-0.478558
1480528425383438,-0.881073,-0.0651149,-0.478791
1480528425405996,-0.881419,-0.0653233,-0.478711
1480528425421538,-0.882174,-0.0650562,-0.478621
1480528425443597,-0.881691,-0.0648249,-0.478964
1480528425458135,-0.881576,-0.0647882,-0.47898
1480528425481204,-0.881576,-0.0647882,-0.47898
1480528425503757,-0.880805,-0.0649988,-0.478679
1480528425517794,-0.879918,-0.0650748,-0.478424
1480528425541857,-0.879608,-0.0647126,-0.478707
1480528425563416,-0.880379,-0.0645018,-0.479008
1480528425577954,-0.880909,-0.0646825,-0.479111
1480528425601016,-0.880909,-0.0646825,-0.479111
1480528425623575,-0.880499,-0.06459,-0.479112
1480528425638615,-0.880499,-0.06459,-0.479112
1480528425661175,-0.880352,-0.0645621,-0.479104
1480528425683735,-0.880385,-0.0645532,-0.479129
1480528425704791,-0.880385,-0.0645532,-0.479129
1480528425721335,-0.880835,-0.0647936,-0.478762
1480528425743895,-0.880557,-0.0646728,-0.47838
1480528425757932,-0.879424,-0.0645213,-0.477796
1480528425780997,-0.878083,-0.0646553,-0.477069
1480528425809569,-0.877737,-0.0641305,-0.476449
1480528425824610,-0.87704,-0.0639145,-0.475798
1480528425842156,-0.875795,-0.0637293,-0.475232
1480528425863714,-0.874816,-0.0641293,-0.474817
1480528425884770,-0.874822,-0.0641804,-0.474938
1480528425900812,-0.874644,-0.06426,-0.474876
1480528425923874,-0.875928,-0.0642695,-0.474859
1480528425945431,-0.875864,-0.0643855,-0.474781
1480528425960975,-0.875372,-0.0644661,-0.475552
1480528425983533,-0.874737,-0.0644712,-0.476465
1480528426004588,-0.875925,-0.0643548,-0.477034
1480528426021133,-0.876909,-0.0644768,-0.477609
1480528426051212,-0.876941,-0.064468,-0.477634
1480528426064748,-0.876557,-0.0644354,-0.478296
1480528426081296,-0.876898,-0.0643411,-0.478786
1480528426103351,-0.878424,-0.0645291,-0.478977
1480528426124908,-0.880154,-0.0649494,-0.479201
1480528426142253,-0.881041,-0.0654417,-0.479465
1480528426163511,-0.882217,-0.0652725,-0.479645
1480528426184570,-0.882542,-0.0656911,-0.479753
1480528426201112,-0.882511,-0.0657981,-0.479699
1480528426223672,-0.881184,-0.065986,-0.479362
1480528426246231,-0.880501,-0.0658239,-0.479101
1480528426268792,-0.880501,-0.0658239,-0.479101
1480528426283832,-0.880501,-0.0658239,-0.479101
1480528426305891,-0.880328,-0.0659545,-0.47916
1480528426320930,-0.881089,-0.0657392,-0.479191
1480528426343490,-0.88112,-0.0656321,-0.479245
1480528426366050,-0.881089,-0.0657392,-0.479191
1480528426381094,-0.880941,-0.0657112,-0.479183
1480528426411171,-0.881614,-0.0658685,-0.479173
1480528426432226,-0.882811,-0.066155,-0.479144
1480528426440749,-0.883688,-0.0665444,-0.479167
1480528426463825,-0.883541,-0.0665165,-0.479159
1480528426486373,-0.883548,-0.0666663,-0.47925
1480528426500407,-0.883688,-0.0665444,-0.479167
1480528426523468,-0.884419,-0.0664361,-0.479144
1480528426546030,-0.884419,-0.0664361,-0.479144
1480528426560567,-0.884545,-0.0665763,-0.479368
1480528426583629,-0.885879,-0.0666893,-0.479136
1480528426607191,-0.885423,-0.0669658,-0.479391
1480528426620226,-0.886158,-0.0668114,-0.479518
1480528426643788,-0.88619,-0.0668025,-0.479543
1480528426666348,-0.885354,-0.0665599,-0.479154
1480528426680388,-0.883956,-0.0663418,-0.478579
1480528426703448,-0.882559,-0.0661246,-0.478005
1480528426726008,-0.880944,-0.0664077,-0.477744
1480528426755587,-0.881354,-0.0665,-0.477743
1480528426765113,-0.881848,-0.066736,-0.477671
1480528426786167,-0.882835,-0.0666399,-0.477518
1480528426807223,-0.882835,-0.0666399,-0.477518
1480528426823792,-0.882656,-0.0667191,-0.477456
1480528426846328,-0.882661,-0.0667707,-0.477576
1480528426867383,-0.883244,-0.066634,-0.477545
1480528426883428,-0.883244,-0.066634,-0.477545
1480528426905987,-0.883244,-0.066634,-0.477545
1480528426927042,-0.882572,-0.0665755,-0.477527
1480528426943587,-0.882572,-0.0665755,-0.477527
1480528426966648,-0.882572,-0.0665755,-0.477527
1480528426988707,-0.882578,-0.0666271,-0.477647
1480528427003747,-0.882546,-0.0667341,-0.477593
1480528427033828,-0.881696,-0.0667548,-0.477513
1480528427054882,-0.881024,-0.0665981,-0.477524
1480528427072430,-0.881495,-0.066378,-0.477659
1480528427085965,-0.88128,-0.0663611,-0.478084
1480528427107022,-0.881107,-0.0664918,-0.478143
1480528427123565,-0.881107,-0.0664918,-0.478143
1480528427146125,-0.881107,-0.0664918,-0.478143
1480528427176205,-0.880959,-0.066464,-0.478135
1480528427183725,-0.880992,-0.0664552,-0.47816
1480528427206286,-0.880844,-0.0664273,-0.478152
1480528427228343,-0.880844,-0.0664273,-0.478152
1480528427243384,-0.880844,-0.0664273,-0.478152
1480528427265944,-0.880697,-0.0663994,-0.478145
1480528427288503,-0.880698,-0.0664977,-0.478116
1480528427303543,-0.880729,-0.0663907,-0.478169
1480528427326104,-0.880729,-0.0663907,-0.478169
1480528427348664,-0.880582,-0.0663628,-0.478162
1480528427362701,-0.880551,-0.0664698,-0.478108
1480528427386263,-0.880551,-0.0664698,-0.478108
1480528427408823,-0.880551,-0.0664698,-0.478108
1480528427422861,-0.880551,-0.0664698,-0.478108
1480528427445922,-0.880409,-0.0664935,-0.478221
1480528427491543,-0.880409,-0.0664935,-0.478221
1480528427494050,-0.880409,-0.0664935,-0.478221
1480528427513604,-0.880403,-0.066442,-0.4781
1480528427529145,-0.880409,-0.0664935,-0.478221
1480528427551704,-0.880414,-0.066545,-0.478341
1480528427572258,-0.880734,-0.0663439,-0.478319
1480528427588804,-0.880734,-0.0663439,-0.478319
1480528427602840,-0.880734,-0.0663439,-0.478319
1480528427625901,-0.880586,-0.066316,-0.478311
1480528427648462,-0.88056,-0.0664746,-0.478378
1480528427662999,-0.88088,-0.0662735,-0.478356
1480528427686075,-0.88088,-0.0662735,-0.478356
1480528427716141,-0.880913,-0.0662647,-0.478381
1480528427731182,-0.880765,-0.0662368,-0.478373
1480528427753742,-0.881002,-0.06646,-0.478431
1480528427768783,-0.881002,-0.06646,-0.478431
1480528427789836,-0.881002,-0.06646,-0.478431
1480528427805881,-0.880854,-0.0664321,-0.478423
1480528427828440,-0.880854,-0.0664321,-0.478423
1480528427849496,-0.880739,-0.0663954,-0.47844
1480528427866040,-0.881299,-0.0663708,-0.478625
1480528427894616,-0.88182,-0.0665466,-0.478457
1480528427911161,-0.881673,-0.0665187,-0.478449
1480528427926199,-0.881641,-0.0666258,-0.478395
1480528427949262,-0.881673,-0.0665187,-0.478449
1480528427969816,-0.882356,-0.0664606,-0.477981
1480528427985859,-0.881921,-0.0670947,-0.478058
1480528428009421,-0.883775,-0.0671335,-0.478347
1480528428029477,-0.886439,-0.0668363,-0.477723
1480528428046020,-0.887502,-0.066878,-0.47723
1480528428068600,-0.887502,-0.066878,-0.47723
1480528428089635,-0.886467,-0.0670239,-0.476937
1480528428106179,-0.885533,-0.067469,-0.476935
1480528428129741,-0.886425,-0.0673469,-0.47734
1480528428151298,-0.8878,-0.0677493,-0.476562
1480528428165838,-0.886738,-0.0674863,-0.476328
1480528428188398,-0.885953,-0.067247,-0.476505
1480528428210958,-0.886982,-0.0670489,-0.476678
1480528428226498,-0.887915,-0.067316,-0.476508
1480528428248557,-0.887773,-0.0673401,-0.476621
1480528428271117,-0.887773,-0.0673401,-0.476621
1480528428286158,-0.887773,-0.0673401,-0.476621
1480528428316237,-0.887625,-0.0673123,-0.476613
1480528428331277,-0.888448,-0.0674966,-0.476611
1480528428353837,-0.889714,-0.0674241,-0.47687
1480528428375896,-0.892331,-0.0671953,-0.477074
1480528428390936,-0.894286,-0.0670628,-0.476869
1480528428405475,-0.895977,-0.0662976,-0.476669
1480528428428537,-0.895977,-0.0662976,-0.476669
1480528428451097,-0.893498,-0.0660316,-0.476313
1480528428465634,-0.891763,-0.0656636,-0.476208
1480528428488697,-0.890346,-0.0656105,-0.475968
1480528428512259,-0.887723,-0.0659334,-0.475463
1480528428525293,-0.884681,-0.0663817,-0.47542
1480528428548856,-0.884655,-0.0665405,-0.475486
1480528428570915,-0.886378,-0.0662872,-0.475461
1480528428591970,-0.885426,-0.0663292,-0.475788
1480528428608516,-0.884054,-0.0661755,-0.475875
1480528428631077,-0.884054,-0.0661755,-0.475875
1480528428652131,-0.884085,-0.0660685,-0.475929
1480528428668675,-0.884085,-0.0660685,-0.475929
1480528428691737,-0.883298,-0.0664437,-0.475965
1480528428712291,-0.882696,-0.0667911,-0.476183
1480528428729838,-0.882696,-0.0667911,-0.476183
1480528428750893,-0.882696,-0.0667911,-0.476183
1480528428771950,-0.881299,-0.0667957,-0.476338
1480528428788495,-0.881299,-0.0667957,-0.476338
1480528428811054,-0.881299,-0.0667957,-0.476338
1480528428832110,-0.881299,-0.0667957,-0.476338
1480528428848653,-0.881273,-0.0669543,-0.476404
1480528428871214,-0.881273,-0.0669543,-0.476404
1480528428892270,-0.881159,-0.0669178,-0.476421
1480528428908673,-0.881159,-0.0669178,-0.476421
1480528428930875,-0.881011,-0.06689,-0.476414
1480528428951928,-0.881242,-0.0670614,-0.476351
1480528428968472,-0.881627,-0.0673121,-0.476416
1480528428991032,-0.882415,-0.067505,-0.476388
1480528429012088,-0.883579,-0.0672308,-0.476326
1480528429028633,-0.884603,-0.0670788,-0.476347
1480528429051192,-0.886495,-0.0672114,-0.47615
1480528429072249,-0.889555,-0.0677815,-0.475721
1480528429088794,-0.890873,-0.0681027,-0.475676
1480528429110851,-0.890887,-0.0678397,-0.475369
1480528429142435,-0.889621,-0.067913,-0.47511
1480528429148454,-0.888116,-0.0676657,-0.474823
1480528429171512,-0.88618,-0.0675377,-0.474724
1480528429193571,-0.88506,-0.0674436,-0.474533
1480528429216131,-0.884913,-0.0674159,-0.474525
1480528429231173,-0.884913,-0.0674159,-0.474525
1480528429253731,-0.884918,-0.0674677,-0.474645
1480528429274790,-0.884372,-0.06755,-0.474851
1480528429291331,-0.885512,-0.0674337,-0.474855
1480528429320910,-0.886522,-0.0676933,-0.474524
1480528429329432,-0.886528,-0.0677452,-0.474644
1480528429350990,-0.88656,-0.0677365,-0.474669
1480528429373551,-0.886412,-0.0677088,-0.474661
1480528429388089,-0.887364,-0.0676661,-0.474334
1480528429418168,-0.887993,-0.0678712,-0.473879
1480528429433710,-0.887961,-0.0678799,-0.473854
1480528429463790,-0.887993,-0.0678712,-0.473879
1480528429470808,-0.888672,-0.0679806,-0.474018
1480528429493870,-0.888991,-0.068393,-0.473854
1480528429507908,-0.88896,-0.0684999,-0.4738
1480528429530968,-0.888579,-0.0683013,-0.473856
1480528429553529,-0.888579,-0.0683013,-0.473856
1480528429568067,-0.888579,-0.0683013,-0.473856
1480528429591129,-0.887733,-0.0683751,-0.473895
1480528429613690,-0.887064,-0.0682714,-0.474027
1480528429634745,-0.886583,-0.0680937,-0.47449
1480528429666329,-0.886467,-0.0680574,-0.474507
1480528429673347,-0.886437,-0.0681643,-0.474453
1480528429694403,-0.885675,-0.0683812,-0.474422
1480528429710947,-0.885675,-0.0683812,-0.474422
1480528429733508,-0.885675,-0.0683812,-0.474422
1480528429762083,-0.88486,-0.0683478,-0.474516
1480528429771108,-0.884713,-0.0683201,-0.474509
1480528429794169,-0.884713,-0.0683201,-0.474509
1480528429814725,-0.884713,-0.0683201,-0.474509
1480528429831269,-0.884419,-0.0683631,-0.474464
1480528429853827,-0.88361,-0.0683813,-0.474679
1480528429874884,-0.883468,-0.0684053,-0.474792
1480528429890926,-0.883468,-0.0684053,-0.474792
1480528429913486,-0.883468,-0.0684053,-0.474792
1480528429934542,-0.88332,-0.0683776,-0.474784
1480528429951588,-0.883322,-0.068476,-0.474755
1480528429973647,-0.883322,-0.068476,-0.474755
1480528429994702,-0.882738,-0.0685151,-0.474816
1480528430011245,-0.882623,-0.0684788,-0.474833
1480528430033807,-0.882623,-0.0684788,-0.474833
1480528430056366,-0.882623,-0.0684788,-0.474833
1480528430070904,-0.88277,-0.0685065,-0.474841
1480528430094468,-0.882623,-0.0684788,-0.474833
1480528430116024,-0.882444,-0.0685581,-0.474771
1480528430131066,-0.882486,-0.0685543,-0.475066
1480528430153625,-0.88248,-0.0685027,-0.474946
1480528430176185,-0.88248,-0.0685027,-0.474946
1480528430198745,-0.882486,-0.0685543,-0.475066
1480528430227320,-0.882307,-0.0686336,-0.475005
1480528430235844,-0.882307,-0.0686336,-0.475005
1480528430250383,-0.882338,-0.0685266,-0.475059
1480528430273444,-0.882601,-0.0685907,-0.475049
1480528430296004,-0.88246,-0.0687131,-0.475133
1480528430317059,-0.88246,-0.0687131,-0.475133
1480528430333604,-0.88246,-0.0687131,-0.475133
1480528430356164,-0.88246,-0.0687131,-0.475133
1480528430370201,-0.882696,-0.0688374,-0.47522
1480528430401284,-0.882586,-0.0688527,-0.475357
1480528430416324,-0.882553,-0.0688613,-0.475333
1480528430430362,-0.882354,-0.0686815,-0.475421
1480528430453423,-0.882176,-0.0687608,-0.475359
1480528430475982,-0.882033,-0.0687846,-0.475472
1480528430490521,-0.882033,-0.0687846,-0.475472
1480528430513585,-0.882061,-0.0687244,-0.475376
1480528430536143,-0.881944,-0.0685896,-0.475422
1480528430557198,-0.881765,-0.0686688,-0.475361
1480528430573743,-0.881771,-0.0687205,-0.475482
1480528430596302,-0.881771,-0.0687205,-0.475482
1480528430616857,-0.88145,-0.0683542,-0.475495
1480528430641925,-0.880341,-0.0682647,-0.475575
1480528430655961,-0.880201,-0.0683869,-0.475659
1480528430677017,-0.880899,-0.0683845,-0.475581
1480528430693561,-0.880514,-0.0681339,-0.475515
1480528430716129,-0.879023,-0.0678924,-0.475501
1480528430737178,-0.878096,-0.0678221,-0.475613
1480528430753721,-0.878065,-0.0679292,-0.47556
1480528430776282,-0.877441,-0.0675032,-0.475287
1480528430797339,-0.876698,-0.0675576,-0.474921
1480528430813390,-0.875941,-0.0678733,-0.474864
1480528430835940,-0.875763,-0.0679527,-0.474803
1480528430857998,-0.87591,-0.0679805,-0.474811
1480528430873540,-0.875401,-0.0675914,-0.474521
1480528430896100,-0.873954,-0.0670304,-0.474102
1480528430917156,-0.87191,-0.0668174,-0.473905
1480528430933700,-0.871443,-0.0664238,-0.473909
1480528430956260,-0.871459,-0.0662622,-0.473572
1480528430977323,-0.871092,-0.0658508,-0.473168
1480528430993358,-0.870061,-0.0653353,-0.472897
1480528430998873,-0.86919,-0.0650484,-0.472846
1480528431021433,-0.869043,-0.0650208,-0.472838
1480528431047001,-0.870032,-0.0643584,-0.47294
1480528431060537,-0.869941,-0.0640651,-0.472918
1480528431081594,-0.869121,-0.0639303,-0.472772
1480528431104153,-0.868165,-0.063401,-0.472819
1480528431118691,-0.868653,-0.0629695,-0.472764
1480528431141755,-0.869957,-0.062153,-0.472695
1480528431163813,-0.86981,-0.0621255,-0.472687
1480528431178852,-0.8691,-0.0620749,-0.472374
1480528431201412,-0.868781,-0.0617093,-0.472385
1480528431231993,-0.868822,-0.0613899,-0.47198
1480528431240517,-0.868802,-0.0612854,-0.471469
1480528431264580,-0.868313,-0.0614037,-0.470824
1480528431285636,-0.866883,-0.0615163,-0.470656
1480528431300676,-0.866883,-0.0615163,-0.470656
1480528431331759,-0.867623,-0.0611451,-0.470323
1480528431343791,-0.867941,-0.0607282,-0.469571
1480528431367855,-0.867186,-0.0607334,-0.468815
1480528431381391,-0.867102,-0.0602769,-0.468185
1480528431403950,-0.867165,-0.0603162,-0.467605
1480528431420495,-0.867417,-0.0603767,-0.467326
1480528431441551,-0.868618,-0.0610597,-0.466703
1480528431464112,-0.870089,-0.0617089,-0.46637
1480528431480657,-0.87215,-0.0618509,-0.466205
1480528431501209,-0.871761,-0.0627822,-0.465742
1480528431524270,-0.87128,-0.0631196,-0.466094
1480528431546330,-0.872499,-0.0632398,-0.465998
1480528431561369,-0.87339,-0.0634608,-0.465685
1480528431583929,-0.873423,-0.0634523,-0.465709
1480528431600473,-0.872006,-0.0636221,-0.465932
1480528431621540,-0.871976,-0.0637295,-0.465878
1480528431644089,-0.873466,-0.0633005,-0.466182
1480528431660132,-0.875652,-0.0630128,-0.46623
1480528431681689,-0.876191,-0.0625786,-0.466742
1480528431706757,-0.876897,-0.061962,-0.467075
1480528431720292,-0.877985,-0.0616419,-0.467325
1480528431742350,-0.878439,-0.0613636,-0.467071
1480528431771429,-0.877485,-0.0610406,-0.466579
1480528431781956,-0.87512,-0.0610378,-0.466397
1480528431801508,-0.872031,-0.0611487,-0.466239
1480528431824069,-0.870431,-0.061963,-0.466142
1480528431842617,-0.871151,-0.0624144,-0.465859
1480528431861670,-0.873595,-0.0623902,-0.465091
1480528431883727,-0.873454,-0.0630296,-0.465065
1480528431906287,-0.871876,-0.0640488,-0.465449
1480528431921327,-0.871949,-0.0644045,-0.465836
1480528431945392,-0.873294,-0.0646625,-0.465964
1480528431966446,-0.87391,-0.0650814,-0.465967
1480528431982991,-0.872634,-0.0652272,-0.466078
1480528432004046,-0.871877,-0.0648321,-0.466187
1480528432026607,-0.871453,-0.064387,-0.466635
1480528432042376,-0.871681,-0.0639899,-0.466561
1480528432063707,-0.872366,-0.0638823,-0.466243
1480528432089273,-0.872196,-0.0634971,-0.466412
1480528432101309,-0.872625,-0.0633777,-0.466223
1480528432123866,-0.874262,-0.0635915,-0.466395
1480528432170991,-0.875779,-0.0639359,-0.467192
1480528432173498,-0.877277,-0.0647901,-0.467338
1480528432191545,-0.879613,-0.0649015,-0.467463
1480528432206586,-0.88078,-0.0652884,-0.46738
1480528432229146,-0.880013,-0.0655037,-0.46708
1480528432243684,-0.878633,-0.0656687,-0.467596
1480528432266244,-0.87987,-0.0652306,-0.468031
1480528432281286,-0.882054,-0.0654099,-0.46785
1480528432303844,-0.883433,-0.0654646,-0.468062
1480528432326404,-0.884319,-0.0653847,-0.468317
1480528432344452,-0.887258,-0.0649468,-0.468768
1480528432364008,-0.889469,-0.0640083,-0.469388
1480528432386564,-0.889158,-0.0624207,-0.469959
1480528432401604,-0.889511,-0.0622094,-0.469963
1480528432424166,-0.892477,-0.0620345,-0.470274
1480528432446732,-0.895554,-0.0605411,-0.47252
1480528432462769,-0.901365,-0.0595149,-0.47393
1480528432483823,-0.905492,-0.0595069,-0.474846
1480528432506383,-0.905421,-0.060266,-0.475884
1480528432521422,-0.907128,-0.0604471,-0.476514
1480528432543983,-0.908158,-0.061041,-0.477153
1480528432574565,-0.906185,-0.061623,-0.478525
1480528432583087,-0.906797,-0.0622663,-0.478982
1480528432604142,-0.908079,-0.0625906,-0.478647
1480528432626201,-0.907299,-0.0627967,-0.478337
1480528432657786,-0.905037,-0.0628726,-0.478514
1480528432663801,-0.902726,-0.0627954,-0.478789
1480528432686362,-0.901092,-0.0630214,-0.478395
1480528432702907,-0.898931,-0.0636871,-0.478022
1480528432723961,-0.897253,-0.064285,-0.477881
1480528432746525,-0.896599,-0.0645824,-0.477679
1480528432763066,-0.89553,-0.0654011,-0.477332
1480528432784122,-0.894588,-0.0658911,-0.477175
1480528432814704,-0.894568,-0.0663479,-0.476669
1480528432822725,-0.893906,-0.0666394,-0.476198
1480528432843780,-0.892193,-0.0666284,-0.475912
1480528432866342,-0.890988,-0.0669574,-0.475796
1480528432882885,-0.890988,-0.0669574,-0.475796
1480528432911461,-0.891052,-0.0668418,-0.475875
1480528432926501,-0.890873,-0.0669209,-0.475813
1480528432944549,-0.89139,-0.0670432,-0.475525
1480528432964100,-0.890627,-0.0672596,-0.475492
1480528432989166,-0.889958,-0.0671555,-0.475623
1480528433004207,-0.889958,-0.0671555,-0.475623
1480528433023759,-0.88959,-0.0676286,-0.475926
1480528433046325,-0.889272,-0.0679282,-0.475917
1480528433071887,-0.888361,-0.0681167,-0.475878
1480528433083935,-0.887753,-0.0684127,-0.475974
1480528433106480,-0.887438,-0.0686661,-0.476116
1480528433124527,-0.88729,-0.0686383,-0.476109
1480528433147090,-0.887285,-0.0685864,-0.475988
1480528433166639,-0.887107,-0.0687637,-0.475897
1480528433184186,-0.887107,-0.0687637,-0.475897
1480528433205242,-0.886959,-0.0687359,-0.475889
1480528433226298,-0.886844,-0.0686995,-0.475906
1480528433244362,-0.887513,-0.0688038,-0.475775
1480528433263897,-0.887513,-0.0688038,-0.475775
1480528433286458,-0.887482,-0.0689107,-0.475721
1480528433312027,-0.888014,-0.0690912,-0.475823
1480528433331578,-0.888662,-0.0693081,-0.475908
1480528433346620,-0.88922,-0.0693298,-0.475943
1480528433369178,-0.88922,-0.0693298,-0.475943
1480528433385222,-0.890012,-0.0692296,-0.476756
1480528433413796,-0.892088,-0.0688934,-0.477493
1480528433428837,-0.893959,-0.0689402,-0.478055
1480528433444380,-0.895108,-0.0688785,-0.478182
1480528433466436,-0.895261,-0.0688609,-0.47834
1480528433488996,-0.89633,-0.0686107,-0.47869
1480528433507060,-0.89797,-0.0680673,-0.47865
1480528433526596,-0.898118,-0.0680952,-0.478658
1480528433549157,-0.897944,-0.0682264,-0.478716
1480528433565199,-0.89823,-0.0681772,-0.478491
1480528433586262,-0.898378,-0.068205,-0.478499
1480528433609136,-0.89823,-0.0681772,-0.478491
1480528433625363,-0.89823,-0.0681772,-0.478491
1480528433647920,-0.89833,-0.0681542,-0.478084
1480528433668978,-0.898252,-0.0683076,-0.477583
1480528433685520,-0.898365,-0.0681635,-0.476689
1480528433706576,-0.896609,-0.0682509,-0.476078
1480528433729136,-0.894762,-0.0683686,-0.476146
1480528433745178,-0.894615,-0.0684387,-0.476109
1480528433766233,-0.894615,-0.0684387,-0.476109
1480528433788794,-0.894615,-0.0684387,-0.476109
1480528433811354,-0.894762,-0.0683686,-0.476146
1480528433826394,-0.894082,-0.0682578,-0.476006
1480528433848954,-0.892827,-0.0682908,-0.476166
1480528433867002,-0.892005,-0.0682046,-0.476139
1480528433888059,-0.892849,-0.0681776,-0.47595
1480528433909114,-0.892678,-0.0686529,-0.475288
1480528433926660,-0.890021,-0.0689846,-0.474761
1480528433946717,-0.888126,-0.0688535,-0.474958
1480528433971781,-0.888832,-0.0689026,-0.475001
1480528433986821,-0.889661,-0.0692872,-0.474457
1480528434006373,-0.888666,-0.0693331,-0.47449
1480528434028933,-0.887461,-0.0690954,-0.474369
1480528434046983,-0.887461,-0.0690954,-0.474369
1480528434069541,-0.888714,-0.0690615,-0.474207
1480528434089093,-0.88812,-0.0690953,-0.473997
1480528434107141,-0.887385,-0.0692518,-0.47387
1480528434126192,-0.887385,-0.0692518,-0.47387
1480528434148752,-0.887796,-0.0693435,-0.473869
1480528434166800,-0.887764,-0.0693521,-0.473844
1480528434186352,-0.887766,-0.0694504,-0.473815
1480528434219439,-0.888587,-0.0695354,-0.473841
1480528434226959,-0.889254,-0.0695408,-0.473739
1480528434246514,-0.888845,-0.0695474,-0.473711
1480528434269071,-0.888729,-0.0695111,-0.473728
1480528434291631,-0.889632,-0.0697856,-0.473533
1480528434306671,-0.889632,-0.0697856,-0.473533
1480528434329234,-0.88846,-0.0693952,-0.473617
1480528434346780,-0.888466,-0.0694472,-0.473737
1480528434366330,-0.888287,-0.0695264,-0.473676
1480528434390395,-0.888803,-0.0695503,-0.473416
1480528434406939,-0.888718,-0.0694071,-0.473487
1480528434426492,-0.88857,-0.0693794,-0.47348
1480528434449051,-0.8888,-0.0695966,-0.473266
1480528434466597,-0.8888,-0.0695966,-0.473266
1480528434487654,-0.888682,-0.069462,-0.473313
1480528434511717,-0.88883,-0.0694897,-0.47332
1480528434526757,-0.888652,-0.0695689,-0.473259
1480528434547814,-0.888652,-0.0695689,-0.473259
1480528434568869,-0.888242,-0.0695757,-0.473231
1480528434591428,-0.888242,-0.0695757,-0.473231
1480528434607979,-0.888242,-0.0695757,-0.473231
1480528434629030,-0.888096,-0.0696464,-0.473194
1480528434647078,-0.888096,-0.0696464,-0.473194
1480528434669136,-0.887359,-0.0697048,-0.473097
1480528434696210,-0.88625,-0.0697151,-0.473147
1480528434706738,-0.88625,-0.0697151,-0.473147
1480528434729302,-0.88625,-0.0697151,-0.473147
1480528434748848,-0.88625,-0.0697151,-0.473147
1480528434766896,-0.885866,-0.0695631,-0.473053
1480528434787952,-0.885131,-0.0696217,-0.472956
1480528434809068,-0.885131,-0.0696217,-0.472956
1480528434831568,-0.885015,-0.0695855,-0.472973
1480528434849115,-0.885131,-0.0696217,-0.472956
1480528434869167,-0.884666,-0.0698945,-0.472941
1480528434891227,-0.884518,-0.0698668,-0.472934
1480528434916795,-0.884867,-0.0701724,-0.472824
1480528434930332,-0.884867,-0.0701724,-0.472824
1480528434951387,-0.884867,-0.0701724,-0.472824
1480528434969434,-0.884719,-0.0701447,-0.472817
1480528434988987,-0.885542,-0.0703277,-0.472813
1480528435011548,-0.885478,-0.0704432,-0.472734
1480528435035109,-0.885478,-0.0704432,-0.472734
1480528435049148,-0.885478,-0.0704432,-0.472734
1480528435079234,-0.886329,-0.0704208,-0.472814
1480528435089253,-0.886578,-0.0707473,-0.473111
1480528435111814,-0.887531,-0.0707038,-0.472783
1480528435131365,-0.887561,-0.0705969,-0.472837
1480528435149413,-0.887531,-0.0707038,-0.472783
1480528435168965,-0.888094,-0.0707766,-0.472939
1480528435191525,-0.889294,-0.0709613,-0.472938
1480528435209573,-0.889437,-0.070937,-0.472825
1480528435229127,-0.889437,-0.070937,-0.472825
1480528435261713,-0.889289,-0.0709093,-0.472817
1480528435269232,-0.889294,-0.0709613,-0.472938
1480528435288784,-0.889289,-0.0709093,-0.472817
1480528435311344,-0.889321,-0.0709008,-0.472842
1480528435329395,-0.889204,-0.0707662,-0.472888
1480528435367995,-0.889488,-0.0712332,-0.47255
1480528435379024,-0.888748,-0.0713381,-0.472303
1480528435389551,-0.888501,-0.0711098,-0.471976
1480528435416625,-0.888353,-0.0710822,-0.471969
1480528435431664,-0.88953,-0.0715238,-0.472004
1480528435449211,-0.8895,-0.0716307,-0.47195
1480528435470267,-0.889171,-0.0712129,-0.471844
1480528435491323,-0.888465,-0.0711647,-0.471802
1480528435509371,-0.888785,-0.0709626,-0.47178
1480528435530427,-0.888669,-0.0709265,-0.471797
1480528435554500,-0.888674,-0.0709785,-0.471917
1480528435569531,-0.889319,-0.0706262,-0.471994
1480528435590586,-0.889171,-0.0705986,-0.471987
1480528435611142,-0.889171,-0.0705986,-0.471987
1480528435629189,-0.889145,-0.0707576,-0.472053
1480528435657767,-0.889319,-0.0706262,-0.471994
1480528435674310,-0.889319,-0.0706262,-0.471994
1480528435689349,-0.889171,-0.0705986,-0.471987
1480528435710406,-0.889409,-0.0708213,-0.472044
1480528435731462,-0.889293,-0.0707852,-0.472061
1480528435749511,-0.889324,-0.0706783,-0.472115
1480528435772070,-0.889145,-0.0707576,-0.472053
1480528435791621,-0.889145,-0.0707576,-0.472053
1480528435809169,-0.888703,-0.0707731,-0.472001
1480528435831729,-0.888728,-0.0706142,-0.471935
1480528435851280,-0.888736,-0.0707646,-0.472026
1480528435869328,-0.888588,-0.070737,-0.472018
1480528435891890,-0.888173,-0.0706921,-0.47187
1480528435911441,-0.887756,-0.0705488,-0.471752
1480528435929991,-0.887788,-0.0705403,-0.471776
1480528435952048,-0.888019,-0.0706124,-0.471742
1480528435971600,-0.888019,-0.0706124,-0.471742
1480528435989147,-0.887372,-0.070397,-0.471658
1480528436012208,-0.886551,-0.0703129,-0.471632
1480528436031259,-0.886517,-0.0704665,-0.471429
1480528436055327,-0.886338,-0.0705459,-0.471367
1480528436076379,-0.886338,-0.0705459,-0.471367
1480528436091419,-0.887159,-0.0706299,-0.471393
1480528436109969,-0.887661,-0.0709161,-0.47144
1480528436132027,-0.888103,-0.0709004,-0.471492
1480528436153084,-0.88796,-0.0709248,-0.471605
1480528436174140,-0.887955,-0.0708728,-0.471484
1480528436191685,-0.887955,-0.0708728,-0.471484
1480528436218758,-0.888222,-0.07089,-0.471625
1480528436229287,-0.888227,-0.0709421,-0.471745
1480528436251846,-0.887087,-0.07106,-0.471742
1480528436271398,-0.887081,-0.0710081,-0.471621
1480528436293959,-0.887904,-0.0711907,-0.471617
1480528436312009,-0.887904,-0.0711907,-0.471617
1480528436331559,-0.887199,-0.0711427,-0.471575
1480528436361641,-0.887194,-0.0710907,-0.471454
1480528436371665,-0.887342,-0.0711183,-0.471462
1480528436392720,-0.887199,-0.0711427,-0.471575
1480528436413777,-0.887199,-0.0711427,-0.471575
1480528436431825,-0.887199,-0.0711427,-0.471575
1480528436453384,-0.887782,-0.0710042,-0.471543
1480528436473938,-0.887782,-0.0710042,-0.471543
1480528436491985,-0.887814,-0.0709957,-0.471568
1480528436513041,-0.887636,-0.0710751,-0.471506
1480528436534097,-0.887666,-0.0709681,-0.47156
1480528436559164,-0.888065,-0.0708569,-0.471347
1480528436572699,-0.888098,-0.0708484,-0.471372
1480528436596764,-0.888098,-0.0708484,-0.471372
1480528436611804,-0.888477,-0.0709482,-0.471345
1480528436641382,-0.888471,-0.0708961,-0.471225
1480528436653915,-0.888477,-0.0709482,-0.471345
1480528436679488,-0.888509,-0.0709397,-0.47137
1480528436707558,-0.888361,-0.0709121,-0.471362
1480528436714075,-0.888509,-0.0709397,-0.47137
1480528436731623,-0.888771,-0.0709049,-0.47139
1480528436754182,-0.88874,-0.0710118,-0.471336
1480528436773736,-0.88863,-0.0710278,-0.471473
1480528436791781,-0.888801,-0.070798,-0.471444
1480528436814343,-0.889446,-0.0704456,-0.471521
1480528436850939,-0.889743,-0.0703561,-0.471715
1480528436853446,-0.889743,-0.0703561,-0.471715
1480528436875003,-0.889781,-0.0703996,-0.47186
1480528436894054,-0.890404,-0.0701602,-0.472154
1480528436912103,-0.891251,-0.0700857,-0.472114
1480528436934161,-0.891251,-0.0700857,-0.472114
1480528436956722,-0.890662,-0.0701719,-0.472024
1480528436971761,-0.890662,-0.0701719,-0.472024
1480528436994321,-0.890979,-0.0700159,-0.471853
1480528437013873,-0.891327,-0.0702227,-0.471773
1480528437031921,-0.891327,-0.0702227,-0.471773
1480528437058992,-0.891327,-0.0702227,-0.471773
1480528437081552,-0.891327,-0.0702227,-0.471773
1480528437092082,-0.891616,-0.0701274,-0.471697
1480528437114140,-0.891618,-0.0702257,-0.471668
1480528437133692,-0.890815,-0.070446,-0.471341
1480528437151740,-0.89002,-0.0703012,-0.47122
1480528437174301,-0.89002,-0.0703012,-0.47122
1480528437193851,-0.89043,-0.0702941,-0.471248
1480528437211905,-0.89032,-0.0703101,-0.471385
1480528437233457,-0.89032,-0.0703101,-0.471385
1480528437255516,-0.890784,-0.0705529,-0.471287
1480528437272059,-0.890817,-0.0705444,-0.471312
1480528437299132,-0.890817,-0.0705444,-0.471312
1480528437315174,-0.890817,-0.0705444,-0.471312
1480528437331718,-0.891406,-0.070458,-0.471402
1480528437354278,-0.8914,-0.0704058,-0.471281
1480528437375836,-0.890847,-0.0704375,-0.471366
1480528437391878,-0.890847,-0.0704375,-0.471366
1480528437414439,-0.890847,-0.0704375,-0.471366
1480528437435495,-0.890847,-0.0704375,-0.471366
1480528437452038,-0.890847,-0.0704375,-0.471366
1480528437481617,-0.890699,-0.0704099,-0.471358
1480528437495657,-0.890699,-0.0704099,-0.471358
1480528437511697,-0.891162,-0.0701831,-0.471225
1480528437534759,-0.891162,-0.0701831,-0.471225
1480528437555313,-0.891013,-0.0701555,-0.471217
1480528437571858,-0.891395,-0.0703536,-0.471161
1480528437598929,-0.891395,-0.0703536,-0.471161
1480528437615473,-0.891395,-0.0703536,-0.471161
1480528437632017,-0.891689,-0.0703104,-0.471206
1480528437654577,-0.892166,-0.0701418,-0.471463
1480528437676636,-0.893491,-0.0698987,-0.47168
1480528437691676,-0.894024,-0.0694647,-0.471926
1480528437714236,-0.894437,-0.0689422,-0.472069
1480528437750832,-0.895148,-0.0689449,-0.472263
1480528437753340,-0.8956,-0.0689362,-0.472587
1480528437774397,-0.895748,-0.0689638,-0.472595
1480528437796961,-0.896302,-0.0689324,-0.472511
1480528437816507,-0.896123,-0.0690115,-0.472449
1480528437834055,-0.896187,-0.0688961,-0.472528
1480528437856614,-0.896187,-0.0688961,-0.472528
1480528437876668,-0.896187,-0.0688961,-0.472528
1480528437894215,-0.895437,-0.0688496,-0.472189
1480528437916774,-0.894802,-0.0689834,-0.471653
1480528437937338,-0.894378,-0.0695452,-0.47109
1480528437953372,-0.893575,-0.0698636,-0.470733
1480528437981949,-0.892793,-0.0699709,-0.47019
1480528437996988,-0.891992,-0.0702899,-0.469834
1480528438021054,-0.891886,-0.0705523,-0.469281
1480528438036092,-0.892035,-0.0705798,-0.469289
1480528438057148,-0.89163,-0.0706395,-0.469381
1480528438073692,-0.891892,-0.0706045,-0.469401
1480528438096252,-0.892571,-0.0707127,-0.46954
1480528438117308,-0.893309,-0.0706534,-0.469638
1480528438133351,-0.893075,-0.0704831,-0.469701
1480528438155911,-0.892707,-0.0703437,-0.470147
1480528438176971,-0.893356,-0.070559,-0.470232
1480528438193513,-0.893697,-0.0705658,-0.470692
1480528438216070,-0.894935,-0.0700813,-0.471011
1480528438237126,-0.895084,-0.0701089,-0.471019
1480528438261190,-0.895114,-0.0700021,-0.471073
1480528438276230,-0.894935,-0.0700813,-0.471011
1480528438296785,-0.894519,-0.070036,-0.470863
1480528438313329,-0.893869,-0.070336,-0.470664
1480528438335889,-0.892921,-0.0707254,-0.47027
1480528438364465,-0.892708,-0.0709577,-0.470004
1480528438379508,-0.892028,-0.071365,-0.469751
1480528438396550,-0.892086,-0.0711974,-0.46971
1480528438417105,-0.892465,-0.0712969,-0.469684
1480528438433650,-0.892435,-0.0714037,-0.469629
1480528438456210,-0.892287,-0.0713762,-0.469622
1480528438478773,-0.892435,-0.0714037,-0.469629
1480528438493812,-0.89205,-0.0712521,-0.469536
1480528438515868,-0.892045,-0.0711999,-0.469415
1480528438536926,-0.892457,-0.0712908,-0.469413
1480528438553468,-0.892424,-0.0712992,-0.469389
1480528438576028,-0.892542,-0.0714336,-0.469342
1480528438597084,-0.892542,-0.0714336,-0.469342
1480528438613629,-0.892542,-0.0714336,-0.469342
1480528438643708,-0.892427,-0.0713976,-0.469359
1480528438658747,-0.892427,-0.0713976,-0.469359
1480528438686823,-0.892427,-0.0713976,-0.469359
1480528438695848,-0.892427,-0.0713976,-0.469359
1480528438718407,-0.892278,-0.0713702,-0.469352
1480528438732947,-0.892284,-0.0714224,-0.469472
1480528438756007,-0.892278,-0.0713702,-0.469352
1480528438778567,-0.892284,-0.0714224,-0.469472
1480528438792604,-0.892135,-0.0713949,-0.469464
1480528438816167,-0.892284,-0.0714224,-0.469472
1480528438838727,-0.891426,-0.0713937,-0.469272
1480528438852764,-0.89131,-0.0713578,-0.469289
1480528438875826,-0.89178,-0.0716521,-0.469311
1480528438898386,-0.891813,-0.0716437,-0.469336
1480528438920946,-0.891101,-0.0715441,-0.469173
1480528438935986,-0.891131,-0.0714372,-0.469227
1480528438966065,-0.891486,-0.0716956,-0.469267
1480528438979605,-0.891873,-0.0719456,-0.469331
1480528439003666,-0.891026,-0.0720213,-0.469371
1480528439026225,-0.891026,-0.0720213,-0.469371
1480528439032743,-0.891026,-0.0720213,-0.469371
1480528439055804,-0.891026,-0.0720213,-0.469371
1480528439080369,-0.890847,-0.0721007,-0.46931
1480528439099420,-0.890442,-0.0721605,-0.469402
1480528439115964,-0.890055,-0.0719105,-0.469338
1480528439138525,-0.890055,-0.0719105,-0.469338
1480528439159580,-0.889909,-0.0719815,-0.469301
1480528439176125,-0.889352,-0.0719617,-0.469266
1480528439198685,-0.889352,-0.0719617,-0.469266
1480528439219740,-0.889352,-0.0719617,-0.469266
1480528439235783,-0.889352,-0.0719617,-0.469266
1480528439264861,-0.889203,-0.0719342,-0.469259
1480528439282407,-0.889203,-0.0719342,-0.469259
1480528439309479,-0.889869,-0.0719842,-0.469007
1480528439318503,-0.889874,-0.0720364,-0.469127
1480528439347079,-0.889876,-0.0721349,-0.469097
1480528439356103,-0.889728,-0.0721074,-0.46909
1480528439384679,-0.889728,-0.0721074,-0.46909
1480528439407239,-0.890072,-0.0717457,-0.469002
1480528439415762,-0.890042,-0.0718527,-0.468948
1480528439438321,-0.890042,-0.0718527,-0.468948
1480528439459377,-0.890474,-0.0717323,-0.46876
1480528439475923,-0.890474,-0.0717323,-0.46876
1480528439498483,-0.890474,-0.0717323,-0.46876
1480528439519542,-0.890364,-0.0717486,-0.468897
1480528439535581,-0.890364,-0.0717486,-0.468897
1480528439560147,-0.890326,-0.0717048,-0.468752
1480528439581703,-0.890326,-0.0717048,-0.468752
1480528439595741,-0.890358,-0.0716964,-0.468777
1480528439618305,-0.890215,-0.0717211,-0.468889
1480528439663922,-0.89021,-0.0716689,-0.468769
1480528439666429,-0.89021,-0.0716689,-0.468769
1480528439684477,-0.890092,-0.0715345,-0.468816
1480528439701021,-0.890336,-0.0718091,-0.468992
1480528439716061,-0.890336,-0.0718091,-0.468992
1480528439738621,-0.890485,-0.0718366,-0.469
1480528439761181,-0.890336,-0.0718091,-0.468992
1480528439775218,-0.890402,-0.0716474,-0.469221
1480528439798279,-0.89096,-0.0716673,-0.469256
