timestamp,x,y,z
1480686688537868,-0.166504,-0.683105,0.767578
1480686688567447,-0.163086,-0.672363,0.763184
1480686688599032,-0.160645,-0.662598,0.769043
1480686688601538,-0.154297,-0.668457,0.77002
1480686688626103,-0.157227,-0.693359,0.759766
1480686688650167,-0.155273,-0.700684,0.759766
1480686688681751,-0.157715,-0.687988,0.76709
1480686688709826,-0.155273,-0.669922,0.764648
1480686688725870,-0.153809,-0.66748,0.763672
1480686688734391,-0.156738,-0.678223,0.758789
1480686688754946,-0.157715,-0.688965,0.759277
1480686688769985,-0.161621,-0.690918,0.764648
1480686688777004,-0.164063,-0.67041,0.758789
1480686688800066,-0.155762,-0.666504,0.766113
1480686688822626,-0.156738,-0.671387,0.755371
1480686688846189,-0.152344,-0.681152,0.757324
1480686688860227,-0.163574,-0.692871,0.753418
1480686688892311,-0.164551,-0.697266,0.758301
1480686688903842,-0.153809,-0.688965,0.763672
1480686688935933,-0.149902,-0.67041,0.757324
1480686688958994,-0.152344,-0.677734,0.759766
1480686688974035,-0.152832,-0.688477,0.751465
1480686688980049,-0.15625,-0.693359,0.759766
1480686689002609,-0.164551,-0.685547,0.758789
1480686689047228,-0.15918,-0.675293,0.762207
1480686689054247,-0.156738,-0.668945,0.763184
1480686689064273,-0.158203,-0.662109,0.76123
1480686689083825,-0.159668,-0.686035,0.757324
1480686689100369,-0.161621,-0.700195,0.758301
1480686689122929,-0.157227,-0.683105,0.757324
1480686689143986,-0.15918,-0.669922,0.76123
1480686689167049,-0.162109,-0.664063,0.765625
1480686689189105,-0.152832,-0.678223,0.762695
1480686689212669,-0.15918,-0.689941,0.765625
1480686689227708,-0.160645,-0.690918,0.757324
1480686689251772,-0.158691,-0.678711,0.762207
1480686689264306,-0.163086,-0.668457,0.761719
1480686689282855,-0.160645,-0.661133,0.76123
1480686689302908,-0.155762,-0.680176,0.763184
1480686689325469,-0.166992,-0.6875,0.763184
1480686689353545,-0.164063,-0.703613,0.777344
1480686689362570,-0.145996,-0.621094,0.765137
1480686689391143,-0.17334,-0.667969,0.767578
1480686689400167,-0.156738,-0.677734,0.754883
1480686689425234,-0.151855,-0.692871,0.763184
1480686689443783,-0.155762,-0.686523,0.765137
1480686689460327,-0.159668,-0.67334,0.77832
1480686689482888,-0.157715,-0.660645,0.771484
1480686689505447,-0.152344,-0.674805,0.766113
1480686689526503,-0.15332,-0.685059,0.760742
1480686689543047,-0.160156,-0.698242,0.754395
1480686689565608,-0.164063,-0.688965,0.766113
1480686689582151,-0.162598,-0.671387,0.760742
1480686689610226,-0.163086,-0.665527,0.766113
1480686689624764,-0.162598,-0.673828,0.76709
1480686689640305,-0.163574,-0.682129,0.761719
1480686689663370,-0.163574,-0.680176,0.763672
1480686689690941,-0.172852,-0.686035,0.772949
1480686689703476,-0.161621,-0.669922,0.765137
1480686689729047,-0.160156,-0.666504,0.768555
1480686689790707,-0.162598,-0.660645,0.765625
1480686689795719,-0.166016,-0.671875,0.770508
1480686689807750,-0.169434,-0.675781,0.766113
1480686689819782,-0.163086,-0.671875,0.76416
1480686689842843,-0.15918,-0.671387,0.76416
1480686689865404,-0.157715,-0.675293,0.76416
1480686689902502,-0.164551,-0.686523,0.762207
1480686689909521,-0.164063,-0.687012,0.76709
1480686689926065,-0.162598,-0.671875,0.76709
1480686689939601,-0.158691,-0.661621,0.763672
1480686689962666,-0.15332,-0.665527,0.766602
1480686689985724,-0.15918,-0.675293,0.76123
1480686690016305,-0.156738,-0.686035,0.771484
1480686690038366,-0.160156,-0.684082,0.763672
1480686690046887,-0.158691,-0.678711,0.769531
1480686690067942,-0.155273,-0.67334,0.758789
1480686690082982,-0.149414,-0.670898,0.761719
1480686690112561,-0.153809,-0.674316,0.76123
1480686690135128,-0.160156,-0.677734,0.768555
1480686690143142,-0.15918,-0.681152,0.768066
1480686690165201,-0.153809,-0.674316,0.766113
1480686690186256,-0.154785,-0.668945,0.762207
1480686690202801,-0.154297,-0.675781,0.767578
1480686690224864,-0.155273,-0.684082,0.765137
1480686690247420,-0.161133,-0.688965,0.770508
1480686690276497,-0.160156,-0.67627,0.764648
1480686690285020,-0.150879,-0.66748,0.764648
1480686690323121,-0.157227,-0.671387,0.764648
1480686690325628,-0.155762,-0.678223,0.765625
1480686690345180,-0.15918,-0.69043,0.772461
1480686690366236,-0.157715,-0.687988,0.769043
1480686690388796,-0.151855,-0.671387,0.766113
1480686690413361,-0.131836,-0.666992,0.752441
1480686690433916,-0.161133,-0.64209,0.770508
1480686690442940,-0.161133,-0.668945,0.763672
1480686690464999,-0.160645,-0.695313,0.762695
1480686690486556,-0.169434,-0.688477,0.750977
1480686690524657,-0.166992,-0.674805,0.76123
1480686690538695,-0.151855,-0.671875,0.771973
1480686690548220,-0.155762,-0.65625,0.772461
1480686690562258,-0.157715,-0.671387,0.771484
1480686690600358,-0.161621,-0.691895,0.76709
1480686690623921,-0.164063,-0.695313,0.765625
1480686690636454,-0.157715,-0.668945,0.762695
1480686690647484,-0.160156,-0.654785,0.767578
1480686690667536,-0.160645,-0.666504,0.769043
1480686690690097,-0.164063,-0.68457,0.77002
1480686690712658,-0.164551,-0.692871,0.76709
1480686690727697,-0.159668,-0.673828,0.768555
1480686690742235,-0.151855,-0.662598,0.769531
1480686690765296,-0.153809,-0.660645,0.774902
1480686690787857,-0.163086,-0.675781,0.770996
1480686690802395,-0.166016,-0.679688,0.76416
1480686690832977,-0.164063,-0.676758,0.759766
1480686690856038,-0.15918,-0.67334,0.767578
1480686690862057,-0.158691,-0.65918,0.774414
1480686690892635,-0.152344,-0.654785,0.780273
1480686690922715,-0.148438,-0.664551,0.771484
1480686690925222,-0.146484,-0.681152,0.77832
1480686690946782,-0.143066,-0.679688,0.774902
1480686690968337,-0.135742,-0.666504,0.783203
1480686690981873,-0.131836,-0.656738,0.786621
1480686691005435,-0.133789,-0.666016,0.78125
1480686691027495,-0.135742,-0.681152,0.772949
1480686691048550,-0.144043,-0.688965,0.776367
1480686691066096,-0.144531,-0.677734,0.772949
1480686691111718,-0.140625,-0.660156,0.774414
1480686691148315,-0.145508,-0.661621,0.77002
1480686691150823,-0.148926,-0.675781,0.763184
1480686691155835,-0.147949,-0.682617,0.771973
1480686691176390,-0.160645,-0.676758,0.773438
1480686691200956,-0.152832,-0.663574,0.771973
1480686691216496,-0.155273,-0.65918,0.771973
1480686691245574,-0.160645,-0.657715,0.775879
1480686691251590,-0.155273,-0.671387,0.777344
1480686691275153,-0.166504,-0.675293,0.772949
1480686691288689,-0.169922,-0.666992,0.77832
1480686691305233,-0.167969,-0.652832,0.778809
1480686691328294,-0.159668,-0.644531,0.777832
1480686691351355,-0.155273,-0.645996,0.780762
1480686691371409,-0.155762,-0.67041,0.783203
1480686691409509,-0.161133,-0.675293,0.779785
1480686691455633,-0.168457,-0.666016,0.770996
1480686691458140,-0.160156,-0.65625,0.770996
1480686691479196,-0.16748,-0.649414,0.772949
1480686691484711,-0.178711,-0.657715,0.779785
1480686691508773,-0.176758,-0.661621,0.776367
1480686691530331,-0.162109,-0.657227,0.789551
1480686691545874,-0.156738,-0.64502,0.789063
1480686691568433,-0.159668,-0.647949,0.786133
1480686691598512,-0.157715,-0.667969,0.775879
1480686691621073,-0.146484,-0.692383,0.777832
1480686691629596,-0.155273,-0.678223,0.784668
1480686691650150,-0.166992,-0.651367,0.789551
1480686691664691,-0.172852,-0.63916,0.777832
1480686691689755,-0.166504,-0.65625,0.771484
1480686691710811,-0.17627,-0.664551,0.776855
1480686691733371,-0.187012,-0.664063,0.771484
1480686691754928,-0.190918,-0.649902,0.766113
1480686691777488,-0.17041,-0.621582,0.775391
1480686691798544,-0.176758,-0.661133,0.776367
1480686691807569,-0.168457,-0.662598,0.782227
1480686691830128,-0.152832,-0.658691,0.79541
1480686691851184,-0.147949,-0.668945,0.791992
1480686691875248,-0.145996,-0.669434,0.796387
1480686691891793,-0.138672,-0.653809,0.792969
1480686691911344,-0.150879,-0.645508,0.790039
1480686691941928,-0.153809,-0.652344,0.787598
1480686691966492,-0.165527,-0.665039,0.78125
1480686691988048,-0.166504,-0.666504,0.774414
1480686691990556,-0.172852,-0.651855,0.781738
1480686692011611,-0.166504,-0.645508,0.781738
1480686692031163,-0.166504,-0.650391,0.776367
1480686692049211,-0.172852,-0.657227,0.775879
1480686692077286,-0.182617,-0.666504,0.774414
1480686692098843,-0.181152,-0.657227,0.801758
1480686692107867,-0.168945,-0.634766,0.785156
1480686692129928,-0.171875,-0.626953,0.78125
1480686692152486,-0.179199,-0.65918,0.770996
1480686692176049,-0.182129,-0.668945,0.773926
1480686692196101,-0.19043,-0.665039,0.772461
1480686692242224,-0.183594,-0.651855,0.786621
1480686692265789,-0.169434,-0.637207,0.783203
1480686692269297,-0.171387,-0.63623,0.786133
1480686692289851,-0.177246,-0.65332,0.783203
1480686692311409,-0.169922,-0.662598,0.79834
1480686692316421,-0.172363,-0.659668,0.783691
1480686692332465,-0.164551,-0.65332,0.779785
1480686692362545,-0.163574,-0.650391,0.790527
1480686692370064,-0.166504,-0.647461,0.788574
1480686692391120,-0.172852,-0.660156,0.785645
1480686692407665,-0.175781,-0.667969,0.785645
1480686692430726,-0.169922,-0.659668,0.782715
1480686692453285,-0.174805,-0.650879,0.779297
1480686692475346,-0.177734,-0.639648,0.772949
1480686692520966,-0.177246,-0.651855,0.78125
1480686692522971,-0.176758,-0.657715,0.782227
1480686692545029,-0.181152,-0.657227,0.787109
1480686692565083,-0.176758,-0.64209,0.787109
1480686692589146,-0.166992,-0.628906,0.790527
1480686692593659,-0.173828,-0.637207,0.787598
1480686692610203,-0.166504,-0.65332,0.790527
1480686692633765,-0.173828,-0.666504,0.78125
1480686692655323,-0.178711,-0.665039,0.790039
1480686692677888,-0.177246,-0.651855,0.782715
1480686692692923,-0.168457,-0.632813,0.788086
1480686692707463,-0.172852,-0.635742,0.785645
1480686692731024,-0.179688,-0.651855,0.784668
1480686692753083,-0.181641,-0.66748,0.780762
1480686692775643,-0.17627,-0.658203,0.785645
1480686692797701,-0.172363,-0.643066,0.788086
1480686692820763,-0.170898,-0.635742,0.782715
1480686692842831,-0.172363,-0.646973,0.790039
1480686692865382,-0.171387,-0.656738,0.791992
1480686692872902,-0.180664,-0.665039,0.782715
1480686692888944,-0.183594,-0.657715,0.780273
1480686692910502,-0.17041,-0.649414,0.788086
1480686692933061,-0.170898,-0.641113,0.789063
1480686692953616,-0.170898,-0.645996,0.791504
1480686692970161,-0.179688,-0.652344,0.791504
1480686692993222,-0.176758,-0.651367,0.793457
1480686693013775,-0.180664,-0.632324,0.789063
1480686693030321,-0.180176,-0.63623,0.78125
1480686693052881,-0.17041,-0.637695,0.785156
1480686693074939,-0.179199,-0.650391,0.784668
1480686693097499,-0.179199,-0.661133,0.787109
1480686693120058,-0.182617,-0.660156,0.786621
1480686693141114,-0.177246,-0.64502,0.791992
1480686693151141,-0.17041,-0.647949,0.79248
1480686693172699,-0.174805,-0.643555,0.786133
1480686693193756,-0.186035,-0.659668,0.783691
1480686693210805,-0.185059,-0.666992,0.78125
1480686693232858,-0.182129,-0.658203,0.781738
1480686693261460,-0.180664,-0.647949,0.780273
1480686693284997,-0.175293,-0.624512,0.788086
1480686693308560,-0.17627,-0.630859,0.792969
1480686693330620,-0.183594,-0.652832,0.785645
1480686693333125,-0.187012,-0.65918,0.791016
1480686693355184,-0.178223,-0.644043,0.77832
1480686693375739,-0.178223,-0.634766,0.785645
1480686693397797,-0.178223,-0.634766,0.784668
1480686693420357,-0.185059,-0.63916,0.783203
1480686693442416,-0.194824,-0.649414,0.780273
1480686693449936,-0.188477,-0.652832,0.782227
1480686693472497,-0.185547,-0.647461,0.780762
1480686693495056,-0.185547,-0.638672,0.785156
1480686693509594,-0.172852,-0.639648,0.789551
1480686693540176,-0.177734,-0.658203,0.78125
1480686693562736,-0.177246,-0.672852,0.779297
1480686693585296,-0.175781,-0.664551,0.785645
1480686693598331,-0.166016,-0.64209,0.783203
1480686693620890,-0.17334,-0.638672,0.782715
1480686693654981,-0.180664,-0.647461,0.785645
1480686693676049,-0.183594,-0.658203,0.783203
1480686693678043,-0.188965,-0.655762,0.789063
1480686693699099,-0.183594,-0.646484,0.791016
1480686693720154,-0.176758,-0.636719,0.783203
1480686693741210,-0.179688,-0.633301,0.784668
1480686693749733,-0.179199,-0.645996,0.783203
1480686693772795,-0.18457,-0.65332,0.789063
1480686693795355,-0.185059,-0.654785,0.78418
1480686693817413,-0.178223,-0.645996,0.788086
1480686693839973,-0.17334,-0.64209,0.787598
1480686693862533,-0.174805,-0.638672,0.786621
1480686693876070,-0.177246,-0.652832,0.789551
1480686693907653,-0.180664,-0.661133,0.783203
1480686693930715,-0.181152,-0.655762,0.785156
1480686693953276,-0.178711,-0.643066,0.782227
1480686693955781,-0.169434,-0.63623,0.787109
1480686693975333,-0.173828,-0.647461,0.78125
1480686693997392,-0.180176,-0.663086,0.780273
1480686694020453,-0.185547,-0.664063,0.781738
1480686694034991,-0.181641,-0.649902,0.790039
1480686694056048,-0.174316,-0.638184,0.787598
1480686694072592,-0.17334,-0.633789,0.789063
1480686694095653,-0.171875,-0.653809,0.787598
1480686694119215,-0.178711,-0.668945,0.788086
1480686694140272,-0.177246,-0.657227,0.782227
1480686694155814,-0.176758,-0.646484,0.782715
1480686694183889,-0.176758,-0.636719,0.787598
1480686694207450,-0.172363,-0.639648,0.787109
1480686694231014,-0.170898,-0.654785,0.788574
1480686694236026,-0.181152,-0.65625,0.78418
1480686694252570,-0.182129,-0.653809,0.78418
1480686694275631,-0.177734,-0.64502,0.78125
1480686694298191,-0.174316,-0.640137,0.78418
1480686694313231,-0.175781,-0.646484,0.78125
1480686694335290,-0.178711,-0.663086,0.779785
1480686694373893,-0.180664,-0.660156,0.780762
1480686694395951,-0.178223,-0.65332,0.783203
1480686694398459,-0.177734,-0.640625,0.788086
1480686694417509,-0.17334,-0.640625,0.784668
1480686694432549,-0.174805,-0.650879,0.786621
1480686694456111,-0.181641,-0.655273,0.780273
1480686694485189,-0.17334,-0.654785,0.786133
1480686694507749,-0.180664,-0.647949,0.790039
1480686694515269,-0.181641,-0.638184,0.779785
1480686694537829,-0.172363,-0.643555,0.782227
1480686694553370,-0.17334,-0.650391,0.779785
1480686694575429,-0.184082,-0.662598,0.782227
1480686694597488,-0.182129,-0.660156,0.78125
1480686694626064,-0.180176,-0.647949,0.77832
1480686694651131,-0.177246,-0.637695,0.778809
1480686694657648,-0.175293,-0.63916,0.787598
1480686694673691,-0.178223,-0.657227,0.78125
1480686694696751,-0.181641,-0.658691,0.781738
1480686694718309,-0.178711,-0.65332,0.788086
1480686694741370,-0.174805,-0.639648,0.786133
1480686694762426,-0.174805,-0.63916,0.779297
1480686694785488,-0.175781,-0.643066,0.783203
1480686694792005,-0.178711,-0.662598,0.786133
1480686694830108,-0.181641,-0.656738,0.792969
1480686694837626,-0.183594,-0.646484,0.788086
1480686694858683,-0.17627,-0.630859,0.79248
1480686694882746,-0.177246,-0.634766,0.781738
1480686694898288,-0.184082,-0.643066,0.781738
1480686694926362,-0.179688,-0.656738,0.78418
1480686694948921,-0.185059,-0.655762,0.786621
1480686694964965,-0.178711,-0.64502,0.791992
1480686694986021,-0.171387,-0.630859,0.791504
1480686694995047,-0.17041,-0.641602,0.788574
1480686695018106,-0.182129,-0.646973,0.782227
1480686695038660,-0.182617,-0.657227,0.782227
1480686695062725,-0.187012,-0.65625,0.787109
1480686695085285,-0.183594,-0.644531,0.784668
1480686695106340,-0.177734,-0.635254,0.777832
1480686695128402,-0.178223,-0.645508,0.782715
1480686695138928,-0.181641,-0.653809,0.790039
1480686695159983,-0.177246,-0.65918,0.790039
1480686695174522,-0.183594,-0.645508,0.783691
1480686695206106,-0.178223,-0.63623,0.788574
1480686695219141,-0.177246,-0.636719,0.782227
1480686695250223,-0.176758,-0.643066,0.787598
1480686695263257,-0.180664,-0.65332,0.790527
1480686695296346,-0.185059,-0.655273,0.788574
1480686695318405,-0.187012,-0.647461,0.79248
1480686695320410,-0.175781,-0.633301,0.787598
1480686695341465,-0.182129,-0.629395,0.785645
1480686695362522,-0.180664,-0.644043,0.782715
1480686695385081,-0.186523,-0.654297,0.789551
1480686695417167,-0.185059,-0.649902,0.787109
1480686695438223,-0.182617,-0.641113,0.789063
1480686695440733,-0.178711,-0.632324,0.784668
1480686695460282,-0.178711,-0.641113,0.78125
1480686695482842,-0.184082,-0.650879,0.787109
1480686695503897,-0.183594,-0.65625,0.780273
1480686695520441,-0.186523,-0.654297,0.791504
1480686695535482,-0.177734,-0.644043,0.77832
1480686695565060,-0.177246,-0.636719,0.788086
1480686695596645,-0.177734,-0.647461,0.787598
1480686695618202,-0.18457,-0.655273,0.784668
1480686695620709,-0.18457,-0.655273,0.789551
1480686695641765,-0.180664,-0.646973,0.785645
1480686695662820,-0.17334,-0.644531,0.785156
1480686695691397,-0.171875,-0.639648,0.784668
1480686695699919,-0.180176,-0.643555,0.786133
1480686695714457,-0.187988,-0.662109,0.791016
1480686695737519,-0.185547,-0.650879,0.786133
1480686695761085,-0.180176,-0.645996,0.788086
1480686695781135,-0.182617,-0.633301,0.78418
1480686695805199,-0.180176,-0.639648,0.786621
1480686695820239,-0.184082,-0.650879,0.786621
1480686695850319,-0.182129,-0.662598,0.789551
1480686695872879,-0.182617,-0.647461,0.789063
1480686695895940,-0.178223,-0.63623,0.782227
1480686695900954,-0.180664,-0.633301,0.785645
1480686695919001,-0.183105,-0.643555,0.783203
1480686695940058,-0.180664,-0.655273,0.785645
1480686695970138,-0.179199,-0.664551,0.785645
1480686695977658,-0.18457,-0.648926,0.784668
1480686696006234,-0.178223,-0.633301,0.783203
1480686696038318,-0.178223,-0.62793,0.785645
1480686696040825,-0.181641,-0.646973,0.788086
1480686696061380,-0.179199,-0.661133,0.79541
1480686696081433,-0.186035,-0.659668,0.789063
1480686696105497,-0.182617,-0.638672,0.783691
1480686696126052,-0.174805,-0.627441,0.796875
1480686696150116,-0.172363,-0.641113,0.787109
1480686696172676,-0.178223,-0.650391,0.78418
1480686696195737,-0.182617,-0.656738,0.790039
1480686696201252,-0.183594,-0.647461,0.78418
1480686696218798,-0.186035,-0.642578,0.790527
1480686696248378,-0.173828,-0.63623,0.781738
1480686696263417,-0.178223,-0.639648,0.784668
1480686696277456,-0.183105,-0.651855,0.789063
1480686696300014,-0.184082,-0.659668,0.78418
1480686696323076,-0.177246,-0.655762,0.787109
1480686696338117,-0.175293,-0.640625,0.789063
1480686696360175,-0.17334,-0.630859,0.791504
1480686696382735,-0.175293,-0.639648,0.786621
1480686696405295,-0.176758,-0.661621,0.785156
1480686696427854,-0.179199,-0.658203,0.786621
1480686696450414,-0.182129,-0.649414,0.784668
1480686696472473,-0.165527,-0.63916,0.78125
1480686696479994,-0.17334,-0.638184,0.788574
1480686696502553,-0.175293,-0.651367,0.790039
1480686696517593,-0.182129,-0.661133,0.788086
1480686696540655,-0.178711,-0.656738,0.783691
1480686696562713,-0.175293,-0.643555,0.786133
1480686696578254,-0.180664,-0.635254,0.783203
1480686696613850,-0.179199,-0.636719,0.783203
1480686696622873,-0.182129,-0.65332,0.782715
1480686696636911,-0.174805,-0.660645,0.778809
1480686696660978,-0.178711,-0.647949,0.792969
1480686696683033,-0.175293,-0.630371,0.790527
1480686696705593,-0.175781,-0.638672,0.78418
1480686696727653,-0.168945,-0.652832,0.785156
1480686696750211,-0.174316,-0.656738,0.790527
1480686696771769,-0.174316,-0.666992,0.784668
1480686696780292,-0.181152,-0.648926,0.786133
1480686696802853,-0.183105,-0.63623,0.791016
1480686696823908,-0.174316,-0.632324,0.782227
1480686696840452,-0.177734,-0.646973,0.782227
1480686696870032,-0.18457,-0.662109,0.786621
1480686696891086,-0.181152,-0.657227,0.787109
1480686696900111,-0.179688,-0.643066,0.782715
1480686696922673,-0.174805,-0.630859,0.777832
1480686696960774,-0.173828,-0.650879,0.781738
1480686696963279,-0.176758,-0.657715,0.784668
1480686696984334,-0.180664,-0.652832,0.785156
1480686697005391,-0.177734,-0.648926,0.790527
1480686697051513,-0.169922,-0.642578,0.791504
1480686697073071,-0.17041,-0.639648,0.790527
1480686697075577,-0.169922,-0.649902,0.788574
1480686697082095,-0.17334,-0.661133,0.790039
1480686697102649,-0.184082,-0.662109,0.785156
1480686697123706,-0.181152,-0.654297,0.784668
1480686697147769,-0.178223,-0.64209,0.786621
1480686697163310,-0.171875,-0.638672,0.783691
1480686697185372,-0.177246,-0.651367,0.782227
1480686697199908,-0.177734,-0.658691,0.783691
1480686697237508,-0.183105,-0.651855,0.784668
1480686697261572,-0.1875,-0.644043,0.788086
1480686697283128,-0.174316,-0.63623,0.785156
1480686697286638,-0.171875,-0.640137,0.78125
1480686697305689,-0.178711,-0.65332,0.787598
1480686697327751,-0.179688,-0.666992,0.787109
1480686697350307,-0.180664,-0.660645,0.785156
1480686697365347,-0.17334,-0.646484,0.77832
1480686697379385,-0.17334,-0.639648,0.786133
1480686697402446,-0.176758,-0.64209,0.784668
1480686697425507,-0.177734,-0.655762,0.780273
1480686697447567,-0.181641,-0.662109,0.790527
1480686697462606,-0.181152,-0.651367,0.781738
1480686697485668,-0.183594,-0.637695,0.785645
1480686697514243,-0.18457,-0.632813,0.779785
1480686697539310,-0.185547,-0.646484,0.782227
1480686697561369,-0.181152,-0.662598,0.779297
1480686697584430,-0.179688,-0.662109,0.784668
1480686697586436,-0.180664,-0.650391,0.787109
1480686697606490,-0.175293,-0.633301,0.790039
1480686697620025,-0.165039,-0.638672,0.784668
1480686697652110,-0.172363,-0.658203,0.780273
1480686697666149,-0.172363,-0.664551,0.791016
1480686697686703,-0.183594,-0.657227,0.791992
1480686697704249,-0.176758,-0.645996,0.789551
1480686697726809,-0.170898,-0.633789,0.784668
1480686697746361,-0.178711,-0.648926,0.782227
1480686697762404,-0.181152,-0.657715,0.785156
1480686697792985,-0.185547,-0.658691,0.780762
1480686697813540,-0.181641,-0.65625,0.78418
1480686697838606,-0.17627,-0.643555,0.785156
1480686697860665,-0.176758,-0.632324,0.787109
1480686697866180,-0.180176,-0.645996,0.779785
1480686697884229,-0.185547,-0.659668,0.783203
1480686697905786,-0.183594,-0.658691,0.786621
1480686697927843,-0.180664,-0.646484,0.789063
1480686697942884,-0.177246,-0.633789,0.786621
1480686697971459,-0.173828,-0.637695,0.790527
1480686697985998,-0.174316,-0.647461,0.788574
1480686698003044,-0.175781,-0.659668,0.788086
1480686698025102,-0.179199,-0.656738,0.785156
1480686698046157,-0.179199,-0.645508,0.787598
1480686698070222,-0.178711,-0.641113,0.780762
1480686698092783,-0.17334,-0.644043,0.783203
1480686698115342,-0.182129,-0.651367,0.783691
1480686698137902,-0.184082,-0.664063,0.785156
1480686698160464,-0.185059,-0.658691,0.778809
1480686698184024,-0.181641,-0.642578,0.779297
1480686698187535,-0.177246,-0.630859,0.780762
1480686698206084,-0.177734,-0.643555,0.780762
1480686698227642,-0.177246,-0.658691,0.790039
1480686698251204,-0.17627,-0.662598,0.779297
1480686698271256,-0.177246,-0.649902,0.783691
1480686698287300,-0.173828,-0.645996,0.782227
1480686698303342,-0.170898,-0.642578,0.783203
1480686698325401,-0.176758,-0.649414,0.780273
1480686698348462,-0.180176,-0.655762,0.783203
1480686698370521,-0.182129,-0.654785,0.782715
1480686698393081,-0.182617,-0.644043,0.783691
1480686698417145,-0.172363,-0.641113,0.785156
1480686698423160,-0.172852,-0.644043,0.782715
1480686698451736,-0.17627,-0.657227,0.783203
1480686698467779,-0.178223,-0.659668,0.782715
1480686698481816,-0.185059,-0.652344,0.783691
1480686698505881,-0.178223,-0.640137,0.786621
1480686698534958,-0.172852,-0.63916,0.777832
1480686698541976,-0.17627,-0.646973,0.774902
1480686698565038,-0.177246,-0.662109,0.779297
1480686698595118,-0.180176,-0.662598,0.782715
1480686698616176,-0.177734,-0.654785,0.786621
1480686698625198,-0.177246,-0.641602,0.783691
1480686698649763,-0.176758,-0.63916,0.782715
1480686698670819,-0.179199,-0.649902,0.781738
1480686698692878,-0.175293,-0.662598,0.785156
1480686698714936,-0.173828,-0.66748,0.786621
1480686698736995,-0.178711,-0.648438,0.793945
1480686698746019,-0.172363,-0.629395,0.790527
1480686698767576,-0.174805,-0.63916,0.786621
1480686698789133,-0.182617,-0.651855,0.780762
1480686698812696,-0.189453,-0.662109,0.775391
1480686698835256,-0.185547,-0.65332,0.779297
1480686698856312,-0.182617,-0.640625,0.783203
1480686698865838,-0.171875,-0.634766,0.786133
1480686698903938,-0.176758,-0.640625,0.785156
1480686698916473,-0.183594,-0.661133,0.783691
1480686698926499,-0.1875,-0.658691,0.783203
1480686698948057,-0.188477,-0.650391,0.781738
1480686698970617,-0.176758,-0.655762,0.78125
1480686698992676,-0.17627,-0.641113,0.783203
1480686699015234,-0.175781,-0.643555,0.786621
1480686699028270,-0.183105,-0.653809,0.784668
1480686699045314,-0.182617,-0.666016,0.780762
1480686699090436,-0.185059,-0.657715,0.780762
1480686699105475,-0.180664,-0.638672,0.772949
1480686699110991,-0.174805,-0.646484,0.775391
1480686699127534,-0.179199,-0.657227,0.778809
1480686699150594,-0.185059,-0.664551,0.778809
1480686699172653,-0.180176,-0.658203,0.782715
1480686699203736,-0.182617,-0.648438,0.77832
1480686699227303,-0.179688,-0.645508,0.779297
1480686699248355,-0.176758,-0.645996,0.776855
1480686699250360,-0.172852,-0.656738,0.775879
1480686699272419,-0.181641,-0.672852,0.776367
1480686699293475,-0.180176,-0.669922,0.782227
1480686699313529,-0.170898,-0.656738,0.777832
1480686699330072,-0.163574,-0.644531,0.780762
1480686699352632,-0.162598,-0.654297,0.772461
1480686699367672,-0.174805,-0.671387,0.777832
1480686699390233,-0.180176,-0.669434,0.777832
1480686699412792,-0.17334,-0.664551,0.771973
1480686699435352,-0.168945,-0.652832,0.775879
1480686699457411,-0.168945,-0.643555,0.775879
1480686699479971,-0.177246,-0.642578,0.779297
1480686699504035,-0.179688,-0.670898,0.771973
1480686699526598,-0.180176,-0.67334,0.773926
1480686699548155,-0.177734,-0.652832,0.77832
1480686699550659,-0.171387,-0.648926,0.782715
1480686699577230,-0.172363,-0.645508,0.78125
1480686699594277,-0.172852,-0.657715,0.778809
1480686699607810,-0.175781,-0.667969,0.779297
1480686699630370,-0.175781,-0.665527,0.779297
1480686699650925,-0.171387,-0.662598,0.778809
1480686699668473,-0.166016,-0.652344,0.780273
1480686699691033,-0.170898,-0.65332,0.78125
1480686699712589,-0.17334,-0.665527,0.780762
1480686699735149,-0.171875,-0.672363,0.776367
1480686699757710,-0.171875,-0.667969,0.775391
1480686699780269,-0.174316,-0.652832,0.774902
1480686699789294,-0.16748,-0.650879,0.776367
1480686699810350,-0.169922,-0.658203,0.778809
1480686699832408,-0.175293,-0.671875,0.773438
1480686699878029,-0.174805,-0.670898,0.780762
1480686699880536,-0.177734,-0.655273,0.779297
1480686699891064,-0.17334,-0.646973,0.772461
1480686699908112,-0.166992,-0.650879,0.774414
1480686699945710,-0.168945,-0.667969,0.774414
1480686699950723,-0.172852,-0.676758,0.777832
1480686699975789,-0.166992,-0.670898,0.778809
1480686699990830,-0.168457,-0.657227,0.779785
1480686700012890,-0.166992,-0.65918,0.765625
1480686700036450,-0.158691,-0.665039,0.769531
1480686700082071,-0.160156,-0.668457,0.775879
1480686700086083,-0.172852,-0.675781,0.772461
1480686700104130,-0.172852,-0.675781,0.777344
1480686700110148,-0.163574,-0.657227,0.776855
1480686700132707,-0.158203,-0.649902,0.776367
1480686700147747,-0.164551,-0.65625,0.770508
1480686700170306,-0.171875,-0.67627,0.776855
1480686700201389,-0.173828,-0.677734,0.769531
1480686700206904,-0.168457,-0.671387,0.766602
1480686700229969,-0.166016,-0.658691,0.773926
1480686700252525,-0.16748,-0.65625,0.778809
1480686700267064,-0.160645,-0.663574,0.77002
1480686700292131,-0.165527,-0.677246,0.77002
1480686700313186,-0.169922,-0.680176,0.783691
1480686700335245,-0.174805,-0.660645,0.772949
1480686700357805,-0.164063,-0.655273,0.773438
1480686700380365,-0.159668,-0.656738,0.769531
1480686700410946,-0.169922,-0.67041,0.773438
1480686700412952,-0.182617,-0.672852,0.773438
1480686700432504,-0.181152,-0.665527,0.766602
1480686700447043,-0.168457,-0.661621,0.771484
1480686700478125,-0.164551,-0.65332,0.769531
1480686700492664,-0.168457,-0.663086,0.770508
1480686700513719,-0.174805,-0.674316,0.769043
1480686700545303,-0.179199,-0.674316,0.772461
1480686700552322,-0.178223,-0.666504,0.774414
1480686700590925,-0.170898,-0.657227,0.76709
1480686700593432,-0.170898,-0.645508,0.767578
1480686700613986,-0.171875,-0.664551,0.774414
1480686700635544,-0.177246,-0.674316,0.767578
1480686700658104,-0.171387,-0.67334,0.776855
1480686700680664,-0.175293,-0.669434,0.771484
1480686700701218,-0.164063,-0.659668,0.776855
1480686700710243,-0.161133,-0.65332,0.770508
1480686700733304,-0.174316,-0.662109,0.771973
1480686700755363,-0.178223,-0.675293,0.776367
1480686700770904,-0.175781,-0.670898,0.772949
1480686700792461,-0.174316,-0.656738,0.774414
1480686700822541,-0.168945,-0.654297,0.772949
1480686700830060,-0.17334,-0.65625,0.769531
1480686700853623,-0.171387,-0.66748,0.779297
1480686700890722,-0.177246,-0.679199,0.776855
1480686700893236,-0.170898,-0.669922,0.774902
1480686700918797,-0.172363,-0.656738,0.773926
1480686700935341,-0.165527,-0.653809,0.768555
1480686700980461,-0.166992,-0.65625,0.777344
1480686700982967,-0.174805,-0.668945,0.774414
1480686700994999,-0.174805,-0.682129,0.771484
1480686701010043,-0.174316,-0.665527,0.772461
1480686701033101,-0.16748,-0.657715,0.772461
1480686701055159,-0.166992,-0.65918,0.76416
1480686701069698,-0.170898,-0.669922,0.772949
1480686701100781,-0.168457,-0.674316,0.776367
1480686701125848,-0.17334,-0.67627,0.780762
1480686701144898,-0.173828,-0.662598,0.776367
1480686701147405,-0.162598,-0.655762,0.770996
1480686701182498,-0.163086,-0.652832,0.767578
1480686701185005,-0.17041,-0.670898,0.769531
1480686701197037,-0.17334,-0.685059,0.776855
1480686701234637,-0.167969,-0.671875,0.777344
1480686701240652,-0.16748,-0.653809,0.773438
1480686701272740,-0.168945,-0.650879,0.772461
1480686701278252,-0.164063,-0.663574,0.765625
1480686701311341,-0.173828,-0.67041,0.773926
1480686701319363,-0.172852,-0.674805,0.774902
1480686701354455,-0.175781,-0.668945,0.774414
1480686701360472,-0.169434,-0.662109,0.770508
1480686701384535,-0.166016,-0.653809,0.768066
1480686701422638,-0.165527,-0.668945,0.771973
1480686701425144,-0.170898,-0.681152,0.768066
1480686701446200,-0.172363,-0.681641,0.769531
1480686701468258,-0.168945,-0.666504,0.777344
1480686701490316,-0.16748,-0.655273,0.770508
1480686701496834,-0.164551,-0.660156,0.770508
1480686701517890,-0.172852,-0.669922,0.771484
1480686701540449,-0.172852,-0.675781,0.77002
1480686701557997,-0.175781,-0.679199,0.767578
1480686701588578,-0.180664,-0.663574,0.771484
1480686701616652,-0.176758,-0.648926,0.77002
1480686701641219,-0.17627,-0.665039,0.762207
1480686701655756,-0.177734,-0.677734,0.767578
1480686701660269,-0.180664,-0.678223,0.765625
1480686701679321,-0.18457,-0.670898,0.763672
1480686701700877,-0.166992,-0.663574,0.766602
1480686701723941,-0.157227,-0.657715,0.772949
1480686701744493,-0.157715,-0.664551,0.769531
1480686701761037,-0.15625,-0.681641,0.772461
1480686701789613,-0.166504,-0.684082,0.782227
1480686701812174,-0.163086,-0.671387,0.778809
1480686701818189,-0.161621,-0.648438,0.78125
1480686701848269,-0.168945,-0.649902,0.776855
1480686701862810,-0.173828,-0.666992,0.774414
1480686701885367,-0.19043,-0.672363,0.770996
1480686701941015,-0.171875,-0.674316,0.760742
1480686702025239,-0.174805,-0.648438,0.766602
1480686702067351,-0.141113,-0.666504,0.772461
1480686702069858,-0.149902,-0.658691,0.771484
1480686702087906,-0.154785,-0.65625,0.766113
1480686702102946,-0.166016,-0.680664,0.757813
1480686702117985,-0.158691,-0.70459,0.762207
1480686702140547,-0.158203,-0.693359,0.759277
1480686702164610,-0.14502,-0.656738,0.77002
1480686702179651,-0.130859,-0.664551,0.77832
1480686702200706,-0.132813,-0.68457,0.780273
1480686702257357,-0.14209,-0.682617,0.774902
1480686702278914,-0.151367,-0.694336,0.762695
1480686702331555,-0.152344,-0.696289,0.759277
1480686702353111,-0.156738,-0.664063,0.763184
1480686702368151,-0.159668,-0.685059,0.769043
1480686702370658,-0.165527,-0.668457,0.774414
1480686702382189,-0.15332,-0.664551,0.773438
1480686702403244,-0.143555,-0.666992,0.770508
1480686702417784,-0.145508,-0.671875,0.775391
1480686702440343,-0.145508,-0.671387,0.772949
1480686702470924,-0.15625,-0.676758,0.776367
1480686702480951,-0.154785,-0.6875,0.772461
1480686702538604,-0.146973,-0.665039,0.780762
1480686702557153,-0.144531,-0.641113,0.770508
1480686702578211,-0.152344,-0.660645,0.771973
1480686702608793,-0.155273,-0.693848,0.767578
1480686702622828,-0.151367,-0.685059,0.77002
1480686702629349,-0.14502,-0.660645,0.766602
1480686702645891,-0.138184,-0.672852,0.766602
1480686702659428,-0.146973,-0.674805,0.772949
1480686702680483,-0.149414,-0.682617,0.766113
1480686702703041,-0.150879,-0.691895,0.766602
1480686702719586,-0.149902,-0.681152,0.768555
1480686702740641,-0.147461,-0.65918,0.764648
1480686702763206,-0.147949,-0.655762,0.766602
1480686702810830,-0.15918,-0.681641,0.77002
1480686702833889,-0.158691,-0.690918,0.769043
1480686702884023,-0.161621,-0.678711,0.764648
1480686702901570,-0.156738,-0.663574,0.768066
1480686702906585,-0.15332,-0.658203,0.773438
1480686702924631,-0.158691,-0.686035,0.764648
1480686702943180,-0.163086,-0.681641,0.757813
1480686702961230,-0.157227,-0.666016,0.772949
1480686702980281,-0.152832,-0.652344,0.772949
1480686703004343,-0.15332,-0.653809,0.777344
1480686703021889,-0.153809,-0.677246,0.773926
1480686703047958,-0.155273,-0.687012,0.768066
1480686703064503,-0.155762,-0.680176,0.76709
1480686703110626,-0.144043,-0.669434,0.764648
1480686703160760,-0.147461,-0.664551,0.766602
1480686703179810,-0.150391,-0.669922,0.772461
1480686703185825,-0.158203,-0.680664,0.771484
1480686703187831,-0.155762,-0.670898,0.769043
1480686703201367,-0.154785,-0.658203,0.770996
1480686703223425,-0.150391,-0.661133,0.774902
1480686703250500,-0.154297,-0.681152,0.77002
1480686703265537,-0.158691,-0.685059,0.771973
1480686703297123,-0.15918,-0.667969,0.774414
1480686703303138,-0.154297,-0.65625,0.771484
1480686703342742,-0.154785,-0.664063,0.767578
1480686703344749,-0.15332,-0.666016,0.772461
1480686703389867,-0.155273,-0.677246,0.769043
1480686703411426,-0.157715,-0.685547,0.76709
1480686703425965,-0.161133,-0.681152,0.766602
1480686703456545,-0.154297,-0.664063,0.76709
1480686703462563,-0.146484,-0.663574,0.766602
1480686703465068,-0.150879,-0.681641,0.77002
1480686703483115,-0.159668,-0.6875,0.766602
1480686703505676,-0.159668,-0.677734,0.769531
1480686703522219,-0.15625,-0.662598,0.768555
1480686703566839,-0.155273,-0.660156,0.765137
1480686703575863,-0.152832,-0.666016,0.770508
1480686703581878,-0.153809,-0.678223,0.769531
1480686703602934,-0.159668,-0.684082,0.76416
1480686703625496,-0.15625,-0.677734,0.777832
1480686703667107,-0.155273,-0.663086,0.768555
1480686703694679,-0.151855,-0.662598,0.76123
1480686703718240,-0.149414,-0.673828,0.770508
1480686703720748,-0.160156,-0.676758,0.777344
1480686703733282,-0.158203,-0.682617,0.769531
1480686703753836,-0.161621,-0.669922,0.761719
1480686703761859,-0.161133,-0.671387,0.766602
1480686703782913,-0.14502,-0.67334,0.775879
1480686703805473,-0.163574,-0.665039,0.774414
1480686703853601,-0.152832,-0.689453,0.765137
1480686703866134,-0.153809,-0.687012,0.770996
1480686703876662,-0.158203,-0.674316,0.77002
1480686703921281,-0.149902,-0.669922,0.770508
1480686703935820,-0.155762,-0.663574,0.765137
1480686703942337,-0.151367,-0.682617,0.768066
1480686703944844,-0.158203,-0.675781,0.772461
1480686703978937,-0.159668,-0.67334,0.768066
1480686703986956,-0.157715,-0.671875,0.769531
1480686704011020,-0.154297,-0.668457,0.769531
1480686704030574,-0.154297,-0.663086,0.76416
1480686704045613,-0.153809,-0.683594,0.766113
1480686704063661,-0.161621,-0.692871,0.768066
1480686704109783,-0.160645,-0.677246,0.76416
1480686704128333,-0.152344,-0.666504,0.768555
1480686704154401,-0.151855,-0.656738,0.772461
1480686704183478,-0.15332,-0.672852,0.772949
1480686704185484,-0.15625,-0.68457,0.762695
1480686704199522,-0.156738,-0.686035,0.769043
1480686704210551,-0.159668,-0.675293,0.766602
1480686704233116,-0.156738,-0.661133,0.767578
1480686704243639,-0.153809,-0.661621,0.765625
1480686704263194,-0.15332,-0.675781,0.76416
1480686704288257,-0.162598,-0.689453,0.765137
1480686704310820,-0.158203,-0.68457,0.76709
1480686704322850,-0.157715,-0.670898,0.766113
1480686704363960,-0.152344,-0.672852,0.769531
1480686704385014,-0.152832,-0.667969,0.768555
1480686704387521,-0.155273,-0.676758,0.766602
1480686704408577,-0.156738,-0.69043,0.776367
1480686704429635,-0.158203,-0.687988,0.773438
1480686704452193,-0.154297,-0.671387,0.759766
1480686704465729,-0.151855,-0.663086,0.76416
1480686704490797,-0.15332,-0.67041,0.760254
1480686704519371,-0.160156,-0.691895,0.767578
1480686704532907,-0.162598,-0.688477,0.769043
1480686704543435,-0.159668,-0.677246,0.77002
1480686704572013,-0.15625,-0.665527,0.766602
1480686704588556,-0.153809,-0.663574,0.763184
1480686704618134,-0.154297,-0.672363,0.765137
1480686704632171,-0.157715,-0.688965,0.762695
1480686704662753,-0.161133,-0.688965,0.76709
1480686704665260,-0.156738,-0.671875,0.771484
1480686704715393,-0.15332,-0.662109,0.761719
1480686704723414,-0.152344,-0.669922,0.764648
1480686704735947,-0.154785,-0.68457,0.763672
1480686704744470,-0.154785,-0.691406,0.769531
1480686704768535,-0.167969,-0.688477,0.761719
1480686704791596,-0.152344,-0.677734,0.760742
1480686704820673,-0.15625,-0.665527,0.761719
1480686704833205,-0.162109,-0.674316,0.766113
1480686704848246,-0.159668,-0.682129,0.762207
1480686704874316,-0.165527,-0.682129,0.771484
1480686704901388,-0.161133,-0.677734,0.766602
1480686704916928,-0.161133,-0.670898,0.760742
1480686704941495,-0.155762,-0.670898,0.76123
1480686704962048,-0.166992,-0.682617,0.748535
1480686704986615,-0.168457,-0.697754,0.759277
1480686704991126,-0.166504,-0.695801,0.754883
1480686705010176,-0.164063,-0.679199,0.761719
1480686705029732,-0.162109,-0.670898,0.759766
1480686705045771,-0.157715,-0.67334,0.760254
1480686705075353,-0.163574,-0.683105,0.758301
1480686705088384,-0.166504,-0.695801,0.756836
1480686705106433,-0.166504,-0.686035,0.76123
1480686705125484,-0.162109,-0.67334,0.760254
1480686705151051,-0.15625,-0.670898,0.754395
1480686705172107,-0.156738,-0.679199,0.758789
1480686705196171,-0.159668,-0.68457,0.763672
1480686705218229,-0.166016,-0.691895,0.76709
1480686705239288,-0.166992,-0.687012,0.759766
1480686705245302,-0.160645,-0.675781,0.768066
1480686705267861,-0.158203,-0.672363,0.763672
1480686705290422,-0.157227,-0.677734,0.75293
1480686705312981,-0.160156,-0.694824,0.753418
1480686705328022,-0.156738,-0.694336,0.76709
1480686705347073,-0.164063,-0.675293,0.759277
1480686705367127,-0.157227,-0.66748,0.764648
1480686705404225,-0.156738,-0.67041,0.762695
1480686705428790,-0.163086,-0.682617,0.760254
1480686705450347,-0.163086,-0.688477,0.758789
1480686705453355,-0.164063,-0.691895,0.760254
1480686705472406,-0.164551,-0.675293,0.768555
1480686705494467,-0.154297,-0.672852,0.756348
1480686705517025,-0.154297,-0.67334,0.758789
1480686705526049,-0.163086,-0.686523,0.757324
1480686705548608,-0.162598,-0.691895,0.763184
1480686705569664,-0.165527,-0.685547,0.758301
1480686705598741,-0.154297,-0.678711,0.761719
1480686705607766,-0.155762,-0.667969,0.758789
1480686705644865,-0.15625,-0.675781,0.756836
1480686705647372,-0.15918,-0.691406,0.759277
1480686705684469,-0.15918,-0.692871,0.756836
1480686705705025,-0.165527,-0.684082,0.760254
1480686705707532,-0.15625,-0.677246,0.760742
1480686705728587,-0.152344,-0.671875,0.763672
1480686705749643,-0.156738,-0.682129,0.764648
1480686705765686,-0.157715,-0.694336,0.763184
1480686705788246,-0.162598,-0.691895,0.763184
1480686705815318,-0.161133,-0.679688,0.760742
1480686705825846,-0.158691,-0.666016,0.759277
1480686705849408,-0.155762,-0.67041,0.760742
1480686705887008,-0.156738,-0.686523,0.757813
1480686705898037,-0.161133,-0.693848,0.757813
1480686705923104,-0.157227,-0.69043,0.755371
1480686705930122,-0.15625,-0.674805,0.761719
1480686705946166,-0.15918,-0.67041,0.760742
1480686705981760,-0.155273,-0.680664,0.769043
1480686706004821,-0.166016,-0.6875,0.759766
1480686706007328,-0.166992,-0.692871,0.759277
1480686706028384,-0.161621,-0.680664,0.756836
1480686706047936,-0.158203,-0.679199,0.759766
1480686706073505,-0.148438,-0.673828,0.756836
1480686706089546,-0.156738,-0.677734,0.758301
1480686706108597,-0.160645,-0.686523,0.755859
1480686706132160,-0.161133,-0.698242,0.763672
1480686706155736,-0.158691,-0.679199,0.758789
1480686706184299,-0.153809,-0.666992,0.759766
1480686706190818,-0.15332,-0.673828,0.76123
1480686706208364,-0.155762,-0.6875,0.763672
1480686706235435,-0.162598,-0.695313,0.765625
1480686706261004,-0.163086,-0.688965,0.758301
1480686706284566,-0.15918,-0.67627,0.760742
1480686706297099,-0.158203,-0.67041,0.762207
1480686706310635,-0.160645,-0.666992,0.749512
1480686706329185,-0.158691,-0.688965,0.759277
1480686706350241,-0.167969,-0.689941,0.762695
1480686706378816,-0.165527,-0.675781,0.769043
1480686706404384,-0.168945,-0.667969,0.754395
1480686706441483,-0.156738,-0.716309,0.775879
1480686706463040,-0.156738,-0.65918,0.755371
1480686706465546,-0.166016,-0.679688,0.762207
1480686706487606,-0.174805,-0.69043,0.758301
1480686706490613,-0.162598,-0.70166,0.762207
1480686706538744,-0.153809,-0.674316,0.766602
1480686706544256,-0.152344,-0.660156,0.759766
1480686706550775,-0.162109,-0.680664,0.775879
1480686706568320,-0.17041,-0.705078,0.768555
1480686706589376,-0.161621,-0.6875,0.772949
1480686706610432,-0.162598,-0.662598,0.768066
1480686706634496,-0.16748,-0.651367,0.776855
1480686706649535,-0.180664,-0.648438,0.77002
1480686706687637,-0.195313,-0.655273,0.774414
1480686706692150,-0.198242,-0.666504,0.772949
1480686706715712,-0.19043,-0.666992,0.770508
1480686706740778,-0.18457,-0.643066,0.777344
1480686706763339,-0.18457,-0.631836,0.771484
1480686706770858,-0.199219,-0.640625,0.769531
1480686706796426,-0.192383,-0.687012,0.755371
1480686706815979,-0.177734,-0.705078,0.757324
1480686706838538,-0.185059,-0.674316,0.766602
1480686706858090,-0.186523,-0.654785,0.758789
1480686706868618,-0.186035,-0.663574,0.760742
1480686706908224,-0.168457,-0.683105,0.76416
1480686706928780,-0.17627,-0.687012,0.765625
1480686706940309,-0.192383,-0.680664,0.763184
1480686706965877,-0.191895,-0.671875,0.76416
1480686706970400,-0.1875,-0.666016,0.753906
1480686706994453,-0.186035,-0.678223,0.755371
1480686707025036,-0.191406,-0.682129,0.76416
1480686707046592,-0.197266,-0.675781,0.763672
1480686707070154,-0.191406,-0.672852,0.768555
1480686707072661,-0.181641,-0.660645,0.763672
1480686707092214,-0.185059,-0.659668,0.764648
1480686707115776,-0.192871,-0.668457,0.760742
1480686707138837,-0.189941,-0.674316,0.772461
1480686707158389,-0.199219,-0.675781,0.770996
1480686707168415,-0.189453,-0.66748,0.76709
1480686707190976,-0.188965,-0.659668,0.771484
1480686707256149,-0.19043,-0.664551,0.76416
1480686707267179,-0.184082,-0.674805,0.764648
1480686707288736,-0.186523,-0.67334,0.775391
1480686707290742,-0.182617,-0.675781,0.766113
1480686707303277,-0.1875,-0.668457,0.773926
1480686707318315,-0.182129,-0.65918,0.770508
1480686707331851,-0.183594,-0.651855,0.765625
1480686707348394,-0.187988,-0.66748,0.766602
1480686707370954,-0.192871,-0.682617,0.769043
1480686707415072,-0.188965,-0.67627,0.772461
1480686707417579,-0.191406,-0.657715,0.77002
1480686707438634,-0.1875,-0.657715,0.766602
1480686707459691,-0.187988,-0.661133,0.771484
1480686707483253,-0.189453,-0.672363,0.773438
1480686707495285,-0.195801,-0.666992,0.77002
1480686707519349,-0.186523,-0.664551,0.772461
1480686707540407,-0.189453,-0.660156,0.774902
1480686707559461,-0.186523,-0.660645,0.762207
1480686707581013,-0.186035,-0.666504,0.770508
1480686707588533,-0.188477,-0.67041,0.769531
1480686707611094,-0.191406,-0.668457,0.770508
1480686707641174,-0.199707,-0.660156,0.760742
1480686707653208,-0.186523,-0.668945,0.775879
1480686707671253,-0.16748,-0.657715,0.774414
1480686707693816,-0.187012,-0.663574,0.769531
1480686707730914,-0.193848,-0.680176,0.769531
1480686707732917,-0.197266,-0.677246,0.764648
1480686707761494,-0.191895,-0.645996,0.770508
1480686707780543,-0.19043,-0.653809,0.769531
1480686707791072,-0.176758,-0.678223,0.767578
1480686707827170,-0.174316,-0.693359,0.76416
1480686707849729,-0.174316,-0.709473,0.749023
1480686707862763,-0.163574,-0.699219,0.76416
1480686707873290,-0.192383,-0.658203,0.762207
1480686707900362,-0.187988,-0.666016,0.761719
1480686707918911,-0.183594,-0.674805,0.76123
1480686707937962,-0.183105,-0.680176,0.754395
1480686707960527,-0.190918,-0.686035,0.762207
1480686707971051,-0.191895,-0.663574,0.760254
1480686707995123,-0.200195,-0.654297,0.756348
1480686708015168,-0.192383,-0.657715,0.762207
1480686708038730,-0.200195,-0.674316,0.75293
1480686708053269,-0.195313,-0.688965,0.750977
1480686708076330,-0.189453,-0.691406,0.759277
1480686708103904,-0.194336,-0.67041,0.758301
1480686708126967,-0.18457,-0.65918,0.763184
1480686708133984,-0.202637,-0.664063,0.765137
1480686708150026,-0.197266,-0.687012,0.766602
1480686708172586,-0.178223,-0.679688,0.765137
1480686708195650,-0.193359,-0.674805,0.761719
1480686708217705,-0.198242,-0.665039,0.778809
1480686708232245,-0.185547,-0.644043,0.766602
1480686708253803,-0.199707,-0.65918,0.761719
1480686708269845,-0.207031,-0.67627,0.758301
1480686708293408,-0.200195,-0.686035,0.752441
1480686708313460,-0.204102,-0.686523,0.753418
1480686708330008,-0.201172,-0.674805,0.751953
1480686708353071,-0.197754,-0.655762,0.763184
1480686708375126,-0.188477,-0.660156,0.763184
1480686708405205,-0.197754,-0.680176,0.759277
1480686708413226,-0.202637,-0.6875,0.763672
1480686708434283,-0.185059,-0.663086,0.769531
1480686708450324,-0.1875,-0.654785,0.757813
1480686708473386,-0.19873,-0.65625,0.762695
1480686708493445,-0.196289,-0.670898,0.760254
1480686708509983,-0.197754,-0.678223,0.764648
1480686708533044,-0.199707,-0.663086,0.771973
1480686708570644,-0.192871,-0.663574,0.76416
1480686708573151,-0.182129,-0.661133,0.769043
1480686708598719,-0.178711,-0.652344,0.770508
1480686708615263,-0.188965,-0.658691,0.785156
1480686708638324,-0.171875,-0.672363,0.798828
1480686708653866,-0.186523,-0.657715,0.758301
1480686708681439,-0.185547,-0.657227,0.762695
1480686708690965,-0.206055,-0.662109,0.756348
1480686708713023,-0.193359,-0.666016,0.745605
1480686708735583,-0.197266,-0.683594,0.760742
1480686708758144,-0.195313,-0.681641,0.767578
1480686708772682,-0.173828,-0.662598,0.773438
1480686708801257,-0.178711,-0.640137,0.770508
1480686708809780,-0.193359,-0.649414,0.775391
1480686708832842,-0.189453,-0.666992,0.770508
1480686708869940,-0.188965,-0.677734,0.769043
1480686708872447,-0.185059,-0.668457,0.768066
1480686708893504,-0.189941,-0.653809,0.779297
1480686708915562,-0.188965,-0.651367,0.776367
1480686708938124,-0.183105,-0.656738,0.76123
1480686708960184,-0.18457,-0.672363,0.775391
1480686708974721,-0.194336,-0.686035,0.762207
1480686708995774,-0.193848,-0.678223,0.76709
1480686709012823,-0.185059,-0.655273,0.767578
1480686709035381,-0.1875,-0.657227,0.770996
1480686709056436,-0.196289,-0.661133,0.769043
1480686709072480,-0.199219,-0.677246,0.762207
1480686709095540,-0.203613,-0.678711,0.762695
1480686709116596,-0.202637,-0.659668,0.760742
1480686709132639,-0.197266,-0.665527,0.76123
1480686709155701,-0.195801,-0.65918,0.765625
1480686709184276,-0.195313,-0.662598,0.759277
1480686709192800,-0.200684,-0.682617,0.751953
1480686709214857,-0.1875,-0.692871,0.76416
1480686709235913,-0.203125,-0.654785,0.762207
1480686709252457,-0.208984,-0.653809,0.777832
1480686709276021,-0.152344,-0.669434,0.782715
1480686709296575,-0.17627,-0.638184,0.761719
1480686709313621,-0.213867,-0.66748,0.773438
1480686709341698,-0.216797,-0.661621,0.758789
1480686709357741,-0.210449,-0.659668,0.76123
1480686709373279,-0.181152,-0.669434,0.783203
1480686709401355,-0.145508,-0.666504,0.763184
1480686709426421,-0.209473,-0.679199,0.765625
1480686709432436,-0.228027,-0.689453,0.763184
1480686709461012,-0.208984,-0.663574,0.755371
1480686709485577,-0.202148,-0.654785,0.760742
1480686709492596,-0.196289,-0.648438,0.757324
1480686709515155,-0.209473,-0.656738,0.765625
1480686709537716,-0.213379,-0.664063,0.770996
1480686709559274,-0.204102,-0.666016,0.774902
1480686709575318,-0.19873,-0.662598,0.768066
1480686709597375,-0.194824,-0.648926,0.764648
1480686709613417,-0.193848,-0.654297,0.768555
1480686709636479,-0.203125,-0.661133,0.768555
1480686709663551,-0.20752,-0.675781,0.760742
1480686709678591,-0.203613,-0.675293,0.764648
1480686709704660,-0.19873,-0.653809,0.765625
1480686709717695,-0.203125,-0.645996,0.771484
1480686709740257,-0.204102,-0.654297,0.762695
1480686709762313,-0.205566,-0.672852,0.760254
1480686709791390,-0.211914,-0.681152,0.76123
1480686709807434,-0.213379,-0.669922,0.76709
1480686709816457,-0.203613,-0.654297,0.768066
1480686709840020,-0.204102,-0.652344,0.768555
1480686709852052,-0.202637,-0.657227,0.772461
1480686709881130,-0.19873,-0.666016,0.774902
1480686709906196,-0.206055,-0.664551,0.770996
1480686709913214,-0.212891,-0.661621,0.769531
1480686709937278,-0.191406,-0.661133,0.770996
1480686709988916,-0.182129,-0.634277,0.772461
1480686709995936,-0.216797,-0.627441,0.777344
1480686709997945,-0.223145,-0.666016,0.766113
1480686710018997,-0.211426,-0.689941,0.772949
1480686710040053,-0.183594,-0.682129,0.76416
1480686710062613,-0.160156,-0.657227,0.772949
1480686710085674,-0.200195,-0.645996,0.783691
1480686710098709,-0.210449,-0.657715,0.780273
1480686710115252,-0.208496,-0.668945,0.770508
1480686710143828,-0.208984,-0.663086,0.765625
1480686710160372,-0.202148,-0.644043,0.775879
1480686710174914,-0.20166,-0.632813,0.776367
1480686710198976,-0.204102,-0.641602,0.776367
1480686710235573,-0.203613,-0.662598,0.769043
1480686710238079,-0.206543,-0.674805,0.773438
1480686710258136,-0.203125,-0.664551,0.764648
1480686710278686,-0.202637,-0.648926,0.768066
1480686710295230,-0.196289,-0.648926,0.776367
1480686710326314,-0.194336,-0.657227,0.775879
1480686710340352,-0.204102,-0.662109,0.777832
1480686710362409,-0.202637,-0.667969,0.769043
1480686710392489,-0.20166,-0.662109,0.771973
1480686710405524,-0.204102,-0.651367,0.772461
1480686710415551,-0.19873,-0.647949,0.765137
1480686710443624,-0.205566,-0.65918,0.765625
1480686710474711,-0.206055,-0.666504,0.769531
1480686710481227,-0.203125,-0.668945,0.779785
1480686710505289,-0.197754,-0.657227,0.770996
1480686710520830,-0.194824,-0.652344,0.771973
1480686710535369,-0.196289,-0.65918,0.772461
1480686710557929,-0.19873,-0.666992,0.766113
1480686710579987,-0.20459,-0.665527,0.775879
1480686710595028,-0.212891,-0.660156,0.76709
1480686710617587,-0.19873,-0.652344,0.766602
1480686710640150,-0.195313,-0.649902,0.773438
1480686710654686,-0.192871,-0.640137,0.773926
1480686710677748,-0.20752,-0.650879,0.765137
1480686710700809,-0.222168,-0.680664,0.766602
1480686710721365,-0.193848,-0.676758,0.769043
1480686710743422,-0.181152,-0.654785,0.774902
1480686710760468,-0.186523,-0.647949,0.773438
1480686710774504,-0.202637,-0.660645,0.775879
1480686710797566,-0.211426,-0.659668,0.777832
1480686710820127,-0.216797,-0.660645,0.762695
1480686710834665,-0.205566,-0.651367,0.770508
1480686710857727,-0.204102,-0.642578,0.767578
1480686710880286,-0.203125,-0.643555,0.776367
1480686710902846,-0.205566,-0.65625,0.771484
1480686710917886,-0.203613,-0.667969,0.770508
1480686710939945,-0.211914,-0.666992,0.769531
1480686710962003,-0.20459,-0.652832,0.771484
1480686710978045,-0.19873,-0.647461,0.769531
1480686711001609,-0.200195,-0.650879,0.779297
1480686711021161,-0.203613,-0.661621,0.773926
1480686711038206,-0.210449,-0.671875,0.768555
1480686711068286,-0.208496,-0.66748,0.770508
1480686711081321,-0.198242,-0.643555,0.772949
1480686711098366,-0.204102,-0.641602,0.773438
1480686711120425,-0.200195,-0.654785,0.773926
1480686711148499,-0.205566,-0.664551,0.771973
1480686711157528,-0.208008,-0.67041,0.777344
1480686711180585,-0.209961,-0.654297,0.771973
1480686711201641,-0.206055,-0.646973,0.773438
1480686711217683,-0.197266,-0.645996,0.777832
1480686711241749,-0.200195,-0.665039,0.773438
1480686711278346,-0.202637,-0.669922,0.768066
1480686711280350,-0.20459,-0.666016,0.777344
1480686711299902,-0.202637,-0.644531,0.779785
1480686711320958,-0.200195,-0.640625,0.778809
1480686711339006,-0.20166,-0.650391,0.772461
1480686711360063,-0.204102,-0.65918,0.768555
1480686711390644,-0.20752,-0.663086,0.775879
1480686711466345,-0.208496,-0.655762,0.777344
1480686711471860,-0.199219,-0.649414,0.770508
1480686711495423,-0.20166,-0.660156,0.769531
1480686711502441,-0.20752,-0.668945,0.772461
1480686711517481,-0.202637,-0.662109,0.779297
1480686711540041,-0.205566,-0.635254,0.770996
1480686711562601,-0.203125,-0.649414,0.76416
1480686711577140,-0.208008,-0.661133,0.771484
1480686711600703,-0.209473,-0.666992,0.770996
1480686711632286,-0.208008,-0.672363,0.773438
1480686711636798,-0.202637,-0.655762,0.774414
1480686711674904,-0.199707,-0.627441,0.777832
1480686711705481,-0.204102,-0.638672,0.789063
1480686711749096,-0.202637,-0.64209,0.780762
1480686711759124,-0.210449,-0.665527,0.772949
1480686711773161,-0.205566,-0.66748,0.770508
1480686711780680,-0.200684,-0.628906,0.774414
1480686711802739,-0.204102,-0.637207,0.782227
1480686711825300,-0.210449,-0.630371,0.78125
1480686711840339,-0.210938,-0.660156,0.806641
1480686711862398,-0.195313,-0.63916,0.78418
1480686711884958,-0.211426,-0.624512,0.766602
1480686711908021,-0.226563,-0.665527,0.758789
1480686711924566,-0.188965,-0.692871,0.766113
1480686711951134,-0.185547,-0.677246,0.776367
1480686711982216,-0.206055,-0.654297,0.77832
1480686711999763,-0.200684,-0.651855,0.785156
1480686712018312,-0.212402,-0.634277,0.77002
1480686712044882,-0.209473,-0.629883,0.766602
1480686712050899,-0.210938,-0.650391,0.776367
1480686712063433,-0.216309,-0.663574,0.771484
1480686712079976,-0.213867,-0.653809,0.780762
1480686712103539,-0.212402,-0.64209,0.778809
1480686712123592,-0.199707,-0.635742,0.782715
1480686712140138,-0.189941,-0.645508,0.776367
1480686712163198,-0.210938,-0.649414,0.784668
1480686712185256,-0.212891,-0.666992,0.774902
1480686712200296,-0.209473,-0.659668,0.772949
1480686712222859,-0.206055,-0.648438,0.772461
1480686712245416,-0.20459,-0.628906,0.764648
1480686712268477,-0.219727,-0.648438,0.786133
1480686712290035,-0.20752,-0.654785,0.784668
1480686712311091,-0.203613,-0.655762,0.779785
1480686712334153,-0.218262,-0.658203,0.782227
1480686712344180,-0.209961,-0.643555,0.770996
1480686712365737,-0.216797,-0.63623,0.773926
1480686712379272,-0.220215,-0.658203,0.772461
1480686712402334,-0.209961,-0.663086,0.781738
1480686712426902,-0.210938,-0.650879,0.777832
1480686712445949,-0.220703,-0.646484,0.780273
1480686712470014,-0.209961,-0.633301,0.777832
1480686712501598,-0.203125,-0.629883,0.77832
1480686712513129,-0.21875,-0.657227,0.77002
1480686712524160,-0.215332,-0.671387,0.760254
1480686712545213,-0.224121,-0.660645,0.771973
1480686712567773,-0.221191,-0.640137,0.781738
1480686712590837,-0.199219,-0.633789,0.78125
1480686712621417,-0.201172,-0.64209,0.783203
1480686712626930,-0.214355,-0.663086,0.779785
1480686712642472,-0.220215,-0.65918,0.768066
1480686712665033,-0.223633,-0.665527,0.770508
1480686712679572,-0.214844,-0.650879,0.764648
1480686712703133,-0.208496,-0.648438,0.769531
1480686712731709,-0.208496,-0.641113,0.782227
1480686712748254,-0.226074,-0.649414,0.777344
1480686712777832,-0.221191,-0.661621,0.761719
1480686712785853,-0.206055,-0.669434,0.76416
1480686712800893,-0.210449,-0.65332,0.764648
1480686712822452,-0.202637,-0.64502,0.774414
1480686712845511,-0.212891,-0.643555,0.779785
1480686712876094,-0.220703,-0.650391,0.77002
1480686712882610,-0.217285,-0.662598,0.767578
1480686712905673,-0.217773,-0.654785,0.762695
1480686712926229,-0.211914,-0.646484,0.763184
1480686712942771,-0.208008,-0.650879,0.766602
1480686712965331,-0.207031,-0.651367,0.780273
1480686712986386,-0.220703,-0.647949,0.779785
1480686713002430,-0.208496,-0.659668,0.773926
1480686713024990,-0.206543,-0.650879,0.767578
1480686713053565,-0.202637,-0.660645,0.760742
1480686713076125,-0.199707,-0.661133,0.770508
1480686713091168,-0.212891,-0.666992,0.771484
1480686713107713,-0.211914,-0.667969,0.774414
1480686713130270,-0.208496,-0.65625,0.773926
1480686713153331,-0.20166,-0.651367,0.772949
1480686713166365,-0.197266,-0.644043,0.770996
1480686713190432,-0.208496,-0.645996,0.78418
1480686713212989,-0.207031,-0.650391,0.781738
1480686713226025,-0.21582,-0.65332,0.773926
1480686713243069,-0.208008,-0.648926,0.773926
1480686713265127,-0.200195,-0.650391,0.773926
1480686713289693,-0.206055,-0.645996,0.771973
1480686713324786,-0.213379,-0.65918,0.770508
1480686713348350,-0.208984,-0.664551,0.769531
1480686713350355,-0.209961,-0.656738,0.773438
1480686713371411,-0.206543,-0.649414,0.77002
1480686713385448,-0.200195,-0.649414,0.772949
1480686713408509,-0.201172,-0.648438,0.770996
1480686713423049,-0.208496,-0.664063,0.776367
1480686713452626,-0.210938,-0.660645,0.776855
1480686713475188,-0.206055,-0.654297,0.776855
1480686713491230,-0.208008,-0.642578,0.772949
1480686713513287,-0.204102,-0.638672,0.774414
1480686713533859,-0.216797,-0.651855,0.770508
1480686713548882,-0.216797,-0.663086,0.775391
1480686713564925,-0.214355,-0.657715,0.76709
1480686713587485,-0.210449,-0.647949,0.776367
1480686713617065,-0.20752,-0.637695,0.779785
1480686713640125,-0.202148,-0.635742,0.781738
1480686713647144,-0.20752,-0.650391,0.776855
1480686713675719,-0.205078,-0.671875,0.776367
1480686713686752,-0.206055,-0.669434,0.774414
1480686713707807,-0.209961,-0.641113,0.77832
1480686713729863,-0.209961,-0.633301,0.771973
1480686713752424,-0.208496,-0.643066,0.77002
1480686713767464,-0.205566,-0.656738,0.775879
1480686713782503,-0.219727,-0.662598,0.777832
1480686713820605,-0.209473,-0.656738,0.785645
1480686713851186,-0.208496,-0.638184,0.780273
1480686713855699,-0.20166,-0.648926,0.779297
1480686713903325,-0.206055,-0.654785,0.767578
1480686713905832,-0.213867,-0.663086,0.775391
1480686713941428,-0.218262,-0.661621,0.77832
1480686713947943,-0.210938,-0.64502,0.777832
1480686713951457,-0.211426,-0.631836,0.771973
1480686713970002,-0.213379,-0.633789,0.77832
1480686713985042,-0.208008,-0.645508,0.781738
1480686714007605,-0.210449,-0.654785,0.783691
1480686714028659,-0.216309,-0.659668,0.778809
1480686714045703,-0.209961,-0.64209,0.782715
1480686714067762,-0.209961,-0.631348,0.78125
1480686714088317,-0.212402,-0.62793,0.777832
1480686714120402,-0.212891,-0.650391,0.780762
1480686714141960,-0.21582,-0.662598,0.76709
1480686714155997,-0.215332,-0.658691,0.776367
1480686714166526,-0.206543,-0.63623,0.77832
1480686714203623,-0.208008,-0.628906,0.777832
1480686714216658,-0.210449,-0.645996,0.780273
1480686714228189,-0.204102,-0.664551,0.773926
1480686714247741,-0.212891,-0.660645,0.774414
1480686714270300,-0.216797,-0.650879,0.780273
1480686714285341,-0.201172,-0.632813,0.777832
1480686714307904,-0.201172,-0.632813,0.776367
1480686714329961,-0.205566,-0.654297,0.785645
1480686714344999,-0.209473,-0.655762,0.775879
1480686714375080,-0.21582,-0.654297,0.777832
1480686714404658,-0.203613,-0.654297,0.788574
1480686714418695,-0.183594,-0.616699,0.776855
1480686714428723,-0.234863,-0.619629,0.779785
1480686714503922,-0.202637,-0.677246,0.783203
1480686714515954,-0.196777,-0.65332,0.763184
1480686714543026,-0.21875,-0.65918,0.765137
1480686714550546,-0.208008,-0.617676,0.783203
1480686714570098,-0.216309,-0.639648,0.787598
1480686714584637,-0.218262,-0.677734,0.767578
1480686714607699,-0.202637,-0.674316,0.765625
1480686714630258,-0.220703,-0.631836,0.783203
1480686714652818,-0.210938,-0.617188,0.78418
1480686714674878,-0.208008,-0.637695,0.783203
1480686714706461,-0.205078,-0.656738,0.783691
1480686714711975,-0.208984,-0.666992,0.787109
1480686714727517,-0.18457,-0.65625,0.776367
1480686714750578,-0.212891,-0.625977,0.773438
1480686714771634,-0.229004,-0.637695,0.777344
1480686714787677,-0.225586,-0.634766,0.769043
1480686714825779,-0.222168,-0.650391,0.772949
1480686714831293,-0.208008,-0.680664,0.788086
1480686714847836,-0.207031,-0.634277,0.77832
1480686714886942,-0.225586,-0.62207,0.774902
1480686714908000,-0.204102,-0.648438,0.775879
1480686714910503,-0.193359,-0.651855,0.784668
1480686714931559,-0.229492,-0.641113,0.768555
1480686714952616,-0.216797,-0.680664,0.770996
1480686714975676,-0.192871,-0.651855,0.795898
1480686714997735,-0.1875,-0.588379,0.790527
1480686715011272,-0.216309,-0.615723,0.788574
1480686715035335,-0.210449,-0.680664,0.780273
1480686715056391,-0.205078,-0.663086,0.770508
1480686715078449,-0.213379,-0.638672,0.781738
1480686715087473,-0.209473,-0.634766,0.783203
1480686715110033,-0.202637,-0.629883,0.778809
1480686715140114,-0.205566,-0.640625,0.775879
1480686715148135,-0.211914,-0.651367,0.78125
1480686715185736,-0.212402,-0.653809,0.78418
1480686715208295,-0.216309,-0.643555,0.786621
1480686715210300,-0.20459,-0.630371,0.780273
1480686715231357,-0.208984,-0.641602,0.778809
1480686715252412,-0.205078,-0.649414,0.780762
1480686715280988,-0.211914,-0.649902,0.776367
1480686715290015,-0.219238,-0.649414,0.782227
1480686715312573,-0.212402,-0.636719,0.775391
1480686715341651,-0.200684,-0.638184,0.786621
1480686715357693,-0.198242,-0.627441,0.785156
1480686715380252,-0.21582,-0.637207,0.792969
1480686715395297,-0.21582,-0.655273,0.780273
1480686715417351,-0.202637,-0.665039,0.786133
1480686715439911,-0.206055,-0.634277,0.775879
1480686715462472,-0.199219,-0.619629,0.792969
1480686715493053,-0.206543,-0.626953,0.783203
1480686715495562,-0.209473,-0.652832,0.787109
1480686715523135,-0.208984,-0.658691,0.787598
1480686715539176,-0.205566,-0.629395,0.791504
1480686715569255,-0.210449,-0.611328,0.79248
1480686715590814,-0.209473,-0.633789,0.780762
1480686715593321,-0.203613,-0.641113,0.789551
1480686715628914,-0.199219,-0.645508,0.79541
1480686715633426,-0.208984,-0.635742,0.791016
1480686715663506,-0.198242,-0.635254,0.79248
1480686715678546,-0.189941,-0.629395,0.790527
1480686715693586,-0.200195,-0.629395,0.788086
1480686715710130,-0.204102,-0.637207,0.787598
1480686715740215,-0.211914,-0.646973,0.798828
1480686715761266,-0.199707,-0.632324,0.797363
1480686715770791,-0.205078,-0.62793,0.786621
1480686715792349,-0.198242,-0.631348,0.782227
1480686715813404,-0.193848,-0.639648,0.789063
1480686715830950,-0.20166,-0.649414,0.785645
1480686715852508,-0.209961,-0.654785,0.788574
1480686715873568,-0.202148,-0.647461,0.794922
1480686715890610,-0.193359,-0.621582,0.791504
1480686715920689,-0.20166,-0.629395,0.781738
1480686715941246,-0.195801,-0.649902,0.782227
1480686715950268,-0.20752,-0.639648,0.777344
1480686715972327,-0.215332,-0.637695,0.791504
1480686715994887,-0.206543,-0.644531,0.786621
1480686716017948,-0.196777,-0.638184,0.774902
1480686716040513,-0.197754,-0.630371,0.786133
1480686716063569,-0.204102,-0.632813,0.786621
1480686716070086,-0.213379,-0.646484,0.791992
1480686716108188,-0.212891,-0.638672,0.794922
1480686716113702,-0.200684,-0.625488,0.787598
1480686716143784,-0.199707,-0.636719,0.778809
1480686716168348,-0.197266,-0.64209,0.783691
1480686716227507,-0.194336,-0.646973,0.785156
1480686716252071,-0.20752,-0.645508,0.790527
1480686716274132,-0.200684,-0.634766,0.788086
1480686716278642,-0.203125,-0.649414,0.781738
1480686716295689,-0.203125,-0.641602,0.790039
1480686716316241,-0.214355,-0.633301,0.792969
1480686716338802,-0.214355,-0.63623,0.791016
1480686716355346,-0.192383,-0.638184,0.781738
1480686716370887,-0.191895,-0.641113,0.778809
1480686716399964,-0.196289,-0.64502,0.787109
1480686716429041,-0.208008,-0.639648,0.791016
1480686716495718,-0.217285,-0.63916,0.78418
1480686716509255,-0.203613,-0.643066,0.78418
1480686716526301,-0.201172,-0.628906,0.783691
1480686716543846,-0.199219,-0.654785,0.785645
1480686716549865,-0.20166,-0.657715,0.789551
1480686716556381,-0.214355,-0.63916,0.793945
1480686716572423,-0.211426,-0.626953,0.791992
1480686716595485,-0.20166,-0.620117,0.79248
1480686716618044,-0.202148,-0.632813,0.787109
1480686716640607,-0.20459,-0.643555,0.787598
1480686716662162,-0.212402,-0.649414,0.780273
1480686716679207,-0.208984,-0.648438,0.787109
1480686716721821,-0.20752,-0.62793,0.783203
1480686716761426,-0.197754,-0.623047,0.787109
1480686716798022,-0.206543,-0.622559,0.79248
1480686716804039,-0.211914,-0.64502,0.789063
1480686716820081,-0.200195,-0.643066,0.774414
1480686716850663,-0.196777,-0.635254,0.782715
1480686716873223,-0.208984,-0.630859,0.789063
1480686716875730,-0.224121,-0.645508,0.787598
1480686716895281,-0.216309,-0.65625,0.781738
1480686716918342,-0.20752,-0.643555,0.77002
1480686716938396,-0.210938,-0.634766,0.782715
1480686716954940,-0.209961,-0.643066,0.778809
1480686717023628,-0.197754,-0.655273,0.780762
1480686717038161,-0.213867,-0.644531,0.783203
1480686717060722,-0.204102,-0.640137,0.787109
1480686717063228,-0.202148,-0.626953,0.785645
1480686717076764,-0.199707,-0.634277,0.785156
1480686717097819,-0.212402,-0.654297,0.790527
1480686717120379,-0.208496,-0.661133,0.783691
1480686717150962,-0.206543,-0.647949,0.786133
1480686717173527,-0.210938,-0.628418,0.783691
1480686717175526,-0.198242,-0.618164,0.791992
1480686717195079,-0.209961,-0.62207,0.796387
1480686717232178,-0.218262,-0.649902,0.780762
1480686717238695,-0.213379,-0.672852,0.775391
1480686717277799,-0.203125,-0.652344,0.771484
1480686717298353,-0.204102,-0.630859,0.778809
1480686717308882,-0.219238,-0.625977,0.779785
1480686717322417,-0.205566,-0.650879,0.789063
1480686717354003,-0.210449,-0.647461,0.781738
1480686717358514,-0.212891,-0.646973,0.783691
1480686717375058,-0.213867,-0.642578,0.781738
1480686717406140,-0.200684,-0.641113,0.78125
1480686717420678,-0.208496,-0.63623,0.78418
1480686717435217,-0.202637,-0.638184,0.793457
1480686717472316,-0.228516,-0.640137,0.787109
1480686717474822,-0.216309,-0.65332,0.773438
1480686717495377,-0.206055,-0.647949,0.766113
1480686717518439,-0.214355,-0.658691,0.774414
1480686717532978,-0.211914,-0.628906,0.770996
1480686717555538,-0.219238,-0.638672,0.79248
1480686717578096,-0.225586,-0.639648,0.789063
1480686717607675,-0.213867,-0.640137,0.785645
1480686717615196,-0.211914,-0.636719,0.778809
1480686717638257,-0.204102,-0.63916,0.782715
1480686717658811,-0.211914,-0.646973,0.78125
1480686717682875,-0.212891,-0.659668,0.776855
1480686717711451,-0.208008,-0.659668,0.78125
1480686717721979,-0.21582,-0.646484,0.78125
1480686717735015,-0.204102,-0.625977,0.78125
1480686717763591,-0.210938,-0.62793,0.781738
1480686717786652,-0.218262,-0.647461,0.783691
1480686717796678,-0.219238,-0.660156,0.775391
1480686717831270,-0.209961,-0.650879,0.778809
1480686717840798,-0.219727,-0.629883,0.77832
1480686717878396,-0.217773,-0.635254,0.772949
1480686717880401,-0.205566,-0.644531,0.787598
1480686717906974,-0.208496,-0.63916,0.784668
1480686717914993,-0.222168,-0.651367,0.780762
1480686717939558,-0.213379,-0.652344,0.788086
1480686717960113,-0.206543,-0.635254,0.782715
1480686717982672,-0.200195,-0.631348,0.784668
1480686717997713,-0.216309,-0.632324,0.782227
1480686718026289,-0.22168,-0.654297,0.779785
1480686718042834,-0.220703,-0.655273,0.779297
1480686718071409,-0.20459,-0.637695,0.793945
1480686718088454,-0.216797,-0.61377,0.790039
1480686718094972,-0.209961,-0.618164,0.782227
1480686718117531,-0.204102,-0.642578,0.785156
1480686718149116,-0.206543,-0.663574,0.784668
1480686718164155,-0.210449,-0.647461,0.787598
1480686718177691,-0.208496,-0.635742,0.783203
1480686718200251,-0.206543,-0.635742,0.78125
1480686718214289,-0.206543,-0.63623,0.780762
1480686718237350,-0.212402,-0.643066,0.782227
1480686718260535,-0.213867,-0.651855,0.790527
1480686718282470,-0.212402,-0.647461,0.791504
1480686718297510,-0.206055,-0.637695,0.78125
1480686718328092,-0.202148,-0.631348,0.776855
1480686718350651,-0.205078,-0.637207,0.785645
1480686718365190,-0.21582,-0.647461,0.777832
1480686718403793,-0.214355,-0.657715,0.782715
1480686718408806,-0.209473,-0.634766,0.784668
1480686718432368,-0.20459,-0.628418,0.788574
1480686718439919,-0.20459,-0.635254,0.781738
1480686718454428,-0.203125,-0.648926,0.786133
1480686718478992,-0.213379,-0.650879,0.782715
1480686718500550,-0.214844,-0.647949,0.785156
1480686718514587,-0.206055,-0.640137,0.77832
1480686718562214,-0.208984,-0.62793,0.787109
1480686718583270,-0.20459,-0.625,0.785156
1480686718585778,-0.208496,-0.648438,0.774414
1480686718604827,-0.208008,-0.655273,0.782715
1480686718619867,-0.213867,-0.64209,0.784668
1480686718642427,-0.209473,-0.631836,0.783203
1480686718657970,-0.209473,-0.629395,0.779297
1480686718703089,-0.20166,-0.636719,0.784668
1480686718705596,-0.212402,-0.645996,0.787109
1480686718717627,-0.217773,-0.653809,0.787109
1480686718740688,-0.216309,-0.644043,0.78418
1480686718769264,-0.204102,-0.635254,0.780273
1480686718791324,-0.208984,-0.628906,0.78418
1480686718815888,-0.218262,-0.628418,0.784668
1480686718837947,-0.213379,-0.645508,0.786621
1480686718840959,-0.20752,-0.655762,0.785645
1480686718860005,-0.216309,-0.632813,0.77832
1480686718881062,-0.208008,-0.623047,0.779297
1480686718897606,-0.206543,-0.627441,0.787109
1480686718920166,-0.212402,-0.637695,0.787598
1480686718956265,-0.218262,-0.652832,0.782715
1480686718981328,-0.215332,-0.655762,0.777832
1480686718986344,-0.210938,-0.643066,0.790527
1480686719002885,-0.206543,-0.622559,0.785156
1480686719018427,-0.209473,-0.626953,0.783203
1480686719039989,-0.211914,-0.644531,0.787109
1480686719070065,-0.217285,-0.648926,0.785156
1480686719092627,-0.212402,-0.63916,0.783203
1480686719113680,-0.210449,-0.628418,0.786133
1480686719130224,-0.20459,-0.63623,0.775879
1480686719138246,-0.20459,-0.640625,0.784668
1480686719161307,-0.22168,-0.632324,0.792969
1480686719182864,-0.218262,-0.641113,0.785645
1480686719197403,-0.212891,-0.639648,0.782715
1480686719219963,-0.210449,-0.630371,0.789063
1480686719257562,-0.202148,-0.625488,0.78125
1480686719260070,-0.219727,-0.634277,0.790039
1480686719280123,-0.213867,-0.645996,0.780762
1480686719302684,-0.214844,-0.648926,0.790527
1480686719316721,-0.211426,-0.635742,0.783203
1480686719340284,-0.206543,-0.623047,0.786133
1480686719370363,-0.208496,-0.623535,0.785156
1480686719378885,-0.214844,-0.638672,0.785645
1480686719414981,-0.214844,-0.647461,0.790527
1480686719440552,-0.214355,-0.637695,0.790039
1480686719460603,-0.208496,-0.628418,0.790527
1480686719464112,-0.199707,-0.627441,0.785156
1480686719520763,-0.206543,-0.626953,0.790527
1480686719523273,-0.213379,-0.640137,0.789551
1480686719541317,-0.214844,-0.64502,0.780273
1480686719548838,-0.210449,-0.641113,0.791504
1480686719570896,-0.212402,-0.625488,0.790039
1480686719581424,-0.214844,-0.620117,0.788574
1480686719602481,-0.202637,-0.646973,0.785645
1480686719626545,-0.213867,-0.654297,0.783203
1480686719647600,-0.219238,-0.629883,0.795898
1480686719670662,-0.219238,-0.615723,0.796875
1480686719690715,-0.204102,-0.615234,0.791504
1480686719701744,-0.211914,-0.627441,0.789551
1480686719738843,-0.213379,-0.649902,0.777832
1480686719761403,-0.207031,-0.656738,0.782227
1480686719782960,-0.220215,-0.64502,0.787598
1480686719785466,-0.210449,-0.626465,0.788574
1480686719803516,-0.207031,-0.627441,0.784668
1480686719826077,-0.211426,-0.638184,0.783203
1480686719850640,-0.204102,-0.652344,0.78418
1480686719863675,-0.208008,-0.650391,0.786621
1480686719880219,-0.212891,-0.631836,0.801758
1480686719902778,-0.212891,-0.609863,0.792969
1480686719925340,-0.213867,-0.616211,0.780762
1480686719945893,-0.213867,-0.633301,0.77832
1480686719969958,-0.218262,-0.655762,0.775391
1480686719986502,-0.214844,-0.655762,0.781738
1480686720000038,-0.211914,-0.632324,0.786621
1480686720038641,-0.207031,-0.617676,0.793457
1480686720060699,-0.203613,-0.617188,0.781738
1480686720063206,-0.203613,-0.64502,0.785645
1480686720083760,-0.210449,-0.656738,0.786621
1480686720111333,-0.212402,-0.64209,0.783691
1480686720127376,-0.210938,-0.631836,0.78418
1480686720150939,-0.208008,-0.619629,0.790527
1480686720165477,-0.210938,-0.622559,0.781738
1480686720179514,-0.209473,-0.643555,0.785645
1480686720202576,-0.214355,-0.647949,0.783203
1480686720225137,-0.221191,-0.64209,0.785156
1480686720239677,-0.206055,-0.634766,0.785156
1480686720270255,-0.203613,-0.627441,0.796875
1480686720285798,-0.20459,-0.629883,0.791016
1480686720308357,-0.212891,-0.641602,0.786621
1480686720329915,-0.211426,-0.649902,0.791992
1480686720352474,-0.209473,-0.63916,0.789063
1480686720359493,-0.206543,-0.625,0.783203
1480686720382554,-0.204102,-0.621094,0.788086
1480686720406121,-0.210938,-0.63623,0.785645
1480686720427173,-0.205566,-0.651855,0.782715
1480686720451238,-0.210938,-0.64502,0.787109
1480686720465274,-0.213867,-0.634277,0.787598
1480686720502874,-0.208496,-0.627441,0.790039
1480686720505382,-0.203613,-0.631348,0.785645
1480686720524934,-0.203613,-0.644531,0.783691
1480686720545989,-0.21582,-0.654785,0.790527
1480686720570055,-0.213379,-0.644043,0.79541
1480686720585093,-0.205078,-0.627441,0.785645
1480686720607653,-0.211914,-0.618164,0.786133
1480686720637733,-0.203613,-0.634277,0.787598
1480686720660923,-0.206055,-0.647949,0.786133
1480686720666811,-0.210449,-0.651855,0.789063
1480686720682352,-0.213379,-0.636719,0.790039
1480686720705917,-0.209473,-0.627441,0.789063
1480686720727472,-0.206543,-0.626465,0.783203
1480686720742512,-0.208008,-0.635742,0.786133
1480686720765072,-0.212402,-0.652344,0.787598
1480686720786131,-0.214844,-0.649414,0.784668
1480686720802672,-0.211426,-0.641602,0.785645
1480686720826235,-0.203613,-0.630859,0.781738
1480686720847792,-0.208984,-0.624512,0.787598
1480686720870854,-0.213379,-0.635742,0.780273
1480686720884890,-0.216797,-0.650879,0.782227
1480686720915472,-0.217773,-0.644531,0.775879
1480686720937530,-0.209473,-0.635742,0.776367
1480686720945050,-0.202148,-0.627441,0.780762
1480686720967610,-0.20752,-0.624512,0.791992
1480686720990171,-0.214844,-0.637695,0.787598
1480686721005211,-0.209961,-0.651855,0.780273
1480686721034788,-0.20459,-0.647949,0.791504
1480686721050831,-0.213867,-0.626465,0.786133
1480686721079909,-0.208496,-0.621094,0.788574
1480686721087428,-0.210449,-0.626465,0.788574
1480686721101967,-0.209961,-0.642578,0.785156
1480686721126032,-0.208984,-0.655762,0.78418
1480686721148090,-0.211426,-0.64209,0.787109
1480686721163130,-0.209961,-0.615723,0.79248
1480686721185691,-0.216797,-0.61084,0.795898
1480686721223292,-0.208008,-0.631348,0.784668
1480686721237829,-0.206543,-0.648926,0.78125
1480686721244847,-0.209961,-0.643555,0.789551
1480686721267909,-0.214844,-0.629395,0.788086
1480686721289477,-0.213867,-0.61377,0.792969
1480686721312534,-0.202637,-0.624023,0.787598
1480686721329088,-0.208008,-0.638672,0.791016
1480686721348630,-0.219727,-0.648438,0.787109
1480686721365174,-0.219238,-0.63916,0.791016
1480686721404279,-0.209473,-0.628418,0.785156
1480686721423831,-0.202148,-0.619141,0.790039
1480686721448897,-0.212891,-0.625977,0.789063
1480686721460929,-0.211426,-0.638672,0.791992
1480686721471458,-0.206543,-0.654785,0.787598
1480686721485496,-0.212402,-0.640625,0.79248
1480686721515074,-0.207031,-0.614258,0.798828
1480686721545654,-0.215332,-0.614258,0.800781
1480686721548161,-0.210938,-0.631348,0.787598
1480686721567713,-0.208496,-0.649414,0.789551
1480686721596289,-0.208008,-0.658203,0.791992
1480686721613836,-0.20752,-0.643066,0.783203
1480686721627372,-0.202148,-0.624023,0.789063
1480686721648427,-0.211914,-0.613281,0.791016
1480686721680011,-0.210449,-0.625977,0.792969
1480686721694550,-0.213379,-0.652832,0.782715
1480686721716107,-0.209473,-0.654785,0.782227
1480686721725132,-0.205566,-0.630859,0.788574
1480686721748694,-0.20752,-0.615723,0.793457
1480686721768246,-0.212891,-0.623047,0.790039
1480686721791308,-0.207031,-0.649414,0.783691
1480686721814870,-0.21582,-0.658691,0.783691
1480686721829409,-0.217773,-0.642578,0.78418
1480686721844949,-0.20752,-0.62207,0.791504
1480686721868012,-0.216797,-0.615723,0.797363
1480686721890070,-0.20166,-0.633301,0.789551
1480686721905614,-0.203613,-0.649414,0.786133
1480686721958251,-0.212402,-0.660156,0.788086
1480686721960758,-0.208984,-0.63916,0.788574
1480686721982316,-0.215332,-0.617188,0.791992
1480686722002368,-0.224121,-0.609375,0.79541
1480686722048992,-0.219727,-0.629395,0.787598
1480686722055510,-0.216797,-0.655762,0.778809
1480686722070550,-0.214844,-0.626465,0.79834
1480686722092609,-0.221191,-0.614258,0.790527
1480686722107650,-0.200684,-0.634277,0.783203
1480686722131211,-0.209961,-0.64209,0.779785
1480686722144747,-0.219727,-0.640137,0.790039
1480686722167308,-0.214844,-0.641113,0.792969
1480686722190370,-0.214355,-0.624512,0.785645
1480686722204908,-0.210449,-0.62207,0.78418
1480686722234987,-0.214844,-0.62793,0.789551
1480686722258049,-0.214355,-0.643555,0.789551
1480686722280107,-0.212891,-0.644531,0.786133
1480686722302667,-0.210938,-0.644531,0.787598
1480686722333750,-0.207031,-0.634766,0.786621
1480686722348289,-0.211914,-0.622559,0.783203
1480686722352800,-0.209473,-0.631836,0.785645
1480686722369847,-0.211426,-0.651855,0.779297
1480686722391906,-0.210449,-0.654297,0.779785
1480686722407449,-0.220215,-0.641113,0.789063
1480686722430012,-0.209961,-0.625,0.777832
1480686722451569,-0.206055,-0.624023,0.777832
1480686722467612,-0.208496,-0.632324,0.793457
1480686722491676,-0.217285,-0.640625,0.788574
1480686722512731,-0.222656,-0.652832,0.776855
1480686722536294,-0.214844,-0.652832,0.771484
1480686722557852,-0.203613,-0.631348,0.782227
1480686722579916,-0.206543,-0.622559,0.788574
1480686722600967,-0.212891,-0.633789,0.798828
1480686722609992,-0.211914,-0.633301,0.800781
1480686722623024,-0.22168,-0.636719,0.784668
1480686722646587,-0.203613,-0.650879,0.783691
1480686722653104,-0.20752,-0.637695,0.783691
1480686722701233,-0.208496,-0.628418,0.78418
1480686722706752,-0.212891,-0.632324,0.795898
1480686722729307,-0.229492,-0.637207,0.791992
1480686722744347,-0.213867,-0.644043,0.780273
1480686722767409,-0.202637,-0.644043,0.778809
1480686722772928,-0.207031,-0.635742,0.780273
1480686722803003,-0.209473,-0.634277,0.793457
1480686722836091,-0.212402,-0.634766,0.794434
1480686722838601,-0.213379,-0.635254,0.79541
1480686722855646,-0.208984,-0.64209,0.774902
1480686722903771,-0.210938,-0.636719,0.774902
1480686722909286,-0.205566,-0.637695,0.782715
1480686722915302,-0.204102,-0.638184,0.787109
1480686722937862,-0.212891,-0.64209,0.793945
1480686722955910,-0.211426,-0.642578,0.788086
1480686722978470,-0.211914,-0.626465,0.789063
1480686723001031,-0.204102,-0.623535,0.78418
1480686723023591,-0.208496,-0.634277,0.783691
1480686723043142,-0.214355,-0.639648,0.786133
1480686723067707,-0.222168,-0.640137,0.791992
1480686723090769,-0.218262,-0.633301,0.783691
1480686723111825,-0.20459,-0.631348,0.788086
1480686723117841,-0.204102,-0.631348,0.787598
1480686723136892,-0.20752,-0.638184,0.790527
1480686723158450,-0.211426,-0.644043,0.791992
1480686723181008,-0.215332,-0.646973,0.791016
1480686723195046,-0.20459,-0.63916,0.786621
1480686723215600,-0.206543,-0.630859,0.794922
1480686723238665,-0.216797,-0.62207,0.788086
1480686723256209,-0.208008,-0.640625,0.786621
1480686723276763,-0.213379,-0.651855,0.780762
1480686723300827,-0.211914,-0.647949,0.78418
1480686723323388,-0.210938,-0.630371,0.786133
1480686723342940,-0.213867,-0.623535,0.780762
1480686723369510,-0.205078,-0.630859,0.789063
1480686723392070,-0.208496,-0.64502,0.785645
1480686723404603,-0.210449,-0.652344,0.785156
1480686723418139,-0.209961,-0.644531,0.782715
1480686723436188,-0.208984,-0.62793,0.789063
1480686723458246,-0.209473,-0.618652,0.786621
1480686723486320,-0.20752,-0.628418,0.782715
1480686723494342,-0.213867,-0.649902,0.786133
1480686723515397,-0.217773,-0.647461,0.78418
1480686723537958,-0.213867,-0.645996,0.780762
1480686723556009,-0.200684,-0.633789,0.775879
1480686723578565,-0.203125,-0.622559,0.792969
1480686723607643,-0.210449,-0.623047,0.786621
1480686723621681,-0.20752,-0.640625,0.792969
1480686723645744,-0.216309,-0.64209,0.786133
1480686723685350,-0.210449,-0.635254,0.787598
1480686723697883,-0.201172,-0.635254,0.790039
1480686723711920,-0.205566,-0.637207,0.776367
1480686723717936,-0.20459,-0.649902,0.78125
1480686723742000,-0.215332,-0.644531,0.785156
1480686723757040,-0.213867,-0.634277,0.799316
1480686723787121,-0.212891,-0.627441,0.788574
1480686723809179,-0.19873,-0.624023,0.785156
1480686723831739,-0.210938,-0.635254,0.788086
1480686723837755,-0.217285,-0.641113,0.78125
1480686723860317,-0.20752,-0.652344,0.786133
1480686723875355,-0.212891,-0.647461,0.783691
1480686723982139,-0.205566,-0.62793,0.786621
1480686723991164,-0.209961,-0.620605,0.791016
1480686723999686,-0.220215,-0.63623,0.794434
1480686724017734,-0.207031,-0.631348,0.788086
1480686724043803,-0.196289,-0.632324,0.782227
1480686724062853,-0.204102,-0.64209,0.788086
1480686724085414,-0.211914,-0.643066,0.785645
1480686724108977,-0.217773,-0.641113,0.789063
1480686724131537,-0.216797,-0.631348,0.789063
1480686724155102,-0.208984,-0.626953,0.783203
1480686724177157,-0.206543,-0.630371,0.776367
1480686724180165,-0.212402,-0.64209,0.782715
1480686724214256,-0.21875,-0.646484,0.785645
1480686724220273,-0.214355,-0.643555,0.785156
1480686724252358,-0.216797,-0.632813,0.783203
1480686724259376,-0.207031,-0.627441,0.787109
1480686724281936,-0.208984,-0.631836,0.784668
1480686724295472,-0.218262,-0.637695,0.783691
1480686724318032,-0.214844,-0.646973,0.787109
1480686724343600,-0.21582,-0.64209,0.782227
1480686724373686,-0.206543,-0.628418,0.789551
1480686724386723,-0.204102,-0.617676,0.789063
1480686724411281,-0.213867,-0.624512,0.797363
1480686724445871,-0.216309,-0.643066,0.788086
1480686724457403,-0.214844,-0.653809,0.779297
1480686724477456,-0.209961,-0.640625,0.779785
1480686724479963,-0.213379,-0.616211,0.788086
1480686724498011,-0.210449,-0.617676,0.788086
1480686724523578,-0.205566,-0.638184,0.786621
1480686724537117,-0.212891,-0.646973,0.790527
1480686724565691,-0.212402,-0.638184,0.789063
1480686724580229,-0.212402,-0.632324,0.783691
1480686724596774,-0.202148,-0.635254,0.787598
1480686724623846,-0.209473,-0.630371,0.779785
1480686724643397,-0.216797,-0.640137,0.782227
1480686724664454,-0.216309,-0.642578,0.791992
1480686724688522,-0.217285,-0.635742,0.788574
1480686724708069,-0.210938,-0.627441,0.787598
1480686724734640,-0.20166,-0.624023,0.78418
1480686724754693,-0.204102,-0.626953,0.791016
1480686724778758,-0.208008,-0.641602,0.789551
1480686724782768,-0.211426,-0.644531,0.789063
1480686724797808,-0.21582,-0.632324,0.785645
1480686724829392,-0.20752,-0.623535,0.788574
1480686724846437,-0.20752,-0.62793,0.776855
1480686724865489,-0.208496,-0.640625,0.787598
1480686724888048,-0.21582,-0.647949,0.783691
1480686724898075,-0.212402,-0.652832,0.78418
1480686724918132,-0.203125,-0.643066,0.788086
1480686724941691,-0.202637,-0.622559,0.793945
1480686724965755,-0.209473,-0.617676,0.796387
1480686724985307,-0.219238,-0.635742,0.791504
1480686725000346,-0.212402,-0.664551,0.783203
1480686725031930,-0.19873,-0.661621,0.789063
1480686725045467,-0.209961,-0.625977,0.785156
1480686725068026,-0.203125,-0.612305,0.797363
1480686725078554,-0.218262,-0.616211,0.786621
1480686725101115,-0.220703,-0.645508,0.784668
1480686725131697,-0.219727,-0.668457,0.776367
1480686725154760,-0.20459,-0.655273,0.779297
1480686725175813,-0.197266,-0.645508,0.783691
1480686725180325,-0.203125,-0.612793,0.788086
1480686725198373,-0.227051,-0.61084,0.79834
1480686725219445,-0.223633,-0.632813,0.79248
1480686725240501,-0.213867,-0.645996,0.783203
1480686725263061,-0.219238,-0.651855,0.780762
1480686725302165,-0.194336,-0.636719,0.789063
1480686725304674,-0.201172,-0.61084,0.800781
1480686725347286,-0.219727,-0.623535,0.799805
1480686725353804,-0.208984,-0.653809,0.786621
1480686725369344,-0.212402,-0.661621,0.778809
1480686725382880,-0.216309,-0.626465,0.789551
1480686725406944,-0.212402,-0.611328,0.789063
1480686725428000,-0.206055,-0.623535,0.794434
1480686725451061,-0.211426,-0.636719,0.788086
1480686725460128,-0.215332,-0.655273,0.782227
1480686725497685,-0.213867,-0.647949,0.784668
1480686725506710,-0.208496,-0.632813,0.775391
1480686725519242,-0.202148,-0.62207,0.788086
1480686725543808,-0.219727,-0.612305,0.797852
1480686725625526,-0.21582,-0.611816,0.800781
1480686725640566,-0.205078,-0.640625,0.784668
1480686725643071,-0.186523,-0.658203,0.773926
1480686725662624,-0.188477,-0.663086,0.78418
1480686725664629,-0.203613,-0.637207,0.783203
1480686725682677,-0.212402,-0.633301,0.772461
1480686725708245,-0.224121,-0.624512,0.795898
1480686725729302,-0.240234,-0.604492,0.793945
1480686725768906,-0.211914,-0.62793,0.786133
1480686725783946,-0.190918,-0.655273,0.780762
1480686725787963,-0.201172,-0.671387,0.779297
1480686725813526,-0.204102,-0.65332,0.776367
1480686725837088,-0.227051,-0.63623,0.782227
1480686725887221,-0.230469,-0.624023,0.788574
1480686725912287,-0.222168,-0.602539,0.796387
1480686725939861,-0.216309,-0.672852,0.761719
1480686725944874,-0.235352,-0.647461,0.77832
1480686725961919,-0.223633,-0.621582,0.787598
1480686725985984,-0.213867,-0.612793,0.791504
1480686726008544,-0.214844,-0.644043,0.784668
1480686726020576,-0.210938,-0.67041,0.766602
1480686726042634,-0.224609,-0.671387,0.773926
1480686726091264,-0.21875,-0.636719,0.784668
1480686726148415,-0.224121,-0.60791,0.791504
1480686726174487,-0.219727,-0.624023,0.790039
1480686726181001,-0.21582,-0.648438,0.773926
1480686726190026,-0.219238,-0.628418,0.783691
1480686726216597,-0.21582,-0.624512,0.772949
1480686726223114,-0.210449,-0.638672,0.782227
1480686726241664,-0.215332,-0.64502,0.786133
1480686726267733,-0.226074,-0.645996,0.788574
1480686726286784,-0.225098,-0.648926,0.783203
1480686726308340,-0.211914,-0.639648,0.782227
1480686726321876,-0.211914,-0.62793,0.786621
1480686726345942,-0.217773,-0.626465,0.784668
1480686726360981,-0.223633,-0.634277,0.786621
1480686726382037,-0.229492,-0.637695,0.785156
1480686726427226,-0.223145,-0.642578,0.777832
1480686726429664,-0.218262,-0.638672,0.776367
1480686726449215,-0.203613,-0.646484,0.774902
1480686726465759,-0.21875,-0.648438,0.772949
1480686726485313,-0.220215,-0.654785,0.782227
1480686726516895,-0.216309,-0.64209,0.796387
1480686726530431,-0.218262,-0.627441,0.783203
1480686726541962,-0.210938,-0.618164,0.790039
1480686726577055,-0.210938,-0.630859,0.789551
1480686726584074,-0.223145,-0.640137,0.782715
1480686726601119,-0.213867,-0.664063,0.775391
1480686726630698,-0.217773,-0.666016,0.773438
1480686726650251,-0.211426,-0.638672,0.771973
1480686726666794,-0.205566,-0.60791,0.797363
1480686726718432,-0.23291,-0.601563,0.802734
1480686726729461,-0.21582,-0.646973,0.782715
1480686726751521,-0.208984,-0.674805,0.766602
1480686726772577,-0.219238,-0.664063,0.774414
1480686726774580,-0.213379,-0.619629,0.78418
1480686726795636,-0.217773,-0.608887,0.788086
1480686726817194,-0.22168,-0.625,0.786133
1480686726822709,-0.222656,-0.650879,0.774902
1480686726845268,-0.21875,-0.658203,0.779297
1480686726863317,-0.218262,-0.635742,0.785156
1480686726882868,-0.211426,-0.634277,0.789551
1480686726905431,-0.20752,-0.630859,0.788574
1480686726923476,-0.217773,-0.642578,0.777832
1480686726943028,-0.22168,-0.662598,0.771973
1480686727004697,-0.223145,-0.646484,0.772461
1480686727011710,-0.221191,-0.62207,0.797363
1480686727019232,-0.228516,-0.608398,0.791016
1480686727040789,-0.212402,-0.645996,0.777832
1480686727064853,-0.211426,-0.66748,0.77002
1480686727068362,-0.21875,-0.658203,0.777832
1480686727088919,-0.224121,-0.638184,0.786621
1480686727103455,-0.220703,-0.626953,0.788086
1480686727123007,-0.214355,-0.624512,0.775879
1480686727145568,-0.216309,-0.628906,0.787598
1480686727163616,-0.238281,-0.640137,0.775391
1480686727185674,-0.214844,-0.669922,0.773926
1480686727210740,-0.210938,-0.658691,0.777344
1480686727231296,-0.214844,-0.617676,0.790039
1480686727251850,-0.215332,-0.622559,0.789063
1480686727286443,-0.221191,-0.64209,0.786133
1480686727319029,-0.217773,-0.657715,0.777832
1480686727329055,-0.225098,-0.647949,0.782715
1480686727340586,-0.21582,-0.625488,0.792969
1480686727350613,-0.23291,-0.616211,0.78125
1480686727366655,-0.216797,-0.644043,0.772949
1480686727394732,-0.214355,-0.663574,0.774902
1480686727407765,-0.226563,-0.656738,0.77002
1480686727424309,-0.220703,-0.642578,0.793457
1480686727445364,-0.21875,-0.617188,0.794922
1480686727463913,-0.21582,-0.607422,0.794922
1480686727485972,-0.208008,-0.640137,0.775391
1480686727508532,-0.213379,-0.664063,0.772461
1480686727531107,-0.226563,-0.655762,0.779297
1480686727553152,-0.22168,-0.63916,0.784668
1480686727569194,-0.226074,-0.618164,0.794922
1480686727583732,-0.218262,-0.611816,0.788574
1480686727606292,-0.213379,-0.63623,0.782715
1480686727625343,-0.224609,-0.655762,0.778809
1480686727643892,-0.219727,-0.658203,0.774414
1480686727670463,-0.217773,-0.638672,0.785645
1480686727693024,-0.221191,-0.620605,0.783691
1480686727703551,-0.210449,-0.626465,0.787109
1480686727726111,-0.209473,-0.645996,0.788574
1480686727745161,-0.225586,-0.652344,0.776367
1480686727763210,-0.227051,-0.63623,0.789063
1480686727787778,-0.245117,-0.629883,0.780273
1480686727808831,-0.213379,-0.620605,0.776855
1480686727831391,-0.227051,-0.638184,0.786133
1480686727853450,-0.205566,-0.655273,0.773438
1480686727873002,-0.205566,-0.651855,0.782227
1480686727883530,-0.224121,-0.643066,0.791016
1480686727906090,-0.220215,-0.616211,0.791992
1480686727928649,-0.215332,-0.626465,0.785156
1480686727944692,-0.208496,-0.648926,0.777344
1480686727973770,-0.222168,-0.651367,0.774414
1480686727994326,-0.226074,-0.647461,0.783203
1480686728003349,-0.22168,-0.640625,0.786133
1480686728041450,-0.21582,-0.609375,0.794434
1480686728045460,-0.242676,-0.617676,0.777832
1480686728064510,-0.204102,-0.665039,0.76709
1480686728115647,-0.214355,-0.663086,0.773926
1480686728130686,-0.231445,-0.638184,0.788574
1480686728135198,-0.219238,-0.616211,0.791504
1480686728153250,-0.230957,-0.625488,0.783691
1480686728174303,-0.216797,-0.633301,0.773926
1480686728187841,-0.214844,-0.644043,0.777344
1480686728205890,-0.223633,-0.649414,0.78418
1480686728228949,-0.219727,-0.640625,0.787109
1480686728247998,-0.226074,-0.628418,0.785156
1480686728266047,-0.227051,-0.611328,0.787598
1480686728293119,-0.22168,-0.614746,0.800781
1480686728315177,-0.212891,-0.639648,0.787598
1480686728333226,-0.215332,-0.650879,0.789063
1480686728355785,-0.234863,-0.658691,0.780762
1480686728376841,-0.208496,-0.655273,0.768066
1480686728393386,-0.222168,-0.623047,0.783203
1480686728431488,-0.228027,-0.604004,0.785156
1480686728437002,-0.233887,-0.635742,0.787109
1480686728450537,-0.220215,-0.669434,0.783203
1480686728473097,-0.216797,-0.643555,0.77832
1480686728488139,-0.217773,-0.619629,0.796875
1480686728505684,-0.212891,-0.610352,0.792969
1480686728528244,-0.228516,-0.638672,0.786133
1480686728547796,-0.223145,-0.661133,0.775879
1480686728573865,-0.221191,-0.658203,0.776367
1480686728588405,-0.229492,-0.636719,0.780273
1480686728642047,-0.219238,-0.625977,0.788574
1480686728649066,-0.213867,-0.618164,0.794434
1480686728653076,-0.211426,-0.634766,0.797852
1480686728669119,-0.209961,-0.649414,0.790039
1480686728691679,-0.222656,-0.658691,0.782715
1480686728714239,-0.225586,-0.654785,0.774902
1480686728727775,-0.209473,-0.623535,0.773926
1480686728759362,-0.22998,-0.600586,0.793457
1480686728768383,-0.25293,-0.607422,0.799805
1480686728787938,-0.220703,-0.63916,0.778809
1480686728806986,-0.224121,-0.672852,0.780273
1480686728828543,-0.216309,-0.642578,0.773926
1480686728848094,-0.20166,-0.621582,0.788574
1480686728873663,-0.228516,-0.611816,0.799316
1480686728888703,-0.226074,-0.635742,0.803223
1480686728986463,-0.232422,-0.644043,0.776855
1480686728992980,-0.228027,-0.657227,0.774414
1480686729009022,-0.239746,-0.651855,0.765625
1480686729039102,-0.22168,-0.678711,0.763184
1480686729046622,-0.224121,-0.640625,0.755371
1480686729072692,-0.230957,-0.606934,0.77832
1480686729088234,-0.225586,-0.621094,0.785156
1480686729112296,-0.224121,-0.623047,0.793457
1480686729128341,-0.230957,-0.63916,0.78418
1480686729149396,-0.226563,-0.656738,0.782227
1480686729218078,-0.225586,-0.641113,0.788574
1480686729220588,-0.224121,-0.621094,0.778809
1480686729247656,-0.224609,-0.631836,0.787109
1480686729250163,-0.230957,-0.637207,0.783203
1480686729264702,-0.231934,-0.656738,0.782715
1480686729285257,-0.227539,-0.638672,0.78418
1480686729290272,-0.226074,-0.619629,0.788574
1480686729308318,-0.220703,-0.619141,0.780273
1480686729329375,-0.219238,-0.638672,0.781738
1480686729350430,-0.236328,-0.642578,0.783203
1480686729374494,-0.23291,-0.647949,0.790039
1480686729397055,-0.229492,-0.626465,0.787598
1480686729419615,-0.230957,-0.615723,0.785156
1480686729450697,-0.227539,-0.635254,0.777832
1480686729502335,-0.224609,-0.640625,0.783203
1480686729525909,-0.23291,-0.645508,0.787109
1480686729531412,-0.224609,-0.640625,0.783203
1480686729547955,-0.230469,-0.625,0.784668
1480686729560581,-0.226563,-0.632324,0.779297
1480686729570015,-0.225586,-0.640137,0.773438
1480686729592578,-0.233398,-0.649902,0.787598
1480686729615134,-0.23584,-0.638672,0.779297
1480686729638198,-0.227051,-0.632813,0.782715
1480686729652233,-0.222168,-0.623047,0.782715
1480686729675294,-0.227539,-0.631836,0.788574
1480686729697854,-0.226074,-0.648438,0.783203
1480686729718408,-0.22998,-0.645996,0.790039
1480686729742472,-0.232422,-0.640137,0.78418
1480686729765535,-0.235352,-0.629395,0.776367
1480686729779571,-0.216309,-0.617188,0.78125
1480686729793610,-0.245605,-0.618164,0.781738
1480686729811155,-0.22998,-0.640137,0.775879
1480686729831710,-0.223145,-0.652832,0.786133
1480686729847251,-0.22168,-0.643066,0.800781
1480686729870313,-0.22168,-0.62207,0.773926
1480686729890867,-0.216797,-0.643066,0.771484
1480686729907912,-0.220215,-0.649902,0.785156
1480686729929971,-0.237793,-0.631348,0.785156
1480686729952533,-0.235352,-0.629395,0.791504
1480686729975091,-0.22998,-0.631836,0.788086
1480686729998654,-0.221191,-0.635254,0.779785
1480686730018206,-0.229004,-0.632813,0.782227
1480686730082377,-0.22168,-0.630371,0.794434
1480686730096414,-0.236816,-0.63916,0.790039
1480686730100926,-0.220703,-0.63916,0.782715
1480686730110953,-0.220215,-0.631836,0.786621
1480686730133011,-0.219727,-0.625,0.790527
1480686730147550,-0.229492,-0.637695,0.792969
1480686730170110,-0.22998,-0.649902,0.77832
1480686730191166,-0.219727,-0.650391,0.780762
1480686730214728,-0.213379,-0.630371,0.782227
1480686730230270,-0.217285,-0.615723,0.782715
1480686730252329,-0.223145,-0.617188,0.793457
1480686730320512,-0.237305,-0.631348,0.794922
1480686730337054,-0.226074,-0.649414,0.787598
1480686730342569,-0.213379,-0.641113,0.782227
1480686730357609,-0.21875,-0.637695,0.780273
1480686730373150,-0.21875,-0.632813,0.788086
1480686730401225,-0.235352,-0.633789,0.789063
1480686730416265,-0.225098,-0.641602,0.786133
1480686730432307,-0.222168,-0.644531,0.787109
1480686730447848,-0.212891,-0.633789,0.784668
1480686730469908,-0.214355,-0.634766,0.777832
1480686730492468,-0.226074,-0.646484,0.787109
1480686730508510,-0.222168,-0.644531,0.785645
1480686730536084,-0.227051,-0.633789,0.785156
1480686730560148,-0.228516,-0.621094,0.78125
1480686730583710,-0.223145,-0.635742,0.774414
1480686730604769,-0.220215,-0.658691,0.778809
1480686730628329,-0.220703,-0.649414,0.787598
1480686730633342,-0.226074,-0.633789,0.791016
1480686730649886,-0.22998,-0.624023,0.792969
1480686730679966,-0.225098,-0.621094,0.777832
1480686730697011,-0.229004,-0.63916,0.771484
1480686730725086,-0.22998,-0.656738,0.773438
1480686730732606,-0.224609,-0.652344,0.774414
1480686730746643,-0.227539,-0.646484,0.777344
1480686730770207,-0.211426,-0.630371,0.796875
1480686730792768,-0.223633,-0.602051,0.791016
1480686730806803,-0.230957,-0.608398,0.792969
1480686730830366,-0.228516,-0.651367,0.765625
1480686730858442,-0.22998,-0.673828,0.764648
1480686730873983,-0.231445,-0.65918,0.775391
1480686730903561,-0.222656,-0.614258,0.783691
1480686730926622,-0.232422,-0.597168,0.788086
1480686730933646,-0.216797,-0.631348,0.788086
1480686730950184,-0.21875,-0.649414,0.792969
1480686730972243,-0.22168,-0.655273,0.786621
1480686731001821,-0.229492,-0.643555,0.786621
1480686731009843,-0.230469,-0.629395,0.78418
1480686731032403,-0.222168,-0.621094,0.782227
1480686731053459,-0.229004,-0.632324,0.78125
1480686731070003,-0.232422,-0.643066,0.785156
1480686731092563,-0.23291,-0.632324,0.790039
1480686731113618,-0.234863,-0.618164,0.795898
1480686731138186,-0.217285,-0.619141,0.790527
1480686731160243,-0.217773,-0.630859,0.791992
1480686731180798,-0.226074,-0.634766,0.783691
1480686731191326,-0.226074,-0.663574,0.768066
1480686731213384,-0.233887,-0.657227,0.777344
1480686731233438,-0.232422,-0.619141,0.784668
1480686731249981,-0.229004,-0.604004,0.785645
1480686731273043,-0.228516,-0.62207,0.790039
1480686731293661,-0.22168,-0.638184,0.781738
1480686731311645,-0.232422,-0.65332,0.78125
1480686731333203,-0.225098,-0.643555,0.786133
1480686731362281,-0.222168,-0.617676,0.788574
1480686731383336,-0.223145,-0.611816,0.79541
1480686731392361,-0.237305,-0.624512,0.784668
1480686731415926,-0.224609,-0.648926,0.785645
1480686731445502,-0.239258,-0.647461,0.786621
1480686731468562,-0.220215,-0.628906,0.79541
1480686731494131,-0.217285,-0.61084,0.794922
1480686731497140,-0.23291,-0.617676,0.77832
1480686731512680,-0.224609,-0.636719,0.780273
1480686731534738,-0.234375,-0.637695,0.789063
1480686731549277,-0.237793,-0.629395,0.779297
1480686731572340,-0.226563,-0.641602,0.786621
1480686731596403,-0.21875,-0.625977,0.780762
1480686731624979,-0.226074,-0.623535,0.783691
1480686731640019,-0.227539,-0.63623,0.784668
1480686731663081,-0.224609,-0.644531,0.789551
1480686731748307,-0.228027,-0.62793,0.788086
1480686731767859,-0.228516,-0.617676,0.793457
1480686731770370,-0.230469,-0.634766,0.779785
1480686731776381,-0.240234,-0.645508,0.791016
1480686731789416,-0.228027,-0.633789,0.790527
1480686731812477,-0.221191,-0.617676,0.78125
1480686731835037,-0.229004,-0.625488,0.787109
1480686731857598,-0.221191,-0.632813,0.780273
1480686731872637,-0.22998,-0.637695,0.786621
1480686731895198,-0.228516,-0.639648,0.790527
1480686731917757,-0.226563,-0.630859,0.788574
1480686731933800,-0.223145,-0.62207,0.791992
1480686731960872,-0.222656,-0.623535,0.791504
1480686732024040,-0.219727,-0.629883,0.786133
1480686732037576,-0.231445,-0.648926,0.784668
1480686732053117,-0.210449,-0.623047,0.789551
1480686732055624,-0.21875,-0.600586,0.795898
1480686732075176,-0.227539,-0.618652,0.798828
1480686732096232,-0.222168,-0.660156,0.788574
1480686732112274,-0.20752,-0.677246,0.777832
1480686732149373,-0.220703,-0.635254,0.779785
1480686732163410,-0.233887,-0.605957,0.79541
1480686732172435,-0.223633,-0.602539,0.800293
1480686732194995,-0.22998,-0.623047,0.793945
1480686732217555,-0.224609,-0.645996,0.788574
1480686732253150,-0.218262,-0.655762,0.785645
1480686732279721,-0.220703,-0.640137,0.789063
1480686732293757,-0.213867,-0.611328,0.797363
1480686732300776,-0.225098,-0.609375,0.796387
1480686732323837,-0.218262,-0.632324,0.784668
1480686732338877,-0.222168,-0.646973,0.779785
1480686732352414,-0.228516,-0.64209,0.780273
1480686732374973,-0.223633,-0.625488,0.788086
1480686732398035,-0.227051,-0.613281,0.792969
1480686732436137,-0.222656,-0.618164,0.785645
1480686732459698,-0.220215,-0.641113,0.77832
1480686732488781,-0.227051,-0.651367,0.786621
1480686732557460,-0.228516,-0.631836,0.786621
1480686732578013,-0.224609,-0.621582,0.790039
1480686732600573,-0.228027,-0.647461,0.789551
1480686732603080,-0.228027,-0.629395,0.78418
1480686732624637,-0.226563,-0.619141,0.785645
1480686732637671,-0.225098,-0.614258,0.78418
1480686732660233,-0.221191,-0.624023,0.789063
1480686732674770,-0.230957,-0.63623,0.788086
1480686732698835,-0.229492,-0.643555,0.787598
1480686732711875,-0.22168,-0.635742,0.788086
1480686732736940,-0.219238,-0.618652,0.783691
1480686732757491,-0.214355,-0.616211,0.794434
1480686732780551,-0.229004,-0.628418,0.788574
1480686732886334,-0.221191,-0.650391,0.790527
1480686732892349,-0.220215,-0.638184,0.788086
1480686732898365,-0.22168,-0.63916,0.78125
1480686732915410,-0.227539,-0.642578,0.786621
1480686732943485,-0.222656,-0.637695,0.791016
1480686732966045,-0.233887,-0.620117,0.789063
1480686732975068,-0.227051,-0.609375,0.789063
1480686732997629,-0.219238,-0.637695,0.783203
1480686733018684,-0.225098,-0.650879,0.78125
1480686733035229,-0.227539,-0.644043,0.792969
1480686733057288,-0.233887,-0.62793,0.788086
1480686733079848,-0.21875,-0.618164,0.786133
1480686733102909,-0.222168,-0.621582,0.788086
1480686733124968,-0.23291,-0.624512,0.786621
1480686733138504,-0.23291,-0.643066,0.776855
1480686733155048,-0.23584,-0.652344,0.780762
1480686733177607,-0.234863,-0.629883,0.788574
1480686733198664,-0.222656,-0.608887,0.78418
1480686733214706,-0.225098,-0.621094,0.787598
1480686733243283,-0.227539,-0.637207,0.779785
1480686733267347,-0.233398,-0.645508,0.78125
1480686733274866,-0.233887,-0.639648,0.783691
1480686733298429,-0.22168,-0.634277,0.787109
1480686733336530,-0.226074,-0.614746,0.790039
1480686733358087,-0.228516,-0.620117,0.785645
1480686733360691,-0.226074,-0.637207,0.781738
1480686733380146,-0.233398,-0.642578,0.78418
1480686733408722,-0.238281,-0.632813,0.782227
1480686733418750,-0.231445,-0.621094,0.787598
1480686733448327,-0.222656,-0.619141,0.789063
1480686733454343,-0.226074,-0.626953,0.777832
1480686733477404,-0.227539,-0.645996,0.777832
1480686733499965,-0.229004,-0.647949,0.791016
1480686733523529,-0.229004,-0.633301,0.785156
1480686733545085,-0.225098,-0.623047,0.784668
1480686733567645,-0.220703,-0.623047,0.785645
1480686733590211,-0.229004,-0.630371,0.790527
1480686733597724,-0.234863,-0.634766,0.788574
1480686733636327,-0.230957,-0.651367,0.78125
1480686733648359,-0.230469,-0.635254,0.78418
1480686733657383,-0.229492,-0.615723,0.77832
1480686733687463,-0.225586,-0.624512,0.785645
1480686733694482,-0.23584,-0.629883,0.778809
1480686733725566,-0.226563,-0.646484,0.78418
1480686733748125,-0.23291,-0.640625,0.784668
1480686733761661,-0.227051,-0.62793,0.783691
1480686733777704,-0.22168,-0.619141,0.789551
1480686733799764,-0.222656,-0.624023,0.777832
1480686733822323,-0.226563,-0.638672,0.785645
1480686733844881,-0.231445,-0.640625,0.791504
1480686733867943,-0.230957,-0.63623,0.78125
1480686733891506,-0.234375,-0.625977,0.780762
1480686733912561,-0.230469,-0.625,0.779297
1480686733927601,-0.227539,-0.625488,0.785645
1480686733948658,-0.226074,-0.63623,0.799316
1480686733965703,-0.236816,-0.64209,0.783691
1480686733979740,-0.231445,-0.644043,0.773926
1480686734003810,-0.226074,-0.633789,0.781738
1480686734030876,-0.226074,-0.616699,0.788086
1480686734047421,-0.228027,-0.621094,0.78418
1480686734060956,-0.236328,-0.641113,0.784668
1480686734077500,-0.229004,-0.648438,0.785156
1480686734123624,-0.219238,-0.638672,0.789551
1480686734128136,-0.216797,-0.616699,0.79248
1480686734147185,-0.229492,-0.605957,0.790039
1480686734167239,-0.22998,-0.640625,0.780762
1480686734188295,-0.230957,-0.652344,0.777344
1480686734213363,-0.23291,-0.643066,0.779785
1480686734234920,-0.231934,-0.629395,0.78418
1480686734249958,-0.229004,-0.618164,0.791504
1480686734258983,-0.228027,-0.620605,0.790527
1480686734280540,-0.231934,-0.638184,0.781738
1480686734303605,-0.226563,-0.650391,0.780762
1480686734325160,-0.224609,-0.638184,0.795898
1480686734353735,-0.227051,-0.617188,0.794434
1480686734386324,-0.226563,-0.614258,0.788574
1480686734392340,-0.224121,-0.63916,0.783691
1480686734402365,-0.229004,-0.647949,0.782227
1480686734422418,-0.23291,-0.64502,0.780273
1480686734444978,-0.229492,-0.634277,0.787109
1480686734468039,-0.220215,-0.612793,0.788086
1480686734498119,-0.227539,-0.617676,0.783203
1480686734500626,-0.224121,-0.63916,0.779297
1480686734520681,-0.219238,-0.646973,0.788574
1480686734543740,-0.238281,-0.635742,0.783203
1480686734557276,-0.233887,-0.634766,0.786133
1480686734580338,-0.215332,-0.626465,0.79834
1480686734608411,-0.22998,-0.614746,0.789063
1480686734616936,-0.226563,-0.640625,0.781738
1480686734647515,-0.229004,-0.648438,0.789063
1480686734678099,-0.225586,-0.635742,0.789063
1480686734691133,-0.22998,-0.618164,0.786621
1480686734700156,-0.233887,-0.629395,0.787109
1480686734722717,-0.224121,-0.632324,0.775391
1480686734745276,-0.225586,-0.641602,0.783691
1480686734767336,-0.22998,-0.641113,0.78125
1480686734790899,-0.225098,-0.642578,0.79541
1480686734810951,-0.232422,-0.621582,0.787598
1480686734820478,-0.21875,-0.621094,0.789063
1480686734842534,-0.224609,-0.626465,0.778809
1480686734863591,-0.231445,-0.640625,0.78418
1480686734887654,-0.227539,-0.652832,0.78418
1480686734902695,-0.226563,-0.638672,0.786133
1480686734923754,-0.233398,-0.621094,0.78418
1480686734964860,-0.228027,-0.619141,0.785645
1480686734969372,-0.234863,-0.630859,0.778809
1480686734983409,-0.234863,-0.642578,0.782715
1480686735000455,-0.230957,-0.641602,0.785645
1480686735023015,-0.225586,-0.634766,0.787109
1480686735045073,-0.226074,-0.617188,0.789063
1480686735067634,-0.227051,-0.625,0.785645
1480686735090194,-0.229004,-0.63623,0.782715
1480686735104231,-0.229004,-0.644043,0.789551
1480686735120776,-0.23584,-0.643555,0.788574
1480686735142332,-0.230469,-0.627441,0.778809
1480686735164892,-0.226563,-0.617188,0.784668
1480686735180433,-0.223145,-0.628418,0.780273
1480686735208508,-0.225098,-0.640137,0.789551
1480686735240595,-0.234863,-0.635254,0.792969
1480686735246609,-0.233398,-0.631836,0.788086
1480686735276689,-0.223145,-0.632813,0.779785
1480686735285213,-0.223145,-0.621582,0.783691
1480686735323815,-0.223633,-0.628906,0.789063
1480686735328327,-0.230469,-0.636719,0.788086
1480686735344870,-0.236816,-0.642578,0.789063
1480686735369940,-0.237305,-0.635742,0.785645
1480686735382471,-0.226074,-0.624512,0.785645
1480686735420071,-0.221191,-0.621582,0.785645
1480686735425586,-0.228516,-0.624512,0.787598
1480686735442630,-0.23584,-0.640625,0.787109
1480686735466695,-0.230469,-0.63623,0.789551
1480686735497276,-0.229004,-0.625488,0.782227
1480686735503795,-0.223145,-0.621582,0.779785
1480686735524849,-0.224121,-0.624023,0.783691
1480686735539388,-0.236816,-0.626953,0.782227
1480686735562450,-0.237305,-0.643555,0.788086
1480686735601553,-0.226074,-0.641113,0.785156
1480686735606066,-0.234375,-0.629883,0.786133
1480686735622610,-0.21875,-0.633301,0.788574
1480686735647176,-0.225098,-0.629395,0.783203
1480686735674747,-0.231934,-0.634766,0.78418
1480686735690791,-0.229004,-0.641113,0.787109
1480686735712347,-0.234375,-0.634766,0.788086
1480686735734910,-0.227051,-0.621582,0.782227
1480686735744433,-0.227539,-0.622559,0.788086
1480686735765990,-0.233887,-0.622559,0.787109
1480686735786047,-0.240234,-0.641113,0.777832
1480686735804092,-0.235352,-0.646973,0.784668
1480686735825149,-0.229004,-0.635742,0.787109
1480686735846203,-0.232422,-0.620605,0.78418
1480686735870269,-0.225586,-0.625488,0.791992
1480686735891826,-0.227539,-0.632324,0.794434
1480686735928924,-0.23291,-0.636719,0.792969
1480686735947974,-0.229004,-0.639648,0.787109
1480686735952487,-0.236816,-0.629395,0.776855
1480686735973543,-0.226563,-0.623535,0.789063
1480686735989585,-0.229004,-0.620605,0.791992
1480686736012646,-0.226563,-0.631836,0.790527
1480686736043227,-0.236328,-0.635254,0.787109
1480686736045233,-0.232422,-0.640137,0.785156
1480686736064786,-0.227051,-0.624512,0.789063
1480686736085842,-0.232422,-0.60791,0.794922
1480686736125949,-0.231934,-0.625488,0.777344
1480686736130960,-0.22998,-0.651367,0.782715
1480686736155025,-0.235352,-0.648438,0.786133
1480686736170066,-0.225098,-0.62207,0.800293
1480686736207665,-0.23291,-0.617188,0.785156
1480686736222705,-0.230469,-0.617676,0.790039
1480686736225212,-0.231445,-0.629883,0.783203
1480686736251281,-0.239258,-0.634277,0.782227
1480686736281364,-0.240723,-0.63916,0.788086
1480686736290385,-0.228516,-0.634766,0.785645
1480686736310939,-0.231934,-0.620605,0.783691
1480686736328486,-0.234863,-0.610352,0.784668
1480686736342022,-0.229492,-0.634277,0.785156
1480686736365085,-0.238281,-0.647461,0.775879
1480686736388145,-0.228516,-0.645508,0.784668
1480686736409702,-0.227051,-0.625488,0.791504
1480686736432262,-0.225586,-0.614258,0.793457
1480686736455324,-0.223145,-0.62793,0.786133
1480686736485404,-0.226563,-0.640137,0.787109
1480686736487911,-0.23291,-0.630371,0.799316
1480686736508967,-0.249023,-0.618164,0.787598
1480686736531526,-0.233398,-0.625977,0.777344
1480686736545062,-0.238281,-0.634277,0.768555
1480686736567622,-0.23877,-0.633789,0.77832
1480686736596198,-0.235352,-0.64209,0.786621
1480686736606225,-0.230469,-0.64502,0.780762
1480686736627280,-0.232422,-0.633789,0.791992
1480686736648837,-0.231934,-0.612305,0.787109
1480686736666386,-0.224609,-0.611328,0.791992
1480686736687441,-0.230957,-0.61377,0.803711
1480686736708496,-0.231445,-0.631348,0.788574
1480686736725543,-0.232422,-0.637207,0.794922
1480686736761639,-0.23291,-0.630859,0.788086
1480686736785702,-0.227539,-0.617676,0.782715
1480686736787707,-0.226074,-0.618652,0.787598
1480686736808764,-0.231445,-0.62793,0.78418
1480686736829819,-0.231445,-0.644531,0.799316
1480686736844859,-0.236816,-0.638672,0.784668
1480686736867419,-0.224609,-0.626465,0.791016
1480686736888475,-0.231445,-0.604004,0.789063
1480686736905019,-0.230469,-0.609863,0.791016
1480686736927579,-0.232422,-0.632813,0.789551
1480686736956156,-0.227051,-0.646973,0.789063
1480686736965681,-0.229004,-0.634277,0.793457
1480686737041382,-0.230469,-0.613281,0.79541
1480686737054919,-0.227539,-0.611328,0.794434
1480686737062438,-0.229492,-0.642578,0.786621
1480686737075974,-0.23584,-0.638672,0.783691
1480686737084998,-0.227051,-0.632813,0.791016
1480686737107558,-0.227539,-0.617188,0.791504
1480686737131121,-0.230957,-0.616211,0.785156
1480686737144656,-0.222656,-0.629395,0.778809
1480686737174736,-0.236328,-0.639648,0.793457
1480686737197297,-0.234375,-0.640625,0.787109
1480686737218353,-0.227539,-0.633789,0.78418
1480686737234897,-0.220703,-0.617676,0.785645
1480686737255953,-0.226074,-0.611328,0.797852
1480686737264476,-0.234375,-0.623047,0.805664
1480686737301073,-0.224121,-0.639648,0.793945
1480686737310096,-0.228027,-0.643066,0.786133
1480686737332656,-0.230469,-0.627441,0.786133
1480686737362235,-0.22168,-0.612305,0.792969
1480686737375771,-0.23291,-0.609375,0.791504
1480686737408859,-0.23877,-0.63623,0.77832
1480686737413372,-0.228027,-0.665527,0.774902
1480686737429916,-0.228516,-0.648926,0.780273
1480686737452483,-0.228516,-0.616699,0.785645
1480686737475035,-0.238281,-0.598145,0.79541
1480686737491078,-0.241699,-0.625977,0.790527
1480686737520156,-0.236328,-0.647949,0.78125
1480686737544221,-0.234375,-0.644043,0.776367
1480686737587835,-0.234375,-0.641602,0.778809
1480686737592347,-0.231445,-0.618164,0.787109
1480686737595857,-0.228516,-0.61084,0.79248
1480686737610897,-0.231934,-0.625488,0.780273
1480686737632454,-0.23584,-0.649902,0.786621
1480686737647495,-0.231934,-0.639648,0.775391
1480686737670555,-0.233887,-0.629883,0.782715
1480686737691109,-0.230957,-0.621094,0.782227
1480686737707656,-0.232422,-0.608887,0.787598
1480686737729712,-0.234375,-0.627441,0.789063
1480686737758790,-0.239258,-0.649414,0.780273
1480686737777339,-0.231934,-0.641113,0.777344
1480686737790374,-0.229492,-0.626465,0.795898
1480686737818954,-0.226074,-0.62207,0.811523
1480686737834993,-0.234863,-0.604004,0.793457
1480686737856048,-0.237793,-0.611816,0.80127
1480686737871088,-0.255859,-0.64209,0.781738
1480686737887633,-0.212891,-0.634766,0.762207
1480686737909693,-0.217285,-0.623535,0.78418
1480686737938769,-0.264648,-0.612793,0.790527
1480686737949296,-0.217773,-0.621582,0.797852
1480686737969855,-0.239258,-0.630859,0.787598
1480686737991910,-0.241699,-0.643066,0.779785
1480686738007953,-0.229004,-0.626465,0.783691
1480686738030513,-0.242676,-0.615234,0.785645
1480686738053073,-0.230957,-0.611816,0.80127
1480686738067611,-0.236816,-0.62207,0.799316
1480686738090171,-0.238281,-0.626953,0.784668
1480686738113733,-0.23291,-0.615234,0.78125
1480686738140806,-0.23584,-0.60498,0.816895
1480686738150832,-0.227051,-0.592285,0.810547
1480686738172389,-0.201172,-0.629395,0.791504
1480686738187430,-0.223633,-0.641113,0.776855
1480686738216005,-0.227051,-0.657227,0.785645
1480686738239066,-0.231934,-0.619629,0.797852
1480686738264635,-0.243164,-0.595703,0.803223
1480686738270151,-0.230469,-0.58252,0.806641
1480686738293210,-0.220215,-0.637207,0.78125
1480686738306747,-0.227051,-0.637207,0.776367
1480686738330310,-0.222656,-0.640625,0.800781
1480686738352871,-0.228516,-0.602051,0.835449
1480686738367408,-0.226563,-0.57666,0.799316
1480686738390971,-0.18457,-0.567383,0.799805
1480686738421051,-0.202148,-0.656738,0.835938
1480686738452134,-0.17041,-0.641602,0.845215
1480686738473692,-0.159668,-0.611816,0.827637
1480686738479205,-0.212891,-0.59375,0.790039
1480686738493744,-0.209961,-0.613281,0.80127
1480686738510789,-0.210449,-0.624023,0.785156
1480686738539867,-0.145508,-0.660645,0.83252
1480686738560923,-0.162109,-0.60791,0.80957
1480686738570449,-0.194824,-0.620117,0.797852
1480686738592507,-0.235352,-0.608398,0.795898
1480686738614064,-0.228516,-0.571777,0.803711
1480686738630107,-0.239258,-0.5625,0.8125
1480686738653168,-0.22168,-0.617676,0.811523
1480686738673723,-0.212891,-0.639648,0.79834
1480686738689767,-0.223145,-0.63916,0.793945
1480686738719846,-0.206543,-0.606934,0.798828
1480686738740901,-0.200195,-0.605469,0.811523
1480686738749925,-0.225586,-0.584473,0.80127
1480686738772485,-0.206055,-0.641602,0.812988
1480686738793541,-0.208008,-0.649414,0.780762
1480686738817608,-0.202637,-0.643066,0.783691
1480686738841168,-0.214355,-0.618652,0.795898
1480686738861221,-0.208984,-0.594238,0.808594
1480686738870245,-0.225098,-0.583984,0.824219
1480686738906843,-0.222168,-0.610352,0.813965
1480686738920880,-0.213867,-0.632324,0.796387
1480686738929905,-0.219238,-0.624023,0.791016
1480686738952966,-0.20752,-0.60791,0.80127
1480686738975024,-0.202148,-0.610352,0.811035
1480686738997583,-0.213379,-0.60791,0.804688
1480686739020144,-0.205566,-0.627441,0.805664
1480686739035686,-0.21875,-0.626953,0.802246
1480686739049722,-0.220215,-0.612793,0.799316
1480686739073285,-0.212891,-0.60791,0.801758
1480686739094844,-0.210938,-0.611816,0.802246
1480686739118407,-0.217773,-0.62207,0.807617
1480686739139962,-0.213379,-0.625,0.80127
1480686739163024,-0.218262,-0.617676,0.802734
1480686739179066,-0.21875,-0.605469,0.79834
1480686739198117,-0.20752,-0.60498,0.80127
1480686739222181,-0.214355,-0.609375,0.803223
1480686739232711,-0.217285,-0.621582,0.804199
1480686739252765,-0.223145,-0.625977,0.79834
1480686739283845,-0.222168,-0.616699,0.804199
1480686739303399,-0.20459,-0.600098,0.804688
1480686739313423,-0.207031,-0.598145,0.813965
1480686739337488,-0.222656,-0.617676,0.79834
1480686739349520,-0.209961,-0.646973,0.793457
1480686739374085,-0.22168,-0.632813,0.798828
1480686739395141,-0.216309,-0.606934,0.806152
1480686739417702,-0.216797,-0.592285,0.80127
1480686739439759,-0.218262,-0.606445,0.804199
1480686739462320,-0.21582,-0.623535,0.80957
1480686739478362,-0.21582,-0.625,0.799805
1480686739499919,-0.219238,-0.619629,0.801758
1480686739522481,-0.214844,-0.60791,0.796387
1480686739536517,-0.220215,-0.603516,0.803223
1480686739560080,-0.222168,-0.613281,0.801758
1480686739582640,-0.21875,-0.626465,0.797363
1480686739596176,-0.219238,-0.635742,0.79834
1480686739628261,-0.225098,-0.615723,0.79834
1480686739650821,-0.217773,-0.602539,0.799316
1480686739657339,-0.222656,-0.602539,0.798828
1480686739672378,-0.219238,-0.618164,0.798828
1480686739694941,-0.222168,-0.633301,0.789063
1480686739717498,-0.226074,-0.631836,0.79248
1480686739732037,-0.225586,-0.611328,0.799805
1480686739755599,-0.218262,-0.603027,0.801758
1480686739777658,-0.216797,-0.612305,0.791992
1480686739799717,-0.220703,-0.628418,0.789551
1480686739815759,-0.22998,-0.637695,0.796875
1480686739836816,-0.224121,-0.625977,0.79541
1480686739853861,-0.216797,-0.612793,0.799316
1480686739875421,-0.220703,-0.60791,0.797363
1480686739903492,-0.22168,-0.612793,0.79541
1480686739926054,-0.226563,-0.618164,0.79248
1480686739935077,-0.225098,-0.628906,0.801758
1480686739958139,-0.220703,-0.625977,0.793945
1480686739972676,-0.224609,-0.615723,0.799316
1480686739995238,-0.223145,-0.60498,0.793457
1480686740017798,-0.226563,-0.615723,0.794434
1480686740032335,-0.227051,-0.62793,0.789063
1480686740055899,-0.22168,-0.636719,0.79541
1480686740090991,-0.230469,-0.617188,0.793945
1480686740109039,-0.220215,-0.609375,0.800781
1480686740115055,-0.218262,-0.61084,0.797852
1480686740137616,-0.224609,-0.617676,0.796387
1480686740152158,-0.227051,-0.628906,0.794434
1480686740174715,-0.226074,-0.632813,0.797852
1480686740204795,-0.223145,-0.616699,0.797852
1480686740211813,-0.224121,-0.604492,0.789063
1480686740235884,-0.222656,-0.609375,0.797363
1480686740257434,-0.226563,-0.626953,0.791016
1480686740271973,-0.233887,-0.632324,0.79834
1480686740295034,-0.229492,-0.627441,0.795898
1480686740342159,-0.223633,-0.615723,0.792969
1480686740355697,-0.220215,-0.609863,0.788086
1480686740358202,-0.223633,-0.61377,0.796387
1480686740386277,-0.225098,-0.623047,0.79541
1480686740405828,-0.235352,-0.629395,0.789063
1480686740415354,-0.236816,-0.628418,0.791504
1480686740444932,-0.227051,-0.614258,0.789551
1480686740458469,-0.224121,-0.61084,0.787109
1480686740482532,-0.229004,-0.621094,0.794922
1480686740505093,-0.233887,-0.628418,0.794922
1480686740526650,-0.235352,-0.636719,0.793945
1480686740535179,-0.220703,-0.621094,0.797363
1480686740573274,-0.226563,-0.608887,0.788086
1480686740578789,-0.226563,-0.620117,0.792969
1480686740596335,-0.225586,-0.624023,0.787109
1480686740617893,-0.235352,-0.633301,0.787598
1480686740649476,-0.23291,-0.632324,0.797852
1480686740662511,-0.233887,-0.614258,0.792969
1480686740685074,-0.224609,-0.609863,0.798828
1480686740715653,-0.220703,-0.611328,0.797852
1480686740718161,-0.230469,-0.626465,0.794434
1480686740737213,-0.231934,-0.629395,0.793457
1480686740759771,-0.233398,-0.620117,0.805664
1480686740782831,-0.23291,-0.612305,0.794434
1480686740804890,-0.222656,-0.618164,0.785156
1480686740825946,-0.231445,-0.632813,0.783691
1480686740850010,-0.235352,-0.630859,0.789551
1480686740866052,-0.22998,-0.624512,0.798828
1480686740889114,-0.233398,-0.61377,0.799805
1480686740895130,-0.228027,-0.610352,0.789063
1480686740941252,-0.228516,-0.60791,0.794922
1480686740945764,-0.231445,-0.615234,0.795898
1480686740962308,-0.235352,-0.624023,0.788574
1480686740977348,-0.227051,-0.643555,0.79248
1480686740999909,-0.231445,-0.617188,0.793945
1480686741020964,-0.227051,-0.607422,0.796875
1480686741041017,-0.228516,-0.610352,0.789551
1480686741060068,-0.227539,-0.628418,0.795898
1480686741110703,-0.230469,-0.632813,0.791992
1480686741122233,-0.231445,-0.627441,0.798828
1480686741128751,-0.233398,-0.614746,0.797852
1480686741142287,-0.222168,-0.61084,0.788086
1480686741172367,-0.21875,-0.61377,0.798828
1480686741188410,-0.230957,-0.620605,0.790527
1480686741195929,-0.233887,-0.628418,0.789551
1480686741217487,-0.229004,-0.632813,0.789551
1480686741246063,-0.226563,-0.61377,0.794434
1480686741262607,-0.21582,-0.606445,0.797363
1480686741277647,-0.225586,-0.61377,0.797852
1480686741299706,-0.230957,-0.631348,0.791016
1480686741314245,-0.233398,-0.636719,0.795898
1480686741338309,-0.227051,-0.619629,0.79834
1480686741359866,-0.223145,-0.605957,0.798828
1480686741382426,-0.222168,-0.610352,0.791504
1480686741404986,-0.222168,-0.624023,0.786621
1480686741427545,-0.230469,-0.631348,0.790527
1480686741448601,-0.234863,-0.625,0.79541
1480686741465146,-0.223633,-0.619629,0.799805
1480686741481189,-0.219727,-0.606445,0.795898
1480686741500740,-0.22168,-0.616699,0.789551
1480686741517785,-0.221191,-0.62793,0.799316
1480686741539845,-0.226074,-0.628418,0.794922
1480686741561402,-0.230469,-0.625,0.793945
1480686741592485,-0.227051,-0.616699,0.793457
1480686741600506,-0.224609,-0.611816,0.79541
1480686741621561,-0.221191,-0.614746,0.79834
1480686741639108,-0.224121,-0.629883,0.794434
1480686741660165,-0.226074,-0.633789,0.796875
1480686741682222,-0.225098,-0.626465,0.79248
1480686741706789,-0.220703,-0.611328,0.791992
1480686741727844,-0.21582,-0.605469,0.791992
1480686741758927,-0.220215,-0.62207,0.793457
1480686741770960,-0.227539,-0.631836,0.793457
1480686741781486,-0.226563,-0.628418,0.802246
1480686741802545,-0.225098,-0.617676,0.796387
1480686741818085,-0.222168,-0.61377,0.791992
1480686741840647,-0.223633,-0.615723,0.794434
1480686741869721,-0.222656,-0.622559,0.796875
1480686741877243,-0.226563,-0.630371,0.800781
1480686741899802,-0.224121,-0.635254,0.797363
1480686741922361,-0.222168,-0.62207,0.791016
1480686741961466,-0.215332,-0.616699,0.794922
1480686741963972,-0.209961,-0.616699,0.791016
1480686741984026,-0.222168,-0.626953,0.795898
1480686742027140,-0.230957,-0.636719,0.791992
1480686742057721,-0.222168,-0.630371,0.790527
1480686742060228,-0.223633,-0.617676,0.79248
1480686742075770,-0.225098,-0.609375,0.785645
1480686742079780,-0.217773,-0.621582,0.794922
1480686742102841,-0.226074,-0.629395,0.800293
1480686742116878,-0.226074,-0.630371,0.800293
1480686742147460,-0.22998,-0.62207,0.80127
1480686742170020,-0.220703,-0.615234,0.790039
