timestamp,emg1,emg2,emg3,emg4,emg5,emg6,emg7,emg8
1480686688566946,0,0,-3,-1,-1,-1,-1,0
1480686688566946,-1,-4,0,1,1,-2,-1,-2
1480686688568450,0,1,0,-3,-1,0,1,1
1480686688568450,-4,-3,-3,-4,-2,-2,-2,-2
1480686688581985,0,1,0,2,-1,0,-1,-3
1480686688581985,0,0,-2,-1,2,1,0,-1
1480686688599533,-2,1,-1,-3,-1,-2,-1,0
1480686688599533,0,1,1,1,0,0,1,3
1480686688600537,-1,0,1,-1,2,0,2,2
1480686688600537,0,-2,1,0,-2,-1,-1,-2
1480686688619586,0,-1,-2,1,0,0,-2,-3
1480686688619586,-2,-1,1,-2,0,1,2,1
1480686688620588,-1,-1,0,-2,-2,-1,-1,0
1480686688620588,0,0,2,1,-1,-1,0,0
1480686688627107,-1,0,-3,-1,-2,-1,-2,0
1480686688627107,-1,0,-1,0,-2,-1,0,-1
1480686688649164,1,2,-2,0,2,-1,1,-1
1480686688649164,-2,-1,-1,-3,0,-1,0,1
1480686688656184,-1,-1,1,3,-1,-1,-2,-2
1480686688656184,0,0,1,1,-1,-1,-1,-1
1480686688680749,1,-4,-3,-1,1,0,-2,1
1480686688680749,0,0,0,0,-1,-1,-1,1
1480686688682252,-2,1,1,-3,-3,-2,1,-2
1480686688682252,-1,-3,0,1,2,1,0,0
1480686688700801,-1,-1,0,-2,-1,0,1,3
1480686688700801,-2,-3,-1,-1,-1,-1,-3,-5
1480686688710829,-2,-2,-2,-2,-1,-1,-2,-2
1480686688710829,0,2,1,2,0,-2,1,-1
1480686688715842,-2,0,0,2,-2,-1,0,-1
1480686688715842,-1,0,-1,0,0,1,1,2
1480686688732386,-1,-1,-2,-2,-1,0,0,1
1480686688732386,1,3,-1,-1,-2,-1,-4,-3
1480686688733388,-2,-6,-3,-2,-1,0,2,4
1480686688733388,0,0,-1,-1,-2,-2,-3,-4
1480686688734892,0,-2,0,2,2,-1,0,-2
1480686688734892,0,1,0,1,-2,0,1,2
1480686688754444,-1,-1,1,1,-1,-1,-2,-3
1480686688754444,0,1,0,0,-2,-1,2,2
1480686688755949,1,-2,0,0,-1,0,0,1
1480686688755949,-2,-2,-4,-3,-1,0,0,-4
1480686688769485,0,1,0,-1,-2,0,-2,-2
1480686688769485,-1,0,0,1,-2,-2,1,0
1480686688770988,-1,2,0,3,0,2,0,0
1480686688770988,-2,-2,-2,-1,-1,-2,-1,0
1480686688776001,2,1,0,-1,2,0,-2,-1
1480686688776001,-2,-3,-1,0,-1,-1,-2,-1
1480686688790542,1,-1,-1,0,-1,1,1,4
1480686688790542,-1,-1,1,-1,-1,0,-2,-2
1480686688799565,-1,1,-1,-2,0,-1,-2,-4
1480686688799565,0,-2,-1,-2,0,0,-1,0
1480686688801069,0,-1,-1,-3,-2,-2,0,-2
1480686688801069,-2,-2,0,-2,1,-1,-1,1
1480686688822124,-1,-1,0,-1,0,2,-1,0
1480686688822124,-2,-2,-1,1,0,-2,0,0
1480686688823629,0,0,-2,-3,-1,-2,-1,-1
1480686688823629,-1,0,1,-3,0,-1,0,0
1480686688845687,-1,-1,-3,1,1,0,-1,-3
1480686688845687,1,0,0,1,-2,0,-3,-3
1480686688850704,-3,-2,-3,0,3,-1,0,-3
1480686688850704,1,-1,0,0,-1,0,-3,0
1480686688859223,1,0,0,-1,0,1,0,-1
1480686688859223,-2,-2,-1,-1,-2,1,0,0
1480686688890807,-1,1,0,0,-2,-2,-3,-2
1480686688890807,1,-1,0,3,0,-1,0,0
1480686688891308,-1,0,0,-1,-2,-1,2,0
1480686688891308,-2,-3,-1,-3,0,-1,-2,-6
1480686688893313,-1,-3,-1,-1,-1,0,0,1
1480686688893313,0,0,1,0,0,0,2,0
1480686688896824,0,2,1,1,-1,-2,-1,2
1480686688896824,1,-2,0,-3,-2,-2,-3,1
1480686688904343,-1,-3,0,0,0,-1,-2,-3
1480686688904343,-1,0,2,1,5,1,1,0
1480686688934929,0,-1,0,3,0,0,1,0
1480686688934929,0,0,-2,-2,1,-1,3,4
1480686688936935,2,-1,-1,-1,-3,-3,-3,-3
1480686688936935,-2,0,-1,1,-1,0,0,-2
1480686688957993,1,-1,-1,-1,-1,1,0,-1
1480686688957993,0,1,0,0,1,-1,1,1
1480686688972529,0,-1,-1,0,1,1,0,2
1480686688972529,-1,0,0,-2,-2,-3,-1,-1
1480686688973532,-1,-1,-3,0,-2,-2,-1,-2
1480686688973532,0,0,-3,-3,-1,-1,0,0
1480686688975037,-2,-3,-2,0,-1,-2,1,-1
1480686688975037,0,0,1,-1,0,0,-3,-3
1480686688979548,-1,-2,-2,0,-2,-1,-2,-1
1480686688979548,0,2,3,1,2,2,1,-1
1480686688981052,-1,1,1,2,2,0,0,0
1480686688981052,0,-1,-2,0,-1,-2,1,3
1480686689002108,-1,-3,0,0,-1,-1,-2,-3
1480686689002108,-1,-2,-1,1,2,1,-1,-4
1480686689003615,-2,0,0,-3,-2,-1,-1,-1
1480686689003615,-1,-1,-3,-1,-1,-1,-2,-2
1480686689039207,1,0,1,-2,1,-1,0,0
1480686689039207,-2,-1,0,1,-3,-2,-2,0
1480686689048230,1,0,1,0,-1,1,0,-1
1480686689048230,-1,-2,-2,-1,-1,0,1,2
1480686689048732,-2,1,1,1,2,0,0,0
1480686689048732,1,-2,-3,-10,-4,-2,-3,-4
1480686689062769,-2,0,1,1,2,1,2,5
1480686689062769,0,-1,-3,0,-2,-1,-1,-4
1480686689063271,1,-1,-2,-5,-5,-2,-11,-5
1480686689063271,1,1,1,3,-2,3,1,3
1480686689064775,-2,-3,-5,-3,3,-1,-3,-1
1480686689064775,0,2,-1,2,-2,-2,2,1
1480686689075302,0,-1,0,-2,0,-1,2,-3
1480686689075302,1,0,0,1,-1,-1,0,-1
1480686689084327,1,-1,1,-1,-3,-1,0,-1
1480686689084327,-1,0,0,1,0,1,2,1
1480686689099366,-1,-1,0,0,1,1,2,2
1480686689099366,-2,-1,1,0,0,-1,-3,-6
1480686689100871,0,2,-1,-2,-1,-1,0,-1
1480686689100871,-1,-5,-2,-4,-1,-1,-3,-3
1480686689122429,-1,0,1,-1,-2,0,1,1
1480686689122429,1,0,-4,-3,-1,-2,0,2
1480686689127943,-2,-2,-3,0,-1,1,-2,-2
1480686689127943,-1,-1,-1,-1,-3,1,-1,-1
1480686689135463,-1,0,-3,-1,3,0,1,0
1480686689135463,-1,-2,1,2,0,1,2,2
1480686689144488,1,1,0,0,-3,-2,1,1
1480686689144488,0,3,1,-2,-4,-3,-1,-2
1480686689158524,-1,0,-1,3,-1,0,-4,-3
1480686689158524,-2,-3,-1,-1,-4,0,-1,1
1480686689182589,-1,-1,0,0,1,0,1,0
1480686689182589,-1,-2,0,-3,-1,0,0,-1
1480686689183091,0,-2,-3,-3,-1,-3,0,0
1480686689183091,-1,0,0,2,2,1,1,0
1480686689189607,0,-1,1,-2,-2,-2,0,0
1480686689189607,1,0,0,0,1,0,1,0
1480686689211667,-1,0,2,0,-3,-1,1,0
1480686689211667,-1,1,-2,0,-2,-3,-6,-3
1480686689213671,-1,1,-2,1,0,0,1,1
1480686689213671,-2,2,-2,1,0,-1,-3,-3
1480686689226706,-2,-3,-3,-1,-3,0,0,-4
1480686689226706,1,1,-1,1,0,0,2,1
1480686689228715,0,-1,-2,1,-3,-2,-4,-3
1480686689228715,1,-1,0,-1,0,-1,2,0
1480686689250769,-1,-1,-1,-3,0,-2,2,2
1480686689250769,-1,-1,0,-1,0,-1,-1,-1
1480686689252273,0,1,1,-1,0,0,-1,-1
1480686689252273,-1,-1,0,0,2,1,0,1
1480686689255281,0,1,-1,-1,-2,1,0,1
1480686689255281,3,1,0,0,1,1,5,6
1480686689279849,-1,-1,-1,0,0,-1,0,-7
1480686689279849,-2,-2,-2,-4,-2,-2,-7,-3
1480686689281852,-2,2,2,0,0,-1,-3,0
1480686689281852,0,-2,-1,0,-1,-1,-5,-3
1480686689283356,1,-2,-1,-1,-3,-1,1,3
1480686689283356,0,-2,-1,-1,-1,0,3,5
1480686689301906,0,0,0,1,2,0,-1,-3
1480686689301906,-2,-1,-1,-2,0,-1,0,-4
1480686689303409,0,0,0,-1,1,0,-2,-1
1480686689303409,-1,-1,-1,1,-3,-4,-1,0
1480686689324466,1,-2,-1,0,0,-2,1,3
1480686689324466,-1,0,-1,-1,-1,0,1,-1
1480686689330490,-1,0,1,0,-3,-3,-3,-2
1480686689330490,0,-1,-3,-4,0,1,2,1
1480686689340007,1,-1,-1,-2,1,1,1,1
1480686689340007,1,-1,-1,0,-2,1,-7,-8
1480686689354546,-3,-2,-1,-1,0,0,0,4
1480686689354546,0,-3,-4,-3,-4,-3,-4,-4
1480686689362069,-1,0,0,2,0,-1,-3,-5
1480686689362069,-2,-2,-2,-2,2,0,3,-7
1480686689363570,-1,-1,1,1,1,1,1,1
1480686689363570,0,-1,-1,1,2,-1,2,2
1480686689375601,1,-1,1,-1,-2,2,2,3
1480686689375601,1,2,1,0,-3,-3,-1,3
1480686689392145,-2,-5,0,-1,-3,-2,-4,-2
1480686689392145,0,-2,-1,2,-1,0,1,-1
1480686689399164,-1,-1,1,0,0,0,0,1
1480686689399164,0,-1,0,1,-1,-3,2,3
1480686689401170,1,1,-2,0,1,-2,-4,-3
1480686689401170,-1,1,-1,2,1,-1,-7,-8
1480686689423228,-1,-1,-2,0,-1,0,0,-1
1480686689423228,0,-1,0,0,0,2,0,-2
1480686689425735,-1,-1,-2,-3,-3,-2,2,1
1480686689425735,-1,0,0,0,-1,-1,1,-1
1480686689435264,1,0,0,-1,-1,-1,-2,-1
1480686689435264,-1,-1,-2,2,0,1,3,3
1480686689444284,1,0,-1,-3,0,0,-2,-2
1480686689444284,0,1,0,-1,0,0,-1,0
1480686689459324,-2,-2,-2,-2,0,0,0,0
1480686689459324,1,0,-1,2,0,0,-1,2
1480686689460828,-1,1,0,-2,-3,0,0,-1
1480686689460828,-1,-2,0,-3,0,0,2,4
1480686689482386,-1,-1,-1,0,-1,-2,-1,-3
1480686689482386,-2,0,1,-1,1,-2,0,5
1480686689487900,-1,-3,-5,-1,-1,0,-1,-4
1480686689487900,1,2,-1,-1,-1,0,0,1
1480686689504945,-1,-1,0,0,-2,0,1,-1
1480686689504945,-1,0,-2,-2,-1,-1,-7,-7
1480686689510460,2,0,2,0,-1,-2,0,0
1480686689510460,0,0,1,0,0,-1,-2,1
1480686689518481,0,-1,-1,-4,-2,0,1,0
1480686689518481,1,0,0,-2,-2,-2,3,3
1480686689527004,-1,-3,-3,-2,1,1,1,-5
1480686689527004,0,-4,0,-1,0,-1,-14,-8
1480686689542545,1,1,-1,0,0,-1,0,1
1480686689542545,-3,-1,0,-2,0,-1,-1,0
1480686689548060,0,1,-3,0,0,0,2,4
1480686689548060,-1,-1,1,1,-1,0,4,1
1480686689564604,-2,-3,0,-5,-1,-2,-4,-1
1480686689564604,0,0,-1,-2,-1,-1,-2,-2
1480686689580647,-1,-3,-1,0,-2,0,0,1
1480686689580647,1,0,0,1,2,0,0,0
1480686689581649,0,0,1,1,0,-3,-2,-2
1480686689581649,-1,-1,0,-1,0,0,1,0
1480686689583153,-1,2,0,0,1,-1,-3,-2
1480686689583153,0,0,0,1,1,-1,4,6
1480686689609223,-1,-3,-3,-1,0,-1,4,4
1480686689609223,-1,0,-1,-3,-2,-3,-11,-10
1480686689611228,-2,1,0,1,0,-1,-7,-8
1480686689611228,-2,-3,1,0,0,1,2,-6
1480686689624263,-2,-1,-1,0,-3,0,3,2
1480686689624263,0,0,-2,0,-1,1,1,7
1480686689630279,1,1,0,2,0,0,0,0
1480686689630279,-1,-1,-1,-1,-1,-2,-4,-2
1480686689639303,-1,0,1,3,-1,0,2,-1
1480686689639303,-1,-2,-1,-2,-1,0,1,-1
1480686689640807,0,-1,1,-3,-1,-2,1,1
1480686689640807,0,-1,-2,-2,-4,-3,2,1
1480686689661863,1,0,-1,0,3,2,-5,-3
1480686689661863,0,1,0,2,0,0,1,1
1480686689663370,-1,-1,1,1,0,0,0,0
1480686689663370,-1,-1,0,-3,-2,0,-1,-1
1480686689683421,0,-1,0,0,-1,0,-2,-1
1480686689683421,0,-2,0,-2,-1,2,1,-3
1480686689699964,-1,-1,1,-1,-2,-2,0,0
1480686689699964,-1,-1,-2,-3,1,0,3,1
1480686689701969,0,2,0,-1,-2,0,-2,-3
1480686689701969,0,-1,-1,1,2,2,0,-1
1480686689712999,1,-2,0,-1,-2,-1,-1,1
1480686689712999,0,1,-1,0,-2,-1,-2,1
1480686689722022,-1,-2,-2,-1,-2,0,-2,-3
1480686689722022,1,-2,-2,-2,-1,0,1,-1
1480686689730046,-2,0,0,-1,-2,-1,-2,1
1480686689730046,0,-1,0,-1,1,0,0,-2
1480686689781681,1,1,-3,1,-1,-3,1,-2
1480686689781681,-2,-4,-4,-7,-2,-3,-1,-2
1480686689792712,-1,1,-1,-1,0,0,-1,1
1480686689792712,-1,-1,-1,0,-2,-1,1,0
1480686689794216,-1,-1,0,3,-1,-1,-2,0
1480686689794216,2,-2,0,-1,-1,1,1,0
1480686689805244,-1,-1,-2,3,2,-2,1,-1
1480686689805244,0,1,0,3,0,1,-1,0
1480686689806247,0,0,-4,-3,-1,-3,-3,-2
1480686689806247,-1,-1,-3,0,0,0,1,-2
1480686689807251,-1,-1,0,-1,-2,-2,-1,1
1480686689807251,-1,1,-2,-1,-1,-2,-1,0
1480686689811764,1,1,1,0,4,2,1,1
1480686689811764,-3,-3,-4,-3,-4,-2,0,-2
1480686689818779,0,-1,2,-1,1,1,0,0
1480686689818779,-1,-2,0,0,-4,-2,-2,-3
1480686689825298,-2,0,-2,5,1,1,1,1
1480686689825298,0,1,1,-2,-1,0,1,1
1480686689841840,-1,-1,-1,-2,0,-2,-3,-1
1480686689841840,0,1,1,0,-1,-1,-1,-2
1480686689843345,0,-2,-2,2,1,-1,0,-2
1480686689843345,-1,0,-1,-2,-1,0,-2,0
1480686689864902,-2,-1,1,-1,0,1,0,-1
1480686689864902,-1,0,0,1,1,1,1,3
1480686689878440,0,0,1,-3,-6,-3,-2,-1
1480686689878440,1,0,1,1,0,0,0,1
1480686689886962,-1,-2,-1,-4,-2,0,0,2
1480686689886962,-1,0,0,0,2,-1,2,4
1480686689903004,0,-2,-1,-5,-4,0,-4,-8
1480686689903004,-1,0,-2,0,0,-1,-6,1
1480686689904007,2,0,1,1,-1,-1,0,-1
1480686689904007,0,0,-1,-1,-2,-1,2,3
1480686689911528,-1,-2,-2,-2,-1,1,2,0
1480686689911528,-1,0,1,1,-3,-1,-4,-3
1480686689924561,0,-2,-2,-1,-1,0,-1,1
1480686689924561,0,0,-1,0,-1,-1,-1,-1
1480686689928070,-1,1,0,1,2,1,0,2
1480686689928070,-1,-3,-4,0,-2,0,-1,-4
1480686689938598,-3,-1,-1,-3,1,0,3,1
1480686689938598,0,-1,3,2,3,1,0,1
1480686689945617,0,1,0,0,-2,-4,-2,-2
1480686689945617,-2,-4,-1,-1,2,0,-4,-4
1480686689962165,-1,-1,0,-1,-2,-2,0,0
1480686689962165,0,-1,-1,1,0,0,3,1
1480686689963666,-1,0,-1,-1,-1,0,-4,-6
1480686689963666,-2,-2,-2,0,1,0,2,-1
1480686689984721,2,0,0,2,0,-1,-1,-3
1480686689984721,0,-2,0,0,-2,-1,-1,-1
1480686689986225,-1,-1,-1,1,1,-1,4,4
1480686689986225,1,0,1,0,-3,-1,2,2
1480686690015304,-1,1,1,4,-1,1,0,0
1480686690015304,-1,-2,-2,0,1,0,-6,-4
1480686690017308,0,-1,-3,-2,-1,-1,-1,2
1480686690017308,0,1,5,0,-1,-1,0,0
1480686690037362,-2,0,-2,-2,-1,0,0,0
1480686690037362,-1,0,-6,0,-2,-1,-1,-2
1480686690044885,-1,-4,7,-4,-2,-1,-3,-1
1480686690044885,0,1,0,-2,0,0,0,0
1480686690045889,0,-1,-11,-10,0,-1,1,-1
1480686690045889,-1,1,2,2,0,-1,-2,-3
1480686690047388,-1,-2,-7,-5,-2,-1,-2,1
1480686690047388,1,2,10,7,-1,0,5,2
1480686690067441,1,0,-19,-3,1,0,-1,-2
1480686690067441,-1,-3,-12,-4,-2,-1,-2,-2
1480686690068946,2,2,13,-1,0,1,2,1
1480686690068946,1,-2,8,8,-1,0,-1,-1
1480686690081980,0,1,11,3,1,1,-2,-1
1480686690081980,1,-2,-11,-8,1,-1,-2,-1
1480686690087997,1,0,-11,6,0,1,2,2
1480686690087997,0,-2,-6,-12,-4,-2,-1,0
1480686690112074,1,0,9,4,3,1,0,-1
1480686690112074,-3,-3,0,-1,-5,-2,-2,-1
1480686690113564,-1,0,1,0,1,-1,0,0
1480686690113564,-1,-1,-6,-2,-1,-2,-3,-1
1480686690134118,-1,-1,-5,-1,-2,-2,-2,0
1480686690134118,1,3,2,-2,2,0,2,1
1480686690136124,-2,-1,-2,-1,1,-1,0,0
1480686690136124,0,2,-4,0,0,0,0,-1
1480686690142641,0,-1,2,-5,-2,0,-1,-1
1480686690142641,-2,-2,4,1,-1,-1,-1,-3
1480686690144145,-2,-1,1,-1,0,0,-2,-1
1480686690144145,1,1,-3,-2,-1,-1,-1,-1
1480686690164213,-1,2,1,3,-3,-3,-1,1
1480686690164213,0,-3,3,0,0,1,0,0
1480686690166204,0,-1,6,4,0,-1,0,-2
1480686690166204,-1,-2,-11,0,4,2,2,0
1480686690178239,-1,-2,-1,-3,-1,-1,-1,-1
1480686690178239,0,0,-9,-5,-2,-1,-2,-2
1480686690187259,-1,-1,-2,-2,0,1,1,0
1480686690187259,-1,0,3,4,-1,-1,0,1
1480686690201799,0,0,4,1,-2,0,-1,-1
1480686690201799,-1,1,1,1,-1,0,0,0
1480686690203303,0,0,0,1,-2,-1,0,0
1480686690203303,0,-1,-5,-2,3,0,0,-1
1480686690224359,-2,-3,-4,1,-1,0,0,-2
1480686690224359,0,-1,2,-3,0,0,1,1
1480686690230374,0,2,-3,-3,-2,0,4,4
1480686690230374,-3,-5,0,-3,-1,-3,-5,-5
1480686690246919,-1,0,1,0,-1,-1,-7,-8
1480686690246919,-1,-2,3,2,0,0,-1,-1
1480686690248423,1,-2,-4,-1,-2,-2,-1,-2
1480686690248423,1,0,-2,-3,-2,1,4,4
1480686690268978,0,0,6,2,2,0,4,3
1480686690268978,-1,0,4,5,-2,1,-1,-3
1480686690276998,-2,-1,-7,-4,0,0,-2,-2
1480686690276998,0,1,2,-4,-2,1,0,1
1480686690284017,-1,-1,-1,-1,-2,-3,-1,0
1480686690284017,-1,1,3,1,-1,-2,3,4
1480686690290534,-2,-2,-1,1,0,-2,-3,-2
1480686690290534,-2,0,3,-1,-2,-2,-2,-2
1480686690298054,2,-1,1,7,2,2,2,-1
1480686690298054,0,-1,-6,-9,-3,-2,-1,-2
1480686690324124,-1,0,6,4,1,0,2,5
1480686690324124,0,1,1,2,0,-1,-3,-5
1480686690324625,-1,-1,4,4,0,-1,-3,1
1480686690324625,0,-1,14,5,0,0,-1,-1
1480686690335654,-2,-3,-11,-6,-3,0,-1,-1
1480686690335654,-2,0,-16,-9,-2,-1,1,2
1480686690344683,-2,-1,-8,-3,0,0,-1,1
1480686690344683,0,0,1,-5,0,1,-1,0
1480686690346182,-1,0,-2,2,4,2,0,-1
1480686690346182,2,-2,4,4,0,-1,0,1
1480686690358716,4,2,3,-2,-3,-3,-2,-2
1480686690358716,-1,-1,-12,2,0,-1,0,-3
1480686690367238,-1,0,6,-5,-1,0,-1,0
1480686690367238,-1,0,3,1,0,1,-2,0
1480686690382278,-1,-1,-6,-1,0,0,1,-1
1480686690382278,0,1,5,0,-2,-3,1,1
1480686690389798,0,3,-2,6,1,0,-2,-3
1480686690389798,-1,-3,-5,0,2,0,-1,1
1480686690412359,-3,0,2,-4,0,1,0,-3
1480686690412359,-3,-2,-2,1,-2,-1,0,2
1480686690414364,-1,-1,-1,-4,-1,-2,0,-4
1480686690414364,0,0,2,0,-3,-2,-7,-3
1480686690417873,0,-1,-2,0,2,2,0,2
1480686690417873,0,-2,-2,-1,-1,-1,0,-3
1480686690434417,0,-1,1,2,-2,-2,-1,1
1480686690434417,-1,1,4,2,-1,0,2,0
1480686690441937,-1,-1,-1,-2,-2,-2,-1,-1
1480686690441937,0,1,7,2,0,0,0,2
1480686690443441,0,2,-1,3,-1,-2,-3,-3
1480686690443441,-2,-6,-4,-4,-3,-3,1,-3
1480686690464497,2,4,10,5,2,-1,0,-1
1480686690464497,-1,-3,-8,-9,-1,0,0,0
1480686690466001,-1,-2,3,-1,0,0,0,1
1480686690466001,2,0,-9,-12,-1,-1,0,1
1480686690478038,-2,-4,3,0,-4,-1,0,2
1480686690478038,0,2,11,11,1,0,-2,-2
1480686690487559,-1,-3,-3,-2,0,0,0,1
1480686690487559,0,0,1,2,3,1,1,0
1480686690516636,-3,-2,1,-3,-2,-1,0,-1
1480686690516636,0,3,-3,5,1,0,-3,-1
1480686690525660,-2,-2,-14,-9,-4,0,0,-2
1480686690525660,-2,0,6,2,1,-2,1,0
1480686690532679,-1,1,-6,-3,0,1,0,1
1480686690532679,-1,-4,-6,-5,-2,-2,-3,-2
1480686690539696,0,1,-2,0,0,0,1,0
1480686690539696,0,1,4,2,-2,0,-1,0
1480686690547718,-1,-2,-9,-4,0,-1,-1,-1
1480686690547718,-1,-1,-4,-4,-1,-2,-1,0
1480686690549222,0,-2,2,3,2,-1,1,-1
1480686690549222,0,2,4,0,-1,0,-2,0
1480686690561257,0,-1,-2,7,0,1,-1,-2
1480686690561257,1,0,4,-2,-2,0,0,0
1480686690567771,-2,-3,-13,-3,1,-2,-1,-1
1480686690567771,-1,2,9,6,1,-1,-1,-1
1480686690599356,-1,-2,5,7,0,0,-2,0
1480686690599356,-1,0,-4,-4,0,0,0,-1
1480686690600859,2,3,4,9,2,0,-1,0
1480686690600859,-3,-8,-13,-21,-6,-3,-2,-1
1480686690622918,-1,2,12,-1,-3,-4,0,0
1480686690622918,-1,-2,0,4,-2,-1,0,-2
1480686690624924,0,-3,-3,-4,3,0,0,0
1480686690624924,2,3,6,14,1,0,0,0
1480686690625426,1,0,-1,-8,2,1,1,0
1480686690625426,0,-1,-7,-3,-2,-1,0,0
1480686690645481,0,2,3,0,-3,0,-1,-1
1480686690645481,0,-1,-1,0,0,-1,-1,0
1480686690646481,-1,-1,-2,-5,-2,-1,1,-1
1480686690646481,0,0,-2,0,1,1,-1,-2
1480686690647985,0,-2,3,4,-1,-2,-1,-2
1480686690647985,-1,-1,-7,-8,-4,-3,-1,-1
1480686690667036,0,0,0,0,0,0,1,-1
1480686690667036,-1,1,-10,3,2,1,0,-1
1480686690668540,-2,-2,1,-12,-4,-2,-2,-2
1480686690668540,-1,1,-1,1,0,-1,0,0
1480686690689595,1,0,-2,-2,0,-2,0,1
1480686690689595,0,1,2,8,4,2,2,0
1480686690691100,-1,-2,-5,-9,-5,-1,1,-1
1480686690691100,-1,-1,-16,-9,3,0,-1,-1
1480686690711657,-1,-3,3,0,-4,-1,-2,-1
1480686690711657,0,-3,-1,-4,-3,-3,-3,-1
1480686690713660,0,-1,-5,0,0,0,-2,0
1480686690713660,1,0,4,3,1,2,1,-1
1480686690726695,0,0,-4,-1,-1,-2,-3,0
1480686690726695,0,0,0,-1,-1,0,-1,-1
1480686690728699,-2,-2,3,1,-4,-1,-1,-1
1480686690728699,1,0,1,1,-1,0,0,-1
1480686690741232,-1,1,-3,2,0,2,-1,-1
1480686690741232,-2,-1,2,-4,-2,-2,0,0
1480686690748252,0,1,1,-1,0,-1,2,-2
1480686690748252,-1,-1,6,8,0,-1,0,0
1480686690764294,-2,-3,-22,-16,0,0,0,-1
1480686690764294,-2,-2,4,-1,-1,-2,-2,0
1480686690765798,0,-1,0,-3,-1,2,-2,0
1480686690765798,1,0,-6,8,-2,-1,0,0
1480686690786854,0,1,4,-7,0,-2,0,-1
1480686690786854,1,0,9,-2,0,-1,1,1
1480686690788358,1,0,-3,3,-1,-2,-1,-1
1480686690788358,-1,-3,-11,-1,0,1,0,-1
1480686690801894,-1,0,2,8,1,-1,-1,1
1480686690801894,1,0,-24,0,-2,0,-2,0
1480686690807910,-2,-1,18,-10,-2,0,-1,-1
1480686690807910,-1,1,-4,-2,-2,-1,-2,-1
1480686690832475,1,-3,-1,2,0,0,-2,0
1480686690832475,1,0,3,3,0,0,0,-1
1480686690837990,1,2,2,12,0,-1,-3,0
1480686690837990,-1,-1,0,-3,-2,-2,-1,0
1480686690855035,-2,-1,-3,-2,-1,0,-2,-3
1480686690855035,-1,-1,6,0,0,1,0,1
1480686690856539,-2,0,-8,-2,-1,1,0,1
1480686690856539,-1,0,8,-1,0,0,-2,0
1480686690861057,0,1,-6,-1,-3,-2,0,0
1480686690861057,-1,-3,-8,-7,1,-1,0,0
1480686690868070,2,2,3,10,0,-2,1,-1
1480686690868070,0,-3,-1,-7,-1,-1,-1,-2
1480686690891633,0,-1,-3,1,0,1,1,0
1480686690891633,-3,-5,-13,-5,-3,-2,-1,-1
1480686690893639,1,0,1,5,1,1,1,0
1480686690893639,0,1,4,3,-2,-1,0,-1
1480686690913190,-2,-2,-12,-10,1,1,0,-1
1480686690913190,-1,1,3,-1,-1,-1,0,0
1480686690923216,-2,-3,-6,-1,1,-2,-1,-2
1480686690923216,-2,-2,4,3,-1,1,0,-1
1480686690924219,2,1,3,2,0,-2,0,-1
1480686690924219,-1,0,4,0,0,1,-1,-1
1480686690945275,-1,0,6,8,0,0,0,-1
1480686690945275,-2,-5,-11,-15,-2,-3,-1,-1
1480686690945777,0,-2,3,2,-1,0,0,-1
1480686690945777,-1,-1,5,-2,-2,-2,0,-1
1480686690947281,0,1,3,1,0,-1,-1,0
1480686690947281,1,2,3,6,1,1,0,-1
1480686690967334,1,-1,2,4,0,0,-1,-1
1480686690967334,0,-3,-22,-5,0,0,3,0
1480686690968838,0,0,11,-4,-1,1,0,-1
1480686690968838,-1,0,-3,-2,-2,-1,2,-3
1480686690981371,-1,-1,5,3,-2,-3,0,-1
1480686690981371,2,3,5,1,-1,0,-1,-2
1480686690995409,1,-1,-8,-3,0,0,0,1
1480686690995409,-1,-2,1,1,1,1,2,-1
1480686691004433,0,0,2,1,-1,-1,-1,-1
1480686691004433,0,-1,7,1,-1,-1,-1,-2
1480686691005937,-1,-3,-19,-9,-2,-2,0,1
1480686691005937,0,0,3,6,0,-2,-1,0
1480686691026994,-1,1,0,1,3,1,1,0
1480686691026994,0,0,9,3,-1,0,0,1
1480686691028503,0,-2,5,-3,-4,-3,-3,-1
1480686691028503,-1,1,0,2,1,1,-1,-1
1480686691040529,-2,-2,-12,-9,-2,0,1,0
1480686691040529,-1,0,2,1,0,0,-1,1
1480686691049553,0,0,1,0,-1,1,1,-1
1480686691049553,0,0,-2,0,0,-1,-1,2
1480686691065094,-1,-2,4,3,-3,-2,0,1
1480686691065094,-1,1,6,1,3,1,1,-2
1480686691067099,-1,-2,-4,-1,-2,0,-1,0
1480686691067099,0,1,0,-1,1,-1,2,0
1480686691110716,-1,1,11,6,-4,1,0,-2
1480686691110716,1,0,-5,5,5,-1,1,2
1480686691112219,-2,-3,-14,-13,-1,-2,0,-2
1480686691112219,0,0,10,-1,-2,0,-1,-1
1480686691124252,-1,-1,-2,3,-1,0,-1,0
1480686691124252,0,2,9,3,-1,1,0,-1
1480686691148817,-1,0,2,4,3,1,2,0
1480686691148817,0,0,-6,-1,-1,1,0,-1
1480686691149819,-1,-2,3,-3,-3,-3,-1,1
1480686691149819,0,-3,-2,-1,-1,0,0,-2
1480686691154332,0,0,-1,1,2,0,2,0
1480686691154332,0,1,-3,-2,-3,-1,-2,-2
1480686691155334,0,-1,1,0,1,-2,0,0
1480686691155334,-1,-1,-6,-5,-2,-2,0,0
1480686691169372,-1,0,-4,-3,0,1,-1,-1
1480686691169372,-1,-3,-1,-2,-5,-2,-1,0
1480686691176893,0,1,3,-1,-1,-1,0,0
1480686691176893,-3,-4,-3,0,0,0,2,1
1480686691199454,-1,0,-4,-2,2,0,-1,-2
1480686691199454,-1,-1,2,-4,-3,-2,0,0
1480686691202962,0,-2,0,0,-1,0,0,-1
1480686691202962,-1,-1,-3,-1,-1,-1,0,-2
1480686691215494,1,-1,-3,-2,-1,-1,0,-1
1480686691215494,2,2,2,0,1,0,1,-2
1480686691221008,0,-1,3,0,-3,-1,-1,-3
1480686691221008,-6,-3,-4,-1,1,-1,-1,-1
1480686691222011,-2,0,3,1,-1,0,-1,0
1480686691222011,-2,-7,-5,-2,-2,-2,-2,0
1480686691246076,1,1,5,2,1,-1,-1,0
1480686691246076,1,-4,-19,-10,-2,-1,0,0
1480686691247078,0,0,2,2,1,0,-1,0
1480686691247078,0,1,4,1,0,1,-2,0
1480686691252091,-2,-4,0,-7,-4,-1,-2,-1
1480686691252091,1,-1,2,-1,-1,0,0,-1
1480686691274653,-1,3,9,4,0,-1,-2,0
1480686691274653,-1,0,-16,-2,-1,-1,3,4
1480686691276155,-1,-1,-7,-2,-3,-3,0,-2
1480686691276155,0,2,3,2,-2,-2,-3,-3
1480686691280667,-1,-1,-1,-7,2,2,5,5
1480686691280667,1,4,8,5,1,2,-2,-9
1480686691289691,-1,-1,-1,0,1,0,-5,-2
1480686691289691,-1,-5,-6,-3,-3,-3,-1,0
1480686691304230,1,-3,-5,1,-3,0,1,6
1480686691304230,-1,-2,-2,-5,1,-1,0,-5
1480686691305734,-1,0,-3,2,-2,-2,-4,-2
1480686691305734,1,1,7,3,3,1,-2,-2
1480686691327292,0,-1,-3,-2,-2,-3,-1,-1
1480686691327292,0,1,0,-3,0,0,0,3
1480686691341831,1,0,0,0,-2,0,0,0
1480686691341831,0,3,6,3,1,1,-1,2
1480686691349350,0,-1,0,-2,-2,-3,-3,-2
1480686691349350,-1,-3,-15,-5,-2,-2,2,-1
1480686691351857,0,1,0,-1,1,-1,-1,-3
1480686691351857,1,0,2,3,-1,0,1,4
1480686691363888,-2,-1,-4,-3,0,-2,-2,-5
1480686691363888,-1,1,7,-5,-1,0,0,2
1480686691372913,1,0,7,4,1,2,4,4
1480686691372913,-1,-3,-12,-7,-2,-1,0,-2
1480686691393470,-2,2,1,0,1,2,-1,-3
1480686691393470,-2,-3,3,2,-2,1,-1,-1
1480686691431569,-2,-1,-2,0,0,-2,2,3
1480686691431569,0,0,4,2,-2,-2,-1,-2
1480686691432572,0,-1,-2,-1,-2,1,1,1
1480686691432572,-2,-1,1,0,0,-1,-4,0
1480686691456635,-1,0,-4,-1,-1,-2,-2,-6
1480686691456635,-1,0,1,1,1,0,0,4
1480686691457137,-1,1,-5,-4,-1,-2,-1,-11
1480686691457137,0,1,0,-1,0,-1,3,9
1480686691469168,0,-1,0,-1,-1,0,0,-3
1480686691469168,-2,0,-1,2,1,-2,-6,-1
1480686691477694,-2,-1,-1,-1,0,-2,-1,2
1480686691477694,-1,1,1,0,-1,0,-3,-3
1480686691478192,1,0,-2,0,0,1,-1,-2
1480686691478192,-1,-1,-2,1,0,-2,0,-2
1480686691480199,-1,1,0,1,0,0,1,3
1480686691480199,1,-2,1,-1,1,0,-2,-2
1480686691484208,0,-2,-2,2,2,0,-2,-2
1480686691484208,-1,0,4,0,-1,1,5,5
1480686691490727,1,-1,-2,5,3,0,4,8
1480686691490727,-1,0,1,-2,-1,-3,-9,-16
1480686691507771,-1,-1,-2,-2,-3,-3,0,-1
1480686691507771,0,-2,-2,1,0,-2,-3,-2
1480686691520304,-1,-1,-1,-3,-3,0,3,0
1480686691520304,2,0,-2,2,5,2,4,6
1480686691529329,1,-2,0,-3,-3,1,-1,13
1480686691529329,0,-1,1,0,0,-2,-1,-19
1480686691530832,-5,-1,-2,-3,-5,-3,-13,-4
1480686691530832,-2,0,1,0,-1,0,2,-5
1480686691544873,-3,0,2,1,-1,0,0,0
1480686691544873,1,-2,-3,-1,1,0,3,10
1480686691546877,1,0,-1,-3,-1,0,-2,-1
1480686691546877,1,0,1,1,-3,-1,4,1
1480686691567430,-2,-2,1,1,-1,-1,-1,2
1480686691567430,-2,-3,-8,-10,-1,-2,-5,0
1480686691569435,1,2,0,0,-2,0,-1,-2
1480686691569435,-3,-5,-1,-1,-3,-2,-1,4
1480686691597510,2,1,3,3,3,2,1,-3
1480686691597510,-1,-2,1,2,-2,-2,-1,-1
1480686691599014,-1,-2,-3,-2,0,-1,-1,-2
1480686691599014,2,2,1,0,-3,0,3,4
1480686691620571,1,1,-2,3,2,-1,-3,-4
1480686691620571,0,0,4,-2,0,1,-3,-2
1480686691628097,0,-2,-3,-2,-1,1,2,2
1480686691628097,-3,0,0,2,-1,-2,-1,1
1480686691628593,-2,0,-2,-3,-1,0,-1,-4
1480686691628593,0,1,0,2,0,1,-1,0
1480686691633104,0,0,2,-1,0,0,0,0
1480686691633104,-3,-5,-3,-5,-2,-3,0,-2
1480686691649146,-1,-2,-3,-3,-1,0,1,-1
1480686691649146,-1,0,1,0,-1,-2,-6,-2
1480686691651152,-1,-1,0,0,0,2,0,-3
1480686691651152,-1,2,-2,-1,0,0,-5,-5
1480686691663687,0,1,0,-1,-1,-3,0,0
1480686691663687,0,0,1,1,-3,-1,0,0
1480686691688251,0,-1,-1,0,3,0,1,1
1480686691688251,-2,-1,-2,-2,-4,-2,1,1
1480686691688752,-1,-2,1,-1,0,0,-1,-2
1480686691688752,2,1,-2,-2,1,0,-1,1
1480686691690759,-2,0,-1,0,-3,-1,0,-1
1480686691690759,-1,0,0,-1,-1,-1,1,1
1480686691709808,0,-2,-1,1,0,-2,-1,-2
1480686691709808,-1,-1,-2,-1,2,2,0,0
1480686691711316,-1,0,-2,-1,0,-1,-1,1
1480686691711316,-1,2,0,2,0,0,-1,-3
1480686691732368,-3,-2,-4,2,1,-1,-1,0
1480686691732368,-1,-1,0,1,-2,-1,7,7
1480686691733873,-2,-2,0,4,-2,-2,0,-6
1480686691733873,-1,-2,1,6,3,0,-12,-8
1480686691754427,0,0,-2,-9,-4,-1,-3,0
1480686691754427,-2,0,-2,0,1,0,1,-2
1480686691755931,1,-1,-2,-5,-2,-1,1,5
1480686691755931,-2,-1,0,2,0,0,2,2
1480686691776987,-1,-1,-1,5,0,0,-1,-3
1480686691776987,-2,1,-1,-1,-2,-2,-1,0
1480686691778491,-2,2,2,1,-2,-1,1,2
1480686691778491,1,0,-3,-3,1,1,0,-1
1480686691783504,-1,0,0,0,-2,-2,0,-2
1480686691783504,0,-1,-1,0,0,-1,0,-2
1480686691799547,-2,3,1,7,1,0,-2,-1
1480686691799547,0,-2,-3,-5,2,4,0,4
1480686691807067,-1,-3,0,-8,-2,-1,4,5
1480686691807067,0,-1,0,7,1,-1,-3,-6
1480686691808571,0,-1,-3,-6,1,-1,-8,-6
1480686691808571,0,0,-1,-1,-2,-2,2,3
1480686691829126,0,1,-1,3,-3,0,0,-1
1480686691829126,-2,-1,0,-1,-2,-1,-2,1
1480686691832135,-1,-3,0,-1,-1,-1,0,1
1480686691832135,0,-2,0,-1,0,-2,1,0
1480686691843163,-1,0,-2,1,0,-1,0,2
1480686691843163,1,0,0,-1,-3,-2,2,3
1480686691852187,-1,-3,-3,-2,0,0,0,-3
1480686691852187,-1,0,-1,-3,1,-1,0,-1
1480686691874246,-1,0,-1,-2,-2,-1,0,-2
1480686691874246,2,3,4,0,1,0,-1,-1
1480686691875749,1,-2,5,11,0,1,0,2
1480686691875749,-3,-4,-17,-20,-5,-2,0,-1
1480686691891291,0,-1,-1,0,1,-2,-2,-2
1480686691891291,-1,-1,-3,-3,-2,-3,-2,0
1480686691895302,0,0,6,-1,0,0,1,-1
1480686691895302,0,2,7,6,0,2,3,2
1480686691903323,0,-2,0,4,0,0,-3,-1
1480686691903323,0,-2,-3,-3,-1,-1,0,4
1480686691911846,1,1,-1,1,3,2,1,0
1480686691911846,-1,-3,-2,1,-6,-2,-5,-8
1480686691925883,1,2,0,-3,1,1,2,3
1480686691925883,-2,-7,-1,7,0,-2,0,-2
1480686691942931,-1,-2,-2,-9,-2,-1,-3,-1
1480686691942931,2,-2,7,6,-1,-1,3,3
1480686691965490,-1,-1,-12,-6,0,1,-1,-2
1480686691965490,-3,-1,-6,1,0,0,-1,-2
1480686691967494,0,-2,-5,-14,-4,-1,1,0
1480686691967494,-1,-1,1,4,-1,-2,1,2
1480686691967995,-1,0,6,2,0,0,-4,-2
1480686691967995,-2,0,-4,0,-1,-2,-1,-2
1480686691989052,-1,3,0,0,1,-1,3,6
1480686691989052,-1,-4,1,1,-1,-1,-5,-9
1480686691989552,-3,0,2,0,0,-1,-1,2
1480686691989552,1,1,2,-1,2,2,0,0
1480686692010108,-1,-2,-6,2,-4,-2,1,0
1480686692010108,0,2,1,-5,3,1,3,4
1480686692010609,1,-1,-3,-1,-2,-2,1,0
1480686692010609,-2,-4,-3,5,-5,-1,-3,-3
1480686692012614,-1,0,-1,-8,-1,0,-1,-1
1480686692012614,2,3,-5,2,1,2,1,5
1480686692023643,0,-1,0,0,0,0,-2,-2
1480686692023643,2,5,2,0,-2,-1,-6,-3
1480686692032166,-1,-5,-1,2,0,1,1,-2
1480686692032166,-3,1,-1,3,-2,-3,-2,-1
1480686692048209,-3,-13,2,-1,-1,-1,0,-8
1480686692048209,-1,1,1,-3,0,3,1,3
1480686692049712,-1,2,-5,-4,-6,-9,-4,-5
1480686692049712,-3,-3,0,-4,-1,-2,0,1
1480686692069766,0,2,1,2,1,1,2,2
1480686692069766,-1,-2,-1,-6,-2,-1,0,0
1480686692083803,-1,-3,1,1,-1,1,0,-2
1480686692083803,0,3,3,0,0,-1,-1,0
1480686692084307,1,4,2,2,-1,-2,0,0
1480686692084307,1,3,-8,-7,-1,0,1,-1
1480686692099345,2,10,5,10,3,3,1,3
1480686692099345,-5,-14,-7,-3,-4,-2,-2,-3
1480686692106865,-3,-1,-4,-4,-3,-2,-5,-6
1480686692106865,-1,1,4,-1,0,0,-3,-4
1480686692108368,0,1,-1,0,0,0,-1,2
1480686692108368,1,1,-1,-1,0,-1,0,0
1480686692129423,1,-2,16,5,2,2,2,3
1480686692129423,2,3,-1,1,-2,-1,2,1
1480686692130929,-3,-7,1,-1,0,1,-1,-2
1480686692130929,0,1,-8,-5,1,-2,-1,1
1480686692151984,0,-1,-3,-4,-2,0,1,0
1480686692151984,-2,-4,2,1,0,-1,1,0
1480686692153489,-2,-4,0,-2,-2,1,-2,-2
1480686692153489,0,0,2,3,-1,0,1,1
1480686692174544,1,1,-5,-1,1,0,1,0
1480686692174544,0,-3,0,2,0,1,-1,0
1480686692177052,0,-1,-4,-2,-1,-2,-1,-2
1480686692177052,-2,2,0,0,0,-1,-4,-2
1480686692189584,-2,0,-1,-1,-2,-3,0,-1
1480686692189584,-2,-5,1,-1,0,2,-5,-4
1480686692197104,-1,-4,3,1,1,1,3,0
1480686692197104,3,0,1,3,0,2,0,0
1480686692218662,0,2,-6,-8,-1,-1,-1,-1
1480686692218662,-4,-7,-2,-5,-3,-4,2,2
1480686692243227,1,-2,-4,-3,-2,-1,0,2
1480686692243227,0,2,3,2,0,0,-1,3
1480686692243729,0,0,0,3,1,1,0,-8
1480686692243729,-2,0,0,1,0,0,-6,-2
1480686692266790,-2,-2,0,1,-2,-1,-1,-1
1480686692266790,0,2,2,-4,-3,3,3,3
1480686692268294,-1,1,-1,2,0,-5,-3,3
1480686692268294,-2,-7,-5,-7,-3,-3,0,-3
1480686692288348,-1,1,-1,1,0,-2,-2,-1
1480686692288348,-1,2,6,1,0,0,3,3
1480686692288848,0,0,-4,1,-1,1,0,-3
1480686692288848,0,0,2,1,2,1,-6,-3
1480686692290854,-2,-1,-1,0,-2,-1,0,0
1480686692290854,-1,0,-1,0,-3,0,-1,-4
1480686692310910,-3,-1,-3,-6,-1,-1,0,3
1480686692310910,1,0,-2,0,-1,-1,1,2
1480686692312411,0,3,-2,-7,1,0,1,0
1480686692312411,0,2,-3,3,-1,-1,-2,-4
1480686692312912,-2,-5,-2,-1,-1,-2,-4,-4
1480686692312912,-2,2,-1,2,0,0,-2,0
1480686692316923,-1,-1,2,-1,-1,0,0,0
1480686692316923,0,-2,0,-2,1,-1,2,0
1480686692331963,0,2,-3,2,-1,1,3,3
1480686692331963,-2,-3,0,-4,-1,-3,1,-2
1480686692333467,0,-1,1,-3,-1,-2,-2,-1
1480686692333467,0,-1,1,4,1,0,-1,0
1480686692362044,2,2,0,3,0,1,-1,0
1480686692362044,-1,1,1,5,1,0,2,1
1480686692363547,-2,-2,-5,0,0,-2,-2,0
1480686692363547,1,-1,-3,-7,0,-1,-1,0
1480686692369562,1,-6,1,-1,-2,0,2,5
1480686692369562,1,4,-1,2,-1,-1,0,-4
1480686692371068,-2,-5,-6,-1,-3,-3,-4,-3
1480686692371068,-1,-1,-2,0,-1,-1,0,-2
1480686692383101,2,1,3,3,2,1,0,2
1480686692383101,3,1,0,-5,-2,-1,5,5
1480686692392124,1,-2,0,4,0,-1,-6,-5
1480686692392124,-2,-2,-4,-2,-1,-2,-1,-2
1480686692406661,0,-1,-1,-1,0,1,-1,0
1480686692406661,1,1,6,1,-1,2,2,0
1480686692408668,0,3,10,7,2,-1,0,0
1480686692408668,-1,-2,-14,-10,-5,-2,-1,-1
1480686692429723,-1,-4,3,-1,0,-1,-2,-2
1480686692429723,1,-1,-9,-3,-1,-3,-2,-2
1480686692431227,0,1,3,3,-3,0,0,1
1480686692431227,-1,2,6,4,4,1,-2,-2
1480686692452784,-2,0,1,-3,-1,-2,0,-2
1480686692452784,1,1,0,4,-2,1,-1,-1
1480686692454288,-2,-3,-2,0,0,0,3,1
1480686692454288,-1,2,0,3,-1,0,2,0
1480686692474342,-1,0,-7,-13,-5,-5,-5,-4
1480686692474342,-1,-1,-3,3,5,-1,1,1
1480686692475846,0,2,-1,-2,0,2,1,-2
1480686692475846,0,-3,0,4,-1,-1,0,0
1480686692496901,-2,-1,1,4,0,0,1,1
1480686692496901,0,0,2,-2,-1,0,-3,-2
1480686692521467,-1,-1,-4,-6,-2,-3,-1,0
1480686692521467,0,-3,-2,-1,0,-1,0,2
1480686692522470,-2,0,1,0,0,0,0,0
1480686692522470,-1,-2,-6,-3,-2,-2,-2,0
1480686692542523,-2,0,0,0,1,0,0,0
1480686692542523,-1,0,2,-1,0,-1,-1,-2
1480686692544533,0,0,-3,1,-2,-4,-1,0
1480686692544533,-1,0,-1,-2,0,2,-1,0
1480686692546032,3,2,0,-1,-1,1,-1,0
1480686692546032,-2,0,-1,-1,-1,-2,-1,-1
1480686692564583,-1,-1,0,1,-1,0,0,1
1480686692564583,-1,1,11,5,-1,-1,1,0
1480686692566085,-1,-1,-22,-15,-3,-2,-6,-2
1480686692566085,-2,-2,3,-3,-3,-2,-2,-2
1480686692588144,2,0,0,4,0,0,-1,-1
1480686692588144,-1,-2,-4,-2,-1,-4,2,1
1480686692589648,-1,2,2,4,0,1,2,1
1480686692589648,-1,-2,2,0,2,-2,-7,-3
1480686692590651,-2,1,0,0,1,0,-1,0
1480686692590651,-1,-1,3,2,0,-1,-1,-1
1480686692594668,0,-1,3,1,0,-1,1,0
1480686692594668,1,-3,-8,-7,0,0,2,0
1480686692609200,0,0,2,2,1,-1,0,-1
1480686692609200,-2,0,-1,-2,-2,-1,-1,-1
1480686692611209,-1,-2,-3,2,2,-1,1,0
1480686692611209,0,0,4,-1,-2,-1,0,0
1480686692632762,1,-2,-1,1,0,0,-2,-2
1480686692632762,0,-1,-3,-2,0,0,-1,1
1480686692634768,0,0,0,2,-2,0,-1,-2
1480686692634768,0,0,3,1,0,2,-1,0
1480686692654320,-2,-2,-2,-1,-2,-1,-1,-1
1480686692654320,0,-1,-1,0,-1,1,-2,1
1480686692655824,0,2,3,-10,-3,-1,0,-1
1480686692655824,-1,1,-1,-1,0,-1,4,1
1480686692676880,-1,-1,-1,0,-1,-1,-4,-3
1480686692676880,-2,-3,-4,1,4,0,0,-1
1480686692678385,0,-1,3,2,-2,0,1,0
1480686692678385,0,0,-1,-2,-1,-2,1,0
1480686692691921,1,0,2,0,1,1,2,2
1480686692691921,0,0,1,1,-2,-2,-1,0
1480686692693424,-1,-4,-3,-5,1,-1,0,0
1480686692693424,-2,2,2,0,-2,-2,0,2
1480686692706459,0,0,-1,-1,-2,0,0,0
1480686692706459,0,-2,-2,-5,1,0,-1,-2
1480686692712976,0,0,1,2,0,1,0,-1
1480686692712976,1,0,0,1,-2,0,-2,0
1480686692730021,0,0,-1,-2,0,-1,-1,-1
1480686692730021,-2,0,-1,-5,-4,-1,0,-1
1480686692731525,1,1,3,4,-2,-2,1,1
1480686692731525,0,-3,-4,-3,1,1,-7,-3
1480686692752581,-1,-2,-2,1,0,0,3,0
1480686692752581,0,-2,-2,0,-2,-1,0,1
1480686692754085,0,-1,1,3,0,0,1,0
1480686692754085,0,-2,0,0,0,-1,1,-1
1480686692774640,-2,1,1,-2,0,1,-2,1
1480686692774640,-1,0,1,0,-1,1,0,-1
1480686692776646,0,0,-1,-1,0,-1,0,-1
1480686692776646,-1,0,-1,1,1,1,0,-1
1480686692796699,1,0,-1,-3,-1,-1,0,-1
1480686692796699,1,2,-1,8,2,0,-1,-1
1480686692799208,-3,-3,0,-6,-3,-2,-2,-1
1480686692799208,0,1,1,0,0,1,1,0
1480686692819760,0,-2,-2,3,0,0,-5,-1
1480686692819760,-2,1,-3,-4,-2,0,-1,0
1480686692821264,-1,0,1,0,-1,-1,-1,-3
1480686692821264,0,2,0,2,-1,-2,0,-1
1480686692841820,0,-1,0,-3,-2,-1,1,0
1480686692841820,0,-1,0,-2,-2,0,-1,-2
1480686692843323,-1,1,-3,4,-2,-2,-2,0
1480686692843323,-2,-3,-2,-2,0,1,2,1
1480686692864379,-1,2,-3,1,1,1,-3,-2
1480686692864379,1,-2,-2,0,1,0,0,0
1480686692865883,-2,-6,-3,-4,-1,-1,-1,-1
1480686692865883,-2,-2,4,-1,-2,-1,-1,-1
1480686692872400,0,0,-2,1,0,1,0,1
1480686692872400,-1,-3,-2,-3,-2,-2,-1,-1
1480686692886939,0,2,-1,-1,0,-1,-1,-1
1480686692886939,0,-4,-3,0,-1,0,-2,-1
1480686692887941,-1,0,2,1,-2,-2,-1,-1
1480686692887941,1,0,0,1,0,0,1,1
1480686692892955,0,0,-1,0,0,0,0,-1
1480686692892955,-1,-2,4,-3,-1,-3,-6,-4
1480686692910001,0,0,0,0,1,-1,1,1
1480686692910001,1,-1,-1,1,0,-1,-2,-1
1480686692911517,1,0,0,-1,-2,0,1,0
1480686692911517,0,-1,-2,-2,1,0,-1,1
1480686692932059,0,0,2,-1,-4,-3,-1,0
1480686692932059,-2,-3,1,-3,-1,-2,-1,0
1480686692934064,-1,1,-1,0,0,-3,-3,-1
1480686692934064,-2,2,-3,-7,-4,-3,0,-1
1480686692945595,-2,-3,-2,-3,-1,-1,-2,0
1480686692945595,-1,-1,-1,-2,0,1,-1,-3
1480686692954619,0,1,2,-1,1,0,-3,-1
1480686692954619,0,1,0,4,-1,0,-2,0
1480686692969157,-1,-1,1,-1,0,2,3,-1
1480686692969157,1,2,2,1,-1,0,2,1
1480686692971163,-1,-4,-2,-1,-1,-2,-3,-1
1480686692971163,-2,1,-3,-3,-1,-1,0,-1
1480686692992721,-1,-1,0,-2,0,-1,-3,-1
1480686692992721,0,0,-2,4,-1,-2,-1,0
1480686692994224,1,-2,2,4,5,2,3,1
1480686692994224,-1,-1,-3,1,1,1,1,2
1480686693005755,-3,-5,0,-2,-1,-1,0,0
1480686693005755,1,1,-1,1,1,0,0,-1
1480686693014277,0,-2,-1,1,-3,-2,0,-1
1480686693014277,0,-1,0,-1,-2,0,-2,0
1480686693029317,1,0,0,-1,2,0,2,-1
1480686693029317,-1,-2,-2,-1,-1,0,1,1
1480686693030821,-1,1,1,-1,1,0,-2,-2
1480686693030821,0,-1,-3,2,-1,-1,-4,-4
1480686693051878,-1,1,0,-1,-1,-1,1,-1
1480686693051878,3,1,-1,-3,-4,-2,-1,-1
1480686693053382,0,0,1,-2,-3,-1,1,1
1480686693053382,0,0,1,3,1,0,2,0
1480686693074437,-2,-1,-4,-1,-1,0,0,-2
1480686693074437,1,0,-3,0,-1,1,1,0
1480686693075942,1,2,-1,-2,0,1,0,-2
1480686693075942,-1,-3,1,-3,-2,0,0,-1
1480686693096998,0,2,-3,-1,0,1,-1,-2
1480686693096998,-5,-4,3,2,2,-1,0,1
1480686693098502,-2,0,0,1,1,0,0,1
1480686693098502,-1,0,0,0,0,-1,-4,-3
1480686693119556,0,2,1,-1,0,-2,0,1
1480686693119556,-2,-2,0,-3,-1,-3,-3,-2
1480686693122064,-1,-2,-2,-3,0,0,0,0
1480686693122064,-1,-1,2,-1,2,1,3,0
1480686693125574,1,1,1,1,-2,0,-1,0
1480686693125574,-1,0,0,-3,-1,0,-1,-1
1480686693142118,-1,-4,-2,0,-2,-1,1,-1
1480686693142118,1,1,-5,-1,0,0,1,0
1480686693150139,0,-1,-1,0,0,-1,0,-1
1480686693150139,1,0,0,1,0,2,-1,0
1480686693151643,-1,0,0,-1,-2,1,-1,-1
1480686693151643,-2,1,0,-2,-2,-1,-1,0
1480686693171695,-1,-3,-1,-2,-1,-2,-1,-1
1480686693171695,0,-1,2,-1,4,-1,-1,-1
1480686693173702,-2,0,3,1,-1,0,-1,-2
1480686693173702,0,-1,-3,1,2,1,1,-1
1480686693185733,-3,-3,-2,-1,-1,-1,-1,0
1480686693185733,-2,0,-1,-1,-3,-2,0,-2
1480686693194759,1,0,0,-1,0,-2,-1,-1
1480686693194759,0,-2,0,0,-1,-2,1,0
1480686693209797,0,1,2,-1,-2,0,-2,0
1480686693209797,-1,0,-2,2,3,2,1,1
1480686693211302,-2,-3,-1,-1,0,0,-5,-3
1480686693211302,-1,0,1,-2,-3,-2,0,0
1480686693231855,0,-1,0,3,-2,-1,0,0
1480686693231855,-1,-1,2,-2,-2,-1,0,0
1480686693233360,1,-1,-2,-5,2,2,2,-1
1480686693233360,1,0,0,1,1,0,-1,-1
1480686693245391,0,0,0,0,0,1,-1,0
1480686693245391,-2,-3,-2,-2,-2,-1,0,0
1480686693261936,0,2,-2,-2,-2,-1,0,0
1480686693261936,-3,-2,2,1,-2,-1,-1,-1
1480686693284496,2,2,0,0,1,1,1,1
1480686693284496,-4,-6,3,-2,0,0,-2,0
1480686693285999,-1,0,-1,2,-1,-1,-1,0
1480686693285999,1,-3,-1,0,1,1,2,1
1480686693307557,-2,1,1,1,1,-1,-5,-3
1480686693307557,-1,0,-2,-2,-1,-2,-1,-1
1480686693309061,0,0,-1,-2,-1,-1,-1,-1
1480686693309061,0,0,1,2,-2,-1,0,1
1480686693310065,-2,-4,-1,-1,-1,-2,0,1
1480686693310065,1,-1,-3,-1,2,0,-1,-2
1480686693331621,-3,-1,-2,-1,-1,1,-1,0
1480686693331621,0,0,3,2,-1,0,1,0
1480686693332122,2,0,-2,4,2,0,2,0
1480686693332122,-1,-2,-2,-12,-3,-2,-5,-1
1480686693352677,0,0,1,2,-2,-1,0,0
1480686693352677,-1,-1,-1,0,0,-1,-3,-1
1480686693354181,-2,2,0,0,0,-1,2,2
1480686693354181,-2,-3,-3,4,0,1,1,-2
1480686693356187,-1,0,1,-1,-1,-2,-5,-3
1480686693356187,-1,1,-3,-3,-2,0,0,-2
1480686693374736,0,-3,1,-4,-2,0,0,-1
1480686693374736,1,3,-2,1,-1,-1,0,1
1480686693376241,0,0,-3,-2,-2,-1,1,1
1480686693376241,-1,1,0,1,-1,0,-1,-1
1480686693396797,-2,-2,-2,3,1,0,-1,0
1480686693396797,1,1,-1,1,2,1,-1,2
1480686693398299,-1,-3,1,-4,-1,1,0,-1
1480686693398299,0,-1,-3,0,-1,-3,-2,-2
1480686693419355,0,-1,0,3,-2,-1,-1,-1
1480686693419355,0,1,1,1,0,0,0,0
1480686693420858,-2,-1,0,2,-3,-2,1,-1
1480686693420858,-1,-2,1,-2,-1,-2,-1,0
1480686693441916,-2,-3,-3,-4,-4,-1,-1,-1
1480686693441916,-1,1,-2,2,-1,-2,-1,0
1480686693443420,2,-1,-1,-8,1,0,2,1
1480686693443420,-3,-4,-3,0,-1,-1,-1,-2
1480686693448933,-1,-2,-1,-3,-2,-1,-3,0
1480686693448933,1,2,1,1,-1,1,0,-1
1480686693462970,-1,-1,-2,3,1,1,-1,-2
1480686693462970,-1,0,1,-1,0,-1,1,0
1480686693471994,0,-1,-2,1,0,3,2,-2
1480686693471994,-1,-3,-3,-1,0,0,-1,-1
1480686693473499,1,1,1,1,-3,0,1,0
1480686693473499,0,-1,-1,-1,1,1,-1,0
1480686693494558,-2,0,2,-2,-3,-3,-1,-1
1480686693494558,0,0,1,-2,-3,-1,0,0
1480686693496058,-1,-2,-3,-1,1,0,-1,-1
1480686693496058,1,0,1,1,0,-1,0,1
1480686693508592,0,-2,0,0,-1,-1,2,1
1480686693508592,0,-1,0,-1,-4,-1,-2,0
1480686693516111,-3,0,0,1,-1,-3,-1,-1
1480686693516111,1,2,0,2,1,0,-1,0
1480686693539173,0,0,0,-2,0,3,1,0
1480686693539173,-1,-5,-2,-6,-2,-2,2,-2
1480686693541179,-1,-3,-1,1,0,-3,-2,1
1480686693541179,1,1,-4,0,1,0,-1,-1
1480686693561733,0,-1,0,-1,-1,-3,0,-1
1480686693561733,-1,0,-1,1,0,-1,-1,-2
1480686693563238,0,0,1,0,0,1,0,0
1480686693563238,-3,-1,2,1,-1,-2,0,-1
1480686693584293,-1,0,-2,-4,-2,-4,-2,-1
1480686693584293,0,0,0,0,-1,-1,-1,0
1480686693585797,0,-2,-2,-1,2,0,0,-2
1480686693585797,-1,0,0,-3,-3,0,-1,-1
1480686693590811,-2,0,-1,3,2,-2,-1,-1
1480686693590811,-1,0,0,1,-2,0,0,0
1480686693605349,2,1,0,1,-2,-1,0,1
1480686693605349,-2,-3,-1,0,0,0,-3,-3
1480686693613370,-1,-1,-3,2,-3,-2,-3,-3
1480686693613370,-1,-1,-3,-7,-1,-2,-2,-1
1480686693629413,0,-1,3,1,-2,-3,0,1
1480686693629413,1,2,-3,0,-1,1,2,0
1480686693653476,-2,-4,-2,-6,-2,-3,-2,-2
1480686693653476,0,1,1,4,1,-1,1,0
1480686693655984,-1,-1,-2,-1,-1,1,-1,-2
1480686693655984,0,-1,1,-1,-1,-1,-1,-1
1480686693656485,1,1,0,-1,-1,0,-2,0
1480686693656485,-2,-1,-3,3,-1,-1,2,1
1480686693676539,1,-1,-1,-3,-1,0,-2,-1
1480686693676539,-1,0,-1,0,-4,-2,-2,-1
1480686693677545,1,3,0,-1,3,2,1,1
1480686693677545,0,0,2,-2,-2,-2,-1,-1
1480686693697595,-1,0,1,1,0,-1,2,-2
1480686693697595,-2,0,-4,0,-1,-1,2,0
1480686693698097,-3,-1,-1,-2,0,1,0,-1
1480686693698097,-1,3,1,3,0,-1,-2,1
1480686693700101,-1,-1,-2,0,-1,1,0,1
1480686693700101,0,0,0,-2,0,0,0,-1
1480686693719152,1,0,0,-2,-2,-1,0,-1
1480686693719152,-1,-2,-1,0,0,1,-1,-3
1480686693721157,-2,0,-2,2,1,0,-3,-1
1480686693721157,1,-1,0,-3,0,0,-1,1
1480686693734192,-1,0,1,2,1,1,-1,0
1480686693734192,0,0,0,4,-1,-1,-3,1
1480686693742214,0,-1,-3,-7,-3,-1,2,0
1480686693742214,1,-2,-1,0,-3,-2,-6,-3
1480686693748730,0,1,0,1,0,0,1,0
1480686693748730,0,0,2,-3,0,-2,0,-1
1480686693755248,-1,0,0,1,-1,-1,1,1
1480686693755248,0,1,1,-2,0,0,-2,-1
1480686693771792,0,2,-1,-1,-4,-1,0,0
1480686693771792,-1,-2,-1,0,1,0,-2,-2
1480686693773296,-1,-1,-1,0,1,0,0,-1
1480686693773296,0,1,1,-1,-2,0,0,0
1480686693794466,-2,-1,-1,-2,0,-3,-2,-2
1480686693794466,0,0,0,4,1,2,1,0
1480686693795856,-2,-2,-4,0,-2,-2,-2,-2
1480686693795856,0,-2,-2,-1,-1,-1,1,2
1480686693816912,0,-3,-1,0,-2,-1,-2,0
1480686693816912,0,-1,-1,-1,1,0,-5,-2
1480686693818416,-1,-2,0,-1,-3,-2,-2,-1
1480686693818416,1,-1,0,0,1,0,0,0
1480686693839472,1,0,0,-1,0,0,2,0
1480686693839472,1,-2,0,-3,-3,-2,1,1
1480686693840976,1,2,1,2,-2,-1,-1,1
1480686693840976,-1,-2,-1,-1,-1,-1,1,0
1480686693862034,-1,-3,-1,-2,-3,0,-5,-1
1480686693862034,-2,0,-2,1,-3,0,-3,0
1480686693863537,-1,-1,-1,0,2,1,0,-1
1480686693863537,-2,-2,-1,-2,0,0,2,0
1480686693868047,-1,-1,1,0,0,-1,0,0
1480686693868047,-1,2,1,3,-1,-1,-1,0
1480686693883088,1,-2,-2,1,0,-1,1,4
1480686693883088,-1,1,-2,-1,-1,-1,2,0
1480686693906650,-3,-2,-2,1,-1,-1,-7,-3
1480686693906650,2,-1,-1,0,-2,-1,1,-1
1480686693908655,-1,2,2,0,0,1,1,-1
1480686693908655,0,0,0,0,1,1,-1,1
1480686693930213,1,0,-2,0,-2,-1,2,0
1480686693930213,-1,-1,-1,-3,-2,1,0,-1
1480686693931717,-2,-1,-3,-2,0,0,-2,-2
1480686693931717,-1,-2,0,1,0,2,0,1
1480686693932218,-1,-2,0,1,1,0,1,1
1480686693932218,1,-1,0,0,-1,-1,-1,-4
1480686693954277,-1,-3,-1,-3,-1,0,-1,-1
1480686693954277,-2,-1,-3,2,0,-1,0,0
1480686693954778,-1,-1,0,-1,1,1,3,2
1480686693954778,-1,-1,-2,-4,-2,0,-3,-1
1480686693958288,0,0,0,3,-1,-2,-1,0
1480686693958288,-2,0,-3,-8,-2,-2,-1,-2
1480686693974330,-1,0,-3,0,0,-2,-1,-1
1480686693974330,0,-1,-2,-1,2,0,0,1
1480686693975834,-1,0,1,-4,-2,-2,0,0
1480686693975834,-1,0,1,2,0,0,-1,-1
1480686693996890,-2,-2,-2,-1,0,0,-3,-1
1480686693996890,0,-1,-2,-2,-1,-2,1,0
1480686693998395,1,2,0,0,0,0,-2,-1
1480686693998395,-1,-2,-1,-1,-1,-1,0,-1
1480686694019451,0,1,0,-2,-1,1,1,1
1480686694019451,-1,1,1,0,0,-1,-1,0
1480686694020954,1,-3,-2,2,0,0,-2,-1
1480686694020954,1,-1,1,-1,-3,-2,0,-1
1480686694034490,-1,-1,0,4,2,1,2,1
1480686694034490,-1,0,-3,-8,-1,-1,-5,-4
1480686694041007,0,-1,0,0,-2,-2,1,0
1480686694041007,1,0,-1,2,2,1,0,1
1480686694048026,0,-2,1,-1,-2,-2,-1,-1
1480686694048026,-1,-2,0,2,0,0,1,1
1480686694057050,-2,1,-1,-2,-1,-2,-1,-2
1480686694057050,-1,0,-1,1,2,3,0,-1
1480686694072090,0,-3,-1,-1,1,-1,0,-2
1480686694072090,-2,-1,0,1,1,1,1,1
1480686694073594,-1,-1,-1,-4,-2,0,-2,1
1480686694073594,-1,0,0,-1,-3,-1,0,0
1480686694094651,-1,1,-1,1,-1,0,0,0
1480686694094651,-1,0,0,0,-5,-1,-4,-1
1480686694117713,-1,0,0,0,0,-1,0,-1
1480686694117713,-1,-1,-1,4,0,-1,-6,-3
1480686694118213,0,2,0,-2,-2,-2,-1,-1
1480686694118213,-1,-4,-1,-2,-1,-1,-1,0
1480686694119717,-2,1,-1,0,0,0,0,1
1480686694119717,0,-2,-2,0,-1,0,0,0
1480686694139269,-1,0,-1,1,-2,-3,-2,-1
1480686694139269,1,1,-3,-8,0,0,0,0
1480686694140778,1,0,0,0,1,0,1,-1
1480686694140778,0,0,-1,-2,-2,-3,-2,-2
1480686694154810,-1,0,-1,0,0,0,0,1
1480686694154810,-1,-1,0,1,-1,-1,-1,-2
1480686694156816,0,0,-2,0,2,0,-1,0
1480686694156816,-1,-1,0,0,-1,-2,-2,-2
1480686694175866,1,1,1,0,-2,0,-1,0
1480686694175866,-1,-1,-3,-1,-2,0,0,-1
1480686694184390,-2,0,-1,-1,0,-1,-1,-2
1480686694184390,-1,-3,-1,-2,-1,0,-1,0
1480686694206948,0,-1,-1,-2,-2,-1,-2,-1
1480686694206948,-2,0,0,3,-1,-1,-6,-2
1480686694208452,0,-2,0,-1,0,0,-2,0
1480686694208452,0,0,-1,-2,-1,-1,1,0
1480686694230010,-1,-2,-2,-2,1,-2,2,1
1480686694230010,-1,0,0,0,0,-1,1,-1
1480686694231514,1,-3,1,5,-2,1,-1,-1
1480686694231514,-3,-3,-4,-3,-1,-1,-1,0
1480686694232517,0,0,0,-4,-3,0,-2,0
1480686694232517,1,1,0,1,0,-1,1,-2
1480686694237029,-1,-1,-3,-3,-3,-2,-2,0
1480686694237029,2,1,2,2,4,2,1,0
1480686694252068,0,-1,-1,3,0,1,0,0
1480686694252068,0,0,1,-4,-1,0,0,1
1480686694253573,-2,0,1,1,-1,-2,0,-2
1480686694253573,-2,-3,-2,-4,-1,0,-1,-1
1480686694274629,-1,1,-3,-2,0,-1,0,-1
1480686694274629,-1,-2,0,5,2,-2,-5,-3
1480686694276634,0,-1,1,-2,-1,-1,1,0
1480686694276634,0,0,1,-1,-2,-1,-1,1
1480686694297690,-1,-1,1,-1,0,0,0,-1
1480686694297690,-1,1,-4,2,4,1,2,0
1480686694299194,-1,-2,-1,-4,-1,1,-1,-1
1480686694299194,-2,2,-1,-1,1,0,1,-1
1480686694312730,0,-2,-1,-1,-1,-2,0,0
1480686694312730,-1,-1,0,0,-3,0,0,0
1480686694314234,-1,-1,-2,-1,0,0,-1,-1
1480686694314234,0,0,0,-1,-4,-2,0,-1
1480686694334288,-1,1,-1,1,0,2,0,-1
1480686694334288,-2,-7,-3,-2,-1,-4,0,0
1480686694335792,1,1,-4,3,1,0,1,1
1480686694335792,0,0,0,-2,-4,-3,-1,-1
1480686694373391,-2,-1,-1,0,0,0,0,0
1480686694373391,-1,3,2,-1,-1,1,0,1
1480686694374895,-1,-1,0,0,-2,-2,-4,-3
1480686694374895,-1,1,0,2,0,0,0,0
1480686694375898,0,-1,-3,-2,-2,-2,-1,-1
1480686694375898,-1,1,-1,-3,-2,-1,3,1
1480686694396453,-2,-1,0,-3,-1,-1,0,-1
1480686694396453,-1,1,0,1,0,1,-1,0
1480686694397456,-2,-2,-1,-2,-1,-2,0,-1
1480686694397456,0,0,1,4,-2,0,0,0
1480686694400463,0,0,0,-1,1,0,-1,1
1480686694400463,0,0,-3,0,-1,-1,-1,1
1480686694417007,-1,-1,-1,0,0,1,1,-2
1480686694417007,-1,-1,0,-1,-3,-2,-2,-1
1480686694418511,1,-1,-3,0,3,1,-1,-1
1480686694418511,-1,-1,-1,-1,0,-1,0,-1
1480686694432048,-1,-1,0,-1,0,-2,-1,0
1480686694432048,0,-1,-2,-1,-2,-1,-1,1
1480686694433551,-1,-1,0,-2,-4,-1,0,1
1480686694433551,1,-2,-1,2,0,-1,1,-1
1480686694455108,1,-2,-2,-1,1,1,-2,-2
1480686694455108,0,0,1,-2,-1,0,0,-2
1480686694460626,0,0,-1,-1,0,0,0,-2
1480686694460626,-1,-1,-1,-1,0,-2,-1,0
1480686694484186,0,2,0,3,-1,0,0,1
1480686694484186,1,-2,0,1,-1,0,2,5
1480686694486192,-2,0,-1,-6,-1,-1,-2,-13
1480686694486192,-1,-5,-2,-1,-2,-1,0,-1
1480686694506746,-3,1,-2,-3,-2,-3,-2,0
1480686694506746,-2,-1,-1,1,1,-1,0,-1
1480686694508250,-1,1,1,1,-2,0,0,5
1480686694508250,0,0,-1,0,0,-1,-2,-3
1480686694514267,0,-2,-1,1,0,-1,-1,-2
1480686694514267,0,-2,-3,-7,-1,-1,-1,0
1480686694516273,0,-1,-2,0,-2,0,2,0
1480686694516273,0,-2,-1,-2,-1,-2,-1,0
1480686694536826,1,0,-2,1,-2,-2,-2,0
1480686694536826,-1,0,-1,0,1,0,-2,-2
1480686694538330,0,-1,0,0,2,-2,2,5
1480686694538330,-3,0,1,0,-2,-1,-2,-12
1480686694551866,0,0,-2,1,-1,-1,-1,0
1480686694551866,-1,-1,0,-4,0,-2,-2,-1
1480686694557882,-2,-4,1,3,0,0,-2,-4
1480686694557882,1,0,-1,-6,-1,0,2,7
1480686694574927,0,-3,0,-1,1,-1,0,-2
1480686694574927,-1,1,0,1,0,0,-1,-4
1480686694576432,0,1,-1,0,-1,0,-1,5
1480686694576432,0,-1,0,-1,-1,-1,-2,0
1480686694596987,-1,-3,1,1,1,0,0,-2
1480686694596987,-1,0,0,2,2,1,2,2
1480686694598490,1,0,1,-1,-2,0,1,-1
1480686694598490,0,0,-1,0,-1,1,0,1
1480686694618544,0,-1,0,-1,-1,0,-1,1
1480686694618544,-2,-3,0,1,-2,-2,0,-1
1480686694627066,-1,0,0,-1,-2,-3,-6,-2
1480686694627066,-2,-2,-2,0,-1,1,0,0
1480686694649125,-1,-3,-1,-3,-2,-1,0,0
1480686694649125,1,-1,-2,-2,-4,0,1,1
1480686694652635,0,0,0,1,3,1,1,1
1480686694652635,0,1,1,1,0,-1,-1,1
1480686694656645,0,0,-1,1,-2,-1,-1,-1
1480686694656645,0,0,-1,-4,-1,-1,-2,-1
1480686694671685,0,-1,-1,-2,-3,-2,1,0
1480686694671685,1,1,2,4,2,1,0,0
1480686694672688,0,0,1,-2,-2,-1,0,0
1480686694672688,-1,1,-2,-1,1,-1,-1,-3
1480686694695248,-1,-1,-2,-1,-2,-1,1,-1
1480686694695248,0,0,-1,1,0,-2,0,1
1480686694695748,-2,-1,1,-3,-3,0,-1,-1
1480686694695748,-1,-3,0,0,1,-1,0,1
1480686694697253,-2,-1,-1,2,2,0,-3,-2
1480686694697253,-1,-1,-1,-3,-3,-2,0,0
1480686694717305,0,-1,-3,-1,0,0,0,-1
1480686694717305,0,0,1,1,0,-1,0,0
1480686694739867,-1,-1,-1,0,-3,-3,1,1
1480686694739867,-1,0,-1,-1,0,-4,-1,-2
1480686694740869,-1,0,-2,-2,-1,-2,-1,0
1480686694740869,-1,0,-2,1,-1,-1,0,0
1480686694742373,2,0,-1,-1,1,-1,0,1
1480686694742373,-2,-2,-1,4,1,0,-1,-2
1480686694761925,-2,-2,-1,-11,1,0,-2,1
1480686694761925,1,2,-2,4,0,-1,0,0
1480686694763430,-2,-2,-1,-3,-3,-2,-2,0
1480686694763430,0,0,-2,-2,-1,2,-1,4
1480686694784987,1,1,-1,3,0,0,1,-1
1480686694784987,-2,-1,-1,1,-2,-2,-2,-1
1480686694786490,-1,-2,-1,-2,0,0,-1,-2
1480686694786490,-1,-1,0,0,0,1,-1,1
1480686694791003,-1,-2,-1,5,-3,-1,-1,-1
1480686694791003,0,0,-3,-3,1,-2,-1,-3
1480686694805541,2,1,-1,1,1,2,2,8
1480686694805541,-2,-1,-1,-2,-1,-1,-3,-19
1480686694829610,-1,0,-1,0,-1,-1,-1,4
1480686694829610,-2,-1,0,-1,0,0,0,-1
1480686694831109,-1,0,-1,0,0,-3,-2,0
1480686694831109,-2,-3,-3,-3,-2,-1,-1,1
1480686694836624,0,0,-1,2,2,1,0,-3
1480686694836624,1,0,1,2,-2,1,0,-1
1480686694838630,-1,-1,-4,-10,1,1,-1,-3
1480686694838630,1,-1,3,1,-2,-2,0,2
1480686694850660,-1,0,-3,0,-3,-2,-1,-2
1480686694850660,-1,-2,-2,1,3,1,-1,1
1480686694859686,-1,0,0,2,0,2,-1,-2
1480686694859686,-2,-3,-3,-2,-1,-2,-1,1
1480686694881744,-1,-2,0,0,-1,-2,-1,-2
1480686694881744,-1,-1,1,-3,-1,1,0,3
1480686694883248,-1,0,0,0,-2,-2,-1,-4
1480686694883248,1,-1,-3,0,0,1,1,2
1480686694897284,0,0,1,0,-2,0,1,0
1480686694897284,0,-2,0,-1,0,0,1,1
1480686694902799,-1,-1,0,0,0,-2,-6,-3
1480686694902799,0,-2,1,0,1,0,0,3
1480686694910320,-1,0,0,2,2,2,-1,-1
1480686694910320,-1,-1,-3,-9,-1,-1,0,-2
1480686694926864,-1,-1,1,-1,-4,0,2,0
1480686694926864,-1,-1,0,0,-6,-2,-3,-1
1480686694933380,-2,-1,1,-3,3,-1,-1,-1
1480686694933380,0,1,0,2,1,0,2,-2
1480686694949423,0,-1,-2,3,0,-1,1,-2
1480686694949423,2,-1,0,-1,-1,1,1,0
1480686694964463,-1,-1,-1,0,0,-1,-1,-2
1480686694964463,0,-2,2,-4,-2,-1,-1,0
1480686694965968,-2,0,0,0,-2,0,-1,-3
1480686694965968,-2,1,-2,-2,1,2,0,0
1480686694970479,0,-1,0,-2,-1,-2,-1,1
1480686694970479,-1,0,-4,-2,-1,0,-4,-4
1480686694987023,0,-1,-1,0,0,1,1,5
1480686694987023,-2,1,-1,-3,-1,-2,1,-2
1480686694994545,0,1,0,-1,1,-1,-1,-1
1480686694994545,-1,0,1,5,-2,-2,-1,-1
1480686694996055,0,-2,-3,1,1,1,1,-1
1480686694996055,0,0,1,-1,2,0,0,0
1480686695017604,-1,-1,0,-2,-2,0,-2,-1
1480686695017604,1,1,1,1,4,0,0,-1
1480686695019111,0,2,-1,1,0,-1,0,-2
1480686695019111,-1,-2,-1,-2,1,0,0,0
1480686695031140,0,1,-1,-3,-2,0,0,-1
1480686695031140,-3,-3,-1,1,-1,-1,-1,-2
1480686695039663,-1,-3,-1,-2,-1,-2,-1,-1
1480686695039663,0,1,-3,-2,2,-1,-1,-1
1480686695061724,0,2,1,2,1,-1,1,1
1480686695061724,0,0,2,-1,-2,0,-1,0
1480686695063226,-2,-1,-2,-4,0,-2,-1,-2
1480686695063226,-2,-1,-1,2,-2,-1,0,-1
1480686695084282,-2,-3,-4,-4,1,0,-2,-1
1480686695084282,0,-1,0,2,2,0,1,0
1480686695085786,-1,-2,0,-11,-1,-2,-1,-2
1480686695085786,0,1,1,2,-3,-1,-1,-1
1480686695090799,-1,-1,-1,4,0,2,-1,-2
1480686695090799,0,-1,-2,-2,0,-1,1,0
1480686695106842,0,2,1,2,-1,2,0,1
1480686695106842,0,0,-2,-1,-3,-2,-8,-5
1480686695113358,0,-1,0,-2,-2,-2,0,-1
1480686695113358,-1,1,-1,1,-1,-1,0,-1
1480686695137436,-1,-2,-1,1,-2,0,1,7
1480686695137436,-2,0,0,-2,-1,0,-1,-13
1480686695138426,-2,-1,0,0,-3,-1,-1,0
1480686695138426,-1,-1,1,-1,0,-1,0,1
1480686695139930,0,1,-2,0,0,0,-1,-1
1480686695139930,1,2,1,1,-1,-1,1,4
1480686695159481,0,-2,0,0,1,0,1,-1
1480686695159481,-1,1,-1,-1,-2,-1,-1,-3
1480686695160990,0,0,-1,-1,1,-2,0,-1
1480686695160990,-1,0,0,-1,-3,0,1,1
1480686695173519,0,-1,-1,5,1,-2,-1,-3
1480686695173519,1,0,-1,-6,-3,-2,-1,-1
1480686695180537,-2,-1,-1,3,0,-1,-2,-4
1480686695180537,1,1,1,0,3,0,0,1
1480686695205103,-1,-1,0,-3,-3,0,-1,1
1480686695205103,-1,-1,-2,1,1,0,-1,0
1480686695206607,-1,-1,0,1,-1,-1,-2,-3
1480686695206607,-1,0,0,-3,1,0,1,2
1480686695210618,0,-2,-2,0,-2,0,-1,0
1480686695210618,0,-2,-2,-2,-1,0,-2,-2
1480686695225658,0,0,1,1,-1,0,-1,-1
1480686695225658,-1,-3,-1,-2,-1,-1,0,0
1480686695249220,-2,0,0,1,0,0,1,0
1480686695249220,0,-1,1,-1,-1,0,1,0
1480686695251226,0,0,-1,-2,0,0,2,-1
1480686695251226,1,-1,-1,0,-2,-3,-7,-2
1480686695257743,0,-1,-1,1,0,-2,-2,-1
1480686695257743,0,-1,0,-4,0,0,-2,-1
1480686695270778,0,1,4,5,0,2,0,-2
1480686695270778,-3,-3,-6,-9,0,0,1,2
1480686695295844,0,-1,-2,-2,-1,-1,0,0
1480686695295844,-1,-1,-1,1,-2,-3,0,1
1480686695297348,1,0,0,0,-1,0,-1,-3
1480686695297348,1,1,1,2,-1,1,0,0
1480686695298351,-1,0,1,-3,-1,-1,0,-3
1480686695298351,-1,-1,-3,-2,-2,0,1,-2
1480686695318906,-2,0,-2,-1,-1,0,-1,-2
1480686695318906,1,-1,1,2,-2,0,1,1
1480686695319909,1,0,-1,-3,2,1,0,0
1480686695319909,-1,1,1,2,-1,-1,0,0
1480686695340468,0,-1,-1,1,0,-1,-1,1
1480686695340468,0,-1,1,0,2,1,1,1
1480686695340965,1,0,-2,-3,0,-1,-1,0
1480686695340965,0,0,0,-8,-2,0,-1,-2
1480686695342469,0,-3,-4,0,-2,0,0,0
1480686695342469,-1,-2,-2,-1,0,0,1,0
1480686695362022,-2,1,-1,1,-3,1,-3,-1
1480686695362022,0,0,1,1,1,0,0,-1
1480686695363525,-2,-3,-3,-4,0,-3,-1,1
1480686695363525,1,1,0,2,-2,1,1,0
1480686695384579,-1,-3,-2,0,-1,-1,1,0
1480686695384579,1,-1,-2,0,-1,0,-2,-1
1480686695386084,2,0,0,-1,0,0,1,2
1480686695386084,-1,1,0,1,-1,-1,0,-1
1480686695416165,-1,-1,-1,-1,-1,1,-3,-1
1480686695416165,0,-1,-1,1,1,-2,-1,-1
1480686695417668,0,0,-1,1,1,-1,-2,-2
1480686695417668,1,0,1,0,0,0,1,0
1480686695418671,0,-1,1,-1,-2,-1,0,1
1480686695418671,1,0,0,-2,0,2,-1,-1
1480686695438724,-2,0,1,-2,-1,0,-2,-2
1480686695438724,-2,-1,-4,-2,0,-2,0,-1
1480686695439727,-2,0,-1,1,-1,-3,-1,-1
1480686695439727,0,1,-1,2,-1,0,0,-1
1480686695442735,-1,-2,-2,-1,-1,-2,0,-1
1480686695442735,-1,0,-1,-1,-1,-1,-1,-2
1480686695459280,1,-1,-4,-1,0,1,0,0
1480686695459280,0,-3,-3,1,1,-1,1,2
1480686695460786,-2,0,-1,-3,-1,-1,-1,0
1480686695460786,-1,1,1,0,-1,-2,0,0
1480686695481839,1,-1,-1,-1,-2,-3,-1,-1
1480686695481839,-1,0,2,1,-2,1,-1,-1
1480686695483343,0,-2,0,1,1,2,-2,-1
1480686695483343,0,-1,0,2,1,0,-2,0
1480686695496378,-1,-2,-2,-1,0,0,0,-1
1480686695496378,-1,0,0,0,-2,-1,0,-1
1480686695504399,1,-1,1,0,1,1,-1,0
1480686695504399,1,0,-3,-5,-1,-1,0,-1
1480686695519438,0,-1,1,4,-1,1,-1,0
1480686695519438,-2,-1,-2,1,5,2,0,-1
1480686695520943,0,0,0,1,1,0,-1,-2
1480686695520943,0,-1,0,-1,-2,0,-1,-2
1480686695533476,0,1,1,0,0,0,2,1
1480686695533476,1,0,0,0,-1,-2,-1,1
1480686695540503,-3,-1,-3,-1,-3,-2,-3,-3
1480686695540503,-1,-1,-1,-1,-2,-1,0,-1
1480686695564559,-1,0,0,-3,1,1,1,0
1480686695564559,1,0,-1,-1,-3,-1,0,0
1480686695566064,0,-1,1,0,-1,-1,2,2
1480686695566064,-3,0,-2,0,0,0,0,-1
1480686695595642,0,0,0,-3,0,0,1,0
1480686695595642,-1,-3,-1,-1,-3,-2,-1,0
1480686695597145,0,-2,-2,-2,-1,0,0,-1
1480686695597145,0,0,-1,1,1,0,-1,1
1480686695598148,-2,0,0,1,2,0,-1,-3
1480686695598148,-2,-1,2,4,-2,-2,-1,-1
1480686695619204,-1,-1,-4,-10,-3,-2,-1,-1
1480686695619204,-1,-1,1,-1,-1,-1,1,0
1480686695619706,0,-1,1,0,-1,0,-1,0
1480686695619706,-2,-1,0,1,-3,0,-1,-1
1480686695639759,-1,-2,2,4,2,1,0,0
1480686695639759,-1,-1,-3,-1,1,0,-2,-2
1480686695640765,0,-1,-1,-3,-1,-4,-2,0
1480686695640765,-1,0,1,0,1,-1,0,-1
1480686695642267,-1,1,-1,-1,-2,-1,0,0
1480686695642267,0,-1,0,-1,-1,-1,1,-1
1480686695661818,-1,-1,0,1,-1,0,0,-1
1480686695661818,1,0,0,-3,0,0,0,-2
1480686695663322,1,1,1,0,-1,0,0,0
1480686695663322,-1,-2,-1,-1,-1,-2,-3,0
1480686695683375,-2,-1,-1,-2,-1,-1,-2,-1
1480686695683375,0,0,-1,0,-2,-1,-1,-1
1480686695692399,1,0,1,0,-2,0,0,-1
1480686695692399,-2,0,-2,0,-2,-1,-2,0
1480686695699417,-1,-1,1,0,0,1,0,0
1480686695699417,-1,1,0,-2,2,1,-2,1
1480686695700923,-3,-3,-3,4,-1,-2,-3,-1
1480686695700923,-1,-1,-1,3,-1,0,0,0
1480686695713454,1,2,-1,-6,0,-2,-2,-1
1480686695713454,-1,1,0,0,-1,-1,-1,-2
1480686695720473,0,1,0,-2,0,0,-1,-1
1480686695720473,-1,1,1,1,1,1,0,-2
1480686695737017,-1,-1,-2,0,-1,0,0,-1
1480686695737017,2,1,-1,-2,-1,-1,-2,1
1480686695738521,0,-1,0,-2,-2,-2,-1,0
1480686695738521,-1,-2,-1,-3,-3,-1,1,0
1480686695760079,0,0,-2,0,-1,-1,-1,0
1480686695760079,-1,-1,-2,-4,-1,-1,-1,0
1480686695761587,0,1,-3,1,-2,0,0,0
1480686695761587,0,-2,0,-1,0,-1,-1,-1
1480686695773113,-1,-2,1,0,-1,1,-2,-2
1480686695773113,-1,-1,-2,-1,-1,-1,1,0
1480686695782137,-1,0,-1,-1,0,-2,0,-1
1480686695782137,2,0,1,1,0,-1,-2,0
1480686695804196,-2,1,1,4,-2,-2,0,-1
1480686695804196,-1,-2,-4,2,0,-1,-1,0
1480686695806201,-1,-1,0,-2,1,-2,-2,0
1480686695806201,0,-2,2,1,1,1,0,0
1480686695819236,-2,0,-5,-1,-2,-3,0,-3
1480686695819236,1,0,-2,1,2,0,0,0
1480686695821242,-1,-1,-1,-1,-2,-1,-1,-1
1480686695821242,-3,-1,0,-1,-3,0,-2,-1
1480686695849316,-1,0,0,-1,0,-1,-1,0
1480686695849316,0,-3,0,-1,0,0,-1,-1
1480686695850820,0,0,0,0,0,-1,-1,-1
1480686695850820,-1,2,-3,-1,-2,-2,0,0
1480686695871876,1,-1,-1,-3,2,1,0,-1
1480686695871876,-3,-1,-1,-2,-3,-1,0,-1
1480686695873380,0,-2,-1,0,0,0,0,0
1480686695873380,-1,0,-1,-3,0,0,0,1
1480686695894937,-1,-1,-2,1,-2,-1,-1,1
1480686695894937,-1,-1,0,-1,0,-1,0,0
1480686695896443,-2,-1,0,0,1,1,0,0
1480686695896443,-2,-1,-1,1,0,-1,-1,-1
1480686695897444,1,0,3,2,-1,-1,-2,1
1480686695897444,1,-1,-2,-10,0,0,-1,-2
1480686695917497,1,-3,-2,0,-1,-1,0,-1
1480686695917497,0,1,-1,-2,0,1,-1,0
1480686695918500,-2,0,-1,0,-1,1,-1,0
1480686695918500,-1,0,0,2,-2,-1,-1,0
1480686695920004,0,0,0,-2,0,0,0,0
1480686695920004,1,0,-1,-3,2,1,-1,-1
1480686695939556,-1,-2,0,0,0,0,2,-1
1480686695939556,-1,0,-1,1,1,-2,0,0
1480686695941060,-1,-2,-2,-3,-3,-1,-1,-2
1480686695941060,-1,0,-1,0,-1,1,0,-1
1480686695969135,0,-1,0,-4,-1,-1,0,-1
1480686695969135,0,-1,0,-2,0,-1,-1,0
1480686695971140,-3,0,-1,1,1,0,0,-1
1480686695971140,-2,-2,1,-1,0,-1,-1,1
1480686695976655,0,1,0,-2,0,-1,0,0
1480686695976655,-1,-2,0,1,0,-2,1,-1
1480686695990692,-2,0,0,-1,0,-3,-1,2
1480686695990692,-1,-1,-2,0,-3,-2,0,-1
1480686695998215,-1,0,-2,1,0,-1,0,-1
1480686695998215,-1,-1,-1,-1,-3,0,-1,-1
1480686696007236,0,1,0,0,0,-2,-1,0
1480686696007236,-1,-1,0,0,1,0,0,0
1480686696012751,-2,-1,0,-1,-2,1,-1,-1
1480686696012751,-2,-3,-2,3,-2,0,0,0
1480686696038820,0,2,0,0,1,1,0,-2
1480686696038820,0,0,0,-2,0,-1,0,0
1480686696039823,0,-3,0,3,-1,-1,-1,0
1480686696039823,0,0,1,-1,-2,-1,-1,-1
1480686696042831,0,0,1,1,-1,0,-1,0
1480686696042831,-1,1,-3,2,1,-1,-1,-2
1480686696059876,-2,-2,-2,-5,1,0,-1,0
1480686696059876,-1,0,-2,-1,-1,0,0,-1
1480686696061380,-1,0,0,-1,1,1,-1,-2
1480686696061380,-1,-1,1,2,-2,-1,0,-2
1480686696072913,0,1,-3,0,2,-1,1,-1
1480686696072913,0,-1,-1,0,-2,-1,0,-2
1480686696081934,2,0,0,-1,0,1,0,0
1480686696081934,1,0,0,0,-3,-1,0,1
1480686696104494,-2,-3,1,-1,2,1,-1,-1
1480686696104494,-1,3,0,-1,-1,-1,-2,-1
1480686696106500,-3,-4,-4,-2,-1,-1,-1,-2
1480686696106500,-1,3,0,-1,0,0,-2,-1
1480686696119535,0,0,0,-2,-1,-2,0,-1
1480686696119535,0,1,1,0,0,1,0,0
1480686696127058,0,-1,-2,4,-2,0,0,-1
1480686696127058,-1,-3,-4,-7,-1,2,-1,0
1480686696149113,1,0,-1,0,-2,-1,-1,1
1480686696149113,0,0,-1,-1,1,-2,0,-1
1480686696151119,1,0,-1,-1,-2,-3,-1,0
1480686696151119,0,-1,-1,1,1,0,0,0
1480686696171673,-1,0,-1,-1,-2,0,-1,-1
1480686696171673,0,-2,0,-2,-1,-1,-1,0
1480686696173679,-1,1,1,1,-1,0,-1,-1
1480686696173679,1,-1,0,0,1,-1,-1,0
1480686696194735,0,-1,-2,-3,1,0,-1,-1
1480686696194735,0,0,1,2,1,0,1,-1
1480686696196740,0,0,-2,-3,-1,0,0,0
1480686696196740,-2,-1,0,1,-3,-1,-2,-2
1480686696197241,-1,0,-1,0,-2,-2,1,1
1480686696197241,0,-1,-3,-1,1,1,-1,-1
1480686696201754,0,0,2,-1,0,1,-1,0
1480686696201754,0,-2,-1,-2,-1,-3,-2,-1
1480686696216793,-1,0,-1,-2,0,-1,-1,0
1480686696216793,1,-3,-1,0,-1,-3,-1,0
1480686696220303,-1,-2,0,-1,0,1,-1,-1
1480686696220303,1,2,-1,2,1,0,2,-2
1480686696247375,-1,-1,-3,1,0,0,-1,-1
1480686696247375,1,0,2,0,0,0,-1,0
1480686696248881,-2,-1,-2,-4,0,0,-2,0
1480686696248881,0,-1,-1,-1,-2,-3,0,-1
1480686696262415,2,0,1,2,1,1,3,-1
1480686696262415,-1,-1,-1,-4,-3,0,-1,0
1480686696263919,-1,1,-1,0,-1,-2,1,-1
1480686696263919,-2,-2,-2,-1,0,0,0,0
1480686696276958,0,0,-1,0,-2,-1,-1,1
1480686696276958,-2,-1,-4,0,2,1,0,-1
1480686696278457,0,-1,0,0,-2,-2,0,0
1480686696278457,0,0,2,-1,0,-1,0,1
1480686696299513,0,0,1,-2,0,0,-1,-1
1480686696299513,0,-2,-1,3,0,0,-1,0
1480686696301018,0,-1,-1,1,-1,1,0,0
1480686696301018,-1,0,-2,-11,-1,-1,-1,1
1480686696322075,0,-1,1,-1,-3,-1,-2,1
1480686696322075,-1,-1,0,-1,0,-1,0,0
1480686696324078,0,0,-1,3,0,-1,-1,0
1480686696324078,-1,0,0,0,-2,0,-1,-2
1480686696337114,0,-2,-2,-1,0,0,-1,-1
1480686696337114,-1,-1,0,-5,-4,-1,-2,0
1480686696339119,0,-1,-2,1,-2,-1,-1,-2
1480686696339119,0,0,2,2,-2,-2,0,0
1480686696359173,-2,0,-2,-1,1,0,0,0
1480686696359173,0,-1,-1,-1,-3,-1,0,-2
1480686696361178,-2,-2,-3,-3,-1,-1,-1,-1
1480686696361178,0,0,0,0,0,1,-1,0
1480686696381732,-1,-2,-1,1,-2,-2,0,-2
1480686696381732,0,1,-2,0,0,0,-1,-1
1480686696383235,0,1,1,-1,1,-1,-1,0
1480686696383235,1,-2,0,1,0,-1,0,0
1480686696404293,-2,0,-1,1,-1,-1,1,0
1480686696404293,-1,-1,-1,-2,0,-1,0,1
1480686696405797,-2,1,0,-1,-1,0,0,-1
1480686696405797,-1,-3,0,3,0,1,0,1
1480686696426852,0,0,-1,-3,0,-1,-1,-2
1480686696426852,0,0,0,0,0,0,1,-1
1480686696428356,0,-3,-1,-1,-1,-1,0,-1
1480686696428356,-2,1,-1,0,-1,-1,0,0
1480686696449913,0,0,0,-2,-1,-1,0,1
1480686696449913,-2,-3,-2,0,2,0,-2,-1
1480686696451417,-1,0,0,0,0,2,-1,0
1480686696451417,0,0,-1,-1,-1,-1,0,0
1480686696471971,-2,0,0,0,-2,-1,0,-1
1480686696471971,-1,-1,0,-1,-2,0,-1,-1
1480686696473476,0,0,-1,1,0,-1,0,-1
1480686696473476,1,1,1,0,0,-2,-2,-2
1480686696479492,0,-1,-2,-3,-1,-1,-1,-1
1480686696479492,0,1,1,1,1,-1,-1,0
1480686696480996,-2,-3,-2,2,-3,-3,0,-2
1480686696480996,-1,-1,-2,-2,1,-2,0,-1
1480686696502052,0,-1,2,3,1,1,-1,-2
1480686696502052,0,1,-1,1,0,0,-2,0
1480686696503556,1,0,-1,-4,4,0,-1,0
1480686696503556,-1,1,0,1,0,0,0,0
1480686696517092,0,1,0,-2,-2,-2,-1,0
1480686696517092,-1,-1,2,3,0,0,0,0
1480686696530628,0,0,-1,-1,-2,0,0,0
1480686696530628,-1,-2,-2,-3,0,0,0,-1
1480686696540154,0,1,-1,2,0,0,-1,0
1480686696540154,0,0,-2,-3,0,-1,-2,-1
1480686696541657,0,-1,-3,-2,-1,-1,0,-1
1480686696541657,-1,-1,-1,1,-1,0,1,1
1480686696561714,0,-4,0,0,-1,-1,-2,0
1480686696561714,2,-1,-2,-3,-2,0,-2,0
1480686696563215,-1,0,0,-1,0,0,-1,0
1480686696563215,-1,-1,-1,2,2,1,0,0
1480686696576249,-1,0,-1,2,-1,0,-1,-1
1480686696576249,-1,-4,-2,-2,-3,0,0,2
1480686696590307,1,1,1,2,0,1,-1,-1
1480686696590307,-2,-1,-1,1,0,1,0,-1
1480686696598308,1,1,-2,-7,-1,-1,-1,-1
1480686696598308,-2,0,1,0,-1,0,1,-1
1480686696615354,0,-2,-1,0,-2,-1,0,0
1480686696615354,-1,1,0,1,1,0,-1,-1
1480686696621870,-1,-2,-2,0,0,-1,-1,1
1480686696621870,1,1,1,2,-2,-1,1,-1
1480686696623375,-3,-1,-1,-2,1,0,0,-1
1480686696623375,-1,-2,-2,0,-3,-2,0,-1
1480686696636409,-2,-2,-2,-3,-2,-2,-2,0
1480686696636409,-1,1,-3,1,0,-1,0,0
1480686696642926,1,2,0,1,1,0,0,-1
1480686696642926,-1,-3,-2,-3,-2,-1,-1,-3
1480686696659472,0,0,0,3,1,2,2,-1
1480686696659472,-2,-3,-1,0,-1,-1,0,-1
1480686696661477,1,2,-1,3,1,-1,1,0
1480686696661477,0,-4,-1,-1,-2,0,0,0
1480686696682030,1,-1,-3,-3,-1,0,-1,0
1480686696682030,-3,0,-4,-4,0,0,0,-2
1480686696684036,-1,-3,-1,-3,-3,-2,-2,-1
1480686696684036,1,-1,0,0,-1,-1,-2,0
1480686696704590,0,1,1,2,-2,0,-1,0
1480686696704590,-1,-1,-1,-1,-1,0,1,2
1480686696706597,2,2,0,-2,-1,0,0,-2
1480686696706597,1,1,2,1,2,1,0,-1
1480686696726650,-3,-4,-2,1,1,-1,0,-2
1480686696726650,-1,0,-4,-2,-1,-2,-2,-1
1480686696728655,-2,-4,0,-3,-2,-4,-3,-2
1480686696728655,0,0,0,0,0,-1,-1,0
1480686696749209,0,1,0,-3,1,0,1,-1
1480686696749209,-1,0,-1,-2,-3,1,0,1
1480686696750713,0,-1,0,0,-2,-1,-1,-1
1480686696750713,1,1,-2,-3,-2,-1,-1,0
1480686696755225,0,0,-2,0,0,0,-1,1
1480686696755225,2,1,1,2,1,1,1,1
1480686696773775,-2,-4,-2,-4,1,0,0,-1
1480686696773775,-2,2,0,0,-2,-2,-1,-1
1480686696779289,-1,-4,-1,-3,-1,0,0,1
1480686696779289,1,-1,1,0,1,-2,-1,-1
1480686696780793,1,1,-2,2,-2,0,0,1
1480686696780793,0,0,-3,-2,0,0,-2,-1
1480686696801850,-1,-1,0,-1,-1,-3,-1,-2
1480686696801850,0,-1,0,-1,-2,-2,1,-2
1480686696803353,-2,0,0,-1,0,0,-2,-1
1480686696803353,0,0,-3,-1,-4,-1,0,-1
1480686696815385,-1,0,2,3,0,1,-1,0
1480686696815385,1,-1,-1,-3,3,0,-1,0
1480686696824409,1,0,-1,-1,-2,-1,-1,1
1480686696824409,-1,-4,-1,-1,-2,-1,0,0
1480686696839449,0,0,1,-2,0,-1,-1,0
1480686696839449,-1,0,-2,-1,-1,-1,-2,-1
1480686696841454,-1,1,0,0,-1,2,1,0
1480686696841454,0,1,-1,-1,0,0,1,0
1480686696869529,-1,-2,1,0,-2,-1,1,0
1480686696869529,-2,-2,0,0,-1,0,0,-2
1480686696871033,1,-2,1,-3,-1,-1,1,-1
1480686696871033,0,0,-2,-2,1,0,-1,-1
1480686696875545,-2,0,-2,-1,0,1,0,-1
1480686696875545,-1,0,0,1,1,-1,1,-2
1480686696893095,-1,-3,0,1,-1,-1,-1,1
1480686696893095,0,1,0,-2,0,-1,0,-1
1480686696899108,-1,-2,-4,-3,-2,-2,-1,-2
1480686696899108,-1,0,-1,1,0,-1,-1,0
1480686696901114,1,0,-1,-2,-1,-2,0,1
1480686696901114,0,0,1,1,0,-2,0,-2
1480686696921667,-1,-2,-2,-2,-2,0,0,-1
1480686696921667,-1,-3,-1,-1,-2,-2,-2,0
1480686696923674,-1,-1,0,0,-1,1,1,-1
1480686696923674,0,-1,-1,0,2,1,0,0
1480686696935705,-1,-1,-1,-1,-1,-2,-1,0
1480686696935705,0,-3,0,2,-1,0,0,0
1480686696961778,0,-4,-2,-1,-1,-3,-2,-2
1480686696961778,0,-1,-1,0,-1,-3,-1,1
1480686696962275,1,2,-1,0,-1,-1,-1,-1
1480686696962275,0,-1,2,-1,1,2,1,-1
1480686696982329,1,0,-4,1,-1,-1,-2,-1
1480686696982329,-1,-3,-2,0,-1,1,0,-2
1480686696983331,0,-1,0,0,-1,-2,-1,1
1480686696983331,-1,-2,1,0,0,-2,0,1
1480686696984836,-1,0,0,-2,-2,0,-2,-1
1480686696984836,0,-2,0,-1,2,1,0,0
1480686697004892,-2,1,-1,1,0,0,-2,-1
1480686697004892,0,0,0,-1,-2,-2,-2,0
1480686697006393,-2,0,0,-1,2,0,0,-2
1480686697006393,0,-1,-2,0,0,-1,-1,-1
1480686697050511,-1,-3,1,0,-1,0,0,-1
1480686697050511,1,1,-2,-2,-1,-1,-1,1
1480686697052516,-1,-1,-1,1,0,-1,1,-1
1480686697052516,0,-1,-1,-2,-4,0,-1,0
1480686697053017,-1,0,-1,-1,-1,-1,1,-4
1480686697053017,-1,0,1,0,-1,0,-1,-2
1480686697074075,-1,-2,-1,-1,-1,0,0,1
1480686697074075,-2,0,0,1,0,-1,0,-1
1480686697075075,0,-1,0,-1,1,0,-1,1
1480686697075075,-1,-2,-4,-3,-2,0,1,-3
1480686697080591,1,0,0,1,2,1,-2,0
1480686697080591,0,-3,-2,-1,-3,0,0,-2
1480686697081092,0,-1,1,1,0,1,0,-2
1480686697081092,-1,2,-2,-5,-1,-1,-1,-1
1480686697085604,0,1,-1,1,-2,-1,-2,-1
1480686697085604,-1,1,-2,0,-2,-1,-2,-1
1480686697101646,0,-3,-1,-1,0,1,-1,2
1480686697101646,0,1,2,2,1,-1,-1,0
1480686697103662,-1,-1,-2,0,2,1,0,0
1480686697103662,-3,-3,0,-3,0,-1,-1,-1
1480686697115683,0,1,0,-1,-1,-2,2,-1
1480686697115683,-1,0,-1,0,-3,-1,0,-1
1480686697124709,-1,-3,0,-2,-1,-2,-1,-2
1480686697124709,1,1,1,0,2,0,0,0
1480686697146767,1,0,-1,-4,-2,-2,-1,1
1480686697146767,-2,-2,-1,2,-1,0,1,0
1480686697148270,-1,-1,-2,-1,-1,0,0,-1
1480686697148270,-1,-1,3,-2,-1,1,0,-1
1480686697162310,-1,-1,1,1,2,0,-1,-1
1480686697162310,1,-3,-3,-4,-1,1,-1,0
1480686697167822,0,0,-1,0,-2,-2,0,-1
1480686697167822,-4,-5,-1,-1,-2,-1,-1,0
1480686697184867,-1,-1,-2,2,0,-2,-2,-1
1480686697184867,-2,-1,-1,1,2,1,0,-1
1480686697190382,0,1,0,0,0,0,0,-1
1480686697190382,1,1,-1,-1,-2,-2,-1,1
1480686697199407,-1,0,0,0,-1,0,1,0
1480686697199407,-1,-2,0,1,-1,0,-1,-1
1480686697205424,0,0,0,-2,1,-1,-3,-2
1480686697205424,-2,0,-1,-1,0,0,-1,0
1480686697237006,2,0,-1,-1,-1,0,1,-1
1480686697237006,-1,1,-1,1,-1,-1,-1,-2
1480686697238510,0,-1,1,-1,-1,0,0,1
1480686697238510,-1,-1,-3,1,0,0,1,-3
1480686697260570,-1,-2,-1,0,-3,-1,0,0
1480686697260570,0,0,-1,-2,-3,-3,-3,0
1480686697262576,-2,0,1,4,1,0,0,1
1480686697262576,-1,0,0,-2,1,-2,0,-2
1480686697263077,0,0,-2,-3,0,0,-2,0
1480686697263077,0,1,-1,0,-2,1,0,1
1480686697285134,-1,-3,-3,-4,-2,-1,0,-2
1480686697285134,0,1,-1,2,-1,0,-1,0
1480686697285636,0,0,-1,-2,0,0,1,0
1480686697285636,-1,1,0,0,1,0,-2,-2
1480686697288143,0,2,-2,-1,-1,0,-1,0
1480686697288143,2,-1,-1,-1,-1,-2,-1,0
1480686697304686,0,0,0,1,0,-3,-1,0
1480686697304686,0,-2,0,-1,0,1,0,-1
1480686697306692,0,1,0,-1,-2,0,0,-1
1480686697306692,0,-3,-1,-3,-3,-2,-1,-1
1480686697327249,-1,-1,1,-1,1,-1,0,0
1480686697327249,-1,-3,-1,-2,2,-1,0,0
1480686697328251,-2,0,-2,-1,0,-3,-1,-1
1480686697328251,-2,-1,1,0,1,-1,-2,-1
1480686697349305,-2,-1,1,-1,-1,-1,-2,-1
1480686697349305,0,1,1,0,0,0,0,0
1480686697350809,-1,-3,-2,0,0,-1,-1,-1
1480686697350809,0,2,1,0,-2,-1,-1,0
1480686697364345,-2,-2,-1,1,1,0,0,-2
1480686697364345,-1,-2,-1,-2,-1,-2,-1,-1
1480686697365849,0,-2,-1,1,0,0,0,1
1480686697365849,0,0,-2,3,0,0,0,0
1480686697378883,-2,-1,0,-2,-3,-1,1,-1
1480686697378883,0,1,0,-2,0,0,-1,-1
1480686697385400,0,0,1,-2,1,0,1,-2
1480686697385400,0,1,0,0,-2,0,0,1
1480686697401946,1,-1,0,0,0,1,0,-1
1480686697401946,0,-2,0,1,-1,-1,0,-2
1480686697403449,0,-1,0,-1,-1,-2,-2,0
1480686697403449,0,0,-2,-2,0,-1,-2,-1
1480686697425007,-1,0,-3,-1,0,-2,-2,-1
1480686697425007,0,0,-2,-2,-2,0,0,0
1480686697426511,-1,1,0,0,0,-2,-1,-1
1480686697426511,0,0,-1,-1,-2,-1,1,2
1480686697447065,-1,-2,-2,-1,-2,0,0,-1
1480686697447065,-1,-1,-2,0,-2,-1,0,0
1480686697448569,-1,-1,-1,-1,-1,1,0,-1
1480686697448569,0,1,1,0,-2,-1,-1,1
1480686697461607,0,1,-2,5,0,-1,0,1
1480686697461607,-1,2,-1,-5,-1,0,0,-1
1480686697463610,-2,-3,-2,0,-3,-2,-1,0
1480686697463610,0,1,0,-1,2,0,-1,-2
1480686697485166,-3,0,0,-1,0,-1,-1,-1
1480686697485166,0,-2,-1,2,-1,0,-1,0
1480686697486670,0,-1,0,0,-3,-1,0,0
1480686697486670,-1,-1,2,1,-2,-1,-1,0
1480686697505720,1,1,-3,-3,-1,1,-2,1
1480686697505720,-1,-1,-2,0,-3,-1,0,-1
1480686697537304,-1,-2,-1,0,0,1,-1,0
1480686697537304,-2,-3,-2,2,2,0,0,0
1480686697538307,0,-1,2,-2,-2,1,0,-1
1480686697538307,-1,0,0,0,0,-2,0,-1
1480686697539811,1,2,0,-2,-1,0,1,-1
1480686697539811,-2,-1,-3,3,2,1,-1,-1
1480686697560871,0,2,-1,-1,-1,1,0,-1
1480686697560871,-1,-3,-1,0,-1,-2,-1,1
1480686697562372,0,-1,-1,-1,2,-1,1,0
1480686697562372,0,0,-1,0,-2,-1,-1,-2
1480686697562874,1,0,0,-4,-1,-2,0,0
1480686697562874,-1,0,0,1,-1,-2,-1,0
1480686697584931,1,2,-1,1,-1,1,-2,-1
1480686697584931,-2,-1,-1,-2,-1,-1,-1,-2
1480686697585935,-2,-2,-2,0,1,-1,-1,0
1480686697585935,0,0,-2,-4,-4,0,0,0
1480686697604984,0,-1,0,-1,1,-1,1,0
1480686697604984,-3,0,-2,-3,-1,-2,-1,-1
1480686697605987,-1,-2,-2,0,-2,-1,0,-1
1480686697605987,-1,2,-1,0,0,0,-1,-2
1480686697607492,1,-1,-1,-2,-2,-2,-1,-1
1480686697607492,-1,-1,-2,-1,1,0,0,0
1480686697619523,0,0,2,1,1,-1,-1,-2
1480686697619523,-2,1,-2,0,4,1,0,-1
1480686697633059,-2,-2,0,0,0,0,-1,-1
1480686697633059,0,1,0,-2,-1,-2,-1,-1
1480686697651107,-1,0,-1,-2,-1,1,-1,1
1480686697651107,1,-2,1,2,-2,1,0,0
1480686697652611,1,1,-1,1,-2,-1,-2,-1
1480686697652611,-1,-3,-1,-2,-3,-1,-1,0
1480686697664142,-1,-3,-3,1,0,-2,0,0
1480686697664142,-1,-2,-1,2,-2,-2,-1,0
1480686697667651,-2,-1,1,1,-2,-1,-1,-1
1480686697667651,1,2,-1,-3,-1,0,-1,-1
1480686697678179,-1,-3,0,0,1,2,0,-2
1480686697678179,1,1,1,0,0,0,-1,-2
1480686697702244,0,0,-1,-1,0,0,0,0
1480686697702244,0,-1,0,-1,-3,0,0,-1
1480686697703246,-1,0,-1,0,-2,-2,0,0
1480686697703246,0,-1,0,-3,0,-2,-1,-2
1480686697704750,-1,-1,-3,-1,-1,1,0,1
1480686697704750,-1,1,-1,-1,1,0,-1,-1
1480686697724807,1,1,-1,-1,0,-1,0,1
1480686697724807,1,-2,-1,0,-2,-1,-1,0
1480686697728313,-1,-1,0,-2,-1,-1,-1,1
1480686697728313,2,-1,-1,0,-1,-1,-1,0
1480686697737838,-1,1,0,-1,0,0,0,-1
1480686697737838,-1,-3,-1,-4,1,0,-1,1
1480686697746862,0,-2,-4,0,-1,-1,0,-1
1480686697746862,-1,-1,0,-1,-2,0,0,-1
1480686697761406,-1,-1,-2,0,-3,-3,-1,-1
1480686697761406,-1,-1,2,0,-1,1,1,-2
1480686697767919,-1,-1,-2,1,1,1,0,1
1480686697767919,0,-2,-1,0,-2,-1,-2,1
1480686697792484,-2,-1,-1,-3,-3,-2,-2,1
1480686697792484,-1,1,-2,0,-1,-1,1,-1
1480686697793991,0,0,1,0,-2,-2,-2,1
1480686697793991,-1,0,1,1,1,2,1,0
1480686697807528,1,0,1,0,0,0,1,0
1480686697807528,-1,-2,-1,-1,0,-2,-1,1
1480686697814542,-2,-3,-2,-3,-2,0,-1,-3
1480686697814542,0,0,-1,1,0,0,-1,0
1480686697837102,0,-1,0,-5,1,1,-1,-2
1480686697837102,-1,2,0,1,-1,0,-2,0
1480686697840611,-1,0,2,0,2,0,0,-1
1480686697840611,0,-1,-2,0,-2,-2,-2,0
1480686697860165,-1,-1,0,1,0,-1,-1,-1
1480686697860165,-1,1,-1,-1,-2,0,-2,-1
1480686697861669,-2,1,-3,-1,0,0,0,-1
1480686697861669,0,0,-1,-4,-1,-1,0,-1
1480686697862670,0,-1,0,3,1,-1,-1,-1
1480686697862670,0,-2,-3,0,0,0,0,0
1480686697882724,-1,1,1,2,0,0,0,0
1480686697882724,0,0,-1,-1,1,0,1,-1
1480686697883226,0,1,-2,-2,-4,-1,-1,0
1480686697883226,-1,-6,1,-3,-1,0,0,-2
1480686697884729,1,-1,2,1,-1,1,0,0
1480686697884729,1,-1,-1,-3,3,-1,0,0
1480686697904782,-2,-3,-1,-1,2,-2,-1,1
1480686697904782,1,2,-1,2,0,0,-2,-1
1480686697906787,0,-1,0,-2,0,-1,-1,0
1480686697906787,-3,-1,0,1,-1,0,1,-2
1480686697926845,1,0,-3,-1,-3,-2,-1,1
1480686697926845,-1,0,1,-2,0,-1,0,0
1480686697928345,-2,-1,-3,-5,-1,0,-1,-1
1480686697928345,0,-2,0,-1,-2,0,-1,0
1480686697941881,0,-1,0,1,0,0,0,1
1480686697941881,-2,-1,-2,-3,-1,0,-1,-2
1480686697943385,-1,1,-1,-1,-2,-1,-1,-2
1480686697943385,-1,-4,-1,-1,-2,0,-1,0
1480686697964441,-2,-2,-2,-1,-1,-1,0,-1
1480686697964441,-1,-4,0,-1,-1,-2,-2,-2
1480686697978478,-1,1,1,-1,-2,0,0,1
1480686697978478,-1,1,0,3,2,3,0,-1
1480686697979481,-1,0,1,-1,0,0,0,0
1480686697979481,0,-1,-1,0,0,-1,0,0
1480686697987001,-1,0,-2,1,-2,-2,-2,-1
1480686697987001,0,-1,0,-1,-2,-2,-2,-2
1480686698002041,0,2,-1,0,1,0,0,-1
1480686698002041,0,0,-2,-1,-1,0,1,-2
1480686698004046,0,-1,-2,0,-1,-3,1,-1
1480686698004046,-1,0,-1,-2,0,-1,0,-1
1480686698024100,-1,-1,0,-1,-1,0,0,0
1480686698024100,0,-3,0,1,0,2,1,0
1480686698026105,-1,-2,0,0,3,1,0,0
1480686698026105,-2,1,-1,-1,-2,-3,-1,-1
1480686698038137,-2,1,0,-2,-1,-2,1,-1
1480686698038137,1,1,0,0,-1,-2,-1,-1
1480686698047160,1,-1,0,-1,0,-1,0,0
1480686698047160,-1,-3,-3,0,0,0,-2,-2
1480686698069721,-1,-2,2,0,-3,-1,-1,-1
1480686698069721,-2,0,-2,-2,-1,0,-1,-1
1480686698071225,0,1,2,3,2,-2,-1,-1
1480686698071225,-1,0,-1,-2,-1,-1,-1,1
1480686698091780,0,-1,-1,1,0,-1,-1,-1
1480686698091780,-1,0,0,-1,-1,0,1,-1
1480686698093785,1,1,-1,-2,0,-1,0,-1
1480686698093785,-2,0,0,0,0,1,0,0
1480686698114339,-1,-1,-1,0,-1,0,-1,-1
1480686698114339,0,0,1,0,0,-1,-1,1
1480686698115843,-2,-1,-2,0,-2,2,-1,0
1480686698115843,1,0,0,1,-1,-1,0,-1
1480686698137401,1,-1,1,-1,1,2,-1,1
1480686698137401,0,-1,-3,2,-2,-1,-1,-1
1480686698144921,1,-1,-1,0,-1,-2,0,-1
1480686698144921,0,0,-1,1,-1,-3,-3,0
1480686698159461,-1,1,-1,-1,0,1,-1,-2
1480686698159461,0,2,-1,-3,-2,-1,-1,0
1480686698160966,-3,-4,-1,-1,-2,-3,0,-1
1480686698160966,1,1,0,-3,0,-1,0,1
1480686698165977,1,0,-3,-2,-1,0,-2,-1
1480686698165977,-3,1,1,-1,0,0,-1,0
1480686698185528,0,-2,-1,0,-1,1,0,1
1480686698185528,0,0,1,-1,-1,-1,1,0
1480686698186531,-1,-1,0,-1,0,1,-1,1
1480686698186531,-2,1,-3,-5,-1,0,0,-1
1480686698188537,-1,1,0,0,-2,-1,-1,-1
1480686698188537,0,-4,-1,1,1,0,-1,-1
1480686698205081,-1,-2,0,1,0,-1,1,2
1480686698205081,0,0,0,1,-2,0,-1,-1
1480686698206584,-2,0,-1,-2,0,-2,-1,-1
1480686698206584,-1,1,0,1,0,1,0,-1
1480686698227165,2,1,-1,-1,-1,-1,-1,-2
1480686698227165,-1,-2,-1,-1,-1,-1,-1,0
1480686698228644,-1,-3,-1,0,-1,0,-1,-1
1480686698228644,-1,-2,0,-2,-2,-4,0,-1
1480686698250702,1,1,0,-1,-1,0,-3,-1
1480686698250702,0,1,0,4,1,1,-1,1
1480686698255715,-1,2,0,-4,-1,0,-1,-1
1480686698255715,0,-2,-2,-3,-1,-1,0,-1
1480686698264237,0,-2,1,0,-1,-2,0,-1
1480686698264237,-1,-4,-3,-6,-1,-1,0,-1
1480686698272261,1,-1,-1,1,0,2,0,0
1480686698272261,0,0,-1,-1,1,-1,-2,0
1480686698286799,0,0,1,1,-2,-1,1,0
1480686698286799,1,0,0,0,-2,-1,-1,1
1480686698301837,0,0,0,0,-2,0,-2,0
1480686698301837,-1,-1,0,-2,-1,0,0,-1
1480686698302840,-1,2,-1,0,0,-2,0,0
1480686698302840,-1,-2,0,-1,-2,-2,0,-2
1480686698315373,1,1,-2,0,4,1,-1,0
1480686698315373,1,-1,0,2,-1,0,0,0
1480686698324398,-2,-2,-2,0,2,-2,0,-1
1480686698324398,-2,0,0,2,0,-2,0,0
1480686698325903,-1,-1,-2,-2,-2,-2,-2,0
1480686698325903,0,0,0,-1,0,0,-1,0
1480686698346958,-1,-2,0,-2,-1,1,0,0
1480686698346958,2,-2,-2,-2,-1,0,-1,0
1480686698350467,-1,-2,2,0,-2,-3,-1,0
1480686698350467,0,0,-1,1,-2,-1,-1,1
1480686698370019,1,0,0,1,-1,0,-2,-1
1480686698370019,-1,1,0,-3,0,0,0,-1
1480686698371523,-1,2,1,1,-1,0,0,-2
1480686698371523,-1,0,0,0,0,-2,0,1
1480686698392078,-1,-3,-1,-1,-1,-1,-1,-1
1480686698392078,1,0,-1,0,0,0,0,1
1480686698394087,-1,-1,-1,0,0,0,0,-1
1480686698394087,0,1,-3,0,0,0,-1,-1
1480686698415640,-1,0,2,-3,-2,0,1,0
1480686698415640,0,1,0,0,1,-1,-1,0
1480686698419150,0,-1,-2,-2,0,1,1,-2
1480686698419150,-1,2,-2,2,-1,-1,0,-1
1480686698422158,0,-1,-2,0,-2,0,-1,-1
1480686698422158,-1,-1,1,3,0,0,-1,-1
1480686698435694,0,-1,-1,0,-2,-3,-1,-1
1480686698435694,-1,0,-1,-2,-1,0,-2,-1
1480686698444216,-1,1,-1,-2,1,-1,0,0
1480686698444216,-1,0,-2,-1,0,-2,-1,0
1480686698457752,0,-4,-2,0,-3,-1,-1,0
1480686698457752,-1,-2,2,-2,3,-1,0,-1
1480686698466777,-2,-1,-2,4,0,-2,-1,0
1480686698466777,-1,-1,0,-2,-4,0,0,-1
1480686698468280,-3,0,-2,-1,2,1,-1,-1
1480686698468280,-1,-1,0,1,0,0,0,-2
1480686698481315,0,-1,-1,0,-1,-2,-1,-1
1480686698481315,0,1,1,2,2,-1,-1,-1
1480686698487832,-1,0,-4,-3,-3,-1,-2,-1
1480686698487832,0,-2,-3,-3,-1,-2,0,-1
1480686698504878,0,1,-2,-3,0,1,0,0
1480686698504878,-3,-6,-2,0,-1,0,1,-2
1480686698506885,-2,0,2,1,0,0,0,-1
1480686698506885,-1,-1,-1,-2,0,-2,-1,-2
1480686698534457,1,1,-1,0,-2,-2,-1,-1
1480686698534457,2,2,-1,-2,1,0,-1,1
1480686698535961,0,-1,0,2,-2,-1,-1,-1
1480686698535961,0,-2,-1,-3,-3,-2,1,1
1480686698540973,-1,-2,-1,-1,-1,-1,-1,-3
1480686698540973,-2,0,-1,-2,-3,-1,-1,-2
1480686698547992,0,-1,1,-1,0,-2,-3,0
1480686698547992,0,-1,0,1,-1,0,-1,0
1480686698564537,-1,-1,0,0,-1,1,0,0
1480686698564537,0,0,0,0,0,1,0,-2
1480686698566041,-3,-4,-2,-1,-2,-1,-1,-1
1480686698566041,1,0,0,2,0,1,0,0
1480686698594618,-1,-3,-1,-2,-1,-2,0,0
1480686698594618,-1,-1,-2,-1,0,0,-1,0
1480686698596121,0,0,0,-2,0,2,1,-1
1480686698596121,-2,-1,-2,-3,-3,0,-2,-1
1480686698600632,-1,-3,2,2,2,0,0,0
1480686698600632,0,0,-3,-1,-1,0,-1,-1
1480686698617177,0,-2,-1,0,3,0,2,0
1480686698617177,-3,-6,-3,-1,-1,-2,-1,-2
1480686698624197,-2,2,0,-2,-2,-3,0,1
1480686698624197,-1,-1,0,0,0,-2,-1,-1
1480686698626202,1,1,1,1,-2,-2,0,-1
1480686698626202,1,0,-1,2,1,-1,-1,0
1480686698648259,0,-2,0,-1,0,0,2,0
1480686698648259,-1,-1,-1,-2,-1,-2,-3,0
1480686698651768,-1,3,-1,-3,-2,-1,0,0
1480686698651768,0,1,0,1,0,0,0,0
1480686698669817,0,0,0,0,1,1,0,-1
1480686698669817,-2,-2,1,0,1,0,1,-1
1480686698671321,1,0,-4,-1,-1,-2,-1,-2
1480686698671321,-1,0,-3,-1,1,-1,0,-1
1480686698691876,-1,0,0,-2,-1,0,-2,-1
1480686698691876,-1,-1,-2,1,2,0,1,0
1480686698693883,0,-1,1,-1,0,-1,-1,0
1480686698693883,-1,0,-1,2,1,1,-1,-1
1480686698714435,1,-1,-1,0,-4,-2,-1,0
1480686698714435,1,-2,-1,-2,-1,-1,0,0
1480686698716942,0,-3,0,-2,-1,-2,0,1
1480686698716942,-1,-1,0,-3,-1,-1,-1,-1
1480686698720451,0,0,-1,1,1,1,-1,-2
1480686698720451,0,1,1,1,0,1,1,0
1480686698737496,0,-3,-3,1,-1,0,0,-1
1480686698737496,1,0,1,-1,0,-1,0,-1
1480686698745016,-1,2,0,2,0,0,0,0
1480686698745016,0,-2,-1,-2,0,-1,0,-1
1480686698746521,-1,-1,-1,0,-2,-2,-1,1
1480686698746521,-1,1,0,-2,-2,0,-2,1
1480686698766573,0,-1,0,-1,1,0,-1,-3
1480686698766573,1,0,-1,1,-1,0,-2,-1
1480686698768579,0,1,1,0,-1,1,0,0
1480686698768579,-2,-3,-1,-1,-2,-1,1,-2
1480686698781112,-2,-4,-4,-1,0,0,-1,-1
1480686698781112,0,0,1,-2,-2,-1,-1,-1
1480686698795652,0,-2,-2,0,1,-1,-1,0
1480686698795652,-1,1,0,0,1,0,0,0
1480686698811694,-2,0,2,1,-2,-1,-1,0
1480686698811694,1,-2,-1,-2,-1,0,-1,-1
1480686698813198,0,0,0,-2,1,-1,-1,0
1480686698813198,0,1,0,2,0,1,-1,-2
1480686698834254,-2,3,1,-3,-2,-3,-1,1
1480686698834254,-1,-2,-1,-1,-2,-1,1,0
1480686698835758,0,0,1,-1,-2,-2,0,-2
1480686698835758,0,-1,-2,0,-1,0,-1,0
1480686698841273,0,-1,-1,-1,1,1,0,0
1480686698841273,-1,-1,0,0,-1,0,-2,0
1480686698856814,-2,-3,0,-2,-2,1,-2,0
1480686698856814,-1,-2,0,-2,1,-2,0,-1
1480686698864835,0,-1,-2,-3,-2,-3,1,-2
1480686698864835,0,0,0,1,-2,-1,0,1
1480686698877870,0,2,-1,1,4,2,-1,-1
1480686698877870,-1,-3,-1,-1,-4,-2,0,0
1480686698902936,0,0,2,1,-1,0,0,-1
1480686698902936,-1,0,-4,-3,-1,-1,-1,-1
1480686698904942,0,1,1,1,-3,-2,-1,-1
1480686698904942,0,0,0,0,0,0,-1,-1
1480686698905443,-2,-2,-1,-2,0,1,0,-1
1480686698905443,-2,0,0,0,-2,-1,-1,-1
1480686698924996,-1,-3,-3,0,-1,1,-1,-1
1480686698924996,-1,1,-2,-2,3,0,1,1
1480686698925999,-1,-4,0,2,-2,-1,-1,0
1480686698925999,0,0,2,0,-1,0,0,2
1480686698927506,-1,0,0,0,-1,-2,0,-1
1480686698927506,-2,-1,3,-2,-2,-2,-1,0
1480686698947053,-1,0,-3,1,2,0,-2,-1
1480686698947053,-2,-4,-4,-1,0,-1,-2,0
1480686698949058,-1,1,-1,-1,0,-2,0,1
1480686698949058,1,0,0,-1,-4,-2,-1,1
1480686698969614,0,0,0,0,0,-1,0,0
1480686698969614,0,-1,2,-1,-2,-2,0,-2
1480686698971620,0,-1,-2,-2,-2,0,0,-1
1480686698971620,-1,0,0,-1,2,1,2,-1
1480686698991673,-1,0,-1,-1,1,0,-1,0
1480686698991673,-1,-1,-2,-2,-1,-1,1,-1
1480686698993682,1,0,-3,-2,0,-2,0,-1
1480686698993682,-2,-7,-1,1,1,-1,-2,0
1480686699014232,1,0,-3,-5,-2,0,0,0
1480686699014232,-1,0,0,-1,2,0,0,-1
1480686699015736,1,1,-3,-2,0,-2,0,-1
1480686699015736,4,1,-3,0,-1,-2,-1,-3
1480686699020248,3,-1,-1,0,-1,0,-1,-2
1480686699020248,3,0,1,3,1,0,-2,-1
1480686699035290,-2,-1,-1,-2,-3,1,0,0
1480686699035290,-2,0,-1,-1,-1,-2,-2,0
1480686699044312,-3,-1,0,-3,1,-1,-1,0
1480686699044312,-2,2,-1,-1,2,0,2,0
1480686699045816,-2,-2,0,1,-1,-2,-1,-1
1480686699045816,-2,-1,-1,3,0,1,0,-1
1480686699073389,-1,1,-1,-6,-2,-2,1,0
1480686699073389,-3,-4,0,-1,-1,-2,-1,-1
1480686699091437,0,-1,-2,-2,-1,-1,0,0
1480686699091437,-2,-1,0,-2,-2,0,-1,1
1480686699096954,-1,-1,0,1,-2,0,-1,-2
1480686699096954,0,1,-1,0,-2,-1,1,0
1480686699106485,0,-1,1,1,2,1,0,-1
1480686699106485,0,-1,-1,-1,0,1,0,-1
1480686699106980,-1,0,-1,1,-2,-1,-2,-1
1480686699106980,-2,-1,-2,-2,-2,0,1,1
1480686699111993,-1,0,1,1,2,2,0,1
1480686699111993,-1,0,0,-3,-4,-2,0,-1
1480686699127034,-2,-2,-1,0,-1,-1,0,-1
1480686699127034,0,-1,-1,-1,-1,0,-1,-2
1480686699128537,-1,0,-1,-1,-1,-2,0,-2
1480686699128537,1,2,0,0,0,-1,0,-1
1480686699150093,-2,-3,0,-4,-1,0,0,0
1480686699150093,2,-1,-2,1,-1,-2,0,0
1480686699151597,-1,-2,0,-1,3,1,0,-1
1480686699151597,1,1,-1,-1,-1,1,-1,0
1480686699171650,-1,1,-1,2,-1,1,-3,-2
1480686699171650,-1,-1,-1,-1,-1,-2,-2,-1
1480686699173657,0,-1,-1,-3,-2,-1,0,0
1480686699173657,0,-3,-2,1,-2,-2,-1,-1
1480686699201731,0,1,1,2,0,-2,-2,0
1480686699201731,-2,-1,1,1,2,1,-1,0
1480686699205240,0,-1,-1,1,-1,0,-1,-1
1480686699205240,-3,1,-1,-2,-1,-1,-1,-2
1480686699225796,0,-1,1,-1,-2,1,-2,-1
1480686699225796,-2,0,-2,-1,0,0,0,1
1480686699227303,-1,-2,-2,-3,-1,-2,-1,-1
1480686699227303,-2,-1,-2,1,-2,1,0,0
1480686699227802,-1,-1,-2,-5,0,-1,0,0
1480686699227802,0,-1,-1,-2,0,0,-1,-1
1480686699248856,1,0,0,0,2,0,-2,0
1480686699248856,0,1,1,1,0,-1,0,0
1480686699249859,1,0,-1,1,-2,-2,-1,-1
1480686699249859,-1,0,1,-2,-2,-1,0,-2
1480686699252867,-1,-1,-1,1,0,-1,-1,-1
1480686699252867,-2,1,0,-4,-1,-3,-1,0
1480686699270415,0,-2,2,2,0,0,0,-1
1480686699270415,1,1,-1,-1,0,2,-1,-1
1480686699273924,-2,1,-1,-1,-1,-3,-1,-1
1480686699273924,0,-2,0,2,1,0,-1,1
1480686699292473,-2,-3,-3,-1,0,0,-1,-1
1480686699292473,0,-1,0,-3,-2,-1,-1,-1
1480686699294480,0,-2,-1,0,-4,-2,-2,-1
1480686699294480,0,0,0,-1,3,-1,-1,-1
1480686699306511,1,-2,-1,2,1,-1,1,-1
1480686699306511,0,-1,-1,2,2,-2,-1,-1
1480686699314531,-1,0,1,-3,-2,1,1,0
1480686699314531,-1,0,-1,0,-1,0,1,-3
1480686699329570,1,-1,0,2,1,1,-1,0
1480686699329570,0,-1,-1,0,-1,-2,-1,-1
1480686699331075,-3,-2,-1,0,-1,1,0,-2
1480686699331075,0,0,0,-1,-2,-1,0,0
1480686699351629,0,1,2,-3,-2,-2,0,0
1480686699351629,-1,1,1,1,-1,1,0,0
1480686699353635,-1,1,-2,0,1,0,0,-1
1480686699353635,-2,0,-2,-1,0,2,1,-2
1480686699366673,-2,1,-2,-1,-1,-1,-1,1
1480686699366673,0,-1,0,-4,-3,-2,0,-1
1480686699368174,-2,-2,0,0,-4,0,0,0
1480686699368174,-1,-1,1,0,3,1,1,0
1480686699389230,0,1,1,4,-1,-2,-2,1
1480686699389230,-3,-1,-1,-1,-3,-2,-1,1
1480686699391235,-1,-1,-3,-3,-1,-1,-1,0
1480686699391235,0,-3,-2,0,0,0,0,0
1480686699411789,-1,0,1,-1,1,2,0,-2
1480686699411789,0,-2,-2,2,0,1,0,-1
1480686699413293,1,0,1,-1,-1,0,0,-1
1480686699413293,0,-1,0,-1,-3,-1,0,0
1480686699434352,0,0,0,0,-1,-2,0,1
1480686699434352,-1,-3,-3,-4,-2,-2,0,0
1480686699435853,0,1,-1,0,2,1,-1,-1
1480686699435853,1,0,1,-2,-2,-1,-2,-2
1480686699456910,-2,0,-1,0,2,-1,0,-2
1480686699456910,-2,1,0,1,0,-1,-1,-1
1480686699458414,0,0,0,0,-1,-2,-2,0
1480686699458414,-2,-2,-2,-1,-1,-1,0,-1
1480686699479469,1,-3,-1,-1,-2,1,-1,-1
1480686699479469,0,2,1,1,0,-1,-1,1
1480686699480973,-1,-3,0,0,3,2,-2,0
1480686699480973,1,1,-1,-6,-2,-3,-2,0
1480686699503032,-1,0,-2,0,-1,0,2,0
1480686699503032,-2,-2,0,0,0,2,-1,-1
1480686699505038,0,0,1,1,-1,0,-1,0
1480686699505038,0,-4,-1,0,-3,-1,1,0
1480686699525593,-1,-3,-1,-1,-1,-2,-2,-1
1480686699525593,2,1,-2,-2,0,0,0,-1
1480686699527601,-2,-1,-2,-3,-1,-1,0,-1
1480686699527601,0,1,0,1,1,0,0,0
1480686699528099,1,0,-2,-4,-4,-2,-1,-1
1480686699528099,0,0,-1,0,4,-1,-2,-2
1480686699549156,0,-3,3,1,0,-1,1,0
1480686699549156,-1,1,-2,2,0,0,-1,0
1480686699549656,0,-1,0,0,2,0,-2,-1
1480686699549656,0,-3,-2,0,-3,1,-1,0
1480686699553165,-1,0,-4,-1,-2,-1,-2,0
1480686699553165,-1,0,2,1,2,0,0,-2
1480686699568709,-1,-2,-1,-2,1,-2,0,-1
1480686699568709,0,-3,-2,-1,0,1,-2,0
1480686699592270,0,-1,1,0,-1,-3,1,0
1480686699592270,-3,-5,-3,-3,-4,-2,-1,1
1480686699593272,-2,-1,-3,0,1,-1,0,0
1480686699593272,0,1,-1,-2,-1,-2,1,-2
1480686699594779,-2,-1,-2,-2,0,-2,-1,0
1480686699594779,-1,0,1,-1,-1,1,-1,0
1480686699606808,0,1,1,-1,-2,1,0,-2
1480686699606808,1,-1,-1,-1,-1,0,0,2
1480686699608312,-1,-1,1,0,-2,1,0,-1
1480686699608312,1,1,-1,0,1,1,-1,-2
1480686699629368,1,0,-1,-1,0,-1,0,0
1480686699629368,0,2,0,1,-3,-1,-1,0
1480686699630872,1,-1,-1,3,0,-1,-1,-1
1480686699630872,-2,1,-1,-1,-1,0,0,-1
1480686699642905,0,-1,0,2,0,-1,1,1
1480686699642905,0,0,-1,-3,-2,-2,0,-2
1480686699651928,-1,-1,-2,-2,1,-1,-2,-1
1480686699651928,1,0,-1,1,2,0,1,1
1480686699666968,-2,-2,-1,-1,0,0,-1,-1
1480686699666968,-2,1,0,-1,-1,-1,1,1
1480686699669475,0,0,-1,1,-2,-1,0,-2
1480686699669475,0,0,0,-1,-4,-3,-2,-1
1480686699689528,1,2,-1,0,3,0,-1,-1
1480686699689528,-1,-1,-1,-1,1,0,0,-1
1480686699692537,0,1,-2,-3,0,0,1,-2
1480686699692537,0,-3,0,-1,-2,0,-1,0
1480686699711586,-2,0,-1,1,0,1,-1,0
1480686699711586,-1,-1,1,1,0,-1,-2,0
1480686699714595,1,1,0,-1,0,-1,-1,1
1480686699714595,0,-1,-2,-1,-1,0,0,-1
1480686699734147,-1,2,-2,-3,-3,-2,-1,0
1480686699734147,-3,-4,-1,3,0,-1,0,0
1480686699735651,0,0,-1,-2,-2,0,0,0
1480686699735651,-1,2,0,0,0,0,-1,0
1480686699756707,0,-1,-1,-1,0,0,0,-2
1480686699756707,0,-1,-2,-1,-1,-1,-1,0
1480686699758713,0,0,0,0,4,0,-1,0
1480686699758713,-2,-1,0,-1,1,-2,-1,1
1480686699779267,-1,-1,0,-1,-4,-2,-1,-1
1480686699779267,0,0,-3,-2,-1,-2,0,-1
1480686699780771,-1,-1,1,1,-2,1,1,2
1480686699780771,-1,-1,0,-2,1,1,-1,-1
1480686699788291,-2,-3,-1,1,-2,1,-1,-2
1480686699788291,0,1,2,0,-2,0,0,-1
1480686699800324,0,-2,-1,-1,-1,-1,-3,0
1480686699800324,0,0,-1,0,-1,1,-1,-1
1480686699809850,0,-1,0,0,0,-3,0,-1
1480686699809850,-1,-1,-1,-1,2,0,0,0
1480686699823885,0,1,-1,-4,-2,-1,-1,-1
1480686699823885,-1,-1,1,1,0,0,-1,-1
1480686699824387,2,-1,1,-2,-1,0,-1,0
1480686699824387,0,-2,0,-1,-1,-1,-2,-1
1480686699846946,0,0,0,1,-3,-1,-2,0
1480686699846946,-1,0,-1,-1,1,0,0,0
1480686699847448,-2,-2,-1,-1,0,0,-1,0
1480686699847448,0,0,0,1,-1,0,1,0
1480686699879032,-1,-1,-2,-2,-2,-2,1,-1
1480686699879032,0,-2,-3,-2,-2,0,-1,-1
1480686699879533,-1,0,0,3,4,0,-1,-1
1480686699879533,-1,-1,-2,-2,-1,0,-1,0
1480686699883544,-3,-3,1,2,-1,-1,0,0
1480686699883544,1,1,-2,0,-1,-2,2,-1
1480686699884546,-1,-2,-1,-2,-1,-2,0,-2
1480686699884546,0,0,0,2,1,-1,0,-2
1480686699898082,-1,-1,-2,-7,-1,-1,-1,-1
1480686699898082,-2,-1,1,-1,-1,-1,-2,-1
1480686699907608,-1,0,-1,-1,1,1,0,0
1480686699907608,0,0,-1,0,-1,0,0,0
1480686699909112,0,0,-1,0,1,1,-1,0
1480686699909112,1,-1,1,-1,-1,-2,0,0
1480686699945211,-1,-1,-3,-2,-1,-1,-1,1
1480686699945211,-2,-1,0,-1,0,-1,0,0
1480686699946712,2,0,0,-1,0,0,0,-1
1480686699946712,0,-1,-1,-1,0,0,-1,-2
1480686699947213,0,-1,-1,1,0,-1,-1,0
1480686699947213,0,-1,-1,0,-1,-1,-3,0
1480686699957742,-2,-2,-1,0,-1,-2,0,0
1480686699957742,0,2,2,0,3,1,0,0
1480686699974285,-1,-1,-1,0,-2,1,0,0
1480686699974285,0,-2,-1,-3,-2,-1,0,-1
1480686699975789,-2,-2,-2,0,0,0,0,0
1480686699975789,0,-2,-2,0,-1,-2,-1,0
1480686699989826,-1,0,1,-2,-1,0,0,0
1480686699989826,-1,0,-1,1,1,0,-1,0
1480686699991832,0,0,0,2,-3,0,-1,-1
1480686699991832,0,-2,-3,0,-1,0,0,-1
1480686700011885,-1,1,1,-2,-2,0,-2,0
1480686700011885,1,0,-1,-2,0,-1,1,1
1480686700013390,0,-3,-2,0,-1,-2,1,0
1480686700013390,-1,-1,-1,0,-1,-1,0,0
1480686700034949,0,0,-3,1,0,0,1,-2
1480686700034949,-1,0,0,-2,-4,0,-1,-3
1480686700038456,-1,-2,-2,1,-1,0,-1,-1
1480686700038456,0,-1,2,-2,-2,-2,0,-1
1480686700081069,0,-2,-1,-3,0,-2,-1,-1
1480686700081069,-2,-4,-4,1,-1,-2,0,-1
1480686700082573,2,1,0,-2,3,-1,1,-2
1480686700082573,-2,-1,-1,-1,-2,2,0,0
1480686700083577,-2,0,-2,-1,-3,-3,0,0
1480686700083577,-1,-1,0,0,-1,0,-1,0
1480686700102627,-2,0,0,0,-2,0,-2,0
1480686700102627,0,-2,-3,-2,0,-1,0,0
1480686700103128,-1,0,2,2,0,-1,1,1
1480686700103128,0,0,-1,-2,-1,1,0,0
1480686700105133,-1,-2,-2,2,1,-1,-1,1
1480686700105133,-2,-2,-1,-3,-2,-1,-1,-1
1480686700109144,-1,3,0,0,0,-1,0,-1
1480686700109144,-1,-3,-2,-1,1,0,-1,-2
1480686700123180,-1,-1,1,1,-1,-2,-1,-3
1480686700123180,0,-1,-1,2,-3,0,-2,0
1480686700131703,1,-1,-2,-2,-1,-1,-2,-1
1480686700131703,0,1,-1,-7,-2,-1,0,-2
1480686700133709,0,-1,-1,0,1,2,0,0
1480686700133709,-2,1,-2,-3,-4,-2,-3,-2
1480686700146744,-2,-3,2,-1,-3,-1,0,0
1480686700146744,1,3,-1,2,-1,1,-1,0
1480686700148249,-2,0,-1,-2,1,0,-1,0
1480686700148249,2,1,2,2,0,1,0,0
1480686700169303,0,-3,-2,1,0,-2,0,-2
1480686700169303,-1,-2,-1,1,-1,-1,-1,0
1480686700171309,1,0,-2,-4,0,0,1,-1
1480686700171309,0,-3,-2,-1,1,0,0,-1
1480686700200387,-1,-1,-1,2,0,0,-1,-1
1480686700200387,-2,-1,2,2,0,-1,1,0
1480686700202391,2,2,-1,-2,-3,-1,-1,-1
1480686700202391,-1,-2,-2,-1,2,-1,0,-1
1480686700206402,0,0,-1,-2,-1,-2,-1,-1
1480686700206402,0,0,0,-1,1,-2,0,0
1480686700220440,1,3,2,1,-1,-1,0,-1
1480686700220440,-1,1,-1,1,0,1,0,1
1480686700229464,0,-1,0,-2,-1,0,0,0
1480686700229464,-1,1,-2,1,-1,0,-1,-1
1480686700230968,0,-3,-2,-2,0,0,1,1
1480686700230968,0,-2,0,-1,1,0,0,-1
1480686700252024,-2,-2,-1,-2,-2,-1,-1,-3
1480686700252024,-1,0,2,1,0,0,1,1
1480686700254531,1,0,-1,-1,-1,-1,1,0
1480686700254531,-1,-2,-2,-4,-2,-2,1,-1
1480686700266061,0,0,-1,3,1,0,-1,-1
1480686700266061,-1,0,-1,-2,-2,0,0,0
1480686700290627,-2,-1,1,2,0,0,0,-1
1480686700290627,0,-1,1,-1,-1,-1,-1,-1
1480686700291629,-2,2,1,0,0,-1,-1,0
1480686700291629,-1,0,-1,-2,0,1,-2,-3
1480686700293135,-1,-2,-2,-2,0,-1,-2,-1
1480686700293135,-2,0,0,-2,0,-2,1,1
1480686700312184,0,0,1,0,0,-1,0,-1
1480686700312184,-1,-4,0,0,-1,0,-2,0
1480686700313687,-2,-1,1,-1,0,0,-1,-1
1480686700313687,0,-1,-3,-3,0,1,0,1
1480686700334242,0,-3,1,1,0,0,0,-1
1480686700334242,-1,-1,-3,-3,-1,-1,-2,-2
1480686700335746,0,-1,-1,-1,-1,-2,-2,-2
1480686700335746,-1,0,1,2,0,2,0,1
1480686700356802,-1,0,-5,-4,0,0,0,1
1480686700356802,1,0,0,-2,0,0,1,0
1480686700358307,0,-2,-1,-2,-2,-1,-1,0
1480686700358307,0,1,1,2,1,0,-2,-1
1480686700379362,-1,0,0,0,-2,1,-1,0
1480686700379362,-1,-2,-1,1,2,-1,1,-1
1480686700380866,-1,0,-1,-2,-3,0,-1,-2
1480686700380866,-1,-2,-1,3,-1,0,-1,-1
1480686700401422,-1,-2,-1,-1,0,-3,0,-1
1480686700401422,-1,1,-1,-1,-2,-1,0,0
1480686700411448,-1,-1,1,2,1,0,0,0
1480686700411448,-1,0,0,0,-2,-1,0,-1
1480686700412450,-1,1,-1,-3,-1,0,-1,-1
1480686700412450,-1,-1,-2,3,2,-1,-2,-1
1480686700422978,-1,0,-1,-2,-3,-2,0,0
1480686700422978,-1,1,-3,-2,0,0,0,0
1480686700432002,1,1,0,2,0,-1,1,2
1480686700432002,0,-1,0,-1,-2,-1,0,-1
1480686700433506,1,1,0,0,-1,0,0,0
1480686700433506,-1,0,0,-1,0,0,-1,-1
1480686700446040,-2,0,-1,-2,-2,-1,0,-1
1480686700446040,1,-1,-2,0,-1,0,0,0
1480686700454061,-2,0,-2,-1,1,-1,-3,-2
1480686700454061,0,0,0,-1,-1,-2,-1,-1
1480686700477124,0,-2,-2,0,1,1,0,0
1480686700477124,0,-2,-1,-1,-2,1,0,-1
1480686700483138,-2,-1,-2,-1,-1,-1,0,0
1480686700483138,0,-3,1,0,-2,0,0,-1
1480686700491661,-1,-2,1,1,-2,2,-1,-1
1480686700491661,-1,2,1,2,1,0,-1,1
1480686700498181,-1,-1,-1,0,0,-1,-1,0
1480686700498181,-4,0,-3,-2,-2,-1,-2,-2
1480686700506701,2,1,-1,-1,0,-1,1,0
1480686700506701,0,1,1,-1,-1,0,-1,-1
1480686700514722,0,-1,-1,-1,0,-1,-1,-1
1480686700514722,-1,0,0,1,-1,-1,0,0
1480686700544302,-2,-1,-1,-1,0,-1,-2,-1
1480686700544302,-1,-1,0,-2,-2,-2,0,0
1480686700545805,-1,-2,-1,0,0,1,1,1
1480686700545805,0,0,0,0,-1,0,-2,-2
1480686700551821,0,0,0,-2,2,0,0,0
1480686700551821,-1,-2,-1,-1,-1,-2,1,0
1480686700566359,0,1,0,-3,3,0,0,0
1480686700566359,-1,-1,0,0,1,-1,-1,0
1480686700566860,0,-3,-1,-1,1,-2,-1,-2
1480686700566860,-2,0,1,-1,0,-1,-1,-1
1480686700591427,0,-1,-1,0,-2,-1,1,0
1480686700591427,1,1,-2,0,1,-3,1,-1
1480686700592430,-2,1,2,1,-1,1,-1,0
1480686700592430,0,-3,-3,-4,0,-1,0,0
1480686700612482,1,2,0,2,0,0,-1,0
1480686700612482,-1,0,-2,-2,-1,-1,1,1
1480686700613485,0,0,-1,-1,2,-1,1,1
1480686700613485,-3,-1,-2,2,-1,-2,0,-1
1480686700614989,-2,0,-1,-2,-2,0,-1,-1
1480686700614989,1,0,-1,0,-1,-1,-1,-1
1480686700634541,0,3,0,0,-3,-1,0,1
1480686700634541,0,-1,-1,-3,-1,0,0,2
1480686700636546,1,0,0,-2,0,0,0,2
1480686700636546,0,-3,-1,0,-1,1,0,-1
1480686700657100,-1,-4,0,-3,-2,1,1,-1
1480686700657100,1,-2,1,0,0,-1,-1,0
1480686700658605,0,1,-1,-3,-2,-2,-1,-1
1480686700658605,0,-1,-1,3,1,1,0,2
1480686700679660,0,-1,-4,-1,2,0,-2,0
1480686700679660,-2,0,0,-2,-2,-2,0,0
1480686700681164,-3,0,0,1,0,-1,0,-1
1480686700681164,0,1,-1,-2,-1,-1,0,0
1480686700685676,-1,-2,0,1,-1,1,0,-2
1480686700685676,0,-1,0,1,-2,0,-2,-1
1480686700701720,1,0,-1,0,-2,-1,-1,-1
1480686700701720,-3,-6,-2,-2,2,-2,-1,0
1480686700709241,1,1,1,-1,-1,-2,0,2
1480686700709241,-1,-1,-2,-1,2,0,0,1
1480686700710745,-1,-3,0,0,0,-2,0,-1
1480686700710745,0,0,-2,-3,-3,-2,-1,-1
1480686700731801,-1,-2,-2,0,-3,0,-1,0
1480686700731801,1,1,1,0,-1,-2,1,-1
1480686700734307,1,2,-1,2,0,1,-1,0
1480686700734307,0,1,2,0,3,1,-1,0
1480686700754361,0,0,0,-1,-1,-2,-2,-2
1480686700754361,0,1,0,1,-2,-2,-2,0
1480686700755865,-1,-2,-1,0,-2,-1,-1,-1
1480686700755865,0,0,-1,-8,-2,0,0,-1
1480686700769901,0,-1,-2,-1,-2,0,-1,1
1480686700769901,1,0,-1,0,1,0,1,-2
1480686700771906,-1,-2,1,-2,-3,-2,-1,0
1480686700771906,0,-2,0,1,-2,0,-1,0
1480686700791960,-1,0,0,1,-1,-2,-1,-2
1480686700791960,0,-3,0,-3,0,-1,-2,-2
1480686700793467,0,0,-2,0,0,1,0,0
1480686700793467,0,1,0,0,-1,-1,-2,-1
1480686700822039,-1,-1,-2,-3,0,0,-1,-1
1480686700822039,-2,-6,-1,2,-1,-1,0,-1
1480686700823544,-3,0,0,-2,-1,-1,-2,-2
1480686700823544,-1,2,-1,6,2,0,0,-2
1480686700829059,0,-1,2,-1,-1,0,-2,-2
1480686700829059,-1,3,-2,0,-1,-1,0,2
1480686700831064,1,-1,-1,0,-1,-1,2,2
1480686700831064,2,1,-4,-1,-2,-1,1,1
1480686700852621,-2,0,-3,-1,2,-1,0,-1
1480686700852621,-1,4,1,0,-3,0,-1,0
1480686700854125,-1,-3,0,1,-1,-1,-1,-2
1480686700854125,-1,0,2,-1,-1,-1,-2,1
1480686700865655,-1,1,-2,1,1,0,0,-1
1480686700865655,0,-2,-4,-3,1,-1,-2,-1
1480686700891224,-2,0,-2,1,-2,-2,0,1
1480686700891224,-1,-3,-1,-5,-2,-1,-1,-2
1480686700892229,-1,-1,0,-1,-1,-1,0,-1
1480686700892229,-1,-1,1,-1,-1,0,0,0
1480686700912279,0,-2,1,0,0,0,-1,0
1480686700912279,1,1,1,3,-2,0,-1,0
1480686700912780,-1,-2,1,-3,-1,-2,-1,-1
1480686700912780,0,0,0,0,0,-1,-1,-4
1480686700919298,-2,-3,-2,-1,-1,0,-2,-1
1480686700919298,0,-1,-2,-2,2,-1,3,0
1480686700934338,0,0,0,1,1,1,0,3
1480686700934338,0,-1,-1,1,0,0,-2,1
1480686700935842,-1,-2,0,-1,0,0,-1,-3
1480686700935842,-1,-1,0,0,-1,-1,-1,-2
1480686700963917,0,0,-3,-2,-1,1,1,0
1480686700963917,-2,-2,-3,-1,-4,0,0,-1
1480686700981463,0,1,-3,-3,1,-1,0,-2
1480686700981463,-2,-2,1,-2,-1,-1,-1,-1
1480686700982466,0,-2,-3,2,-1,-2,0,2
1480686700982466,-1,0,-1,0,3,0,1,0
1480686700985474,2,0,-1,1,-4,-1,-1,0
1480686700985474,0,-2,-2,1,0,0,0,-1
1480686700994500,-2,0,0,-2,-2,-1,-1,0
1480686700994500,-1,-1,0,-1,-3,0,-3,-1
1480686700996002,-1,1,-1,0,-2,0,-1,-1
1480686700996002,-2,-1,0,0,-1,-1,0,1
1480686701009545,0,0,-2,1,0,-1,1,-1
1480686701009545,0,-1,-1,-3,1,-2,1,0
1480686701011042,-2,-1,1,-2,0,1,0,1
1480686701011042,0,2,-1,0,-1,-1,-3,-1
1480686701032099,0,-2,-1,-3,-3,0,-2,0
1480686701032099,-2,0,-1,-1,-1,0,-1,-2
1480686701033602,0,-1,0,1,3,-1,1,0
1480686701033602,-2,-2,-3,-1,-1,-1,1,1
1480686701054156,1,2,-1,0,-2,-2,-1,-1
1480686701054156,-1,-6,-1,0,0,-1,-1,-1
1480686701056162,0,0,-2,-5,0,-2,0,-1
1480686701056162,-1,-1,1,-1,-2,-1,-1,0
1480686701068695,0,-1,-1,-1,2,-1,-2,-3
1480686701068695,1,3,-2,-1,-2,-1,1,1
1480686701083234,-1,-2,-2,0,-2,-1,-1,0
1480686701083234,-2,-2,-1,1,-1,-2,0,-1
1480686701099781,-1,-2,-1,-3,0,0,1,0
1480686701099781,0,-1,-2,3,-1,-1,-1,1
1480686701123842,-1,-2,-1,-1,2,2,0,0
1480686701123842,-1,0,0,-2,-1,-1,-2,-3
1480686701124845,0,-1,0,2,0,1,-1,0
1480686701124845,-2,0,0,-1,-2,0,2,1
1480686701126852,1,2,1,0,1,1,0,0
1480686701126852,-2,-2,-2,-2,-1,0,-1,-2
1480686701145901,1,-1,1,2,1,0,-3,-1
1480686701145901,1,1,0,2,-1,0,-1,-2
1480686701146903,-1,-3,-2,-4,-1,0,0,0
1480686701146903,1,0,0,0,0,0,0,-1
1480686701159947,0,0,0,-1,-2,-1,0,-2
1480686701159947,2,2,0,-2,1,0,0,-1
1480686701160442,-2,-3,-1,0,1,-1,0,-1
1480686701160442,-1,0,1,0,1,0,-1,0
1480686701183500,-1,0,-1,0,-1,-1,-1,-1
1480686701183500,0,-1,0,-2,-4,-3,-3,-1
1480686701184002,1,-2,1,1,-1,-1,-1,-1
1480686701184002,1,-1,-2,-1,0,0,-1,-1
1480686701189016,-1,1,0,0,-1,-1,0,0
1480686701189016,-1,-3,-1,-3,0,0,0,-1
1480686701196034,0,-1,2,1,-2,-2,0,-2
1480686701196034,1,2,-2,2,0,1,0,1
1480686701211575,0,0,-3,-1,-1,0,1,0
1480686701211575,-1,-2,0,0,0,0,-1,0
1480686701212578,-1,2,1,0,0,0,0,-1
1480686701212578,1,-1,0,-4,-2,0,-1,-2
1480686701236141,-2,-4,-1,-1,-2,-1,0,-1
1480686701236141,-1,0,0,-2,0,-2,-1,0
1480686701237146,-1,-2,-3,-2,-1,0,-1,0
1480686701237146,0,0,0,0,-1,0,0,0
1480686701264718,0,-2,-1,0,3,0,0,0
1480686701264718,0,0,-1,-1,-4,-1,0,0
1480686701265723,2,3,3,1,0,-1,1,-1
1480686701265723,-1,-1,-3,-1,1,0,-1,0
1480686701273240,0,0,-1,-4,-3,-3,-1,0
1480686701273240,1,1,0,2,3,1,0,1
1480686701274242,0,-3,-1,-1,-1,-1,-1,-1
1480686701274242,-2,0,2,1,0,-1,0,1
1480686701293795,0,-2,2,0,-1,-2,0,-2
1480686701293795,0,-1,0,1,-1,1,-1,-1
1480686701294296,0,1,-4,-1,0,1,-1,0
1480686701294296,1,1,0,-3,-2,-1,-1,1
1480686701317858,-2,0,1,2,1,0,0,-1
1480686701317858,-3,-3,0,-1,0,-1,-1,-2
1480686701318359,0,-1,-1,-2,0,0,-1,0
1480686701318359,0,-1,-1,2,-1,-2,-2,-1
1480686701347439,0,0,-1,0,-2,0,0,-2
1480686701347439,1,1,-1,-2,-1,0,1,1
1480686701347938,-1,1,-1,-2,1,-1,0,-1
1480686701347938,-2,-2,1,0,-1,-1,-1,0
1480686701354958,1,0,0,-2,-3,-2,-2,0
1480686701354958,0,1,-1,-1,-2,-2,2,1
1480686701355959,1,-1,-2,-4,0,0,-1,-2
1480686701355959,-1,-2,-2,1,1,1,1,-3
1480686701376515,-1,1,-1,0,-1,1,0,0
1480686701376515,0,-2,0,-1,0,-1,-3,-1
1480686701383534,-1,1,0,1,-1,0,-1,0
1480686701383534,0,-1,-1,0,-3,-1,-1,1
1480686701399576,-1,0,-1,-2,1,1,-1,0
1480686701399576,0,0,-1,0,0,0,1,-1
1480686701400579,-2,-1,0,2,-1,-2,-1,0
1480686701400579,0,-1,1,-1,-3,-1,-2,0
1480686701423138,-1,-1,-2,2,2,0,-2,0
1480686701423138,-1,-2,-1,0,-1,-2,-2,-1
1480686701424142,0,-1,1,-1,-2,1,0,-2
1480686701424142,-2,-1,0,0,2,-1,0,-2
1480686701444194,0,0,0,-1,-1,0,-1,-1
1480686701444194,0,0,-1,0,-1,2,0,-1
1480686701445197,0,-1,0,0,1,-1,0,-1
1480686701445197,0,-1,-3,-1,-1,0,-1,0
1480686701466759,-3,-1,0,3,0,-2,1,-1
1480686701466759,-1,-2,1,2,-1,0,-1,-3
1480686701467757,0,1,-1,-1,-2,-2,-1,0
1480686701467757,0,-1,-1,-2,1,0,0,-1
1480686701474273,0,3,0,-1,0,-2,-2,-2
1480686701474273,-2,-2,-3,-3,-2,-2,2,0
1480686701489314,-2,-1,-1,0,-1,-3,-1,0
1480686701489314,0,1,-1,-2,0,1,-2,-1
1480686701490818,1,0,0,-1,1,1,0,1
1480686701490818,0,0,2,-1,0,-2,-2,0
1480686701496334,0,-1,-1,0,-1,-1,-1,-1
1480686701496334,-2,-2,0,-1,0,-1,0,-1
1480686701511876,0,-3,-1,0,-2,-2,-1,-1
1480686701511876,1,-1,-1,0,-1,-1,0,1
1480686701512376,-2,-1,-2,0,0,0,0,-1
1480686701512376,-1,-2,2,-4,-4,-3,0,-1
1480686701533932,1,0,2,4,1,0,0,0
1480686701533932,0,-1,-2,-3,-2,1,-2,-4
1480686701534935,0,0,-1,-1,-1,0,0,1
1480686701534935,-1,1,0,1,1,2,1,1
1480686701547973,-3,0,0,-2,-2,0,0,-1
1480686701547973,0,-1,0,1,0,0,0,0
1480686701555993,-2,-2,-1,-1,2,-1,-1,-1
1480686701555993,-1,1,0,-1,-2,-3,-1,-2
1480686701586576,-1,-1,-1,-1,-2,-1,0,-1
1480686701586576,0,1,0,1,0,0,-1,-2
1480686701587575,-1,-1,0,-1,-1,-1,1,0
1480686701587575,0,-1,-2,0,0,0,1,-1
1480686701594095,0,1,0,-2,-1,1,0,0
1480686701594095,-1,-1,0,-1,-1,-1,-1,0
1480686701609132,-1,0,-1,-2,-1,0,-1,-1
1480686701609132,-1,-1,0,3,1,0,1,-1
1480686701631693,-1,1,-1,-6,-4,-1,-2,0
1480686701631693,-1,-4,-2,-1,1,1,0,-1
1480686701640216,-1,-1,-2,-1,-3,-2,1,0
1480686701640216,0,-2,0,2,0,-2,-2,-1
1480686701642221,-2,-2,-1,0,0,-2,-1,0
1480686701642221,-2,1,-1,3,-1,-1,2,2
1480686701642723,0,0,2,0,0,-1,-1,-1
1480686701642723,-4,-4,-1,-2,-1,-1,1,-2
1480686701656258,-2,-2,0,-1,-3,-3,-2,0
1480686701656258,1,1,-1,0,2,-2,-2,-1
1480686701657261,0,0,-1,0,2,0,-1,0
1480686701657261,0,0,-1,0,0,0,0,-1
1480686701677816,-1,-1,0,-2,1,-1,0,-2
1480686701677816,-1,1,0,0,-1,0,1,0
1480686701678819,0,1,-1,1,1,0,0,0
1480686701678819,0,2,0,-2,-1,-1,-1,0
1480686701699373,-2,-1,-1,-2,-2,-1,-2,-1
1480686701699373,0,1,0,0,-1,0,-1,0
1480686701700376,0,0,-2,-3,-1,-1,1,-1
1480686701700376,0,2,1,1,2,1,0,1
1480686701722438,1,-3,-4,0,0,0,1,-1
1480686701722438,-1,0,-2,-2,-2,0,0,0
1480686701723437,-2,0,0,1,-1,0,-1,-2
1480686701723437,-1,0,0,-1,-1,0,-1,0
1480686701735970,1,1,0,-2,1,0,-2,-1
1480686701735970,-2,-2,0,-2,1,0,-2,-3
1480686701743490,-2,-1,0,-1,-3,-3,0,0
1480686701743490,-1,-1,-2,-2,-2,-2,0,0
1480686701759533,-1,-1,0,2,1,-1,-2,0
1480686701759533,-1,-1,0,-1,-2,0,-1,0
1480686701760034,2,-2,-2,-1,-2,0,-1,-2
1480686701760034,0,-1,-1,-1,-5,0,-1,-2
1480686701774071,-1,0,-1,-1,1,-1,-1,-1
1480686701774071,-1,0,-1,1,1,-1,0,-1
1480686701788611,0,0,0,-4,-1,-1,-1,0
1480686701788611,-1,0,-2,-1,-1,-3,0,0
1480686701796131,0,-3,-2,1,-2,-1,0,0
1480686701796131,-2,-1,-1,-2,2,-2,-2,0
1480686701797137,-2,-1,-1,2,0,1,1,0
1480686701797137,-1,0,-2,1,1,0,0,2
1480686701813683,-1,-1,-2,-1,2,0,0,-1
1480686701813683,0,-2,-1,0,-3,0,-1,-2
1480686701814180,1,0,-1,-1,-1,-2,-3,-1
1480686701814180,0,0,0,-2,0,1,-1,-1
1480686701833731,0,0,0,0,0,-2,-1,-1
1480686701833731,1,-3,-1,-3,-3,-2,-1,1
1480686701834733,-2,1,1,1,0,2,0,-1
1480686701834733,-2,0,1,5,1,-1,-2,0
1480686701856293,-1,1,-1,-2,-1,-1,-1,0
1480686701856293,0,3,-1,-1,-2,-2,-1,-1
1480686701856791,0,-5,0,-1,-2,-2,-1,-1
1480686701856791,1,-1,-1,-3,-3,-2,-1,-1
1480686701871330,-2,0,1,2,-1,0,0,0
1480686701871330,0,1,2,0,-3,-1,1,-1
1480686701871831,-1,0,-5,-1,1,-1,0,1
1480686701871831,0,2,-3,-4,2,2,-1,1
1480686701893388,0,0,1,-2,-4,-2,0,-2
1480686701893388,0,0,0,1,4,5,0,-1
1480686701939010,-1,-1,1,1,-1,-1,1,-1
1480686701939010,0,-2,1,-2,-1,0,-1,0
1480686702023736,-2,2,-2,1,0,0,-2,0
1480686702023736,-1,-1,-1,-1,0,-2,-2,-2
1480686702024738,1,0,1,2,0,-2,-2,-3
1480686702024738,-1,-3,-1,0,0,0,0,0
1480686702026242,-2,-3,0,-1,-2,0,-2,0
1480686702026242,-1,0,0,0,-3,-1,-1,0
1480686702045798,-1,-1,-1,2,3,1,0,0
1480686702045798,0,0,-1,-2,-2,-1,1,-1
1480686702046802,0,0,-1,-2,-1,1,0,0
1480686702046802,0,0,-2,0,-3,-2,-1,0
1480686702047300,-1,-1,-2,-2,1,1,0,0
1480686702047300,1,2,1,2,2,-2,0,-1
1480686702052311,-3,-3,0,4,3,0,2,-1
1480686702052311,-2,-1,-1,-1,1,1,-1,-2
1480686702052813,0,-2,-1,1,-1,-2,-1,0
1480686702052813,-1,0,-2,-1,-1,-1,-1,-1
1480686702068354,0,0,0,1,-3,-1,0,1
1480686702068354,-1,0,2,-2,-1,1,-1,-1
1480686702069360,-1,0,-3,0,-2,-1,-3,-1
1480686702069360,0,-4,-2,0,-1,0,-1,-2
1480686702073868,1,-2,-1,-2,-1,-2,1,1
1480686702073868,0,-1,2,0,3,0,2,3
1480686702074371,0,-2,-1,1,-1,-1,1,-1
1480686702074371,-2,-1,0,-2,-1,-1,0,1
1480686702095929,-1,0,0,1,2,-1,-1,0
1480686702095929,-1,0,-1,1,-3,-1,0,-2
1480686702096932,-1,2,1,-4,-2,-1,-1,-1
1480686702096932,-2,-3,0,2,4,0,1,0
1480686702110968,0,0,-1,-4,-3,-5,-2,0
1480686702110968,0,1,-1,0,-1,-2,-1,-2
1480686702111970,1,0,-2,-2,-1,-1,1,1
1480686702111970,2,0,-1,-4,-4,1,-1,-2
1480686702133527,0,0,-1,-2,0,1,-1,-1
1480686702133527,-1,-3,-1,-1,-1,0,1,0
1480686702134530,1,-3,1,0,2,2,-1,-1
1480686702134530,0,0,0,0,-1,-1,2,1
1480686702156087,0,0,-1,-2,-2,-1,-2,-1
1480686702156087,0,-1,-4,1,0,-1,0,-1
1480686702163610,-1,2,1,0,-4,-2,-3,-2
1480686702163610,-1,0,1,0,-2,0,1,1
1480686702171633,-2,0,1,1,0,1,0,-1
1480686702171633,0,0,0,1,3,1,0,-2
1480686702178648,-1,-1,-2,-1,-2,-2,0,0
1480686702178648,1,-1,-2,0,3,-1,-1,-1
1480686702194189,-1,1,-2,-1,-3,-1,-1,-1
1480686702194189,0,-1,1,-2,-3,-3,-2,0
1480686702195194,-1,-1,-1,1,-1,-2,-1,-2
1480686702195194,-2,1,-4,-3,-2,-1,-1,-1
1480686702255857,-2,-3,0,-1,0,-2,-1,-2
1480686702255857,-1,-2,-3,-3,-1,-1,0,0
1480686702256354,-1,-1,1,2,1,2,-1,0
1480686702256354,1,1,0,3,-2,0,-1,0
1480686702257858,-2,-1,-1,-1,0,-2,0,-1
1480686702257858,-1,0,0,-2,-1,0,-2,0
1480686702278414,0,-1,0,-1,-1,1,2,-1
1480686702278414,-1,-1,1,-2,-2,1,0,0
1480686702330553,0,-1,-1,0,2,2,1,-1
1480686702330553,1,-1,-1,-1,-4,-2,-2,-1
1480686702332055,-1,1,-1,-1,-2,-1,-1,-1
1480686702332055,-3,-1,-1,-1,0,-1,0,-1
1480686702333058,-1,-1,0,0,2,-1,-1,0
1480686702333058,0,-1,-1,0,-3,-2,0,1
1480686702354114,0,-1,0,-2,-3,0,-1,-1
1480686702354114,0,1,-1,1,1,1,-1,-2
1480686702354615,-2,0,-3,-1,-1,-2,0,-1
1480686702354615,0,-1,-1,-3,-1,-2,-2,-2
1480686702355618,-2,0,-4,1,-1,-1,-2,-1
1480686702355618,0,-2,-1,-1,0,0,0,-2
1480686702367650,1,1,1,0,0,0,1,0
1480686702367650,0,0,-2,-1,1,-1,-1,-1
1480686702369153,3,2,1,-1,-2,-2,-1,0
1480686702369153,-2,-1,-1,-1,-3,1,-1,1
1480686702373164,0,-1,3,-2,-1,-1,0,-1
1480686702373164,-2,-1,-1,-1,-1,-2,0,-1
1480686702381185,0,0,-2,2,-2,-3,-2,-1
1480686702381185,-1,-2,0,-1,-3,-1,0,0
1480686702396228,-1,-1,-4,0,3,0,-2,0
1480686702396228,-2,0,3,-2,-1,-1,1,-1
1480686702396728,-1,-3,2,0,0,-1,1,-1
1480686702396728,0,1,-1,-1,0,-3,-1,-3
1480686702411274,-1,-2,-2,-2,-3,-1,-2,-2
1480686702411274,1,1,0,-1,0,1,-1,1
1480686702411768,-1,-6,0,0,-3,2,-1,-1
1480686702411768,-1,-1,-2,-2,1,0,-1,0
1480686702433826,1,1,0,0,0,1,-1,1
1480686702433826,-2,-1,0,1,0,-1,-2,0
1480686702434327,1,1,-2,-1,0,-3,-2,-2
1480686702434327,-1,-1,-1,-2,-3,0,1,0
1480686702456385,-1,-1,-1,0,1,-1,2,1
1480686702456385,1,1,0,0,3,0,-1,0
1480686702457389,0,1,0,0,1,-1,-1,-1
1480686702457389,0,-1,1,-1,-3,-2,-2,-1
1480686702479448,-2,1,0,-1,-1,-3,-1,-2
1480686702479448,0,-2,1,2,-1,0,1,-1
1480686702480452,-2,-1,0,1,0,-1,-1,1
1480686702480452,1,1,0,1,1,0,-2,-1
1480686702524065,-1,-1,2,1,-3,-2,-1,1
1480686702524065,-1,0,-1,-1,1,-1,0,-2
1480686702525069,2,0,-1,-2,0,-1,0,0
1480686702525069,-2,-2,-2,-2,-4,-3,0,0
1480686702555649,-1,0,0,-1,1,1,-1,-2
1480686702555649,-3,-3,0,2,1,1,0,1
1480686702556652,2,0,1,-3,-2,-1,-2,-1
1480686702556652,1,-2,-2,4,6,3,1,-1
1480686702558157,0,-2,-1,-1,-3,-3,0,-1
1480686702558157,-1,0,-1,-3,-1,-4,-3,-1
1480686702577209,-1,0,-2,1,0,0,-1,-1
1480686702577209,0,0,1,1,-1,-2,1,0
1480686702608290,0,-2,-1,0,-1,-1,0,1
1480686702608290,1,1,-1,0,3,1,-1,0
1480686702609795,-2,1,-1,0,-2,0,0,0
1480686702609795,0,0,-1,-1,-2,1,-1,0
1480686702610798,0,-2,0,-2,-3,-1,-2,-2
1480686702610798,-1,1,0,-3,-3,-1,-1,0
1480686702623832,-1,1,-1,-1,2,1,1,0
1480686702623832,0,-3,1,-1,-4,-3,-1,-1
1480686702626339,-2,1,-1,0,2,0,1,-1
1480686702626339,-1,-1,0,0,0,1,-1,-1
1480686702627342,0,-1,-1,-1,-2,-1,0,0
1480686702627342,0,0,0,0,1,-2,0,0
1480686702628845,1,1,-1,0,0,0,1,-1
1480686702628845,1,-1,2,0,-1,0,-2,0
1480686702644386,-1,-1,-1,-1,7,3,1,-1
1480686702644386,-2,2,-2,-2,-1,2,2,-1
1480686702645388,-3,-2,-1,-2,-3,-3,-2,0
1480686702645388,2,-1,-2,-1,0,-1,0,-1
1480686702650402,2,-2,1,0,-4,-2,0,0
1480686702650402,1,-2,0,-1,-3,0,-2,0
1480686702658925,0,0,-1,-1,0,-1,-2,-1
1480686702658925,0,0,-1,0,-1,-2,1,1
1480686702673463,-1,1,-1,-1,-1,0,-1,0
1480686702673463,1,2,-2,-2,0,-1,-1,-2
1480686702674467,-1,-4,0,0,-2,0,-2,-1
1480686702674467,-1,0,1,-1,-1,-2,-2,0
1480686702696026,0,-3,-2,0,2,-1,-1,-2
1480686702696026,-1,-2,-3,1,-2,0,-2,0
1480686702697032,0,-1,-1,0,4,1,1,-1
1480686702697032,-1,-2,0,-1,0,1,1,-1
1480686702710562,0,-1,1,1,-3,0,-2,0
1480686702710562,0,-2,-1,1,-3,-3,-1,-2
1480686702718582,-1,-1,-1,1,0,1,1,1
1480686702718582,0,1,4,0,0,-1,1,-1
1480686702734124,-2,0,-7,0,-1,0,-2,-2
1480686702734124,-2,-2,-3,-2,-1,-1,-2,-1
1480686702735129,1,-1,-2,-2,-1,-1,-1,2
1480686702735129,0,1,-2,-2,-1,-2,-2,0
1480686702756183,-2,-3,0,0,-1,0,0,0
1480686702756183,-1,-3,-1,3,0,1,-1,-1
1480686702756684,0,-1,-2,-5,-1,-1,-1,-1
1480686702756684,0,-3,-1,0,-2,1,-1,-2
1480686702778242,0,0,1,2,2,0,-1,0
1480686702778242,-1,0,-3,0,0,-1,0,-1
1480686702786764,0,-2,1,0,-1,0,1,-1
1480686702786764,-2,2,-3,0,-1,-2,-1,0
1480686702811329,0,0,0,-3,0,-2,-1,0
1480686702811329,0,0,1,-2,1,-1,0,-1
1480686702832886,-2,1,2,-1,-2,-1,-2,-1
1480686702832886,1,0,1,-1,0,2,-1,-1
1480686702834892,1,-3,-6,-1,0,-1,0,-1
1480686702834892,-1,0,0,-6,-2,0,-2,0
1480686702835394,0,-1,1,-1,-2,-1,0,-1
1480686702835394,-2,-2,1,2,-1,1,0,-1
1480686702885025,-3,0,2,0,-3,-1,-1,0
1480686702885025,1,-1,1,-4,-1,0,-1,0
1480686702900567,0,2,0,-2,5,0,0,0
1480686702900567,-1,-1,-1,1,1,-2,0,-1
1480686702902071,6,3,-4,-4,-3,-3,0,2
1480686702902071,-5,-2,2,2,1,-1,-1,-3
1480686702903074,-1,2,4,2,-2,0,0,-1
1480686702903074,-1,-2,0,-1,-1,-1,0,-1
1480686702908588,1,1,12,1,-1,0,0,1
1480686702908588,5,4,13,4,1,-1,1,1
1480686702922625,-6,-7,-27,-3,-1,-1,-1,-3
1480686702922625,1,1,0,-2,-1,-2,0,-1
1480686702923127,-3,0,4,0,1,1,-2,-2
1480686702923127,-3,0,3,-1,0,1,0,-1
1480686702924130,2,1,9,0,3,-3,0,0
1480686702924130,-3,-3,-6,-3,-1,0,1,-1
1480686702936161,-2,-2,4,-1,1,1,1,0
1480686702936161,1,-2,0,2,-1,-2,-2,0
1480686702937164,0,1,1,0,-2,0,0,1
1480686702937164,1,0,-4,0,2,0,1,-1
1480686702959224,0,0,5,-1,-1,-1,0,-2
1480686702959224,-2,0,-7,-3,-2,-2,-1,0
1480686702960226,-2,-1,0,0,-4,-1,-1,-1
1480686702960226,0,-1,2,-1,1,-4,-1,1
1480686702973761,-1,1,1,-3,-2,0,-1,-2
1480686702973761,-1,-1,-6,0,1,0,1,-1
1480686702974263,0,-3,3,-1,-1,-1,-2,-1
1480686702974263,1,-3,1,-3,-3,0,-1,-1
1480686702996823,0,-1,2,0,-2,0,0,-1
1480686702996823,-1,1,-4,1,1,0,-1,-1
1480686703003842,-1,0,2,0,-3,-3,0,1
1480686703003842,-1,1,-1,1,5,1,0,-1
1480686703020384,-1,-1,-1,1,1,1,-1,-1
1480686703020384,-1,0,1,0,-2,0,-1,-1
1480686703020888,1,1,-1,1,-2,1,-1,-2
1480686703020888,-1,2,-2,0,-1,0,-1,1
1480686703033423,-1,-3,-2,-1,-2,-2,-1,-2
1480686703033423,1,1,-2,-7,-1,-1,-1,0
1480686703034423,0,0,-2,1,1,1,-1,0
1480686703034423,1,-2,-2,0,-2,0,0,-1
1480686703056481,0,1,1,0,0,0,-1,-2
1480686703056481,-1,-1,1,1,1,-1,0,-2
1480686703063507,0,0,-7,-5,0,0,1,0
1480686703063507,-1,2,2,-1,-1,-1,-2,-2
1480686703086562,0,-1,1,0,2,2,0,0
1480686703086562,-2,-1,0,-1,-2,-2,-1,1
1480686703087564,-1,-3,-12,-1,0,-1,1,-1
1480686703087564,1,0,-1,0,-1,-1,-2,-1
1480686703111629,1,-3,-3,0,-3,0,-1,-1
1480686703111629,0,-1,0,0,-2,1,0,2
1480686703112130,-1,0,7,3,1,-1,1,1
1480686703112130,-2,0,-1,-1,-1,2,0,0
1480686703178306,-1,-1,-1,0,-1,-2,-1,-1
1480686703178306,-1,-3,-2,-2,-1,1,0,-1
1480686703178807,-1,0,1,3,-1,-2,-1,0
1480686703178807,-1,0,-2,-4,-4,-1,-1,-1
1480686703180811,-1,1,0,1,-2,-4,0,1
1480686703180811,-1,-2,-1,-1,2,1,0,-1
1480686703184823,-1,1,3,-1,-1,1,-1,1
1480686703184823,-1,-1,-1,0,-1,-1,-1,0
1480686703186828,0,1,-3,-2,-1,-2,-1,-1
1480686703186828,0,-3,-2,-2,-3,-2,-1,-2
1480686703199865,-1,-1,-1,1,-2,-2,-1,-1
1480686703199865,-2,-1,-2,2,-1,0,0,0
1480686703200364,1,1,-2,-4,-2,-2,-1,-1
1480686703200364,-1,-1,0,2,1,-1,0,-1
1480686703221922,0,-1,-1,0,1,0,1,1
1480686703221922,-2,1,0,1,-1,0,-1,-3
1480686703222424,0,0,0,1,-1,-1,-1,-1
1480686703222424,0,-1,-2,-4,1,0,1,-2
1480686703235959,1,0,2,0,-2,0,1,0
1480686703235959,0,1,-2,1,4,-1,0,1
1480686703236962,-1,1,1,0,-1,-1,0,0
1480686703236962,-1,-2,0,0,-1,-2,-2,0
1480686703258519,-2,-1,-1,-1,0,2,-1,0
1480686703258519,-2,-1,-1,-4,-5,-2,-2,-1
1480686703259529,-2,-2,-2,-5,-2,1,1,-1
1480686703259529,0,-2,-2,0,0,0,0,0
1480686703273558,-1,0,-2,-1,-1,-1,-2,0
1480686703273558,-1,0,-1,0,0,-2,1,0
1480686703274562,-2,-1,-1,-1,2,1,-1,1
1480686703274562,2,-1,-1,-1,-1,-2,-1,-1
1480686703297622,1,-5,0,0,-2,-3,-1,-1
1480686703297622,1,-1,0,-1,1,-1,1,-1
1480686703298626,1,-1,1,-3,-3,0,1,-1
1480686703298626,-1,0,4,5,3,4,1,1
1480686703318678,0,-1,-3,-4,1,1,0,0
1480686703318678,0,-1,3,0,-1,0,-2,0
1480686703319179,1,-1,0,-1,2,0,-1,-1
1480686703319179,-2,-1,-1,-2,-5,-1,-1,0
1480686703343244,0,2,-1,1,0,-3,0,-1
1480686703343244,-1,-5,-1,-7,-4,-2,-1,-1
1480686703344248,-1,-3,-2,1,0,1,0,-1
1480686703344248,0,-1,0,2,-1,-2,-1,-1
1480686703387862,-1,1,1,-1,1,2,1,0
1480686703387862,0,-1,-1,0,-1,-1,-1,-1
1480686703388865,0,0,0,0,-1,0,0,-2
1480686703388865,-1,-2,-2,-3,-2,0,0,0
1480686703390369,1,0,-1,0,-2,0,1,-3
1480686703390369,-3,-2,0,1,1,-1,1,0
1480686703410424,-1,-1,-2,-2,2,0,0,1
1480686703410424,0,0,1,-1,1,-1,1,2
1480686703412432,-1,-1,-2,-1,-1,0,0,0
1480686703412432,1,-1,-2,-2,-1,-3,-1,0
1480686703423958,-2,-2,1,-1,-2,-2,0,0
1480686703423958,-1,-1,-2,-3,0,-1,-1,-1
1480686703438497,1,0,0,-2,1,0,-3,-1
1480686703438497,0,0,-4,-2,-2,-1,-1,-1
1480686703455542,-1,-3,-2,-1,-2,0,0,-2
1480686703455542,-1,1,1,0,-1,2,-1,-1
1480686703457050,-1,-1,-1,2,0,-1,1,1
1480686703457050,-1,0,1,1,-1,1,1,0
1480686703458049,-2,-1,-4,-3,0,0,-1,0
1480686703458049,-1,-2,0,2,-3,-3,0,-2
1480686703463569,-2,-1,0,-1,-1,-1,-1,-2
1480686703463569,0,0,0,1,3,1,-1,-2
1480686703464071,-1,2,3,1,-3,-2,-1,0
1480686703464071,-1,0,0,0,2,0,1,0
1480686703476600,-3,-3,-1,0,0,-1,1,1
1480686703476600,1,2,-1,-1,-2,-4,1,0
1480686703477601,-1,-1,-1,-1,0,0,-1,-1
1480686703477601,-1,0,0,-3,1,-2,-1,1
1480686703498657,0,0,0,3,1,0,-1,0
1480686703498657,0,1,-4,-2,-1,1,1,1
1480686703499660,-2,-2,-1,0,-1,-1,0,0
1480686703499660,-1,-4,-1,1,-1,-2,0,-2
1480686703513203,0,1,0,-1,-1,-1,1,0
1480686703513203,-1,-2,-1,0,1,0,-1,-3
1480686703521217,1,2,2,3,2,0,1,1
1480686703521217,0,0,-3,1,1,2,-1,-1
1480686703536257,-2,-1,-1,-2,0,1,0,-1
1480686703536257,0,-1,3,-1,-3,-2,-1,-2
1480686703536759,-1,-2,-1,-3,-4,-4,-1,-1
1480686703536759,1,0,0,0,-3,-1,0,-2
1480686703567340,0,-1,2,2,3,2,0,0
1480686703567340,-1,-5,-2,-2,0,-1,-1,0
1480686703574358,1,-1,-1,1,0,0,-1,-2
1480686703574358,-1,1,-1,-1,0,-1,-2,0
1480686703575863,-1,-1,-2,-2,-1,-4,-2,0
1480686703575863,-1,-1,0,-2,2,2,-1,1
1480686703581377,0,2,0,-1,-2,0,0,-1
1480686703581377,-1,-1,-2,-3,-1,-2,1,-1
1480686703596422,1,1,1,-1,-1,1,-1,-1
1480686703596422,-2,-1,-3,0,1,0,-1,-1
1480686703596923,-2,-2,-1,1,-2,-1,-2,-1
1480686703596923,0,0,0,-2,0,0,0,0
1480686703618476,-1,-1,-1,0,2,1,0,1
1480686703618476,1,0,2,0,-2,0,0,-2
1480686703619480,1,-1,-4,-4,1,1,-1,-2
1480686703619480,-2,0,0,-1,-3,1,1,-1
1480686703665606,0,1,0,-2,-2,-2,1,0
1480686703665606,-1,-1,0,2,2,0,-2,0
1480686703666604,-1,1,-1,-3,-1,-1,0,-1
1480686703666604,-1,-2,-1,0,1,-1,0,0
1480686703668108,-1,1,-1,-2,-3,-1,-1,-2
1480686703668108,0,1,1,-2,-1,-1,1,0
1480686703685654,0,-1,0,-1,0,0,0,-1
1480686703685654,-1,-2,-1,-1,-1,0,-2,-2
1480686703695683,-1,-1,-1,0,0,0,-1,-2
1480686703695683,-2,-3,0,-2,1,1,0,1
1480686703708715,0,1,-2,0,0,0,-1,1
1480686703708715,1,-1,0,0,0,-1,-2,-1
1480686703718742,-1,-1,0,0,0,-1,0,-1
1480686703718742,-1,2,0,-1,-2,-1,-2,-2
1480686703719745,0,-2,0,-2,0,-3,1,-1
1480686703719745,-1,-1,0,-2,-1,0,-2,1
1480686703731778,-1,0,-2,-1,-2,0,-2,-2
1480686703731778,1,0,-2,1,0,0,-1,0
1480686703732781,0,1,-1,0,1,0,0,0
1480686703732781,-1,0,-1,0,0,0,0,1
1480686703738795,-1,-2,1,0,0,0,-1,0
1480686703738795,0,1,-1,-1,0,1,-1,0
1480686703739297,1,-1,-1,0,0,-1,0,0
1480686703739297,0,-1,-1,-1,-2,-1,0,0
1480686703754338,-1,-1,0,-1,-2,-1,-2,-2
1480686703754338,-1,-1,-1,-2,-1,-1,1,0
1480686703761357,-2,1,0,-2,1,1,-2,-2
1480686703761357,-1,-1,0,-1,-2,-1,-2,-1
1480686703776396,1,-1,-3,-2,0,-1,-1,1
1480686703776396,-1,0,-1,0,1,-2,0,-1
1480686703777399,-1,2,-1,0,1,-1,1,0
1480686703777399,-1,0,0,0,-1,-3,1,0
1480686703798454,0,-3,0,1,1,1,0,1
1480686703798454,-2,-1,-1,1,3,0,-1,0
1480686703799458,-1,-2,-1,-1,-3,-1,0,0
1480686703799458,1,3,0,-1,-1,0,8,34
1480686703821014,-1,-7,-1,0,-2,-1,-5,-21
1480686703821014,-4,-2,0,0,-1,-4,-7,-23
1480686703853101,-2,0,0,-1,-1,0,-4,-4
1480686703853101,0,0,0,0,1,0,-1,-5
1480686703854604,1,2,0,-1,3,1,2,15
1480686703854604,3,0,-2,-3,-3,-1,2,8
1480686703855607,0,-2,-1,2,-2,-2,-1,-2
1480686703855607,-2,-2,-1,-2,-2,-2,-2,-3
1480686703875159,-1,2,0,-1,0,-2,2,2
1480686703875159,1,-2,-1,0,-1,-1,0,-2
1480686703875660,1,-1,-1,-1,0,0,1,3
1480686703875660,0,1,-1,0,1,1,-2,-6
1480686703896717,0,2,0,-1,-2,-1,-2,-3
1480686703896717,-3,-4,-2,-1,-2,-1,0,2
1480686703920779,0,-3,-1,0,1,1,1,2
1480686703920779,1,-1,0,-4,-3,-1,-2,-7
1480686703922284,0,-1,-1,2,-2,-2,-2,-3
1480686703922284,0,2,0,0,-3,0,1,4
1480686703922785,0,1,1,2,1,0,-1,-2
1480686703922785,-1,-3,-1,2,4,2,-3,-6
1480686703936321,-2,0,-1,-6,-3,-2,0,2
1480686703936321,0,2,-1,-2,-3,-3,-2,1
1480686703937324,0,-3,-1,0,0,-2,-1,0
1480686703937324,0,-3,0,1,-1,0,-1,-4
1480686703943341,0,-3,-1,0,1,0,1,2
1480686703943341,-1,0,3,-1,0,0,3,2
1480686703944345,-2,0,-1,-2,-1,0,-2,-3
1480686703944345,-1,-2,-2,1,-2,-2,-3,-3
1480686703956375,2,0,0,0,1,0,0,1
1480686703956375,1,-1,0,0,-1,0,-2,0
1480686703957378,-1,1,0,-1,-1,-1,-2,1
1480686703957378,0,-2,-1,1,-1,0,-1,-1
1480686703979937,-1,-1,0,-1,1,1,-1,0
1480686703979937,-2,-4,-1,0,-1,0,2,1
1480686703985953,-1,-1,2,0,1,-1,1,1
1480686703985953,0,3,0,0,-1,1,-1,-1
1480686704009516,0,-2,-1,0,-3,-2,-2,0
1480686704009516,-2,0,-2,-1,2,0,0,0
1480686704010018,1,-1,-1,3,-3,0,-1,0
1480686704010018,-1,0,-1,-3,0,0,2,1
1480686704016033,-2,0,1,-1,-1,0,-3,-5
1480686704016033,1,2,-2,-1,-2,0,-1,-3
1480686704017036,-2,0,-3,-7,-3,-1,-1,-2
1480686704017036,1,0,-2,-1,-4,-3,-1,-1
1480686704038593,-1,-1,-2,-3,-3,-2,0,2
1480686704038593,-2,0,-1,1,1,1,0,0
1480686704039596,0,-3,1,0,-1,-1,0,0
1480686704039596,0,3,-1,-1,5,0,1,0
1480686704061656,-2,-2,-1,0,-1,-3,1,0
1480686704061656,0,1,0,1,-1,-1,0,1
1480686704062658,-1,-1,-2,-2,-1,1,1,-4
1480686704062658,-2,-1,0,1,0,-2,-3,-1
1480686704108279,1,0,-1,0,2,0,-1,-2
1480686704108279,1,0,-1,0,0,0,2,1
1480686704108780,0,-2,-1,0,-2,-1,-2,2
1480686704108780,0,-2,0,-1,0,1,-1,-3
1480686704110785,0,0,-1,-4,0,-2,-2,-1
1480686704110785,-1,-2,1,0,0,1,1,1
1480686704113291,0,1,-1,0,1,-2,2,0
1480686704113291,-1,0,-2,-4,-4,-3,-4,-5
1480686704136352,-1,0,-1,0,-1,0,-1,1
1480686704136352,0,-2,2,2,5,-1,-2,1
1480686704153399,1,0,0,1,2,1,-1,-1
1480686704153399,-1,-2,0,3,1,3,2,1
1480686704155403,-1,-1,-1,-2,0,0,0,1
1480686704155403,0,0,-3,-3,-6,-1,-2,-3
1480686704155905,1,1,-1,0,-4,-1,0,1
1480686704155905,0,-3,0,0,0,-1,-1,-1
1480686704183979,-1,0,-1,1,0,2,2,1
1480686704183979,0,1,-2,-1,-1,0,-1,0
1480686704184982,-2,-5,-1,0,0,-1,-2,-4
1480686704184982,-1,0,-1,-1,-1,-1,-1,0
1480686704198018,-2,-1,0,3,0,0,0,-1
1480686704198018,-1,-3,-1,-1,-2,0,-1,0
1480686704199020,1,1,-1,-2,-2,-2,0,2
1480686704199020,-2,-2,-2,1,-1,1,0,-3
1480686704200524,0,0,0,0,1,0,-1,1
1480686704200524,-1,-3,0,0,0,1,-1,-1
1480686704203531,-2,-1,0,-1,-2,-1,-1,-1
1480686704203531,-2,0,-1,-1,-2,-2,0,0
1480686704218571,0,-2,0,1,0,0,1,0
1480686704218571,0,0,0,0,0,0,-2,0
1480686704219574,-2,0,-2,-2,-1,1,0,3
1480686704219574,-1,1,-1,0,1,0,0,-3
1480686704241634,-1,-5,-1,-1,-1,-1,0,-2
1480686704241634,-1,-1,-3,-3,-1,-2,-2,-3
1480686704242635,0,1,0,0,0,-1,0,-1
1480686704242635,0,-2,-1,-1,0,-3,-1,2
1480686704256172,0,0,-1,0,-2,-1,-2,-1
1480686704256172,-1,0,0,-2,-4,-2,2,-2
1480686704257174,-1,0,0,3,6,4,-1,0
1480686704257174,-1,-1,0,-3,-1,0,-1,-2
1480686704286753,0,1,-2,-3,-2,-2,-2,-2
1480686704286753,-1,-1,-1,1,-1,0,0,0
1480686704287755,0,-3,-1,1,-4,-3,-3,0
1480686704287755,-2,-3,1,-4,2,0,0,-2
1480686704309316,-1,-1,-1,-1,0,1,1,1
1480686704309316,0,-1,-1,2,3,0,0,-2
1480686704310317,-1,-2,-2,-1,-2,-1,0,-1
1480686704310317,-1,-2,-3,0,-2,0,0,2
1480686704316331,-2,0,-2,-1,-3,-2,0,-4
1480686704316331,1,0,1,-1,2,0,1,4
1480686704316833,0,1,-1,-1,-3,-1,1,-3
1480686704316833,-1,1,-1,-2,0,-1,-2,-1
1480686704338891,1,0,0,-1,-1,1,-1,0
1480686704338891,0,-1,-1,1,0,-3,0,-1
1480686704363458,0,1,1,0,0,0,0,0
1480686704363458,2,-1,1,1,-4,-1,2,3
1480686704364961,0,0,1,-1,-1,-2,-2,0
1480686704364961,0,0,1,-1,1,1,-1,-1
1480686704365465,-2,-1,-2,-5,-3,-1,-1,0
1480686704365465,-2,-2,-1,0,1,-2,-1,-1
1480686704386017,0,0,1,2,2,-2,2,1
1480686704386017,0,-1,1,-2,-2,1,-1,-1
1480686704386518,0,-2,-1,0,1,1,0,-2
1480686704386518,0,0,-2,-1,2,2,0,-2
1480686704406572,0,0,-2,0,-2,0,-1,0
1480686704406572,-2,0,-1,0,-1,-1,-1,-1
1480686704407574,-1,-2,-2,-2,0,-1,0,2
1480686704407574,-1,-3,0,-1,0,2,0,-3
1480686704421611,0,-1,0,1,2,0,0,-4
1480686704421611,-2,-1,-1,-3,-2,0,-3,-1
1480686704429136,0,-1,0,0,0,-1,0,0
1480686704429136,-1,0,-1,-1,-1,-3,-2,1
1480686704435649,-1,-1,0,-1,-3,-2,1,0
1480686704435649,-1,-1,-1,-2,1,0,0,1
1480686704451190,0,-2,1,-1,1,0,0,-3
1480686704451190,1,0,0,4,-2,-1,0,2
1480686704458711,-1,-1,-1,-5,0,0,0,-1
1480686704458711,-2,-2,-1,0,0,-1,-1,-1
1480686704459212,0,0,0,1,-1,-2,-2,1
1480686704459212,-1,0,-1,1,0,0,-1,-1
1480686704489291,-1,1,-1,1,0,1,-1,1
1480686704489291,0,-2,-2,-1,-2,-3,-1,-1
1480686704490294,1,1,0,-2,-1,0,0,-2
1480686704490294,1,-1,1,0,-2,1,0,0
1480686704495308,0,1,0,-1,2,-1,0,0
1480686704495308,-1,-1,-2,-2,-1,-2,-2,-2
1480686704510848,-1,1,-2,0,-1,0,-1,-1
1480686704510848,0,1,-3,-2,-1,-3,1,4
1480686704520374,0,0,0,1,-2,1,1,-3
1480686704520374,-2,0,-2,2,0,-2,-6,-3
1480686704520875,-1,-1,-3,-2,-1,0,-2,-1
1480686704520875,-1,3,-1,0,-2,-1,-2,0
1480686704541932,-3,-2,-1,0,1,0,1,4
1480686704541932,2,1,2,0,-1,-1,1,2
1480686704542438,-1,-4,-3,0,0,-2,-1,-2
1480686704542438,0,-1,-1,-2,-2,-1,0,-1
1480686704555468,0,0,0,1,0,1,0,2
1480686704555468,-1,1,0,-1,0,-2,0,-1
1480686704571009,-1,1,-1,-2,0,0,0,-1
1480686704571009,0,-1,0,-1,0,0,1,0
1480686704587051,-1,-1,0,-4,-6,-4,-2,-3
1480686704587051,0,2,-1,-1,0,1,-1,0
1480686704588054,0,-2,2,-1,-3,-2,0,1
1480686704588054,-1,-1,-2,1,-2,-2,-1,-2
1480686704609111,0,0,-1,-4,-1,-1,-2,-1
1480686704609111,0,2,0,0,2,1,-1,-1
1480686704617632,0,0,-2,4,-1,-3,-3,-1
1480686704617632,-1,-3,0,-4,1,-1,-1,-2
1480686704619137,-1,0,1,2,1,1,-1,0
1480686704619137,0,0,0,1,-2,-1,1,0
1480686704631168,0,-2,-1,-1,2,0,0,1
1480686704631168,1,2,2,-2,-2,1,0,-1
1480686704640192,0,-4,-2,6,-5,-3,-1,-2
1480686704640192,0,-4,-2,-7,-1,-1,0,-3
1480686704641696,-1,1,1,0,8,3,-1,1
1480686704641696,-3,1,-3,-4,0,0,-2,-3
1480686704663254,1,2,-1,-3,1,1,-1,1
1480686704663254,-1,1,1,4,-2,0,-1,1
1480686704664258,0,1,-1,2,-5,-2,-1,-6
1480686704664258,-1,0,-2,-3,1,-1,-1,-1
1480686704690828,-2,-2,-1,3,1,-1,-1,0
1480686704690828,-1,-1,0,-2,-2,0,0,0
1480686704714892,1,1,1,-2,-1,0,0,1
1480686704714892,-1,0,-2,0,-2,-1,0,-4
1480686704716395,-1,2,-1,-1,-1,0,-1,0
1480686704716395,0,-3,-2,-1,1,1,0,1
1480686704722411,1,1,-2,-1,1,0,2,0
1480686704722411,0,-2,1,3,0,-1,-1,-2
1480686704723915,0,1,2,2,-1,-1,-1,-1
1480686704723915,-1,-1,-2,-5,-1,1,0,-3
1480686704724919,-1,-1,-1,-2,-4,-3,-1,0
1480686704724919,0,0,-2,0,-2,-2,0,-1
1480686704736950,-1,-1,0,5,0,-1,-2,1
1480686704736950,-2,0,0,2,1,0,-1,-1
1480686704743467,-1,-1,-1,-4,-1,-1,0,0
1480686704743467,0,1,1,-2,0,0,0,2
1480686704767030,1,0,-2,-4,-2,0,0,-1
1480686704767030,0,-1,0,7,3,-2,-1,-6
1480686704767531,0,-2,-1,1,2,-1,0,-1
1480686704767531,-2,-3,-1,0,0,0,0,1
1480686704790091,-2,-2,-1,-1,2,0,1,-1
1480686704790091,1,2,-1,-1,-3,0,1,0
1480686704790593,-2,1,-2,-2,-3,0,-1,-2
1480686704790593,1,1,0,1,1,-1,-2,-1
1480686704804129,-2,-5,-1,-3,0,-1,-1,0
1480686704804129,-3,-2,-2,-3,-2,1,-1,-1
1480686704819669,-2,-1,0,0,-1,1,0,-1
1480686704819669,2,-1,0,2,-1,0,-1,0
1480686704821675,-1,0,0,-4,-2,0,-1,-2
1480686704821675,-1,1,-2,-3,1,1,-1,0
1480686704822177,1,-1,1,2,-1,-1,-2,0
1480686704822177,-1,-1,-2,1,-1,0,-1,1
1480686704841228,-1,-1,-1,-4,0,-2,-1,-5
1480686704841228,2,5,0,1,-5,-4,-1,1
1480686704841729,-2,3,1,1,-2,0,0,0
1480686704841729,-1,0,-2,1,4,1,1,0
1480686704872310,2,-5,1,-3,-1,1,2,3
1480686704872310,-4,-2,-1,3,0,-1,-5,-3
1480686704873315,2,3,-1,-6,-2,-1,0,0
1480686704873315,-4,-10,-2,3,0,-4,-2,0
1480686704878828,0,1,-1,-2,-4,0,-1,0
1480686704878828,0,0,-2,-2,2,1,2,1
1480686704879329,-3,-7,0,4,0,0,1,0
1480686704879329,0,2,-1,-3,2,3,2,0
1480686704902391,0,0,0,-1,-1,-1,0,-2
1480686704902391,-1,-3,-1,0,-2,1,0,0
1480686704916426,1,0,1,-1,0,-1,0,2
1480686704916426,0,2,-1,-6,-5,-2,-2,-6
1480686704923445,-1,-1,0,3,0,-1,0,1
1480686704923445,1,0,1,-2,-3,-1,0,1
