timestamp,roll,pitch,yaw
1480686688537868,-0.726126,0.157835,-2.50174
1480686688567447,-0.726177,0.157647,-2.50228
1480686688599032,-0.725995,0.157257,-2.50238
1480686688601538,-0.726199,0.156578,-2.50256
1480686688626103,-0.727046,0.156091,-2.50249
1480686688650167,-0.727222,0.156023,-2.5025
1480686688681751,-0.726936,0.156002,-2.50262
1480686688709826,-0.726796,0.155963,-2.50257
1480686688725870,-0.726832,0.155855,-2.50254
1480686688734391,-0.726832,0.155855,-2.50254
1480686688754946,-0.726828,0.15581,-2.50262
1480686688769985,-0.726968,0.15585,-2.50267
1480686688777004,-0.727204,0.155948,-2.50298
1480686688800066,-0.727861,0.155647,-2.50333
1480686688822626,-0.728657,0.155239,-2.50368
1480686688846189,-0.729027,0.15477,-2.50411
1480686688860227,-0.729784,0.154572,-2.50463
1480686688892311,-0.72989,0.154617,-2.50458
1480686688903842,-0.72989,0.154617,-2.50458
1480686688935933,-0.72996,0.154503,-2.50464
1480686688958994,-0.72982,0.154464,-2.50459
1480686688974035,-0.729923,0.154464,-2.50463
1480686688980049,-0.729711,0.154788,-2.5047
1480686689002609,-0.729361,0.155488,-2.50469
1480686689047228,-0.7288,0.155995,-2.50464
1480686689054247,-0.728132,0.15631,-2.5046
1480686689064273,-0.728132,0.15631,-2.5046
1480686689083825,-0.728132,0.15631,-2.5046
1480686689100369,-0.728309,0.156241,-2.50462
1480686689122929,-0.728309,0.156241,-2.50462
1480686689143986,-0.727677,0.156448,-2.50454
1480686689167049,-0.726943,0.156654,-2.50442
1480686689189105,-0.726979,0.156546,-2.50439
1480686689212669,-0.726979,0.156546,-2.50439
1480686689227708,-0.726946,0.156551,-2.50429
1480686689251772,-0.726888,0.156798,-2.50397
1480686689264306,-0.726683,0.157064,-2.50382
1480686689282855,-0.726687,0.157108,-2.50373
1480686689302908,-0.726064,0.156887,-2.50337
1480686689325469,-0.725373,0.156926,-2.503
1480686689353545,-0.724851,0.156808,-2.50282
1480686689362570,-0.722591,0.156486,-2.503
1480686689391143,-0.72323,0.156634,-2.50283
1480686689400167,-0.724448,0.156241,-2.50319
1480686689425234,-0.724814,0.155876,-2.50375
1480686689443783,-0.724334,0.155999,-2.50439
1480686689460327,-0.72375,0.155975,-2.50494
1480686689482888,-0.72385,0.156078,-2.50511
1480686689505447,-0.724727,0.155955,-2.50519
1480686689526503,-0.725038,0.15625,-2.50539
1480686689543047,-0.725129,0.156781,-2.50584
1480686689565608,-0.724487,0.15752,-2.50618
1480686689582151,-0.723856,0.158245,-2.5062
1480686689610226,-0.723616,0.15862,-2.50609
1480686689624764,-0.723342,0.158999,-2.50587
1480686689640305,-0.723167,0.159216,-2.50591
1480686689663370,-0.722683,0.159403,-2.50566
1480686689690941,-0.722232,0.159586,-2.50551
1480686689703476,-0.722232,0.159586,-2.50551
1480686689729047,-0.721739,0.159418,-2.50551
1480686689790707,-0.721599,0.159379,-2.50546
1480686689795719,-0.721599,0.159379,-2.50546
1480686689807750,-0.722452,0.159241,-2.50624
1480686689819782,-0.722925,0.158921,-2.50675
1480686689842843,-0.723402,0.158645,-2.50717
1480686689865404,-0.723354,0.158354,-2.50754
1480686689902502,-0.723236,0.158178,-2.50785
1480686689909521,-0.723287,0.157991,-2.5084
1480686689926065,-0.723095,0.157617,-2.50881
1480686689939601,-0.722939,0.157135,-2.50918
1480686689962666,-0.722682,0.15655,-2.50939
1480686689985724,-0.722983,0.155973,-2.50974
1480686690016305,-0.723109,0.155466,-2.51008
1480686690038366,-0.723453,0.155239,-2.51028
1480686690046887,-0.723313,0.1552,-2.51023
1480686690067942,-0.72354,0.154943,-2.51079
1480686690082982,-0.723444,0.154629,-2.51146
1480686690112561,-0.723073,0.154429,-2.51199
1480686690135128,-0.723073,0.154429,-2.51199
1480686690143142,-0.723523,0.154245,-2.51214
1480686690165201,-0.724153,0.154036,-2.51222
1480686690186256,-0.724436,0.15401,-2.51218
1480686690202801,-0.724296,0.153971,-2.51213
1480686690224864,-0.724436,0.15401,-2.51218
1480686690247420,-0.724514,0.154251,-2.51199
1480686690276497,-0.724514,0.154251,-2.51199
1480686690285020,-0.724374,0.154212,-2.51194
1480686690323121,-0.724457,0.154497,-2.51167
1480686690325628,-0.724493,0.154389,-2.51163
1480686690345180,-0.724171,0.154479,-2.51179
1480686690366236,-0.723852,0.154613,-2.51186
1480686690388796,-0.723108,0.15469,-2.51201
1480686690413361,-0.719947,0.154449,-2.51291
1480686690433916,-0.718871,0.155254,-2.51376
1480686690442940,-0.719778,0.155344,-2.51395
1480686690464999,-0.720987,0.155374,-2.51459
1480686690486556,-0.721741,0.155647,-2.5153
1480686690524657,-0.721672,0.15576,-2.51524
1480686690538695,-0.720954,0.155376,-2.5156
1480686690548220,-0.719648,0.155508,-2.51582
1480686690562258,-0.719683,0.155399,-2.51579
1480686690600358,-0.720909,0.1555,-2.51595
1480686690623921,-0.720912,0.155397,-2.51581
1480686690636454,-0.72017,0.155623,-2.51601
1480686690647484,-0.719263,0.155904,-2.51588
1480686690667536,-0.719263,0.155904,-2.51588
1480686690690097,-0.719263,0.155904,-2.51588
1480686690712658,-0.719252,0.155403,-2.51608
1480686690727697,-0.718652,0.155047,-2.51609
1480686690742235,-0.717708,0.154549,-2.51584
1480686690765296,-0.716619,0.154073,-2.51576
1480686690787857,-0.716133,0.153849,-2.51554
1480686690802395,-0.715994,0.153441,-2.51544
1480686690832977,-0.715686,0.152672,-2.51504
1480686690856038,-0.714477,0.151711,-2.51433
1480686690862057,-0.7125,0.150506,-2.51354
1480686690892635,-0.710898,0.149025,-2.51313
1480686690922715,-0.710793,0.147017,-2.51291
1480686690925222,-0.711387,0.145099,-2.5128
1480686690946782,-0.711739,0.143511,-2.51266
1480686690968337,-0.711494,0.142085,-2.51263
1480686690981873,-0.711304,0.141199,-2.51295
1480686691005435,-0.711956,0.140897,-2.51329
1480686691027495,-0.712997,0.141026,-2.51352
1480686691048550,-0.713901,0.141677,-2.5137
1480686691066096,-0.714285,0.142728,-2.51381
1480686691111718,-0.713978,0.143776,-2.51365
1480686691148315,-0.713889,0.144956,-2.51329
1480686691150823,-0.713629,0.146396,-2.51288
1480686691155835,-0.713025,0.14765,-2.51231
1480686691176390,-0.71218,0.149131,-2.51157
1480686691200956,-0.711379,0.15059,-2.51062
1480686691216496,-0.71026,0.152036,-2.5097
1480686691245574,-0.708889,0.153606,-2.50904
1480686691251590,-0.707827,0.154806,-2.50844
1480686691275153,-0.706827,0.155954,-2.50812
1480686691288689,-0.705755,0.157171,-2.50783
1480686691305233,-0.70465,0.158127,-2.50752
1480686691328294,-0.703674,0.158622,-2.50746
1480686691351355,-0.702969,0.159109,-2.50768
1480686691371409,-0.703143,0.15941,-2.50774
1480686691409509,-0.703694,0.159894,-2.50808
1480686691455633,-0.704161,0.160713,-2.50781
1480686691458140,-0.704002,0.161221,-2.50737
1480686691479196,-0.702098,0.162268,-2.50576
1480686691484711,-0.70097,0.162839,-2.50499
1480686691508773,-0.700927,0.163149,-2.50418
1480686691530331,-0.700699,0.162616,-2.5036
1480686691545874,-0.700297,0.162151,-2.503
1480686691568433,-0.70055,0.161803,-2.50273
1480686691598512,-0.701777,0.16148,-2.50261
1480686691621073,-0.702513,0.16136,-2.50255
1480686691629596,-0.701749,0.162089,-2.50244
1480686691650150,-0.700089,0.163444,-2.50194
1480686691664691,-0.699177,0.164705,-2.50099
1480686691689755,-0.698958,0.165602,-2.50027
1480686691710811,-0.698176,0.166402,-2.49957
1480686691733371,-0.697235,0.166924,-2.49842
1480686691754928,-0.69638,0.166732,-2.4967
1480686691777488,-0.69678,0.165708,-2.49407
1480686691798544,-0.697236,0.164188,-2.49104
1480686691807569,-0.697024,0.162129,-2.48844
1480686691830128,-0.697431,0.159801,-2.48641
1480686691851184,-0.698424,0.158123,-2.48458
1480686691875248,-0.698592,0.157356,-2.48321
1480686691891793,-0.698167,0.157039,-2.48257
1480686691911344,-0.697493,0.157866,-2.48262
1480686691941928,-0.697159,0.158885,-2.48284
1480686691966492,-0.697243,0.160337,-2.48303
1480686691988048,-0.697424,0.161895,-2.4834
1480686691990556,-0.697083,0.16339,-2.4838
1480686692011611,-0.696641,0.164736,-2.48412
1480686692031163,-0.696048,0.166163,-2.48484
1480686692049211,-0.695317,0.167551,-2.4855
1480686692077286,-0.69414,0.16897,-2.48597
1480686692098843,-0.692954,0.170408,-2.48674
1480686692107867,-0.692007,0.171123,-2.48789
1480686692129928,-0.692089,0.171725,-2.48855
1480686692152486,-0.693185,0.172145,-2.48921
1480686692176049,-0.693619,0.172462,-2.48985
1480686692196101,-0.693365,0.17281,-2.49012
1480686692242224,-0.692666,0.172817,-2.49015
1480686692265789,-0.692702,0.172708,-2.49011
1480686692269297,-0.6926,0.172145,-2.49006
1480686692289851,-0.692606,0.171669,-2.48988
1480686692311409,-0.692606,0.171669,-2.48988
1480686692316421,-0.693336,0.171053,-2.49003
1480686692332465,-0.693336,0.171053,-2.49003
1480686692362545,-0.693234,0.170904,-2.48995
1480686692370064,-0.693234,0.170904,-2.48995
1480686692391120,-0.693234,0.170904,-2.48995
1480686692407665,-0.693709,0.171198,-2.49038
1480686692430726,-0.69373,0.171436,-2.49079
1480686692453285,-0.693714,0.171931,-2.49129
1480686692475346,-0.693431,0.172326,-2.49138
1480686692520966,-0.692982,0.172504,-2.49122
1480686692522971,-0.692048,0.172407,-2.49094
1480686692545029,-0.691081,0.172462,-2.49061
1480686692565083,-0.69028,0.17232,-2.49055
1480686692589146,-0.690174,0.172275,-2.4906
1480686692593659,-0.690454,0.172251,-2.49056
1480686692610203,-0.690979,0.171898,-2.49056
1480686692633765,-0.691668,0.17191,-2.49084
1480686692655323,-0.691774,0.171955,-2.49079
1480686692677888,-0.691774,0.171955,-2.49079
1480686692692923,-0.691322,0.17209,-2.49073
1480686692707463,-0.691216,0.172045,-2.49078
1480686692731024,-0.691216,0.172045,-2.49078
1480686692753083,-0.691322,0.17209,-2.49073
1480686692775643,-0.691319,0.172047,-2.49081
1480686692797701,-0.691319,0.172047,-2.49081
1480686692820763,-0.691352,0.172043,-2.49091
1480686692842831,-0.691213,0.172003,-2.49086
1480686692865382,-0.691032,0.172133,-2.49107
1480686692872902,-0.691138,0.172178,-2.49102
1480686692888944,-0.691138,0.172178,-2.49102
1480686692910502,-0.691174,0.172069,-2.49098
1480686692933061,-0.690307,0.17223,-2.49082
1480686692953616,-0.689473,0.17224,-2.49071
1480686692970161,-0.688949,0.172593,-2.49071
1480686692993222,-0.688458,0.172794,-2.49077
1480686693013775,-0.688422,0.172903,-2.4908
1480686693030321,-0.688918,0.173201,-2.49054
1480686693052881,-0.689162,0.173286,-2.49053
1480686693074939,-0.68965,0.173456,-2.49053
1480686693097499,-0.68965,0.173456,-2.49053
1480686693120058,-0.689921,0.173865,-2.49077
1480686693141114,-0.689954,0.173862,-2.49087
1480686693151141,-0.689915,0.173928,-2.49099
1480686693172699,-0.689563,0.174584,-2.49106
1480686693193756,-0.689949,0.175166,-2.49098
1480686693210805,-0.690582,0.175876,-2.49082
1480686693232858,-0.690139,0.176406,-2.49041
1480686693261460,-0.689174,0.176917,-2.48995
1480686693284997,-0.687581,0.177174,-2.48953
1480686693308560,-0.686683,0.177381,-2.48918
1480686693330620,-0.686683,0.177381,-2.48918
1480686693333125,-0.686683,0.177381,-2.48918
1480686693355184,-0.686681,0.177339,-2.48927
1480686693375739,-0.686467,0.177621,-2.48942
1480686693397797,-0.686077,0.17793,-2.48965
1480686693420357,-0.686077,0.17793,-2.48965
1480686693442416,-0.686731,0.178051,-2.48996
1480686693449936,-0.687734,0.177888,-2.49027
1480686693472497,-0.688703,0.177463,-2.49055
1480686693495056,-0.688978,0.176939,-2.49072
1480686693509594,-0.689254,0.176044,-2.49085
1480686693540176,-0.689883,0.17547,-2.49087
1480686693562736,-0.690446,0.174902,-2.4907
1480686693585296,-0.690446,0.174902,-2.4907
1480686693598331,-0.690482,0.174793,-2.49067
1480686693620890,-0.689994,0.175037,-2.49064
1480686693654981,-0.689578,0.175478,-2.4905
1480686693676049,-0.689334,0.175807,-2.49047
1480686693678043,-0.689437,0.175956,-2.49055
1480686693699099,-0.689437,0.175956,-2.49055
1480686693720154,-0.689298,0.175916,-2.4905
1480686693741210,-0.689331,0.175912,-2.4906
1480686693749733,-0.689331,0.175912,-2.4906
1480686693772795,-0.689331,0.175912,-2.4906
1480686693795355,-0.689298,0.175916,-2.4905
1480686693817413,-0.689684,0.17567,-2.4905
1480686693839973,-0.689684,0.17567,-2.4905
1480686693862533,-0.689545,0.175629,-2.49045
1480686693876070,-0.689545,0.175629,-2.49045
1480686693907653,-0.68972,0.175561,-2.49047
1480686693930715,-0.68972,0.175561,-2.49047
1480686693953276,-0.68972,0.175561,-2.49047
1480686693955781,-0.689581,0.17552,-2.49042
1480686693975333,-0.690063,0.175339,-2.49067
1480686693997392,-0.690169,0.175383,-2.49062
1480686694020453,-0.690169,0.175383,-2.49062
1480686694034991,-0.690169,0.175383,-2.49062
1480686694056048,-0.690169,0.175383,-2.49062
1480686694072592,-0.690063,0.175339,-2.49067
1480686694095653,-0.690099,0.17523,-2.49064
1480686694119215,-0.690202,0.175231,-2.49067
1480686694140272,-0.690202,0.175231,-2.49067
1480686694155814,-0.690202,0.175231,-2.49067
1480686694183889,-0.690202,0.175231,-2.49067
1480686694207450,-0.690096,0.175187,-2.49072
1480686694231014,-0.690132,0.175078,-2.49069
1480686694236026,-0.690132,0.175078,-2.49069
1480686694252570,-0.690271,0.175119,-2.49074
1480686694275631,-0.690548,0.175052,-2.49079
1480686694298191,-0.690548,0.175052,-2.49079
1480686694313231,-0.690548,0.175052,-2.49079
1480686694335290,-0.690723,0.174984,-2.4908
1480686694373893,-0.690723,0.174984,-2.4908
1480686694395951,-0.690723,0.174984,-2.4908
1480686694398459,-0.690723,0.174984,-2.4908
1480686694417509,-0.690584,0.174943,-2.49075
1480686694432549,-0.690584,0.174943,-2.49075
1480686694456111,-0.690723,0.174984,-2.4908
1480686694485189,-0.690759,0.174875,-2.49077
1480686694507749,-0.690759,0.174875,-2.49077
1480686694515269,-0.690723,0.174984,-2.4908
1480686694537829,-0.69062,0.174834,-2.49072
1480686694553370,-0.69062,0.174834,-2.49072
1480686694575429,-0.690756,0.174832,-2.49086
1480686694597488,-0.690895,0.174872,-2.4909
1480686694626064,-0.690861,0.174876,-2.4908
1480686694651131,-0.690895,0.174872,-2.4909
1480686694657648,-0.690196,0.17488,-2.49093
1480686694673691,-0.689919,0.174799,-2.49083
1480686694696751,-0.689777,0.174863,-2.49091
1480686694718309,-0.689461,0.174996,-2.49098
1480686694741370,-0.688865,0.175005,-2.49104
1480686694762426,-0.688865,0.175005,-2.49104
1480686694785488,-0.688413,0.17514,-2.49098
1480686694792005,-0.688236,0.175314,-2.4911
1480686694830108,-0.687884,0.175556,-2.4912
1480686694837626,-0.687884,0.175556,-2.4912
1480686694858683,-0.687746,0.175516,-2.49115
1480686694882746,-0.687746,0.175516,-2.49115
1480686694898288,-0.68771,0.175625,-2.49118
1480686694926362,-0.687884,0.175556,-2.4912
1480686694948921,-0.687884,0.175556,-2.4912
1480686694964965,-0.687884,0.175556,-2.4912
1480686694986021,-0.687746,0.175516,-2.49115
1480686694995047,-0.687746,0.175516,-2.49115
1480686695018106,-0.688086,0.175813,-2.49145
1480686695038660,-0.68881,0.176087,-2.49175
1480686695062725,-0.68881,0.176087,-2.49175
1480686695085285,-0.688774,0.176196,-2.49179
1480686695106340,-0.688774,0.176196,-2.49179
1480686695128402,-0.68881,0.176087,-2.49175
1480686695138928,-0.68881,0.176087,-2.49175
1480686695159983,-0.688494,0.17622,-2.49182
1480686695174522,-0.688148,0.1764,-2.49171
1480686695206106,-0.688043,0.176356,-2.49176
1480686695219141,-0.687552,0.176557,-2.49181
1480686695250223,-0.687098,0.17665,-2.49183
1480686695263257,-0.687098,0.17665,-2.49183
1480686695296346,-0.687237,0.176691,-2.49188
1480686695318405,-0.687237,0.176691,-2.49188
1480686695320410,-0.687098,0.17665,-2.49183
1480686695341465,-0.687062,0.176759,-2.49187
1480686695362522,-0.687062,0.176759,-2.49187
1480686695385081,-0.687062,0.176759,-2.49187
1480686695417167,-0.687062,0.176759,-2.49187
1480686695438223,-0.687062,0.176759,-2.49187
1480686695440733,-0.687273,0.176582,-2.49185
1480686695460282,-0.687273,0.176582,-2.49185
1480686695482842,-0.687273,0.176582,-2.49185
1480686695503897,-0.687273,0.176582,-2.49185
1480686695520441,-0.687863,0.176487,-2.49196
1480686695535482,-0.687863,0.176487,-2.49196
1480686695565060,-0.687724,0.176446,-2.49191
1480686695596645,-0.687724,0.176446,-2.49191
1480686695618202,-0.687863,0.176487,-2.49196
1480686695620709,-0.687863,0.176487,-2.49196
1480686695641765,-0.68842,0.176395,-2.49198
1480686695662820,-0.688317,0.176246,-2.4919
1480686695691397,-0.687893,0.176292,-2.4921
1480686695699919,-0.687506,0.176644,-2.49224
1480686695714457,-0.687506,0.176644,-2.49224
1480686695737519,-0.687644,0.176684,-2.49229
1480686695761085,-0.687506,0.176644,-2.49224
1480686695781135,-0.687506,0.176644,-2.49224
1480686695805199,-0.687506,0.176644,-2.49224
1480686695820239,-0.687506,0.176644,-2.49224
1480686695850319,-0.687644,0.176684,-2.49229
1480686695872879,-0.687644,0.176684,-2.49229
1480686695895940,-0.687506,0.176644,-2.49224
1480686695900954,-0.687506,0.176644,-2.49224
1480686695919001,-0.687506,0.176644,-2.49224
1480686695940058,-0.687506,0.176644,-2.49224
1480686695970138,-0.687644,0.176684,-2.49229
1480686695977658,-0.687293,0.176927,-2.49239
1480686696006234,-0.686562,0.176938,-2.49232
1480686696038318,-0.686595,0.176935,-2.49242
1480686696040825,-0.68701,0.176908,-2.49252
1480686696061380,-0.687046,0.176799,-2.49248
1480686696081433,-0.687002,0.176928,-2.49282
1480686696105497,-0.687002,0.176928,-2.49282
1480686696126052,-0.686863,0.176888,-2.49278
1480686696150116,-0.686863,0.176888,-2.49278
1480686696172676,-0.686863,0.176888,-2.49278
1480686696195737,-0.686863,0.176888,-2.49278
1480686696201252,-0.686863,0.176888,-2.49278
1480686696218798,-0.686863,0.176888,-2.49278
1480686696248378,-0.686863,0.176888,-2.49278
1480686696263417,-0.686899,0.176779,-2.49274
1480686696277456,-0.686899,0.176779,-2.49274
1480686696300014,-0.687522,0.176532,-2.49291
1480686696323076,-0.687522,0.176532,-2.49291
1480686696338117,-0.687522,0.176532,-2.49291
1480686696360175,-0.68679,0.17613,-2.49287
1480686696382735,-0.686823,0.176126,-2.49297
1480686696405295,-0.686929,0.17617,-2.49292
1480686696427854,-0.686965,0.176061,-2.49288
1480686696450414,-0.686965,0.176061,-2.49288
1480686696472473,-0.686965,0.176061,-2.49288
1480686696479994,-0.686859,0.176017,-2.49293
1480686696502553,-0.687034,0.175949,-2.49295
1480686696517593,-0.687001,0.175952,-2.49285
1480686696540655,-0.686998,0.17591,-2.49294
1480686696562713,-0.687065,0.176168,-2.49305
1480686696578254,-0.687098,0.176165,-2.49315
1480686696613850,-0.686959,0.176124,-2.4931
1480686696622873,-0.687065,0.176168,-2.49305
1480686696636911,-0.687065,0.176168,-2.49305
1480686696660978,-0.686674,0.176063,-2.49331
1480686696683033,-0.686536,0.176023,-2.49326
1480686696705593,-0.68695,0.175582,-2.4934
1480686696727653,-0.686986,0.175473,-2.49337
1480686696750211,-0.687113,0.175491,-2.49381
1480686696771769,-0.6878,0.17546,-2.49418
1480686696780292,-0.687793,0.175894,-2.49445
1480686696802853,-0.687265,0.176311,-2.49467
1480686696823908,-0.687127,0.17627,-2.49463
1480686696840452,-0.687651,0.17633,-2.49459
1480686696870032,-0.687789,0.176371,-2.49464
1480686696891086,-0.687789,0.176371,-2.49464
1480686696900111,-0.687789,0.176371,-2.49464
1480686696922673,-0.688315,0.176059,-2.49455
1480686696960774,-0.688912,0.17553,-2.49439
1480686696963279,-0.688909,0.175487,-2.49448
1480686696984334,-0.688909,0.175487,-2.49448
1480686697005391,-0.689296,0.175135,-2.49434
1480686697051513,-0.689296,0.175135,-2.49434
1480686697073071,-0.689193,0.174986,-2.49426
1480686697075577,-0.689193,0.174986,-2.49426
1480686697082095,-0.689226,0.174834,-2.49431
1480686697102649,-0.689365,0.174874,-2.49436
1480686697123706,-0.689365,0.174874,-2.49436
1480686697147769,-0.689365,0.174874,-2.49436
1480686697163310,-0.689365,0.174874,-2.49436
1480686697185372,-0.689365,0.174874,-2.49436
1480686697199908,-0.689399,0.175285,-2.49442
1480686697237508,-0.689399,0.175285,-2.49442
1480686697261572,-0.689399,0.175285,-2.49442
1480686697283128,-0.68926,0.175244,-2.49437
1480686697286638,-0.68926,0.175244,-2.49437
1480686697305689,-0.68926,0.175244,-2.49437
1480686697327751,-0.689399,0.175285,-2.49442
1480686697350307,-0.689432,0.175133,-2.49447
1480686697365347,-0.689432,0.175133,-2.49447
1480686697379385,-0.689432,0.175133,-2.49447
1480686697402446,-0.689432,0.175133,-2.49447
1480686697425507,-0.689432,0.175133,-2.49447
1480686697447567,-0.689507,0.175371,-2.49428
1480686697462606,-0.689128,0.175703,-2.49411
1480686697485668,-0.689128,0.175703,-2.49411
1480686697514243,-0.689092,0.175812,-2.49415
1480686697539310,-0.689092,0.175812,-2.49415
1480686697561369,-0.689787,0.175347,-2.49425
1480686697584430,-0.689958,0.174822,-2.49438
1480686697586436,-0.689605,0.174502,-2.49448
1480686697606490,-0.6895,0.174458,-2.49453
1480686697620025,-0.689535,0.174349,-2.49449
1480686697652110,-0.689535,0.174349,-2.49449
1480686697666149,-0.689633,0.174413,-2.49475
1480686697686703,-0.689487,0.174954,-2.49502
1480686697704249,-0.689413,0.17513,-2.49518
1480686697726809,-0.689477,0.175345,-2.49538
1480686697746361,-0.68965,0.175648,-2.49545
1480686697762404,-0.689647,0.175605,-2.49553
1480686697792985,-0.689786,0.175645,-2.49558
1480686697813540,-0.689786,0.175645,-2.49558
1480686697838606,-0.689786,0.175645,-2.49558
1480686697860665,-0.689647,0.175605,-2.49553
1480686697866180,-0.689786,0.175645,-2.49558
1480686697884229,-0.689786,0.175645,-2.49558
1480686697905786,-0.689786,0.175645,-2.49558
1480686697927843,-0.689786,0.175645,-2.49558
1480686697942884,-0.689786,0.175645,-2.49558
1480686697971459,-0.689647,0.175605,-2.49553
1480686697985998,-0.689683,0.175496,-2.4955
1480686698003044,-0.689683,0.175496,-2.4955
1480686698025102,-0.689683,0.175496,-2.4955
1480686698046157,-0.689683,0.175496,-2.4955
1480686698070222,-0.689683,0.175496,-2.4955
1480686698092783,-0.689683,0.175496,-2.4955
1480686698115342,-0.689683,0.175496,-2.4955
1480686698137902,-0.689857,0.175427,-2.49551
1480686698160464,-0.689821,0.175536,-2.49555
1480686698184024,-0.689821,0.175536,-2.49555
1480686698187535,-0.689821,0.175536,-2.49555
1480686698206084,-0.689821,0.175536,-2.49555
1480686698227642,-0.689857,0.175427,-2.49551
1480686698251204,-0.689996,0.175468,-2.49556
1480686698271256,-0.689996,0.175468,-2.49556
1480686698287300,-0.689996,0.175468,-2.49556
1480686698303342,-0.690029,0.175316,-2.49562
1480686698325401,-0.690029,0.175316,-2.49562
1480686698348462,-0.690029,0.175316,-2.49562
1480686698370521,-0.690029,0.175316,-2.49562
1480686698393081,-0.690029,0.175316,-2.49562
1480686698417145,-0.690029,0.175316,-2.49562
1480686698423160,-0.690029,0.175316,-2.49562
1480686698451736,-0.690064,0.175207,-2.49558
1480686698467779,-0.690064,0.175207,-2.49558
1480686698481816,-0.690203,0.175247,-2.49563
1480686698505881,-0.690064,0.175207,-2.49558
1480686698534958,-0.690064,0.175207,-2.49558
1480686698541976,-0.690064,0.175207,-2.49558
1480686698565038,-0.690239,0.175138,-2.4956
1480686698595118,-0.690165,0.175313,-2.49575
1480686698616176,-0.690165,0.175313,-2.49575
1480686698625198,-0.690165,0.175313,-2.49575
1480686698649763,-0.690165,0.175313,-2.49575
1480686698670819,-0.690165,0.175313,-2.49575
1480686698692878,-0.6902,0.175204,-2.49572
1480686698714936,-0.690154,0.17529,-2.49615
1480686698736995,-0.689546,0.175797,-2.4967
1480686698746019,-0.689366,0.176448,-2.497
1480686698767576,-0.689887,0.176984,-2.49715
1480686698789133,-0.690623,0.177799,-2.49716
1480686698812696,-0.690726,0.177799,-2.4972
1480686698835256,-0.690726,0.177799,-2.4972
1480686698856312,-0.690728,0.177842,-2.49711
1480686698865838,-0.690878,0.177386,-2.49667
1480686698903938,-0.691098,0.177232,-2.49625
1480686698916473,-0.691661,0.177225,-2.49609
1480686698926499,-0.691767,0.177269,-2.49604
1480686698948057,-0.691767,0.177269,-2.49604
1480686698970617,-0.692221,0.177176,-2.49602
1480686698992676,-0.692221,0.177176,-2.49602
1480686699015234,-0.692221,0.177176,-2.49602
1480686699028270,-0.69292,0.177167,-2.496
1480686699045314,-0.693864,0.177242,-2.49598
1480686699090436,-0.693864,0.177242,-2.49598
1480686699105475,-0.694281,0.177215,-2.49608
1480686699110991,-0.695123,0.17677,-2.49592
1480686699127534,-0.695608,0.176481,-2.49604
1480686699150594,-0.695747,0.176522,-2.49609
1480686699172653,-0.695747,0.176522,-2.49609
1480686699203736,-0.696371,0.176274,-2.49626
1480686699227303,-0.697066,0.175807,-2.49635
1480686699248355,-0.697828,0.175186,-2.4966
1480686699250360,-0.69848,0.174328,-2.49694
1480686699272419,-0.699348,0.17375,-2.49714
1480686699293475,-0.700041,0.17324,-2.49733
1480686699313529,-0.70066,0.172534,-2.49762
1480686699330072,-0.700828,0.171965,-2.49784
1480686699352632,-0.700863,0.171856,-2.4978
1480686699367672,-0.700863,0.171856,-2.4978
1480686699390233,-0.701002,0.171896,-2.49785
1480686699412792,-0.701038,0.171787,-2.49782
1480686699435352,-0.701035,0.171744,-2.4979
1480686699457411,-0.700435,0.171859,-2.4981
1480686699479971,-0.700296,0.171819,-2.49805
1480686699504035,-0.700435,0.171859,-2.4981
1480686699526598,-0.700574,0.171899,-2.49815
1480686699548155,-0.700574,0.171899,-2.49815
1480686699550659,-0.700435,0.171859,-2.4981
1480686699577230,-0.700435,0.171859,-2.4981
1480686699594277,-0.700471,0.17175,-2.49806
1480686699607810,-0.700471,0.17175,-2.49806
1480686699630370,-0.701131,0.171392,-2.49819
1480686699650925,-0.701131,0.171392,-2.49819
1480686699668473,-0.701167,0.171283,-2.49816
1480686699691033,-0.701061,0.171239,-2.49821
1480686699712589,-0.701167,0.171283,-2.49816
1480686699735149,-0.701199,0.171131,-2.49821
1480686699757710,-0.701199,0.171131,-2.49821
1480686699780269,-0.701619,0.171147,-2.49823
1480686699789294,-0.701685,0.170991,-2.49838
1480686699810350,-0.701685,0.170991,-2.49838
1480686699832408,-0.701652,0.170995,-2.49828
1480686699878029,-0.701652,0.170995,-2.49828
1480686699880536,-0.701652,0.170995,-2.49828
1480686699891064,-0.70228,0.170789,-2.49836
1480686699908112,-0.702976,0.170323,-2.49846
1480686699945710,-0.703563,0.169768,-2.49869
1480686699950723,-0.704075,0.169388,-2.49908
1480686699975789,-0.704343,0.168924,-2.49947
1480686699990830,-0.7049,0.168417,-2.49952
1480686700012890,-0.705771,0.167882,-2.49963
1480686700036450,-0.705771,0.167882,-2.49963
1480686700082071,-0.705947,0.167813,-2.49964
1480686700086083,-0.705913,0.167817,-2.49955
1480686700104130,-0.706053,0.167857,-2.49959
1480686700110148,-0.705949,0.167708,-2.49951
1480686700132707,-0.705979,0.167661,-2.4997
1480686700147747,-0.705979,0.167661,-2.4997
1480686700170306,-0.706015,0.167552,-2.49966
1480686700201389,-0.706121,0.167596,-2.49961
1480686700206904,-0.706121,0.167596,-2.49961
1480686700229969,-0.706121,0.167596,-2.49961
1480686700252525,-0.706157,0.167487,-2.49958
1480686700267064,-0.706157,0.167487,-2.49958
1480686700292131,-0.706329,0.167375,-2.49968
1480686700313186,-0.706329,0.167375,-2.49968
1480686700335245,-0.706329,0.167375,-2.49968
1480686700357805,-0.706759,0.167373,-2.49938
1480686700380365,-0.706729,0.167569,-2.49924
1480686700410946,-0.706417,0.16816,-2.4992
1480686700412952,-0.706175,0.168903,-2.49913
1480686700432504,-0.706314,0.168943,-2.49918
1480686700447043,-0.706841,0.169003,-2.49915
1480686700478125,-0.706738,0.168854,-2.49906
1480686700492664,-0.706877,0.168894,-2.49911
1480686700513719,-0.706877,0.168894,-2.49911
1480686700545303,-0.707016,0.168934,-2.49916
1480686700552322,-0.706983,0.168938,-2.49906
1480686700590925,-0.706983,0.168938,-2.49906
1480686700593432,-0.707016,0.168934,-2.49916
1480686700613986,-0.707016,0.168934,-2.49916
1480686700635544,-0.706983,0.168938,-2.49906
1480686700658104,-0.707122,0.168978,-2.49911
1480686700680664,-0.707122,0.168978,-2.49911
1480686700701218,-0.707155,0.168826,-2.49916
1480686700710243,-0.707016,0.168786,-2.49911
1480686700733304,-0.707016,0.168786,-2.49911
1480686700755363,-0.707155,0.168826,-2.49916
1480686700770904,-0.707155,0.168826,-2.49916
1480686700792461,-0.707155,0.168826,-2.49916
1480686700822541,-0.707155,0.168826,-2.49916
1480686700830060,-0.707155,0.168826,-2.49916
1480686700853623,-0.707155,0.168826,-2.49916
1480686700890722,-0.707155,0.168826,-2.49916
1480686700893236,-0.70733,0.168757,-2.49918
1480686700918797,-0.707191,0.168717,-2.49913
1480686700935341,-0.707191,0.168717,-2.49913
1480686700980461,-0.707191,0.168717,-2.49913
1480686700982967,-0.707784,0.16862,-2.49924
1480686700994999,-0.707923,0.16866,-2.49929
1480686701010043,-0.707923,0.16866,-2.49929
1480686701033101,-0.707959,0.168552,-2.49926
1480686701055159,-0.707959,0.168552,-2.49926
1480686701069698,-0.707955,0.168508,-2.49934
1480686701100781,-0.707955,0.168508,-2.49934
1480686701125848,-0.708131,0.168439,-2.49936
1480686701144898,-0.708131,0.168439,-2.49936
1480686701147405,-0.707991,0.168399,-2.49931
1480686701182498,-0.707991,0.168399,-2.49931
1480686701185005,-0.708027,0.168291,-2.49927
1480686701197037,-0.708167,0.16833,-2.49932
1480686701234637,-0.708133,0.168335,-2.49922
1480686701240652,-0.708167,0.16833,-2.49932
1480686701272740,-0.708412,0.168415,-2.49932
1480686701278252,-0.708836,0.168326,-2.4992
1480686701311341,-0.708836,0.168326,-2.4992
1480686701319363,-0.708975,0.168366,-2.49925
1480686701354455,-0.708975,0.168366,-2.49925
1480686701360472,-0.709008,0.168213,-2.4993
1480686701384535,-0.709008,0.168213,-2.4993
1480686701422638,-0.709008,0.168213,-2.4993
1480686701425144,-0.709044,0.168105,-2.49927
1480686701446200,-0.709183,0.168145,-2.49932
1480686701468258,-0.70904,0.168579,-2.49946
1480686701490316,-0.709071,0.168945,-2.49961
1480686701496834,-0.709352,0.169291,-2.49963
1480686701517890,-0.709914,0.16976,-2.49966
1480686701540449,-0.710302,0.170298,-2.49968
1480686701557997,-0.710865,0.170767,-2.49972
1480686701588578,-0.710829,0.170876,-2.49975
1480686701616652,-0.710829,0.170876,-2.49975
1480686701641219,-0.710829,0.170876,-2.49975
1480686701655756,-0.710969,0.170916,-2.4998
1480686701660269,-0.710856,0.170266,-2.49992
1480686701679321,-0.711168,0.169675,-2.49997
1480686701700877,-0.711119,0.168454,-2.50027
1480686701723941,-0.710431,0.167042,-2.50083
1480686701744493,-0.709822,0.165767,-2.50107
1480686701761037,-0.709543,0.164903,-2.50095
1480686701789613,-0.708822,0.164574,-2.50042
1480686701812174,-0.707858,0.164574,-2.49987
1480686701818189,-0.706713,0.164851,-2.49956
1480686701848269,-0.706713,0.164851,-2.49956
1480686701862810,-0.706713,0.164851,-2.49956
1480686701885367,-0.7073,0.16508,-2.49982
1480686701941015,-0.707111,0.164709,-2.50023
1480686702025239,-0.705697,0.164332,-2.50062
1480686702067351,-0.713068,0.154036,-2.4992
1480686702069858,-0.714103,0.152844,-2.4997
1480686702087906,-0.715118,0.15214,-2.50069
1480686702102946,-0.716874,0.151318,-2.50162
1480686702117985,-0.718556,0.150151,-2.50261
1480686702140547,-0.718896,0.149259,-2.50377
1480686702164610,-0.71816,0.148385,-2.50465
1480686702179651,-0.718146,0.147426,-2.50497
1480686702200706,-0.718665,0.147131,-2.50518
1480686702257357,-0.719047,0.147623,-2.50529
1480686702278914,-0.720166,0.148513,-2.50543
1480686702331555,-0.720271,0.149488,-2.50545
1480686702353111,-0.718261,0.150598,-2.50568
1480686702368151,-0.715341,0.151218,-2.50496
1480686702370658,-0.714286,0.150954,-2.505
1480686702382189,-0.714358,0.150323,-2.50496
1480686702403244,-0.714628,0.149901,-2.50526
1480686702417784,-0.714355,0.149659,-2.50592
1480686702440343,-0.713911,0.149677,-2.50652
1480686702470924,-0.713911,0.149677,-2.50652
1480686702480951,-0.714753,0.149705,-2.50654
1480686702538604,-0.71461,0.149622,-2.50658
1480686702557153,-0.713929,0.149498,-2.50697
1480686702578211,-0.714312,0.149207,-2.50705
1480686702608793,-0.715504,0.148948,-2.50705
1480686702622828,-0.716114,0.148669,-2.5076
1480686702629349,-0.716958,0.148488,-2.50847
1480686702645891,-0.717714,0.148188,-2.50885
1480686702659428,-0.717941,0.148346,-2.50937
1480686702680483,-0.718667,0.148611,-2.50968
1480686702703041,-0.719397,0.148919,-2.50989
1480686702719586,-0.719567,0.149323,-2.51009
1480686702740641,-0.718822,0.149769,-2.5103
1480686702763206,-0.718539,0.150312,-2.51044
1480686702810830,-0.71903,0.150994,-2.51054
1480686702833889,-0.719242,0.151599,-2.51054
1480686702884023,-0.719341,0.15222,-2.51081
1480686702901570,-0.718986,0.152832,-2.51098
1480686702906585,-0.71859,0.153243,-2.51134
1480686702924631,-0.717457,0.153673,-2.51163
1480686702943180,-0.717225,0.153618,-2.51124
1480686702961230,-0.716102,0.153248,-2.5112
1480686702980281,-0.715108,0.152785,-2.51147
1480686703004343,-0.71488,0.152523,-2.51191
1480686703021889,-0.715851,0.152087,-2.51219
1480686703047958,-0.717036,0.151738,-2.51237
1480686703064503,-0.7178,0.151523,-2.51258
1480686703110626,-0.7178,0.151523,-2.51258
1480686703160760,-0.717693,0.151332,-2.51258
1480686703179810,-0.717693,0.151332,-2.51258
1480686703185825,-0.717832,0.151371,-2.51263
1480686703187831,-0.717832,0.151371,-2.51263
1480686703201367,-0.717165,0.151792,-2.51272
1480686703223425,-0.717025,0.151754,-2.51267
1480686703250500,-0.717201,0.151684,-2.51269
1480686703265537,-0.7172,0.152053,-2.51274
1480686703297123,-0.71691,0.152509,-2.51306
1480686703303138,-0.716804,0.152465,-2.51311
1480686703342742,-0.71705,0.152548,-2.5131
1480686703344749,-0.71705,0.152548,-2.5131
1480686703389867,-0.717046,0.152504,-2.51319
1480686703411426,-0.717186,0.152543,-2.51324
1480686703425965,-0.717186,0.152543,-2.51324
1480686703456545,-0.717186,0.152543,-2.51324
1480686703462563,-0.717221,0.152434,-2.5132
1480686703465068,-0.717221,0.152434,-2.5132
1480686703483115,-0.717361,0.152473,-2.51325
1480686703505676,-0.717361,0.152473,-2.51325
1480686703522219,-0.717361,0.152473,-2.51325
1480686703566839,-0.717221,0.152434,-2.5132
1480686703575863,-0.717221,0.152434,-2.5132
1480686703581878,-0.717221,0.152434,-2.5132
1480686703602934,-0.717361,0.152473,-2.51325
1480686703625496,-0.717397,0.152364,-2.51322
1480686703667107,-0.717397,0.152364,-2.51322
1480686703694679,-0.717397,0.152364,-2.51322
1480686703718240,-0.717397,0.152364,-2.51322
1480686703720748,-0.717397,0.152364,-2.51322
1480686703733282,-0.717397,0.152364,-2.51322
1480686703753836,-0.717364,0.152369,-2.51312
1480686703761859,-0.717549,0.152283,-2.51282
1480686703782913,-0.71669,0.151817,-2.51323
1480686703805473,-0.71669,0.151817,-2.51323
1480686703853601,-0.717801,0.151418,-2.51355
1480686703866134,-0.717768,0.151423,-2.51346
1480686703876662,-0.718268,0.151571,-2.51425
1480686703921281,-0.718536,0.151517,-2.51461
1480686703935820,-0.718536,0.151517,-2.51461
1480686703942337,-0.718676,0.151556,-2.51466
1480686703944844,-0.718183,0.151761,-2.51472
1480686703978937,-0.718183,0.151761,-2.51472
1480686703986956,-0.718679,0.151969,-2.51463
1480686704011020,-0.718679,0.151969,-2.51463
1480686704030574,-0.718539,0.15193,-2.51458
1480686704045613,-0.718675,0.151925,-2.51472
1480686704063661,-0.718815,0.151964,-2.51476
1480686704109783,-0.718815,0.151964,-2.51476
1480686704128333,-0.718815,0.151964,-2.51476
1480686704154401,-0.718675,0.151925,-2.51472
1480686704183478,-0.718675,0.151925,-2.51472
1480686704185484,-0.718675,0.151925,-2.51472
1480686704199522,-0.718815,0.151964,-2.51476
1480686704210551,-0.718815,0.151964,-2.51476
1480686704233116,-0.718815,0.151964,-2.51476
1480686704243639,-0.718675,0.151925,-2.51472
1480686704263194,-0.718815,0.151964,-2.51476
1480686704288257,-0.718815,0.151964,-2.51476
1480686704310820,-0.718954,0.152003,-2.51481
1480686704322850,-0.719411,0.151906,-2.51479
1480686704363960,-0.719411,0.151906,-2.51479
1480686704385014,-0.719272,0.151868,-2.51474
1480686704387521,-0.719268,0.151824,-2.51483
1480686704408577,-0.719408,0.151862,-2.51487
1480686704429635,-0.719375,0.151867,-2.51478
1480686704452193,-0.719375,0.151867,-2.51478
1480686704465729,-0.719375,0.151867,-2.51478
1480686704490797,-0.71941,0.151759,-2.51474
1480686704519371,-0.71955,0.151798,-2.51479
1480686704532907,-0.71955,0.151798,-2.51479
1480686704543435,-0.719654,0.151945,-2.51487
1480686704572013,-0.719514,0.151906,-2.51483
1480686704588556,-0.719514,0.151906,-2.51483
1480686704618134,-0.720071,0.151913,-2.51497
1480686704632171,-0.720211,0.151952,-2.51502
1480686704662753,-0.720178,0.151957,-2.51492
1480686704665260,-0.720729,0.152024,-2.51529
1480686704715393,-0.721043,0.151845,-2.51531
1480686704723414,-0.721043,0.151845,-2.51531
1480686704735947,-0.721701,0.151955,-2.51562
1480686704744470,-0.722466,0.152108,-2.51589
1480686704768535,-0.722807,0.152722,-2.51634
1480686704791596,-0.723258,0.153055,-2.5166
1480686704820673,-0.72322,0.153636,-2.51682
1480686704833205,-0.72343,0.1543,-2.51705
1480686704848246,-0.723817,0.15479,-2.51716
1480686704874316,-0.724344,0.155318,-2.51731
1480686704901388,-0.725184,0.155771,-2.51762
1480686704916928,-0.726125,0.156327,-2.51809
1480686704941495,-0.726927,0.156843,-2.51852
1480686704962048,-0.727942,0.15755,-2.51899
1480686704986615,-0.728888,0.158001,-2.51934
1480686704991126,-0.728888,0.158001,-2.51934
1480686705010176,-0.728888,0.158001,-2.51934
1480686705029732,-0.728888,0.158001,-2.51934
1480686705045771,-0.728888,0.158001,-2.51934
1480686705075353,-0.728888,0.158001,-2.51934
1480686705088384,-0.729028,0.158039,-2.51939
1480686705106433,-0.729028,0.158039,-2.51939
1480686705125484,-0.729028,0.158039,-2.51939
1480686705151051,-0.729028,0.158039,-2.51939
1480686705172107,-0.729028,0.158039,-2.51939
1480686705196171,-0.729028,0.158039,-2.51939
1480686705218229,-0.729028,0.158039,-2.51939
1480686705239288,-0.729028,0.158039,-2.51939
1480686705245302,-0.729028,0.158039,-2.51939
1480686705267861,-0.729028,0.158039,-2.51939
1480686705290422,-0.729063,0.157931,-2.51935
1480686705312981,-0.729063,0.157931,-2.51935
1480686705328022,-0.7292,0.157925,-2.51949
1480686705347073,-0.7292,0.157925,-2.51949
1480686705367127,-0.729063,0.157931,-2.51935
1480686705404225,-0.72906,0.157886,-2.51944
1480686705428790,-0.72906,0.157886,-2.51944
1480686705450347,-0.72906,0.157886,-2.51944
1480686705453355,-0.729095,0.157778,-2.5194
1480686705472406,-0.72906,0.157886,-2.51944
1480686705494467,-0.729095,0.157778,-2.5194
1480686705517025,-0.729095,0.157778,-2.5194
1480686705526049,-0.729095,0.157778,-2.5194
1480686705548608,-0.729095,0.157778,-2.5194
1480686705569664,-0.729235,0.157816,-2.51945
1480686705598741,-0.729235,0.157816,-2.51945
1480686705607766,-0.729095,0.157778,-2.5194
1480686705644865,-0.72913,0.157669,-2.51936
1480686705647372,-0.72913,0.157669,-2.51936
1480686705684469,-0.72927,0.157708,-2.51941
1480686705705025,-0.72927,0.157708,-2.51941
1480686705707532,-0.72927,0.157708,-2.51941
1480686705728587,-0.729302,0.157554,-2.51946
1480686705749643,-0.729161,0.157516,-2.51942
1480686705765686,-0.729302,0.157554,-2.51946
1480686705788246,-0.729337,0.157446,-2.51943
1480686705815318,-0.729337,0.157446,-2.51943
1480686705825846,-0.729337,0.157446,-2.51943
1480686705849408,-0.729196,0.157407,-2.51938
1480686705887008,-0.729196,0.157407,-2.51938
1480686705898037,-0.729337,0.157446,-2.51943
1480686705923104,-0.729372,0.157337,-2.51939
1480686705930122,-0.729372,0.157337,-2.51939
1480686705946166,-0.729372,0.157337,-2.51939
1480686705981760,-0.729372,0.157337,-2.51939
1480686706004821,-0.729372,0.157337,-2.51939
1480686706007328,-0.729372,0.157337,-2.51939
1480686706028384,-0.729512,0.157376,-2.51944
1480686706047936,-0.729372,0.157337,-2.51939
1480686706073505,-0.729403,0.157184,-2.51944
1480686706089546,-0.729403,0.157184,-2.51944
1480686706108597,-0.729544,0.157223,-2.51949
1480686706132160,-0.729544,0.157223,-2.51949
1480686706155736,-0.729544,0.157223,-2.51949
1480686706184299,-0.729544,0.157223,-2.51949
1480686706190818,-0.729439,0.157076,-2.51941
1480686706208364,-0.729439,0.157076,-2.51941
1480686706235435,-0.729579,0.157114,-2.51946
1480686706261004,-0.729786,0.157364,-2.51971
1480686706284566,-0.729786,0.157364,-2.51971
1480686706297099,-0.729645,0.157325,-2.51967
1480686706310635,-0.729293,0.157569,-2.51977
1480686706329185,-0.72961,0.157906,-2.51989
1480686706350241,-0.729714,0.158378,-2.52013
1480686706378816,-0.729569,0.158871,-2.52049
1480686706404384,-0.729628,0.159569,-2.5212
1480686706441483,-0.72929,0.159689,-2.52198
1480686706463040,-0.72718,0.159953,-2.52317
1480686706465546,-0.725969,0.160679,-2.52406
1480686706487606,-0.725331,0.161336,-2.52458
1480686706490613,-0.724789,0.161682,-2.52529
1480686706538744,-0.722912,0.16232,-2.52617
1480686706544256,-0.721002,0.163069,-2.52708
1480686706550775,-0.719575,0.164145,-2.52724
1480686706568320,-0.718096,0.165838,-2.52713
1480686706589376,-0.716366,0.167616,-2.52737
1480686706610432,-0.714295,0.169905,-2.52765
1480686706634496,-0.712017,0.172438,-2.52817
1480686706649535,-0.709814,0.175186,-2.5289
1480686706687637,-0.708667,0.177713,-2.52941
1480686706692150,-0.708523,0.179581,-2.53003
1480686706715712,-0.708814,0.180884,-2.53147
1480686706740778,-0.708114,0.181718,-2.53285
1480686706763339,-0.70748,0.182353,-2.53447
1480686706770858,-0.709296,0.182717,-2.53584
1480686706796426,-0.713693,0.182282,-2.53699
1480686706815979,-0.716611,0.181649,-2.53837
1480686706838538,-0.717825,0.18155,-2.53961
1480686706858090,-0.718828,0.18135,-2.54063
1480686706868618,-0.720541,0.181198,-2.54115
1480686706908224,-0.721406,0.180942,-2.54181
1480686706928780,-0.721475,0.181187,-2.54264
1480686706940309,-0.721465,0.182096,-2.54304
1480686706965877,-0.72166,0.182885,-2.54362
1480686706970400,-0.721751,0.183617,-2.54394
1480686706994453,-0.721137,0.184204,-2.54393
1480686707025036,-0.720383,0.184923,-2.54421
1480686707046592,-0.719943,0.185501,-2.54443
1480686707070154,-0.719943,0.185501,-2.54443
1480686707072661,-0.719943,0.185501,-2.54443
1480686707092214,-0.719802,0.185463,-2.54438
1480686707115776,-0.71935,0.18561,-2.54431
1480686707138837,-0.718649,0.185679,-2.54424
1480686707158389,-0.718649,0.185679,-2.54424
1480686707168415,-0.718649,0.185679,-2.54424
1480686707190976,-0.718507,0.185641,-2.54419
1480686707256149,-0.718326,0.185434,-2.54393
1480686707267179,-0.717751,0.18502,-2.5438
1480686707288736,-0.716692,0.184863,-2.54364
1480686707290742,-0.716444,0.184722,-2.54341
1480686707303277,-0.716444,0.184722,-2.54341
1480686707318315,-0.716303,0.184684,-2.54336
1480686707331851,-0.716336,0.184682,-2.54346
1480686707348394,-0.716336,0.184682,-2.54346
1480686707370954,-0.716303,0.184684,-2.54336
1480686707415072,-0.715919,0.184701,-2.54304
1480686707417579,-0.715155,0.184864,-2.5426
1480686707438634,-0.714988,0.185069,-2.54232
1480686707459691,-0.714431,0.185095,-2.54176
1480686707483253,-0.713703,0.185299,-2.54133
1480686707495285,-0.713254,0.185427,-2.54095
1480686707519349,-0.713254,0.185427,-2.54095
1480686707540407,-0.713708,0.185325,-2.54093
1480686707559461,-0.714298,0.18511,-2.54092
1480686707581013,-0.714332,0.185107,-2.54101
1480686707588533,-0.714298,0.18511,-2.54092
1480686707611094,-0.714752,0.185008,-2.54089
1480686707641174,-0.715771,0.184933,-2.54063
1480686707653208,-0.716843,0.184103,-2.53987
1480686707671253,-0.716793,0.183332,-2.53903
1480686707693816,-0.716793,0.183332,-2.53903
1480686707730914,-0.716793,0.183332,-2.53903
1480686707732917,-0.716957,0.183207,-2.53984
1480686707761494,-0.716277,0.183066,-2.54062
1480686707780543,-0.717554,0.182388,-2.54102
1480686707791072,-0.72089,0.181307,-2.54182
1480686707827170,-0.725258,0.180537,-2.54273
1480686707849729,-0.727854,0.180166,-2.5428
1480686707862763,-0.728075,0.180338,-2.54254
1480686707873290,-0.727586,0.181575,-2.54241
1480686707900362,-0.727521,0.18282,-2.5423
1480686707918911,-0.727721,0.183637,-2.54248
1480686707937962,-0.727828,0.184766,-2.54247
1480686707960527,-0.727135,0.186246,-2.54259
1480686707971051,-0.725803,0.187575,-2.54256
1480686707995123,-0.724862,0.188915,-2.54245
1480686708015168,-0.724532,0.18964,-2.54275
1480686708038730,-0.72423,0.190165,-2.5432
1480686708053269,-0.724372,0.190203,-2.54325
1480686708076330,-0.724509,0.190167,-2.54379
1480686708103904,-0.723786,0.190669,-2.54391
1480686708126967,-0.723147,0.190581,-2.54398
1480686708133984,-0.723147,0.190581,-2.54398
1480686708150026,-0.723147,0.190581,-2.54398
1480686708172586,-0.722642,0.190289,-2.54424
1480686708195650,-0.721957,0.190817,-2.54405
1480686708217705,-0.720864,0.191813,-2.54404
1480686708232245,-0.719826,0.192383,-2.54472
1480686708253803,-0.720342,0.193141,-2.54537
1480686708269845,-0.721104,0.193779,-2.54607
1480686708293408,-0.722384,0.194157,-2.54691
1480686708313460,-0.722526,0.194195,-2.54696
1480686708330008,-0.721538,0.194144,-2.54687
1480686708353071,-0.720023,0.194153,-2.54694
1480686708375126,-0.719334,0.19361,-2.54703
1480686708405205,-0.719321,0.193224,-2.54665
1480686708413226,-0.71924,0.192922,-2.54662
1480686708434283,-0.718302,0.192301,-2.5467
1480686708450324,-0.717555,0.192049,-2.54637
1480686708473386,-0.716493,0.191831,-2.54599
1480686708493445,-0.715874,0.191185,-2.54542
1480686708509983,-0.715255,0.190475,-2.54464
1480686708533044,-0.714497,0.189791,-2.54403
1480686708570644,-0.714499,0.188728,-2.5436
1480686708573151,-0.713866,0.187579,-2.54324
1480686708598719,-0.712264,0.186853,-2.543
1480686708615263,-0.711159,0.186303,-2.54308
1480686708638324,-0.712294,0.185692,-2.54356
1480686708653866,-0.713344,0.18586,-2.54474
1480686708681439,-0.713566,0.186427,-2.54587
1480686708690965,-0.713509,0.187107,-2.54756
1480686708713023,-0.713215,0.186991,-2.54929
1480686708735583,-0.713055,0.186532,-2.54997
1480686708758144,-0.71276,0.186006,-2.54928
1480686708772682,-0.712066,0.185104,-2.5486
1480686708801257,-0.711435,0.184962,-2.54774
1480686708809780,-0.711688,0.185109,-2.54725
1480686708832842,-0.712046,0.185272,-2.54712
1480686708869940,-0.712046,0.185272,-2.54712
1480686708872447,-0.712077,0.185162,-2.54709
1480686708893504,-0.712157,0.185401,-2.5469
1480686708915562,-0.712375,0.185633,-2.54685
1480686708938124,-0.713216,0.1856,-2.54697
1480686708960184,-0.713681,0.185866,-2.54701
1480686708974721,-0.714615,0.186567,-2.54745
1480686708995774,-0.714985,0.187179,-2.54792
1480686709012823,-0.714967,0.18772,-2.54824
1480686709035381,-0.715027,0.188456,-2.54847
1480686709056436,-0.715277,0.189596,-2.5489
1480686709072480,-0.716317,0.190202,-2.54958
1480686709095540,-0.716802,0.191006,-2.55004
1480686709116596,-0.716772,0.191161,-2.54999
1480686709132639,-0.716772,0.191161,-2.54999
1480686709155701,-0.716631,0.191123,-2.54994
1480686709184276,-0.716772,0.191161,-2.54999
1480686709192800,-0.717476,0.191098,-2.54935
1480686709214857,-0.717153,0.190862,-2.54833
1480686709235913,-0.714394,0.191296,-2.54793
1480686709252457,-0.712855,0.191406,-2.54702
1480686709276021,-0.71261,0.190399,-2.54631
1480686709296575,-0.711363,0.19092,-2.54668
1480686709313621,-0.711764,0.19238,-2.54741
1480686709341698,-0.711371,0.193288,-2.54961
1480686709357741,-0.710696,0.194034,-2.5519
1480686709373279,-0.712327,0.193547,-2.55279
1480686709401355,-0.713649,0.193227,-2.55335
1480686709426421,-0.71391,0.195375,-2.55329
1480686709432436,-0.714481,0.197292,-2.55334
1480686709461012,-0.714657,0.198183,-2.55294
1480686709485577,-0.714926,0.198771,-2.55203
1480686709492596,-0.714305,0.199134,-2.55096
1480686709515155,-0.7127,0.199467,-2.55012
1480686709537716,-0.711438,0.199584,-2.54979
1480686709559274,-0.711,0.19919,-2.54939
1480686709575318,-0.711,0.19919,-2.54939
1480686709597375,-0.711,0.19919,-2.54939
1480686709613417,-0.71089,0.199042,-2.54931
1480686709636479,-0.71089,0.199042,-2.54931
1480686709663551,-0.71181,0.199222,-2.54965
1480686709678591,-0.71181,0.199222,-2.54965
1480686709704660,-0.711438,0.199584,-2.54979
1480686709717695,-0.710893,0.199973,-2.55001
1480686709740257,-0.711255,0.200262,-2.55032
1480686709762313,-0.711394,0.200192,-2.55025
1480686709791390,-0.711535,0.20023,-2.55029
1480686709807434,-0.710944,0.200385,-2.55008
1480686709816457,-0.710162,0.20018,-2.54957
1480686709840020,-0.709382,0.200019,-2.54897
1480686709852052,-0.708493,0.199729,-2.54859
1480686709881130,-0.707885,0.19947,-2.5484
1480686709906196,-0.707497,0.199418,-2.54857
1480686709913214,-0.707948,0.199295,-2.54824
1480686709937278,-0.708272,0.19859,-2.54754
1480686709988916,-0.706264,0.198379,-2.54809
1480686709995936,-0.704739,0.198803,-2.54876
1480686709997945,-0.705221,0.198491,-2.55031
1480686710018997,-0.705933,0.197823,-2.55158
1480686710040053,-0.707079,0.19662,-2.55183
1480686710062613,-0.706452,0.19584,-2.55154
1480686710085674,-0.70481,0.196913,-2.55087
1480686710098709,-0.704503,0.198061,-2.55044
1480686710115252,-0.70463,0.198647,-2.5501
1480686710143828,-0.704725,0.199322,-2.54948
1480686710160372,-0.704137,0.199566,-2.54909
1480686710174914,-0.703126,0.199716,-2.54886
1480686710198976,-0.702985,0.199678,-2.54881
1480686710235573,-0.704087,0.199154,-2.54902
1480686710238079,-0.705161,0.198829,-2.54908
1480686710258136,-0.705127,0.19883,-2.54899
1480686710278686,-0.705161,0.198829,-2.54908
1480686710295230,-0.705019,0.198791,-2.54904
1480686710326314,-0.70505,0.198681,-2.549
1480686710340352,-0.70505,0.198681,-2.549
1480686710362409,-0.70575,0.198654,-2.54898
1480686710392489,-0.70614,0.198769,-2.54904
1480686710405524,-0.70614,0.198769,-2.54904
1480686710415551,-0.70614,0.198769,-2.54904
1480686710443624,-0.70614,0.198769,-2.54904
1480686710474711,-0.706248,0.198809,-2.549
1480686710481227,-0.706248,0.198809,-2.549
1480686710505289,-0.706281,0.198807,-2.54909
1480686710520830,-0.706171,0.198659,-2.549
1480686710535369,-0.706171,0.198659,-2.549
1480686710557929,-0.706091,0.198401,-2.54888
1480686710579987,-0.705531,0.198402,-2.54872
1480686710595028,-0.705641,0.19855,-2.54881
1480686710617587,-0.705641,0.19855,-2.54881
1480686710640150,-0.705531,0.198402,-2.54872
1480686710654686,-0.704551,0.198413,-2.54957
1480686710677748,-0.704461,0.198803,-2.55061
1480686710700809,-0.704897,0.199085,-2.55159
1480686710721365,-0.7053,0.198628,-2.55244
1480686710743422,-0.70533,0.198473,-2.55249
1480686710760468,-0.70485,0.198802,-2.55197
1480686710774504,-0.704543,0.199906,-2.55162
1480686710797566,-0.70458,0.200842,-2.5517
1480686710820127,-0.704895,0.201681,-2.55153
1480686710834665,-0.705255,0.20195,-2.55153
1480686710857727,-0.705114,0.201912,-2.55148
1480686710880286,-0.705114,0.201912,-2.55148
1480686710902846,-0.705114,0.201912,-2.55148
1480686710917886,-0.705114,0.201912,-2.55148
1480686710939945,-0.705255,0.20195,-2.55153
1480686710962003,-0.705114,0.201912,-2.55148
1480686710978045,-0.705144,0.201802,-2.55145
1480686711001609,-0.705144,0.201802,-2.55145
1480686711021161,-0.705144,0.201802,-2.55145
1480686711038206,-0.705144,0.201802,-2.55145
1480686711068286,-0.705286,0.20184,-2.55149
1480686711081321,-0.705175,0.201692,-2.55141
1480686711098366,-0.705003,0.201764,-2.5514
1480686711120425,-0.705034,0.201654,-2.55136
1480686711148499,-0.705175,0.201692,-2.55141
1480686711157528,-0.705174,0.201648,-2.5515
1480686711180585,-0.704786,0.201597,-2.55167
1480686711201641,-0.704786,0.201597,-2.55167
1480686711217683,-0.704645,0.201559,-2.55162
1480686711241749,-0.704645,0.201559,-2.55162
1480686711278346,-0.704817,0.201487,-2.55163
1480686711280350,-0.704507,0.20163,-2.5517
1480686711299902,-0.704366,0.201592,-2.55165
1480686711320958,-0.704224,0.201554,-2.5516
1480686711339006,-0.704224,0.201554,-2.5516
1480686711360063,-0.704009,0.201432,-2.55178
1480686711390644,-0.703556,0.201448,-2.55198
1480686711466345,-0.703697,0.201418,-2.55252
1480686711471860,-0.704351,0.201151,-2.55279
1480686711495423,-0.703702,0.201411,-2.55395
1480686711502441,-0.703892,0.201728,-2.55434
1480686711517481,-0.703602,0.202306,-2.55469
1480686711540041,-0.70289,0.202815,-2.55481
1480686711562601,-0.702999,0.202942,-2.55459
1480686711577140,-0.70258,0.203026,-2.55439
1480686711600703,-0.702021,0.203117,-2.55405
1480686711632286,-0.701489,0.203032,-2.55345
1480686711636798,-0.700368,0.203103,-2.55264
1480686711674904,-0.69819,0.202954,-2.55216
1480686711705481,-0.696684,0.202951,-2.55192
1480686711749096,-0.695799,0.202616,-2.55235
1480686711759124,-0.696669,0.202514,-2.55235
1480686711773161,-0.697286,0.202227,-2.55221
1480686711780680,-0.694743,0.202485,-2.55178
1480686711802739,-0.693703,0.202703,-2.55168
1480686711825300,-0.692869,0.202738,-2.55227
1480686711840339,-0.69388,0.202587,-2.55321
1480686711862398,-0.694663,0.20264,-2.55511
1480686711884958,-0.695463,0.203172,-2.5565
1480686711908021,-0.697894,0.203369,-2.5581
1480686711924566,-0.699337,0.202605,-2.55923
1480686711951134,-0.699,0.20275,-2.55992
1480686711982216,-0.699047,0.203119,-2.55937
1480686711999763,-0.698694,0.203944,-2.55868
1480686712018312,-0.697945,0.205265,-2.55848
1480686712044882,-0.697314,0.206013,-2.55841
1480686712050899,-0.697314,0.206013,-2.55841
1480686712063433,-0.697285,0.206167,-2.55835
1480686712079976,-0.696866,0.206208,-2.55824
1480686712103539,-0.696866,0.206208,-2.55824
1480686712123592,-0.696784,0.20595,-2.55812
1480686712140138,-0.696739,0.205668,-2.55849
1480686712163198,-0.696374,0.206012,-2.55904
1480686712185256,-0.697129,0.206261,-2.56008
1480686712200296,-0.698102,0.206762,-2.56067
1480686712222859,-0.69857,0.207068,-2.56063
1480686712245416,-0.697675,0.207305,-2.56098
1480686712268477,-0.696689,0.207895,-2.56104
1480686712290035,-0.696414,0.20782,-2.56166
1480686712311091,-0.696807,0.207867,-2.56221
1480686712334153,-0.69767,0.208352,-2.56244
1480686712344180,-0.697693,0.208743,-2.56282
1480686712365737,-0.697718,0.209222,-2.56301
1480686712379272,-0.697718,0.209222,-2.56301
1480686712402334,-0.697747,0.209112,-2.56298
1480686712426902,-0.697268,0.209242,-2.56322
1480686712445949,-0.696732,0.209726,-2.56326
1480686712470014,-0.69598,0.210002,-2.56365
1480686712501598,-0.696126,0.209974,-2.5642
1480686712513129,-0.697824,0.210264,-2.56452
1480686712524160,-0.699166,0.21044,-2.56489
1480686712545213,-0.698801,0.210807,-2.56503
1480686712567773,-0.697903,0.211024,-2.56506
1480686712590837,-0.697796,0.210986,-2.56511
1480686712621417,-0.698078,0.210973,-2.56539
1480686712626930,-0.699284,0.211133,-2.56601
1480686712642472,-0.700394,0.211493,-2.56631
1480686712665033,-0.701484,0.211572,-2.56636
1480686712679572,-0.701626,0.211609,-2.5664
1480686712703133,-0.701156,0.211348,-2.56635
1480686712731709,-0.700066,0.211225,-2.5664
1480686712748254,-0.700291,0.211388,-2.56685
1480686712777832,-0.702171,0.211078,-2.56717
1480686712785853,-0.703463,0.210339,-2.56705
1480686712800893,-0.7033,0.209977,-2.56684
1480686712822452,-0.702098,0.209839,-2.56652
1480686712845511,-0.701228,0.209946,-2.56652
1480686712876094,-0.701894,0.210002,-2.56624
1480686712882610,-0.703213,0.209831,-2.56613
1480686712905673,-0.703686,0.209502,-2.56594
1480686712926229,-0.703553,0.208985,-2.56579
1480686712942771,-0.703054,0.208269,-2.56513
1480686712965331,-0.701827,0.207651,-2.56462
1480686712986386,-0.701807,0.207282,-2.56455
1480686713002430,-0.703271,0.206338,-2.56472
1480686713024990,-0.704457,0.205474,-2.56482
1480686713053565,-0.705056,0.204835,-2.56492
1480686713076125,-0.704616,0.204419,-2.56493
1480686713091168,-0.704163,0.204507,-2.56463
1480686713107713,-0.70394,0.204344,-2.56419
1480686713130270,-0.703439,0.204217,-2.56377
1480686713153331,-0.702484,0.204132,-2.56315
1480686713166365,-0.700974,0.204204,-2.56242
1480686713190432,-0.699204,0.204592,-2.56196
1480686713212989,-0.698756,0.204744,-2.56189
1480686713226025,-0.699224,0.205005,-2.56194
1480686713243069,-0.700063,0.205011,-2.56198
1480686713265127,-0.700512,0.204859,-2.56205
1480686713289693,-0.700512,0.204859,-2.56205
1480686713324786,-0.700512,0.204859,-2.56205
1480686713348350,-0.700542,0.204749,-2.56201
1480686713350355,-0.70104,0.2049,-2.56202
1480686713371411,-0.70166,0.204719,-2.56201
1480686713385448,-0.701519,0.204682,-2.56197
1480686713408509,-0.70085,0.204603,-2.56194
1480686713423049,-0.700679,0.204721,-2.56184
1480686713452626,-0.700679,0.204721,-2.56184
1480686713475188,-0.700679,0.204721,-2.56184
1480686713491230,-0.700679,0.204721,-2.56184
1480686713513287,-0.700538,0.204683,-2.56179
1480686713533859,-0.700171,0.205093,-2.56184
1480686713548882,-0.69983,0.205283,-2.56173
1480686713564925,-0.699444,0.20528,-2.5618
1480686713587485,-0.698805,0.205091,-2.56174
1480686713617065,-0.698025,0.204909,-2.56154
1480686713640125,-0.697884,0.204871,-2.56149
1480686713647144,-0.698473,0.204669,-2.5618
1480686713675719,-0.699515,0.204468,-2.56221
1480686713686752,-0.699426,0.204755,-2.56241
1480686713707807,-0.698502,0.205147,-2.56271
1480686713729863,-0.698502,0.205147,-2.56271
1480686713752424,-0.698361,0.20511,-2.56266
1480686713767464,-0.698257,0.205093,-2.56301
1480686713782503,-0.69803,0.205365,-2.56348
1480686713820605,-0.697726,0.205488,-2.56395
1480686713851186,-0.6977,0.20562,-2.5643
1480686713855699,-0.698007,0.205475,-2.56423
1480686713903325,-0.697637,0.205731,-2.56425
1480686713905832,-0.696823,0.206295,-2.56422
1480686713941428,-0.696116,0.206896,-2.56416
1480686713947943,-0.695298,0.207349,-2.56401
1480686713951457,-0.69448,0.207802,-2.56386
1480686713970002,-0.693896,0.208071,-2.56377
1480686713985042,-0.693369,0.207944,-2.56398
1480686714007605,-0.693369,0.207944,-2.56398
1480686714028659,-0.693476,0.207981,-2.56394
1480686714045703,-0.693369,0.207944,-2.56398
1480686714067762,-0.693369,0.207944,-2.56398
1480686714088317,-0.693227,0.207906,-2.56393
1480686714120402,-0.694094,0.207756,-2.56402
1480686714141960,-0.695214,0.207659,-2.56452
1480686714155997,-0.695808,0.207566,-2.56495
1480686714166526,-0.695666,0.207529,-2.56491
1480686714203623,-0.695666,0.207529,-2.56491
1480686714216658,-0.696169,0.207177,-2.5645
1480686714228189,-0.696564,0.206699,-2.56432
1480686714247741,-0.696204,0.20652,-2.56414
1480686714270300,-0.695644,0.206525,-2.56398
1480686714285341,-0.694898,0.206299,-2.56397
1480686714307904,-0.694757,0.206261,-2.56392
1480686714329961,-0.694757,0.206261,-2.56392
1480686714344999,-0.694901,0.206233,-2.56446
1480686714375080,-0.694901,0.206233,-2.56446
1480686714404658,-0.69493,0.206123,-2.56443
1480686714418695,-0.693767,0.206355,-2.56562
1480686714428723,-0.694093,0.207191,-2.56616
1480686714503922,-0.696469,0.20701,-2.5669
1480686714515954,-0.697038,0.207049,-2.56768
1480686714543026,-0.696993,0.208252,-2.56765
1480686714550546,-0.694039,0.208441,-2.5681
1480686714570098,-0.695126,0.208475,-2.56823
1480686714584637,-0.697977,0.208181,-2.56832
1480686714607699,-0.698114,0.208064,-2.56834
1480686714630258,-0.695653,0.208558,-2.56811
1480686714652818,-0.693682,0.208285,-2.56823
1480686714674878,-0.693072,0.2079,-2.56832
1480686714706461,-0.693084,0.207311,-2.5688
1480686714711975,-0.693897,0.206833,-2.56864
1480686714727517,-0.694174,0.206797,-2.56861
1480686714750578,-0.693467,0.208079,-2.56859
1480686714771634,-0.692891,0.209176,-2.56836
1480686714787677,-0.692245,0.20947,-2.56841
1480686714825779,-0.693028,0.209147,-2.56819
1480686714831293,-0.694176,0.208456,-2.56783
1480686714847836,-0.692811,0.208371,-2.56792
1480686714886942,-0.692787,0.208066,-2.56735
1480686714908000,-0.693347,0.206966,-2.56614
1480686714910503,-0.692876,0.20607,-2.56524
1480686714931559,-0.692762,0.206074,-2.56448
1480686714952616,-0.692031,0.205648,-2.56318
1480686714975676,-0.689031,0.204981,-2.56265
1480686714997735,-0.685864,0.205025,-2.56298
1480686715011272,-0.686745,0.205308,-2.56264
1480686715035335,-0.689279,0.2051,-2.56257
1480686715056391,-0.689394,0.205227,-2.56306
1480686715078449,-0.688747,0.205563,-2.56301
1480686715087473,-0.688747,0.205563,-2.56301
1480686715110033,-0.688639,0.205525,-2.56305
1480686715140114,-0.688639,0.205525,-2.56305
1480686715148135,-0.688747,0.205563,-2.56301
1480686715185736,-0.688747,0.205563,-2.56301
1480686715208295,-0.688747,0.205563,-2.56301
1480686715210300,-0.688639,0.205525,-2.56305
1480686715231357,-0.688913,0.205467,-2.56271
1480686715252412,-0.688943,0.205356,-2.56267
1480686715280988,-0.688525,0.205398,-2.56256
1480686715290015,-0.688381,0.205424,-2.56202
1480686715312573,-0.688078,0.205043,-2.56136
1480686715341651,-0.687306,0.20429,-2.56053
1480686715357693,-0.685536,0.203781,-2.56001
1480686715380252,-0.684808,0.203814,-2.55993
1480686715395297,-0.685593,0.203536,-2.55962
1480686715417351,-0.684907,0.203021,-2.55932
1480686715439911,-0.6831,0.203083,-2.55934
1480686715462472,-0.681413,0.202746,-2.55912
1480686715493053,-0.681333,0.202573,-2.55882
1480686715495562,-0.681388,0.202304,-2.55813
1480686715523135,-0.681136,0.202223,-2.55741
1480686715539176,-0.679636,0.2022,-2.55686
1480686715569255,-0.679496,0.202163,-2.55682
1480686715590814,-0.679833,0.201949,-2.55662
1480686715593321,-0.67943,0.201508,-2.55642
1480686715628914,-0.678746,0.200906,-2.5563
1480686715633426,-0.679116,0.200606,-2.55638
1480686715663506,-0.679851,0.19983,-2.55619
1480686715678546,-0.680004,0.199343,-2.55623
1480686715693586,-0.680004,0.199343,-2.55623
1480686715710130,-0.680034,0.199233,-2.55619
1480686715740215,-0.680004,0.199343,-2.55623
1480686715761266,-0.679864,0.199306,-2.55618
1480686715770791,-0.680757,0.199005,-2.55632
1480686715792349,-0.681761,0.198895,-2.55646
1480686715813404,-0.682518,0.198666,-2.55668
1480686715830950,-0.683044,0.198731,-2.55696
1480686715852508,-0.683184,0.198769,-2.557
1480686715873568,-0.682797,0.198655,-2.55695
1480686715890610,-0.682657,0.198617,-2.55691
1480686715920689,-0.683602,0.198772,-2.55702
1480686715941246,-0.683957,0.19891,-2.55729
1480686715950268,-0.683501,0.199588,-2.55794
1480686715972327,-0.683627,0.200063,-2.55818
1480686715994887,-0.684602,0.200063,-2.55835
1480686716017948,-0.684602,0.200063,-2.55835
1480686716040513,-0.68349,0.200136,-2.55826
1480686716063569,-0.682873,0.20036,-2.55818
1480686716070086,-0.682873,0.20036,-2.55818
1480686716108188,-0.682843,0.200471,-2.55821
1480686716113702,-0.683072,0.20009,-2.55834
1480686716143784,-0.68403,0.199676,-2.55853
1480686716168348,-0.68403,0.199676,-2.55853
1480686716227507,-0.683641,0.199477,-2.55867
1480686716252071,-0.683307,0.1998,-2.55899
1480686716274132,-0.68414,0.199675,-2.5593
1480686716278642,-0.684727,0.199562,-2.55941
1480686716295689,-0.683803,0.199975,-2.55931
1480686716316241,-0.683097,0.200531,-2.55934
1480686716338802,-0.683899,0.200623,-2.55909
1480686716355346,-0.684854,0.200186,-2.55897
1480686716370887,-0.684883,0.200032,-2.55903
1480686716399964,-0.684019,0.200224,-2.55885
1480686716429041,-0.683032,0.200705,-2.55879
1480686716495718,-0.683032,0.200705,-2.55879
1480686716509255,-0.683589,0.200702,-2.55894
1480686716526301,-0.683619,0.200591,-2.5589
1480686716543846,-0.683619,0.200591,-2.5589
1480686716549865,-0.682865,0.200888,-2.5589
1480686716556381,-0.681848,0.201523,-2.55878
1480686716572423,-0.681852,0.201633,-2.5589
1480686716595485,-0.681711,0.201596,-2.55886
1480686716618044,-0.682098,0.201623,-2.55909
1480686716640607,-0.682098,0.201623,-2.55909
1480686716662162,-0.682238,0.20166,-2.55914
1480686716679207,-0.682238,0.20166,-2.55914
1480686716721821,-0.682238,0.20166,-2.55914
1480686716761426,-0.682098,0.201623,-2.55909
1480686716798022,-0.68121,0.202016,-2.55948
1480686716804039,-0.683927,0.202597,-2.56101
1480686716820081,-0.686794,0.202534,-2.56255
1480686716850663,-0.686213,0.202695,-2.56306
1480686716873223,-0.685569,0.202968,-2.56351
1480686716875730,-0.686596,0.203249,-2.56402
1480686716895281,-0.687963,0.203338,-2.56464
1480686716918342,-0.688496,0.203424,-2.56524
1480686716938396,-0.688466,0.203535,-2.56528
1480686716954940,-0.688466,0.203535,-2.56528
1480686717023628,-0.688195,0.202936,-2.56517
1480686717038161,-0.687359,0.202977,-2.56505
1480686717060722,-0.687218,0.202939,-2.565
1480686717063228,-0.687252,0.202939,-2.56509
1480686717076764,-0.687111,0.202902,-2.56505
1480686717097819,-0.687578,0.203162,-2.56509
1480686717120379,-0.688078,0.203423,-2.56523
1480686717150962,-0.68782,0.203872,-2.56523
1480686717173527,-0.686978,0.204503,-2.56534
1480686717175526,-0.685918,0.204862,-2.56559
1480686717195079,-0.685945,0.205279,-2.56628
1480686717232178,-0.688058,0.205592,-2.56692
1480686717238695,-0.690541,0.205559,-2.56773
1480686717277799,-0.690901,0.205694,-2.56801
1480686717298353,-0.690118,0.206149,-2.56795
1480686717308882,-0.689302,0.206603,-2.5678
1480686717322417,-0.689302,0.206603,-2.5678
1480686717354003,-0.689103,0.206744,-2.56792
1480686717358514,-0.689298,0.207063,-2.56831
1480686717375058,-0.690217,0.207237,-2.56865
1480686717406140,-0.690105,0.207089,-2.56856
1480686717420678,-0.689464,0.207494,-2.56874
1480686717435217,-0.688856,0.207724,-2.56937
1480686717472316,-0.689325,0.208555,-2.57005
1480686717474822,-0.691393,0.208561,-2.57076
1480686717495377,-0.69262,0.208542,-2.57113
1480686717518439,-0.692393,0.208925,-2.571
1480686717532978,-0.689581,0.209179,-2.5711
1480686717555538,-0.688211,0.209753,-2.57092
1480686717578096,-0.688211,0.209753,-2.57092
1480686717607675,-0.688766,0.209636,-2.57095
1480686717615196,-0.689387,0.209431,-2.57134
1480686717638257,-0.689648,0.208961,-2.57174
1480686717658811,-0.689648,0.208961,-2.57174
1480686717682875,-0.689648,0.208961,-2.57174
1480686717711451,-0.689818,0.208843,-2.57185
1480686717721979,-0.689031,0.209233,-2.57157
1480686717735015,-0.687913,0.209245,-2.57125
1480686717763591,-0.687884,0.209356,-2.57129
1480686717786652,-0.687884,0.209356,-2.57129
1480686717796678,-0.688025,0.209393,-2.57134
1480686717831270,-0.687834,0.209053,-2.57135
1480686717840798,-0.687163,0.209042,-2.57083
1480686717878396,-0.686685,0.208692,-2.57025
1480686717880401,-0.685881,0.208119,-2.56968
1480686717906974,-0.68524,0.207865,-2.5694
1480686717914993,-0.685545,0.207761,-2.56924
1480686717939558,-0.685545,0.207761,-2.56924
1480686717960113,-0.684909,0.207619,-2.56909
1480686717982672,-0.683991,0.207402,-2.56884
1480686717997713,-0.683962,0.207556,-2.56879
1480686718026289,-0.684341,0.20762,-2.56822
1480686718042834,-0.684395,0.207504,-2.56755
1480686718071409,-0.682841,0.207143,-2.56716
1480686718088454,-0.68173,0.207221,-2.56707
1480686718094972,-0.681957,0.206839,-2.56719
1480686718117531,-0.682937,0.2062,-2.56723
1480686718149116,-0.684033,0.205776,-2.56756
1480686718164155,-0.684033,0.205776,-2.56756
1480686718177691,-0.684417,0.205734,-2.56758
1480686718200251,-0.684868,0.205735,-2.56769
1480686718214289,-0.684868,0.205692,-2.56778
1480686718237350,-0.68445,0.205691,-2.56776
1480686718260535,-0.68445,0.205691,-2.56776
1480686718282470,-0.684533,0.205291,-2.56744
1480686718297510,-0.684533,0.205291,-2.56744
1480686718328092,-0.684533,0.205291,-2.56744
1480686718350651,-0.684567,0.205291,-2.56753
1480686718365190,-0.684533,0.205291,-2.56744
1480686718403793,-0.684674,0.205328,-2.56748
1480686718408806,-0.684674,0.205328,-2.56748
1480686718432368,-0.684533,0.205291,-2.56744
1480686718439919,-0.685121,0.205218,-2.56746
1480686718454428,-0.685121,0.205218,-2.56746
1480686718478992,-0.685315,0.205582,-2.56776
1480686718500550,-0.685315,0.205582,-2.56776
1480686718514587,-0.685315,0.205582,-2.56776
1480686718562214,-0.68445,0.205691,-2.56776
1480686718583270,-0.68431,0.205653,-2.56772
1480686718585778,-0.68445,0.205691,-2.56776
1480686718604827,-0.68445,0.205691,-2.56776
1480686718619867,-0.68445,0.205691,-2.56776
1480686718642427,-0.68445,0.205691,-2.56776
1480686718657970,-0.68445,0.205691,-2.56776
1480686718703089,-0.684314,0.205677,-2.56803
1480686718705596,-0.684314,0.205677,-2.56803
1480686718717627,-0.684455,0.205715,-2.56808
1480686718740688,-0.684455,0.205715,-2.56808
1480686718769264,-0.683838,0.205898,-2.56809
1480686718791324,-0.682945,0.206205,-2.56794
1480686718815888,-0.682053,0.206468,-2.56789
1480686718837947,-0.682053,0.206468,-2.56789
1480686718840959,-0.682189,0.206395,-2.56781
1480686718860005,-0.682213,0.206876,-2.56801
1480686718881062,-0.682213,0.206876,-2.56801
1480686718897606,-0.682073,0.206838,-2.56796
1480686718920166,-0.682073,0.206838,-2.56796
1480686718956265,-0.683019,0.206902,-2.56826
1480686718981328,-0.68316,0.206939,-2.56831
1480686718986344,-0.682602,0.206944,-2.56815
1480686719002885,-0.681491,0.207022,-2.56806
1480686719018427,-0.680933,0.207071,-2.56781
1480686719039989,-0.680933,0.207071,-2.56781
1480686719070065,-0.680933,0.207071,-2.56781
1480686719092627,-0.680933,0.207071,-2.56781
1480686719113680,-0.680933,0.207071,-2.56781
1480686719130224,-0.680933,0.207071,-2.56781
1480686719138246,-0.680268,0.207039,-2.5677
1480686719161307,-0.679207,0.207376,-2.56764
1480686719182864,-0.679314,0.207413,-2.56759
1480686719197403,-0.679314,0.207413,-2.56759
1480686719219963,-0.679314,0.207413,-2.56759
1480686719257562,-0.679347,0.207413,-2.56768
1480686719260070,-0.679207,0.207376,-2.56764
1480686719280123,-0.679314,0.207413,-2.56759
1480686719302684,-0.679314,0.207413,-2.56759
1480686719316721,-0.679314,0.207413,-2.56759
1480686719340284,-0.678679,0.20727,-2.56745
1480686719370363,-0.678121,0.207232,-2.56738
1480686719378885,-0.678262,0.207269,-2.56743
1480686719414981,-0.678262,0.207269,-2.56743
1480686719440552,-0.678262,0.207269,-2.56743
1480686719460603,-0.678262,0.207269,-2.56743
1480686719464112,-0.678155,0.207232,-2.56747
1480686719520763,-0.677738,0.207188,-2.56755
1480686719523273,-0.677738,0.207188,-2.56755
1480686719541317,-0.677878,0.207225,-2.5676
1480686719548838,-0.677878,0.207225,-2.5676
1480686719570896,-0.677346,0.207626,-2.56782
1480686719581424,-0.67737,0.208064,-2.56811
1480686719602481,-0.678373,0.207948,-2.56824
1480686719626545,-0.678175,0.208176,-2.56817
1480686719647600,-0.676669,0.208582,-2.56823
1480686719670662,-0.676673,0.208736,-2.56826
1480686719690715,-0.67707,0.208194,-2.56858
1480686719701744,-0.677966,0.207912,-2.56904
1480686719738843,-0.679527,0.207704,-2.56951
1480686719761403,-0.679527,0.207661,-2.5696
1480686719782960,-0.679502,0.20784,-2.56986
1480686719785466,-0.679362,0.207803,-2.56981
1480686719803516,-0.679391,0.207692,-2.56978
1480686719826077,-0.679391,0.207692,-2.56978
1480686719850640,-0.679531,0.207729,-2.56982
1480686719863675,-0.679052,0.207926,-2.56957
1480686719880219,-0.677991,0.208307,-2.56941
1480686719902778,-0.677319,0.208757,-2.5694
1480686719925340,-0.677823,0.209042,-2.56985
1480686719945893,-0.678967,0.208876,-2.57022
1480686719969958,-0.679074,0.208913,-2.57017
1480686719986502,-0.67933,0.208506,-2.57008
1480686720000038,-0.678689,0.208253,-2.5698
1480686720038641,-0.677864,0.207814,-2.56958
1480686720060699,-0.677922,0.207592,-2.5695
1480686720063206,-0.678701,0.207179,-2.56947
1480686720083760,-0.678842,0.207173,-2.56961
1480686720111333,-0.678672,0.207247,-2.5696
1480686720127376,-0.678672,0.207247,-2.5696
1480686720150939,-0.678566,0.20721,-2.56964
1480686720165477,-0.678566,0.20721,-2.56964
1480686720179514,-0.678566,0.20721,-2.56964
1480686720202576,-0.67923,0.207198,-2.56985
1480686720225137,-0.679957,0.207162,-2.56992
1480686720239677,-0.679957,0.207162,-2.56992
1480686720270255,-0.679816,0.207125,-2.56987
1480686720285798,-0.679816,0.207125,-2.56987
1480686720308357,-0.679845,0.207014,-2.56984
1480686720329915,-0.679845,0.207014,-2.56984
1480686720352474,-0.679845,0.207014,-2.56984
1480686720359493,-0.679845,0.207014,-2.56984
1480686720382554,-0.679738,0.206977,-2.56988
1480686720406121,-0.679738,0.206977,-2.56988
1480686720427173,-0.679874,0.20686,-2.5699
1480686720451238,-0.679874,0.20686,-2.5699
1480686720465274,-0.679874,0.20686,-2.5699
1480686720502874,-0.679733,0.206822,-2.56985
1480686720505382,-0.679767,0.206822,-2.56994
1480686720524934,-0.679936,0.206749,-2.56995
1480686720545989,-0.679903,0.206749,-2.56986
1480686720570055,-0.679903,0.206749,-2.56986
1480686720585093,-0.679936,0.206749,-2.56995
1480686720607653,-0.679796,0.206711,-2.5699
1480686720637733,-0.679796,0.206711,-2.5699
1480686720660923,-0.679824,0.2066,-2.56986
1480686720666811,-0.679965,0.206638,-2.56991
1480686720682352,-0.679631,0.206853,-2.57011
1480686720705917,-0.67949,0.206816,-2.57006
1480686720727472,-0.67949,0.206816,-2.57006
1480686720742512,-0.67949,0.206816,-2.57006
1480686720765072,-0.679631,0.206853,-2.57011
1480686720786131,-0.679631,0.206853,-2.57011
1480686720802672,-0.679597,0.20681,-2.57011
1480686720826235,-0.67966,0.206699,-2.57017
1480686720847792,-0.679156,0.207032,-2.57026
1480686720870854,-0.679156,0.207032,-2.57026
1480686720884890,-0.679297,0.207069,-2.57031
1480686720915472,-0.679263,0.207069,-2.57022
1480686720937530,-0.679185,0.206964,-2.57013
1480686720945050,-0.67824,0.206815,-2.57002
1480686720967610,-0.677436,0.206747,-2.56986
1480686720990171,-0.677436,0.206747,-2.56986
1480686721005211,-0.677576,0.206784,-2.56991
1480686721034788,-0.677188,0.206673,-2.56986
1480686721050831,-0.676578,0.206969,-2.56999
1480686721079909,-0.676438,0.206975,-2.56985
1480686721087428,-0.676438,0.206975,-2.56985
1480686721101967,-0.676578,0.206969,-2.56999
1480686721126032,-0.676714,0.206895,-2.56991
1480686721148090,-0.676133,0.207123,-2.56992
1480686721163130,-0.674821,0.207362,-2.56954
1480686721185691,-0.674681,0.207325,-2.5695
1480686721223292,-0.675324,0.207029,-2.56945
1480686721237829,-0.675493,0.206912,-2.56955
1480686721244847,-0.675493,0.206912,-2.56955
1480686721267909,-0.674879,0.20714,-2.56947
1480686721289477,-0.674739,0.207102,-2.56943
1480686721312534,-0.674937,0.206917,-2.5694
1480686721329088,-0.675106,0.206843,-2.56941
1480686721348630,-0.675072,0.206843,-2.56932
1480686721365174,-0.675184,0.206992,-2.5694
1480686721404279,-0.67558,0.206621,-2.56935
1480686721423831,-0.67544,0.206584,-2.56931
1480686721448897,-0.67544,0.206584,-2.56931
1480686721460929,-0.675914,0.206234,-2.56953
1480686721471458,-0.676083,0.20616,-2.56954
1480686721485496,-0.675807,0.206197,-2.56957
1480686721515074,-0.675638,0.206271,-2.56956
1480686721545654,-0.675531,0.206191,-2.5697
1480686721548161,-0.676451,0.205772,-2.5698
1480686721567713,-0.677404,0.205268,-2.57019
1480686721596289,-0.677433,0.205156,-2.57015
1480686721613836,-0.677573,0.205194,-2.5702
1480686721627372,-0.677433,0.205156,-2.57015
1480686721648427,-0.676934,0.205601,-2.57037
1480686721680011,-0.677433,0.205731,-2.57078
1480686721694550,-0.678654,0.205713,-2.57114
1480686721716107,-0.678794,0.20575,-2.57119
1480686721725132,-0.6783,0.205645,-2.57109
1480686721748694,-0.677162,0.205793,-2.57113
1480686721768246,-0.677409,0.205867,-2.57113
1480686721791308,-0.678518,0.205744,-2.57131
1480686721814870,-0.678659,0.205738,-2.57145
1480686721829409,-0.678155,0.206157,-2.57136
1480686721844949,-0.677458,0.206126,-2.57116
1480686721868012,-0.677322,0.206243,-2.57115
1480686721890070,-0.677801,0.20596,-2.57159
1480686721905614,-0.678606,0.205985,-2.57184
1480686721958251,-0.679155,0.206503,-2.572
1480686721960758,-0.678759,0.206916,-2.57196
1480686721982316,-0.677922,0.207552,-2.57207
1480686722002368,-0.677753,0.207669,-2.57196
1480686722048992,-0.67862,0.20754,-2.57236
1480686722055510,-0.679899,0.207385,-2.57246
1480686722070550,-0.678727,0.207577,-2.57232
1480686722092609,-0.67862,0.20754,-2.57236
1480686722107650,-0.679371,0.207237,-2.57236
1480686722131211,-0.679371,0.207237,-2.57236
1480686722144747,-0.679371,0.207237,-2.57236
1480686722167308,-0.679371,0.207237,-2.57236
1480686722190370,-0.679371,0.207237,-2.57236
1480686722204908,-0.679652,0.207268,-2.57255
1480686722234987,-0.679957,0.20712,-2.57248
1480686722258049,-0.679957,0.207077,-2.57258
1480686722280107,-0.680097,0.207114,-2.57262
1480686722302667,-0.680572,0.206848,-2.57266
1480686722333750,-0.680572,0.206848,-2.57266
1480686722348289,-0.680572,0.206848,-2.57266
1480686722352800,-0.680431,0.206811,-2.57261
1480686722369847,-0.6806,0.206737,-2.57262
1480686722391906,-0.680741,0.206774,-2.57267
1480686722407449,-0.680741,0.206774,-2.57267
1480686722430012,-0.680741,0.206774,-2.57267
1480686722451569,-0.680741,0.206774,-2.57267
1480686722467612,-0.6806,0.206737,-2.57262
1480686722491676,-0.681275,0.20686,-2.57327
1480686722512731,-0.682605,0.207007,-2.5733
1480686722536294,-0.683046,0.206785,-2.57316
1480686722557852,-0.682185,0.206434,-2.57266
1480686722579916,-0.680599,0.206207,-2.5719
1480686722600967,-0.679372,0.206157,-2.57132
1480686722609992,-0.679372,0.206157,-2.57132
1480686722623024,-0.680763,0.206194,-2.57141
1480686722646587,-0.682096,0.205664,-2.5714
1480686722653104,-0.681708,0.205596,-2.57126
1480686722701233,-0.680655,0.205497,-2.571
1480686722706752,-0.679846,0.205361,-2.57063
1480686722729307,-0.680346,0.205621,-2.57076
1480686722744347,-0.681959,0.205122,-2.57094
1480686722767409,-0.682909,0.204678,-2.57083
1480686722772928,-0.682133,0.204542,-2.57054
1480686722803003,-0.681047,0.204486,-2.5701
1480686722836091,-0.680412,0.204344,-2.56995
1480686722838601,-0.680243,0.204418,-2.56994
1480686722855646,-0.681832,0.204185,-2.57019
1480686722903771,-0.681799,0.204185,-2.5701
1480686722909286,-0.681052,0.203938,-2.56978
1480686722915302,-0.68,0.203795,-2.56962
1480686722937862,-0.67955,0.203924,-2.56923
1480686722955910,-0.67955,0.203924,-2.56923
1480686722978470,-0.67941,0.203887,-2.56919
1480686723001031,-0.679632,0.204183,-2.56935
1480686723023591,-0.679632,0.204183,-2.56935
1480686723043142,-0.679294,0.204331,-2.56933
1480686723067707,-0.679265,0.204485,-2.56927
1480686723090769,-0.679681,0.204485,-2.56929
1480686723111825,-0.679681,0.204485,-2.56929
1480686723117841,-0.67971,0.204374,-2.56925
1480686723136892,-0.679323,0.204306,-2.56911
1480686723158450,-0.678935,0.204151,-2.56915
1480686723181008,-0.679075,0.204188,-2.5692
1480686723195046,-0.679075,0.204188,-2.5692
1480686723215600,-0.678935,0.204151,-2.56915
1480686723238665,-0.678906,0.204262,-2.56919
1480686723256209,-0.679381,0.203998,-2.56922
1480686723276763,-0.680244,0.203931,-2.56912
1480686723300827,-0.680244,0.203931,-2.56912
1480686723323388,-0.679798,0.204041,-2.56914
1480686723342940,-0.679657,0.204004,-2.5691
1480686723369510,-0.679657,0.204004,-2.5691
1480686723392070,-0.679657,0.204004,-2.5691
1480686723404603,-0.679798,0.204041,-2.56914
1480686723418139,-0.679827,0.20393,-2.56911
1480686723436188,-0.679274,0.204003,-2.56917
1480686723458246,-0.679134,0.203966,-2.56913
1480686723486320,-0.679134,0.203966,-2.56913
1480686723494342,-0.679134,0.203966,-2.56913
1480686723515397,-0.679241,0.204004,-2.56908
1480686723537958,-0.679934,0.20401,-2.56897
1480686723556009,-0.680074,0.204004,-2.56911
1480686723578565,-0.678544,0.204058,-2.5687
1480686723607643,-0.677822,0.204291,-2.56856
1480686723621681,-0.677822,0.204291,-2.56856
1480686723645744,-0.678519,0.204237,-2.56895
1480686723685350,-0.678964,0.203997,-2.56921
1480686723697883,-0.679472,0.203646,-2.56952
1480686723711920,-0.679947,0.203425,-2.56946
1480686723717936,-0.680087,0.203462,-2.56951
1480686723742000,-0.679608,0.203659,-2.56925
1480686723757040,-0.678775,0.203701,-2.56913
1480686723787121,-0.678775,0.203701,-2.56913
1480686723809179,-0.678775,0.203701,-2.56913
1480686723831739,-0.678775,0.203701,-2.56913
1480686723837755,-0.678775,0.203701,-2.56913
1480686723860317,-0.678915,0.203738,-2.56918
1480686723875355,-0.678915,0.203738,-2.56918
1480686723982139,-0.678329,0.203812,-2.56915
1480686723991164,-0.678363,0.203811,-2.56924
1480686723999686,-0.678469,0.203849,-2.5692
1480686724017734,-0.678469,0.203849,-2.5692
1480686724043803,-0.678499,0.203738,-2.56916
1480686724062853,-0.678049,0.203866,-2.56878
1480686724085414,-0.677545,0.204328,-2.5686
1480686724108977,-0.677545,0.204328,-2.5686
1480686724131537,-0.677545,0.204328,-2.5686
1480686724155102,-0.677545,0.204328,-2.5686
1480686724177157,-0.677236,0.20445,-2.56835
1480686724180165,-0.676761,0.204672,-2.56841
1480686724214256,-0.676868,0.204709,-2.56837
1480686724220273,-0.676868,0.204709,-2.56837
1480686724252358,-0.676868,0.204709,-2.56837
1480686724259376,-0.676868,0.204709,-2.56837
1480686724281936,-0.676065,0.204683,-2.56812
1480686724295472,-0.675784,0.204694,-2.56784
1480686724318032,-0.675924,0.204731,-2.56788
1480686724343600,-0.676036,0.20488,-2.56797
1480686724373686,-0.675924,0.204731,-2.56788
1480686724386723,-0.675092,0.20473,-2.56786
1480686724411281,-0.674923,0.204847,-2.56775
1480686724445871,-0.675755,0.204805,-2.56787
1480686724457403,-0.675895,0.2048,-2.56801
1480686724477456,-0.675644,0.2047,-2.5677
1480686724479963,-0.674672,0.204747,-2.56744
1480686724498011,-0.674565,0.20471,-2.56748
1480686724523578,-0.674565,0.20471,-2.56748
1480686724537117,-0.674672,0.204747,-2.56744
1480686724565691,-0.674672,0.204747,-2.56744
1480686724580229,-0.675228,0.204742,-2.56759
1480686724596774,-0.675257,0.204631,-2.56756
1480686724623846,-0.675257,0.204631,-2.56756
1480686724643397,-0.675088,0.204748,-2.56745
1480686724664454,-0.675088,0.204748,-2.56745
1480686724688522,-0.675088,0.204748,-2.56745
1480686724708069,-0.675422,0.204532,-2.56725
1480686724734640,-0.675422,0.204532,-2.56725
1480686724754693,-0.675452,0.204421,-2.56722
1480686724778758,-0.675452,0.204421,-2.56722
1480686724782768,-0.675452,0.204421,-2.56722
1480686724797808,-0.675452,0.204421,-2.56722
1480686724829392,-0.675452,0.204421,-2.56722
1480686724846437,-0.675452,0.204421,-2.56722
1480686724865489,-0.675592,0.204458,-2.56726
1480686724888048,-0.676284,0.204337,-2.56743
1480686724898075,-0.676424,0.204374,-2.56748
1480686724918132,-0.676424,0.204374,-2.56748
1480686724941691,-0.675481,0.20431,-2.56718
1480686724965755,-0.674759,0.204457,-2.56724
1480686724985307,-0.675422,0.204532,-2.56725
1480686725000346,-0.677146,0.20427,-2.56733
1480686725031930,-0.677146,0.20427,-2.56733
1480686725045467,-0.676444,0.20483,-2.56736
1480686725068026,-0.6758,0.205168,-2.56731
1480686725078554,-0.675935,0.205712,-2.56777
1480686725101115,-0.677712,0.205733,-2.56819
1480686725131697,-0.679267,0.205588,-2.56817
1480686725154760,-0.679181,0.205304,-2.56773
1480686725175813,-0.677956,0.205295,-2.56706
1480686725180325,-0.675196,0.205886,-2.5663
1480686725198373,-0.673183,0.206768,-2.56576
1480686725219445,-0.673676,0.207046,-2.56549
1480686725240501,-0.674902,0.206567,-2.56534
1480686725263061,-0.675427,0.206074,-2.56459
1480686725302165,-0.674442,0.205114,-2.56413
1480686725304674,-0.67242,0.204971,-2.5638
1480686725347286,-0.672744,0.20528,-2.56361
1480686725353804,-0.674855,0.205133,-2.56374
1480686725369344,-0.675024,0.205059,-2.56375
1480686725382880,-0.674103,0.205389,-2.56383
1480686725406944,-0.67333,0.205207,-2.56364
1480686725428000,-0.673031,0.204719,-2.56357
1480686725451061,-0.673031,0.204719,-2.56357
1480686725460128,-0.674283,0.204749,-2.56393
1480686725497685,-0.674313,0.204638,-2.56389
1480686725506710,-0.674453,0.204632,-2.56403
1480686725519242,-0.673598,0.204234,-2.56363
1480686725543808,-0.672321,0.204341,-2.56362
1480686725625526,-0.672972,0.203927,-2.56457
1480686725640566,-0.676101,0.202977,-2.56591
1480686725643071,-0.680709,0.201601,-2.56751
1480686725662624,-0.679879,0.20171,-2.5676
1480686725664629,-0.677858,0.203057,-2.56758
1480686725682677,-0.67736,0.20443,-2.56706
1480686725708245,-0.675985,0.205611,-2.5667
1480686725729302,-0.675693,0.206592,-2.56734
1480686725768906,-0.677979,0.206264,-2.56807
1480686725783946,-0.680014,0.205793,-2.56858
1480686725787963,-0.680674,0.206416,-2.56892
1480686725813526,-0.679687,0.207581,-2.5689
1480686725837088,-0.678467,0.209189,-2.56825
1480686725887221,-0.677108,0.21063,-2.56783
1480686725912287,-0.676495,0.211475,-2.56829
1480686725939861,-0.682541,0.211926,-2.57087
1480686725944874,-0.682009,0.212456,-2.57081
1480686725961919,-0.680848,0.212191,-2.57087
1480686725985984,-0.680409,0.211734,-2.57098
1480686726008544,-0.682165,0.211315,-2.57112
1480686726020576,-0.684169,0.21097,-2.57126
1480686726042634,-0.684219,0.211359,-2.57102
1480686726091264,-0.682462,0.211778,-2.57087
1480686726148415,-0.681153,0.212086,-2.57071
1480686726174487,-0.68157,0.212086,-2.57073
1480686726181001,-0.682987,0.211772,-2.57094
1480686726190026,-0.681768,0.211814,-2.57089
1480686726216597,-0.681768,0.211814,-2.57089
1480686726223114,-0.681768,0.211814,-2.57089
1480686726241664,-0.681768,0.211814,-2.57089
1480686726267733,-0.681768,0.211814,-2.57089
1480686726286784,-0.681876,0.211851,-2.57085
1480686726308340,-0.681876,0.211851,-2.57085
1480686726321876,-0.681131,0.211672,-2.57074
1480686726345942,-0.680404,0.211752,-2.57057
1480686726360981,-0.680404,0.211752,-2.57057
1480686726382037,-0.681385,0.211728,-2.57115
1480686726427226,-0.6827,0.211401,-2.57172
1480686726429664,-0.683904,0.210968,-2.57211
1480686726449215,-0.684555,0.210105,-2.57214
1480686726465759,-0.683766,0.209834,-2.57141
1480686726485313,-0.682819,0.209859,-2.57092
1480686726516895,-0.681924,0.20955,-2.57024
1480686726530431,-0.681394,0.209532,-2.56986
1480686726541962,-0.681394,0.209532,-2.56986
1480686726577055,-0.681253,0.209495,-2.56981
1480686726584074,-0.681924,0.209594,-2.57015
1480686726601119,-0.683369,0.209212,-2.57023
1480686726630698,-0.683588,0.209528,-2.56999
1480686726650251,-0.682409,0.20978,-2.56934
1480686726666794,-0.679905,0.20995,-2.56888
1480686726718432,-0.6787,0.2108,-2.56909
1480686726729461,-0.68149,0.210772,-2.56987
1480686726751521,-0.683826,0.210675,-2.57033
1480686726772577,-0.683542,0.211279,-2.57028
1480686726774580,-0.681538,0.21158,-2.57022
1480686726795636,-0.680646,0.211931,-2.56998
1480686726817194,-0.68117,0.211969,-2.56996
1480686726822709,-0.68253,0.21192,-2.57015
1480686726845268,-0.682671,0.211957,-2.5702
1480686726863317,-0.682671,0.211957,-2.5702
1480686726882868,-0.683179,0.211693,-2.57032
1480686726905431,-0.683039,0.211655,-2.57028
1480686726923476,-0.683039,0.211655,-2.57028
1480686726943028,-0.683287,0.21173,-2.57028
1480686727004697,-0.682976,0.211896,-2.56995
1480686727011710,-0.681559,0.21208,-2.57001
1480686727019232,-0.681643,0.212296,-2.57022
1480686727040789,-0.68354,0.211872,-2.57051
1480686727064853,-0.684851,0.211564,-2.57067
1480686727068362,-0.684347,0.211896,-2.57076
1480686727088919,-0.683194,0.212587,-2.5704
1480686727103455,-0.682797,0.213087,-2.57018
1480686727123007,-0.682656,0.21305,-2.57013
1480686727145568,-0.68269,0.21305,-2.57022
1480686727163616,-0.683328,0.213149,-2.57046
1480686727185674,-0.684786,0.212354,-2.57066
1480686727210740,-0.684618,0.211879,-2.57033
1480686727231296,-0.683145,0.211823,-2.56996
1480686727251850,-0.682976,0.211896,-2.56995
1480686727286443,-0.683501,0.211934,-2.56992
1480686727319029,-0.683642,0.211971,-2.56997
1480686727329055,-0.683133,0.212279,-2.56975
1480686727340586,-0.682196,0.212266,-2.57007
1480686727350613,-0.682776,0.21263,-2.57029
1480686727366655,-0.684454,0.212064,-2.57044
1480686727394732,-0.684845,0.211583,-2.57026
1480686727407765,-0.683858,0.211583,-2.56937
1480686727424309,-0.682403,0.21141,-2.56825
1480686727445364,-0.680543,0.21124,-2.56783
1480686727463913,-0.680212,0.210906,-2.5677
1480686727485972,-0.681906,0.210644,-2.5677
1480686727508532,-0.682989,0.210721,-2.56774
1480686727531107,-0.682563,0.211374,-2.56745
1480686727553152,-0.681665,0.211656,-2.56699
1480686727569194,-0.680287,0.212135,-2.56628
1480686727583732,-0.680146,0.212097,-2.56623
1480686727606292,-0.681179,0.211915,-2.56624
1480686727625343,-0.681951,0.212071,-2.56613
1480686727643892,-0.682092,0.212065,-2.56627
1480686727670463,-0.681534,0.212113,-2.56602
1480686727693024,-0.680839,0.212192,-2.56594
1480686727703551,-0.680728,0.212043,-2.56585
1480686727726111,-0.680728,0.212,-2.56595
1480686727745161,-0.680996,0.212575,-2.56574
1480686727763210,-0.680525,0.212864,-2.56602
1480686727787778,-0.680828,0.213265,-2.56627
1480686727808831,-0.681341,0.212279,-2.56645
1480686727831391,-0.682014,0.211874,-2.56636
1480686727853450,-0.682697,0.210858,-2.56646
1480686727873002,-0.682507,0.210518,-2.56647
1480686727883530,-0.681833,0.210966,-2.56646
1480686727906090,-0.681334,0.211366,-2.56677
1480686727928649,-0.68197,0.211509,-2.56693
1480686727944692,-0.682748,0.21169,-2.56712
1480686727973770,-0.682881,0.212208,-2.56727
1480686727994326,-0.682596,0.212812,-2.56722
1480686728003349,-0.681979,0.213083,-2.56705
1480686728041450,-0.680505,0.213487,-2.56718
1480686728045460,-0.68158,0.214044,-2.56733
1480686728064510,-0.683757,0.213081,-2.56716
1480686728115647,-0.682922,0.213165,-2.56694
1480686728130686,-0.680995,0.213654,-2.56679
1480686728135198,-0.680102,0.213961,-2.56664
1480686728153250,-0.680564,0.214196,-2.56638
1480686728174303,-0.68118,0.21397,-2.56646
1480686728187841,-0.681208,0.213859,-2.56643
1480686728205890,-0.680762,0.214012,-2.56635
1480686728228949,-0.680344,0.214054,-2.56624
1480686728247998,-0.680175,0.214128,-2.56623
1480686728266047,-0.679533,0.213959,-2.56577
1480686728293119,-0.678537,0.213549,-2.56562
1480686728315177,-0.679472,0.212589,-2.56613
1480686728333226,-0.679501,0.212478,-2.56609
1480686728355785,-0.68141,0.213038,-2.56627
1480686728376841,-0.681827,0.213126,-2.5661
1480686728393386,-0.679421,0.213854,-2.56559
1480686728431488,-0.677805,0.214306,-2.5655
1480686728437002,-0.678882,0.214315,-2.56532
1480686728450537,-0.680668,0.213833,-2.56533
1480686728473097,-0.680284,0.213745,-2.56559
1480686728488139,-0.679173,0.213779,-2.56559
1480686728505684,-0.679032,0.213742,-2.56554
1480686728528244,-0.680397,0.213807,-2.56586
1480686728547796,-0.681819,0.213608,-2.5662
1480686728573865,-0.682018,0.213423,-2.56617
1480686728588405,-0.681318,0.213477,-2.56578
1480686728642047,-0.680146,0.213245,-2.56503
1480686728649066,-0.678976,0.212927,-2.56447
1480686728653076,-0.679005,0.212816,-2.56444
1480686728669119,-0.679733,0.212695,-2.5647
1480686728691679,-0.680389,0.213339,-2.56463
1480686728714239,-0.680536,0.21429,-2.56435
1480686728727775,-0.678739,0.214894,-2.56334
1480686728759362,-0.67517,0.215899,-2.56322
1480686728768383,-0.674971,0.216127,-2.56315
1480686728787938,-0.677711,0.215187,-2.56346
1480686728806986,-0.679637,0.214657,-2.56371
1480686728828543,-0.679254,0.214526,-2.56406
1480686728848094,-0.677584,0.214606,-2.56381
1480686728873663,-0.67613,0.215465,-2.56383
1480686728888703,-0.677216,0.215989,-2.56478
1480686728986463,-0.679418,0.216589,-2.56586
1480686728992980,-0.680699,0.216944,-2.56638
1480686729009022,-0.682629,0.218459,-2.56861
1480686729039102,-0.684415,0.218523,-2.56895
1480686729046622,-0.681941,0.219069,-2.56926
1480686729072692,-0.680121,0.219727,-2.56878
1480686729088234,-0.679165,0.219639,-2.56816
1480686729112296,-0.679165,0.219683,-2.56807
1480686729128341,-0.680192,0.219388,-2.56795
1480686729149396,-0.681254,0.21905,-2.56802
1480686729218078,-0.681006,0.218932,-2.56811
1480686729220588,-0.680837,0.219006,-2.5681
1480686729247656,-0.680837,0.219006,-2.5681
1480686729250163,-0.680837,0.219006,-2.5681
1480686729264702,-0.680978,0.219043,-2.56814
1480686729285257,-0.680256,0.219147,-2.56829
1480686729290272,-0.680255,0.21919,-2.56819
1480686729308318,-0.680391,0.21916,-2.56802
1480686729329375,-0.680391,0.219116,-2.56811
1480686729350430,-0.680057,0.219418,-2.56812
1480686729374494,-0.680198,0.219456,-2.56817
1480686729397055,-0.680057,0.219418,-2.56812
1480686729419615,-0.680446,0.21953,-2.56818
1480686729450697,-0.681028,0.219346,-2.56808
1480686729502335,-0.680639,0.219234,-2.56803
1480686729525909,-0.680192,0.219388,-2.56795
1480686729531412,-0.680192,0.219388,-2.56795
1480686729547955,-0.680412,0.219617,-2.5679
1480686729560581,-0.680993,0.219476,-2.56771
1480686729570015,-0.681134,0.219513,-2.56776
1480686729592578,-0.681134,0.219513,-2.56776
1480686729615134,-0.681275,0.219551,-2.56781
1480686729638198,-0.681545,0.219489,-2.56747
1480686729652233,-0.681376,0.219563,-2.56745
1480686729675294,-0.681376,0.219563,-2.56745
1480686729697854,-0.681376,0.219563,-2.56745
1480686729718408,-0.681517,0.219601,-2.5675
1480686729742472,-0.681517,0.219601,-2.5675
1480686729765535,-0.681148,0.220033,-2.56714
1480686729779571,-0.680256,0.219703,-2.56686
1480686729793610,-0.679662,0.219794,-2.56642
1480686729811155,-0.680343,0.218777,-2.56652
1480686729831710,-0.680712,0.217882,-2.56637
1480686729847251,-0.680697,0.217494,-2.5667
1480686729870313,-0.681285,0.217334,-2.56692
1480686729890867,-0.682109,0.217244,-2.56642
1480686729907912,-0.681132,0.217291,-2.56615
1480686729929971,-0.679734,0.218016,-2.56591
1480686729952533,-0.679565,0.218089,-2.5659
1480686729975091,-0.680564,0.21795,-2.56573
1480686729998654,-0.681096,0.217551,-2.56551
1480686730018206,-0.680453,0.217296,-2.56523
1480686730082377,-0.679321,0.216916,-2.56525
1480686730096414,-0.679514,0.21662,-2.5651
1480686730100926,-0.680777,0.21555,-2.56482
1480686730110953,-0.679746,0.215225,-2.56439
1480686730133011,-0.678862,0.215006,-2.56424
1480686730147550,-0.678862,0.215006,-2.56424
1480686730170110,-0.679804,0.215047,-2.56423
1480686730191166,-0.680556,0.21479,-2.56414
1480686730214728,-0.679856,0.2148,-2.56384
1480686730230270,-0.678715,0.21503,-2.56369
1480686730252329,-0.677881,0.21507,-2.56357
1480686730320512,-0.678439,0.215023,-2.56382
1480686730337054,-0.680032,0.214665,-2.56435
1480686730342569,-0.681269,0.214237,-2.56483
1480686730357609,-0.680823,0.214346,-2.56485
1480686730373150,-0.680037,0.214646,-2.56476
1480686730401225,-0.680037,0.214646,-2.56476
1480686730416265,-0.681183,0.214526,-2.56504
1480686730432307,-0.681883,0.214516,-2.56533
1480686730447848,-0.681883,0.214516,-2.56533
1480686730469908,-0.681465,0.214558,-2.56522
1480686730492468,-0.681431,0.214558,-2.56513
1480686730508510,-0.681431,0.214558,-2.56513
1480686730536084,-0.681603,0.215101,-2.56569
1480686730560148,-0.682014,0.215497,-2.56599
1480686730583710,-0.682962,0.215561,-2.5663
1480686730604769,-0.683132,0.215488,-2.56631
1480686730628329,-0.681985,0.215608,-2.56603
1480686730633342,-0.681063,0.216025,-2.56592
1480686730649886,-0.68092,0.21658,-2.5661
1480686730679966,-0.681817,0.216891,-2.56679
1480686730697011,-0.682839,0.217079,-2.56678
1480686730725086,-0.68298,0.217116,-2.56683
1480686730732606,-0.682336,0.216905,-2.56645
1480686730746643,-0.681629,0.216978,-2.56566
1480686730770207,-0.680178,0.216826,-2.56484
1480686730792768,-0.677947,0.217417,-2.56485
1480686730806803,-0.678285,0.217734,-2.56538
1480686730830366,-0.680791,0.217611,-2.56576
1480686730858442,-0.681068,0.217575,-2.56573
1480686730873983,-0.679949,0.217671,-2.56523
1480686730903561,-0.677359,0.217619,-2.56454
1480686730926622,-0.675814,0.217575,-2.56358
1480686730933646,-0.676375,0.217064,-2.56333
1480686730950184,-0.67699,0.216838,-2.56341
1480686730972243,-0.677131,0.216833,-2.56355
1480686731001821,-0.677131,0.216833,-2.56355
1480686731009843,-0.676734,0.217331,-2.56332
1480686731032403,-0.676083,0.217643,-2.56296
1480686731053459,-0.67585,0.218,-2.56252
1480686731070003,-0.675645,0.218245,-2.56205
1480686731092563,-0.674888,0.218519,-2.56173
1480686731113618,-0.674859,0.21863,-2.56177
1480686731138186,-0.675368,0.218281,-2.56208
1480686731160243,-0.675628,0.218364,-2.5628
1480686731180798,-0.676688,0.218535,-2.56328
1480686731191326,-0.678825,0.21876,-2.56349
1480686731213384,-0.678647,0.219401,-2.5634
1480686731233438,-0.677031,0.219852,-2.5633
1480686731249981,-0.675913,0.219903,-2.56289
1480686731273043,-0.675998,0.219656,-2.5626
1480686731293661,-0.676391,0.219089,-2.56261
1480686731311645,-0.676865,0.218912,-2.56246
1480686731333203,-0.676335,0.218804,-2.56226
1480686731362281,-0.675083,0.218885,-2.56203
1480686731383336,-0.673937,0.219046,-2.56165
1480686731392361,-0.673909,0.219157,-2.56169
1480686731415926,-0.674049,0.219195,-2.56174
1480686731445502,-0.673704,0.219359,-2.56131
1480686731468562,-0.672956,0.219064,-2.56108
1480686731494131,-0.672956,0.219108,-2.56098
1480686731497140,-0.672927,0.219219,-2.56102
1480686731512680,-0.672927,0.219219,-2.56102
1480686731534738,-0.673067,0.219257,-2.56107
1480686731549277,-0.673592,0.219253,-2.56113
1480686731572340,-0.674541,0.218812,-2.56102
1480686731596403,-0.674182,0.218545,-2.56103
1480686731624979,-0.673736,0.218697,-2.56095
1480686731640019,-0.673877,0.218735,-2.561
1480686731663081,-0.673595,0.218702,-2.56081
1480686731748307,-0.672985,0.218996,-2.56095
1480686731767859,-0.673091,0.219077,-2.56081
1480686731770370,-0.673784,0.219043,-2.5608
1480686731776381,-0.673784,0.219043,-2.5608
1480686731789416,-0.673896,0.219192,-2.56088
1480686731812477,-0.673755,0.219154,-2.56083
1480686731835037,-0.673755,0.219154,-2.56083
1480686731857598,-0.673896,0.219192,-2.56088
1480686731872637,-0.673896,0.219192,-2.56088
1480686731895198,-0.673896,0.219192,-2.56088
1480686731917757,-0.673896,0.219192,-2.56088
1480686731933800,-0.673896,0.219192,-2.56088
1480686731960872,-0.673896,0.219192,-2.56088
1480686732024040,-0.673896,0.219192,-2.56088
1480686732037576,-0.674037,0.21923,-2.56093
1480686732053117,-0.673506,0.218503,-2.5602
1480686732055624,-0.672745,0.21782,-2.5603
1480686732075176,-0.673448,0.217219,-2.56037
1480686732096232,-0.675402,0.21658,-2.56058
1480686732112274,-0.676459,0.216264,-2.56025
1480686732149373,-0.674746,0.216952,-2.55973
1480686732163410,-0.672756,0.217761,-2.55905
1480686732172435,-0.672475,0.217728,-2.55886
1480686732194995,-0.672949,0.217594,-2.55862
1480686732217555,-0.67376,0.217074,-2.55856
1480686732253150,-0.674153,0.216594,-2.55838
1480686732279721,-0.673484,0.216491,-2.55805
1480686732293757,-0.672291,0.216304,-2.55783
1480686732300776,-0.672262,0.216415,-2.55787
1480686732323837,-0.672907,0.216122,-2.55783
1480686732338877,-0.673047,0.21616,-2.55787
1480686732352414,-0.673154,0.216198,-2.55783
1480686732374973,-0.672597,0.2162,-2.55768
1480686732398035,-0.672427,0.216316,-2.55757
1480686732436137,-0.672907,0.216165,-2.55773
1480686732459698,-0.673905,0.216029,-2.55756
1480686732488781,-0.674012,0.216067,-2.55752
1480686732557460,-0.673289,0.216253,-2.55748
1480686732578013,-0.672591,0.216303,-2.55709
1480686732600573,-0.672867,0.216268,-2.55705
1480686732603080,-0.672838,0.216379,-2.55709
1480686732624637,-0.672838,0.216379,-2.55709
1480686732637671,-0.672838,0.216379,-2.55709
1480686732660233,-0.672838,0.216379,-2.55709
1480686732674770,-0.672809,0.21649,-2.55713
1480686732698835,-0.673565,0.216261,-2.55735
1480686732711875,-0.673532,0.216261,-2.55726
1480686732736940,-0.673565,0.216261,-2.55735
1480686732757491,-0.673425,0.216223,-2.5573
1480686732780551,-0.673536,0.216372,-2.55739
1480686732886334,-0.673565,0.216261,-2.55735
1480686732892349,-0.673532,0.216261,-2.55726
1480686732898365,-0.673672,0.216299,-2.55731
1480686732915410,-0.673672,0.216299,-2.55731
1480686732943485,-0.673589,0.2167,-2.55764
1480686732966045,-0.673215,0.217507,-2.55797
1480686732975068,-0.673579,0.217758,-2.55837
1480686732997629,-0.67452,0.217757,-2.55845
1480686733018684,-0.674661,0.217752,-2.55859
1480686733035229,-0.674021,0.218199,-2.55867
1480686733057288,-0.673565,0.218833,-2.5587
1480686733079848,-0.673614,0.219092,-2.55873
1480686733102909,-0.673581,0.219754,-2.55908
1480686733124968,-0.673858,0.22038,-2.5595
1480686733138504,-0.675019,0.220566,-2.55962
1480686733155048,-0.675159,0.220604,-2.55967
1480686733177607,-0.674267,0.220821,-2.55971
1480686733198664,-0.674267,0.220865,-2.55962
1480686733214706,-0.674601,0.220607,-2.55951
1480686733243283,-0.675188,0.220536,-2.55954
1480686733267347,-0.675328,0.220574,-2.55959
1480686733274866,-0.675266,0.220685,-2.55954
1480686733298429,-0.675295,0.220573,-2.5595
1480686733336530,-0.674543,0.220872,-2.55949
1480686733358087,-0.674543,0.220872,-2.55949
1480686733360691,-0.674543,0.220872,-2.55949
1480686733380146,-0.674683,0.22091,-2.55954
1480686733408722,-0.674654,0.221021,-2.55958
1480686733418750,-0.674654,0.221021,-2.55958
1480686733448327,-0.674853,0.220794,-2.55965
1480686733454343,-0.674853,0.220794,-2.55965
1480686733477404,-0.674961,0.220788,-2.5597
1480686733499965,-0.674742,0.220602,-2.55966
1480686733523529,-0.674883,0.22064,-2.5597
1480686733545085,-0.674742,0.220602,-2.55966
1480686733567645,-0.674742,0.220602,-2.55966
1480686733590211,-0.674742,0.220602,-2.55966
1480686733597724,-0.674713,0.220713,-2.55969
1480686733636327,-0.675655,0.220755,-2.55968
1480686733648359,-0.675795,0.220793,-2.55973
1480686733657383,-0.675655,0.220755,-2.55968
1480686733687463,-0.675654,0.220798,-2.55959
1480686733694482,-0.675625,0.220909,-2.55963
1480686733725566,-0.675795,0.220793,-2.55973
1480686733748125,-0.675907,0.220942,-2.55982
1480686733761661,-0.675907,0.220942,-2.55982
1480686733777704,-0.675766,0.220947,-2.55968
1480686733799764,-0.675766,0.220947,-2.55968
1480686733822323,-0.675766,0.220904,-2.55977
1480686733844881,-0.675907,0.220942,-2.55982
1480686733867943,-0.675907,0.220942,-2.55982
1480686733891506,-0.675873,0.220984,-2.55963
1480686733912561,-0.675873,0.220984,-2.55963
1480686733927601,-0.675844,0.221096,-2.55967
1480686733948658,-0.675907,0.220985,-2.55972
1480686733965703,-0.676572,0.22102,-2.55984
1480686733979740,-0.677436,0.220913,-2.55984
1480686734003810,-0.677403,0.220913,-2.55975
1480686734030876,-0.676178,0.220881,-2.55947
1480686734047421,-0.675619,0.220884,-2.55932
1480686734060956,-0.67576,0.220922,-2.55936
1480686734077500,-0.67576,0.220922,-2.55936
1480686734123624,-0.6754,0.220784,-2.55909
1480686734128136,-0.67443,0.220809,-2.55922
1480686734147185,-0.67426,0.220882,-2.55921
1480686734167239,-0.675619,0.220927,-2.55922
1480686734188295,-0.676678,0.221144,-2.55961
1480686734213363,-0.676678,0.221144,-2.55961
1480686734234920,-0.676114,0.221078,-2.55923
1480686734249958,-0.675506,0.220864,-2.55895
1480686734258983,-0.675336,0.22098,-2.55885
1480686734280540,-0.675981,0.220645,-2.5589
1480686734303605,-0.676451,0.220357,-2.55862
1480686734325160,-0.675786,0.220279,-2.5586
1480686734353735,-0.675093,0.220268,-2.55871
1480686734386324,-0.675263,0.220195,-2.55872
1480686734392340,-0.676014,0.21994,-2.55863
1480686734402365,-0.676155,0.219978,-2.55868
1480686734422418,-0.676262,0.220016,-2.55864
1480686734444978,-0.676262,0.220016,-2.55864
1480686734468039,-0.676155,0.219978,-2.55868
1480686734498119,-0.676431,0.219986,-2.55856
1480686734500626,-0.676431,0.219986,-2.55856
1480686734520681,-0.676461,0.219832,-2.55862
1480686734543740,-0.676538,0.220024,-2.55852
1480686734557276,-0.676538,0.220024,-2.55852
1480686734580338,-0.676431,0.219986,-2.55856
1480686734608411,-0.676431,0.219986,-2.55856
1480686734616936,-0.676956,0.220026,-2.55853
1480686734647515,-0.677097,0.220064,-2.55858
1480686734678099,-0.677097,0.220064,-2.55858
1480686734691133,-0.677233,0.219948,-2.5586
1480686734700156,-0.678209,0.220034,-2.55859
1480686734722717,-0.678209,0.220034,-2.55859
1480686734745276,-0.677849,0.21981,-2.5585
1480686734767336,-0.677849,0.21981,-2.5585
1480686734790899,-0.677849,0.21981,-2.5585
1480686734810951,-0.677849,0.21981,-2.5585
1480686734820478,-0.677708,0.219772,-2.55845
1480686734842534,-0.677708,0.219772,-2.55845
1480686734863591,-0.677849,0.21981,-2.5585
1480686734887654,-0.67799,0.219848,-2.55855
1480686734902695,-0.677956,0.219847,-2.55845
1480686734923754,-0.677849,0.21981,-2.5585
1480686734964860,-0.67782,0.219921,-2.55853
1480686734969372,-0.677786,0.21992,-2.55844
1480686734983409,-0.677927,0.219958,-2.55849
1480686735000455,-0.677898,0.220069,-2.55853
1480686735023015,-0.677898,0.220069,-2.55853
1480686735045073,-0.677898,0.220069,-2.55853
1480686735067634,-0.677757,0.220075,-2.55839
1480686735090194,-0.677898,0.220113,-2.55843
1480686735104231,-0.677898,0.220113,-2.55843
1480686735120776,-0.677898,0.220113,-2.55843
1480686735142332,-0.677869,0.220224,-2.55847
1480686735164892,-0.677869,0.220224,-2.55847
1480686735180433,-0.677869,0.220224,-2.55847
1480686735208508,-0.67748,0.22011,-2.55842
1480686735240595,-0.67748,0.22011,-2.55842
1480686735246609,-0.677451,0.220221,-2.55845
1480686735276689,-0.677451,0.220221,-2.55845
1480686735285213,-0.676756,0.220297,-2.55837
1480686735323815,-0.676198,0.220299,-2.55821
1480686735328327,-0.676198,0.220299,-2.55821
1480686735344870,-0.676338,0.220337,-2.55826
1480686735369940,-0.67641,0.220504,-2.55785
1480686735382471,-0.67588,0.220439,-2.55756
1480686735420071,-0.675181,0.220446,-2.55727
1480686735425586,-0.675214,0.220446,-2.55736
1480686735442630,-0.675152,0.220557,-2.5573
1480686735466695,-0.675152,0.220557,-2.5573
1480686735497276,-0.675152,0.220557,-2.5573
1480686735503795,-0.675152,0.220557,-2.5573
1480686735524849,-0.675152,0.220557,-2.5573
1480686735539388,-0.675152,0.220557,-2.5573
1480686735562450,-0.675851,0.22055,-2.5576
1480686735601553,-0.67661,0.220277,-2.55792
1480686735606066,-0.67661,0.220277,-2.55792
1480686735622610,-0.67661,0.220277,-2.55792
1480686735647176,-0.675774,0.220358,-2.5577
1480686735674747,-0.675434,0.22059,-2.55749
1480686735690791,-0.675434,0.22059,-2.55749
1480686735712347,-0.675404,0.220701,-2.55753
1480686735734910,-0.675404,0.220701,-2.55753
1480686735744433,-0.675404,0.220701,-2.55753
1480686735765990,-0.674788,0.220925,-2.55744
1480686735786047,-0.674929,0.220964,-2.55749
1480686735804092,-0.67537,0.220744,-2.55734
1480686735825149,-0.675457,0.220454,-2.55714
1480686735846203,-0.675457,0.220497,-2.55705
1480686735870269,-0.675316,0.220459,-2.557
1480686735891826,-0.674869,0.22061,-2.55693
1480686735928924,-0.67484,0.220721,-2.55696
1480686735947974,-0.67484,0.220721,-2.55696
1480686735952487,-0.674981,0.220759,-2.55701
1480686735973543,-0.67484,0.220721,-2.55696
1480686735989585,-0.674224,0.220902,-2.55697
1480686736012646,-0.674224,0.220902,-2.55697
1480686736043227,-0.674224,0.220902,-2.55697
1480686736045233,-0.674365,0.22094,-2.55702
1480686736064786,-0.673812,0.220968,-2.55717
1480686736085842,-0.673642,0.221041,-2.55716
1480686736125949,-0.674753,0.221011,-2.55716
1480686736130960,-0.674782,0.2209,-2.55713
1480686736155025,-0.674307,0.221119,-2.55718
1480686736170066,-0.673307,0.221341,-2.55717
1480686736207665,-0.673307,0.221341,-2.55717
1480686736222705,-0.673361,0.22167,-2.55742
1480686736225212,-0.673528,0.222061,-2.55794
1480686736251281,-0.673669,0.222099,-2.55798
1480686736281364,-0.67364,0.22221,-2.55802
1480686736290385,-0.673781,0.222249,-2.55807
1480686736310939,-0.672995,0.222503,-2.55806
1480686736328486,-0.672826,0.222576,-2.55805
1480686736342022,-0.67364,0.22221,-2.55802
1480686736365085,-0.673747,0.222248,-2.55798
1480686736388145,-0.673888,0.222286,-2.55803
1480686736409702,-0.673329,0.222288,-2.55787
1480686736432262,-0.673189,0.22225,-2.55782
1480686736455324,-0.673265,0.222485,-2.55763
1480686736485404,-0.673095,0.222644,-2.55743
1480686736487911,-0.672116,0.223194,-2.55757
1480686736508967,-0.672613,0.223965,-2.55812
1480686736531526,-0.674035,0.223857,-2.55828
1480686736545062,-0.674611,0.223649,-2.55788
1480686736567622,-0.673997,0.223366,-2.55737
1480686736596198,-0.672995,0.223012,-2.55673
1480686736606225,-0.67254,0.222562,-2.55571
1480686736627280,-0.671722,0.222522,-2.55474
1480686736648837,-0.670599,0.222628,-2.55383
1480686736666386,-0.669647,0.222532,-2.55321
1480686736687441,-0.669007,0.222358,-2.55275
1480686736708496,-0.669512,0.221985,-2.55275
1480686736725543,-0.669652,0.222023,-2.5528
1480686736761639,-0.669652,0.222023,-2.5528
1480686736785702,-0.669652,0.222066,-2.55271
1480686736787707,-0.669652,0.222066,-2.55271
1480686736808764,-0.669623,0.222177,-2.55274
1480686736829819,-0.669793,0.222062,-2.55285
1480686736844859,-0.670033,0.222198,-2.55236
1480686736867419,-0.669364,0.222092,-2.55202
1480686736888475,-0.66805,0.22232,-2.55164
1480686736905019,-0.66805,0.22232,-2.55164
1480686736927579,-0.668695,0.222029,-2.5516
1480686736956156,-0.668802,0.222024,-2.55165
1480686736965681,-0.668802,0.222024,-2.55165
1480686737041382,-0.668078,0.222252,-2.55151
1480686737054919,-0.668078,0.222252,-2.55151
1480686737062438,-0.66866,0.222071,-2.55141
1480686737075974,-0.668801,0.22211,-2.55146
1480686737084998,-0.668801,0.22211,-2.55146
1480686737107558,-0.668801,0.22211,-2.55146
1480686737131121,-0.668631,0.222182,-2.55145
1480686737144656,-0.668801,0.22211,-2.55146
1480686737174736,-0.668771,0.222221,-2.5515
1480686737197297,-0.669717,0.222292,-2.5518
1480686737218353,-0.669717,0.222292,-2.5518
1480686737234897,-0.669218,0.222071,-2.55157
1480686737255953,-0.668138,0.221987,-2.55153
1480686737264476,-0.668138,0.221987,-2.55153
1480686737301073,-0.669594,0.221669,-2.55224
1480686737310096,-0.670957,0.221743,-2.55256
1480686737332656,-0.670957,0.221743,-2.55256
1480686737362235,-0.670351,0.222018,-2.5531
1480686737375771,-0.67057,0.222739,-2.55386
1480686737408859,-0.673075,0.223206,-2.55488
1480686737413372,-0.675247,0.22331,-2.55546
1480686737429916,-0.675272,0.22375,-2.55575
1480686737452483,-0.673986,0.224445,-2.55596
1480686737475035,-0.672701,0.225184,-2.55607
1480686737491078,-0.673231,0.22525,-2.55636
1480686737520156,-0.674349,0.225203,-2.55677
1480686737544221,-0.675434,0.225198,-2.557
1480686737587835,-0.675575,0.225193,-2.55714
1480686737592347,-0.674598,0.225236,-2.55687
1480686737595857,-0.673486,0.225265,-2.55687
1480686737610897,-0.673904,0.225268,-2.55688
1480686737632454,-0.674739,0.225231,-2.55701
1480686737647495,-0.67488,0.225269,-2.55706
1480686737670555,-0.67488,0.225269,-2.55706
1480686737691109,-0.673881,0.225448,-2.55714
1480686737707656,-0.67274,0.225589,-2.55717
1480686737729712,-0.67274,0.225589,-2.55717
1480686737758790,-0.673717,0.225546,-2.55744
1480686737777339,-0.674194,0.225197,-2.55766
1480686737790374,-0.673388,0.225124,-2.5575
1480686737818954,-0.670508,0.225132,-2.55777
1480686737834993,-0.667255,0.22559,-2.55903
1480686737856048,-0.664877,0.225845,-2.56089
1480686737871088,-0.665325,0.226293,-2.56294
1480686737887633,-0.667412,0.2252,-2.56414
1480686737909693,-0.666644,0.225511,-2.56476
1480686737938769,-0.666116,0.226423,-2.56539
1480686737949296,-0.665393,0.226083,-2.56638
1480686737969855,-0.665534,0.226121,-2.56642
1480686737991910,-0.665773,0.226211,-2.56602
1480686738007953,-0.6656,0.22586,-2.56541
1480686738030513,-0.664496,0.22583,-2.56415
1480686738053073,-0.662986,0.22523,-2.56296
1480686738067611,-0.662034,0.224626,-2.56194
1480686738090171,-0.661719,0.223699,-2.56055
1480686738113733,-0.660287,0.222375,-2.55961
1480686738140806,-0.657478,0.221503,-2.55938
1480686738150832,-0.656528,0.220041,-2.56036
1480686738172389,-0.657333,0.218523,-2.56082
1480686738187430,-0.658441,0.217978,-2.56041
1480686738216005,-0.658574,0.21745,-2.55942
1480686738239066,-0.655826,0.217477,-2.55833
1480686738264635,-0.65254,0.217393,-2.55809
1480686738270151,-0.652201,0.216131,-2.55759
1480686738293210,-0.652964,0.214227,-2.55616
1480686738306747,-0.653427,0.211946,-2.55367
1480686738330310,-0.652029,0.209509,-2.55101
1480686738352871,-0.6481,0.207271,-2.54834
1480686738367408,-0.646433,0.204473,-2.54496
1480686738390971,-0.644342,0.200658,-2.54132
1480686738421051,-0.64801,0.196434,-2.53755
1480686738452134,-0.648907,0.191866,-2.53433
1480686738473692,-0.648802,0.189883,-2.53304
1480686738479205,-0.648158,0.190265,-2.5325
1480686738493744,-0.647504,0.190513,-2.53375
1480686738510789,-0.646291,0.190483,-2.53534
1480686738539867,-0.645113,0.190177,-2.53614
1480686738560923,-0.645555,0.19152,-2.53656
1480686738570449,-0.64652,0.194488,-2.5356
1480686738592507,-0.645654,0.198529,-2.53548
1480686738614064,-0.644389,0.201561,-2.53628
1480686738630107,-0.646132,0.203626,-2.53704
1480686738653168,-0.650585,0.203857,-2.53764
1480686738673723,-0.65414,0.203815,-2.5381
1480686738689767,-0.655735,0.204046,-2.53862
1480686738719846,-0.655322,0.204026,-2.53901
1480686738740901,-0.654357,0.204086,-2.53907
1480686738749925,-0.653055,0.204305,-2.53981
1480686738772485,-0.65559,0.203548,-2.54093
1480686738793541,-0.657556,0.203411,-2.54132
1480686738817608,-0.657248,0.203528,-2.54108
1480686738841168,-0.654741,0.204049,-2.54019
1480686738861221,-0.65123,0.204438,-2.53957
1480686738870245,-0.648759,0.204957,-2.53878
1480686738906843,-0.649828,0.20499,-2.53818
1480686738920880,-0.65199,0.204727,-2.53805
1480686738929905,-0.653092,0.204636,-2.53782
1480686738952966,-0.652772,0.20438,-2.53752
1480686738975024,-0.651656,0.204002,-2.53717
1480686738997583,-0.651656,0.204002,-2.53717
1480686739020144,-0.652344,0.203947,-2.53683
1480686739035686,-0.652483,0.203986,-2.53688
1480686739049722,-0.652483,0.203986,-2.53688
1480686739073285,-0.652451,0.204097,-2.53692
1480686739094844,-0.652451,0.204097,-2.53692
1480686739118407,-0.652418,0.204098,-2.53682
1480686739139962,-0.652557,0.204136,-2.53687
1480686739163024,-0.652557,0.204136,-2.53687
1480686739179066,-0.652526,0.204247,-2.5369
1480686739198117,-0.652081,0.204352,-2.53692
1480686739222181,-0.651911,0.204424,-2.53691
1480686739232711,-0.652049,0.204463,-2.53696
1480686739252765,-0.652188,0.204502,-2.53701
1480686739283845,-0.652156,0.204613,-2.53704
1480686739303399,-0.651607,0.204624,-2.5376
1480686739313423,-0.651131,0.204785,-2.53815
1480686739337488,-0.652357,0.20534,-2.5389
1480686739349520,-0.653983,0.205418,-2.53948
1480686739374085,-0.654074,0.206119,-2.53987
1480686739395141,-0.653197,0.206702,-2.53997
1480686739417702,-0.652661,0.207252,-2.54022
1480686739439759,-0.652661,0.207252,-2.54022
1480686739462320,-0.652628,0.207252,-2.54013
1480686739478362,-0.653121,0.207504,-2.54066
1480686739499919,-0.653551,0.207951,-2.54095
1480686739522481,-0.653551,0.207951,-2.54095
1480686739536517,-0.653288,0.208314,-2.54113
1480686739560080,-0.653919,0.208619,-2.54131
1480686739582640,-0.655131,0.208704,-2.54147
1480686739596176,-0.65527,0.208743,-2.54152
1480686739628261,-0.655222,0.209336,-2.54165
1480686739650821,-0.655099,0.209739,-2.54188
1480686739657339,-0.655255,0.21026,-2.54211
1480686739672378,-0.656131,0.210517,-2.54256
1480686739694941,-0.657284,0.210781,-2.54289
1480686739717498,-0.657253,0.210892,-2.54293
1480686739732037,-0.657253,0.210934,-2.54284
1480686739755599,-0.657253,0.210934,-2.54284
1480686739777658,-0.657637,0.210966,-2.54307
1480686739799717,-0.657777,0.211005,-2.54312
1480686739815759,-0.657883,0.211044,-2.54307
1480686739836816,-0.658022,0.211082,-2.54312
1480686739853861,-0.657883,0.211044,-2.54307
1480686739875421,-0.657852,0.211196,-2.54301
1480686739903492,-0.657852,0.211196,-2.54301
1480686739926054,-0.657852,0.211196,-2.54301
1480686739935077,-0.658482,0.21139,-2.54306
1480686739958139,-0.658621,0.211429,-2.54311
1480686739972676,-0.658621,0.211429,-2.54311
1480686739995238,-0.658451,0.211501,-2.5431
1480686740017798,-0.65859,0.21154,-2.54315
1480686740032335,-0.659251,0.211622,-2.54316
1480686740055899,-0.659251,0.211622,-2.54316
1480686740090991,-0.65936,0.211814,-2.54315
1480686740109039,-0.65922,0.211775,-2.54311
1480686740115055,-0.65922,0.211775,-2.54311
1480686740137616,-0.65919,0.211886,-2.54314
1480686740152158,-0.659329,0.211925,-2.54319
1480686740174715,-0.659296,0.211925,-2.54309
1480686740204795,-0.659296,0.211925,-2.54309
1480686740211813,-0.659265,0.212036,-2.54313
1480686740235884,-0.659265,0.212036,-2.54313
1480686740257434,-0.659405,0.212074,-2.54318
1480686740271973,-0.659943,0.212643,-2.54324
1480686740295034,-0.660513,0.213058,-2.54336
1480686740342159,-0.660513,0.213058,-2.54336
1480686740355697,-0.660467,0.213694,-2.5434
1480686740358202,-0.660467,0.213694,-2.5434
1480686740386277,-0.660761,0.214101,-2.54365
1480686740405828,-0.66087,0.214251,-2.54373
1480686740415354,-0.661009,0.214332,-2.54369
1480686740444932,-0.660945,0.214442,-2.54363
1480686740458469,-0.660945,0.214442,-2.54363
1480686740482532,-0.660945,0.214442,-2.54363
1480686740505093,-0.660915,0.214553,-2.54366
1480686740526650,-0.661055,0.214592,-2.54371
1480686740535179,-0.661055,0.214592,-2.54371
1480686740573274,-0.661024,0.214703,-2.54374
1480686740578789,-0.661164,0.214742,-2.54379
1480686740596335,-0.660824,0.214844,-2.54386
1480686740617893,-0.660934,0.214994,-2.54394
1480686740649476,-0.661073,0.215033,-2.54399
1480686740662511,-0.660563,0.215334,-2.54377
1480686740685074,-0.660563,0.215334,-2.54377
1480686740715653,-0.660394,0.215406,-2.54375
1480686740718161,-0.660533,0.215445,-2.5438
1480686740737213,-0.660337,0.215655,-2.54414
1480686740759771,-0.660144,0.215934,-2.54469
1480686740782831,-0.660745,0.216154,-2.54496
1480686740804890,-0.661546,0.216275,-2.54503
1480686740825946,-0.661546,0.216275,-2.54503
1480686740850010,-0.66104,0.216645,-2.54502
1480686740866052,-0.660454,0.216797,-2.54481
1480686740889114,-0.660454,0.216797,-2.54481
1480686740895130,-0.660454,0.216797,-2.54481
1480686740941252,-0.660424,0.216908,-2.54485
1480686740945764,-0.660424,0.216908,-2.54485
1480686740962308,-0.661112,0.21681,-2.54461
1480686740977348,-0.662143,0.216637,-2.54462
1480686740999909,-0.662113,0.216748,-2.54466
1480686741020964,-0.661973,0.216751,-2.54452
1480686741041017,-0.661943,0.216862,-2.54455
1480686741060068,-0.661943,0.216862,-2.54455
1480686741110703,-0.662082,0.216901,-2.5446
1480686741122233,-0.662082,0.216901,-2.5446
1480686741128751,-0.662019,0.217012,-2.54454
1480686741142287,-0.662019,0.217012,-2.54454
1480686741172367,-0.661527,0.216857,-2.54454
1480686741188410,-0.661497,0.216968,-2.54457
1480686741195929,-0.662189,0.216939,-2.54455
1480686741217487,-0.662911,0.2168,-2.5445
1480686741246063,-0.662911,0.2168,-2.5445
1480686741262607,-0.662804,0.216761,-2.54455
1480686741277647,-0.662804,0.216761,-2.54455
1480686741299706,-0.663216,0.21674,-2.54425
1480686741314245,-0.663213,0.216713,-2.54394
1480686741338309,-0.662687,0.216601,-2.54375
1480686741359866,-0.662581,0.216562,-2.5438
1480686741382426,-0.662551,0.216673,-2.54383
1480686741404986,-0.662608,0.216382,-2.54354
1480686741427545,-0.662747,0.216421,-2.54359
1480686741448601,-0.662637,0.216356,-2.54332
1480686741465146,-0.662449,0.215988,-2.54303
1480686741481189,-0.662309,0.215949,-2.54298
1480686741500740,-0.662279,0.21606,-2.54302
1480686741517785,-0.662309,0.215949,-2.54298
1480686741539845,-0.662419,0.216099,-2.54306
1480686741561402,-0.662419,0.216099,-2.54306
1480686741592485,-0.662419,0.216099,-2.54306
1480686741600506,-0.662419,0.216099,-2.54306
1480686741621561,-0.662248,0.216213,-2.54296
1480686741639108,-0.662419,0.216099,-2.54306
1480686741660165,-0.662419,0.216099,-2.54306
1480686741682222,-0.662528,0.216249,-2.54315
1480686741706789,-0.662388,0.21621,-2.5431
1480686741727844,-0.6622,0.215842,-2.54281
1480686741758927,-0.6622,0.215842,-2.54281
1480686741770960,-0.662339,0.21588,-2.54285
1480686741781486,-0.662339,0.21588,-2.54285
1480686741802545,-0.662339,0.215923,-2.54276
1480686741818085,-0.662339,0.215923,-2.54276
1480686741840647,-0.662339,0.215923,-2.54276
1480686741869721,-0.662339,0.215923,-2.54276
1480686741877243,-0.662309,0.216034,-2.5428
1480686741899802,-0.663092,0.215673,-2.54268
1480686741922361,-0.663508,0.215678,-2.54269
1480686741961466,-0.663508,0.215678,-2.54269
1480686741963972,-0.663538,0.215567,-2.54266
1480686741984026,-0.663538,0.215567,-2.54266
1480686742027140,-0.663644,0.215606,-2.54261
1480686742057721,-0.663644,0.215606,-2.54261
1480686742060228,-0.663644,0.215606,-2.54261
1480686742075770,-0.663614,0.215717,-2.54265
1480686742079780,-0.663614,0.215717,-2.54265
1480686742102841,-0.663168,0.215822,-2.54267
1480686742116878,-0.662861,0.215967,-2.54273
1480686742147460,-0.662831,0.21612,-2.54268
1480686742170020,-0.662831,0.21612,-2.54268
1480686742176537,-0.662691,0.216081,-2.54263
1480686742215140,-0.662831,0.21612,-2.54268
1480686742237199,-0.662385,0.216226,-2.5427
1480686742239705,-0.662385,0.216226,-2.5427
1480686742261263,-0.66263,0.216303,-2.5427
1480686742282319,-0.66263,0.216303,-2.5427
1480686742327940,-0.66263,0.216345,-2.54261
1480686742333455,-0.662079,0.216285,-2.54295
1480686742352007,-0.661716,0.216636,-2.54349
1480686742363536,-0.662079,0.216874,-2.54429
1480686742380079,-0.662764,0.217424,-2.5449
1480686742402641,-0.663154,0.217524,-2.54535
1480686742427204,-0.662542,0.217686,-2.54576
1480686742447758,-0.662226,0.218383,-2.54614
1480686742469818,-0.662342,0.218432,-2.54682
1480686742493381,-0.662872,0.218571,-2.54732
1480686742514938,-0.662886,0.217961,-2.5475
1480686742536497,-0.662153,0.217673,-2.54798
1480686742560561,-0.663431,0.217532,-2.54809
1480686742562564,-0.665428,0.216269,-2.54826
1480686742606181,-0.665378,0.215897,-2.54811
1480686742608687,-0.665378,0.215897,-2.54811
1480686742629742,-0.665718,0.21571,-2.54822
1480686742651803,-0.666546,0.21565,-2.54804
1480686742663333,-0.666686,0.215688,-2.54809
1480686742679875,-0.666426,0.216094,-2.54818
1480686742702937,-0.666162,0.216515,-2.54787
1480686742724997,-0.665551,0.216721,-2.54819
1480686742748057,-0.665584,0.216721,-2.54828
1480686742770124,-0.665584,0.216721,-2.54828
1480686742800197,-0.665384,0.216947,-2.54821
1480686742802702,-0.664985,0.217357,-2.54816
1480686742837295,-0.664985,0.217357,-2.54816
1480686742874393,-0.664985,0.217357,-2.54816
1480686742892443,-0.664815,0.217472,-2.54806
1480686742907481,-0.665707,0.217216,-2.54811
1480686742910990,-0.665707,0.217216,-2.54811
1480686742926030,-0.665567,0.21722,-2.54797
1480686742942574,-0.664871,0.217181,-2.54777
1480686742965134,-0.664904,0.217224,-2.54777
1480686742979673,-0.665176,0.217121,-2.54752
1480686743002233,-0.665176,0.217121,-2.54752
1480686743025296,-0.665176,0.217121,-2.54752
1480686743047353,-0.665702,0.217232,-2.54771
1480686743069916,-0.667407,0.21646,-2.5477
1480686743085455,-0.668887,0.216094,-2.54787
1480686743108014,-0.670299,0.216027,-2.54722
1480686743130575,-0.670235,0.216223,-2.54698
1480686743145614,-0.668235,0.216571,-2.54714
1480686743160657,-0.668065,0.216644,-2.54713
1480686743182712,-0.668985,0.216252,-2.54684
1480686743205274,-0.668985,0.216252,-2.54684
1480686743219310,-0.668815,0.216324,-2.54683
1480686743248387,-0.668955,0.216363,-2.54687
1480686743278969,-0.668674,0.216414,-2.5465
1480686743303034,-0.667591,0.216344,-2.54606
1480686743307545,-0.666061,0.216465,-2.54546
