timestamp,x,y,z
1480687862051040,-3.25,-1.4375,-0.1875
1480687862056053,-4.75,-1.5625,-0.5
1480687862071597,-4.9375,-0.625,-0.625
1480687862080117,-2.875,0.125,-0.25
1480687862101678,-1.25,0.5,0.25
1480687862124234,-0.125,0.4375,0.25
1480687862153382,0.8125,0.375,-0.125
1480687862161904,1.125,0.25,-0.1875
1480687862191984,0.5625,0.0625,-0.5
1480687862245126,0.4375,-0.125,-0.6875
1480687862247131,0.8125,0.25,-0.5
1480687862274705,1.25,0.5625,-0.125
1480687862288240,1.625,0.75,0.0625
1480687862311803,1.25,0.625,0.1875
1480687862334364,1.8125,0.625,0.1875
1480687862336870,2.5625,0.4375,0.375
1480687862350405,3.1875,0.5625,0.375
1480687862371962,3.4375,0.875,-0.0625
1480687862393019,0.625,1.0625,-0.375
1480687862402043,-1.5625,0.1875,-0.25
1480687862438640,-1.25,-0.0625,-0.5625
1480687862445158,-1.0625,-0.0625,-0.3125
1480687862469724,-1,-0.0625,-0.3125
1480687862490277,-0.6875,-0.1875,0
1480687862523365,-0.3125,-0.1875,-0.0625
1480687862527376,-0.75,-0.3125,-0.5
1480687862547930,-1.5,-0.5625,-0.625
1480687862566984,-1.9375,-0.5625,-0.8125
1480687862635165,-1.0625,-0.4375,-0.6875
1480687862637168,-0.125,-0.25,-0.3125
1480687862643685,0.6875,-0.1875,0.25
1480687862647696,1.4375,0,0.5
1480687862664240,0.8125,0.25,0.125
1480687862687301,0.125,0.25,-0.3125
1480687862701842,0.375,0.25,-0.3125
1480687862723898,1,0.1875,0.125
1480687862749969,1.5,0.1875,0.25
1480687862775538,1.5,-0.0625,0.125
1480687862799600,1.5625,0.0625,-0.25
1480687862823664,1.6875,0.5,-0.3125
1480687862835195,1.125,0.625,0.25
1480687862844721,1.125,0.5625,0.375
1480687862888838,1.8125,0.6875,0.125
1480687862906388,1.9375,0.6875,0.375
1480687862911899,2.5,0.5625,0.1875
1480687862926939,2.3125,0.5,0
1480687862940977,1.625,0.4375,-0.0625
1480687862964539,1.3125,0.375,-0.1875
1480687862994119,0.8125,0.0625,-0.0625
1480687863001140,-0.5,-0.25,-0.25
1480687863024197,-2.125,-0.5625,-0.5
1480687863046757,-2.875,-0.75,-0.625
1480687863082854,-2.6875,-0.75,-0.4375
1480687863101406,-1.875,-0.5,0.0625
1480687863115942,-2,-0.125,0.25
1480687863134995,-2.4375,0.1875,-0.375
1480687863146022,-2.9375,0.375,-0.625
1480687863167078,-4.1875,0,-0.3125
1480687863187632,-4.75,-0.5625,-0.4375
1480687863204176,-3.5625,-0.3125,-0.6875
1480687863227738,-2,-0.0625,0.0625
1480687863250300,-0.5625,0.125,0.5
1480687863270351,-1,0.0625,0.375
1480687863345052,-0.6875,-0.375,0.1875
1480687863392176,0.375,-0.3125,0
1480687863417245,-1.1875,-0.1875,-0.5
1480687863422256,-1.375,-0.1875,-0.5
1480687863435291,0.125,0.0625,-0.5
1480687863444315,1.625,0.4375,0
1480687863466876,1.625,0.25,0.625
1480687863487932,0.625,0,0.4375
1480687863504477,-0.6875,-0.0625,-0.0625
1480687863527535,-2.0625,-0.4375,-0.5
1480687863600229,-3.0625,-0.625,-1.1875
1480687863615270,-4,-0.6875,-1.0625
1480687863649862,-2.25,-0.3125,-0.625
1480687863675930,-2.25,-0.4375,0
1480687863692474,-1.6875,-0.8125,0.1875
1480687863694981,-0.25,-0.5625,0.25
1480687863714533,0.625,-0.625,0.25
1480687863744112,1.375,-1.0625,0.125
1480687863746619,3.25,-1.0625,0.4375
1480687863775194,4.25,-0.75,0.6875
1480687863789232,3.5625,-0.8125,1.25
1480687863841370,3.3125,-0.75,1.4375
1480687863862426,2.625,-0.375,1.0625
1480687863902032,0.9375,-0.25,0.4375
1480687863917074,-1.0625,-0.375,-0.125
1480687863923588,-0.375,-0.375,0.125
1480687863952666,-0.5,-0.4375,0
1480687863969711,-0.75,-0.1875,-0.4375
1480687863991771,-1.1875,0.0625,-0.25
1480687864014331,-1.1875,0.4375,-0.3125
1480687864036890,-1.0625,0.5625,-0.5625
1480687864057946,-1.1875,0.8125,-0.375
1480687864066970,-1.8125,0.8125,-0.4375
1480687864089029,-2.4375,0.625,-0.5
1480687864179769,-3,0.25,-0.5625
1480687864182276,-2.25,0.0625,-0.9375
1480687864204837,-0.9375,0.375,-0.5
1480687864210853,-1.125,0.125,-0.375
1480687864232410,-1.0625,0,-0.5
1480687864247450,-0.375,0.3125,-0.6875
1480687864270011,0.0625,0.4375,-0.6875
1480687864292069,0.1875,0.4375,-0.9375
1480687864321647,0.3125,0.125,-1.3125
1480687864335685,-0.6875,-0.25,-1.625
1480687864380804,-1.875,-0.6875,-2.1875
1480687864389327,-2.875,-1.4375,-2.75
1480687864398854,-2.8125,-2.3125,-1.6875
1480687864432442,-0.625,-2.375,-0.375
1480687864466032,0.4375,-1.875,0.4375
1480687864472549,0,-1.8125,0.5
1480687864478064,-0.75,-1.5625,0.3125
1480687864500123,-1,-0.3125,-0.0625
1480687864524186,-0.125,0.6875,0.25
1480687864531706,-0.75,0.75,0.75
1480687864546748,-1.5,0.375,0.75
1480687864576826,-0.75,0.5,0.25
1480687864592368,-0.125,0.625,0.375
1480687864644005,0.9375,0.5625,0.5625
1480687864650021,1.625,0.9375,0.8125
1480687864675589,1.25,0.8125,0.5
1480687864680101,0.1875,0.5625,-0.3125
1480687864698149,-0.125,0.5625,-0.1875
1480687864711684,-0.0625,0.5,-0.1875
1480687864726224,2.125,0.625,-0.3125
1480687864756805,3.6875,0.875,0.9375
1480687864773349,1.5,0.375,1.5625
1480687864792901,-0.8125,-0.25,-0.3125
1480687864809945,-1.875,-0.125,-1.25
1480687864847546,-3.3125,-0.125,-1.0625
1480687864853061,-5.75,-0.4375,-0.6875
1480687864905200,-6.1875,-0.75,-1.0625
1480687864915728,-4.5625,-0.6875,-1.0625
1480687864932272,-1.5,-0.5625,-0.8125
1480687864965861,-0.125,-0.5,-0.8125
1480687864989925,1.0625,-0.75,-0.3125
1480687864992431,2.5625,-0.6875,0.125
1480687865011983,3.875,-0.625,0.5
1480687865032539,4.375,-0.625,0.5625
1480687865058105,4,-0.75,0.375
1480687865071642,3.1875,-0.625,0.5625
1480687865100219,2.6875,-0.3125,0.3125
1480687865109743,2,-0.1875,0.3125
1480687865146340,0.875,0.25,1.625
1480687865178928,1.0625,0.9375,2
1480687865197477,0.25,1.0625,1.8125
1480687865209007,-1.875,0.8125,1.5
1480687865237082,-4.1875,0.8125,0.6875
1480687865242095,-7.3125,1.0625,-0.9375
1480687865257636,-9.125,0.6875,-2.1875
1480687865273679,-6.8125,0.9375,-3.4375
1480687865289221,-2.875,0.875,-2.875
1480687865311783,1.3125,0.5,-1.5
1480687865332837,3.8125,0.3125,-0.25
1480687865349383,4.5625,0.375,0.125
1480687865379461,4.4375,0.8125,0.75
1480687865400015,3.0625,0.8125,2
1480687865446639,2.6875,0.3125,1.9375
1480687865456666,3.9375,-0.25,1.9375
1480687865469199,4.5625,-0.5625,2.9375
1480687865492260,3.625,-1.125,2.875
1480687865494768,0.875,-1.75,1.3125
1480687865514319,-2.3125,-1.5625,-1
1480687865529359,-6.125,-1.1875,-2.4375
1480687865565456,-7.875,-0.875,-3
1480687865574479,-7.375,-0.375,-2.6875
1480687865588516,-5.1875,0.3125,-1.4375
1480687865612079,-3.3125,1,-0.25
1480687865634639,-2.4375,1.8125,0.125
1480687865685273,-1.0625,2.125,0.1875
1480687865703826,1.125,2.375,0.875
1480687865730393,3.6875,2.375,0.875
1480687865747439,5.25,2.375,0.9375
1480687865755461,4.3125,1.75,1.0625
1480687865770501,2.3125,0.75,0.625
1480687865775514,2.4375,-0.125,0.3125
1480687865792057,2.125,-0.6875,0.375
1480687865820132,0.5625,-1.75,-0.3125
1480687865842693,1.6875,-2.375,-1
1480687865865252,5.9375,-1.9375,-0.375
1480687865899344,10.25,-0.6875,0.8125
1480687865912378,10.125,0.375,1.5
1480687865914884,5.625,0.875,1.375
1480687865942462,1.6875,1.9375,-0.25
1480687866024175,0.4375,2.875,-1.1875
1480687866030692,3.1875,3.6875,-1.3125
1480687866070799,-2.9375,3.25,-2.375
1480687866089851,-6.375,3.1875,-4.4375
1480687866108901,-8.9375,2.9375,-5.125
1480687866129958,-8.125,2.4375,-4.6875
1480687866131460,-2,1.8125,-4.125
1480687866136976,3.125,2.125,-3.125
1480687866152015,5.3125,2.25,-1.5625
1480687866174576,5.5,1.625,-0.75
1480687866264814,3.9375,1.375,-0.125
1480687866269327,1.0625,0.6875,-0.375
1480687866311439,-0.3125,-0.0625,-3.4375
1480687866312943,1.3125,0.6875,-3.625
1480687866326980,6.9375,0.5,-2.0625
1480687866332996,4.25,0.75,-0.0625
1480687866354553,-1.875,-1.125,2.875
1480687866377113,-6.875,-3.1875,3.9375
1480687866399172,-8.75,-3.0625,2.875
1480687866421732,-10.3125,-3.25,2.0625
1480687866436772,-11.0625,-3.6875,1.1875
1480687866474876,-9.8125,-3.5625,0.625
1480687866477380,-7,-2.875,0.5
1480687866550578,-4.8125,-2.5625,0.1875
1480687866557093,-4.375,-3.1875,-0.1875
1480687866562607,-6.75,-2.25,1
1480687866578649,-8.6875,-1.75,-0.625
1480687866594190,-10.3125,-1.3125,-1.25
1480687866617253,-9,-0.6875,-1.375
1480687866631290,-6.75,0.5625,-2.9375
1480687866654853,-6,0.125,-3.125
1480687866676910,-3.375,-1.0625,-2.25
1480687866691950,-0.4375,-0.5,-0.875
1480687866728547,0,-0.25,0.9375
1480687866765145,0.9375,-0.1875,1.75
1480687866812271,1.625,-0.5625,1.375
1480687866814777,2.5625,-0.5,0.625
1480687866821294,4.9375,0.4375,0.6875
1480687866834329,5.625,0.5625,1
1480687866856889,6.9375,0.5,1.8125
1480687866877946,9.3125,1.625,0.75
1480687866894990,10.25,1.5,0.875
1480687866917551,9.25,1.5625,2.3125
1480687866954649,8.125,2.0625,1.8125
1480687866957156,5.6875,1.5625,1.9375
1480687866977210,2.625,0.625,1.3125
1480687866998265,1.625,-0.0625,1.5625
1480687867045892,4.3125,-0.25,1.8125
1480687867073465,5.625,0.0625,1.8125
1480687867090513,3.75,0.25,1.75
1480687867110063,1.625,0.8125,1.9375
1480687867120591,0.0625,0.8125,3.0625
1480687867134630,-0.1875,0.4375,3.1875
1480687867136633,0.875,0.75,1.6875
1480687867141145,0.125,1.1875,0.6875
1480687867162201,-0.9375,1.25,0.8125
1480687867187769,-2,1.5625,0.4375
1480687867238906,-3.25,1.4375,0.375
1480687867248933,-2.3125,1.375,0.25
1480687867262468,-1.8125,1.875,-0.4375
1480687867264975,-2.0625,1.9375,-0.25
1480687867289539,-1.0625,2.0625,0.3125
1480687867304580,0.875,2.1875,0.375
1480687867322628,2.125,0.875,0.9375
1480687867376271,3.25,0.6875,1.125
1480687867389806,3.125,0.75,0.5
1480687867391811,0.9375,0.375,0.875
1480687867409859,-0.125,-0.1875,0.8125
1480687867433423,-0.75,0.1875,0.5625
1480687867456984,-1.5,0.125,-0.125
1480687867463505,-1.875,-0.3125,-0.375
1480687867484560,-0.125,-0.5,0.5625
1480687867539204,1.25,-0.6875,1.625
1480687867555246,3.8125,-1.0625,1
1480687867561764,4.75,-0.4375,0.5625
1480687867564270,4.1875,0.0625,1.1875
1480687867601872,2.75,-0.25,1.5
1480687867605881,2.3125,0,0.5625
1480687867643982,2.1875,0.5625,0.25
1480687867652505,1.125,0.75,0.75
1480687867689103,1,0.6875,1
1480687867698629,1,0.5625,0.3125
1480687867711161,0.6875,0.8125,-0.125
1480687867757283,1.0625,0.1875,0.625
1480687867759790,2.125,-0.5625,0.625
1480687867765305,4,-0.5,0.125
1480687867829977,3.75,0.0625,-0.0625
1480687867841508,1.9375,0,0.6875
1480687867862563,0.0625,-1.0625,0.9375
1480687867863064,1.5,-0.9375,0.1875
1480687867876099,3.6875,-0.375,-0.0625
1480687867898660,3.5625,0.25,0.125
1480687867904676,1.375,0.1875,0.3125
1480687867921219,-0.4375,-0.0625,0.1875
1480687867967847,-0.4375,-0.375,0.125
1480687867969849,-0.375,-0.1875,-0.125
1480687867995918,0.125,0,0
1480687868018478,0.5625,-0.25,0.125
1480687868042041,1.3125,-0.1875,0.1875
1480687868080643,1.9375,0.375,0.3125
1480687868086660,1.4375,0.125,0.375
1480687868089166,0.0625,-0.3125,0.375
1480687868110724,-0.125,-0.6875,-0.375
1480687868122253,-1.0625,-0.25,-0.3125
1480687868152334,-1.8125,-0.3125,0.4375
1480687868178905,-1.5,-0.625,0.0625
1480687868191939,-0.4375,-0.375,-0.3125
1480687868229038,-0.1875,-0.25,0.1875
1480687868234052,0,-0.3125,0.25
1480687868269144,0.875,0.125,0.125
1480687868273656,1.0625,0.0625,0.4375
1480687868298724,0.25,-0.3125,0.25
1480687868343843,0.6875,-0.6875,-0.0625
1480687868355374,0.6875,-0.125,0.4375
1480687868380440,-1.3125,-0.75,0.875
1480687868388462,-2.1875,-0.8125,0.75
1480687868410019,-2.5,-1.1875,0.75
1480687868431075,-4.125,-1.4375,0.875
1480687868452130,-5.8125,-2,1.0625
1480687868476696,-5.0625,-2.4375,1.375
1480687868482211,-3.25,-2.0625,1.375
1480687868522318,-1.0625,-1.5,1.8125
1480687868544878,1,-1.0625,2.0625
1480687868564933,2.0625,-0.25,1.375
1480687868574958,3.1875,0.375,0.3125
1480687868620579,4.1875,0.25,-0.4375
1480687868642136,5.8125,0,-1.0625
1480687868644643,7.5,-0.9375,-1.625
1480687868666201,6,-2.1875,-1.3125
1480687868687758,1.8125,-3.625,-1.625
1480687868695279,-1.25,-4.25,-2.0625
1480687868710820,-2.75,-4,-1.875
1480687868729870,-2.4375,-2.5,-1.8125
1480687868752430,-3.0625,-1.375,-2
1480687868777497,-5.1875,-0.4375,-2.3125
1480687868798553,-7.6875,-0.25,-2.375
1480687868804568,-7.4375,0.4375,-2.75
1480687868851694,-5.3125,1.625,-3.6875
1480687868854200,-4.9375,0.9375,-3.75
1480687868872248,-4.5625,0.875,-3.125
1480687868887288,-3.8125,0.875,-2.5
1480687868905838,-3.75,0.5625,-2.375
1480687868940931,-3.375,0.5625,-3.1875
1480687868963993,-2.9375,0.9375,-3.9375
1480687868966500,-2.8125,1.1875,-3.5625
1480687868992066,-2.8125,1.375,-2.8125
1480687869010115,-2.5625,1.25,-2.4375
1480687869032175,-2.1875,1.25,-2.5625
1480687869052226,-2,1.3125,-2.6875
1480687869078296,-0.375,1.75,-2.5
1480687869108379,0.1875,1.75,-2.125
1480687869111885,-1.0625,1.1875,-2.75
1480687869129933,-1.875,0.9375,-3.6875
1480687869150989,-2.625,1.8125,-4
1480687869172045,-3.5625,1.875,-4
1480687869187085,-2.8125,2,-4.4375
1480687869209645,-1.125,2.1875,-4.25
1480687869228696,-1.25,2.1875,-2.3125
1480687869251256,-1.625,1.875,-1.625
1480687869273315,-1.5,1.5,-3.0625
1480687869288355,-2.125,1.6875,-3.8125
1480687869309912,-3.25,1.875,-4.0625
1480687869332474,-3.4375,1.6875,-3.0625
1480687869352024,-4.125,0.875,-1
1480687869367069,-3.4375,-0.125,0.125
1480687869391128,-0.875,-0.25,0.0625
1480687869404664,0.875,-0.125,0.3125
1480687869443267,1.5625,-0.3125,1.125
1480687869458311,2.0625,-0.125,1.5
1480687869464824,2,-0.0625,1.4375
1480687869487384,1.125,-0.125,1.25
1480687869504931,0.6875,-0.1875,1.25
1480687869524482,0.5,-0.4375,1.25
1480687869547042,0.3125,-0.8125,1.9375
1480687869565092,0.4375,-0.875,2.4375
1480687869587651,1.125,-1.125,2.3125
1480687869645805,-0.25,-0.0625,1.875
1480687869656333,-0.25,0.0625,1.5625
1480687869662349,-1.1875,-0.375,1.0625
1480687869675384,-1.625,-0.625,1.0625
1480687869684910,-2.0625,-0.4375,1.5
1480687869704461,-1.875,-0.9375,1.625
1480687869728525,-1.3125,0,1.125
1480687869745570,-1.75,-0.75,1
1480687869789687,-0.6875,-0.5,0.125
1480687869794701,0.8125,0.1875,0.0625
1480687869821272,1,0.125,0.75
1480687869826787,0.1875,-0.0625,0.6875
1480687869847341,0.375,-0.4375,0.875
1480687869869902,0.8125,-0.4375,0.875
1480687869887448,1.3125,-0.4375,0.5
1480687869923544,2.3125,-0.25,0.8125
1480687869937581,1.875,0.3125,1.5625
1480687869968664,-0.5,0.5625,1.375
1480687869986210,-3.5,0.125,0.25
1480687869991224,-4.625,-0.0625,-0.625
1480687870016796,-4.0625,-0.375,-0.25
1480687870027319,-2.4375,-0.25,-0.25
1480687870053389,-0.5,-0.4375,-0.1875
1480687870071939,1,-0.25,-0.1875
1480687870096002,1.625,-0.25,-0.375
1480687870120568,0.9375,-1.5,-0.9375
1480687870167195,2.1875,-0.6875,-2.0625
1480687870187245,3.875,0.8125,-2.8125
1480687870189751,5.3125,1.5,-3.1875
1480687870195266,4.5625,2.25,-3.5
1480687870210307,1.1875,2.625,-3.125
1480687870232366,-0.6875,2.125,-2.5625
1480687870283003,-1.1875,2.4375,-2
1480687870295031,-1.875,1.5625,-0.75
1480687870314084,-4.25,0.0625,0.0625
1480687870316590,-4.75,-0.5625,-0.5
1480687870330125,-3.125,-0.3125,0
1480687870352685,-2.9375,-0.375,0.6875
1480687870381762,-4.1875,-0.75,0.625
1480687870387278,-4.125,-1.375,0.5
1480687870420866,-3.375,-1.0625,0.8125
1480687870444931,-3.9375,-1.3125,0.875
1480687870465485,-4.25,-1.6875,0.5625
1480687870493560,-4.4375,-1.375,0.6875
1480687870509101,-4.875,-0.9375,0
1480687870511608,-5.125,-0.4375,-0.25
1480687870538680,-4.125,0.3125,-0.125
1480687870547705,-2.25,0.5,0.5625
1480687870567257,0.3125,0.875,1.875
1480687870589821,2.875,0.8125,2.0625
1480687870614381,3.6875,0.625,1.9375
1480687870629922,4.625,0.375,1.6875
1480687870658499,5.6875,0.625,1.625
1480687870698029,6.4375,1.25,1.625
1480687870703532,6,1.25,1.125
1480687870717067,4.6875,1.25,1.0625
1480687870727596,4.3125,1,0.8125
1480687870748652,4.4375,1.1875,0.8125
1480687870771212,4.25,0.75,1.1875
1480687870830871,3,0,0.8125
1480687870855436,-0.1875,-0.5,0.1875
1480687870868972,-3.1875,-1.625,-0.5625
1480687870893036,-4.875,-1.1875,-3.6875
1480687870914092,-7.9375,-0.875,-6.4375
1480687870916598,-10.5625,0.25,-8
1480687870934646,-11.0625,2.9375,-8.125
1480687870952695,-9.9375,4.0625,-7.6875
1480687870980267,-14,3.125,-10.125
1480687870994806,-9.3125,2.5625,-4.5625
1480687871017367,-4.125,2.4375,-3.6875
1480687871027393,-2,2.5,-2.8125
1480687871049955,-0.25,2,-0.4375
1480687871086551,1.0625,1.0625,1.8125
1480687871100589,1.75,0.25,2.875
1480687871108609,2.875,-0.375,3.25
1480687871129666,4.125,-0.4375,2.8125
1480687871148214,4.3125,-0.75,2.8125
1480687871174784,4.9375,-0.1875,3.5
1480687871189825,5.25,-0.1875,3.5
1480687871212385,5.5,-0.125,2.625
1480687871230935,6.375,0.0625,2.625
1480687871249486,5.6875,-0.1875,2.1875
1480687871275051,5.125,0.1875,1.4375
1480687871294604,4.1875,0.6875,2.0625
1480687871325184,3.625,0.375,2.75
1480687871342731,4.0625,0.125,3.0625
1480687871354763,4.4375,0.25,2.875
1480687871402389,3.8125,0.625,2.0625
1480687871404897,2.1875,0.5625,1.5
1480687871417430,0.625,0.25,0.1875
1480687871436982,-1.3125,-0.4375,-0.375
1480687871469568,-0.125,-0.625,-0.875
1480687871472075,2.5625,-0.0625,-0.4375
1480687871489622,4.6875,0.375,0.25
1480687871515693,5,0.625,0.3125
1480687871551790,5.9375,0.1875,-1.625
1480687871554294,11.5,2.1875,-2.1875
1480687871574848,15.5,5,-2.625
1480687871597910,15.875,5.75,-3.3125
1480687871619969,13.25,5.3125,-4.1875
1480687871642529,6.9375,4.25,-6.875
1480687871670102,1.0625,5,-10
1480687871680129,-6.3125,0.9375,-0.1875
1480687871699681,-8.0625,0.125,-2.4375
1480687871753825,-4.875,-0.125,-2.5625
1480687871777388,-2.25,0.5625,-2.5
1480687871805964,-1.3125,0.4375,0.625
1480687871814988,3.3125,1,1.5625
1480687871830028,8.125,1.9375,2.875
1480687871851084,9.875,1.5625,4.75
1480687871876150,9.125,0.0625,5.875
1480687872002486,6.8125,-2,7.4375
1480687872032066,3.75,-3.6875,7.5625
1480687872055195,-12.5625,-5.3125,-0.25
1480687872070235,-8.5625,-5.75,0.4375
1480687872092795,-1.875,-5.8125,3.8125
1480687872112347,1.8125,-6.1875,3.8125
1480687872130897,1.625,-3.625,4.8125
1480687872152454,-0.375,-4,4.0625
1480687872196570,-2.875,-4.0625,1.25
1480687872199083,-3.25,-4.125,0.625
1480687872235675,-2,-3.25,1.6875
1480687872257233,-1,-2.625,2.5
1480687872259738,0.5625,-2.8125,2.0625
1480687872316390,3.125,-1.9375,1
1480687872326416,4.625,-1.0625,0.8125
1480687872333937,7.0625,-0.25,1.3125
1480687872362011,8,-0.125,2.1875
1480687872370032,9,-0.125,3.125
1480687872392593,9.125,0.3125,4
1480687872412145,10.1875,0.3125,4.1875
1480687872437712,11.125,0.75,3.125
1480687872452752,10.6875,1.375,1.6875
1480687872479839,9.5,1.8125,1.1875
1480687872489851,8.5,1.9375,0.6875
1480687872514417,7.875,2.375,0.125
1480687872534971,6.5,2.5,-0.1875
1480687872558032,3.5625,1.875,-0.375
1480687872580592,0.375,1.1875,-1.625
1480687872602765,-1.8125,0.5625,-3.6875
1480687872614798,-2.4375,0.6875,-4.75
1480687872633347,-3,1,-6.4375
1480687872654402,-4.375,1.1875,-8.5
1480687872675458,-6.75,3.0625,-9.4375
1480687872693004,-11.3125,3.125,-7.8125
1480687872713560,-14.8125,2.8125,-7
1480687872730103,-16.1875,1.75,-6.4375
1480687872758680,-12.375,1.5,-5.25
1480687872790764,-8.5,0.9375,-2.625
1480687872811820,-5.125,0,-0.1875
1480687872814327,1.125,-1.25,1.75
1480687872852428,5,-0.8125,3.625
1480687872872985,6.1875,-0.625,4.25
1480687872876994,3.8125,-1.875,4.4375
1480687872893538,1.4375,-2.1875,2.6875
1480687872914595,-0.5,-2.5625,2.375
1480687872932642,-1.3125,-2.1875,2.75
1480687872953698,-1.5625,-1.875,2.9375
1480687872974754,-1.9375,-1.9375,2.6875
1480687872994306,-1.375,-2,2.0625
1480687873014861,-0.3125,-2,1.8125
1480687873035916,1.1875,-1.875,1.8125
1480687873075522,1.25,-1.5625,2.1875
1480687873088556,0.5625,-1.4375,2.9375
1480687873094575,-0.5,-1.9375,3.375
1480687873127660,1.0625,-2.125,3.125
1480687873135181,2.1875,-2.1875,3.375
1480687873157741,2.9375,-1.3125,3
1480687873172780,2.4375,-0.5,3.1875
1480687873194840,0.9375,-0.375,3.375
1480687873214893,-1.1875,-1.4375,2.4375
1480687873232440,-1.25,-2.4375,1.3125
1480687873262519,0.375,-2.5625,1.875
1480687873328194,0.9375,-2.0625,2.6875
1480687873344237,1.0625,-2.4375,2.5625
1480687873366803,5.25,-1.4375,1
1480687873369303,4,-1.4375,1.1875
1480687873391362,0.625,-2.5,0.75
1480687873394370,-2.8125,-3.5625,0.5
1480687873412418,-5.1875,-3.9375,0.125
1480687873434978,-4.0625,-2.6875,-0.5625
1480687873457545,-1.625,-1.25,-1.0625
1480687873472577,-0.625,-0.625,-1.0625
1480687873495138,1.0625,0.0625,-1.125
1480687873517698,2.5625,0.5,-0.375
1480687873540258,2.25,0.75,0.4375
1480687873578860,2.1875,0.625,0.6875
1480687873600419,2.75,0.4375,0.8125
1480687873604428,2,-0.4375,1.125
1480687873622476,4.125,0.5,-0.0625
1480687873636013,5.5,0.625,-0.25
1480687873660076,5.6875,0.75,-0.5
1480687873675117,4.3125,0.625,-0.6875
1480687873696173,4.1875,0.125,-0.375
1480687873712717,5.1875,0,-0.5
1480687873735276,5.1875,-0.0625,0.0625
1480687873755831,5.5,-0.25,0.1875
1480687873780899,5.125,-0.5,0.3125
1480687873795436,3.6875,-0.625,0.8125
1480687873837549,1.9375,-0.4375,0.625
1480687873855597,0.6875,0,0.75
1480687873879661,-1.5,-0.3125,0.5625
1480687873899714,-2.75,-0.6875,0
1480687873904727,-2.875,-0.8125,-0.375
1480687873914253,-2.8125,-0.8125,-0.25
1480687873937314,-3.4375,-1.5625,-0.5
1480687873951351,-3.375,-1.875,-0.75
1480687873981431,-3.375,-1.75,-0.8125
1480687873996972,-2.9375,-1.4375,-0.5625
1480687874018028,-2.0625,-1.125,-0.5
1480687874041591,-2.1875,-0.6875,-0.625
1480687874056631,-3.25,-0.0625,-0.5625
1480687874117292,-4.8125,0.3125,-0.5
1480687874119801,-7,-1.375,-0.0625
1480687874133335,-7,0.0625,-1
1480687874153390,-6.5625,-0.375,-0.9375
1480687874170935,-6.6875,-0.3125,-0.9375
1480687874176951,-5.3125,-0.125,-1.125
1480687874197508,-6.3125,0.125,-1.625
1480687874214551,-6.1875,0.5625,-1.9375
1480687874238114,-5.625,0.75,-1.75
1480687874266693,-5.75,0.8125,-1.5625
1480687874274210,-5.5625,0.375,-1.5625
1480687874302786,-4.75,0.5625,-1.75
1480687874317825,-4.375,0.6875,-1.0625
1480687874340385,-3.25,0.4375,-0.9375
1480687874356429,-2.75,0.5,-0.875
1480687874400045,-2.6875,0.5625,-0.6875
1480687874432131,-2.75,0,-0.375
1480687874434639,-1.8125,-0.25,-0.5
1480687874455693,-0.9375,0.0625,0
1480687874460206,-1.375,-0.25,0.0625
1480687874476748,-0.6875,-0.375,-0.3125
1480687874497805,-0.125,-0.0625,-0.4375
1480687874514851,-0.6875,-0.125,-0.5
1480687874536909,-0.25,0.0625,-0.375
1480687874565485,-0.375,0.6875,0.5
1480687874575015,-1.125,0.1875,0.8125
1480687874596566,-0.875,0,0.125
1480687874619127,-0.3125,-0.0625,0.0625
1480687874664749,-1,-0.375,0
1480687874667256,-2,-0.8125,-0.75
1480687874689815,-4,-0.25,-1.8125
1480687874694326,-7.3125,-0.1875,-1.75
1480687874732930,-6.75,0.1875,-2.125
1480687874737945,-3.9375,0.5,-2
1480687874753985,-2,1.0625,-1.5625
1480687874778051,-0.375,0.875,-1.0625
1480687874797601,1.625,1.3125,-1.4375
1480687874814146,1.6875,1.4375,-2.0625
1480687874836705,0.75,-0.125,-2.0625
1480687874857761,0.3125,-0.75,-1.4375
1480687874897868,-1.25,-1.875,-0.75
1480687874902883,-1.625,-2.125,-0.5625
1480687874925441,-1.6875,-1.5625,-0.5
1480687874948503,-2.5625,-1,-0.5625
1480687874973069,-2,-0.9375,-1.25
1480687874985100,1.375,-0.3125,-0.6875
1480687875002146,2.6875,0,0.875
1480687875024204,2.875,0.0625,1.75
1480687875039244,3.375,0,2.625
1480687875054284,3.3125,-0.5625,2.5625
1480687875076844,3.3125,-1.3125,1.6875
1480687875099405,4.75,-1.875,1.375
1480687875113443,5.0625,-1.75,2
1480687875152545,5.4375,-1.8125,2.6875
1480687875188641,2.6875,-0.8125,1.875
1480687875227244,-0.4375,-0.0625,1.1875
1480687875229751,-1.5,0.4375,-0.4375
1480687875259831,0.75,0.5625,-0.25
1480687875281388,2,0.4375,0.6875
1480687875285901,2.6875,0.6875,0.375
1480687875301943,2.625,1.375,-0.25
1480687875322998,2.375,1.5,-0.1875
1480687875346562,1.875,1.4375,-0.4375
1480687875353581,-0.125,0.5,0.25
1480687875376641,0.5,0.3125,-0.0625
1480687875407725,0.8125,0,0.3125
1480687875429281,0.25,-0.25,0.5625
1480687875450337,-0.8125,-0.375,0
1480687875504982,-2.4375,-0.125,-0.375
1480687875511500,-2.625,0,-0.25
1480687875514007,-2.1875,0.0625,0.0625
1480687875519020,-1.5,-0.1875,-0.4375
1480687875540075,-1,-0.1875,-0.75
1480687875557121,-0.75,0.125,-0.3125
1480687875579180,0.75,0.5,0
1480687875600235,1.5625,0.5625,-0.25
1480687875624300,0.8125,-0.375,-0.0625
1480687875639340,1.3125,-0.75,-0.25
1480687875683959,2.5625,-0.5,0.125
1480687875690476,2.375,-0.5,0.5
1480687875699500,1.1875,-0.8125,-0.3125
1480687875731084,0.1875,-0.4375,-1.25
1480687875760663,-2.1875,-0.1875,-0.5
1480687875763169,-3.75,-0.4375,0.1875
1480687875780214,-2.5625,-0.875,-0.625
1480687875796758,0.3125,-0.125,-0.875
1480687875819820,2.4375,0.375,-0.5
1480687875840374,3.0625,0.4375,0.4375
1480687875856918,3.75,0.0625,0.625
1480687875885494,5.3125,0.3125,-0.1875
1480687875902040,5.8125,0.75,0.25
1480687875916577,4.875,0.4375,0.9375
1480687875939140,4.5,0.375,0.375
1480687875962198,4.875,0.5625,0.25
1480687876022358,3.6875,1,0.375
1480687876024865,2.75,1,0.1875
1480687876043916,2.3125,1.5,0.0625
1480687876045921,3.0625,1.4375,0.125
1480687876059458,4.3125,1.6875,-0.5
1480687876082022,3.9375,1.25,0
1480687876096054,2.6875,0.875,0.4375
1480687876120117,1.375,0.5625,0.625
1480687876142679,1,0.625,0.75
1480687876156215,-0.125,0.3125,0.1875
1480687876200834,-0.75,-0.125,-0.375
1480687876222390,-0.6875,0.0625,-0.5
1480687876262497,-0.6875,0.1875,-0.0625
1480687876270518,-2.125,-0.5625,0.3125
1480687876276035,-4.5,-0.9375,-0.375
1480687876299094,-5.75,-1.3125,-0.1875
1480687876321654,-5.6875,-1.375,0
1480687876336193,-5.0625,-1.4375,0.0625
1480687876365271,-3.875,-0.875,-0.0625
1480687876381817,-2.5,-0.4375,0.25
1480687876402870,-2.25,-0.625,0.625
1480687876419414,-2.375,-0.8125,0.375
1480687876441974,-2.625,-0.3125,-0.375
1480687876477569,-3.75,-0.3125,0.0625
1480687876511158,-3.875,-0.375,0.25
1480687876524694,-2.1875,0.1875,-0.5
1480687876539734,-2,0.0625,-0.0625
1480687876562294,-2.375,-0.125,-0.4375
1480687876567308,-2.4375,-0.4375,-0.5
1480687876582850,-3.3125,-0.625,-0.625
1480687876599393,-3.6875,-0.625,-1
1480687876621952,-4.125,-0.5625,-1.1875
1480687876643009,-2.875,0,-0.875
1480687876673092,-2.125,0.125,-0.4375
1480687876681615,-2,0.25,-0.3125
1480687876769846,-1.9375,0,-0.25
1480687876795414,-2,0.125,-0.25
1480687876803938,-0.4375,0.375,-1.0625
1480687876807947,-0.3125,0.5,-0.6875
1480687876823989,-0.4375,0.5625,-0.5
1480687876839030,-0.875,0.5625,-0.5
1480687876861589,-1.1875,0.5,-0.4375
1480687876884150,-1.625,0.125,-0.625
1480687876905207,-1.0625,0.0625,-0.875
1480687876929771,-0.625,0.1875,-0.8125
1480687876945814,-0.5625,-0.125,-0.375
1480687876959349,1.4375,0.5,-0.5
1480687876987926,1.9375,0.3125,0.4375
1480687877017504,0.5625,0.0625,0.3125
1480687877067137,-0.5625,-0.125,-0.25
1480687877071148,-1.5625,-1.25,-0.1875
1480687877078668,1.3125,-0.1875,0.625
1480687877101729,0.6875,-0.625,0.625
1480687877124288,0.5625,-0.5625,-0.25
1480687877138828,1.4375,-1.375,1.25
1480687877161888,4.25,-1.3125,1.125
1480687877208011,6.875,-0.75,1.125
1480687877215536,5.6875,-0.3125,2.5625
1480687877221547,5.5625,0.5625,1.6875
1480687877244107,5.5,0.4375,1
1480687877258646,4,-1.4375,0.25
1480687877281711,3.5625,-3.25,0.9375
1480687877311787,7.875,-1.5625,2.5
1480687877342870,11.875,-4.6875,2.25
1480687877347883,14.25,-2.125,8.125
1480687877363927,9.5,-3.6875,2.0625
1480687877402027,6.6875,-2.875,3.8125
1480687877410550,-0.625,-2.1875,-3.0625
1480687877425088,-5.1875,-1.5625,-4.5625
1480687877463189,-12.875,-0.875,-3.125
1480687877470710,-21.4375,-3.3125,-2.25
1480687877505803,-30.1875,-6.25,-4
1480687877515332,-35.6875,-6.5625,-7.0625
1480687877529867,-33.25,-7.125,-9.4375
1480687877551425,-31.0625,-7.8125,-9.75
1480687877565462,-27.875,-7.125,-7.8125
1480687877582008,-23.5,-7.0625,-4.375
1480687877611584,-18.9375,-6,-1
1480687877626624,-16.625,-4.9375,1.25
1480687877641163,-15.375,-4.4375,0.375
1480687877664726,-11.5625,-4.375,-2.3125
1480687877692801,-7.0625,-3.125,-3.1875
1480687877701825,-6.6875,-2,-1.375
1480687877740928,-2.5625,-1.3125,-0.1875
1480687877744939,3.1875,0.1875,0.6875
1480687877761985,3.125,-0.8125,2
1480687877784545,0.6875,-3.1875,2.25
1480687877806603,-1.375,-4.375,1.625
1480687877822145,-3.3125,-3,1.3125
1480687877851724,-5,-1.625,0.4375
1480687877868769,-6.1875,-0.8125,-0.1875
1480687877881803,-4.1875,-0.1875,1
1480687877904363,0.125,1.625,1.25
1480687877926923,7.4375,3.5625,-0.375
1480687877940960,17.1875,5.8125,-0.5
1480687877964021,24.9375,6.8125,1.4375
1480687877986581,25.375,5.5625,4.0625
1480687878009141,18.625,2.125,4.5
1480687878024181,8.25,-0.0625,5
1480687878046743,0.6875,-1.75,4.3125
1480687878069301,-5,-1.75,3.125
1480687878084341,-8.1875,-0.5625,2.0625
1480687878122944,-6.0625,0.4375,0.4375
1480687878127957,-2.5,1.125,0.3125
1480687878144502,2.3125,2.375,0.625
1480687878172576,7.3125,2.75,0.875
1480687878181099,10,3.5,1.9375
1480687878204160,9.5625,3.625,2.8125
1480687878226720,7.9375,3.125,2.8125
1480687878241259,8.1875,2.5,3.4375
1480687878264320,8.625,2,4.0625
1480687878286880,6.3125,1,4
1480687878317963,3.3125,-0.1875,3.0625
1480687878323979,2.875,-0.25,2.5
1480687878361579,3.1875,2.1875,2.6875
1480687878375115,2,2.8125,3.25
1480687878384139,0.75,1.375,2.8125
1480687878406698,0.9375,0.625,2.125
1480687878428757,2.4375,-0.0625,2.125
1480687878451317,3.75,0,2.8125
1480687878466861,4.1875,0.25,3.1875
1480687878487414,4.125,0.4375,2.75
1480687878504974,4,0,0.375
1480687878526517,2.75,-0.3125,-1.625
1480687878548077,0,-0.375,-2.6875
1480687878565125,-3.5625,-0.5,-3.1875
1480687878594701,-6.875,-0.75,-3.625
1480687878608736,-8.5625,-0.9375,-4.6875
1480687878632299,-8.1875,-0.375,-6
1480687878646837,-9.5625,-1.1875,-6.1875
1480687878667893,-9.4375,-2.0625,-6.875
1480687878684439,-8.1875,-2.1875,-7.1875
1480687878707498,-5.0625,-0.1875,-6.8125
1480687878730058,-3.625,1.9375,-4.75
1480687878751617,-3.75,-2.25,-1.25
1480687878781697,-2.5,1.75,-1
1480687878789215,-0.5625,1.6875,0.25
1480687878804256,0.125,-0.375,0.0625
1480687878826817,0.1875,-1.3125,-1.625
1480687878849877,0.3125,-1.5,-1.75
1480687878871935,-1.25,-1.5625,-1.75
1480687878894496,-4,-2.1875,-1.5
1480687878916556,-4.25,-1.8125,-1.75
1480687878940117,-2.625,-0.5625,-2.0625
1480687878963180,-2.875,0.3125,-1.375
1480687878969196,-6.25,-0.5625,-0.4375
1480687878991754,-8.9375,-1.875,-1
1480687879006795,-9.375,-2.75,-2.0625
1480687879028853,-8.9375,-3,-3
1480687879043391,-7.75,-3.0625,-3.375
1480687879080491,-2.9375,-1.1875,-3.875
1480687879089013,0.1875,-0.0625,-1.4375
1480687879103552,1.0625,0.6875,0.125
1480687879128619,3,1.875,0.875
1480687879150677,3.5,3.5,2.4375
1480687879163713,4.1875,4.0625,3.0625
1480687879192789,5.4375,4.1875,3.0625
1480687879209333,7.5,5.5,1.5
1480687879231898,6.9375,6.0625,1.9375
1480687879247435,1.0625,3.75,1.9375
1480687879269493,-4.75,0,0.75
1480687879290047,-6.4375,-2.25,-0.75
1480687879314112,-6.375,-3.1875,-1.75
1480687879335170,-6.375,-2.625,-2.375
1480687879350208,-5.75,-1.4375,-3.1875
1480687879366753,-5.375,-0.875,-2.8125
1480687879389312,-3.375,-0.6875,-2.3125
1480687879410368,-0.4375,-0.375,-1.9375
1480687879426912,0.625,-0.25,-0.5
1480687879449472,-0.625,-0.3125,1.1875
1480687879473038,-1.5625,-1.25,1.5
1480687879486570,-0.9375,-0.75,1.125
1480687879509131,1.0625,0.5625,1
1480687879530187,2.625,1,1.75
1480687879546731,3.8125,1.1875,1.75
1480687879569290,5.1875,1.6875,1.1875
1480687879591850,6,1.4375,0.625
1480687879614414,6.5,1,0.75
1480687879636970,6.9375,1.3125,0.9375
1480687879657525,6.3125,1.125,1.875
1480687879666549,4.5,0.25,2.4375
1480687879689109,4.3125,0.3125,1.75
1480687879717684,3.9375,0.4375,1.375
1480687879727209,2.3125,0.125,1.0625
1480687879749270,1.375,0.4375,0
1480687879773834,1.4375,1.125,-0.75
1480687879786367,1.125,1.5,-0.5
1480687879815445,1.125,1.3125,0
1480687879839007,1.625,0.75,-0.375
1480687879854047,2.6875,1.25,-0.375
1480687879870092,2.25,1,-0.1875
1480687879891648,0,0.25,-1
1480687879906186,-2.6875,-0.75,-1.625
1480687879929247,-5.375,-1.3125,-2.125
1480687879952308,-7.1875,-1.3125,-2.1875
1480687879981888,-7.5625,-0.0625,-1.25
1480687879996928,-6.5625,0,-0.8125
1480687880042047,-3.3125,0.8125,-0.75
1480687880044554,0,1.4375,0.625
1480687880057589,2.0625,1.25,1
1480687880094689,2.0625,0.5625,0.625
1480687880097194,0.625,-0.1875,0.5
1480687880110730,-1.125,-0.75,0.125
1480687880162868,-1.625,-0.875,-0.125
1480687880165375,-1.5,-0.75,0.1875
1480687880178912,-1.125,-0.875,0.5
1480687880191960,-0.25,-1.5,0.6875
1480687880214005,1.5,-1.875,1.0625
1480687880229045,3,-2.625,1.6875
1480687880260629,5.5,-1.3125,1.375
1480687880272661,3,-0.625,2.5
1480687880304245,-0.6875,-1.125,2.5
1480687880325802,-1.0625,-1,0.0625
1480687880335828,-1.5625,-0.4375,0.375
1480687880372927,-2.5,-0.6875,0.375
1480687880385961,-2.1875,-0.75,-0.3125
1480687880392980,-3,-0.0625,-0.375
1480687880416543,-4.6875,-0.0625,-0.1875
1480687880431583,-5,-0.3125,-0.8125
1480687880456649,-3.9375,-0.0625,-1.25
1480687880469684,-3.375,0.0625,-1.125
1480687880491743,-2.875,0.1875,-1.3125
1480687880514304,-3,0.4375,-1.0625
1480687880529845,-3.6875,0.8125,-0.625
1480687880559423,-4.875,1.125,-0.8125
1480687880580480,-6.5625,1.25,-1.1875
1480687880589505,-8.375,1.4375,-1.8125
1480687880611562,-10.25,1.375,-2.3125
1480687880658186,-6.9375,3.1875,-10.3125
1480687880664707,-10.1875,5.125,-3.0625
1480687880671722,-11.5625,3.1875,-2.875
1480687880700298,-9.5,4.5625,-2.3125
1480687880716842,-10,2.875,-1.75
1480687880739402,-8.6875,2.25,-2.1875
1480687880754943,-4.0625,3.125,-3.125
1480687880768479,-3.0625,1.75,0.125
1480687880792042,-0.5625,1.0625,1.25
1480687880814101,1.875,1.125,1.75
1480687880836660,3.0625,1.375,1.6875
1480687880851700,2.5,1.5,1.6875
1480687880874261,1.125,1.4375,1.25
1480687880888799,0.0625,1.25,0.625
1480687880911859,0.125,1.0625,0.5
1480687880935424,0.5,1.125,0.375
1480687880970015,0.25,1.25,-0.125
1480687880980544,-1.3125,0.875,-0.75
1480687880994581,-3.6875,0.0625,-1.4375
1480687881008618,-4.75,0.375,-2.375
1480687881039198,-5.625,1.0625,-3.0625
1480687881054239,-4.1875,1.4375,-9.8125
1480687881068778,-6.4375,1.4375,-2.9375
1480687881091838,-4.25,1.625,-2.8125
1480687881115403,-1.875,2,-9.3125
1480687881135457,-3.625,1.875,-4.625
1480687881166539,-4.125,1.875,-5.5625
1480687881174057,-0.125,6.375,-3.875
1480687881195113,-2,5.375,-2.0625
1480687881217673,-6.125,1.875,-0.625
1480687881236725,-2.75,0.125,-2.625
1480687881263295,0.8125,1.5,-2.5
1480687881273322,0,1,0.0625
1480687881294377,-0.75,0.5,1.125
1480687881325460,0.1875,0.6875,0.0625
1480687881331978,-0.75,0.5625,-0.3125
1480687881354036,-1.9375,0.5625,-0.625
1480687881375092,-3.1875,0.75,-0.4375
1480687881391636,-4.9375,0.4375,0.0625
1480687881414201,-3.0625,-0.875,0
1480687881459817,1.1875,-0.375,-0.5625
1480687881462324,3.125,0.625,-0.375
1480687881482377,0.1875,-0.6875,-0.3125
1480687881494910,0.75,-2.0625,-0.8125
1480687881511455,4.25,-0.875,-0.75
1480687881534517,4.625,0.9375,-0.1875
1480687881555070,0.3125,0.875,0.875
1480687881572116,-4.25,0.6875,-0.25
1480687881594175,-6.6875,0,-0.875
1480687881622750,-3.6875,-1,-0.375
1480687881632778,0.6875,-0.75,0.875
1480687881654335,5.9375,-0.3125,0.875
1480687881676895,6.625,0.3125,2.4375
1480687881691433,6.25,0.4375,2.6875
1480687881714497,4.8125,0.3125,2.375
1480687881736554,3.4375,-0.5625,1.25
1480687881765130,2.25,-0.0625,0.3125
1480687881774154,1.1875,-0.125,0.375
1480687881797216,2,0.1875,0.125
1480687881811252,-0.75,0.3125,0.125
1480687881834314,-0.6875,0,0.1875
1480687881856874,-0.0625,-0.1875,-0.3125
1480687881870911,0.1875,0,-1
1480687881894473,0.625,-0.125,-0.75
1480687881917033,-1.0625,-0.25,0
1480687881939091,-0.75,-0.8125,-0.125
1480687881961653,0.0625,0,-0.25
1480687881982708,0.5625,0,0
1480687882057408,0,-0.375,0.125
1480687882068938,-0.25,-0.25,-0.125
1480687882084478,0.875,-0.3125,0.6875
1480687882096512,2.6875,-0.25,1.5
1480687882117567,6.25,0.3125,4.5625
1480687882134111,3.125,-0.0625,0.75
1480687882156670,1.0625,-0.375,0.4375
1480687882177726,0.9375,-0.1875,0.4375
1480687882195273,-0.125,-0.6875,0.0625
1480687882216833,0.8125,-0.625,0.6875
1480687882245406,2.5,-0.5,1.875
1480687882269471,1.5625,-0.625,0.8125
1480687882301556,1.875,-0.875,1.8125
1480687882305065,2.5625,-0.6875,1.5
1480687882322111,2.3125,-0.125,1.1875
1480687882344169,1.4375,-0.25,0.8125
1480687882357705,0.4375,-0.375,0.5625
1480687882374249,0.5625,-0.375,0.1875
1480687882396810,0.875,-0.25,0.5
1480687882417865,1.125,-0.4375,0.3125
1480687882434411,1.125,-0.4375,0.625
1480687882456467,1.6875,-0.125,0.6875
1480687882479028,1.4375,0.0625,0.5
1480687882494068,1.0625,-0.3125,0.4375
1480687882524148,1.9375,-0.1875,0.4375
1480687882569769,1.75,-0.125,0.625
1480687882572276,1.125,-0.0625,0.4375
1480687882578292,0.5625,-0.3125,0.4375
1480687882605364,1.25,-0.125,0.375
1480687882621907,1.375,0,0.1875
1480687882637951,1.5,-0.1875,0.25
1480687882661513,1.625,-0.1875,0.5
1480687882673545,1.0625,0,0.5625
1480687882696607,0.75,-0.125,0.1875
1480687882719166,0.375,-0.1875,0.1875
1480687882734709,1,-0.0625,0.1875
1480687882756767,0.5625,-0.0625,0.5
1480687882779326,0.375,-0.1875,0.1875
1480687882802890,0.8125,-0.1875,0.1875
1480687882822441,0.875,0.0625,0.5625
1480687882840489,0.3125,-0.125,0.1875
1480687882867561,0.375,-0.4375,0.25
1480687882884105,1.4375,-0.1875,0.375
1480687882899147,1.5625,-0.0625,0.5625
1480687882913683,1.25,0.1875,0.3125
1480687882936745,0.4375,0.125,0.3125
1480687882960307,-0.1875,-0.25,0.25
1480687882987880,0.4375,-0.25,0.375
1480687883003923,0.8125,-0.0625,0.375
1480687883026483,0.3125,-0.4375,0.1875
1480687883040019,0.4375,-0.4375,0.125
1480687883056564,0.5625,0.0625,0.1875
1480687883079124,-0.5,-0.0625,-0.1875
1480687883132264,-1,-0.5,-0.375
1480687883134772,-0.1875,-0.25,-0.0625
1480687883141289,0.75,-0.25,0.375
1480687883161342,0.8125,0.0625,0.125
1480687883184404,0.125,-0.0625,-0.25
1480687883199444,-0.0625,-0.5625,-0.0625
1480687883220499,1.1875,0,0.0625
1480687883236542,1.125,0,0.0625
1480687883259102,-0.125,-0.375,0.25
1480687883281662,-0.1875,-0.4375,-0.0625
1480687883304222,-0.125,-0.4375,-0.1875
1480687883319262,0.6875,-0.75,-0.375
1480687883340318,0.9375,-0.5,0.1875
1480687883356863,0.9375,-0.4375,0.1875
1480687883393459,-0.3125,0.125,-0.25
1480687883400478,-0.5,0.3125,-0.5
1480687883423539,-1.25,-0.125,-0.375
1480687883440083,-0.5625,-0.4375,-0.5
1480687883460137,1.1875,-0.125,-0.3125
1480687883476681,0.625,-0.3125,-0.3125
1480687883499241,-0.125,-1.375,-0.625
1480687883521801,1.0625,-0.625,-0.6875
1480687883536841,0.5,-0.0625,-0.125
1480687883566921,-0.8125,-0.375,-0.25
1480687883590484,0.25,0.0625,-0.5
1480687883610037,0,0.4375,-0.0625
1480687883619059,-1.375,-0.25,-0.5625
1480687883649140,-1.125,-0.1875,-1
1480687883656157,-0.6875,0.3125,-0.8125
1480687883679221,-0.4375,-0.375,-0.8125
1480687883703283,0.375,-0.375,-1.0625
1480687883715819,1.625,-0.4375,-0.8125
1480687883752915,2.25,-0.4375,-0.625
1480687883761438,2.875,-0.75,-1.125
1480687883777480,2.625,-1.125,-1.9375
1480687883800542,2,-1.3125,-2.125
1480687883821598,2,-0.25,-2.375
1480687883844157,1.75,-2.125,-1.375
1480687883866718,8.375,-7.25,0.0625
1480687883888276,21,-8.1875,1.875
1480687883911336,31.25,-1.5,5.625
1480687883921363,20.25,2.5625,6
1480687883941918,1.9375,1.25,1.9375
1480687883962974,-8.9375,-0.375,0.125
1480687883979519,-11.75,0.9375,-1.0625
1480687884009096,-11.4375,0.75,-2.1875
1480687884022632,-9.125,0.625,-2.875
1480687884054217,-6.625,0.75,-2.9375
1480687884062238,-4.875,1.25,-2.6875
1480687884099839,-4.6875,1.6875,-1.6875
1480687884102344,-5.625,2,-1.0625
1480687884121395,-7.375,1.5625,-0.5
1480687884145960,-7.0625,0.5625,-0.5
1480687884165011,-4.8125,0.625,-0.75
1480687884189075,-3.3125,0.6875,-0.875
1480687884203614,-2.4375,0.5625,-0.625
1480687884219155,-1.6875,0.5,-0.6875
1480687884242718,-2.1875,0.625,-0.5625
1480687884263780,-3.4375,0.3125,-0.5
1480687884280819,-3.75,0.5625,-0.5625
1480687884301875,-3.9375,0.375,-0.4375
1480687884322931,-3.9375,0.25,-0.125
1480687884338974,-2.8125,0.0625,0.0625
1480687884377576,-1.1875,0.0625,0.1875
1480687884382592,-1.0625,0.1875,0
1480687884401641,-1.125,0.25,-0.25
1480687884421694,-1.625,0.125,0.125
1480687884444253,-2.1875,0.5,0.25
1480687884460295,-2,1.4375,0.3125
1480687884482356,-1.5,1.8125,0.1875
1480687884504914,-2.6875,1.5625,-0.0625
1480687884528478,-5.25,1.375,-1.625
1480687884549032,-6.1875,2.6875,-2
1480687884564574,-6.375,2.75,-2.1875
1480687884580115,-6.1875,2,-2.8125
1480687884601672,-4.75,2,-2.25
1480687884624232,-3.5625,2.625,-2.375
1480687884654313,-0.3125,4.625,-6.75
1480687884668351,-2.375,2.375,-1.125
1480687884700436,-3.0625,2.5625,-0.625
1480687884705448,-4.3125,2.5,-1.8125
1480687884722995,-3.6875,2.5,-1.0625
1480687884744051,-2.5625,3.75,-0.6875
1480687884758589,-3.25,2.5,-1.6875
1480687884781651,-3.25,1.6875,-1.75
1480687884804211,-1.4375,2.25,-1.125
1480687884828276,-0.875,2.9375,0.0625
1480687884849831,-1.0625,2.75,0.125
1480687884864370,-2.0625,1.3125,-0.1875
1480687884887433,-1.4375,0.3125,-1.125
1480687884908990,-0.375,0.625,-0.9375
1480687884932052,-0.9375,1.375,-0.875
1480687884953106,-1.5,0.5625,-0.8125
1480687884980683,-1.6875,-0.1875,-1.3125
1480687884984190,-4.75,-0.9375,-3.875
1480687885005245,-2.375,-0.9375,-1.875
1480687885021288,-1.125,0.3125,0.125
1480687885044349,-3.25,0.375,2.625
1480687885067912,-2.5625,-0.8125,1.8125
1480687885081949,0.375,-0.6875,1
1480687885104509,3,-0.8125,0.75
1480687885135595,3.5,-1,-0.125
1480687885142109,2.125,-1,0.1875
1480687885164670,0.6875,-0.875,0.8125
1480687885188233,-0.0625,-0.625,-0.3125
1480687885201266,-0.5625,-0.3125,-0.75
1480687885232349,-0.6875,-0.4375,0.0625
1480687885252903,0.125,-0.4375,0.5625
1480687885261927,0.625,0.125,0.0625
1480687885283987,-0.375,0.0625,-0.3125
1480687885305043,-1.5,-0.4375,-0.0625
1480687885321587,-0.9375,-0.625,0
1480687885344147,-0.1875,-0.125,-0.125
1480687885365203,-0.9375,-0.5,-0.25
1480687885381246,-1.3125,-1.125,-0.25
1480687885410322,-0.6875,-0.5625,-0.25
1480687885432882,-1.4375,-0.5625,-0.0625
1480687885442408,-1.5,-0.5625,0
1480687885464466,-0.9375,-0.375,0.125
1480687885492542,-0.6875,-0.375,-0.1875
1480687885509085,-0.75,-0.5,-0.375
1480687885531645,-1.6875,-0.125,0
1480687885547190,-2.4375,-0.625,-0.125
1480687885569246,-1.75,-0.9375,-0.4375
1480687885584285,-0.5,-0.1875,-0.375
1480687885606845,-1.25,-0.4375,-0.375
1480687885620882,-1.1875,-0.6875,-0.5
1480687885643943,-1.25,-0.375,-0.3125
1480687885674024,-1.25,0.125,-0.3125
1480687885695080,-2.25,-0.1875,-0.3125
1480687885704104,-2.75,-0.625,-0.5625
1480687885743709,-1.6875,-0.0625,-0.875
1480687885755240,-1.6875,-0.125,-0.5
1480687885764766,-1.625,0,-0.5
1480687885786823,-1.125,0.0625,-0.25
1480687885802366,-0.875,0.0625,0.0625
1480687885824424,-0.875,-0.0625,-0.0625
1480687885846987,-0.75,-0.0625,0.1875
1480687885867538,-0.4375,-0.125,0.375
1480687885884082,-0.1875,0.0625,0.0625
1480687885914162,-0.6875,0.0625,-0.0625
1480687885935218,-1.0625,-0.5625,-0.1875
1480687885959283,-0.125,-0.75,-0.0625
1480687885966803,1.125,-0.8125,0.125
1480687885988861,1.9375,-0.6875,0.25
1480687886019443,1.5,-1,0.25
1480687886027464,1,-1.1875,0
1480687886063560,1.375,-1.375,1.1875
1480687886088125,2.5,-1.375,0.125
1480687886092636,2.875,-0.8125,0.875
1480687886107676,2.6875,-0.75,0.875
1480687886124221,2.1875,-0.5,0.875
1480687886146784,2.0625,-0.25,0.6875
1480687886167837,1.625,0.125,0.625
1480687886191904,1.0625,0.125,0.125
1480687886230005,0.5,0.1875,-0.1875
1480687886232010,0.0625,0.125,0
1480687886253063,-0.0625,0.0625,-0.3125
1480687886268103,-0.1875,-0.1875,-0.375
1480687886295175,-0.3125,-0.1875,-0.4375
1480687886304200,-0.25,-0.1875,-0.25
1480687886326760,-0.0625,-0.125,-0.25
1480687886349319,0.25,0,-0.0625
1480687886364359,-0.125,-0.25,0
1480687886386919,-0.0625,-0.25,-0.0625
1480687886408978,0.5,-0.1875,-0.25
1480687886424024,0.375,-0.375,0
1480687886446586,0.125,-0.4375,-0.1875
1480687886476663,0.375,-0.375,-0.1875
1480687886508248,0.25,-0.4375,-0.125
1480687886529810,0.25,-0.4375,-0.4375
1480687886532312,0.1875,-0.4375,-0.4375
1480687886544845,0,-0.25,-0.5
1480687886575928,-0.4375,-0.125,-0.5
1480687886589463,-0.0625,-0.3125,0
1480687886610017,0.125,-0.125,0.0625
1480687886634082,0,-0.1875,0.375
1480687886655138,0.3125,-0.5,0.75
1480687886670178,1.5,-0.6875,0.6875
1480687886686722,1.125,-1.125,-0.1875
1480687886708780,1.5625,-0.875,0.75
1480687886724823,1.875,-0.8125,0.875
1480687886746883,1.8125,-0.6875,0.25
1480687886769442,1.5625,-0.875,0.25
1480687886783482,3.625,-2.25,0.5625
1480687886806540,7.3125,-1.8125,-0.0625
1480687886829100,6.3125,-0.25,0
1480687886850156,3,-0.3125,2.1875
1480687886866702,1.5,-0.375,2.25
1480687886889261,1.125,0.0625,0.5625
1480687886910316,1.125,-0.25,0
1480687886934380,0.6875,-0.4375,-0.375
1480687886949420,0.375,-0.4375,-0.125
1480687886970476,0.25,-0.5625,-0.5
1480687886992534,0.625,-0.125,0
1480687887022615,0.875,0,-0.0625
1480687887084780,0.6875,-0.125,-0.125
1480687887087287,0.375,-0.375,0.125
1480687887101325,1,-0.5625,0.625
1480687887102327,1.25,-0.125,-0.125
1480687887108343,1.0625,0,0.375
1480687887129399,0.9375,-0.0625,0.3125
1480687887150957,1.125,-0.0625,0.4375
1480687887172513,1.1875,0.0625,0.375
1480687887189058,0.25,-0.1875,0.0625
1480687887217634,-0.125,-0.3125,-0.0625
1480687887227661,-0.125,-0.125,-0.0625
1480687887249720,0.1875,0,0.125
1480687887271778,0.5625,0,-0.1875
1480687887286819,0.625,-0.0625,-0.0625
1480687887316898,0.5,0.0625,0.5
1480687887331939,0.875,-0.0625,0.625
1480687887360514,0.6875,-0.0625,0.5
1480687887375053,0.4375,-0.0625,0.375
1480687887394102,0.3125,-0.25,0.25
1480687887406636,0.3125,-0.25,0.0625
1480687887429197,0.125,-0.25,0
1480687887451757,-0.3125,-0.3125,-0.125
1480687887472812,-0.1875,-0.25,-0.0625
1480687887489356,0.6875,-0.125,-0.0625
1480687887511917,0.75,0.0625,-0.0625
1480687887532973,0.5,0.1875,0.1875
1480687887549524,0.125,0,0.1875
1480687887577591,0.5,-0.0625,0
1480687887586114,0.5,0,-0.125
1480687887609175,-0.3125,0,-0.25
1480687887632237,-0.9375,-0.375,-0.1875
1480687887646278,-0.375,-0.125,-0.25
1480687887682871,0.1875,0,-0.1875
1480687887697912,0.1875,-0.0625,-0.125
1480687887705934,-0.125,0,-0.1875
1480687887730000,-0.25,0.125,-0.1875
1480687887752556,-0.4375,0,0.3125
1480687887773111,-0.5625,0,0.4375
1480687887789153,0.125,0,0.375
1480687887819735,0.6875,0.0625,0.3125
1480687887832770,0.5625,0.0625,0.0625
1480687887850316,0.3125,-0.125,0.0625
1480687887871874,-0.25,-0.0625,0.3125
1480687887892930,-0.1875,0.0625,0.375
1480687887909974,0.0625,-0.1875,0.3125
1480687887939555,0.25,-0.125,0.4375
1480687887953089,0.375,-0.0625,0.5625
1480687887969133,-0.0625,-0.125,0.625
1480687888005730,-0.125,-0.25,0.4375
1480687888020769,-0.25,-0.25,0.375
1480687888029295,-0.625,-0.375,0.3125
1480687888051852,-0.75,-0.375,0.1875
1480687888074413,-0.6875,-0.1875,0.0625
1480687888088951,-0.6875,-0.375,-0.0625
1480687888118029,-0.6875,-0.3125,-0.0625
1480687888134070,-0.75,-0.25,0.125
1480687888149613,-0.5625,-0.1875,0.0625
1480687888162146,-0.1875,-0.0625,0.0625
1480687888177186,-0.25,0.0625,0
1480687888207265,0.0625,-0.0625,0.125
1480687888217292,-0.1875,0.0625,0
1480687888261911,-0.375,0.0625,-0.1875
1480687888270433,-0.3125,-0.125,-0.25
1480687888274445,-0.125,0,-0.0625
1480687888304526,0.0625,0,0.0625
1480687888323574,-0.0625,0,-0.125
1480687888334604,0.1875,0,-0.3125
1480687888357165,0.1875,0.125,0
1480687888404289,0.25,-0.125,0.0625
1480687888413815,1,0.0625,0.125
1480687888418327,0.9375,0.1875,0.25
1480687888439383,-0.0625,0.1875,0.125
1480687888463446,-0.375,-0.125,-0.1875
1480687888476982,-0.125,-0.0625,0.125
1480687888507564,0.125,0.0625,-0.0625
1480687888516087,0.0625,-0.0625,-0.125
1480687888537142,0.125,-0.0625,0.0625
1480687888559703,-0.125,0,0.125
1480687888582263,-0.1875,-0.1875,0.125
1480687888597302,-0.1875,-0.5,0.25
1480687888627894,-0.0625,-0.1875,0.1875
1480687888635906,-0.75,-0.625,-0.0625
1480687888667490,-1.1875,-0.375,-0.125
1480687888696576,-0.6875,-0.375,-0.0625
1480687888699073,-0.125,-0.3125,-0.0625
1480687888717121,0.125,-0.125,0.0625
1480687888751212,-0.0625,-0.0625,0.125
1480687888757729,-0.0625,0.0625,0.1875
1480687888777281,0.125,0,0.125
1480687888799339,0.125,-0.0625,0.125
1480687888815884,0.125,-0.0625,-0.125
1480687888839948,0.1875,-0.125,0
1480687888863012,0.125,-0.0625,-0.0625
1480687888876047,-0.25,-0.125,-0.125
1480687888900108,-0.375,-0.125,-0.125
1480687888922668,-0.1875,-0.125,0
1480687888944225,-0.0625,-0.0625,-0.125
1480687888964787,0.4375,-0.0625,-0.1875
1480687888979823,-0.5,-0.1875,0.25
1480687888995864,-0.5,-0.1875,0.25
1480687889025943,0.375,-0.0625,0.25
1480687889056524,0.25,0.125,0.375
1480687889059030,-0.375,-0.125,0
1480687889077078,-0.5,-0.25,0
1480687889102646,-0.5,-0.125,0.0625
1480687889117685,-0.0625,0,-0.1875
1480687889137239,-0.1875,-0.25,-0.125
1480687889159297,-0.125,-0.1875,0.0625
1480687889183360,-0.0625,-0.0625,0.4375
1480687889198402,-0.1875,-0.125,0.5
1480687889227479,-0.5625,-0.125,0.1875
1480687889245026,-0.6875,-0.25,0.1875
1480687889257056,-0.0625,-0.125,0.125
1480687889300172,0.125,-0.375,0.3125
1480687889303681,1.125,-0.0625,0.4375
1480687889317216,0.875,0,0.5
1480687889339778,0,-0.1875,0.8125
1480687889363342,-0.1875,-0.3125,0.3125
1480687889384395,-1,-0.1875,-0.1875
1480687889406955,-1.25,-0.4375,-0.0625
1480687889439041,-0.625,-0.25,0
1480687889441547,0.1875,0,0.0625
1480687889462608,0.0625,-0.0625,-0.0625
1480687889493686,-0.6875,-0.0625,0
1480687889504716,-0.75,-0.25,0.0625
1480687889519755,0.125,-0.125,-0.0625
1480687889543318,0.125,-0.0625,-0.25
1480687889558358,-0.25,-0.0625,-0.375
1480687889580418,-0.4375,-0.125,0
1480687889603478,0,-0.125,0.25
1480687889617014,0.25,0.125,-0.0625
1480687889651605,0.1875,0.125,-0.0625
1480687889665143,-0.4375,-0.0625,0.125
1480687889684694,-0.3125,-0.125,-0.1875
1480687889715777,-0.0625,0.0625,-0.25
1480687889722294,-0.1875,0.0625,0
1480687889739840,-0.125,-0.0625,0.0625
1480687889771926,0.3125,0.0625,0.125
1480687889783456,0.5625,0.1875,0.125
1480687889798497,0,0.0625,0.25
1480687889819553,0,-0.125,0.375
1480687889850134,0.125,-0.125,0.1875
1480687889858657,-0.0625,-0.125,-0.125
1480687889881217,-0.5,-0.1875,-0.125
1480687889905782,-0.625,-0.1875,0.125
1480687889925838,-0.25,-0.125,0.125
1480687889955916,0.1875,0,-0.0625
1480687889970956,0.125,0,0.1875
1480687889996524,-0.25,-0.125,0.1875
1480687890001035,-0.125,-0.125,0.0625
1480687890022091,-0.25,0,0
1480687890038636,-0.25,0.0625,-0.125
1480687890059691,-0.25,-0.0625,0
1480687890082251,0.0625,0,0
1480687890104812,0.375,0.0625,0
1480687890120854,0.25,0.1875,0.0625
1480687890141911,-0.0625,0.25,0.0625
1480687890161963,-0.5625,0,0.125
1480687890183019,-1.0625,-0.25,-0.0625
1480687890203573,-1.375,-0.1875,-0.375
1480687890220118,-1.8125,-0.3125,-0.375
1480687890239670,-2.375,-0.5625,-0.6875
1480687890263734,-1.625,-0.625,-0.6875
1480687890293312,-0.625,-0.5,0.125
1480687890299829,-0.875,-0.375,0.0625
1480687890321888,-1.4375,-0.4375,-0.125
1480687890347958,-0.9375,-0.25,0
1480687890359489,-0.1875,-0.0625,0.0625
1480687890399596,0.625,0.25,0
1480687890404608,1.0625,0.3125,0.1875
1480687890427168,0.9375,0.125,0.375
1480687890442209,0.625,0,0.5625
1480687890460257,0.3125,0,0.6875
1480687890480811,0.125,0,0.4375
1480687890501867,0.375,0.0625,0.1875
1480687890548993,0.375,0.375,0.375
1480687890551499,0.25,0.25,-0.125
1480687890565035,-0.625,-0.125,-0.1875
1480687890584587,0.375,-0.375,0.5
1480687890599628,0.6875,0,0.25
1480687890622186,-0.4375,-0.125,0.375
1480687890647755,-0.625,-0.25,0.25
1480687890660288,-0.5,-0.0625,-0.1875
1480687890692374,-0.5,-0.3125,-0.125
1480687890713431,0,-0.25,-0.125
1480687890719446,-0.4375,-0.1875,-0.0625
1480687890758549,-1,-0.3125,-0.1875
1480687890765569,-1,-0.25,-0.25
1480687890782613,-0.625,-0.3125,-0.125
1480687890802165,-0.25,-0.25,-0.0625
1480687890824725,-0.75,-0.3125,0.0625
1480687890841270,-1.125,-0.375,-0.1875
1480687890869845,-0.875,-0.25,-0.4375
1480687890892908,-1,-0.3125,-0.0625
1480687890900928,-1.1875,-0.4375,-0.0625
1480687890922485,-0.75,-0.4375,-0.3125
1480687890944546,-0.25,-0.25,-0.125
1480687890962598,-1,-0.3125,-0.4375
1480687890985152,-1.5,-0.5,-0.375
1480687891012727,-1.25,-0.5,-0.125
1480687891035787,-0.6875,-0.25,-0.4375
1480687891044812,-0.5,-0.1875,-0.4375
1480687891071882,-0.6875,-0.25,-0.375
1480687891082411,-0.5625,-0.125,-0.125
1480687891104971,-0.625,0,0.1875
1480687891124523,-0.25,-0.0625,0
1480687891148593,0,0,0
1480687891178167,0.0625,0,-0.125
1480687891192202,-0.3125,-0.0625,-0.0625
1480687891202230,-0.9375,-0.1875,-0.25
1480687891222283,-1,-0.1875,-0.1875
1480687891245848,-0.3125,-0.125,-0.125
1480687891262394,-0.1875,-0.125,-0.0625
1480687891281941,-0.25,-0.0625,0.0625
1480687891304502,0.0625,-0.0625,-0.0625
1480687891330069,0.25,0.125,-0.0625
1480687891342101,0.4375,0.125,0.0625
1480687891364662,0.3125,0.0625,0
1480687891382709,0.125,0,0.1875
1480687891402261,0.1875,0.125,0.3125
1480687891441366,0.25,0,0.25
1480687891446880,-0.125,0.125,0
1480687891472950,-0.0625,-0.0625,-0.1875
1480687891495009,-0.3125,-0.0625,-0.0625
1480687891503029,-0.5625,-0.125,-0.3125
1480687891523584,-0.1875,-0.0625,-0.3125
1480687891544640,-0.25,-0.125,0.1875
1480687891562704,-0.125,-0.125,0.125
1480687891582741,0.625,0.125,0.125
1480687891604300,0.125,0.125,0.375
1480687891622346,-0.375,0,0
1480687891641898,-0.4375,-0.125,-0.1875
1480687891665963,-0.3125,0,-0.125
1480687891682506,-0.25,-0.0625,-0.25
1480687891709578,-0.3125,-0.0625,-0.125
1480687891757210,-0.125,0.125,0.125
1480687891759712,-0.1875,0.0625,0.25
1480687891772246,-0.125,0,0.1875
1480687891784781,-0.0625,-0.125,-0.0625
1480687891802325,-0.3125,-0.1875,-0.125
1480687891824385,-0.1875,0,-0.1875
1480687891844442,-0.25,-0.0625,0.125
1480687891862487,-0.1875,-0.0625,-0.0625
1480687891883541,-0.1875,-0.125,-0.0625
1480687891904597,-0.0625,0,-0.125
1480687891932672,-0.0625,-0.1875,0
1480687891943701,0.0625,0.0625,0
1480687891964758,-0.0625,0.125,0
1480687892006368,-0.0625,0.0625,0.0625
1480687892017399,0.1875,0,0.125
1480687892039959,0.125,0,0.0625
1480687892065025,0,-0.0625,-0.0625
1480687892068032,-0.625,-0.0625,-0.0625
1480687892084576,-0.75,-0.125,-0.125
1480687892103626,-0.5,0.0625,-0.125
1480687892125184,0,0.0625,0.0625
1480687892144736,0.1875,0.1875,0.25
1480687892166794,-0.1875,-0.0625,0.125
1480687892184841,-0.4375,-0.1875,-0.25
1480687892205898,-0.375,-0.0625,-0.125
1480687892226954,-0.6875,-0.1875,0.0625
1480687892282101,-0.5,-0.3125,-0.0625
1480687892285611,0.125,0,-0.0625
1480687892313184,0,0.0625,0.1875
1480687892317695,-0.6875,-0.25,-0.0625
1480687892347275,-0.3125,-0.0625,0.0625
1480687892357301,0.0625,0.125,0.0625
1480687892364821,0.25,0.0625,-0.125
1480687892384372,-0.0625,0,0
1480687892406933,-0.0625,0.0625,0.25
1480687892429493,0.3125,0.125,0.3125
1480687892452052,0.25,0.125,0.25
1480687892467094,-0.0625,-0.125,0.0625
1480687892491158,-0.5625,-0.1875,-0.125
1480687892507700,-0.5,-0.1875,-0.25
1480687892534773,-0.5,-0.0625,-0.0625
1480687892544800,-0.25,-0.0625,-0.125
1480687892605461,0.0625,0,0.125
1480687892610474,0.1875,0.0625,0.25
1480687892643562,-0.4375,-0.0625,0
1480687892648575,-0.625,-0.1875,-0.0625
1480687892665120,-0.8125,-0.25,-0.375
1480687892686177,-1.25,-0.3125,-0.5625
1480687892707231,-0.9375,-0.25,-0.5
1480687892724778,-0.5625,-0.1875,-0.4375
1480687892748341,-0.5,0,-0.25
1480687892766890,-0.625,0,-0.0625
1480687892784937,-0.375,0.0625,0.125
1480687892821536,0.25,0.1875,0.125
1480687892834570,0.625,0.125,0.0625
1480687892846101,0.375,0.0625,0.125
1480687892913281,-0.125,-0.0625,0.1875
1480687892928823,-0.3125,0.125,0
1480687892934837,-0.8125,-0.4375,-0.5
1480687892963914,-0.3125,-0.125,-0.5
1480687892966421,-0.125,-0.0625,0.0625
1480687892989482,-0.5,-0.1875,0.125
1480687893014553,-0.25,-0.1875,-0.125
1480687893025077,0.3125,0.125,0.1875
1480687893047636,0.125,-0.0625,0
1480687893067189,-0.3125,-0.0625,-0.25
1480687893097269,-0.4375,0,-0.1875
1480687893130357,-0.5,-0.0625,-0.3125
1480687893134368,-0.8125,-0.125,-0.375
1480687893150911,-0.8125,-0.125,-0.125
1480687893167455,-0.5,-0.0625,0
1480687893187006,-0.4375,0,0
1480687893205056,0,0,0
1480687893227617,0.1875,0,-0.125
1480687893247168,-0.125,-0.125,-0.0625
1480687893269727,-0.3125,-0.125,0
1480687893292287,-0.4375,-0.0625,0
1480687893306825,-0.5,-0.0625,-0.25
1480687893324874,-0.25,-0.0625,-0.125
1480687893359967,-0.0625,0.0625,0.1875
1480687893369994,0.125,-0.125,0.125
1480687893413108,0.0625,-0.125,-0.1875
1480687893423636,0,-0.0625,-0.1875
1480687893428651,0.125,-0.0625,-0.0625
1480687893445699,-0.0625,-0.1875,-0.0625
1480687893467252,-0.1875,-0.0625,-0.125
1480687893486805,-0.1875,0.0625,-0.125
1480687893504852,-0.375,0,-0.0625
1480687893534932,0.0625,-0.0625,-0.1875
1480687893548468,0.1875,-0.0625,0
1480687893577046,0,-0.1875,-0.0625
1480687893601610,-0.1875,-0.1875,-0.1875
1480687893609130,-0.3125,-0.125,-0.1875
1480687893629684,-0.4375,-0.125,-0.0625
1480687893647232,-0.375,-0.0625,0.0625
1480687893699371,-0.25,-0.125,0.0625
1480687893701375,-0.125,-0.0625,-0.0625
1480687893707391,0.3125,0.125,0
1480687893728448,0.125,0.0625,0.4375
1480687893749506,-0.0625,-0.0625,0.25
1480687893769056,0.5625,0.0625,0.1875
1480687893788607,0.5625,0.1875,0.375
1480687893809663,-0.125,-0.125,-0.125
1480687893839743,-0.4375,-0.125,-0.125
1480687893854783,-0.3125,-0.0625,-0.125
1480687893876842,-0.4375,-0.0625,-0.1875
1480687893887369,-0.3125,-0.125,0
1480687893908425,0,0.0625,0.125
1480687893932494,0,0,0.1875
1480687893952042,-0.125,-0.0625,0
1480687893971594,0,0,-0.0625
1480687893989641,-0.375,-0.125,-0.0625
1480687894007690,-0.5625,-0.1875,-0.0625
1480687894030250,-0.8125,-0.1875,-0.0625
1480687894049802,-0.25,-0.1875,-0.1875
1480687894067349,0,-0.125,-0.0625
1480687894089909,0.0625,0,0.125
1480687894110965,-0.125,0,0.25
1480687894135029,-0.25,-0.0625,0.0625
1480687894156085,0,0.0625,-0.0625
1480687894178645,0.25,0.125,0
1480687894193684,0.25,0,0
1480687894210228,0.25,0,0
1480687894229782,0.0625,0.0625,-0.125
1480687894247329,-0.375,0,-0.1875
1480687894269888,-0.4375,-0.1875,-0.0625
1480687894289439,-0.1875,-0.0625,-0.125
1480687894307989,0.1875,0,-0.1875
1480687894330047,0.1875,-0.125,0
1480687894349603,-0.0625,-0.0625,0
1480687894367648,-0.1875,-0.0625,0
1480687894390206,-0.125,0.0625,0.0625
1480687894411263,0.1875,0.0625,0.25
1480687894432322,0.1875,0,0.0625
1480687894450368,-0.375,-0.125,-0.25
1480687894469417,-0.25,0,-0.1875
1480687894491978,-0.1875,-0.0625,0.375
1480687894510025,-0.1875,-0.125,0.125
1480687894531082,0.25,-0.0625,0
1480687894547626,0.0625,0.125,0.3125
1480687894573193,-0.125,-0.0625,0.125
1480687894592244,-0.125,-0.0625,-0.125
1480687894607284,-0.3125,0.0625,-0.0625
1480687894667946,-0.25,-0.1875,-0.1875
1480687894690004,-0.125,-0.1875,-0.125
1480687894695018,-0.1875,-0.0625,0.0625
1480687894712564,-0.4375,-0.1875,0
1480687894735124,-0.3125,0,-0.125
1480687894750164,-0.375,-0.1875,-0.1875
1480687894772223,-0.625,-0.1875,-0.0625
1480687894787262,-0.5625,-0.1875,0
1480687894810325,-0.0625,0,-0.0625
1480687894831383,-0.0625,0,0
1480687894853439,0,0,0.0625
1480687894869983,0.375,0.125,0.25
1480687894898561,0.4375,0.0625,0.1875
1480687894912094,0.25,0.125,0
1480687894943678,0.0625,0.125,0.0625
1480687894957215,-0.0625,0,0.0625
1480687894972255,0.125,0.125,-0.0625
1480687894990804,0.0625,0.0625,-0.0625
1480687895011860,-0.375,0,-0.0625
1480687895032917,-0.375,0,0
1480687895054974,-0.0625,-0.125,-0.0625
1480687895071519,0.125,0,-0.125
1480687895094079,-0.1875,-0.0625,-0.125
1480687895110122,-0.6875,0,-0.0625
1480687895131680,-0.875,0.25,-0.1875
1480687895152735,-1.1875,0.375,0
1480687895176800,-0.625,-0.0625,-0.4375
1480687895204873,0.375,0.125,-0.375
1480687895222921,1,0.3125,0.5625
1480687895244479,0.25,0.0625,0.4375
1480687895266038,0.25,0.125,0.1875
1480687895272553,0.0625,0,0.625
1480687895289097,0,-0.125,0.25
1480687895311657,0.5,0,0
1480687895332713,0.375,-0.0625,0.125
1480687895350260,-0.75,-0.1875,-0.25
1480687895372318,-0.9375,-0.25,-0.375
1480687895393376,-0.6875,-0.125,-0.25
1480687895409918,-0.1875,-0.0625,-0.0625
1480687895431978,0.125,-0.125,0.0625
1480687895454036,0.25,0,0.125
1480687895469077,-0.0625,-0.0625,0.25
1480687895491635,-0.125,-0.0625,0.125
1480687895514198,-0.0625,0,-0.0625
1480687895535755,-0.375,-0.125,-0.1875
1480687895551796,-0.4375,-0.125,-0.0625
1480687895572852,-0.375,-0.1875,-0.125
1480687895589396,-0.1875,-0.0625,-0.0625
1480687895611956,-0.0625,0,-0.0625
1480687895632510,0,-0.0625,0.125
1480687895649058,-0.125,-0.0625,0.3125
1480687895671614,-0.0625,0.0625,0.125
1480687895709716,0,0.0625,-0.0625
1480687895712223,0.25,0.0625,0
1480687895733780,0.375,0,0.0625
1480687895753332,-0.125,0,0.1875
1480687895770879,-0.3125,-0.0625,-0.0625
1480687895791433,-0.375,-0.1875,-0.3125
1480687895812488,-0.3125,-0.0625,-0.1875
1480687895829033,-0.5,-0.125,-0.0625
1480687895858110,-0.3125,-0.1875,-0.0625
1480687895874655,0.0625,-0.0625,-0.125
1480687895889193,0.0625,0,-0.125
1480687895911754,0,0,0.0625
1480687895934314,0.125,0.125,0.1875
1480687895956371,0.25,0,0.3125
1480687895971913,-0.125,-0.125,0.0625
1480687896017033,-0.25,-0.1875,-0.25
1480687896054633,0.0625,0,0
1480687896057139,-0.1875,-0.125,0.5
1480687896075188,0.625,0.0625,0.0625
1480687896091731,0.4375,0.125,0.375
1480687896114794,-0.1875,-0.0625,0.1875
1480687896129834,-0.3125,0,0
1480687896151893,-0.25,-0.0625,0.0625
1480687896173951,-0.4375,-0.0625,-0.1875
1480687896188488,-0.625,-0.1875,-0.25
1480687896219070,-0.3125,-0.125,0.0625
1480687896241630,-0.125,0,0.1875
1480687896264191,-0.125,-0.125,-0.0625
1480687896285748,-0.4375,-0.1875,-0.1875
1480687896296276,-0.8125,-0.4375,-0.3125
1480687896315330,-1.125,-0.375,-0.4375
1480687896331873,-0.625,-0.1875,-0.1875
1480687896353928,-0.25,-0.1875,0.0625
1480687896374984,0.3125,0,0.0625
1480687896391529,0.4375,0.0625,0.4375
1480687896414089,0.25,0.125,0.375
1480687896435145,0.25,0.1875,0.25
1480687896451688,0.3125,0.0625,0.25
1480687896488787,0.625,0.1875,0.125
1480687896521374,0.4375,0.125,0.25
1480687896533909,0.0625,0,0.1875
1480687896543433,-0.1875,0,0
1480687896562484,-0.375,-0.0625,-0.125
1480687896571507,-0.4375,-0.125,-0.0625
1480687896601086,-0.25,-0.0625,0
1480687896615123,-0.125,0,0.0625
1480687896632169,-0.0625,-0.0625,0
1480687896653726,-0.1875,-0.0625,0
1480687896675284,-0.25,0,-0.0625
1480687896705364,-0.1875,0,-0.125
1480687896713886,-0.4375,-0.125,-0.125
1480687896745972,-0.9375,-0.125,-0.25
1480687896752989,-0.5,-0.1875,-0.375
1480687896774046,-0.0625,0.0625,0
1480687896796609,-0.3125,-0.0625,0.25
1480687896825182,0.125,-0.125,0
1480687896834209,0.6875,0.1875,0.1875
1480687896862781,0.25,0.125,0.0625
1480687896871807,-0.4375,-0.125,-0.1875
1480687896901384,-0.1875,0,-0.0625
1480687896916424,0.25,0.125,-0.0625
1480687896930963,0.25,0.0625,-0.1875
1480687896955027,0.125,0.0625,0.0625
1480687896977587,-0.0625,0.0625,0.375
1480687896991127,0.4375,0.1875,0.25
1480687897022707,0.375,0,0.125
1480687897036243,0.25,0,-0.0625
1480687897050781,-0.5,-0.125,-0.125
1480687897089384,-0.5,-0.1875,0
1480687897096905,-0.1875,-0.0625,-0.0625
1480687897117962,0.0625,0,0.0625
1480687897141523,-0.1875,-0.0625,-0.125
1480687897156563,-0.375,0,0.0625
1480687897177619,-0.4375,-0.0625,0.0625
1480687897194165,-0.375,-0.0625,-0.125
1480687897216723,-0.1875,0,-0.125
1480687897230760,0.0625,0,-0.0625
1480687897261845,0,-0.0625,-0.0625
1480687897282899,-0.1875,-0.125,-0.0625
1480687897297939,-0.25,-0.0625,-0.25
1480687897315487,-0.5,-0.0625,-0.1875
1480687897337544,-0.3125,-0.125,-0.0625
1480687897357598,0.1875,0,-0.0625
1480687897374643,0.1875,0,0
1480687897396702,0.0625,-0.0625,0
1480687897419262,0,-0.125,0.1875
1480687897434303,0.3125,0.0625,0.125
1480687897464382,0.4375,0.1875,0.0625
1480687897478421,0.0625,-0.125,0.125
1480687897493961,0.0625,0,-0.1875
1480687897524040,0.5,0.125,0
1480687897537577,0,0,0.3125
1480687897554622,0,-0.1875,0.0625
1480687897576681,0.5625,0,0.125
1480687897597736,0.375,0.1875,0.125
1480687897621801,0,-0.1875,-0.1875
1480687897637341,-0.375,-0.125,-0.1875
1480687897657897,-0.125,0,-0.0625
1480687897673939,-0.0625,0,-0.125
1480687897696499,-0.0625,-0.0625,0
1480687897720063,0,-0.0625,0.125
1480687897742120,0,-0.0625,0
1480687897765683,-0.3125,-0.25,-0.125
1480687897786738,-0.375,-0.1875,-0.25
1480687897796265,-0.8125,-0.375,-0.25
1480687897846899,-0.4375,-0.3125,-0.25
1480687897854427,-0.1875,-0.1875,-0.125
1480687897856926,-0.0625,-0.1875,0
1480687897883998,0.125,-0.3125,0
1480687897905053,-0.0625,-0.1875,0.0625
1480687897913576,-0.3125,-0.1875,0.0625
1480687897942654,-0.5,-0.1875,-0.0625
1480687897959198,-0.8125,-0.25,0
1480687897974238,-0.25,-0.0625,-0.3125
1480687897999304,-0.1875,-0.1875,-0.0625
1480687898019358,-0.375,-0.3125,0
1480687898033395,-0.9375,-0.375,-0.25
1480687898056957,-1.4375,-0.4375,-0.5625
1480687898079016,-1.5,-0.4375,-0.5625
1480687898094056,-0.75,-0.25,-0.375
1480687898116616,-0.125,-0.0625,-0.1875
1480687898139176,-0.3125,-0.25,-0.375
1480687898153214,-0.6875,-0.3125,-0.6875
1480687898176777,-0.9375,-0.25,-0.3125
1480687898199838,-1.125,-0.3125,-0.25
1480687898227912,-1.125,-0.3125,-0.5
1480687898236937,-0.6875,-0.25,-0.6875
1480687898258994,-0.6875,-0.1875,-0.4375
1480687898287570,-1.0625,-0.375,-0.25
1480687898296595,-0.625,-0.25,-0.375
1480687898319155,-0.625,-0.1875,0
1480687898341213,-0.6875,-0.3125,-0.125
1480687898364275,-0.8125,-0.375,-0.4375
1480687898379314,-1,-0.3125,-0.3125
1480687898400370,-0.875,-0.375,-0.375
1480687898416413,-0.4375,-0.3125,-0.5
1480687898446494,-0.3125,-0.1875,-0.25
1480687898460030,-0.25,-0.25,-0.25
1480687898476575,-0.875,-0.3125,-0.25
1480687898499635,-1.0625,-0.25,-0.25
1480687898520189,-1.1875,-0.4375,-0.3125
1480687898567815,-1.25,-0.375,-0.625
1480687898573832,-1.3125,-0.625,-0.4375
1480687898580349,-1.125,-0.4375,-0.25
1480687898596893,-1.1875,-0.3125,-0.375
1480687898618952,-1.125,-0.3125,-0.3125
1480687898640009,-0.75,-0.25,-0.25
1480687898664072,-0.875,-0.25,-0.25
1480687898679111,-0.75,-0.125,-0.3125
1480687898702675,-0.625,-0.0625,-0.3125
1480687898717213,-0.375,-0.0625,-0.125
1480687898752807,-0.1875,0.0625,-0.125
1480687898761832,-0.0625,0.125,-0.1875
1480687898783890,0.0625,0,0
1480687898798931,0,0.0625,0
1480687898830013,0,-0.0625,-0.25
1480687898845053,-0.125,-0.0625,-0.1875
1480687898860094,0.25,0,-0.0625
1480687898898195,0.375,0.0625,0.125
1480687898902706,0.4375,0.0625,-0.1875
1480687898919250,0.5,0,0.125
1480687898941810,0.0625,0,0.5
1480687898955847,0.5625,-0.0625,0.3125
1480687898978909,0.5625,0.0625,0.4375
1480687899001469,0.25,-0.0625,0.3125
1480687899016008,0.0625,-0.125,0.3125
1480687899040072,0.125,-0.0625,0.1875
1480687899069650,0,0,0.0625
1480687899076168,0.0625,-0.0625,0.0625
1480687899099232,0.3125,0,0.25
1480687899122289,0.25,0.0625,0.375
1480687899150866,0.125,-0.0625,0.25
1480687899159390,-0.125,-0.0625,0.125
1480687899188968,-0.125,-0.1875,-0.125
1480687899202504,-0.125,-0.0625,-0.25
1480687899220050,-0.125,-0.0625,0
1480687899247624,-0.1875,0,0
1480687899262663,-0.375,-0.125,0.0625
1480687899287228,-0.4375,-0.1875,-0.0625
1480687899309288,-0.1875,-0.1875,0
1480687899330845,-0.1875,-0.0625,0.125
1480687899353907,0.3125,0.1875,-0.0625
1480687899361928,0.125,0.125,0.0625
1480687899382482,0.0625,0,0.125
1480687899399027,0.25,0,0.0625
1480687899421586,0.375,0.0625,-0.0625
1480687899442642,0.0625,0.0625,-0.125
1480687899459186,-0.125,0.0625,0.125
1480687899487762,0.25,0.0625,0.1875
1480687899502802,0.5,-0.0625,0.125
1480687899519345,0.125,0,-0.0625
1480687899541405,0.1875,0,-0.1875
1480687899562461,0.0625,0.0625,0.3125
1480687899579005,0.25,0,0.25
1480687899601565,0.875,0.125,0.125
1480687899624125,0.5625,0.125,0.3125
1480687899639164,0.125,0.0625,0.125
1480687899661725,0,0,0
1480687899684786,0,0.0625,0.0625
1480687899706845,-0.125,0.0625,-0.0625
1480687899727901,-0.0625,-0.125,-0.125
1480687899744946,0,-0.0625,0
1480687899774023,0.125,0.0625,0
1480687899782044,0.125,0.0625,0.125
1480687899804605,0,0,0.25
1480687899825160,-0.0625,-0.0625,0.25
1480687899842205,0,-0.0625,-0.0625
1480687899864264,0.125,0.0625,0
1480687899878300,0,-0.0625,0
1480687899902365,-0.125,0,-0.125
1480687899924423,-0.25,-0.0625,0.125
1480687899938461,0.125,0.0625,0.3125
1480687899961522,0.375,0,0.3125
1480687899984081,0.4375,0.125,0.125
1480687900005138,0.5,0.125,0.25
1480687900021181,0.25,0.125,0.1875
1480687900045746,0.3125,0,0.125
1480687900059281,-0.0625,-0.125,-0.0625
1480687900082844,-0.25,-0.0625,-0.1875
1480687900111923,-0.1875,-0.0625,-0.25
1480687900125459,0.125,-0.0625,-0.0625
1480687900141502,0.4375,-0.125,0.125
1480687900178097,0.25,0,-0.0625
1480687900186620,0.375,0.125,0
1480687900202162,0.125,0.0625,0.375
1480687900230738,0.125,0.1875,0.125
1480687900245277,0.75,0.0625,-0.0625
1480687900261822,0.5625,0.1875,0.3125
1480687900283879,0,-0.0625,-0.0625
1480687900319975,-0.0625,-0.125,-0.1875
1480687900332509,-0.1875,0.0625,0.0625
1480687900351559,-0.3125,0,0.0625
1480687900372615,0,-0.125,-0.0625
1480687900383645,0.0625,-0.0625,-0.0625
1480687900404200,0,-0.0625,0.0625
1480687900426759,0,0.0625,0.25
1480687900441298,0,-0.0625,0.1875
1480687900470375,0,-0.0625,0.0625
1480687900486919,-0.1875,-0.1875,0
1480687900507474,-0.1875,-0.125,-0.0625
1480687900531538,-0.3125,-0.1875,-0.125
1480687900545575,-0.1875,-0.125,-0.0625
1480687900561618,-0.125,-0.0625,0.0625
1480687900584678,0,0,0.1875
1480687900613257,0.125,0.0625,0.125
1480687900629299,0,0.0625,0
1480687900657874,0.125,0.1875,0.1875
1480687900675922,0.25,0.125,0.0625
1480687900681436,0.1875,0.125,0
1480687900705500,-0.0625,-0.0625,0
1480687900726557,-0.1875,-0.0625,-0.25
1480687900741095,0,-0.0625,-0.1875
1480687900764157,0.0625,0,0.0625
1480687900786716,0.0625,0.0625,-0.0625
1480687900800754,0,0,0.0625
1480687900824317,0.0625,0,0.125
1480687900847378,-0.125,-0.125,-0.0625
1480687900860917,0.0625,0,-0.25
1480687900889991,-0.125,0.0625,0.1875
1480687900908541,-0.1875,0,0.125
1480687900936615,0.375,0,0.0625
1480687900950151,0.4375,0.125,0.3125
1480687900975719,-0.25,-0.0625,-0.0625
1480687900982737,-0.5625,-0.1875,-0.1875
1480687901010311,-0.375,-0.125,0
1480687901040892,-0.0625,0,-0.125
1480687901056434,0.25,0,0
1480687901078993,0.125,0.0625,0.0625
1480687901115590,0.0625,0,0.1875
1480687901126119,0,-0.0625,0.25
1480687901139153,0.1875,-0.0625,0.1875
1480687901146673,0,-0.0625,0
1480687901167729,-0.4375,-0.1875,-0.125
1480687901184274,-0.0625,-0.1875,-0.0625
1480687901206833,0.0625,0.0625,-0.0625
1480687901229393,0,-0.0625,-0.1875
1480687901244435,-0.0625,-0.0625,-0.0625
1480687901266493,-0.0625,0.0625,0.25
1480687901289052,0.125,0.125,0.125
1480687901304594,0.125,0.0625,-0.0625
1480687901349212,0.25,0.0625,0.0625
1480687901351718,0.125,0.0625,-0.1875
1480687901364252,-0.125,0,-0.25
1480687901386812,-0.25,-0.0625,-0.125
1480687901424914,-0.3125,-0.125,-0.125
1480687901426922,-0.1875,0,-0.1875
1480687901447473,0,-0.0625,-0.25
1480687901469532,-0.4375,-0.125,-0.1875
1480687901491591,-0.125,-0.125,-0.1875
1480687901514150,0.0625,0,-0.125
1480687901529191,0.125,0.0625,0
1480687901543732,0.3125,0,0.125
1480687901566791,0.25,0.0625,0.0625
1480687901588849,0.125,0,-0.125
1480687901617926,-0.125,0,0.0625
1480687901628455,-0.25,-0.125,0.125
1480687901656528,0.4375,0,-0.0625
1480687901665053,0.75,0.125,0.25
1480687901700145,-0.125,0,0
1480687901723207,-0.4375,-0.125,-0.25
1480687901762326,-0.3125,0.0625,-0.0625
1480687901765320,-0.0625,0,-0.25
1480687901814449,0.125,0.0625,-0.25
1480687901822974,0.0625,0,-0.0625
1480687901835505,-0.1875,0.0625,0.0625
1480687901844045,-0.1875,0,0.125
1480687901846535,0.125,-0.125,0
1480687901868092,0.0625,-0.0625,-0.125
1480687901897672,-0.25,-0.1875,-0.1875
1480687901927750,-0.1875,-0.0625,-0.25
1480687901934271,-0.3125,-0.125,0
1480687901949809,-0.0625,-0.125,-0.0625
1480687901963848,0.0625,-0.125,0
1480687902048070,-0.0625,-0.0625,0.0625
1480687902069126,-0.0625,0,-0.0625
1480687902094695,0.3125,0.125,-0.0625
1480687902114246,0.375,0.0625,-0.125
1480687902115750,0.125,0,0
1480687902129789,-0.0625,0,-0.0625
1480687902157862,-0.375,0,-0.125
1480687902167388,0,-0.125,-0.0625
1480687902188945,0.1875,0,-0.125
1480687902211505,0.125,0,-0.1875
1480687902227548,0,-0.0625,-0.1875
1480687902256625,-0.125,-0.0625,-0.125
1480687902280689,0,-0.125,-0.0625
1480687902302749,0.1875,-0.125,0
1480687902324806,-0.0625,-0.125,0
1480687902329820,0.3125,0,-0.1875
1480687902348369,0.25,0.0625,0.0625
1480687902368925,-0.0625,0,0.1875
1480687902393489,0,-0.125,0
1480687902406526,0.25,0.0625,-0.1875
1480687902436605,-0.1875,-0.0625,-0.0625
1480687902450139,-0.25,-0.375,-0.3125
1480687902481723,0.125,0.0625,-0.25
1480687902489243,0,0.125,0.0625
1480687902533862,-0.25,-0.0625,-0.1875
1480687902571462,0.125,0.125,0
1480687902581490,0.4375,-0.0625,0.3125
1480687902603046,0.1875,-0.0625,0.125
1480687902609563,0.25,-0.125,0.0625
1480687902633127,-0.4375,-0.1875,-0.0625
1480687902652678,-0.3125,-0.1875,-0.1875
1480687902669223,-0.125,-0.125,-0.1875
1480687902692285,-0.0625,-0.0625,-0.1875
1480687902716347,0,-0.0625,0
1480687902729883,0.1875,0,0.25
1480687902752443,0,-0.0625,0.125
1480687902774001,0.1875,0,-0.125
1480687902789041,0.1875,0,-0.0625
1480687902812113,0,-0.0625,-0.125
1480687902834161,0.125,-0.0625,-0.3125
1480687902879782,0.125,-0.0625,-0.125
1480687902882288,-0.125,0.0625,-0.125
1480687902900337,-0.375,-0.125,-0.1875
1480687902909361,-0.1875,0,-0.1875
1480687902931420,0,0,-0.0625
1480687902945958,0.125,-0.0625,-0.0625
1480687902969019,0,-0.0625,-0.0625
1480687902999102,-0.0625,-0.125,-0.0625
1480687903015142,0.0625,0,-0.125
1480687903030684,0,0.0625,-0.0625
1480687903051739,0,0,0
1480687903089840,0,0,-0.125
1480687903092348,0.625,0,0
1480687903136465,0.0625,0,0.3125
1480687903156518,-0.125,-0.125,0
1480687903158022,0.3125,0.0625,-0.0625
1480687903185596,0.1875,0.0625,0.1875
1480687903201638,-0.0625,-0.125,-0.1875
1480687903210666,-0.125,0,-0.25
1480687903231719,-0.1875,-0.0625,-0.1875
1480687903252773,-0.3125,-0.0625,-0.3125
1480687903269819,-0.1875,-0.125,-0.25
1480687903291376,-0.125,-0.0625,-0.0625
1480687903315943,-0.125,0,0
1480687903328977,-0.0625,0,-0.0625
1480687903366577,0.25,-0.0625,-0.0625
1480687903411697,-0.0625,0,-0.0625
1480687903434759,-0.0625,-0.0625,0.0625
1480687903436263,0,0,0.1875
1480687903457819,0.125,-0.0625,0
1480687903462832,0.0625,-0.0625,-0.25
1480687903478876,-0.1875,-0.125,-0.0625
1480687903501936,-0.3125,-0.0625,0.0625
1480687903510461,0,0,-0.125
1480687903548059,0.1875,0.0625,-0.0625
1480687903554075,0.1875,0.125,-0.0625
1480687903569116,0,0.0625,0.0625
1480687903591675,0.0625,0,0
1480687903614235,0.0625,0,-0.125
1480687903696955,0,-0.0625,-0.1875
1480687903712998,-0.25,0,-0.1875
1480687903718513,-0.3125,-0.125,-0.1875
1480687903720017,-0.0625,-0.0625,-0.1875
1480687903734054,-0.1875,0,-0.125
1480687903756613,-0.3125,-0.1875,-0.0625
1480687903779174,-0.1875,-0.1875,-0.1875
1480687903802235,0.125,0,-0.3125
1480687903808251,0.25,0.0625,0.1875
1480687903845351,-0.0625,0,0.375
1480687903853872,0.1875,0,0.0625
1480687903868912,0.375,0.0625,0.125
1480687903891974,0,-0.0625,0.125
1480687903914534,-0.125,-0.125,-0.1875
1480687903946118,-0.375,-0.0625,0
1480687903959657,-0.1875,0,0
1480687903974695,0,-0.125,-0.1875
1480687903995248,0.25,-0.0625,0
1480687904012294,0,0.0625,0.1875
1480687904034352,-0.125,-0.125,0.125
1480687904056410,0.125,-0.125,0.25
1480687904078971,0.4375,-0.0625,-0.0625
1480687904101537,0.125,-0.125,-0.0625
1480687904122586,0,-0.1875,0.125
1480687904146651,0.0625,-0.125,0.1875
1480687904168721,-0.125,-0.125,0
1480687904175741,-0.25,-0.125,-0.25
1480687904192284,-0.375,-0.0625,0
1480687904214844,-0.125,0.0625,-0.0625
1480687904238407,0.3125,0.125,0
1480687904264977,0.625,0.375,0.0625
1480687904274001,0.5625,0.25,0.0625
1480687904295057,0.4375,0.125,0.0625
1480687904312102,0.625,0.1875,0.0625
1480687904334663,0.625,0.1875,0
1480687904356721,0.1875,0.1875,-0.0625
1480687904377778,-0.1875,0,0.0625
1480687904400337,-0.3125,-0.125,-0.0625
1480687904425404,-0.125,-0.0625,-0.125
1480687904446961,0.0625,-0.1875,0
1480687904455985,-0.125,-0.1875,0.1875
1480687904477044,-0.125,-0.3125,0.0625
1480687904492082,0.1875,0,0.25
1480687904514641,0.5625,0,0.4375
1480687904544220,0,0.0625,0.5
1480687904550737,0.125,0.0625,0.125
1480687904588337,0.75,0.125,0.25
1480687904597361,0.6875,0.125,0.4375
1480687904611400,0.25,0,0.25
1480687904634460,0.25,0,0.3125
1480687904656519,0,0.0625,0.1875
1480687904679079,0.3125,0.0625,0.0625
1480687904701639,0.4375,0.0625,0.125
1480687904716679,0.3125,0.0625,0.3125
1480687904746759,0.3125,0.0625,0.625
1480687904754278,0.125,0,0.625
1480687904776841,0.375,-0.125,0.3125
1480687904791377,0.125,0,0
1480687904814941,-0.0625,-0.125,0.1875
1480687904844018,0.1875,0,0.3125
1480687904866668,0.1875,0.125,0.25
1480687904874097,0.0625,0.0625,0.0625
1480687904910694,-0.125,0,-0.3125
1480687904934257,-0.6875,-0.125,-0.1875
1480687904936765,0,-0.125,0.375
1480687904956817,0.5,0.0625,0.25
1480687904977874,0.375,0,-0.125
1480687904993915,0.1875,0,-0.0625
1480687905022491,-0.25,-0.0625,0
1480687905045051,-0.4375,-0.1875,-0.25
1480687905054076,-0.4375,-0.1875,-0.1875
1480687905076637,-0.625,-0.25,-0.3125
1480687905099196,-0.75,-0.375,-0.375
1480687905122758,-0.625,-0.1875,-0.375
1480687905144316,-0.5,-0.1875,-0.4375
1480687905165372,-0.25,-0.1875,-0.25
1480687905188433,-0.125,-0.1875,-0.1875
1480687905211494,-0.625,-0.3125,-0.375
1480687905235558,-0.75,-0.1875,-0.6875
1480687905241574,-1.0625,-0.375,-0.4375
1480687905256614,-1.6875,-0.4375,-0.375
1480687905277673,-1.25,-0.5625,-0.75
1480687905294214,-0.625,-0.25,-0.375
1480687905324294,-1.1875,-0.3125,-0.375
1480687905347858,-1.625,-0.4375,-0.6875
1480687905355377,-1.625,-0.3125,-0.875
1480687905376434,-1.6875,-0.1875,-0.75
1480687905398994,-1.125,-0.3125,-0.625
1480687905423058,-0.375,-0.1875,-0.75
1480687905445116,-0.625,-0.125,-0.5
1480687905467175,-1.3125,-0.1875,-0.375
1480687905492241,-1.3125,-0.375,-0.625
1480687905510791,-1.3125,-0.375,-0.75
1480687905520816,-1.3125,-0.375,-0.8125
1480687905533350,-1.25,-0.375,-0.875
1480687905556913,-1.5,-0.3125,-0.625
1480687905578972,-1.4375,-0.4375,-0.5625
1480687905601532,-1.3125,-0.4375,-0.5
1480687905624092,-0.8125,-0.4375,-0.375
1480687905657180,-0.375,-0.1875,-0.1875
1480687905660188,-0.5,-0.25,-0.25
1480687905677235,-0.4375,-0.125,-0.375
1480687905699292,-0.4375,0,-0.3125
1480687905744913,-0.75,-0.3125,-0.3125
1480687905746918,-0.25,-0.25,-0.25
1480687905782011,-0.5,0,-0.25
1480687905784518,-1.6875,-0.3125,-0.5625
1480687905804572,-1,-0.5,-0.625
1480687905819611,-0.5625,-0.4375,-0.25
1480687905840667,-0.125,0,-0.3125
1480687905856711,-1.5,-0.4375,-0.4375
1480687905885286,-0.9375,-0.3125,-0.75
1480687905931910,-1.4375,-0.375,0
1480687905934417,-0.3125,-0.375,-0.5625
1480687905941937,-0.0625,-0.5625,0.0625
1480687905978036,0.1875,-0.375,0.0625
1480687905999590,-0.9375,-0.5,-0.4375
1480687906002096,-1.6875,-0.5,-0.5625
1480687906021649,-1.8125,-0.6875,-0.625
1480687906044212,-0.625,-0.1875,-0.875
1480687906067270,-0.75,-0.3125,-0.5625
1480687906081308,0.1875,-0.0625,0
1480687906096849,0.9375,0.1875,0.25
1480687906134950,-0.25,0,0.125
1480687906139963,-0.1875,-0.375,-0.125
1480687906156507,0.5625,0.0625,-0.0625
1480687906185084,0.25,-0.0625,-0.3125
1480687906207643,-0.1875,-0.4375,-0.3125
1480687906230203,0.25,-0.0625,-0.1875
1480687906254769,-1.0625,-0.25,-0.5
1480687906277329,-1.375,-0.4375,-0.625
1480687906279333,-0.5,-0.375,-0.1875
1480687906301393,-0.125,-0.375,0
1480687906322949,0.3125,-0.0625,-0.5
1480687906344009,-1,-0.125,-0.6875
1480687906367067,-1.1875,-0.25,-0.625
1480687906390129,-0.6875,-0.125,-0.3125
1480687906396645,-0.625,-0.3125,-0.5625
1480687906420209,-0.75,-0.375,-0.625
1480687906457307,-0.75,-0.625,-0.1875
1480687906459312,0.0625,-0.5,0.375
1480687906486385,-0.4375,-0.1875,-0.375
1480687906508944,-1.375,-0.25,-0.9375
1480687906515963,-1.8125,-0.5625,-0.6875
1480687906563089,-1.5,-0.3125,-0.625
1480687906575624,-0.6875,-0.25,-0.5625
1480687906598683,-0.5,-0.1875,-0.5
1480687906605201,-0.6875,-0.125,-0.3125
1480687906621745,-0.9375,-0.375,-0.375
1480687906642801,-1.4375,-0.3125,-0.5625
1480687906659345,-1.6875,-0.5625,-0.25
1480687906694939,-1,-0.3125,-0.25
1480687906714993,-0.3125,-0.1875,-0.5
1480687906719003,0.1875,0,-0.375
1480687906765627,-0.3125,-0.1875,-0.1875
1480687906787184,-0.875,-0.125,-0.25
1480687906789691,-0.6875,-0.125,-0.5
1480687906809243,-0.625,-0.0625,-0.375
1480687906831803,-0.75,-0.125,-0.3125
1480687906853861,-0.8125,-0.25,-0.3125
1480687906861382,-0.5625,-0.125,-0.25
1480687906899984,-0.625,-0.1875,-0.1875
1480687906901990,-1,-0.125,-0.25
1480687906924048,-1.125,-0.1875,-0.5
1480687906944104,-0.9375,-0.0625,-0.5
1480687906966662,-0.625,-0.1875,-0.25
1480687906989222,-0.5,-0.1875,0
1480687907042363,-0.75,-0.3125,0
1480687907044870,-0.875,-0.3125,-0.125
1480687907065425,-0.1875,-0.3125,0.125
1480687907086480,0.3125,-0.25,0.25
1480687907109041,0.75,-0.125,-0.0625
1480687907130096,0.6875,-0.125,0.375
1480687907139120,0.75,-0.125,0.625
1480687907161178,1.25,0.0625,0.6875
1480687907190760,1.875,0.25,0.9375
1480687907199781,2.375,0.4375,1.0625
1480687907223846,2.6875,0.4375,1.1875
1480687907251920,2.625,0.375,1.0625
1480687907272481,2.1875,0.5,0.875
1480687907290022,1.875,0.3125,0.6875
1480687907319602,1.75,0.3125,0.625
1480687907322106,1.875,0.375,0.625
1480687907342160,1.625,0.3125,0.875
1480687907364219,1.25,0.4375,0.4375
1480687907386779,0.625,0.125,0
1480687907409840,0.625,0,0.125
1480687907432401,0.4375,0,0.1875
1480687907470000,0.0625,-0.125,-0.25
1480687907478524,-0.125,-0.25,-0.5625
1480687907486043,0.1875,-0.3125,-0.25
1480687907498576,0.5625,0,0
1480687907522139,0.5,0,0.25
1480687907544201,0.375,0,0.125
1480687907566257,0.375,0.125,0.0625
1480687907595333,0.375,0,0.375
1480687907604357,0.375,-0.0625,0
1480687907618897,-0.25,-0.0625,-0.1875
1480687907641958,-0.125,-0.1875,0.25
1480687907665020,0.75,0.0625,0.375
1480687907687578,0.6875,0,0.0625
1480687907709136,0.3125,0,0.0625
1480687907731696,-0.125,-0.1875,0.125
1480687907746235,-0.3125,-0.1875,-0.125
1480687907761778,0.1875,-0.125,-0.3125
1480687907798875,0,0.0625,-0.0625
1480687907805396,-0.0625,0,0.0625
1480687907821435,0.625,0.125,0
1480687907844997,0.9375,0.25,0.1875
1480687907872571,0.5,0.125,-0.0625
1480687907881594,0,0,-0.3125
1480687907904155,-0.5,0.0625,-0.4375
1480687907925211,-0.5625,0.0625,-0.5625
1480687907942256,-0.3125,-0.0625,-0.5
1480687907964319,0.0625,0.0625,-0.125
1480687907986373,0.3125,0.125,-0.0625
1480687908014949,0.1875,0.125,-0.0625
1480687908023974,0.0625,0.0625,0
1480687908052551,0.1875,0.0625,-0.0625
1480687908076615,0.375,0.125,0
1480687908101179,0.5,0.125,0
1480687908106693,0.375,0.0625,0
1480687908122234,0.0625,-0.0625,-0.0625
1480687908159834,0.1875,0.125,0
1480687908173872,0.375,0.0625,0.1875
1480687908182896,0.5,0.1875,0.125
1480687908204955,0.625,0.1875,0.125
1480687908243561,0.6875,0.1875,0.125
1480687908247567,0.5,0.1875,0.0625
1480687908263610,0.25,0.0625,0
1480687908286171,-0.1875,-0.0625,-0.125
1480687908307727,-0.4375,0,-0.3125
1480687908330289,-0.6875,-0.1875,-0.25
1480687908354353,-0.4375,-0.25,-0.0625
1480687908360869,-0.25,-0.125,-0.25
1480687908383930,-0.1875,-0.125,-0.4375
1480687908406992,-0.25,-0.125,-0.375
1480687908429552,-0.25,0,-0.25
1480687908451610,-0.25,-0.0625,-0.125
1480687908466652,-0.125,-0.125,-0.1875
1480687908495226,-0.1875,-0.1875,-0.3125
1480687908504250,0.125,0,-0.375
1480687908535333,-0.1875,0,0.125
1480687908542853,0,0.125,0.0625
1480687908563909,0.5625,0,0.125
1480687908586469,0.625,0.1875,0.3125
1480687908609029,0.0625,-0.125,0
1480687908631590,-0.1875,-0.0625,-0.25
1480687908654149,-0.0625,0.125,-0.125
1480687908684732,0.1875,0,-0.125
1480687908686736,0.5,0.1875,-0.0625
1480687908715813,0.4375,0.25,0.1875
1480687908728848,0.125,0.0625,0.1875
1480687908751909,0,0.0625,0.125
1480687908799035,0.25,-0.0625,0.125
1480687908802544,0.25,0.0625,-0.0625
1480687908820592,-0.0625,-0.125,-0.25
1480687908827112,-0.3125,-0.125,-0.25
1480687908847664,-0.4375,-0.125,-0.125
1480687908864208,-0.3125,-0.0625,0
1480687908886767,0.0625,0,0
1480687908907824,0.1875,0.125,0
1480687908931387,0,0.0625,0.125
1480687908961967,0.0625,0,-0.125
1480687908985531,0.125,0.0625,-0.125
1480687908990042,0.5625,0.125,0
1480687909006586,0.5,0.0625,-0.125
1480687909029146,-0.0625,0,0
1480687909045690,-0.125,-0.125,-0.0625
1480687909074768,-0.1875,-0.0625,-0.25
1480687909095322,0.0625,0.125,-0.125
1480687909120389,0.0625,-0.0625,-0.125
1480687909127909,-0.125,-0.0625,-0.125
1480687909154981,-0.25,0,-0.25
1480687909164005,-0.125,-0.0625,-0.0625
1480687909187567,0.1875,-0.0625,0
1480687909192080,0.25,0.0625,0
1480687909214639,0.3125,0.0625,0.0625
1480687909232189,0.3125,0.125,0
1480687909259760,-0.125,-0.125,-0.125
1480687909282821,-0.125,-0.0625,-0.3125
1480687909305882,-0.375,-0.0625,0
1480687909328943,-0.625,-0.0625,-0.125
1480687909334459,0.0625,-0.0625,-0.125
1480687909352506,0.0625,0,0.1875
1480687909373562,-0.0625,-0.0625,-0.0625
1480687909394618,-0.1875,-0.0625,-0.3125
1480687909418684,-0.1875,-0.0625,-0.125
1480687909431718,-0.0625,0,-0.1875
1480687909454277,-0.0625,-0.0625,-0.125
1480687909470821,0.1875,0,0
1480687909491876,0.1875,0.0625,0.125
1480687909518447,-0.125,0,0.125
1480687909532988,-0.0625,-0.0625,0
1480687909561062,0,0,0.0625
1480687909574597,0.0625,-0.0625,0
1480687909629743,0.0625,-0.125,0.0625
1480687909632250,0.0625,-0.1875,-0.1875
1480687909638266,-0.1875,-0.125,-0.25
1480687909656816,-0.375,-0.0625,-0.1875
1480687909675365,-0.1875,-0.125,0.0625
1480687909697423,0.1875,0,0.1875
1480687909718479,0.3125,0.0625,0
1480687909739536,0.25,0,0
1480687909762095,0.1875,0.0625,-0.0625
1480687909795184,0.5,0.1875,-0.125
1480687909816240,0.25,0.1875,0
1480687909838799,0.4375,0.1875,0
1480687909841306,0.375,0.0625,0.0625
1480687909868378,0.375,0,-0.0625
1480687909881919,0,0,-0.3125
1480687909907984,-0.4375,-0.125,-0.3125
1480687909911994,-0.625,0,-0.25
1480687909953103,-0.8125,-0.0625,-0.3125
1480687909960123,-1.1875,-0.125,-0.6875
1480687909972154,-0.9375,-0.1875,-0.1875
1480687910019781,0.375,0,0.375
1480687910022287,0.75,0.0625,0.125
1480687910048358,0.5,-0.0625,0.0625
1480687910095983,-0.0625,-0.0625,-0.125
1480687910117038,-0.25,-0.125,-0.3125
1480687910122052,0.1875,-0.125,0.125
1480687910140100,0.75,-0.0625,0.0625
1480687910168175,0.75,0.25,0.3125
1480687910174693,0.3125,0.125,0.1875
1480687910196754,-0.125,-0.1875,0
1480687910227834,-0.125,-0.125,0.0625
1480687910243377,0.25,-0.125,-0.0625
1480687910256913,0.375,0.0625,-0.0625
1480687910271951,0.3125,0.125,0.25
1480687910305540,0.1875,0.0625,0.1875
1480687910318575,0.0625,0,0.1875
1480687910339630,0.125,-0.1875,0.1875
1480687910361690,0.25,0,0
1480687910386255,0,-0.0625,0
1480687910393279,-0.125,-0.0625,0
1480687910414330,0,-0.125,-0.4375
1480687910438394,-0.75,0,-0.5
1480687910459450,0.0625,0,0
1480687910477498,0.8125,0.125,0.25
1480687910498555,0.6875,0.1875,0.125
1480687910512090,0.375,0.0625,-0.0625
1480687910535152,0.125,0.0625,-0.25
1480687910557210,0,0,-0.125
1480687910574756,0.1875,0,-0.0625
1480687910595812,0.25,0.0625,-0.0625
1480687910649454,0.0625,0,-0.1875
1480687910656974,0.0625,-0.0625,-0.0625
1480687910672016,0.0625,-0.125,-0.125
1480687910677031,-0.0625,-0.125,-0.0625
1480687910731172,-0.1875,-0.125,-0.0625
1480687910748721,-0.125,-0.1875,-0.125
1480687910754736,-0.1875,-0.0625,0
1480687910799857,0.125,-0.0625,0
1480687910801861,0.25,-0.0625,0.0625
1480687910819407,-0.0625,-0.1875,-0.1875
1480687910837956,0.0625,0.0625,0
1480687910910150,-0.125,-0.125,0
1480687910950257,0.1875,0.0625,-0.1875
1480687910957275,0.25,-0.0625,-0.125
1480687910958779,-0.25,-0.1875,0
1480687910970809,0.3125,0.0625,0.25
1480687910976831,0.5,0.1875,0.3125
1480687910994372,0.125,-0.0625,0.0625
1480687911014425,-0.3125,-0.125,-0.1875
1480687911036987,-0.4375,-0.0625,-0.125
1480687911055033,-0.1875,0,-0.25
1480687911074586,0.3125,-0.125,-0.25
1480687911107172,0.25,-0.0625,-0.25
1480687911129732,0,0,-0.0625
1480687911143272,-0.375,-0.0625,0
1480687911158309,-0.0625,0.0625,-0.0625
1480687911187384,-0.0625,-0.0625,-0.125
1480687911209947,-0.25,-0.125,-0.1875
1480687911227492,-0.3125,-0.1875,-0.25
1480687911236016,-0.25,-0.125,-0.3125
1480687911254565,-0.1875,0.0625,-0.3125
1480687911302190,-0.0625,0.125,-0.0625
1480687911308207,0.1875,0.1875,0.25
1480687911323246,0.5,0.125,0.25
1480687911336782,0.375,0.0625,0.0625
1480687911376389,0.375,0,0
1480687911378895,0.125,-0.0625,-0.125
1480687911413989,0.125,0,-0.0625
1480687911451587,0.0625,0,-0.0625
1480687911465626,0.125,0.0625,0.0625
1480687911482170,0.0625,0,0
1480687911490693,0.1875,-0.125,0.0625
1480687911494201,0.0625,-0.125,0.0625
1480687911516763,-0.25,-0.125,-0.0625
1480687911547843,-0.6875,-0.125,-0.4375
1480687911555865,-0.9375,-0.125,-0.5
1480687911600985,-0.75,-0.1875,-0.4375
1480687911623043,-0.3125,-0.125,-0.375
1480687911641092,0.0625,0,-0.25
1480687911653124,0.125,0.125,-0.0625
1480687911659641,-0.0625,0.0625,0
1480687911690724,0.0625,0,0.0625
1480687911704260,0.1875,0.0625,0.1875
1480687911736345,-0.1875,-0.125,0.0625
1480687911738851,0.125,0,-0.0625
1480687911759908,0.375,-0.0625,0.125
1480687911787982,0.4375,-0.0625,0.125
1480687911797509,-0.125,-0.0625,-0.125
1480687911817059,-0.4375,-0.125,0
1480687911847641,-0.125,0,-0.0625
1480687911856164,-0.0625,-0.125,-0.1875
1480687911879726,0.125,0,-0.125
1480687911917327,0.4375,0.0625,0.1875
1480687911921838,0.1875,0.0625,0.3125
1480687911936878,0.25,-0.0625,0.25
1480687911966960,0,-0.0625,0.125
1480687911985008,0,-0.125,-0.1875
1480687912013582,-0.1875,-0.125,-0.1875
1480687912038147,0,-0.125,-0.0625
1480687912059705,0.0625,-0.0625,0
1480687912062212,-0.125,-0.1875,-0.3125
1480687912082767,-0.3125,-0.125,-0.25
1480687912104825,-0.3125,0.0625,-0.0625
1480687912124377,0,-0.125,0.0625
1480687912146938,0.1875,-0.0625,-0.0625
1480687912165487,0.0625,0,-0.1875
1480687912184537,-0.25,-0.125,-0.3125
1480687912211609,-0.3125,-0.0625,-0.25
1480687912217124,-0.1875,0,-0.125
1480687912305359,-0.125,0.0625,-0.125
1480687912315887,0.0625,0.0625,-0.25
1480687912342458,-1.625,-0.375,0.1875
1480687912365017,0.75,-0.3125,0.4375
1480687912377049,1.6875,0,0.6875
1480687912387075,0.75,0.125,0.0625
1480687912410638,-0.125,0,-0.0625
1480687912417155,-0.6875,-0.0625,-0.0625
1480687912446734,-0.25,-0.125,-0.0625
1480687912472803,0.4375,0,-0.1875
1480687912493358,0.75,0.125,-0.25
1480687912516419,-0.0625,0.0625,-0.0625
1480687912518926,-0.3125,0,-0.1875
1480687912563043,0.0625,0.0625,0.0625
1480687912567054,0.1875,0,-0.0625
1480687912590617,-0.1875,-0.125,-0.4375
1480687912619694,-0.5625,-0.0625,-0.3125
1480687912629722,-0.6875,-0.0625,-0.3125
1480687912642254,-0.1875,0,-0.375
1480687912665818,0.1875,0,-0.1875
1480687912686873,0.125,0.125,0.0625
1480687912697401,0.0625,0,0.25
1480687912718958,0.25,0,0
1480687912741017,0.375,0.125,-0.125
1480687912757561,0.0625,0,-0.3125
1480687912778617,-0.125,-0.0625,-0.25
1480687912859832,0,-0.0625,-0.0625
1480687912871364,-0.0625,0.0625,-0.1875
1480687912892419,-0.25,-0.0625,-0.3125
1480687912894424,-0.0625,0,-0.125
1480687912899940,-0.0625,-0.0625,-0.25
1480687912927011,-0.3125,-0.0625,-0.25
1480687912937540,-0.0625,0,-0.1875
1480687912973134,0.25,0.0625,-0.25
1480687912987172,-0.0625,0,-0.125
1480687913001710,-0.3125,-0.0625,-0.125
1480687913034297,-0.4375,0,-0.25
1480687913039310,-0.25,0,-0.25
1480687913061871,-0.25,0.0625,-0.25
1480687913094456,0.0625,0,-0.25
1480687913148601,0.3125,0,-0.125
1480687913154618,0.25,0,-0.0625
1480687913167151,0.1875,0.0625,-0.0625
1480687913181688,0.3125,0.0625,-0.0625
1480687913199736,0.375,0.0625,0.0625
1480687913219289,0.375,0.0625,-0.0625
1480687913241851,0.4375,0.125,0
1480687913265915,-0.0625,0.125,0.25
1480687913279448,0.3125,0.0625,0.125
1480687913305016,0.6875,0.125,0.125
1480687913332591,0.4375,0.1875,0.1875
1480687913402275,0,0.125,-0.1875
1480687913406788,-0.25,-0.0625,-0.1875
1480687913430852,-0.0625,-0.0625,-0.125
1480687913453411,0.1875,0.1875,0.0625
1480687913466949,0.125,0.0625,0
1480687913489507,0.1875,0.125,0
1480687913500037,0.1875,0,0
1480687913519587,-0.25,-0.0625,-0.1875
1480687913549667,-0.5,-0.1875,-0.375
1480687913583757,-0.625,-0.125,-0.4375
1480687913603811,-0.375,-0.125,-0.3125
1480687913610830,-0.1875,-0.125,-0.25
1480687913627374,0,0,0
1480687913648431,0,0,0.125
1480687913669485,0,0,-0.0625
1480687913681017,0.1875,0.0625,-0.0625
1480687913702574,0.4375,0.1875,-0.1875
1480687913724634,0.5,0.25,-0.0625
1480687913748196,0.1875,0,-0.0625
1480687913768248,-0.125,0,-0.1875
1480687913789805,-0.3125,-0.0625,-0.4375
1480687913804345,-0.3125,-0.0625,-0.3125
1480687913820888,0.0625,0,-0.3125
1480687913841945,0.125,0.125,-0.1875
1480687913859992,0.125,0,-0.1875
1480687913883054,0,0.125,-0.0625
1480687913926669,-0.0625,0,-0.1875
1480687913931684,-0.125,0.0625,-0.1875
1480687913948226,-0.0625,-0.0625,-0.1875
1480687913961764,0,0,-0.3125
1480687913980312,0.3125,0.0625,-0.1875
1480687914002873,0,0,0
1480687914024931,-0.1875,0.0625,-0.125
1480687914044484,0.125,0,-0.1875
1480687914098127,0.4375,0.125,0
1480687914121187,0.0625,0.0625,-0.0625
1480687914160291,-0.25,-0.125,-0.25
1480687914185357,-0.1875,0.0625,-0.375
1480687914188365,0.0625,0.125,0
1480687914209425,0.0625,0.125,0.1875
1480687914242008,0.25,0.125,-0.0625
1480687914255544,0.0625,0.0625,-0.125
1480687914262061,-0.1875,-0.125,-0.125
1480687914279608,-0.125,-0.125,-0.1875
1480687914304675,0,-0.125,0
1480687914329240,0.1875,0,-0.0625
1480687914339768,-0.25,-0.125,-0.125
1480687914391910,-0.0625,-0.0625,0
1480687914415470,0.0625,0.0625,0.1875
1480687914445550,0.125,0.0625,0.1875
1480687914461091,0.4375,0.0625,0
1480687914468611,0.625,0.1875,0.125
1480687914482648,0.125,-0.0625,0.0625
1480687914511726,-0.1875,0,0
1480687914531779,-0.3125,-0.125,-0.1875
1480687914542307,-0.375,0,-0.1875
1480687914564367,-0.125,-0.0625,-0.0625
1480687914584419,-0.125,-0.125,-0.125
1480687914602467,-0.5625,-0.1875,-0.375
1480687914646584,-1.0625,-0.375,-0.375
1480687914649592,-0.875,-0.3125,-0.1875
1480687914668142,-0.5,-0.1875,0
1480687914690702,-0.3125,-0.25,0.0625
1480687914714766,-0.125,-0.125,-0.0625
1480687914737827,0,0,0.1875
1480687914743342,-0.125,-0.0625,0.375
1480687914767406,0.375,0.0625,0.1875
1480687914789966,0.8125,0.1875,0.3125
1480687914811022,0.625,0.125,0.3125
1480687914856145,0.1875,-0.0625,0.125
1480687914864163,-0.25,-0.1875,0.125
1480687914866674,-0.4375,-0.25,-0.0625
1480687914884215,-0.375,-0.3125,-0.3125
1480687914925326,0.1875,0,0.0625
1480687914945382,0.5,0.125,0.4375
1480687914968941,0.25,0.125,0.1875
1480687914971449,0.0625,-0.125,0.0625
1480687915000025,-0.1875,-0.0625,-0.0625
1480687915013560,-0.9375,-0.25,-0.25
1480687915022584,-1,-0.1875,-0.25
1480687915045147,-1.1875,-0.0625,-0.8125
1480687915068205,-1.3125,-0.3125,-0.6875
1480687915091768,-0.1875,-0.125,-0.125
1480687915112824,0.25,0.0625,0.125
1480687915156441,0.1875,0.0625,0.375
1480687915158948,0.0625,0.0625,0.1875
1480687915180504,0,-0.0625,-0.0625
1480687915184514,0.0625,0.0625,-0.125
1480687915202563,-0.125,0,0
1480687915224622,-0.0625,-0.0625,-0.0625
1480687915251693,-0.25,0,-0.0625
1480687915274253,0,0,0.0625
1480687915293304,-0.125,-0.0625,0
1480687915322882,-0.0625,-0.0625,0.0625
1480687915344444,-0.125,-0.125,-0.125
1480687915346946,0.25,-0.25,0
1480687915373518,0.5625,0.125,0.125
1480687915391064,0,0.0625,0.3125
1480687915412623,-0.5625,-0.25,-0.125
1480687915433678,0.125,0.0625,0
1480687915458244,-0.0625,-0.0625,0.3125
1480687915479298,0.25,-0.0625,0
1480687915494842,0.5625,0.0625,0.125
1480687915502360,0.3125,0,0.25
1480687915524920,-0.375,-0.1875,0.0625
1480687915569538,-0.4375,-0.1875,-0.1875
1480687915572045,-0.5,-0.3125,-0.1875
1480687915597612,-0.4375,-0.25,-0.3125
1480687915622679,0.25,-0.0625,0
1480687915643737,0.125,0.0625,0.3125
1480687915646243,-0.1875,-0.0625,0.25
1480687915667299,0,0,0.1875
1480687915689859,0.125,-0.0625,-0.0625
1480687915712421,-0.1875,-0.1875,-0.125
1480687915725955,-0.125,-0.125,-0.0625
1480687915772077,0.0625,-0.0625,0.0625
1480687915777091,-0.0625,-0.0625,0
1480687915792131,-0.1875,0,-0.0625
1480687915808173,-0.3125,-0.125,0.125
1480687915845776,-0.125,0,0.0625
1480687915854798,0.1875,0.0625,0.0625
1480687915901922,0.125,0.0625,0.125
1480687915906937,0.25,0.125,0
1480687915909443,0.25,0.125,0.0625
1480687915944035,0,0,0.0625
1480687915946540,-0.4375,-0.0625,-0.0625
1480687915967597,-0.3125,0,-0.125
1480687916019234,-0.1875,0,-0.125
1480687916021239,0.125,0,-0.1875
1480687916027256,0.0625,0,0
1480687916048813,0.125,0,0.0625
1480687916064855,0,-0.0625,0.125
1480687916108473,-0.1875,-0.0625,-0.0625
1480687916127023,0.25,-0.0625,-0.125
1480687916132036,-0.125,0,0.125
1480687916178163,-0.125,-0.0625,0.125
1480687916184673,0.375,0.125,0.0625
1480687916187181,0.375,0.1875,0.375
1480687916221772,-0.125,-0.125,0.1875
1480687916296973,-0.4375,-0.3125,-0.1875
1480687916327055,-0.4375,-0.125,-0.0625
1480687916341591,0,-0.0625,0
1480687916348109,-0.125,-0.0625,0
1480687916405762,-0.375,-0.125,-0.125
1480687916411277,-0.875,-0.1875,-0.4375
1480687916429828,-0.9375,-0.3125,-0.4375
1480687916456899,-0.6875,-0.25,-0.3125
1480687916477957,-0.0625,-0.125,0
1480687916483469,0.5,0.0625,0.1875
1480687916497507,0.4375,0,0.375
1480687916506530,0.1875,0,0.25
1480687916574712,-0.1875,-0.0625,0.125
1480687916582732,-0.25,0.0625,-0.0625
1480687916620834,0,0,0
1480687916642894,0,0,0
1480687916677487,-0.375,-0.125,-0.0625
1480687916711075,-0.5,-0.1875,-0.1875
1480687916756695,-0.5625,-0.125,-0.3125
1480687916777254,-0.25,0.0625,-0.125
1480687916797303,-0.375,0,-0.375
1480687916808333,-0.125,0.125,-0.25
1480687916831394,0,0.125,0.4375
1480687916852951,-0.6875,-0.1875,0
1480687916872503,-0.5625,-0.125,-0.5
1480687916919628,-0.1875,0.0625,-0.125
1480687916922135,-0.4375,0,-0.125
1480687916943694,1,0.4375,0.1875
1480687916958733,1.4375,0.5625,0.9375
1480687916987809,1.375,0.25,0.75
1480687917031928,1.25,0.3125,0.375
1480687917034434,1.125,0.625,0.3125
1480687917055991,0.375,0.25,0.3125
1480687917077048,-0.6875,-0.1875,-0.0625
1480687917079554,-1.75,-0.3125,-0.5
1480687917108633,-1.875,-0.5,-0.875
1480687917122167,-1.375,-0.4375,-0.375
1480687917189346,-0.6875,-0.3125,0.25
1480687917194864,-0.5,-0.4375,-0.125
1480687917213911,-0.4375,-0.25,-0.1875
1480687917217420,-0.875,-0.375,0.0625
1480687917255521,-0.375,-0.1875,0
1480687917287106,0.3125,0,0.3125
1480687917289616,0.25,-0.125,0.25
1480687917310168,-0.8125,-0.5,-0.125
1480687917312173,-2.9375,-1.125,-0.875
1480687917331725,-3.625,-1.0625,-1.3125
1480687917354785,-2.6875,-0.5625,-0.6875
1480687917377349,0.3125,0.25,-0.1875
1480687917397900,1.375,0.5,0.6875
1480687917419959,1.375,0.5625,1.5
1480687917444530,-0.75,-0.0625,-0.3125
1480687917451544,-2.8125,-0.5625,-2.4375
1480687917489646,-2.5625,-0.4375,-2.1875
1480687917492152,-1.5,-0.375,-0.5
1480687917519222,0.125,-0.3125,-0.75
1480687917541784,-0.3125,-0.3125,-0.75
1480687917564844,-1.875,-0.625,-0.5
1480687917586903,-3.125,-0.75,-0.6875
1480687917589412,-2.9375,-0.6875,-0.6875
1480687917610468,-1.5,-0.375,-0.3125
1480687917632022,-0.25,-0.125,-0.0625
1480687917654081,0.1875,0.1875,0
1480687917677145,-0.4375,0.25,0.0625
1480687917699202,-0.875,0.0625,-0.1875
1480687917728782,-0.8125,-0.0625,-0.25
1480687917751340,-0.3125,-0.0625,-0.3125
1480687917767383,0.1875,-0.1875,-0.0625
1480687917771895,-0.1875,-0.25,0.25
1480687917790947,-0.1875,-0.4375,0.6875
1480687917843084,0.625,-0.25,0.8125
1480687917849601,1.5625,0.375,1.25
1480687917852109,1.75,0.4375,0.9375
1480687917872662,1.875,0.6875,-0.0625
1480687917887201,1.8125,0.9375,-0.25
1480687917911268,3.4375,1.125,0.4375
1480687917931320,4.8125,1.1875,1
1480687918008023,4.75,1,1
1480687918023565,2.75,0.5625,1.1875
1480687918031086,-1.4375,-0.6875,-0.3125
1480687918051638,-1.625,-0.875,-1.125
1480687918072695,-3,-0.875,-1.75
1480687918098764,-3.25,-0.875,-2.0625
1480687918118817,-2.8125,-0.4375,-1.5625
1480687918141379,-1.25,0,-1.0625
1480687918148898,0.5625,0.25,-0.0625
1480687918172460,2,0.4375,1.25
1480687918192513,2.1875,0.5,1.625
1480687918209058,1.4375,0.375,1.25
1480687918231618,0.3125,0.0625,0.5
1480687918254178,-0.4375,-0.25,-0.1875
1480687918277239,-0.75,-0.3125,-0.375
1480687918304813,-0.5625,-0.25,-0.3125
1480687918322861,-0.125,-0.125,0.1875
1480687918328876,0.5,0.0625,0.6875
1480687918367980,0.875,0.0625,0.6875
1480687918373997,1,0.0625,0.5625
1480687918397058,1.3125,0.0625,0.5625
1480687918418615,1.1875,0,0.6875
1480687918440173,1.375,0.0625,0.375
1480687918450198,1.3125,-0.0625,0.5
1480687918486296,0.6875,0.0625,0.8125
1480687918493815,0.5625,0,0.75
1480687918554977,0,-0.0625,0.375
1480687918575532,-0.5,-0.125,-0.125
1480687918599596,-0.875,-0.25,-0.8125
1480687918601099,-1.0625,-0.375,-0.75
1480687918608122,-0.875,-0.3125,-0.5625
1480687918621654,-0.9375,-0.25,-0.5
1480687918629175,-0.625,0.0625,-0.4375
1480687918652737,0,0.5,-0.25
1480687918676300,0.25,0.8125,-0.125
1480687918696353,0.3125,0.75,-0.75
1480687918747489,0.4375,0.8125,-1.25
1480687918772054,-0.1875,0.5625,-0.8125
1480687918774562,-0.5,0.0625,-0.8125
1480687918855275,-0.3125,0,-0.3125
1480687918857284,-0.4375,0,0.0625
1480687918959553,0.3125,-0.0625,-0.1875
1480687918981612,-0.0625,0,-0.25
1480687918983616,1.5,0.5625,0.1875
1480687918998156,0.8125,0.3125,-0.125
1480687919041773,0.25,0.25,-0.375
1480687919051297,0,0.25,-0.1875
1480687919065335,-0.25,-0.0625,-0.125
1480687919086892,-0.3125,-0.125,0
1480687919110957,-0.0625,-0.125,-0.1875
1480687919133018,0.25,-0.0625,-0.125
1480687919137549,0.6875,0.0625,0.375
1480687919160087,1,0,0.75
1480687919178134,0.9375,0,0.5
1480687919205708,0.8125,0.0625,0.375
1480687919250326,0.25,-0.125,0.375
1480687919282913,-0.3125,-0.375,0.25
1480687919296449,-0.5625,-0.375,-0.125
1480687919303968,0.1875,-0.125,-0.25
1480687919305473,1.125,0.0625,0.25
1480687919327030,1.0625,0,0.625
1480687919348087,0.25,-0.25,0.4375
1480687919356108,-0.875,-0.625,0.3125
1480687919381174,-1.625,-0.875,-0.25
1480687919395211,-1.625,-1,-0.5
1480687919417270,-1.5625,-0.75,0
1480687919438827,-1.5,-0.6875,0
1480687919454369,-1.3125,-0.625,-0.375
1480687919484448,-1.0625,-0.625,-0.5
1480687919506508,-1.0625,-0.625,-0.8125
1480687919514529,-1.6875,-0.375,-0.625
1480687919553132,-1.6875,-0.4375,-0.75
1480687919557644,-1.6875,-0.3125,-0.375
1480687919575691,-0.625,0,0.25
1480687919604268,0.5625,0.0625,0.4375
1480687919654902,0.9375,0.1875,0.125
1480687919665931,0.6875,0.0625,0.25
1480687919685984,-0.125,0,0.1875
1480687919687992,-0.5,-0.125,0.0625
1480687919695510,-0.0625,0,0.1875
1480687919717068,0.25,0.0625,0.5
1480687919731106,0.3125,-0.0625,0.375
1480687919756172,0.375,0,0.125
1480687919784247,0.5625,0.125,-0.0625
1480687919807312,0.5625,0.25,-0.25
1480687919830370,0.1875,0.25,-0.375
1480687919836386,-0.0625,0.0625,-0.4375
1480687919850923,-0.25,0,-0.625
1480687919875990,-0.625,-0.125,-0.8125
1480687919903062,-0.6875,0,-0.625
1480687919921612,-0.5,0.0625,-0.4375
1480687919941666,-0.1875,0.0625,-0.125
1480687919956706,0.0625,0.125,-0.125
1480687919979766,0.3125,0.25,0
1480687919994305,0.1875,0.125,0.375
1480687920017867,0.625,0.0625,0
1480687920039424,0.9375,0.25,0.375
1480687920061984,0.625,0.25,0.5
1480687920076523,0,0.0625,0
1480687920097580,-0.125,0.125,-0.0625
1480687920120640,0.1875,0.1875,0
1480687920152726,0.625,0.1875,0.25
1480687920157742,1.5625,0.25,0.6875
1480687920174283,1.8125,0.25,1.125
1480687920202358,1,0.0625,0.8125
1480687920232939,-0.4375,-0.1875,0.0625
1480687920265526,-1.125,-0.3125,-0.5625
1480687920270038,-1.4375,-0.3125,-0.75
1480687920290596,-0.8125,-0.1875,-0.4375
1480687920310144,-0.0625,0.0625,-0.0625
1480687920316662,0,0.125,0.0625
1480687920339222,0.0625,0.125,0.0625
1480687920361280,-0.0625,0.125,0.125
1480687920383841,0.0625,0.125,0
1480687920406905,0.3125,0.0625,-0.1875
1480687920414423,0.25,0.25,-0.1875
1480687920436481,0.3125,0.3125,0
1480687920457537,0.1875,0.1875,-0.0625
1480687920474586,0.0625,0.25,-0.125
1480687920496641,-0.0625,0.1875,-0.1875
1480687920519201,0.125,0.1875,-0.0625
1480687920533238,0.4375,0.25,0.125
1480687920557803,0.875,0.3125,0.1875
1480687920578859,0.6875,0.25,0.3125
1480687920593899,0.1875,0.125,0.0625
1480687920616459,0.1875,0.0625,-0.1875
1480687920646538,0.1875,0.1875,0.125
1480687920653558,0,0.125,0.25
1480687920684139,0.5,0.125,-0.0625
1480687920706701,0.8125,0.3125,0.5
1480687920713216,0.5,0.125,0.3125
1480687920736779,0,0,-0.125
1480687920759339,-0.4375,0.0625,-0.0625
1480687920796939,-0.1875,0.0625,-0.0625
1480687920799446,0,0.125,-0.125
1480687920818998,0.3125,0.125,0.0625
1480687920857103,0.1875,0.1875,0.1875
1480687920859605,0,0.0625,0.125
1480687920895200,-0.125,0.0625,0.125
1480687920917258,-0.1875,0,-0.125
1480687920919265,-0.25,0,-0.1875
1480687920940343,-0.125,0,-0.125
1480687920961376,0.125,0.125,0.125
1480687920983935,0.25,0.125,0
1480687920999478,0.4375,0.125,0.125
1480687921022540,0.4375,0.1875,0.4375
1480687921037078,0.5,0.25,0.375
1480687921058635,0.6875,0.1875,0.25
1480687921080694,0.625,0.3125,0.1875
1480687921096736,0.5625,0.25,0
1480687921126816,0.5,0.125,-0.0625
1480687921142859,0.4375,0.1875,-0.0625
1480687921163915,0,0.125,0
1480687921187477,-0.0625,0.125,-0.1875
1480687921217056,-0.1875,0.125,-0.1875
1480687921219564,-0.25,0.0625,-0.375
1480687921240119,0.0625,0.125,-0.375
1480687921267691,0.4375,0.1875,-0.0625
1480687921277718,0.375,0.125,0.0625
1480687921298774,0.5625,0.25,-0.0625
1480687921320331,0.75,0.25,0.3125
1480687921336879,0.5,0.1875,0.375
1480687921373476,0.8125,0.125,0.1875
1480687921387509,1,0.3125,0.3125
1480687921425613,0.5,0.3125,0.1875
1480687921466219,-0.0625,0.0625,-0.0625
1480687921471734,-0.0625,0.0625,-0.1875
1480687921487775,0.0625,0.0625,-0.3125
1480687921517855,0.125,0.0625,-0.125
1480687921523371,0.1875,0.25,-0.0625
1480687921538913,0.1875,0.125,0.125
1480687921562976,0.25,0.1875,0.3125
1480687921576512,0.1875,0.0625,0.125
1480687921599574,0.125,0.0625,0
1480687921637674,0.25,0.0625,0.125
1480687921642687,0.3125,0.25,0.1875
1480687921659733,0.0625,0.0625,0.0625
1480687921720394,0.1875,0.1875,0.0625
1480687921727916,0.1875,0.125,0.3125
1480687921748970,0.125,0.1875,-0.0625
1480687921771530,0.0625,0.0625,0
1480687921792586,0.0625,0.0625,-0.0625
1480687921809131,0,0.25,-0.0625
1480687921816650,-0.1875,0.0625,0
1480687921839211,0,0.0625,0
1480687921863776,0,0.125,-0.125
1480687921883829,-0.1875,0.0625,-0.1875
1480687921906391,-0.0625,0.125,-0.25
1480687921929951,-0.0625,0.1875,0
1480687921935969,0.125,0.25,0.0625
1480687921959029,0.3125,0.25,0.0625
1480687922010666,0.3125,0.3125,0.0625
1480687922028714,0.125,0.375,0.125
1480687922050272,0.125,0.375,-0.1875
1480687922071830,-0.0625,0.25,-0.375
1480687922074336,0.125,0.25,0.125
1480687922082358,-0.1875,0.125,0.25
1480687922116949,0.1875,0.125,-0.0625
1480687922122969,0.125,0.125,0.125
1480687922140512,-0.4375,0.0625,-0.0625
1480687922161569,-0.6875,-0.0625,-0.375
1480687922184629,-0.375,0.0625,-0.1875
1480687922206692,-0.125,0.125,-0.0625
1480687922304449,0.1875,-0.0625,-0.125
1480687922310463,0.3125,0.25,0.0625
1480687922328011,0,0.0625,-0.1875
1480687922349066,-0.25,-0.125,-0.3125
1480687922372128,-0.1875,0,-0.125
1480687922380650,0,0.0625,0.125
1480687922416746,0.125,0.0625,0.0625
1480687922425773,0.1875,0.0625,0.125
1480687922447830,0.1875,0.0625,0.125
1480687922484426,0.125,0.0625,-0.0625
1480687922492948,0.1875,0.125,-0.1875
1480687922514005,0.0625,0.1875,-0.125
1480687922559625,0.25,0.1875,0
1480687922563136,0.375,0.1875,0.125
1480687922583690,0.1875,0.1875,-0.125
1480687922588707,-0.0625,0.0625,-0.25
1480687922628810,-0.0625,0.0625,-0.1875
1480687922634326,0,0.125,-0.375
1480687922650368,-0.3125,0.0625,-0.25
1480687922671423,-0.375,0.0625,-0.1875
1480687922678443,-0.3125,0.0625,-0.3125
1480687922707521,0.1875,0.0625,-0.0625
1480687922724064,0.375,0.125,0.125
1480687922738603,0.125,0.1875,0.0625
1480687922761664,-0.1875,0,-0.1875
1480687922785226,0.0625,0.0625,-0.5
1480687922830346,0.0625,0.0625,0.125
1480687922832853,-0.25,0,0.3125
1480687922858922,0,-0.0625,0
1480687922863435,-0.1875,0.0625,0.0625
1480687922881984,-0.9375,-0.125,-0.3125
1480687922904544,-1.3125,-0.3125,-0.625
1480687922925098,-1.1875,-0.25,-0.625
1480687922949163,-1.0625,-0.25,-0.5625
1480687922964202,-0.875,-0.25,-0.625
1480687922985258,-0.625,-0.0625,-0.25
1480687923001301,-0.5,0.0625,-0.0625
1480687923032384,-0.4375,0,-0.125
1480687923044917,-0.375,0,0
1480687923061461,-0.625,-0.0625,-0.3125
1480687923084021,-0.875,-0.125,-0.5625
1480687923108088,-0.75,-0.0625,-0.375
1480687923135157,-0.6875,0.0625,-0.125
1480687923144183,-0.5,0.0625,-0.25
1480687923173764,-0.625,0.0625,-0.4375
1480687923181279,-0.875,0.0625,-0.375
1480687923203839,-1.125,-0.0625,-0.5
1480687923226901,-0.875,0,-0.6875
1480687923243444,-0.75,0.0625,-0.5625
1480687923273028,-0.875,0.1875,-0.625
1480687923285056,-0.875,0.0625,-0.5
1480687923315135,-0.4375,0.0625,-0.5
1480687923391839,-0.375,0.0625,-0.4375
1480687923394346,-0.4375,0.0625,-0.5
1480687923407882,-0.625,0.125,-0.5
1480687923413899,-0.8125,0.0625,-0.5625
1480687923428938,-0.8125,0,-0.625
1480687923452501,-0.4375,0,-0.5625
1480687923466538,-0.25,0.125,-0.25
1480687923489101,-0.0625,0.125,0
1480687923504138,-0.0625,0.0625,-0.1875
1480687923526197,0,0.1875,-0.3125
1480687923540735,-0.1875,0.1875,-0.0625
1480687923571317,-0.1875,0.125,0
1480687923592372,0.625,0.25,0.0625
1480687923624458,0.8125,0.375,0.5625
1480687923626964,0.4375,0.1875,0.375
1480687923662559,0.3125,0.0625,0
1480687923669076,0.125,0.1875,0.0625
1480687923684117,-0.125,0.0625,0
1480687923706678,0.0625,0.0625,-0.125
1480687923722218,0.4375,0.125,0.0625
1480687923743775,0.625,0.1875,0.4375
1480687923766336,0.6875,0.1875,0.375
1480687923780874,0.625,0.3125,0.5625
1480687923804437,0.625,0.25,0.4375
1480687923828000,0.625,0.25,0.3125
1480687923849056,0.625,0.125,0.25
1480687923870110,0.3125,0.0625,0
1480687923917737,-0.0625,0.0625,0.0625
1480687923924756,-0.5625,0.0625,0
1480687923926761,-0.5625,0.0625,0.3125
1480687923947319,-0.375,0.125,0.0625
1480687923967370,0.3125,0.0625,-0.25
1480687923991434,0.0625,0.0625,-0.25
1480687924006980,0.1875,-0.25,0.1875
1480687924027530,1.125,0.25,0.25
1480687924044074,0,0.25,-0.0625
1480687924066634,-1.1875,-0.25,-0.5625
1480687924106744,-0.3125,-0.1875,0.1875
1480687924132309,0.6875,0.125,0.0625
1480687924148852,0.9375,0.1875,-0.3125
1480687924169908,0.3125,0.1875,0.1875
1480687924180436,-0.375,-0.0625,0.125
1480687924186452,0.9375,0.125,-0.125
1480687924215029,0.5625,0.3125,0.1875
1480687924224052,-0.1875,0.0625,0.1875
1480687924246612,0.3125,0.0625,0.0625
1480687924267669,0.8125,0.1875,0.125
1480687924291732,0.5,0.125,0.125
1480687924307274,0.25,0,-0.0625
1480687924330334,0.5,0,0.3125
1480687924365428,0.75,0.25,0
1480687924417065,-0.25,0.0625,-0.125
1480687924432614,-0.5,-0.0625,-0.0625
1480687924451157,0.625,0.25,0.25
1480687924456173,0.3125,0.0625,0.125
1480687924472212,0.375,0.0625,0
1480687924494772,-0.3125,0,-0.0625
1480687924508809,0.125,0,-0.125
1480687924523348,0.375,0.0625,0.375
1480687924546409,0.5625,-0.0625,0.125
1480687924568969,0.75,0.0625,-0.125
1480687924583508,0.375,-0.0625,0
1480687924606573,0.6875,-0.0625,0.1875
1480687924682772,0.75,0.0625,0.25
1480687924687284,0.3125,-0.1875,0.1875
1480687924712852,0.5,-0.125,0.0625
1480687924735413,0.3125,-0.0625,-0.0625
1480687924748948,0,-0.0625,0
1480687924770505,0.5,0,0
1480687924786548,0.1875,0.0625,0.125
1480687924809109,0.5,-0.0625,0.125
1480687924830164,0.5,0.0625,0.1875
1480687924846709,0.5625,-0.0625,0.125
1480687924868766,0.375,0.0625,-0.3125
1480687924890325,0.4375,0.0625,0.0625
1480687924913887,0.125,0.0625,0.1875
1480687924936948,0.5,0.1875,0.125
1480687924957503,0.9375,0.125,0.25
1480687924969035,0.875,0.125,0.25
1480687924989087,0.5,0.0625,-0.25
1480687925010143,-0.1875,0,-0.0625
1480687925026687,-0.125,0.0625,0.0625
1480687925050752,0.125,0.3125,0
1480687925079831,-0.75,0.0625,0.0625
1480687925092862,-0.6875,0.0625,-0.125
1480687925116425,-0.75,0.0625,-0.125
1480687925130462,-0.875,0.125,-0.25
1480687925146505,-0.8125,0.1875,-0.5
1480687925169568,-1.5625,0,-0.3125
1480687925191625,-1.125,-0.0625,-0.3125
1480687925214190,-0.375,0,0
1480687925236745,-0.1875,0.0625,0.0625
1480687925249780,-0.375,0.1875,0.0625
1480687925272844,-0.875,0.25,0.25
1480687925294899,-0.6875,0.3125,0.375
1480687925311443,-0.4375,0.375,0.3125
1480687925326484,-0.6875,0.5,0.3125
1480687925349044,-0.875,0.1875,0.375
1480687925377623,1.4375,-0.9375,0.4375
1480687925394164,4.375,0.0625,-1.3125
1480687925422742,0.625,1,0.125
1480687925438782,-3.9375,0.1875,1.3125
1480687925447305,-2.25,-0.1875,0.8125
1480687925468863,3.25,-0.0625,-0.4375
1480687925507465,4.75,0.4375,-0.0625
1480687925552084,2.375,0.4375,0.5625
1480687925554590,-0.1875,0.5,1.125
1480687925560105,-0.25,0.375,0.5
1480687925565620,1,0.5625,-0.125
1480687925589182,0.9375,0.1875,0.3125
1480687925611742,0.5625,-0.125,0.6875
1480687925625781,0.6875,0,0.625
1480687925648841,1.1875,0.0625,0.3125
1480687925680426,0.3125,0.0625,-0.1875
1480687925724541,-0.1875,-0.1875,-0.4375
1480687925745598,-0.875,0.125,-0.25
1480687925763647,-1.9375,0.375,0.3125
1480687925784201,-1.5625,0.375,0.1875
1480687925798239,-0.1875,0.1875,0.8125
1480687925812777,1,1,0.6875
1480687925828820,-0.875,0.75,0.5625
1480687925851379,-2.375,0.0625,0
1480687925872941,-0.9375,0,-0.1875
1480687925888981,0.0625,-0.1875,-0.0625
1480687925911539,0.6875,-0.1875,-0.0625
1480687925932596,0.1875,-0.0625,-0.125
1480687925956659,-0.625,0.0625,0.125
1480687925979221,-0.875,0.125,0.125
1480687926015316,-0.5,0.25,0.125
1480687926040382,0,0.25,-0.0625
1480687926045898,-0.375,0.0625,-0.125
1480687926059934,0.125,-0.5625,0.1875
1480687926070462,1.4375,-0.4375,-0.0625
1480687926091518,1.8125,-0.75,-0.1875
1480687926112574,1.5,-0.5,-0.1875
1480687926136638,0.25,-0.25,-0.125
1480687926159699,-1.125,-0.4375,-0.375
1480687926173737,-0.5625,-0.375,-0.625
1480687926189282,0.25,-0.375,-0.4375
1480687926224872,0.625,-0.4375,-0.5625
1480687926235401,1.125,-0.625,-0.5625
1480687926256456,1.1875,-0.5625,-0.8125
1480687926272502,1.25,-0.4375,-0.75
1480687926294057,0.375,0,0.1875
1480687926323135,-0.125,0.0625,0.25
1480687926339179,-0.375,0.0625,-0.125
1480687926353716,0.3125,0.0625,-0.125
1480687926368254,0.625,0.0625,-0.3125
1480687926391315,0.0625,0.125,-0.1875
1480687926414377,-0.125,0.0625,-0.25
1480687926436436,0.125,0.0625,-0.3125
1480687926452478,0.4375,0.25,-0.25
1480687926489579,0.5625,0.1875,0.125
1480687926492083,0.75,0.25,0.3125
1480687926514142,1.125,0.3125,0.3125
1480687926534196,1.1875,0.25,0.1875
1480687926556755,0.8125,0.25,0.0625
1480687926571795,0.6875,0.0625,0.125
1480687926594355,0.5,0.0625,0
1480687926608393,0.5,0,-0.3125
1480687926663038,0.4375,-0.0625,-0.3125
1480687926669056,0.3125,0.0625,-0.0625
1480687926671561,0.6875,0.125,0.125
1480687926692115,0.9375,0.1875,0.1875
1480687926714676,0.625,0.1875,0.1875
1480687926742749,0.4375,0.125,0.1875
1480687926766816,0.25,0.125,0
1480687926844019,0.4375,0.1875,0
1480687926879112,0.4375,0.1875,0
1480687926887138,0.0625,0.1875,-0.25
1480687926901672,-0.1875,0.0625,-0.3125
1480687926922731,0.125,-0.0625,-0.0625
1480687926938270,0.0625,0.0625,-0.25
1480687926955319,0.25,0.0625,-0.1875
1480687926974867,0.3125,0.125,0.0625
1480687926999935,-0.125,0.0625,-0.125
1480687927021997,-0.25,0.0625,-0.125
1480687927045560,-0.1875,0.0625,-0.0625
1480687927051571,0,0.125,-0.25
1480687927081651,0.1875,0.125,-0.375
1480687927095187,0.125,0.1875,-0.125
1480687927126771,0.25,0.1875,0.0625
1480687927148830,0.4375,0.3125,0.3125
1480687927172894,0.5625,0.125,0.125
1480687927177406,0.375,0.125,0
1480687927193950,0.125,0.125,-0.125
1480687927245589,-0.0625,0,0
1480687927270152,0.0625,0.0625,0.0625
1480687927277170,0.1875,0.0625,-0.0625
1480687927279678,0.0625,0.0625,0
1480687927291709,-0.375,-0.0625,0
1480687927314270,-0.375,-0.125,0
1480687927336328,-0.3125,-0.0625,-0.0625
1480687927379944,-0.1875,0,-0.0625
1480687927396990,-0.25,0,0
1480687927399497,-0.4375,-0.125,-0.125
1480687927433587,-0.5,-0.125,-0.3125
1480687927442611,-0.6875,-0.0625,-0.1875
1480687927458654,-0.875,-0.0625,-0.25
1480687927470686,-0.5,-0.0625,-0.125
1480687927507786,-0.125,-0.0625,-0.125
1480687927523827,-0.1875,-0.0625,0
1480687927530846,-0.375,-0.125,-0.125
1480687927553907,-0.125,0,-0.1875
1480687927576968,-0.1875,0,0.125
1480687927591005,-0.3125,-0.125,0
1480687927614066,0.5,0.125,-0.0625
1480687927637630,0.4375,0.25,0.25
1480687927650664,0,0,0.0625
1480687927673726,-0.375,-0.1875,-0.125
1480687927702301,-0.3125,0,0.0625
1480687927717341,0,0,-0.0625
1480687927741406,0.0625,-0.125,-0.25
1480687927762963,-0.1875,-0.0625,0
1480687927777505,-0.0625,-0.0625,-0.0625
1480687927801566,-0.1875,-0.0625,0.0625
1480687927824627,-0.1875,-0.0625,0
1480687927838163,-0.5,-0.125,-0.1875
1480687927860221,-0.25,-0.125,-0.1875
1480687927877266,-0.25,0.0625,0
1480687927897822,-0.25,0,0
1480687927913864,0,0,-0.1875
1480687927936424,0,-0.0625,0
1480687927957480,-0.0625,0,0.25
1480687927980040,-0.0625,0,0.0625
1480687928012125,0.0625,0,0.0625
1480687928017640,-0.1875,0,-0.0625
1480687928034686,0,0,-0.1875
1480687928070781,0,0,-0.125
1480687928077299,-0.25,0,-0.125
1480687928102365,-0.5,0,-0.0625
1480687928123923,-0.25,-0.125,-0.125
1480687928146483,-0.25,-0.125,-0.0625
1480687928155011,0.0625,0,-0.1875
1480687928176563,0.1875,0,-0.0625
1480687928199625,0,0,-0.0625
1480687928214163,-0.25,-0.125,-0.0625
1480687928236221,-0.4375,-0.125,-0.3125
1480687928258791,-0.3125,0.0625,0
1480687928279837,-0.375,-0.0625,0.125
1480687928296381,0.125,0,0
1480687928318941,0.375,0.1875,0.3125
1480687928333480,-0.125,0,0.25
1480687928364061,-0.875,-0.3125,-0.25
1480687928379602,-1.125,-0.1875,-0.375
1480687928393138,-0.8125,-0.125,-0.3125
1480687928416702,-0.375,-0.125,-0.375
1480687928439264,0.1875,0,-0.0625
1480687928453298,0.25,0.0625,0.125
1480687928477863,0.125,0.125,0.25
1480687928506441,-0.3125,0,0.1875
1480687928513458,-0.25,0.0625,0.0625
1480687928537021,-0.25,0,-0.1875
1480687928559080,-0.0625,0,-0.125
1480687928573117,-0.0625,0,-0.0625
1480687928596680,-0.125,-0.0625,-0.1875
1480687928619239,-0.3125,-0.0625,-0.1875
1480687928639795,-0.4375,-0.0625,-0.0625
1480687928656338,-0.1875,0.0625,0
1480687928686920,0.25,0.0625,0.125
1480687928707976,0.5,0.1875,0
1480687928718002,0,-0.0625,-0.1875
1480687928740061,-0.1875,-0.125,-0.125
1480687928769140,-0.25,-0.125,0.0625
1480687928784178,-0.375,-0.125,-0.125
1480687928830301,-0.1875,-0.0625,-0.1875
1480687928834813,-0.125,0,-0.125
1480687928859880,0.1875,0,-0.0625
1480687928872915,0.3125,0.0625,-0.0625
1480687928890461,-0.0625,0.0625,0.0625
1480687928912019,-0.1875,0,0.0625
1480687928934579,-0.1875,-0.1875,0.0625
1480687928957639,0.0625,-0.0625,-0.125
1480687928961650,0,0,0.125
1480687928993236,-0.5,-0.125,0.125
1480687929001256,-0.1875,0,-0.0625
1480687929016295,0.25,0.0625,0.1875
1480687929098515,0.125,0.125,0.375
1480687929116061,-0.0625,-0.125,-0.0625
1480687929122090,-0.3125,-0.0625,-0.0625
1480687929145138,-0.25,0,-0.1875
1480687929158173,-0.125,0.0625,-0.0625
1480687929182738,-0.25,0,0.0625
1480687929188756,-0.0625,-0.0625,0.1875
1480687929211314,-0.25,-0.0625,0
1480687929232372,-0.5,-0.1875,-0.125
1480687929257939,-0.5,-0.1875,-0.25
1480687929262451,-0.5,-0.0625,-0.1875
1480687929278995,-0.375,0,0
1480687929310077,-0.4375,-0.0625,-0.1875
1480687929324114,-0.4375,-0.0625,-0.0625
1480687929346674,-0.375,0,0
1480687929361714,-0.3125,0,-0.0625
1480687929375752,-0.3125,-0.125,-0.1875
1480687929398813,-0.5625,0,-0.375
1480687929421876,-0.625,-0.125,-0.5
1480687929442429,-0.8125,-0.0625,-0.375
1480687929459474,-0.8125,-0.1875,-0.4375
1480687929482034,-1,-0.25,-0.4375
1480687929502589,-0.875,-0.1875,-0.5
1480687929519132,-0.9375,-0.1875,-0.5625
1480687929548711,-1.25,-0.1875,-0.5625
1480687929577287,-1.1875,-0.25,-0.5625
1480687929595837,-1.0625,-0.1875,-0.625
1480687929632937,-1,-0.25,-0.4375
1480687929638952,-0.9375,-0.25,-0.25
1480687929655498,-0.75,-0.125,-0.5
1480687929669031,-1.0625,-0.125,-0.375
1480687929682568,-1.4375,-0.25,-0.25
1480687929699111,-0.75,-0.25,-0.375
1480687929722172,-0.25,-0.0625,-0.0625
1480687929743730,-0.625,-0.0625,-0.0625
1480687929782834,-0.875,-0.1875,-0.5625
1480687929787850,-1.125,-0.1875,-0.625
1480687929805896,-1.125,-0.1875,-0.375
1480687929826952,-0.625,-0.125,-0.375
1480687929849010,-0.0625,0,-0.3125
1480687929862546,0.1875,0.0625,0.125
1480687929879091,0.25,0.125,0.1875
1480687929924714,0.0625,0.0625,0.125
1480687929926722,0,0,0
1480687929946268,0.3125,0,-0.125
1480687929969330,0.5625,0,0.125
1480687929989884,0.5,0.0625,0.25
1480687929998909,0.4375,0.0625,0.125
1480687930022472,0.3125,0.0625,0.1875
1480687930045031,0.25,0.1875,0.25
1480687930060071,0.25,0,0.125
1480687930104690,0.25,0.125,0
1480687930111207,0.3125,0.125,0
1480687930125244,0.25,0.0625,0.0625
1480687930149308,0.25,0.0625,0.0625
1480687930165853,-0.0625,-0.125,0.0625
1480687930178385,-0.0625,-0.0625,0
1480687930201447,-0.4375,-0.0625,-0.0625
