timestamp,roll,pitch,yaw
1480687862051040,-1.16378,0.0316918,-2.39653
1480687862056053,-1.16549,0.0312809,-2.3961
1480687862071597,-1.16889,0.0304586,-2.39557
1480687862080117,-1.16994,0.0301885,-2.39571
1480687862101678,-1.17034,0.0302855,-2.39579
1480687862124234,-1.1705,0.0303236,-2.39585
1480687862153382,-1.17044,0.030418,-2.3959
1480687862161904,-1.17004,0.0305077,-2.39596
1480687862191984,-1.17005,0.030571,-2.39589
1480687862245126,-1.16992,0.0305099,-2.39592
1480687862247131,-1.16992,0.0304465,-2.39599
1480687862274705,-1.16926,0.0304139,-2.39611
1480687862288240,-1.16877,0.0306696,-2.39635
1480687862311803,-1.16835,0.0308942,-2.39649
1480687862334364,-1.16775,0.0311522,-2.3967
1480687862336870,-1.16671,0.0312733,-2.3968
1480687862350405,-1.16536,0.0314301,-2.39695
1480687862371962,-1.164,0.0315242,-2.39716
1480687862393019,-1.16363,0.0318275,-2.39769
1480687862402043,-1.16398,0.0320822,-2.39775
1480687862438640,-1.16434,0.0318885,-2.39773
1480687862445158,-1.16454,0.0317688,-2.39782
1480687862469724,-1.16439,0.0317307,-2.39775
1480687862490277,-1.16439,0.0317307,-2.39775
1480687862523365,-1.16439,0.0317307,-2.39775
1480687862527376,-1.16439,0.0317307,-2.39775
1480687862547930,-1.16498,0.0315207,-2.39779
1480687862566984,-1.16558,0.0311989,-2.39765
1480687862635165,-1.16566,0.0306331,-2.39763
1480687862637168,-1.16566,0.0306331,-2.39763
1480687862643685,-1.16566,0.0306331,-2.39763
1480687862647696,-1.16505,0.031041,-2.3976
1480687862664240,-1.16505,0.031041,-2.3976
1480687862687301,-1.16505,0.031041,-2.3976
1480687862701842,-1.1649,0.031003,-2.39753
1480687862723898,-1.16444,0.0310008,-2.39751
1480687862749969,-1.16389,0.0311649,-2.39767
1480687862775538,-1.16336,0.0313433,-2.39752
1480687862799600,-1.16289,0.031278,-2.39756
1480687862823664,-1.16205,0.0312802,-2.39776
1480687862835195,-1.16163,0.0314425,-2.39796
1480687862844721,-1.16108,0.0316071,-2.39812
1480687862888838,-1.1605,0.0317314,-2.39826
1480687862906388,-1.15984,0.0320857,-2.39852
1480687862911899,-1.15891,0.0324041,-2.39867
1480687862926939,-1.15788,0.0325897,-2.3987
1480687862940977,-1.15687,0.03269,-2.39891
1480687862964539,-1.15622,0.0326593,-2.39903
1480687862994119,-1.15609,0.0325985,-2.39906
1480687863001140,-1.15609,0.0325985,-2.39906
1480687863024197,-1.15646,0.0325302,-2.39891
1480687863046757,-1.15739,0.0322115,-2.39875
1480687863082854,-1.15819,0.0318321,-2.39863
1480687863101406,-1.15862,0.0316692,-2.39843
1480687863115942,-1.15927,0.0317003,-2.39831
1480687863134995,-1.16,0.0317384,-2.39845
1480687863146022,-1.16099,0.0315619,-2.39863
1480687863167078,-1.16236,0.031568,-2.39871
1480687863187632,-1.16391,0.0316892,-2.39848
1480687863204176,-1.16525,0.0311316,-2.39851
1480687863227738,-1.16577,0.031039,-2.3985
1480687863250300,-1.16577,0.031039,-2.3985
1480687863270351,-1.16577,0.031039,-2.3985
1480687863345052,-1.16586,0.0311716,-2.39861
1480687863392176,-1.16586,0.0311716,-2.39861
1480687863417245,-1.16582,0.0308812,-2.39852
1480687863422256,-1.16698,0.0307569,-2.39845
1480687863435291,-1.16698,0.0307569,-2.39845
1480687863444315,-1.16619,0.0306644,-2.3986
1480687863466876,-1.16535,0.030816,-2.39856
1480687863487932,-1.16529,0.0309106,-2.39861
1480687863504477,-1.16529,0.0309106,-2.39861
1480687863527535,-1.16594,0.0309421,-2.39849
1480687863600229,-1.16685,0.030696,-2.39848
1480687863615270,-1.16799,0.0302584,-2.39842
1480687863649862,-1.17114,0.0287127,-2.39813
1480687863675930,-1.17208,0.0288436,-2.39805
1480687863692474,-1.17272,0.0289624,-2.39777
1480687863694981,-1.17272,0.0289624,-2.39777
1480687863714533,-1.17257,0.0289245,-2.3977
1480687863744112,-1.17209,0.0288226,-2.39737
1480687863746619,-1.17078,0.0287368,-2.39692
1480687863775194,-1.16942,0.0288564,-2.39669
1480687863789232,-1.16796,0.0291797,-2.39624
1480687863841370,-1.16646,0.0296601,-2.39577
1480687863862426,-1.16523,0.0298395,-2.39551
1480687863902032,-1.16502,0.029896,-2.39549
1480687863917074,-1.16595,0.0300277,-2.39541
1480687863923588,-1.16595,0.0300277,-2.39541
1480687863952666,-1.16595,0.0300277,-2.39541
1480687863969711,-1.1658,0.0299896,-2.39534
1480687863991771,-1.16613,0.0299312,-2.3954
1480687864014331,-1.16656,0.0300053,-2.39558
1480687864036890,-1.16668,0.0298538,-2.39585
1480687864057946,-1.16691,0.0298981,-2.39618
1480687864066970,-1.16727,0.0300034,-2.39647
1480687864089029,-1.16794,0.0297365,-2.39683
1480687864179769,-1.16891,0.0295834,-2.39691
1480687864182276,-1.16974,0.0293058,-2.39709
1480687864204837,-1.17026,0.0290637,-2.39731
1480687864210853,-1.17041,0.0290383,-2.39745
1480687864232410,-1.17063,0.0287837,-2.39746
1480687864247450,-1.17063,0.0287837,-2.39746
1480687864270011,-1.17079,0.0288216,-2.39753
1480687864292069,-1.17058,0.0289415,-2.39744
1480687864321647,-1.17039,0.028575,-2.3977
1480687864335685,-1.17024,0.0279392,-2.3978
1480687864380804,-1.1708,0.0272891,-2.39798
1480687864389327,-1.17166,0.0263051,-2.39781
1480687864398854,-1.17274,0.0254783,-2.39736
1480687864432442,-1.17314,0.02492,-2.39655
1480687864466032,-1.17276,0.0247156,-2.39596
1480687864472549,-1.17238,0.024848,-2.39526
1480687864478064,-1.17245,0.0245827,-2.39476
1480687864500123,-1.17232,0.0245214,-2.39479
1480687864524186,-1.17238,0.024427,-2.39475
1480687864531706,-1.17232,0.0245214,-2.39479
1480687864546748,-1.17294,0.0249624,-2.39471
1480687864576826,-1.17294,0.0249624,-2.39471
1480687864592368,-1.17297,0.0249389,-2.39481
1480687864644005,-1.17297,0.0249389,-2.39481
1480687864650021,-1.17228,0.0253137,-2.39497
1480687864675589,-1.17187,0.0257877,-2.39517
1480687864680101,-1.17188,0.0258511,-2.3951
1480687864698149,-1.17188,0.0258511,-2.3951
1480687864711684,-1.17188,0.0258511,-2.3951
1480687864726224,-1.17105,0.0257646,-2.39546
1480687864756805,-1.16944,0.0261344,-2.39556
1480687864773349,-1.16868,0.0270149,-2.39547
1480687864792901,-1.16862,0.0271094,-2.39551
1480687864809945,-1.1692,0.0267733,-2.39569
1480687864847546,-1.16981,0.0263027,-2.39579
1480687864853061,-1.17155,0.025994,-2.39565
1480687864905200,-1.17367,0.0254691,-2.39561
1480687864915728,-1.1753,0.0249018,-2.3955
1480687864932272,-1.17696,0.0243747,-2.39542
1480687864965861,-1.17696,0.0243747,-2.39542
1480687864989925,-1.17679,0.024087,-2.39529
1480687864992431,-1.17596,0.0239166,-2.39504
1480687865011983,-1.17475,0.0239624,-2.3947
1480687865032539,-1.17312,0.0242315,-2.3945
1480687865058105,-1.17156,0.0244692,-2.39419
1480687865071642,-1.17016,0.0245469,-2.39393
1480687865100219,-1.16882,0.0244665,-2.3937
1480687865109743,-1.16795,0.0243026,-2.39367
1480687865146340,-1.16747,0.0248338,-2.39354
1480687865178928,-1.16703,0.025592,-2.39358
1480687865197477,-1.16651,0.0264681,-2.39355
1480687865209007,-1.1668,0.0272659,-2.39372
1480687865237082,-1.16771,0.0276569,-2.39391
1480687865242095,-1.17001,0.0275222,-2.3943
1480687865257636,-1.17331,0.0272111,-2.39486
1480687865273679,-1.17624,0.026116,-2.39569
1480687865289221,-1.17772,0.0254428,-2.39637
1480687865311783,-1.17757,0.0248538,-2.39672
1480687865332837,-1.17631,0.0246939,-2.3969
1480687865349383,-1.17445,0.0245576,-2.39693
1480687865379461,-1.17273,0.0248438,-2.39716
1480687865400015,-1.17162,0.0256572,-2.39714
1480687865446639,-1.17086,0.0265385,-2.39705
1480687865456666,-1.1693,0.0271146,-2.39662
1480687865469199,-1.16736,0.0279697,-2.39604
1480687865492260,-1.16576,0.0289147,-2.39529
1480687865494768,-1.16503,0.0293005,-2.39454
1480687865514319,-1.16524,0.0289453,-2.39425
1480687865529359,-1.16713,0.0282276,-2.39412
1480687865565456,-1.16986,0.0271474,-2.39434
1480687865574479,-1.17245,0.0260288,-2.39449
1480687865588516,-1.1742,0.0254207,-2.39483
1480687865612079,-1.17531,0.0251793,-2.39512
1480687865634639,-1.17631,0.0254869,-2.39574
1480687865685273,-1.17679,0.0258222,-2.39645
1480687865703826,-1.17671,0.0264707,-2.39709
1480687865730393,-1.17569,0.0270516,-2.39773
1480687865747439,-1.17355,0.0276858,-2.39829
1480687865755461,-1.17176,0.0283891,-2.39878
1480687865770501,-1.17089,0.028862,-2.39895
1480687865775514,-1.17006,0.0290771,-2.39883
1480687865792057,-1.1692,0.0293786,-2.39855
1480687865820132,-1.16888,0.0292658,-2.39804
1480687865842693,-1.16853,0.0285894,-2.39748
1480687865865252,-1.16686,0.0279981,-2.39692
1480687865899344,-1.16321,0.0278439,-2.39662
1480687865912378,-1.15939,0.0283585,-2.3966
1480687865914884,-1.15704,0.0291624,-2.39653
1480687865942462,-1.15614,0.0294343,-2.39723
1480687866024175,-1.15594,0.0292837,-2.3983
1480687866030692,-1.15485,0.0291695,-2.3997
1480687866070799,-1.152,0.0307386,-2.4039
1480687866089851,-1.15381,0.0299496,-2.4055
1480687866108901,-1.15673,0.0285892,-2.40718
1480687866129958,-1.15999,0.0273751,-2.4086
1480687866131460,-1.16137,0.0262541,-2.40997
1480687866136976,-1.16069,0.0253415,-2.41096
1480687866152015,-1.15877,0.025214,-2.41188
1480687866174576,-1.15687,0.0252767,-2.41258
1480687866264814,-1.15528,0.0254504,-2.413
1480687866269327,-1.15482,0.0256895,-2.41335
1480687866311439,-1.15482,0.0238872,-2.41419
1480687866312943,-1.15437,0.0229336,-2.4149
1480687866326980,-1.15091,0.021088,-2.41591
1480687866332996,-1.14857,0.0209206,-2.41622
1480687866354553,-1.14846,0.0217408,-2.41537
1480687866377113,-1.1502,0.0226512,-2.41379
1480687866399172,-1.1533,0.0232256,-2.4124
1480687866421732,-1.15658,0.0236437,-2.41108
1480687866436772,-1.16049,0.0236318,-2.40989
1480687866474876,-1.1638,0.0231396,-2.40854
1480687866477380,-1.16635,0.0228617,-2.40766
1480687866550578,-1.16794,0.0225459,-2.4067
1480687866557093,-1.16925,0.0221339,-2.4057
1480687866562607,-1.17312,0.0219013,-2.40389
1480687866578649,-1.17569,0.0216696,-2.40339
1480687866594190,-1.17912,0.0211347,-2.40317
1480687866617253,-1.18222,0.0205096,-2.40313
1480687866631290,-1.18475,0.0196415,-2.40378
1480687866654853,-1.1872,0.0187687,-2.40417
1480687866676910,-1.18869,0.0178209,-2.40409
1480687866691950,-1.18869,0.0178209,-2.40409
1480687866728547,-1.18868,0.0177569,-2.40416
1480687866765145,-1.18824,0.0182856,-2.40382
1480687866812271,-1.18773,0.0186592,-2.40346
1480687866814777,-1.18721,0.0189045,-2.40324
1480687866821294,-1.18413,0.019186,-2.40317
1480687866834329,-1.18205,0.0195602,-2.40324
1480687866856889,-1.17953,0.0200612,-2.40314
1480687866877946,-1.17644,0.0203853,-2.40366
1480687866894990,-1.17289,0.0208608,-2.40392
1480687866917551,-1.16944,0.0218691,-2.40411
1480687866954649,-1.16635,0.0227321,-2.40454
1480687866957156,-1.16389,0.0236487,-2.40474
1480687866977210,-1.1625,0.0239691,-2.40487
1480687866998265,-1.16188,0.0245281,-2.4046
1480687867045892,-1.16035,0.0250855,-2.40428
1480687867073465,-1.15858,0.0257718,-2.40408
1480687867090513,-1.15726,0.0264588,-2.40391
1480687867110063,-1.15639,0.0270209,-2.40391
1480687867120591,-1.15595,0.02793,-2.4037
1480687867134630,-1.15572,0.0291176,-2.4034
1480687867136633,-1.15546,0.0297811,-2.40342
1480687867141145,-1.15521,0.0302965,-2.40368
1480687867162201,-1.15527,0.030775,-2.4039
1480687867187769,-1.15582,0.0311462,-2.40442
1480687867238906,-1.15702,0.0314832,-2.40489
1480687867248933,-1.15762,0.0316461,-2.40519
1480687867262468,-1.15836,0.0317705,-2.40594
1480687867264975,-1.15923,0.0320177,-2.40659
1480687867289539,-1.15972,0.0324195,-2.40723
1480687867304580,-1.15949,0.0329734,-2.40786
1480687867322628,-1.15876,0.0335115,-2.408
1480687867376271,-1.15767,0.0339956,-2.40809
1480687867389806,-1.15624,0.0342154,-2.40825
1480687867391811,-1.15625,0.0342784,-2.40818
1480687867409859,-1.15619,0.0343734,-2.40823
1480687867433423,-1.15622,0.0343512,-2.40833
1480687867456984,-1.15639,0.0342531,-2.40832
1480687867463505,-1.15675,0.0341201,-2.40823
1480687867484560,-1.15681,0.0340251,-2.40819
1480687867539204,-1.15671,0.0345522,-2.40783
1480687867555246,-1.15555,0.0349787,-2.40742
1480687867561764,-1.1537,0.0350637,-2.40713
1480687867564270,-1.1519,0.0353764,-2.40701
1480687867601872,-1.15056,0.0358366,-2.40668
1480687867605881,-1.14956,0.0359535,-2.40657
1480687867643982,-1.14884,0.0361569,-2.40681
1480687867652505,-1.14822,0.0364425,-2.40692
1480687867689103,-1.14791,0.0372019,-2.40699
1480687867698629,-1.14734,0.0373923,-2.40705
1480687867711161,-1.14737,0.0373703,-2.40715
1480687867757283,-1.14678,0.0376453,-2.40705
1480687867759790,-1.1463,0.037928,-2.40685
1480687867765305,-1.14489,0.0379712,-2.40657
1480687867829977,-1.14334,0.0380057,-2.40657
1480687867841508,-1.14212,0.0383156,-2.40652
1480687867862563,-1.14203,0.0384532,-2.40602
1480687867863064,-1.1415,0.0384438,-2.40574
1480687867876099,-1.14003,0.0382463,-2.40561
1480687867898660,-1.13869,0.0384957,-2.40559
1480687867904676,-1.13785,0.038588,-2.40562
1480687867921219,-1.1378,0.0387456,-2.4056
1480687867967847,-1.1378,0.0387456,-2.4056
1480687867969849,-1.13788,0.0386282,-2.40565
1480687867995918,-1.13772,0.0385279,-2.40566
1480687868018478,-1.13788,0.0386282,-2.40565
1480687868042041,-1.13723,0.0387471,-2.40553
1480687868080643,-1.13648,0.0389732,-2.40568
1480687868086660,-1.13565,0.0391276,-2.40564
1480687868089166,-1.13565,0.0391276,-2.40564
1480687868110724,-1.1355,0.0390894,-2.40557
1480687868122253,-1.1356,0.0388362,-2.40555
1480687868152334,-1.13615,0.0391785,-2.40538
1480687868178905,-1.13675,0.0393633,-2.40523
1480687868191939,-1.13675,0.0393633,-2.40523
1480687868229038,-1.13659,0.039325,-2.40516
1480687868234052,-1.13659,0.039325,-2.40516
1480687868269144,-1.13659,0.039325,-2.40516
1480687868273656,-1.13604,0.0395775,-2.40516
1480687868298724,-1.13605,0.0396396,-2.40509
1480687868343843,-1.13605,0.0396396,-2.40509
1480687868355374,-1.1359,0.0396013,-2.40502
1480687868380440,-1.13584,0.0401126,-2.40444
1480687868388462,-1.13663,0.0403242,-2.40414
1480687868410019,-1.13725,0.0405816,-2.40361
1480687868431075,-1.13847,0.0406899,-2.40304
1480687868452130,-1.1403,0.040787,-2.40232
1480687868476696,-1.14183,0.0406822,-2.40126
1480687868482211,-1.14312,0.0407092,-2.40033
1480687868522318,-1.14348,0.0409954,-2.39962
1480687868544878,-1.14338,0.0416664,-2.39902
1480687868564933,-1.14256,0.042278,-2.39873
1480687868574958,-1.14152,0.0426,-2.39884
1480687868620579,-1.14003,0.0426598,-2.39899
1480687868642136,-1.13812,0.0423092,-2.39908
1480687868644643,-1.13538,0.0417235,-2.39899
1480687868666201,-1.13298,0.0413486,-2.39859
1480687868687758,-1.13191,0.0405702,-2.39766
1480687868695279,-1.13169,0.0393146,-2.39657
1480687868710820,-1.13212,0.0379434,-2.3956
1480687868729870,-1.1326,0.036657,-2.39503
1480687868752430,-1.13326,0.0357677,-2.39488
1480687868777497,-1.13482,0.0348741,-2.3951
1480687868798553,-1.13736,0.0342046,-2.3953
1480687868804568,-1.13968,0.033518,-2.39588
1480687868851694,-1.14178,0.0327288,-2.39699
1480687868854200,-1.14348,0.0317895,-2.39779
1480687868872248,-1.14528,0.030731,-2.39864
1480687868887288,-1.14657,0.0302251,-2.39925
1480687868905838,-1.14788,0.0297806,-2.3998
1480687868940931,-1.14916,0.0289597,-2.40043
1480687868963993,-1.14987,0.0277309,-2.4013
1480687868966500,-1.15054,0.0266592,-2.40214
1480687868992066,-1.15144,0.0258428,-2.403
1480687869010115,-1.15226,0.0252063,-2.40373
1480687869032175,-1.15304,0.0247269,-2.40444
1480687869052226,-1.15405,0.0241039,-2.40533
1480687869078296,-1.15404,0.0234721,-2.40627
1480687869108379,-1.15387,0.0230005,-2.40714
1480687869111885,-1.15391,0.0224216,-2.40779
1480687869129933,-1.15439,0.0213812,-2.40872
1480687869150989,-1.1553,0.0204123,-2.40981
1480687869172045,-1.15673,0.0195344,-2.41102
1480687869187085,-1.15764,0.0184149,-2.41236
1480687869209645,-1.15794,0.017196,-2.41368
1480687869228696,-1.15811,0.016527,-2.41454
1480687869251256,-1.15857,0.0164027,-2.41549
1480687869273315,-1.15888,0.0157929,-2.41632
1480687869288355,-1.15956,0.0150123,-2.41747
1480687869309912,-1.16063,0.0138755,-2.41863
1480687869332474,-1.16137,0.0129485,-2.41949
1480687869352024,-1.16277,0.0127052,-2.41998
1480687869367069,-1.1643,0.0127959,-2.42005
1480687869391128,-1.16428,0.0128189,-2.41995
1480687869404664,-1.16428,0.0128189,-2.41995
1480687869443267,-1.16377,0.0131292,-2.41966
1480687869458311,-1.16289,0.0135738,-2.41946
1480687869464824,-1.16186,0.0139188,-2.41926
1480687869487384,-1.1615,0.0142651,-2.41903
1480687869504931,-1.1611,0.0145713,-2.41878
1480687869524482,-1.161,0.0150365,-2.41849
1480687869547042,-1.16095,0.0155551,-2.41791
1480687869565092,-1.16034,0.0163294,-2.41733
1480687869587651,-1.1596,0.0166582,-2.41665
1480687869645805,-1.15957,0.017278,-2.41637
1480687869656333,-1.15941,0.0178382,-2.41613
1480687869662349,-1.15992,0.0183379,-2.41593
1480687869675384,-1.16036,0.0185704,-2.41554
1480687869684910,-1.16105,0.0190349,-2.41527
1480687869704461,-1.16159,0.0192756,-2.41479
1480687869728525,-1.16178,0.0196391,-2.41453
1480687869745570,-1.16243,0.0198771,-2.4141
1480687869789687,-1.16259,0.019914,-2.41416
1480687869794701,-1.16259,0.019914,-2.41416
1480687869821272,-1.16202,0.0201688,-2.41416
1480687869826787,-1.16202,0.0201688,-2.41416
1480687869847341,-1.16187,0.0201319,-2.41409
1480687869869902,-1.16187,0.0201319,-2.41409
1480687869887448,-1.16155,0.0202562,-2.41396
1480687869923544,-1.1607,0.0205629,-2.41369
1480687869937581,-1.15959,0.0211352,-2.41361
1480687869968664,-1.1592,0.0217401,-2.41366
1480687869986210,-1.16008,0.0219582,-2.41362
1480687869991224,-1.16156,0.0217007,-2.41368
1480687870016796,-1.16312,0.0217241,-2.41361
1480687870027319,-1.16411,0.0216892,-2.41354
1480687870053389,-1.16408,0.021712,-2.41344
1480687870071939,-1.16401,0.0215572,-2.41343
1480687870096002,-1.16332,0.0213036,-2.41339
1480687870120568,-1.16293,0.0208876,-2.41311
1480687870167195,-1.16208,0.020198,-2.41318
1480687870187245,-1.16088,0.0196804,-2.41372
1480687870189751,-1.15885,0.0190246,-2.41471
1480687870195266,-1.15682,0.0182226,-2.41594
1480687870210307,-1.15585,0.0174783,-2.41719
1480687870232366,-1.15606,0.0167016,-2.41831
1480687870283003,-1.15628,0.0162605,-2.41934
1480687870295031,-1.15687,0.0164064,-2.41995
1480687870314084,-1.15821,0.0166189,-2.41992
1480687870316590,-1.15969,0.0164196,-2.41991
1480687870330125,-1.16052,0.0163448,-2.41977
1480687870352685,-1.16131,0.0164914,-2.41954
1480687870381762,-1.16259,0.0166261,-2.41912
1480687870387278,-1.16422,0.0167623,-2.41869
1480687870420866,-1.16533,0.0169968,-2.41827
1480687870444931,-1.16669,0.0171013,-2.41774
1480687870465485,-1.16794,0.0170116,-2.41716
1480687870493560,-1.16935,0.0169593,-2.41665
1480687870509101,-1.17095,0.0167227,-2.4163
1480687870511608,-1.17263,0.0164912,-2.4162
1480687870538680,-1.17414,0.0165445,-2.41625
1480687870547705,-1.17516,0.016735,-2.41635
1480687870567257,-1.17524,0.0173377,-2.41643
1480687870589821,-1.17434,0.0181033,-2.41644
1480687870614381,-1.17295,0.0188308,-2.41639
1480687870629922,-1.17132,0.0195022,-2.41633
1480687870658499,-1.16934,0.020172,-2.41629
1480687870698029,-1.16709,0.0210443,-2.41651
1480687870703532,-1.16471,0.0213459,-2.41677
1480687870717067,-1.16269,0.0219624,-2.41702
1480687870727596,-1.16097,0.0222903,-2.41716
1480687870748652,-1.15941,0.0229055,-2.41743
1480687870771212,-1.15777,0.0234518,-2.41751
1480687870830871,-1.1567,0.0238681,-2.41746
1480687870855436,-1.15666,0.0240263,-2.41743
1480687870868972,-1.15735,0.0236554,-2.41696
1480687870893036,-1.15959,0.0220601,-2.4167
1480687870914092,-1.16214,0.0202392,-2.41741
1480687870916598,-1.16578,0.0177646,-2.41857
1480687870934646,-1.16942,0.0154311,-2.42064
1480687870952695,-1.17274,0.0134514,-2.42295
1480687870980267,-1.17745,0.0102188,-2.42531
1480687870994806,-1.18116,0.00891656,-2.42673
1480687871017367,-1.18289,0.00810563,-2.42798
1480687871027393,-1.18377,0.00745709,-2.42919
1480687871049955,-1.18395,0.00743864,-2.4298
1480687871086551,-1.18363,0.00813577,-2.42995
1480687871100589,-1.18307,0.0090583,-2.4297
1480687871108609,-1.18208,0.00997843,-2.42921
1480687871129666,-1.18056,0.0110213,-2.42864
1480687871148214,-1.17902,0.0118146,-2.42801
1480687871174784,-1.17726,0.0130505,-2.42749
1480687871189825,-1.17546,0.0144442,-2.42696
1480687871212385,-1.17341,0.0151841,-2.42658
1480687871230935,-1.17084,0.0159594,-2.4263
1480687871249486,-1.16873,0.0168791,-2.42581
1480687871275051,-1.16686,0.0173045,-2.42574
1480687871294604,-1.16531,0.018201,-2.42563
1480687871325184,-1.16377,0.0191605,-2.42545
1480687871342731,-1.16207,0.020169,-2.42502
1480687871354763,-1.16039,0.0211544,-2.4247
1480687871402389,-1.15874,0.0218549,-2.42455
1480687871404897,-1.1578,0.0227198,-2.4246
1480687871417430,-1.15774,0.0228153,-2.42464
1480687871436982,-1.15807,0.0229006,-2.42446
1480687871469568,-1.15806,0.0228377,-2.42453
1480687871472075,-1.15745,0.02247,-2.42455
1480687871489622,-1.15583,0.022551,-2.42467
1480687871515693,-1.15433,0.0226284,-2.42483
1480687871551790,-1.15262,0.02243,-2.42508
1480687871554294,-1.14882,0.022035,-2.42613
1480687871574848,-1.14328,0.021911,-2.42808
1480687871597910,-1.13737,0.0217499,-2.43035
1480687871619969,-1.13205,0.0213209,-2.43273
1480687871642529,-1.12879,0.0195742,-2.435
1480687871670102,-1.12746,0.0183528,-2.43809
1480687871680129,-1.12904,0.0189106,-2.43836
1480687871699681,-1.13211,0.0182506,-2.43876
1480687871753825,-1.13391,0.0172939,-2.43915
1480687871777388,-1.13439,0.016463,-2.43977
1480687871805964,-1.13806,0.0157663,-2.44033
1480687871814988,-1.13756,0.0163193,-2.44041
1480687871830028,-1.13495,0.0174058,-2.44055
1480687871851084,-1.13129,0.0190661,-2.44039
1480687871876150,-1.1278,0.020787,-2.43952
1480687872002486,-1.12505,0.0230114,-2.43775
1480687872032066,-1.1233,0.0250412,-2.43548
1480687872055195,-1.14364,0.0288597,-2.4228
1480687872070235,-1.14726,0.0282197,-2.42091
1480687872092795,-1.14803,0.0284741,-2.41861
1480687872112347,-1.14692,0.0279983,-2.41605
1480687872130897,-1.14598,0.0291555,-2.41416
1480687872152454,-1.14587,0.0301539,-2.41231
1480687872196570,-1.1468,0.0302171,-2.41085
1480687872199083,-1.1479,0.0298483,-2.40948
1480687872235675,-1.14836,0.029454,-2.40824
1480687872257233,-1.14876,0.0299398,-2.407
1480687872259738,-1.14863,0.0302077,-2.40579
1480687872316390,-1.14777,0.0300196,-2.40507
1480687872326416,-1.14626,0.0301891,-2.40461
1480687872333937,-1.14206,0.030468,-2.40399
1480687872362011,-1.13932,0.0309948,-2.40373
1480687872370032,-1.13589,0.0316833,-2.40316
1480687872392593,-1.13274,0.0329175,-2.40268
1480687872412145,-1.12928,0.034461,-2.4022
1480687872437712,-1.12527,0.0357965,-2.40198
1480687872452752,-1.12127,0.036394,-2.40218
1480687872479839,-1.1177,0.0370688,-2.40255
1480687872489851,-1.11447,0.0374898,-2.40298
1480687872514417,-1.11167,0.0378458,-2.40382
1480687872534971,-1.10906,0.0382285,-2.40451
1480687872558032,-1.10753,0.0385785,-2.40517
1480687872580592,-1.10708,0.0386205,-2.40584
1480687872602765,-1.10727,0.0376463,-2.4065
1480687872614798,-1.10768,0.0364713,-2.40743
1480687872633347,-1.10845,0.0348762,-2.40877
1480687872654402,-1.10986,0.0325083,-2.41047
1480687872675458,-1.11184,0.0299036,-2.41296
1480687872693004,-1.11538,0.0277706,-2.41511
1480687872713560,-1.12043,0.0259285,-2.41699
1480687872730103,-1.12625,0.023968,-2.41858
1480687872758680,-1.13107,0.0222898,-2.41972
1480687872790764,-1.13463,0.0214877,-2.42049
1480687872811820,-1.13718,0.0216319,-2.42056
1480687872814327,-1.13728,0.0217938,-2.41991
1480687872852428,-1.13547,0.0224926,-2.41915
1480687872872985,-1.13306,0.0236658,-2.41829
1480687872876994,-1.13129,0.0250052,-2.41705
1480687872893538,-1.13052,0.0256886,-2.41602
1480687872914595,-1.13033,0.0260421,-2.41486
1480687872932642,-1.1307,0.0265893,-2.41375
1480687872953698,-1.13102,0.027233,-2.41269
1480687872974754,-1.13132,0.0278155,-2.41171
1480687872994306,-1.13188,0.0281823,-2.41076
1480687873014861,-1.13203,0.0283308,-2.4099
1480687873035916,-1.13166,0.0285752,-2.40906
1480687873075522,-1.13133,0.0291328,-2.4082
1480687873088556,-1.13081,0.0297876,-2.40735
1480687873094575,-1.13093,0.030552,-2.4062
1480687873127660,-1.13039,0.031038,-2.40513
1480687873135181,-1.12945,0.0317619,-2.40387
1480687873157741,-1.12849,0.0324135,-2.403
1480687873172780,-1.1275,0.0333287,-2.4024
1480687873194840,-1.12672,0.0345213,-2.40171
1480687873214893,-1.12699,0.0351774,-2.40087
1480687873232440,-1.1272,0.0352287,-2.39996
1480687873262519,-1.12698,0.0352041,-2.39888
1480687873328194,-1.12668,0.0357459,-2.39781
1480687873344237,-1.12649,0.0365447,-2.39671
1480687873366803,-1.12321,0.0366634,-2.39516
1480687873369303,-1.12126,0.0369612,-2.39445
1480687873391362,-1.12052,0.0369641,-2.39346
1480687873394370,-1.12115,0.0368476,-2.39235
1480687873412418,-1.12274,0.0362569,-2.39111
1480687873434978,-1.12429,0.0355358,-2.39033
1480687873457545,-1.1248,0.0348047,-2.39012
1480687873472577,-1.12495,0.0343951,-2.39013
1480687873495138,-1.12469,0.033763,-2.39021
1480687873517698,-1.12379,0.0335484,-2.39047
1480687873540258,-1.12299,0.033866,-2.39067
1480687873578860,-1.12232,0.0343059,-2.39075
1480687873600419,-1.12121,0.0348026,-2.39075
1480687873604428,-1.12025,0.035034,-2.3905
1480687873622476,-1.11898,0.0350338,-2.39069
1480687873636013,-1.11704,0.0350255,-2.3909
1480687873660076,-1.11493,0.0350527,-2.39119
1480687873675117,-1.11335,0.0350276,-2.3915
1480687873696173,-1.11173,0.0350467,-2.3916
1480687873712717,-1.10985,0.0347516,-2.39165
1480687873735276,-1.10785,0.0347313,-2.39161
1480687873755831,-1.1057,0.0346718,-2.39151
1480687873780899,-1.10372,0.034772,-2.39134
1480687873795436,-1.10229,0.035019,-2.39098
1480687873837549,-1.10139,0.035152,-2.3907
1480687873855597,-1.10127,0.0350911,-2.39074
1480687873879661,-1.10138,0.0352339,-2.39053
1480687873899714,-1.10208,0.035227,-2.39028
1480687873904727,-1.103,0.0349681,-2.39005
1480687873914253,-1.10401,0.0348451,-2.38993
1480687873937314,-1.10524,0.0346728,-2.38951
1480687873951351,-1.10631,0.0341479,-2.38905
1480687873981431,-1.10712,0.0335013,-2.38866
1480687873996972,-1.10804,0.0329903,-2.38838
1480687874018028,-1.10854,0.0326539,-2.38798
1480687874041591,-1.10915,0.0323102,-2.38794
1480687874056631,-1.11018,0.0321061,-2.38799
1480687874117292,-1.11151,0.0320609,-2.38812
1480687874119801,-1.11347,0.0317437,-2.38771
1480687874133335,-1.11583,0.0314944,-2.38789
1480687874153390,-1.118,0.0311093,-2.38793
1480687874170935,-1.12038,0.0309204,-2.38805
1480687874176951,-1.12232,0.0307263,-2.38815
1480687874197508,-1.12462,0.0302577,-2.38841
1480687874214551,-1.12659,0.0296391,-2.38891
1480687874238114,-1.1283,0.0289806,-2.38932
1480687874266693,-1.1302,0.0285901,-2.38995
1480687874274210,-1.13212,0.0282098,-2.39026
1480687874302786,-1.13394,0.0277448,-2.39071
1480687874317825,-1.13557,0.0276498,-2.39112
1480687874340385,-1.13672,0.0273824,-2.39129
1480687874356429,-1.1375,0.027183,-2.39161
1480687874400045,-1.13844,0.0270219,-2.392
1480687874432131,-1.13941,0.0269343,-2.392
1480687874434639,-1.14024,0.0267854,-2.39204
1480687874455693,-1.14024,0.0267854,-2.39204
1480687874460206,-1.14055,0.0268127,-2.39192
1480687874476748,-1.14055,0.0268127,-2.39192
1480687874497805,-1.14055,0.0268127,-2.39192
1480687874514851,-1.14055,0.0268127,-2.39192
1480687874536909,-1.1404,0.0267743,-2.39185
1480687874565485,-1.1404,0.0267743,-2.39185
1480687874575015,-1.14069,0.027384,-2.39188
1480687874596566,-1.14053,0.0273455,-2.39181
1480687874619127,-1.14053,0.0273455,-2.39181
1480687874664749,-1.14053,0.0273455,-2.39181
1480687874667256,-1.14096,0.0271822,-2.39161
1480687874689815,-1.14204,0.0266957,-2.39183
1480687874694326,-1.14441,0.0260638,-2.39212
1480687874732930,-1.14662,0.0253931,-2.39233
1480687874737945,-1.14804,0.0247005,-2.39285
1480687874753985,-1.14888,0.024194,-2.39344
1480687874778051,-1.14915,0.0240215,-2.39386
1480687874797601,-1.14879,0.0237943,-2.3945
1480687874814146,-1.14803,0.0235962,-2.39527
1480687874836705,-1.14768,0.0231311,-2.39553
1480687874857761,-1.14729,0.0225849,-2.3954
1480687874897868,-1.14745,0.0219986,-2.39495
1480687874902883,-1.14815,0.0214447,-2.39435
1480687874925441,-1.14855,0.0210533,-2.39399
1480687874948503,-1.14955,0.0209551,-2.39377
1480687874973069,-1.15029,0.0204207,-2.39364
1480687874985100,-1.14993,0.0201026,-2.39366
1480687875002146,-1.149,0.020119,-2.39351
1480687875024204,-1.14798,0.020512,-2.39325
1480687875039244,-1.14681,0.0213764,-2.39291
1480687875054284,-1.14591,0.0224252,-2.39243
1480687875076844,-1.14471,0.023011,-2.39168
1480687875099405,-1.143,0.0230984,-2.39102
1480687875113443,-1.14122,0.0234265,-2.39016
1480687875152545,-1.13877,0.02389,-2.38908
1480687875188641,-1.1375,0.0243025,-2.38864
1480687875227244,-1.13756,0.0250536,-2.38847
1480687875229751,-1.13789,0.0252491,-2.38858
1480687875259831,-1.13801,0.0247041,-2.38905
1480687875281388,-1.13717,0.0248518,-2.38901
1480687875285901,-1.13637,0.0251673,-2.3892
1480687875301943,-1.13544,0.0252754,-2.38967
1480687875322998,-1.1344,0.0256365,-2.39016
1480687875346562,-1.13347,0.0256841,-2.3907
1480687875353581,-1.13341,0.0257796,-2.39075
1480687875376641,-1.13347,0.0256841,-2.3907
1480687875407725,-1.13334,0.0256228,-2.39074
1480687875429281,-1.13328,0.0257183,-2.39078
1480687875450337,-1.13329,0.0257797,-2.39071
1480687875504982,-1.13379,0.025627,-2.39076
1480687875511500,-1.13463,0.0254787,-2.39079
1480687875514007,-1.13541,0.0254873,-2.3908
1480687875519020,-1.13577,0.0253576,-2.39071
1480687875540075,-1.13577,0.0253576,-2.39071
1480687875557121,-1.13577,0.0253576,-2.39071
1480687875579180,-1.13577,0.0253576,-2.39071
1480687875600235,-1.13489,0.0254555,-2.39096
1480687875624300,-1.13489,0.0254555,-2.39096
1480687875639340,-1.13427,0.0251604,-2.39082
1480687875683959,-1.13341,0.0251406,-2.39056
1480687875690476,-1.13259,0.0254117,-2.39039
1480687875699500,-1.132,0.0254301,-2.39023
1480687875731084,-1.13142,0.0248549,-2.39025
1480687875760663,-1.13175,0.0244112,-2.39017
1480687875763169,-1.13285,0.0244473,-2.39007
1480687875780214,-1.13411,0.0241356,-2.3899
1480687875796758,-1.13411,0.0241356,-2.3899
1480687875819820,-1.13319,0.0240038,-2.38999
1480687875840374,-1.13219,0.0241631,-2.39014
1480687875856918,-1.13083,0.0244251,-2.39003
1480687875885494,-1.12888,0.0242233,-2.39012
1480687875902040,-1.12673,0.0243817,-2.39049
1480687875916577,-1.12487,0.0247963,-2.39033
1480687875939140,-1.12317,0.0251658,-2.39042
1480687875962198,-1.12109,0.0251791,-2.3905
1480687876022358,-1.11929,0.0255967,-2.39091
1480687876024865,-1.11815,0.0256578,-2.39107
1480687876043916,-1.11729,0.0259285,-2.39155
1480687876045921,-1.11644,0.0261995,-2.39203
1480687876059458,-1.11501,0.0263453,-2.3926
1480687876082022,-1.11344,0.0265743,-2.39297
1480687876096054,-1.11227,0.0267112,-2.39327
1480687876120117,-1.11133,0.0270529,-2.39333
1480687876142679,-1.11067,0.0274945,-2.39342
1480687876156215,-1.11067,0.0275549,-2.39335
1480687876200834,-1.11083,0.0275936,-2.39341
1480687876222390,-1.11067,0.0275549,-2.39335
1480687876262497,-1.11067,0.0275549,-2.39335
1480687876270518,-1.11099,0.027641,-2.39316
1480687876276035,-1.11311,0.027223,-2.39272
1480687876299094,-1.11512,0.0269982,-2.39238
1480687876321654,-1.11715,0.0268349,-2.39197
1480687876336193,-1.11878,0.0265722,-2.39149
1480687876365271,-1.12017,0.0263802,-2.39121
1480687876381817,-1.12091,0.0261579,-2.39106
1480687876402870,-1.12166,0.0263333,-2.39073
1480687876419414,-1.12245,0.0265472,-2.39042
1480687876441974,-1.12328,0.026399,-2.39045
1480687876477569,-1.12438,0.0264955,-2.39027
1480687876511158,-1.1258,0.0265353,-2.39015
1480687876524694,-1.12645,0.0264217,-2.39026
1480687876539734,-1.12675,0.0263875,-2.39022
1480687876562294,-1.1278,0.026435,-2.39033
1480687876567308,-1.12883,0.0263138,-2.39021
1480687876582850,-1.12969,0.0260928,-2.3901
1480687876599393,-1.13082,0.025658,-2.39003
1480687876621952,-1.13234,0.0249865,-2.39015
1480687876643009,-1.13316,0.024777,-2.39026
1480687876673092,-1.13384,0.0245288,-2.39029
1480687876681615,-1.13453,0.0247057,-2.39049
1480687876769846,-1.13517,0.024676,-2.39044
1480687876795414,-1.13576,0.0246572,-2.39059
1480687876803938,-1.1372,0.0238959,-2.39097
1480687876807947,-1.1372,0.0238959,-2.39097
1480687876823989,-1.1372,0.0238959,-2.39097
1480687876839030,-1.13721,0.0239575,-2.3909
1480687876861589,-1.13734,0.0238727,-2.3911
1480687876884150,-1.13801,0.0236735,-2.39139
1480687876905207,-1.13836,0.0234822,-2.39137
1480687876929771,-1.13851,0.0235206,-2.39144
1480687876945814,-1.13851,0.0235206,-2.39144
1480687876959349,-1.138,0.023404,-2.39177
1480687876987926,-1.13705,0.023553,-2.3917
1480687877017504,-1.13684,0.02361,-2.39168
1480687877067137,-1.13684,0.02361,-2.39168
1480687877071148,-1.13758,0.0235354,-2.39129
1480687877078668,-1.1366,0.0230068,-2.391
1480687877101729,-1.1366,0.0230068,-2.391
1480687877124288,-1.13662,0.0229838,-2.3911
1480687877138828,-1.13634,0.0232378,-2.39052
1480687877161888,-1.13505,0.0232872,-2.38985
1480687877208011,-1.13273,0.0235059,-2.38954
1480687877215536,-1.13055,0.0242447,-2.38894
1480687877221547,-1.1283,0.0248604,-2.38902
1480687877244107,-1.12592,0.0253646,-2.38889
1480687877258646,-1.12427,0.0254784,-2.38838
1480687877281711,-1.1234,0.02525,-2.38721
1480687877311787,-1.12128,0.0251868,-2.38646
1480687877342870,-1.11794,0.0232771,-2.38465
1480687877347883,-1.11266,0.0260715,-2.38272
1480687877363927,-1.10829,0.0273737,-2.38121
1480687877402027,-1.10508,0.0285314,-2.37972
1480687877410550,-1.10467,0.0274115,-2.37957
1480687877425088,-1.10537,0.025853,-2.37978
1480687877463189,-1.10867,0.0248301,-2.37984
1480687877470710,-1.11497,0.0242864,-2.37915
1480687877505803,-1.12459,0.0223995,-2.37777
1480687877515332,-1.13683,0.0190111,-2.37683
1480687877529867,-1.1481,0.015326,-2.37585
1480687877551425,-1.15915,0.0107903,-2.37478
1480687877565462,-1.1694,0.00725723,-2.37357
1480687877582008,-1.17809,0.00445391,-2.37193
1480687877611584,-1.18479,0.00282467,-2.37015
1480687877626624,-1.1908,0.00248575,-2.36837
1480687877641163,-1.19669,0.00238586,-2.36693
1480687877664726,-1.20117,0.00116071,-2.3658
1480687877692801,-1.20379,-0.000597924,-2.36523
1480687877701825,-1.2063,-0.00128096,-2.36469
1480687877740928,-1.20738,-0.00167462,-2.36428
1480687877744939,-1.20617,-0.00179631,-2.36418
1480687877761985,-1.20466,-0.00135708,-2.36383
1480687877784545,-1.20389,-0.000885338,-2.36245
1480687877806603,-1.20414,-0.00077787,-2.36078
1480687877822145,-1.20524,-0.00066936,-2.3597
1480687877851724,-1.20651,-0.000683636,-2.35903
1480687877868769,-1.20863,-0.0010117,-2.35896
1480687877881803,-1.21041,-0.000880301,-2.35865
1480687877904363,-1.21136,-0.000344664,-2.35918
1480687877926923,-1.20997,0.000199854,-2.36029
1480687877940960,-1.20478,0.000520557,-2.36231
1480687877964021,-1.19609,0.00160214,-2.36441
1480687877986581,-1.18644,0.00369985,-2.36557
1480687878009141,-1.17889,0.00544715,-2.36573
1480687878024181,-1.17479,0.00736535,-2.36506
1480687878046743,-1.17349,0.00853608,-2.3639
1480687878069301,-1.17469,0.00938784,-2.3629
1480687878084341,-1.17756,0.0100736,-2.36249
1480687878122944,-1.17987,0.0101887,-2.36254
1480687878127957,-1.18114,0.0103189,-2.36288
1480687878144502,-1.18083,0.0106789,-2.3636
1480687878172576,-1.17884,0.0110949,-2.36432
1480687878181099,-1.17576,0.0122833,-2.36513
1480687878204160,-1.17254,0.0138568,-2.36605
1480687878226720,-1.16959,0.0152644,-2.36659
1480687878241259,-1.16656,0.0166031,-2.36695
1480687878264320,-1.1632,0.0181465,-2.36702
1480687878286880,-1.1608,0.0199588,-2.36686
1480687878317963,-1.15945,0.0213035,-2.36635
1480687878323979,-1.15834,0.0216125,-2.3659
1480687878361579,-1.15666,0.0225016,-2.36612
1480687878375115,-1.15564,0.0239828,-2.36658
1480687878384139,-1.15509,0.0252378,-2.36668
1480687878406698,-1.15496,0.0260842,-2.36653
1480687878428757,-1.15423,0.0268814,-2.36629
1480687878451317,-1.15318,0.0277942,-2.36592
1480687878466861,-1.15169,0.028949,-2.36558
1480687878487414,-1.15034,0.030143,-2.36531
1480687878504974,-1.14851,0.030379,-2.36516
1480687878526517,-1.1472,0.0300448,-2.36534
1480687878548077,-1.14689,0.0291653,-2.36558
1480687878565125,-1.14761,0.0283073,-2.36589
1480687878594701,-1.14987,0.0271949,-2.36614
1480687878608736,-1.15245,0.025714,-2.36647
1480687878632299,-1.15494,0.0237395,-2.36722
1480687878646837,-1.15814,0.0217096,-2.36781
1480687878667893,-1.16151,0.0194195,-2.36816
1480687878684439,-1.16471,0.0167749,-2.36844
1480687878707498,-1.1665,0.0141488,-2.36923
1480687878730058,-1.16766,0.0123436,-2.3705
1480687878751617,-1.16873,0.00969377,-2.36994
1480687878781697,-1.16974,0.00948127,-2.37065
1480687878789215,-1.16995,0.0101629,-2.37116
1480687878804256,-1.1699,0.0103197,-2.37114
1480687878826817,-1.16998,0.00984178,-2.37096
1480687878849877,-1.16939,0.00915895,-2.37067
1480687878871935,-1.16934,0.00861751,-2.37053
1480687878894496,-1.17042,0.0078293,-2.36997
1480687878916556,-1.17192,0.00711972,-2.36959
1480687878940117,-1.17272,0.00622527,-2.36978
1480687878963180,-1.17342,0.00589616,-2.36999
1480687878969196,-1.175,0.00595478,-2.36991
1480687878991754,-1.17792,0.00571302,-2.36946
1480687879006795,-1.18098,0.00483884,-2.36884
1480687879028853,-1.18407,0.00343189,-2.36832
1480687879043391,-1.18716,0.00211555,-2.36764
1480687879080491,-1.18858,0.000507444,-2.36786
1480687879089013,-1.18841,-6.09457e-005,-2.36811
1480687879103552,-1.18818,3.67165e-005,-2.36834
1480687879128619,-1.18682,0.000271261,-2.36878
1480687879150677,-1.18556,0.00124678,-2.36965
1480687879163713,-1.18434,0.00291551,-2.37042
1480687879192789,-1.18277,0.00462039,-2.37146
1480687879209333,-1.17986,0.00596822,-2.37311
1480687879231898,-1.17677,0.00743968,-2.37467
1480687879247435,-1.17566,0.00909642,-2.3758
1480687879269493,-1.17688,0.00974069,-2.37557
1480687879290047,-1.17907,0.00944539,-2.37499
1480687879314112,-1.18139,0.00851719,-2.37424
1480687879335170,-1.18351,0.00755794,-2.37365
1480687879350208,-1.18525,0.00638212,-2.37358
1480687879366753,-1.18729,0.00528255,-2.37366
1480687879389312,-1.1886,0.00432463,-2.37373
1480687879410368,-1.18875,0.00344986,-2.37397
1480687879426912,-1.18875,0.00344986,-2.37397
1480687879449472,-1.18876,0.00391654,-2.37373
1480687879473038,-1.18921,0.00438137,-2.37304
1480687879486570,-1.18974,0.00451149,-2.37271
1480687879509131,-1.18938,0.00469883,-2.37274
1480687879530187,-1.18829,0.0052784,-2.37281
1480687879546731,-1.18697,0.00602022,-2.37305
1480687879569290,-1.18544,0.00686126,-2.37351
1480687879591850,-1.18337,0.00736804,-2.37382
1480687879614414,-1.18096,0.00768001,-2.37401
1480687879636970,-1.17813,0.00821105,-2.37434
1480687879657525,-1.17562,0.00883829,-2.37449
1480687879666549,-1.17391,0.00978214,-2.37418
1480687879689109,-1.17234,0.0106383,-2.37407
1480687879717684,-1.17086,0.0111803,-2.37401
1480687879727209,-1.16972,0.0116669,-2.374
1480687879749270,-1.16902,0.0117844,-2.3741
1480687879773834,-1.16818,0.0116263,-2.37454
1480687879786367,-1.16774,0.0115705,-2.37506
1480687879815445,-1.16747,0.0119302,-2.37556
1480687879839007,-1.16698,0.0121816,-2.3758
1480687879854047,-1.16585,0.01237,-2.37628
1480687879870092,-1.16472,0.0125589,-2.37675
1480687879891648,-1.16458,0.012583,-2.37662
1480687879906186,-1.16507,0.012119,-2.37668
1480687879929247,-1.16664,0.011411,-2.37654
1480687879952308,-1.16911,0.0104661,-2.3764
1480687879981888,-1.17172,0.0101324,-2.37659
1480687879996928,-1.17406,0.00975991,-2.37668
1480687880042047,-1.17537,0.00941049,-2.37705
1480687880044554,-1.17527,0.00976226,-2.37737
1480687880057589,-1.17476,0.0104596,-2.37769
1480687880094689,-1.17404,0.0110248,-2.37786
1480687880097194,-1.17389,0.0109865,-2.37779
1480687880110730,-1.1741,0.0110812,-2.37757
1480687880162868,-1.17433,0.0110434,-2.37728
1480687880165375,-1.17477,0.0108869,-2.37707
1480687880178912,-1.17514,0.0109753,-2.37668
1480687880191960,-1.17553,0.0111899,-2.37615
1480687880214005,-1.17504,0.0113204,-2.37542
1480687880229045,-1.17409,0.0116566,-2.37435
1480687880260629,-1.17158,0.0115276,-2.37366
1480687880272661,-1.17019,0.0122508,-2.37318
1480687880304245,-1.17021,0.012991,-2.37255
1480687880325802,-1.1703,0.0129775,-2.37212
1480687880335828,-1.17077,0.0131988,-2.37184
1480687880372927,-1.1715,0.0134593,-2.37166
1480687880385961,-1.17199,0.0131468,-2.37148
1480687880392980,-1.17271,0.0129428,-2.37155
1480687880416543,-1.17416,0.0129367,-2.37152
1480687880431583,-1.17578,0.0127742,-2.37154
1480687880456649,-1.17735,0.0123664,-2.37172
1480687880469684,-1.17844,0.0122262,-2.37182
1480687880491743,-1.1792,0.0118018,-2.37199
1480687880514304,-1.18008,0.0114214,-2.37243
1480687880529845,-1.18106,0.0111291,-2.37275
1480687880559423,-1.18267,0.0111969,-2.37315
1480687880580480,-1.18474,0.01112,-2.37381
1480687880589505,-1.18747,0.0109553,-2.37449
1480687880611562,-1.19064,0.0104818,-2.37521
1480687880658186,-1.19268,0.00699082,-2.37763
1480687880664707,-1.19569,0.00732172,-2.37964
1480687880671722,-1.19955,0.00660213,-2.38109
1480687880700298,-1.20319,0.00667142,-2.3829
1480687880716842,-1.20686,0.00672557,-2.38403
1480687880739402,-1.21014,0.00623147,-2.38502
1480687880754943,-1.21175,0.0055604,-2.38641
1480687880768479,-1.21282,0.00576791,-2.38699
1480687880792042,-1.2132,0.0062467,-2.38721
1480687880814101,-1.21268,0.00703084,-2.38737
1480687880836660,-1.2117,0.00778576,-2.3876
1480687880851700,-1.21051,0.00853218,-2.38787
1480687880874261,-1.20981,0.00925775,-2.38827
1480687880888799,-1.20959,0.0096057,-2.38856
1480687880911859,-1.20942,0.0097957,-2.38887
1480687880935424,-1.20907,0.0100815,-2.38919
1480687880970015,-1.209,0.0104022,-2.38962
1480687880980544,-1.20933,0.0105709,-2.39006
1480687880994581,-1.21017,0.0102281,-2.39031
1480687881008618,-1.21145,0.00957498,-2.39059
1480687881039198,-1.21301,0.00873595,-2.39129
1480687881054239,-1.21372,0.00496545,-2.39301
1480687881068778,-1.21581,0.00472792,-2.39383
1480687881091838,-1.21715,0.00404907,-2.39468
1480687881115403,-1.21766,0.00109035,-2.39644
1480687881135457,-1.21851,5.65052e-005,-2.39771
1480687881166539,-1.21985,-0.00176224,-2.39903
1480687881174057,-1.21988,-0.00241623,-2.40158
1480687881195113,-1.22056,-0.00227922,-2.40361
1480687881217673,-1.22267,-0.00161511,-2.40426
1480687881236725,-1.22411,-0.00230855,-2.40468
1480687881263295,-1.22365,-0.00335381,-2.40543
1480687881273322,-1.2235,-0.00319008,-2.40584
1480687881294377,-1.22367,-0.0027504,-2.40574
1480687881325460,-1.22361,-0.00265712,-2.40579
1480687881331978,-1.22361,-0.00265712,-2.40579
1480687881354036,-1.22408,-0.00281367,-2.40605
1480687881375092,-1.22511,-0.00275106,-2.4063
1480687881391636,-1.22675,-0.00256264,-2.40648
1480687881414201,-1.22828,-0.00259424,-2.40624
1480687881459817,-1.2279,-0.00282014,-2.40608
1480687881462324,-1.22684,-0.00278914,-2.40635
1480687881482377,-1.22694,-0.00259465,-2.4064
1480687881494910,-1.22679,-0.0031024,-2.40588
1480687881511455,-1.22503,-0.00373341,-2.40559
1480687881534517,-1.22285,-0.00375999,-2.40605
1480687881555070,-1.22271,-0.00373048,-2.40591
1480687881572116,-1.2239,-0.00338409,-2.40629
1480687881594175,-1.22632,-0.00348017,-2.4064
1480687881622750,-1.22783,-0.00382487,-2.40616
1480687881632778,-1.2278,-0.00379942,-2.40606
1480687881654335,-1.22587,-0.00363866,-2.40591
1480687881676895,-1.22325,-0.00290862,-2.40573
1480687881691433,-1.22092,-0.00174362,-2.40548
1480687881714497,-1.21929,-0.00066191,-2.40538
1480687881736554,-1.21757,-6.6191e-005,-2.40492
1480687881765130,-1.21638,5.97239e-005,-2.40499
1480687881774154,-1.21572,0.0002473,-2.4048
1480687881797216,-1.21468,0.000409335,-2.40494
1480687881811252,-1.21453,0.000373214,-2.40487
1480687881834314,-1.21469,0.000474334,-2.40487
1480687881856874,-1.21463,0.000567854,-2.40492
1480687881870911,-1.21463,0.000567854,-2.40492
1480687881894473,-1.21448,0.000531733,-2.40485
1480687881917033,-1.21488,0.000441998,-2.40479
1480687881939091,-1.21487,0.000376999,-2.40486
1480687881961653,-1.21487,0.000376999,-2.40486
1480687881982708,-1.21488,0.000441998,-2.40479
1480687882057408,-1.21488,0.000441998,-2.40479
1480687882068938,-1.21467,0.000499398,-2.40477
1480687882084478,-1.21482,0.000535518,-2.40484
1480687882096512,-1.21392,0.000978708,-2.40464
1480687882117567,-1.21203,0.00251964,-2.40409
1480687882134111,-1.21064,0.00283227,-2.404
1480687882156670,-1.21003,0.00286058,-2.40383
1480687882177726,-1.21003,0.00286058,-2.40383
1480687882195273,-1.21004,0.0029254,-2.40376
1480687882216833,-1.21004,0.0029254,-2.40376
1480687882245406,-1.20928,0.00349358,-2.40346
1480687882269471,-1.20852,0.00355,-2.40315
1480687882301556,-1.20786,0.00395526,-2.40266
1480687882305065,-1.20673,0.00429486,-2.4022
1480687882322111,-1.20583,0.00473599,-2.402
1480687882344169,-1.20506,0.00517365,-2.40184
1480687882357705,-1.20506,0.00517365,-2.40184
1480687882374249,-1.20506,0.00517365,-2.40184
1480687882396810,-1.20506,0.00517365,-2.40184
1480687882417865,-1.20445,0.00520089,-2.40167
1480687882434411,-1.20398,0.00535386,-2.40141
1480687882456467,-1.20341,0.0056695,-2.40133
1480687882479028,-1.20284,0.00598506,-2.40126
1480687882494068,-1.2023,0.00616703,-2.40111
1480687882524148,-1.20138,0.00622944,-2.40098
1480687882569769,-1.2004,0.00638552,-2.40091
1480687882572276,-1.20001,0.00660394,-2.40082
1480687882578292,-1.19986,0.00656726,-2.40076
1480687882605364,-1.19949,0.00676104,-2.40077
1480687882621907,-1.19892,0.00701198,-2.40077
1480687882637951,-1.19818,0.00697708,-2.40064
1480687882661513,-1.19739,0.00710025,-2.40048
1480687882673545,-1.19687,0.00725717,-2.40043
1480687882696607,-1.19687,0.00725717,-2.40043
1480687882719166,-1.19681,0.00735111,-2.40048
1480687882734709,-1.19643,0.00756933,-2.40039
1480687882756767,-1.19628,0.00753255,-2.40033
1480687882779326,-1.1963,0.00750799,-2.40042
1480687882802890,-1.19614,0.00747121,-2.40036
1480687882822441,-1.19614,0.00747121,-2.40036
1480687882840489,-1.19624,0.00760193,-2.40047
1480687882867561,-1.19625,0.00766613,-2.4004
1480687882884105,-1.19558,0.00778617,-2.40028
1480687882899147,-1.19486,0.00806433,-2.40014
1480687882913683,-1.19408,0.00803435,-2.40022
1480687882936745,-1.19392,0.00799751,-2.40016
1480687882960307,-1.19392,0.00799751,-2.40016
1480687882987880,-1.19403,0.00819245,-2.4002
1480687883003923,-1.19387,0.00815562,-2.40013
1480687883026483,-1.1939,0.00813115,-2.40023
1480687883040019,-1.19374,0.00809431,-2.40017
1480687883056564,-1.19368,0.00818831,-2.40021
1480687883079124,-1.19368,0.00818831,-2.40021
1480687883132264,-1.19369,0.00825242,-2.40014
1480687883134772,-1.19369,0.00825242,-2.40014
1480687883141289,-1.19354,0.00821555,-2.40007
1480687883161342,-1.19356,0.00819108,-2.40017
1480687883184404,-1.1935,0.00828508,-2.40022
1480687883199444,-1.1935,0.00828508,-2.40022
1480687883220499,-1.19304,0.00828377,-2.40019
1480687883236542,-1.19252,0.00837643,-2.40021
1480687883259102,-1.19236,0.00833956,-2.40014
1480687883281662,-1.19239,0.00831512,-2.40024
1480687883304222,-1.19239,0.00831512,-2.40024
1480687883319262,-1.19223,0.00827829,-2.40018
1480687883340318,-1.19224,0.0083423,-2.40011
1480687883356863,-1.19218,0.00843636,-2.40015
1480687883393459,-1.19205,0.00837506,-2.40019
1480687883400478,-1.1919,0.00833819,-2.40012
1480687883423539,-1.19208,0.00824142,-2.40011
1480687883440083,-1.19214,0.00814736,-2.40006
1480687883460137,-1.19148,0.00817871,-2.40011
1480687883476681,-1.19148,0.00817871,-2.40011
1480687883499241,-1.1914,0.00792625,-2.39979
1480687883521801,-1.19075,0.00751049,-2.39977
1480687883536841,-1.1906,0.00753756,-2.39964
1480687883566921,-1.1906,0.00753756,-2.39964
1480687883590484,-1.1906,0.00753756,-2.39964
1480687883610037,-1.19042,0.00757028,-2.39972
1480687883619059,-1.19089,0.00763573,-2.39967
1480687883649140,-1.19091,0.00710025,-2.39977
1480687883656157,-1.19075,0.00706342,-2.3997
1480687883679221,-1.19075,0.00706342,-2.3997
1480687883703283,-1.1906,0.00668859,-2.39974
1480687883715819,-1.19004,0.00649218,-2.39967
1480687883752915,-1.1891,0.00642525,-2.39968
1480687883761438,-1.18787,0.00601039,-2.3996
1480687883777480,-1.18667,0.00512385,-2.39955
1480687883800542,-1.18551,0.00416742,-2.39935
1480687883821598,-1.18457,0.00318808,-2.39955
1480687883844157,-1.18478,0.002987,-2.39902
1480687883866718,-1.18315,0.00264582,-2.39672
1480687883888276,-1.17598,0.00114459,-2.39384
1480687883911336,-1.16412,0.00165621,-2.39266
1480687883921363,-1.15527,0.00385917,-2.39258
1480687883941918,-1.15306,0.00539571,-2.39273
1480687883962974,-1.15555,0.00556722,-2.39254
1480687883979519,-1.15924,0.00548595,-2.39299
1480687884009096,-1.16312,0.00515815,-2.39367
1480687884022632,-1.16616,0.00427951,-2.39419
1480687884054217,-1.16841,0.0033049,-2.39488
1480687884062238,-1.16994,0.0024783,-2.39557
1480687884099839,-1.17143,0.00216782,-2.39647
1480687884102344,-1.17325,0.00219825,-2.39725
1480687884121395,-1.17554,0.00244323,-2.39775
1480687884145960,-1.17814,0.00246483,-2.39807
1480687884165011,-1.17953,0.00231999,-2.39838
1480687884189075,-1.18066,0.0020518,-2.39876
1480687884203614,-1.18138,0.00202525,-2.39896
1480687884219155,-1.18198,0.00193709,-2.39919
1480687884242718,-1.18239,0.00188181,-2.3995
1480687884263780,-1.18332,0.00179711,-2.39972
1480687884280819,-1.18425,0.00164872,-2.40001
1480687884301875,-1.18543,0.0013727,-2.40018
1480687884322931,-1.18682,0.00137714,-2.40025
1480687884338974,-1.18804,0.00154182,-2.40027
1480687884377576,-1.1883,0.00166455,-2.4002
1480687884382592,-1.18872,0.00173557,-2.40038
1480687884401641,-1.1889,0.00163895,-2.40037
1480687884421694,-1.18908,0.0015423,-2.40036
1480687884444253,-1.18976,0.00167215,-2.40053
1480687884460295,-1.19055,0.00184411,-2.401
1480687884482356,-1.19122,0.00220418,-2.40156
1480687884504914,-1.1917,0.00266075,-2.40212
1480687884528478,-1.19323,0.00235546,-2.40272
1480687884549032,-1.19486,0.00187412,-2.40391
1480687884564574,-1.19698,0.00176865,-2.40505
1480687884580115,-1.19912,0.00121385,-2.40612
1480687884601672,-1.20078,0.000810564,-2.40692
1480687884624232,-1.20214,0.000224471,-2.40808
1480687884654313,-1.20191,-0.00122422,-2.41057
1480687884668351,-1.20223,-0.00109103,-2.41145
1480687884700436,-1.20262,-0.00105229,-2.41228
1480687884705448,-1.20414,-0.00120494,-2.41333
1480687884722995,-1.20559,-0.00144896,-2.4143
1480687884744051,-1.20666,-0.000996351,-2.41563
1480687884758589,-1.20754,-0.00105241,-2.41666
1480687884781651,-1.20855,-0.00143147,-2.41752
1480687884804211,-1.20892,-0.00170955,-2.41837
1480687884828276,-1.20907,-0.00148225,-2.41926
1480687884849831,-1.20935,-0.000748009,-2.4202
1480687884864370,-1.21006,-0.00046888,-2.42062
1480687884887433,-1.21054,-0.000627071,-2.42089
1480687884908990,-1.21054,-0.000627071,-2.42089
1480687884932052,-1.21049,-0.000842095,-2.42141
1480687884953106,-1.21091,-0.000906557,-2.42173
1480687884980683,-1.21157,-0.00109923,-2.42192
1480687884984190,-1.21292,-0.002249,-2.42201
1480687885005245,-1.21371,-0.00307686,-2.42203
1480687885021288,-1.21387,-0.00348873,-2.42202
1480687885044349,-1.21464,-0.00248298,-2.42192
1480687885067912,-1.21531,-0.00189826,-2.42139
1480687885081949,-1.21561,-0.00151762,-2.42105
1480687885104509,-1.21475,-0.00113603,-2.4207
1480687885135595,-1.21338,-0.00112888,-2.4204
1480687885142109,-1.21237,-0.00112066,-2.42008
1480687885164670,-1.21237,-0.00112066,-2.42008
1480687885188233,-1.21221,-0.00115603,-2.42001
1480687885201266,-1.21221,-0.00115603,-2.42001
1480687885232349,-1.21224,-0.00118065,-2.42011
1480687885252903,-1.21221,-0.00115603,-2.42001
1480687885261927,-1.21224,-0.00111562,-2.42004
1480687885283987,-1.21203,-0.00105709,-2.42002
1480687885305043,-1.21246,-0.00128379,-2.41988
1480687885321587,-1.21246,-0.00128379,-2.41988
1480687885344147,-1.21246,-0.00128379,-2.41988
1480687885365203,-1.21246,-0.00128379,-2.41988
1480687885381246,-1.21278,-0.00144032,-2.41964
1480687885410322,-1.21278,-0.00144032,-2.41964
1480687885432882,-1.21306,-0.00163722,-2.41936
1480687885442408,-1.21326,-0.00160593,-2.41921
1480687885464466,-1.21323,-0.00164634,-2.41919
1480687885492542,-1.21324,-0.00158128,-2.41912
1480687885509085,-1.21326,-0.00160593,-2.41921
1480687885531645,-1.21379,-0.00170317,-2.41919
1480687885547190,-1.21449,-0.0017443,-2.41893
1480687885569246,-1.21493,-0.00197059,-2.41879
1480687885584285,-1.21498,-0.00206438,-2.41874
1480687885606845,-1.21531,-0.00203791,-2.41863
1480687885620882,-1.21575,-0.00219894,-2.41843
1480687885643943,-1.21606,-0.00223756,-2.41839
1480687885674024,-1.21633,-0.00245488,-2.41843
1480687885695080,-1.21679,-0.00245816,-2.41846
1480687885704104,-1.2177,-0.00268749,-2.41835
1480687885743709,-1.21835,-0.00278956,-2.41837
1480687885755240,-1.21893,-0.00304544,-2.41838
1480687885764766,-1.21945,-0.00320775,-2.41843
1480687885786823,-1.21965,-0.00333143,-2.41852
1480687885802366,-1.21965,-0.00333143,-2.41852
1480687885824424,-1.21965,-0.00333143,-2.41852
1480687885846987,-1.21965,-0.00333143,-2.41852
1480687885867538,-1.21965,-0.00333143,-2.41852
1480687885884082,-1.21965,-0.00333143,-2.41852
1480687885914162,-1.21965,-0.00333143,-2.41852
1480687885935218,-1.2199,-0.00345851,-2.41839
1480687885959283,-1.2199,-0.00345851,-2.41839
1480687885966803,-1.21954,-0.00355227,-2.41809
1480687885988861,-1.21906,-0.00339357,-2.41783
1480687886019443,-1.21846,-0.00322992,-2.41752
1480687886027464,-1.21794,-0.00335941,-2.41716
1480687886063560,-1.21763,-0.00287992,-2.41658
1480687886088125,-1.21675,-0.00325958,-2.41616
1480687886092636,-1.21566,-0.00306932,-2.41572
1480687886107676,-1.21473,-0.00284401,-2.41536
1480687886124221,-1.21402,-0.00242931,-2.41508
1480687886146784,-1.21307,-0.00233463,-2.41485
1480687886167837,-1.21236,-0.00214011,-2.41488
1480687886191904,-1.2117,-0.00210431,-2.41493
1480687886230005,-1.2117,-0.00210431,-2.41493
1480687886232010,-1.2117,-0.00210431,-2.41493
1480687886253063,-1.21171,-0.00203937,-2.41486
1480687886268103,-1.21165,-0.00194556,-2.41491
1480687886295175,-1.21152,-0.00200594,-2.41494
1480687886304200,-1.21152,-0.00200594,-2.41494
1480687886326760,-1.21158,-0.00209975,-2.41489
1480687886349319,-1.21158,-0.00209975,-2.41489
1480687886364359,-1.21152,-0.00200594,-2.41494
1480687886386919,-1.21152,-0.00200594,-2.41494
1480687886408978,-1.21137,-0.00204155,-2.41487
1480687886424024,-1.21142,-0.00213537,-2.41482
1480687886446586,-1.21144,-0.0022251,-2.41499
1480687886476663,-1.21144,-0.0022251,-2.41499
1480687886508248,-1.21145,-0.00216016,-2.41492
1480687886529810,-1.21139,-0.00206635,-2.41497
1480687886532312,-1.21139,-0.00206635,-2.41497
1480687886544845,-1.21123,-0.00210196,-2.4149
1480687886575928,-1.21123,-0.00210196,-2.4149
1480687886589463,-1.21114,-0.00223136,-2.41479
1480687886610017,-1.21128,-0.00226069,-2.41492
1480687886634082,-1.21115,-0.0023211,-2.41495
1480687886655138,-1.21129,-0.00219578,-2.41485
1480687886670178,-1.21029,-0.00194275,-2.41461
1480687886686722,-1.20977,-0.00241202,-2.41435
1480687886708780,-1.20887,-0.00232238,-2.4139
1480687886724823,-1.20828,-0.00209692,-2.41353
1480687886746883,-1.20752,-0.00203693,-2.41322
1480687886769442,-1.20692,-0.00194138,-2.41299
1480687886783482,-1.20595,-0.00178865,-2.41222
1480687886806540,-1.20327,-0.00219584,-2.41158
1480687886829100,-1.20049,-0.00278786,-2.41158
1480687886850156,-1.19907,-0.00209442,-2.41117
1480687886866702,-1.19861,-0.00102639,-2.41073
1480687886889261,-1.19798,-0.000614226,-2.4107
1480687886910316,-1.19752,-0.000613034,-2.41068
1480687886934380,-1.19736,-0.000649065,-2.41061
1480687886949420,-1.19737,-0.000584841,-2.41054
1480687886970476,-1.19737,-0.000584841,-2.41054
1480687886992534,-1.19737,-0.000584841,-2.41054
1480687887022615,-1.19736,-0.000649065,-2.41061
1480687887084780,-1.1974,-0.000609458,-2.41064
1480687887087287,-1.19724,-0.000645459,-2.41057
1480687887101325,-1.19703,-0.000772119,-2.41042
1480687887102327,-1.19628,-0.000867725,-2.41035
1480687887108343,-1.19576,-0.000708312,-2.41031
1480687887129399,-1.19555,-0.000650108,-2.41029
1480687887150957,-1.1952,-0.00039053,-2.41023
1480687887172513,-1.19452,-0.000331342,-2.41019
1480687887189058,-1.19437,-0.000367433,-2.41012
1480687887217634,-1.1944,-0.000327885,-2.41015
1480687887227661,-1.19439,-0.00039199,-2.41022
1480687887249720,-1.1944,-0.000327885,-2.41015
1480687887271778,-1.19424,-0.000363976,-2.41008
1480687887286819,-1.19427,-0.000388563,-2.41018
1480687887316898,-1.19411,-0.000424653,-2.41011
1480687887331939,-1.19411,-0.000424653,-2.41011
1480687887360514,-1.19405,-0.000330359,-2.41016
1480687887375053,-1.19392,-0.000391006,-2.41019
1480687887394102,-1.19392,-0.000391006,-2.41019
1480687887406636,-1.19392,-0.000391006,-2.41019
1480687887429197,-1.19377,-0.000427097,-2.41013
1480687887451757,-1.19379,-0.000451654,-2.41023
1480687887472812,-1.19364,-0.000487745,-2.41016
1480687887489356,-1.19364,-0.000487745,-2.41016
1480687887511917,-1.19364,-0.000487745,-2.41016
1480687887532973,-1.19359,-0.000329375,-2.41014
1480687887549524,-1.19346,-0.000390053,-2.41017
1480687887577591,-1.19331,-0.000426143,-2.4101
1480687887586114,-1.19331,-0.000426143,-2.4101
1480687887609175,-1.19333,-0.000450701,-2.4102
1480687887632237,-1.19327,-0.000356376,-2.41025
1480687887646278,-1.19327,-0.000356376,-2.41025
1480687887682871,-1.19318,-0.000486791,-2.41013
1480687887697912,-1.19318,-0.000486791,-2.41013
1480687887705934,-1.19305,-0.000547439,-2.41016
1480687887730000,-1.19299,-0.000453115,-2.41021
1480687887752556,-1.19299,-0.000453115,-2.41021
1480687887773111,-1.19283,-0.000489205,-2.41014
1480687887789153,-1.19287,-0.000449717,-2.41017
1480687887819735,-1.19271,-0.000485837,-2.41011
1480687887832770,-1.19271,-0.000485837,-2.41011
1480687887850316,-1.19258,-0.000546515,-2.41014
1480687887871874,-1.19252,-0.000452161,-2.41019
1480687887892930,-1.19252,-0.000452161,-2.41019
1480687887909974,-1.19252,-0.000452161,-2.41019
1480687887939555,-1.19237,-0.000488251,-2.41012
1480687887953089,-1.19234,-0.000354469,-2.41019
1480687887969133,-1.19219,-0.000390559,-2.41013
1480687888005730,-1.19219,-0.000390559,-2.41013
1480687888020769,-1.19221,-0.000415087,-2.41023
1480687888029295,-1.192,-0.000356853,-2.41021
1480687888051852,-1.19201,-0.000292867,-2.41014
1480687888074413,-1.19186,-0.000328988,-2.41007
1480687888088951,-1.19188,-0.000353515,-2.41017
1480687888118029,-1.19188,-0.000353515,-2.41017
1480687888134070,-1.19182,-0.000259161,-2.41022
1480687888149613,-1.19182,-0.000259161,-2.41022
1480687888162146,-1.19167,-0.000295281,-2.41015
1480687888177186,-1.19169,-0.000319779,-2.41025
1480687888207265,-1.19149,-0.000197589,-2.41016
1480687888217292,-1.19149,-0.000197589,-2.41016
1480687888261911,-1.19149,-0.000197589,-2.41016
1480687888270433,-1.19149,-0.000197589,-2.41016
1480687888274445,-1.19136,-0.000258207,-2.41019
1480687888304526,-1.19136,-0.000258207,-2.41019
1480687888323574,-1.1912,-0.000294328,-2.41012
1480687888334604,-1.19117,-0.000224471,-2.41027
1480687888357165,-1.19117,-0.000224471,-2.41027
1480687888404289,-1.19102,-0.000196666,-2.41013
1480687888413815,-1.19037,-0.000161976,-2.41019
1480687888418327,-1.19037,-0.000161976,-2.41019
1480687888439383,-1.19022,-0.000198126,-2.41012
1480687888463446,-1.19016,-0.000103742,-2.41017
1480687888476982,-1.19016,-0.000103742,-2.41017
1480687888507564,-1.19017,-3.98457e-005,-2.4101
1480687888516087,-1.19004,-0.000100464,-2.41013
1480687888537142,-1.18998,-6.04987e-006,-2.41018
1480687888559703,-1.18985,-6.66678e-005,-2.41021
1480687888582263,-1.18985,-6.66678e-005,-2.41021
1480687888597302,-1.18985,-6.66678e-005,-2.41021
1480687888627894,-1.18964,5.54919e-005,-2.41012
1480687888635906,-1.18964,5.54919e-005,-2.41012
1480687888667490,-1.18983,2.16961e-005,-2.41004
1480687888696576,-1.18986,-2.77162e-006,-2.41014
1480687888699073,-1.1897,-3.89218e-005,-2.41007
1480687888717121,-1.1897,-3.89218e-005,-2.41007
1480687888751212,-1.18965,0.000119358,-2.41005
1480687888757729,-1.18965,0.000119358,-2.41005
1480687888777281,-1.18952,5.87404e-005,-2.41008
1480687888799339,-1.18952,5.87404e-005,-2.41008
1480687888815884,-1.18952,5.87404e-005,-2.41008
1480687888839948,-1.18952,5.87404e-005,-2.41008
1480687888863012,-1.18952,5.87404e-005,-2.41008
1480687888876047,-1.18937,2.25604e-005,-2.41001
1480687888900108,-1.18937,2.25604e-005,-2.41001
1480687888922668,-1.18933,9.25362e-005,-2.41016
1480687888944225,-1.18919,0.000120223,-2.41002
1480687888964787,-1.18919,0.000120223,-2.41002
1480687888979823,-1.18904,8.40724e-005,-2.40996
1480687888995864,-1.189,0.000154048,-2.4101
1480687889025943,-1.189,0.000154048,-2.4101
1480687889056524,-1.18901,0.000217885,-2.41003
1480687889059030,-1.18882,0.00025171,-2.41011
1480687889077078,-1.18882,0.00025171,-2.41011
1480687889102646,-1.18882,0.00025171,-2.41011
1480687889117685,-1.18867,0.00021553,-2.41004
1480687889137239,-1.18861,0.000309974,-2.41009
1480687889159297,-1.18849,0.000313193,-2.41005
1480687889183360,-1.18849,0.000313193,-2.41005
1480687889198402,-1.18833,0.000277013,-2.40999
1480687889227479,-1.18828,0.000371456,-2.41003
1480687889245026,-1.18828,0.000371456,-2.41003
1480687889257056,-1.1883,0.000347048,-2.41013
1480687889300172,-1.1883,0.000347048,-2.41013
1480687889303681,-1.18749,0.00049755,-2.40988
1480687889317216,-1.18745,0.000567615,-2.41003
1480687889339778,-1.1873,0.000531405,-2.40996
1480687889363342,-1.1873,0.000531405,-2.40996
1480687889384395,-1.18724,0.000625908,-2.41001
1480687889406955,-1.18759,0.00069201,-2.40993
1480687889439041,-1.18744,0.0006558,-2.40986
1480687889441547,-1.18744,0.0006558,-2.40986
1480687889462608,-1.18729,0.00061959,-2.40979
1480687889493686,-1.18731,0.000595182,-2.40989
1480687889504716,-1.18726,0.000753462,-2.40987
1480687889519755,-1.18726,0.000753462,-2.40987
1480687889543318,-1.18711,0.000717223,-2.4098
1480687889558358,-1.18713,0.000692815,-2.4099
1480687889580418,-1.18692,0.000751108,-2.40988
1480687889603478,-1.18692,0.000751108,-2.40988
1480687889617014,-1.18693,0.000814855,-2.40981
1480687889651605,-1.18693,0.000814855,-2.40981
1480687889665143,-1.18687,0.000909329,-2.40986
1480687889684694,-1.18674,0.00084874,-2.40989
1480687889715777,-1.18674,0.00084874,-2.40989
1480687889722294,-1.18658,0.000812501,-2.40982
1480687889739840,-1.18658,0.000812501,-2.40982
1480687889771926,-1.18659,0.000876248,-2.40975
1480687889783456,-1.18656,0.000946373,-2.4099
1480687889798497,-1.18641,0.000910133,-2.40983
1480687889819553,-1.18641,0.000910133,-2.40983
1480687889850134,-1.18641,0.000910133,-2.40983
1480687889858657,-1.18622,0.000944018,-2.40991
1480687889881217,-1.18623,0.00100774,-2.40984
1480687889905782,-1.18623,0.00100774,-2.40984
1480687889925838,-1.18601,0.00106603,-2.40982
1480687889955916,-1.18604,0.00104165,-2.40992
1480687889970956,-1.18588,0.00100541,-2.40985
1480687889996524,-1.18588,0.00100541,-2.40985
1480687890001035,-1.18588,0.00100541,-2.40985
1480687890022091,-1.18583,0.00116366,-2.40983
1480687890038636,-1.18583,0.00116366,-2.40983
1480687890059691,-1.1857,0.00110307,-2.40986
1480687890082251,-1.1857,0.00110307,-2.40986
1480687890104812,-1.18555,0.0010668,-2.4098
1480687890120854,-1.18549,0.00116134,-2.40984
1480687890141911,-1.18553,0.00120068,-2.40987
1480687890161963,-1.18537,0.00116444,-2.40981
1480687890183019,-1.18553,0.00126439,-2.4098
1480687890203573,-1.18556,0.00113049,-2.40973
1480687890220118,-1.18608,0.00103521,-2.4097
1480687890239670,-1.18679,0.00090614,-2.4096
1480687890263734,-1.18737,0.000716448,-2.40953
1480687890293312,-1.18731,0.000810921,-2.40958
1480687890299829,-1.18716,0.000774682,-2.40951
1480687890321888,-1.18741,0.000646383,-2.40939
1480687890347958,-1.18728,0.000585735,-2.40942
1480687890359489,-1.18728,0.000585735,-2.40942
1480687890399596,-1.18723,0.000743985,-2.4094
1480687890404608,-1.18665,0.000933647,-2.40946
1480687890427168,-1.18649,0.000897408,-2.4094
1480687890442209,-1.18647,0.00103122,-2.40947
1480687890460257,-1.18647,0.00103122,-2.40947
1480687890480811,-1.18647,0.00103122,-2.40947
1480687890501867,-1.18631,0.00099498,-2.40941
1480687890548993,-1.18631,0.00099498,-2.40941
1480687890551499,-1.18628,0.00106511,-2.40955
1480687890565035,-1.18613,0.00102884,-2.40949
1480687890584587,-1.18613,0.00102884,-2.40949
1480687890599628,-1.186,0.00103191,-2.40945
1480687890622186,-1.18595,0.00112641,-2.4095
1480687890647755,-1.18595,0.00112641,-2.4095
1480687890660288,-1.18589,0.00122094,-2.40954
1480687890692374,-1.18574,0.00124839,-2.40941
1480687890713431,-1.18577,0.00122401,-2.40951
1480687890719446,-1.18561,0.00118774,-2.40944
1480687890758549,-1.18561,0.00118774,-2.40944
1480687890765569,-1.18555,0.00128228,-2.40949
1480687890782613,-1.18555,0.00128228,-2.40949
1480687890802165,-1.18543,0.00128534,-2.40945
1480687890824725,-1.18543,0.00128534,-2.40945
1480687890841270,-1.18562,0.00125143,-2.40937
1480687890869845,-1.18562,0.00125143,-2.40937
1480687890892908,-1.18562,0.00125143,-2.40937
1480687890900928,-1.18579,0.00124192,-2.40919
1480687890922485,-1.18581,0.00121754,-2.40929
1480687890944546,-1.18582,0.00128126,-2.40922
1480687890962598,-1.18561,0.0013395,-2.4092
1480687890985152,-1.18619,0.00114989,-2.40913
1480687891012727,-1.18664,0.00130114,-2.40891
1480687891035787,-1.18664,0.00130114,-2.40891
1480687891044812,-1.18664,0.00130114,-2.40891
1480687891071882,-1.18667,0.00127676,-2.40901
1480687891082411,-1.18652,0.00124046,-2.40895
1480687891104971,-1.18652,0.00124046,-2.40895
1480687891124523,-1.18646,0.00133494,-2.40899
1480687891148593,-1.18646,0.00133494,-2.40899
1480687891178167,-1.18646,0.00133494,-2.40899
1480687891192202,-1.18646,0.00133494,-2.40899
1480687891202230,-1.18634,0.00133801,-2.40896
1480687891222283,-1.18628,0.00143248,-2.409
1480687891245848,-1.18628,0.00143248,-2.409
1480687891262394,-1.18628,0.00143248,-2.409
1480687891281941,-1.18628,0.00143248,-2.409
1480687891304502,-1.18628,0.00143248,-2.409
1480687891330069,-1.18606,0.00149068,-2.40898
1480687891342101,-1.18606,0.00149068,-2.40898
1480687891364662,-1.18606,0.00149068,-2.40898
1480687891382709,-1.18607,0.0015544,-2.40891
1480687891402261,-1.18607,0.0015544,-2.40891
1480687891441366,-1.18589,0.00158823,-2.40899
1480687891446880,-1.18589,0.00158823,-2.40899
1480687891472950,-1.18589,0.00158823,-2.40899
1480687891495009,-1.18589,0.00158823,-2.40899
1480687891503029,-1.18576,0.0015913,-2.40896
1480687891523584,-1.18571,0.0016858,-2.409
1480687891544640,-1.18571,0.0016858,-2.409
1480687891562704,-1.18555,0.00164947,-2.40894
1480687891582741,-1.18555,0.00164947,-2.40894
1480687891604300,-1.18558,0.00162512,-2.40904
1480687891622346,-1.18536,0.0016833,-2.40902
1480687891641898,-1.18537,0.00174701,-2.40895
1480687891665963,-1.18537,0.00174701,-2.40895
1480687891682506,-1.18537,0.00174701,-2.40895
1480687891709578,-1.18524,0.00168637,-2.40898
1480687891757210,-1.18524,0.00168637,-2.40898
1480687891759712,-1.18518,0.00178087,-2.40902
1480687891772246,-1.18518,0.00178087,-2.40902
1480687891784781,-1.18518,0.00178087,-2.40902
1480687891802325,-1.18519,0.00184456,-2.40895
1480687891824385,-1.18504,0.00180823,-2.40889
1480687891844442,-1.18506,0.00178388,-2.40899
1480687891862487,-1.18501,0.00187841,-2.40903
1480687891883541,-1.18501,0.00187841,-2.40903
1480687891904597,-1.18501,0.00187841,-2.40903
1480687891932672,-1.18485,0.00184208,-2.40897
1480687891943701,-1.18485,0.00184208,-2.40897
1480687891964758,-1.18485,0.00184208,-2.40897
1480687892006368,-1.18479,0.00193662,-2.40901
1480687892017399,-1.18464,0.00190029,-2.40895
1480687892039959,-1.18467,0.00193963,-2.40898
1480687892065025,-1.18467,0.00193963,-2.40898
1480687892068032,-1.18446,0.00199783,-2.40896
1480687892084576,-1.18448,0.00197351,-2.40906
1480687892103626,-1.18448,0.00197351,-2.40906
1480687892125184,-1.18448,0.00197351,-2.40906
1480687892144736,-1.18434,0.00200081,-2.40892
1480687892166794,-1.18428,0.00209534,-2.40897
1480687892184841,-1.18428,0.00209534,-2.40897
1480687892205898,-1.18415,0.00203473,-2.409
1480687892226954,-1.18415,0.00203473,-2.409
1480687892282101,-1.18415,0.00203473,-2.409
1480687892285611,-1.18415,0.00203473,-2.409
1480687892313184,-1.1841,0.00219292,-2.40898
1480687892317695,-1.18395,0.00215659,-2.40891
1480687892347275,-1.18397,0.00213227,-2.40901
1480687892357301,-1.18397,0.00213227,-2.40901
1480687892364821,-1.18397,0.00213227,-2.40901
1480687892384372,-1.18397,0.00213227,-2.40901
1480687892406933,-1.18391,0.00222683,-2.40906
1480687892429493,-1.18376,0.00219047,-2.40899
1480687892452052,-1.18377,0.0022541,-2.40892
1480687892467094,-1.18371,0.00234866,-2.40897
1480687892491158,-1.18371,0.00234866,-2.40897
1480687892507700,-1.18371,0.00234866,-2.40897
1480687892534773,-1.18371,0.00234866,-2.40897
1480687892544800,-1.18353,0.00244621,-2.40897
1480687892605461,-1.18353,0.00244621,-2.40897
1480687892610474,-1.18338,0.00240982,-2.40891
1480687892643562,-1.18338,0.00240982,-2.40891
1480687892648575,-1.18332,0.00250438,-2.40895
1480687892665120,-1.18332,0.00250438,-2.40895
1480687892686177,-1.18343,0.00225166,-2.40893
1480687892707231,-1.18343,0.00225166,-2.40893
1480687892724778,-1.18343,0.00225166,-2.40893
1480687892748341,-1.18343,0.00225166,-2.40893
1480687892766890,-1.18343,0.00225166,-2.40893
1480687892784937,-1.18343,0.00225166,-2.40893
1480687892821536,-1.18343,0.00225166,-2.40893
1480687892834570,-1.18345,0.00222737,-2.40903
1480687892846101,-1.1833,0.00219101,-2.40896
1480687892913281,-1.18331,0.00225461,-2.40889
1480687892928823,-1.18331,0.00225461,-2.40889
1480687892934837,-1.18325,0.0023492,-2.40894
1480687892963914,-1.18312,0.00228855,-2.40897
1480687892966421,-1.18297,0.00225219,-2.40891
1480687892989482,-1.18297,0.00225219,-2.40891
1480687893014553,-1.18291,0.00234676,-2.40895
1480687893025077,-1.18306,0.00238312,-2.40902
1480687893047636,-1.18292,0.00241035,-2.40888
1480687893067189,-1.18292,0.00241035,-2.40888
1480687893097269,-1.18288,0.00248069,-2.40903
1480687893130357,-1.18288,0.00248069,-2.40903
1480687893134368,-1.18288,0.00248069,-2.40903
1480687893150911,-1.18288,0.00248069,-2.40903
1480687893167455,-1.18273,0.0024443,-2.40896
1480687893187006,-1.18268,0.00260246,-2.40894
1480687893205056,-1.18268,0.00260246,-2.40894
1480687893227617,-1.18268,0.00260246,-2.40894
1480687893247168,-1.18268,0.00260246,-2.40894
1480687893269727,-1.18268,0.00260246,-2.40894
1480687893292287,-1.18268,0.00260246,-2.40894
1480687893306825,-1.18253,0.0025661,-2.40887
1480687893324874,-1.18255,0.00254184,-2.40897
1480687893359967,-1.18255,0.00254184,-2.40897
1480687893369994,-1.18234,0.00260005,-2.40895
1480687893413108,-1.1825,0.0027,-2.40895
1480687893423636,-1.1825,0.0027,-2.40895
1480687893428651,-1.18235,0.00266362,-2.40888
1480687893445699,-1.18229,0.00275821,-2.40893
1480687893467252,-1.18231,0.00273398,-2.40903
1480687893486805,-1.18231,0.00273398,-2.40903
1480687893504852,-1.18231,0.00273398,-2.40903
1480687893534932,-1.18231,0.00273398,-2.40903
1480687893548468,-1.18217,0.00276116,-2.40889
1480687893577046,-1.18217,0.00276116,-2.40889
1480687893601610,-1.18217,0.00276116,-2.40889
1480687893609130,-1.18217,0.00276116,-2.40889
1480687893629684,-1.18217,0.00276116,-2.40889
1480687893647232,-1.18211,0.00285575,-2.40894
1480687893699371,-1.18211,0.00285575,-2.40894
1480687893701375,-1.18196,0.00281933,-2.40887
1480687893707391,-1.18198,0.0027951,-2.40897
1480687893728448,-1.18198,0.0027951,-2.40897
1480687893749506,-1.18198,0.0027951,-2.40897
1480687893769056,-1.18198,0.0027951,-2.40897
1480687893788607,-1.18192,0.0028897,-2.40902
1480687893809663,-1.18178,0.00291688,-2.40888
1480687893839743,-1.18178,0.00291688,-2.40888
1480687893854783,-1.1818,0.00289268,-2.40898
1480687893876842,-1.1818,0.00289268,-2.40898
1480687893887369,-1.1818,0.00289268,-2.40898
1480687893908425,-1.1818,0.00289268,-2.40898
1480687893932494,-1.18165,0.00285626,-2.40891
1480687893952042,-1.18159,0.00295085,-2.40896
1480687893971594,-1.18159,0.00295085,-2.40896
1480687893989641,-1.18159,0.00295085,-2.40896
1480687894007690,-1.18159,0.00295085,-2.40896
1480687894030250,-1.18159,0.00295085,-2.40896
1480687894049802,-1.18144,0.00297797,-2.40882
1480687894067349,-1.18141,0.00304839,-2.40897
1480687894089909,-1.18141,0.00304839,-2.40897
1480687894110965,-1.18147,0.00295377,-2.40892
1480687894135029,-1.18141,0.00304839,-2.40897
1480687894156085,-1.18141,0.00304839,-2.40897
1480687894178645,-1.18141,0.00304839,-2.40897
1480687894193684,-1.18141,0.00304839,-2.40897
1480687894210228,-1.18141,0.00304839,-2.40897
1480687894229782,-1.18126,0.00301198,-2.4089
1480687894247329,-1.18126,0.00301198,-2.4089
1480687894269888,-1.18141,0.00304839,-2.40897
1480687894289439,-1.18141,0.00304839,-2.40897
1480687894307989,-1.18141,0.00304839,-2.40897
1480687894330047,-1.18126,0.00301198,-2.4089
1480687894349603,-1.18128,0.00298778,-2.409
1480687894367648,-1.18128,0.00298778,-2.409
1480687894390206,-1.18128,0.00298778,-2.409
1480687894411263,-1.18122,0.0030824,-2.40905
1480687894432322,-1.18123,0.00314594,-2.40898
1480687894450368,-1.18107,0.00304601,-2.40898
1480687894469417,-1.18107,0.00304601,-2.40898
1480687894491978,-1.18107,0.00304601,-2.40898
1480687894510025,-1.18108,0.00310952,-2.40891
1480687894531082,-1.18108,0.00310952,-2.40891
1480687894547626,-1.18108,0.00310952,-2.40891
1480687894573193,-1.18108,0.00310952,-2.40891
1480687894592244,-1.18108,0.00310952,-2.40891
1480687894607284,-1.18092,0.0030731,-2.40885
1480687894667946,-1.18108,0.00310952,-2.40891
1480687894690004,-1.18108,0.00310952,-2.40891
1480687894695018,-1.18089,0.00314355,-2.40899
1480687894712564,-1.18089,0.00314355,-2.40899
1480687894735124,-1.18074,0.00310714,-2.40892
1480687894750164,-1.18089,0.00314355,-2.40899
1480687894772223,-1.18089,0.00314355,-2.40899
1480687894787262,-1.18074,0.00310714,-2.40892
1480687894810325,-1.18074,0.00310714,-2.40892
1480687894831383,-1.18074,0.00310714,-2.40892
1480687894853439,-1.18076,0.00308294,-2.40902
1480687894869983,-1.18076,0.00308294,-2.40902
1480687894898561,-1.18076,0.00308294,-2.40902
1480687894912094,-1.18074,0.00310714,-2.40892
1480687894943678,-1.18076,0.00308294,-2.40902
1480687894957215,-1.18076,0.00308294,-2.40902
1480687894972255,-1.18061,0.00304652,-2.40896
1480687894990804,-1.18061,0.00304652,-2.40896
1480687895011860,-1.18062,0.00311,-2.40889
1480687895032917,-1.18056,0.00320465,-2.40893
1480687895054974,-1.18056,0.00320465,-2.40893
1480687895071519,-1.18056,0.00320465,-2.40893
1480687895094079,-1.18056,0.00320465,-2.40893
1480687895110122,-1.18056,0.00320465,-2.40893
1480687895131680,-1.18056,0.00320465,-2.40893
1480687895152735,-1.18106,0.00342984,-2.40912
1480687895176800,-1.18106,0.00342984,-2.40912
1480687895204873,-1.1809,0.00339342,-2.40905
1480687895222921,-1.18041,0.00346441,-2.40918
1480687895244479,-1.18041,0.00346441,-2.40918
1480687895266038,-1.18041,0.00346441,-2.40918
1480687895272553,-1.18038,0.00348858,-2.40908
1480687895289097,-1.18054,0.00352503,-2.40914
1480687895311657,-1.18041,0.00346441,-2.40918
1480687895332713,-1.18042,0.00352792,-2.40911
1480687895350260,-1.18042,0.00352792,-2.40911
1480687895372318,-1.18042,0.00352792,-2.40911
1480687895393376,-1.18042,0.00352792,-2.40911
1480687895409918,-1.18042,0.00352792,-2.40911
1480687895431978,-1.1802,0.00358612,-2.40909
1480687895454036,-1.1802,0.00358612,-2.40909
1480687895469077,-1.18023,0.00356198,-2.40918
1480687895491635,-1.18023,0.00356198,-2.40918
1480687895514198,-1.18023,0.00356198,-2.40918
1480687895535755,-1.1802,0.00358612,-2.40909
1480687895551796,-1.1802,0.00358612,-2.40909
1480687895572852,-1.1802,0.00358612,-2.40909
1480687895589396,-1.18023,0.00356198,-2.40918
1480687895611956,-1.18023,0.00356198,-2.40918
1480687895632510,-1.18023,0.00356198,-2.40918
1480687895649058,-1.18023,0.00356198,-2.40918
1480687895671614,-1.18023,0.00356198,-2.40918
1480687895709716,-1.18023,0.00356198,-2.40918
1480687895712223,-1.18023,0.00356198,-2.40918
1480687895733780,-1.18007,0.00352556,-2.40912
1480687895753332,-1.18007,0.00352556,-2.40912
1480687895770879,-1.18002,0.00362022,-2.40916
1480687895791433,-1.18002,0.00368369,-2.40909
1480687895812488,-1.18002,0.00368369,-2.40909
1480687895829033,-1.18002,0.00368369,-2.40909
1480687895858110,-1.17986,0.0035838,-2.4091
1480687895874655,-1.18002,0.00362022,-2.40916
1480687895889193,-1.18002,0.00362022,-2.40916
1480687895911754,-1.18002,0.00368369,-2.40909
1480687895934314,-1.18002,0.00368369,-2.40909
1480687895956371,-1.18002,0.00368369,-2.40909
1480687895971913,-1.1799,0.00362311,-2.40913
1480687896017033,-1.1799,0.00362311,-2.40913
1480687896054633,-1.1799,0.00362311,-2.40913
1480687896057139,-1.1799,0.00362311,-2.40913
1480687896075188,-1.1799,0.00362311,-2.40913
1480687896091731,-1.1799,0.00362311,-2.40913
1480687896114794,-1.1799,0.00362311,-2.40913
1480687896129834,-1.1799,0.00362311,-2.40913
1480687896151893,-1.1799,0.00362311,-2.40913
1480687896173951,-1.1799,0.00362311,-2.40913
1480687896188488,-1.17968,0.00368131,-2.40911
1480687896219070,-1.17968,0.00368131,-2.40911
1480687896241630,-1.17974,0.00358666,-2.40906
1480687896264191,-1.1799,0.00362311,-2.40913
1480687896285748,-1.17974,0.00358666,-2.40906
1480687896296276,-1.17968,0.00368131,-2.40911
1480687896315330,-1.17992,0.00348914,-2.40905
1480687896331873,-1.17998,0.00339446,-2.409
1480687896353928,-1.17998,0.00339446,-2.409
1480687896374984,-1.17998,0.00339446,-2.409
1480687896391529,-1.17998,0.00339446,-2.409
1480687896414089,-1.17998,0.00339446,-2.409
1480687896435145,-1.17998,0.00339446,-2.409
1480687896451688,-1.17998,0.00339446,-2.409
1480687896488787,-1.18,0.00337029,-2.4091
1480687896521374,-1.18,0.00337029,-2.4091
1480687896533909,-1.17994,0.00346497,-2.40915
1480687896543433,-1.17995,0.00352842,-2.40908
1480687896562484,-1.17993,0.00355259,-2.40898
1480687896571507,-1.17995,0.00352842,-2.40908
1480687896601086,-1.17995,0.00352842,-2.40908
1480687896615123,-1.17995,0.00352842,-2.40908
1480687896632169,-1.17995,0.00352842,-2.40908
1480687896653726,-1.17993,0.00355259,-2.40898
1480687896675284,-1.17995,0.00352842,-2.40908
1480687896705364,-1.17995,0.00352842,-2.40908
1480687896713886,-1.17995,0.00352842,-2.40908
1480687896745972,-1.1798,0.00349197,-2.40901
1480687896752989,-1.17995,0.00352842,-2.40908
1480687896774046,-1.17995,0.00352842,-2.40908
1480687896796609,-1.17995,0.00352842,-2.40908
1480687896825182,-1.17995,0.00352842,-2.40908
1480687896834209,-1.1798,0.00349197,-2.40901
1480687896862781,-1.17974,0.00358666,-2.40906
1480687896871807,-1.17974,0.00358666,-2.40906
1480687896901384,-1.1798,0.00349197,-2.40901
1480687896916424,-1.17974,0.00358666,-2.40906
1480687896930963,-1.17974,0.00358666,-2.40906
1480687896955027,-1.17974,0.00358666,-2.40906
1480687896977587,-1.17974,0.00358666,-2.40906
1480687896991127,-1.17961,0.00352607,-2.40909
1480687897022707,-1.17961,0.00352607,-2.40909
1480687897036243,-1.17961,0.00352607,-2.40909
1480687897050781,-1.17962,0.00358952,-2.40902
1480687897089384,-1.17962,0.00358952,-2.40902
1480687897096905,-1.17962,0.00358952,-2.40902
1480687897117962,-1.17962,0.00358952,-2.40902
1480687897141523,-1.17956,0.0036842,-2.40907
1480687897156563,-1.17956,0.0036842,-2.40907
1480687897177619,-1.17956,0.0036842,-2.40907
1480687897194165,-1.17956,0.0036842,-2.40907
1480687897216723,-1.17956,0.0036842,-2.40907
1480687897230760,-1.17956,0.0036842,-2.40907
1480687897261845,-1.17941,0.00364775,-2.409
1480687897282899,-1.17956,0.0036842,-2.40907
1480687897297939,-1.17956,0.0036842,-2.40907
1480687897315487,-1.17956,0.0036842,-2.40907
1480687897337544,-1.17956,0.0036842,-2.40907
1480687897357598,-1.17941,0.00364775,-2.409
1480687897374643,-1.17941,0.00364775,-2.409
1480687897396702,-1.1795,0.00377888,-2.40912
1480687897419262,-1.1795,0.00377888,-2.40912
1480687897434303,-1.1795,0.00377888,-2.40912
1480687897464382,-1.1795,0.00377888,-2.40912
1480687897478421,-1.17936,0.00380588,-2.40898
1480687897493961,-1.17936,0.00380588,-2.40898
1480687897524040,-1.17936,0.00380588,-2.40898
1480687897537577,-1.17936,0.00380588,-2.40898
1480687897554622,-1.17936,0.00380588,-2.40898
1480687897576681,-1.17936,0.00380588,-2.40898
1480687897597736,-1.17938,0.00378174,-2.40908
1480687897621801,-1.17923,0.0037453,-2.40901
1480687897637341,-1.17938,0.00378174,-2.40908
1480687897657897,-1.17938,0.00378174,-2.40908
1480687897673939,-1.17938,0.00378174,-2.40908
1480687897696499,-1.17938,0.00378174,-2.40908
1480687897720063,-1.17938,0.00378174,-2.40908
1480687897742120,-1.17938,0.00378174,-2.40908
1480687897765683,-1.17938,0.00378174,-2.40908
1480687897786738,-1.17938,0.00378174,-2.40908
1480687897796265,-1.17936,0.00380588,-2.40898
1480687897846899,-1.17938,0.00378174,-2.40908
1480687897854427,-1.17938,0.00378174,-2.40908
1480687897856926,-1.17938,0.00378174,-2.40908
1480687897883998,-1.17938,0.00378174,-2.40908
1480687897905053,-1.17938,0.00378174,-2.40908
1480687897913576,-1.17933,0.00387643,-2.40913
1480687897942654,-1.17933,0.00387643,-2.40913
1480687897959198,-1.17938,0.00378174,-2.40908
1480687897974238,-1.17923,0.0037453,-2.40901
1480687897999304,-1.17938,0.00378174,-2.40908
1480687898019358,-1.17938,0.00378174,-2.40908
1480687898033395,-1.17933,0.00387643,-2.40913
1480687898056957,-1.17975,0.00365014,-2.40899
1480687898079016,-1.18018,0.00342388,-2.40885
1480687898094056,-1.18017,0.0033604,-2.40892
1480687898116616,-1.18017,0.0033604,-2.40892
1480687898139176,-1.18017,0.0033604,-2.40892
1480687898153214,-1.18017,0.0033604,-2.40892
1480687898176777,-1.18017,0.0033604,-2.40892
1480687898199838,-1.18057,0.00326816,-2.40886
1480687898227912,-1.1808,0.00307599,-2.40881
1480687898236937,-1.18085,0.00291783,-2.40883
1480687898258994,-1.18085,0.00291783,-2.40883
1480687898287570,-1.18145,0.00304151,-2.40875
1480687898296595,-1.18145,0.00304151,-2.40875
1480687898319155,-1.18145,0.00304151,-2.40875
1480687898341213,-1.18151,0.00294692,-2.40871
1480687898364275,-1.18151,0.00294692,-2.40871
1480687898379314,-1.1815,0.00288338,-2.40878
1480687898400370,-1.1815,0.00288338,-2.40878
1480687898416413,-1.1815,0.00288338,-2.40878
1480687898446494,-1.1815,0.00288338,-2.40878
1480687898460030,-1.18156,0.00278876,-2.40873
1480687898476575,-1.18156,0.00278876,-2.40873
1480687898499635,-1.18193,0.0026573,-2.40864
1480687898520189,-1.18266,0.00250405,-2.40864
1480687898567815,-1.18321,0.00227517,-2.40854
1480687898573832,-1.18379,0.00208563,-2.40847
1480687898580349,-1.18427,0.00176522,-2.40829
1480687898596893,-1.18484,0.00151214,-2.40829
1480687898618952,-1.18514,0.00122568,-2.40818
1480687898640009,-1.18529,0.00126201,-2.40825
1480687898664072,-1.18529,0.00126201,-2.40825
1480687898679111,-1.18527,0.00128639,-2.40815
1480687898702675,-1.18526,0.0012227,-2.40822
1480687898717213,-1.18526,0.0012227,-2.40822
1480687898752807,-1.18526,0.0012227,-2.40822
1480687898761832,-1.18547,0.00116456,-2.40824
1480687898783890,-1.18547,0.00116456,-2.40824
1480687898798931,-1.18547,0.00116456,-2.40824
1480687898830013,-1.18547,0.00116456,-2.40824
1480687898845053,-1.18547,0.00116456,-2.40824
1480687898860094,-1.18547,0.00116456,-2.40824
1480687898898195,-1.18547,0.00116456,-2.40824
1480687898902706,-1.18552,0.00100636,-2.40826
1480687898919250,-1.18565,0.0010671,-2.40823
1480687898941810,-1.18565,0.0010671,-2.40823
1480687898955847,-1.18565,0.0010671,-2.40823
1480687898978909,-1.18565,0.0010671,-2.40823
1480687899001469,-1.18565,0.0010671,-2.40823
1480687899016008,-1.18571,0.000972599,-2.40818
1480687899040072,-1.18571,0.000972599,-2.40818
1480687899069650,-1.18571,0.000972599,-2.40818
1480687899076168,-1.18571,0.000972599,-2.40818
1480687899099232,-1.1857,0.000908911,-2.40825
1480687899122289,-1.1857,0.000908911,-2.40825
1480687899150866,-1.1857,0.000908911,-2.40825
1480687899159390,-1.18585,0.00094524,-2.40832
1480687899188968,-1.18583,0.000969649,-2.40822
1480687899202504,-1.18583,0.000969649,-2.40822
1480687899220050,-1.18589,0.000875175,-2.40817
1480687899247624,-1.18591,0.000850737,-2.40827
1480687899262663,-1.18589,0.000875175,-2.40817
1480687899287228,-1.18589,0.000875175,-2.40817
1480687899309288,-1.18604,0.000911474,-2.40824
1480687899330845,-1.18604,0.000911474,-2.40824
1480687899353907,-1.18604,0.000911474,-2.40824
1480687899361928,-1.18589,0.000875175,-2.40817
1480687899382482,-1.18604,0.000911474,-2.40824
1480687899399027,-1.18603,0.000847787,-2.40831
1480687899421586,-1.18604,0.000911474,-2.40824
1480687899442642,-1.18617,0.000972212,-2.40821
1480687899459186,-1.18622,0.000814021,-2.40823
1480687899487762,-1.18607,0.000777692,-2.40816
1480687899502802,-1.18609,0.000753284,-2.40826
1480687899519345,-1.18609,0.000753284,-2.40826
1480687899541405,-1.18622,0.000814021,-2.40823
1480687899562461,-1.18622,0.000814021,-2.40823
1480687899579005,-1.18622,0.000814021,-2.40823
1480687899601565,-1.18622,0.000814021,-2.40823
1480687899624125,-1.18622,0.000814021,-2.40823
1480687899639164,-1.18622,0.000814021,-2.40823
1480687899661725,-1.18622,0.000814021,-2.40823
1480687899684786,-1.18622,0.000814021,-2.40823
1480687899706845,-1.18622,0.000814021,-2.40823
1480687899727901,-1.18622,0.000814021,-2.40823
1480687899744946,-1.18622,0.000814021,-2.40823
1480687899774023,-1.18622,0.000814021,-2.40823
1480687899782044,-1.18622,0.000814021,-2.40823
1480687899804605,-1.18622,0.000814021,-2.40823
1480687899825160,-1.18622,0.000814021,-2.40823
1480687899842205,-1.18622,0.000814021,-2.40823
1480687899864264,-1.18622,0.000814021,-2.40823
1480687899878300,-1.18622,0.000814021,-2.40823
1480687899902365,-1.18622,0.000814021,-2.40823
1480687899924423,-1.18622,0.000814021,-2.40823
1480687899938461,-1.18622,0.000814021,-2.40823
1480687899961522,-1.18622,0.000814021,-2.40823
1480687899984081,-1.18622,0.000814021,-2.40823
1480687900005138,-1.18622,0.000814021,-2.40823
1480687900021181,-1.18622,0.000814021,-2.40823
1480687900045746,-1.18638,0.00085032,-2.4083
1480687900059281,-1.18622,0.000814021,-2.40823
1480687900082844,-1.18638,0.00085032,-2.4083
1480687900111923,-1.18622,0.000814021,-2.40823
1480687900125459,-1.18628,0.000719547,-2.40818
1480687900141502,-1.18628,0.000719547,-2.40818
1480687900178097,-1.18628,0.000719547,-2.40818
1480687900186620,-1.18643,0.000755847,-2.40825
1480687900202162,-1.18643,0.000755847,-2.40825
1480687900230738,-1.18622,0.000814021,-2.40823
1480687900245277,-1.18628,0.000719547,-2.40818
1480687900261822,-1.18622,0.000814021,-2.40823
1480687900283879,-1.18628,0.000719547,-2.40818
1480687900319975,-1.18628,0.000719547,-2.40818
1480687900332509,-1.18643,0.000755847,-2.40825
1480687900351559,-1.18643,0.000755847,-2.40825
1480687900372615,-1.18627,0.00065583,-2.40825
1480687900383645,-1.18627,0.00065583,-2.40825
1480687900404200,-1.18627,0.00065583,-2.40825
1480687900426759,-1.18643,0.000692129,-2.40832
1480687900441298,-1.18643,0.000692129,-2.40832
1480687900470375,-1.18643,0.000692129,-2.40832
1480687900486919,-1.18627,0.00065583,-2.40825
1480687900507474,-1.18627,0.00065583,-2.40825
1480687900531538,-1.18627,0.00065583,-2.40825
1480687900545575,-1.18627,0.00065583,-2.40825
1480687900561618,-1.18643,0.000692129,-2.40832
1480687900584678,-1.18643,0.000692129,-2.40832
1480687900613257,-1.18628,0.000719547,-2.40818
1480687900629299,-1.18628,0.000719547,-2.40818
1480687900657874,-1.18627,0.00065583,-2.40825
1480687900675922,-1.18628,0.000719547,-2.40818
1480687900681436,-1.18643,0.000755847,-2.40825
1480687900705500,-1.18638,0.00085032,-2.4083
1480687900726557,-1.18643,0.000755847,-2.40825
1480687900741095,-1.18628,0.000719547,-2.40818
1480687900764157,-1.18628,0.000719547,-2.40818
1480687900786716,-1.18628,0.000719547,-2.40818
1480687900800754,-1.18643,0.000755847,-2.40825
1480687900824317,-1.18622,0.000814021,-2.40823
1480687900847378,-1.18628,0.000719547,-2.40818
1480687900860917,-1.18628,0.000719547,-2.40818
1480687900889991,-1.18628,0.000719547,-2.40818
1480687900908541,-1.18628,0.000719547,-2.40818
1480687900936615,-1.18628,0.000719547,-2.40818
1480687900950151,-1.18628,0.000719547,-2.40818
1480687900975719,-1.18628,0.000719547,-2.40818
1480687900982737,-1.18628,0.000719547,-2.40818
1480687901010311,-1.18628,0.000719547,-2.40818
1480687901040892,-1.18628,0.000719547,-2.40818
1480687901056434,-1.18628,0.000719547,-2.40818
1480687901078993,-1.18628,0.000719547,-2.40818
1480687901115590,-1.18628,0.000719547,-2.40818
1480687901126119,-1.18628,0.000719547,-2.40818
1480687901139153,-1.18628,0.000719547,-2.40818
1480687901146673,-1.18628,0.000719547,-2.40818
1480687901167729,-1.18628,0.000719547,-2.40818
1480687901184274,-1.18628,0.000719547,-2.40818
1480687901206833,-1.18628,0.000719547,-2.40818
1480687901229393,-1.18628,0.000719547,-2.40818
1480687901244435,-1.18628,0.000719547,-2.40818
1480687901266493,-1.18628,0.000719547,-2.40818
1480687901289052,-1.18628,0.000719547,-2.40818
1480687901304594,-1.18638,0.00085032,-2.4083
1480687901349212,-1.18638,0.00085032,-2.4083
1480687901351718,-1.18638,0.00085032,-2.4083
1480687901364252,-1.18622,0.000814021,-2.40823
1480687901386812,-1.18628,0.000719547,-2.40818
1480687901424914,-1.18643,0.000755847,-2.40825
1480687901426922,-1.18643,0.000755847,-2.40825
1480687901447473,-1.18638,0.00085032,-2.4083
1480687901469532,-1.18638,0.00085032,-2.4083
1480687901491591,-1.18622,0.000814021,-2.40823
1480687901514150,-1.18622,0.000814021,-2.40823
1480687901529191,-1.18628,0.000719547,-2.40818
1480687901543732,-1.18622,0.000814021,-2.40823
1480687901566791,-1.18638,0.00085032,-2.4083
1480687901588849,-1.18622,0.000814021,-2.40823
1480687901617926,-1.18622,0.000814021,-2.40823
1480687901628455,-1.18622,0.000814021,-2.40823
1480687901656528,-1.18622,0.000814021,-2.40823
1480687901665053,-1.18622,0.000814021,-2.40823
1480687901700145,-1.18622,0.000814021,-2.40823
1480687901723207,-1.18622,0.000814021,-2.40823
1480687901762326,-1.18622,0.000814021,-2.40823
1480687901765320,-1.18622,0.000814021,-2.40823
1480687901814449,-1.18622,0.000814021,-2.40823
1480687901822974,-1.18622,0.000814021,-2.40823
1480687901835505,-1.18638,0.00085032,-2.4083
1480687901844045,-1.18638,0.00085032,-2.4083
1480687901846535,-1.18638,0.00085032,-2.4083
1480687901868092,-1.18622,0.000814021,-2.40823
1480687901897672,-1.18622,0.000814021,-2.40823
1480687901927750,-1.18622,0.000814021,-2.40823
1480687901934271,-1.18635,0.000874758,-2.4082
1480687901949809,-1.18635,0.000874758,-2.4082
1480687901963848,-1.18635,0.000874758,-2.4082
1480687902048070,-1.18638,0.00085032,-2.4083
1480687902069126,-1.18638,0.00085032,-2.4083
1480687902094695,-1.18635,0.000874758,-2.4082
1480687902114246,-1.18635,0.000874758,-2.4082
1480687902115750,-1.18638,0.00085032,-2.4083
1480687902129789,-1.18638,0.00085032,-2.4083
1480687902157862,-1.18638,0.00085032,-2.4083
1480687902167388,-1.18638,0.00085032,-2.4083
1480687902188945,-1.1863,0.00103295,-2.40818
1480687902211505,-1.1863,0.00103295,-2.40818
1480687902227548,-1.1863,0.00103295,-2.40818
1480687902256625,-1.18632,0.000944823,-2.40835
1480687902280689,-1.18638,0.00085032,-2.4083
1480687902302749,-1.18635,0.000874758,-2.4082
1480687902324806,-1.18645,0.00100553,-2.40831
1480687902329820,-1.18645,0.00100553,-2.40831
1480687902348369,-1.18635,0.000874758,-2.4082
1480687902368925,-1.18635,0.000874758,-2.4082
1480687902393489,-1.18635,0.000874758,-2.4082
1480687902406526,-1.18635,0.000874758,-2.4082
1480687902436605,-1.18645,0.00100553,-2.40831
1480687902450139,-1.18646,0.00106928,-2.40824
1480687902481723,-1.18646,0.00106928,-2.40824
1480687902489243,-1.18646,0.00106928,-2.40824
1480687902533862,-1.1863,0.00103295,-2.40818
1480687902571462,-1.18646,0.00106928,-2.40824
1480687902581490,-1.18646,0.00106928,-2.40824
1480687902603046,-1.18646,0.00106928,-2.40824
1480687902609563,-1.18646,0.00106928,-2.40824
1480687902633127,-1.18646,0.00106928,-2.40824
1480687902652678,-1.18646,0.00106928,-2.40824
1480687902669223,-1.18646,0.00106928,-2.40824
1480687902692285,-1.18646,0.00106928,-2.40824
1480687902716347,-1.18646,0.00106928,-2.40824
1480687902729883,-1.18646,0.00106928,-2.40824
1480687902752443,-1.18646,0.00106928,-2.40824
1480687902774001,-1.18646,0.00106928,-2.40824
1480687902789041,-1.18646,0.00106928,-2.40824
1480687902812113,-1.18659,0.00113001,-2.40821
1480687902834161,-1.18659,0.00113001,-2.40821
1480687902879782,-1.18659,0.00113001,-2.40821
1480687902882288,-1.18659,0.00113001,-2.40821
1480687902900337,-1.18646,0.00106928,-2.40824
1480687902909361,-1.18659,0.00113001,-2.40821
1480687902931420,-1.18659,0.00113001,-2.40821
1480687902945958,-1.18653,0.00122449,-2.40826
1480687902969019,-1.18653,0.00122449,-2.40826
1480687902999102,-1.18653,0.00122449,-2.40826
1480687903015142,-1.18659,0.00113001,-2.40821
1480687903030684,-1.18659,0.00113001,-2.40821
1480687903051739,-1.18674,0.00116631,-2.40828
1480687903089840,-1.18674,0.00116631,-2.40828
1480687903092348,-1.18674,0.00116631,-2.40828
1480687903136465,-1.18668,0.00126079,-2.40832
1480687903156518,-1.18659,0.00113001,-2.40821
1480687903158022,-1.18653,0.00122449,-2.40826
1480687903185596,-1.18668,0.00126079,-2.40832
1480687903201638,-1.18668,0.00126079,-2.40832
1480687903210666,-1.18668,0.00126079,-2.40832
1480687903231719,-1.18653,0.00122449,-2.40826
1480687903252773,-1.18653,0.00122449,-2.40826
1480687903269819,-1.18659,0.00113001,-2.40821
1480687903291376,-1.18659,0.00113001,-2.40821
1480687903315943,-1.18659,0.00113001,-2.40821
1480687903328977,-1.18659,0.00113001,-2.40821
1480687903366577,-1.18674,0.00116631,-2.40828
1480687903411697,-1.18659,0.00113001,-2.40821
1480687903434759,-1.18659,0.00113001,-2.40821
1480687903436263,-1.18659,0.00113001,-2.40821
1480687903457819,-1.18674,0.00116631,-2.40828
1480687903462832,-1.18674,0.00116631,-2.40828
1480687903478876,-1.18653,0.00122449,-2.40826
1480687903501936,-1.18659,0.00113001,-2.40821
1480687903510461,-1.18659,0.00113001,-2.40821
1480687903548059,-1.18659,0.00113001,-2.40821
1480687903554075,-1.18674,0.00116631,-2.40828
1480687903569116,-1.18668,0.00126079,-2.40832
1480687903591675,-1.18674,0.00116631,-2.40828
1480687903614235,-1.18659,0.00113001,-2.40821
1480687903696955,-1.18659,0.00113001,-2.40821
1480687903712998,-1.18659,0.00113001,-2.40821
1480687903718513,-1.18659,0.00113001,-2.40821
1480687903720017,-1.18672,0.00119072,-2.40818
1480687903734054,-1.18674,0.00116631,-2.40828
1480687903756613,-1.18659,0.00113001,-2.40821
1480687903779174,-1.18674,0.00116631,-2.40828
1480687903802235,-1.18674,0.00116631,-2.40828
1480687903808251,-1.18674,0.00116631,-2.40828
1480687903845351,-1.18674,0.00116631,-2.40828
1480687903853872,-1.18674,0.00116631,-2.40828
1480687903868912,-1.18674,0.00116631,-2.40828
1480687903891974,-1.18659,0.00113001,-2.40821
1480687903914534,-1.18659,0.00113001,-2.40821
1480687903946118,-1.18674,0.00116631,-2.40828
1480687903959657,-1.18674,0.00116631,-2.40828
1480687903974695,-1.18674,0.00116631,-2.40828
1480687903995248,-1.18674,0.00116631,-2.40828
1480687904012294,-1.18659,0.00113001,-2.40821
1480687904034352,-1.18659,0.00113001,-2.40821
1480687904056410,-1.18659,0.00113001,-2.40821
1480687904078971,-1.18659,0.00113001,-2.40821
1480687904101537,-1.18674,0.00116631,-2.40828
1480687904122586,-1.18659,0.00113001,-2.40821
1480687904146651,-1.18659,0.00113001,-2.40821
1480687904168721,-1.18659,0.00113001,-2.40821
1480687904175741,-1.18659,0.00113001,-2.40821
1480687904192284,-1.18659,0.00113001,-2.40821
1480687904214844,-1.18674,0.00116631,-2.40828
1480687904238407,-1.18653,0.00122449,-2.40826
1480687904264977,-1.18659,0.00113001,-2.40821
1480687904274001,-1.18659,0.00113001,-2.40821
1480687904295057,-1.18653,0.00122449,-2.40826
1480687904312102,-1.18653,0.00122449,-2.40826
1480687904334663,-1.18653,0.00122449,-2.40826
1480687904356721,-1.18653,0.00122449,-2.40826
1480687904377778,-1.18653,0.00122449,-2.40826
1480687904400337,-1.1864,0.00116375,-2.40829
1480687904425404,-1.18643,0.00109369,-2.40814
1480687904446961,-1.18659,0.00113001,-2.40821
1480687904455985,-1.18653,0.00122449,-2.40826
1480687904477044,-1.18659,0.00113001,-2.40821
1480687904492082,-1.18653,0.00122449,-2.40826
1480687904514641,-1.18646,0.00106928,-2.40824
1480687904544220,-1.1864,0.00116375,-2.40829
1480687904550737,-1.1864,0.00116375,-2.40829
1480687904588337,-1.18637,0.00118816,-2.40819
1480687904597361,-1.18641,0.00122747,-2.40822
1480687904611400,-1.18641,0.00122747,-2.40822
1480687904634460,-1.18641,0.00122747,-2.40822
1480687904656519,-1.18641,0.00122747,-2.40822
1480687904679079,-1.18635,0.00132194,-2.40827
1480687904701639,-1.18635,0.00132194,-2.40827
1480687904716679,-1.18635,0.00132194,-2.40827
1480687904746759,-1.18635,0.00132194,-2.40827
1480687904754278,-1.18619,0.00128561,-2.4082
1480687904776841,-1.18622,0.0012612,-2.4083
1480687904791377,-1.18622,0.0012612,-2.4083
1480687904814941,-1.18619,0.00128561,-2.4082
1480687904844018,-1.18614,0.0014438,-2.40818
1480687904866668,-1.18617,0.00141943,-2.40828
1480687904874097,-1.18617,0.00141943,-2.40828
1480687904910694,-1.18617,0.00141943,-2.40828
1480687904934257,-1.18601,0.0013831,-2.40821
1480687904936765,-1.18617,0.00141943,-2.40828
1480687904956817,-1.18611,0.0015139,-2.40832
1480687904977874,-1.18596,0.00147757,-2.40826
1480687904993915,-1.18596,0.00147757,-2.40826
1480687905022491,-1.18596,0.00154126,-2.40819
1480687905045051,-1.18596,0.00154126,-2.40819
1480687905054076,-1.18596,0.00154126,-2.40819
1480687905076637,-1.18591,0.00163573,-2.40823
1480687905099196,-1.18591,0.00163573,-2.40823
1480687905122758,-1.18591,0.00163573,-2.40823
1480687905144316,-1.18591,0.00163573,-2.40823
1480687905165372,-1.18575,0.0015994,-2.40817
1480687905188433,-1.18591,0.00163573,-2.40823
1480687905211494,-1.18591,0.00163573,-2.40823
1480687905235558,-1.18591,0.00163573,-2.40823
1480687905241574,-1.18609,0.00160199,-2.40815
1480687905256614,-1.18655,0.00135192,-2.40812
1480687905277673,-1.18689,0.000907362,-2.40804
1480687905294214,-1.18689,0.000907362,-2.40804
1480687905324294,-1.18748,0.000967771,-2.40803
1480687905347858,-1.18807,0.000778526,-2.40796
1480687905355377,-1.18869,0.000367343,-2.40798
1480687905376434,-1.18926,0.000114322,-2.40798
1480687905398994,-1.18954,-0.000299573,-2.40802
1480687905423058,-1.18954,-0.000299573,-2.40802
1480687905445116,-1.18954,-0.000299573,-2.40802
1480687905467175,-1.19021,-0.000358105,-2.40807
1480687905492241,-1.19043,-0.000525355,-2.40791
1480687905510791,-1.19087,-0.000839144,-2.40794
1480687905520816,-1.19132,-0.00115293,-2.40798
1480687905533350,-1.1916,-0.00150296,-2.40794
1480687905556913,-1.19197,-0.00163388,-2.40785
1480687905578972,-1.19252,-0.00175327,-2.40793
1480687905601532,-1.19295,-0.00197843,-2.40779
1480687905624092,-1.19295,-0.00197843,-2.40779
1480687905657180,-1.19295,-0.00197843,-2.40779
1480687905660188,-1.19295,-0.00197843,-2.40779
1480687905677235,-1.19295,-0.00197843,-2.40779
1480687905699292,-1.19295,-0.00197843,-2.40779
1480687905744913,-1.19295,-0.00197843,-2.40779
1480687905746918,-1.19295,-0.00197843,-2.40779
1480687905782011,-1.19295,-0.00197843,-2.40779
1480687905784518,-1.19337,-0.00226754,-2.40773
1480687905804572,-1.19337,-0.00226754,-2.40773
1480687905819611,-1.19352,-0.00223139,-2.40779
1480687905840667,-1.19352,-0.00223139,-2.40779
1480687905856711,-1.19402,-0.00230131,-2.40767
1480687905885286,-1.19408,-0.00239557,-2.40762
1480687905931910,-1.19467,-0.00258443,-2.40756
1480687905934417,-1.19467,-0.00258443,-2.40756
1480687905941937,-1.19467,-0.00258443,-2.40756
1480687905978036,-1.19461,-0.00249017,-2.4076
1480687905999590,-1.19461,-0.00249017,-2.4076
1480687906002096,-1.19519,-0.00267902,-2.40753
1480687906021649,-1.19573,-0.00315643,-2.40737
1480687906044212,-1.19573,-0.00315643,-2.40737
1480687906067270,-1.19573,-0.00315643,-2.40737
1480687906081308,-1.19586,-0.00309551,-2.40734
1480687906096849,-1.19586,-0.00309551,-2.40734
1480687906134950,-1.19586,-0.00309551,-2.40734
1480687906139963,-1.19586,-0.00309551,-2.40734
1480687906156507,-1.19586,-0.00309551,-2.40734
1480687906185084,-1.19586,-0.00309551,-2.40734
1480687906207643,-1.19586,-0.00309551,-2.40734
1480687906230203,-1.19586,-0.00309551,-2.40734
1480687906254769,-1.19604,-0.00319288,-2.40733
1480687906277329,-1.19673,-0.00363407,-2.40724
1480687906279333,-1.19672,-0.00369818,-2.40731
1480687906301393,-1.19672,-0.00369818,-2.40731
1480687906322949,-1.19673,-0.00363407,-2.40724
1480687906344009,-1.19673,-0.00363407,-2.40724
1480687906367067,-1.19725,-0.00379271,-2.40728
1480687906390129,-1.1973,-0.00395099,-2.40731
1480687906396645,-1.1973,-0.00395099,-2.40731
1480687906420209,-1.1973,-0.00395099,-2.40731
1480687906457307,-1.1973,-0.00395099,-2.40731
1480687906459312,-1.1973,-0.00395099,-2.40731
1480687906486385,-1.19725,-0.00379271,-2.40728
1480687906508944,-1.19768,-0.00417061,-2.40739
1480687906515963,-1.19804,-0.00455044,-2.40723
1480687906563089,-1.19874,-0.00480645,-2.40727
1480687906575624,-1.19874,-0.00480645,-2.40727
1480687906598683,-1.19889,-0.00477042,-2.40734
1480687906605201,-1.19889,-0.00477042,-2.40734
1480687906621745,-1.19874,-0.00480645,-2.40727
1480687906642801,-1.19922,-0.00518938,-2.40716
1480687906659345,-1.19981,-0.00537791,-2.40709
1480687906694939,-1.19981,-0.00537791,-2.40709
1480687906714993,-1.19996,-0.00534191,-2.40716
1480687906719003,-1.19996,-0.00534191,-2.40716
1480687906765627,-1.19996,-0.00534191,-2.40716
1480687906787184,-1.19996,-0.00534191,-2.40716
1480687906789691,-1.19981,-0.00537791,-2.40709
1480687906809243,-1.20002,-0.00543603,-2.40711
1480687906831803,-1.20002,-0.00543603,-2.40711
1480687906853861,-1.19999,-0.00547525,-2.40708
1480687906861382,-1.19999,-0.00547525,-2.40708
1480687906899984,-1.20014,-0.00543928,-2.40715
1480687906901990,-1.19999,-0.00547525,-2.40708
1480687906924048,-1.20072,-0.00569204,-2.40715
1480687906944104,-1.20072,-0.00569204,-2.40715
1480687906966662,-1.20085,-0.00563106,-2.40711
1480687906989222,-1.20085,-0.00563106,-2.40711
1480687907042363,-1.20091,-0.00572512,-2.40707
1480687907044870,-1.20091,-0.00572512,-2.40707
1480687907065425,-1.2009,-0.00578937,-2.40714
1480687907086480,-1.2009,-0.00578937,-2.40714
1480687907109041,-1.20105,-0.0057534,-2.4072
1480687907130096,-1.20111,-0.00584746,-2.40716
1480687907139120,-1.20111,-0.00584746,-2.40716
1480687907161178,-1.20078,-0.00578612,-2.4071
1480687907190760,-1.20034,-0.0054081,-2.407
1480687907199781,-1.1997,-0.00506129,-2.40704
1480687907223846,-1.19903,-0.00449188,-2.407
1480687907251920,-1.19827,-0.00414185,-2.40701
1480687907272481,-1.19735,-0.00389201,-2.40702
1480687907290022,-1.19683,-0.00379757,-2.40704
1480687907319602,-1.19625,-0.00354484,-2.40704
1480687907322106,-1.19583,-0.00325597,-2.40711
1480687907342160,-1.19533,-0.00284806,-2.40712
1480687907364219,-1.19506,-0.00252301,-2.40726
1480687907386779,-1.19491,-0.00255916,-2.40719
1480687907409840,-1.1949,-0.0026232,-2.40726
1480687907432401,-1.19491,-0.00255916,-2.40719
1480687907470000,-1.19491,-0.00255916,-2.40719
1480687907478524,-1.19491,-0.00255916,-2.40719
1480687907486043,-1.19491,-0.00255916,-2.40719
1480687907498576,-1.1949,-0.0026232,-2.40726
1480687907522139,-1.1949,-0.0026232,-2.40726
1480687907544201,-1.19496,-0.00271741,-2.40721
1480687907566257,-1.19496,-0.00271741,-2.40721
1480687907595333,-1.19496,-0.00271741,-2.40721
1480687907604357,-1.1949,-0.0026232,-2.40726
1480687907618897,-1.19491,-0.00255916,-2.40719
1480687907641958,-1.1949,-0.0026232,-2.40726
1480687907665020,-1.19496,-0.00271741,-2.40721
1480687907687578,-1.19496,-0.00271741,-2.40721
1480687907709136,-1.19496,-0.00271741,-2.40721
1480687907731696,-1.19491,-0.00255916,-2.40719
1480687907746235,-1.19491,-0.00255916,-2.40719
1480687907761778,-1.19491,-0.00255916,-2.40719
1480687907798875,-1.1949,-0.0026232,-2.40726
1480687907805396,-1.19491,-0.00255916,-2.40719
1480687907821435,-1.19496,-0.00271741,-2.40721
1480687907844997,-1.19491,-0.00255916,-2.40719
1480687907872571,-1.19491,-0.00255916,-2.40719
1480687907881594,-1.19491,-0.00255916,-2.40719
1480687907904155,-1.19491,-0.00255916,-2.40719
1480687907925211,-1.19491,-0.00255916,-2.40719
1480687907942256,-1.19491,-0.00255916,-2.40719
1480687907964319,-1.19506,-0.00252301,-2.40726
1480687907986373,-1.19506,-0.00252301,-2.40726
1480687908014949,-1.19506,-0.00252301,-2.40726
1480687908023974,-1.19491,-0.00255916,-2.40719
1480687908052551,-1.19491,-0.00255916,-2.40719
1480687908076615,-1.19491,-0.00255916,-2.40719
1480687908101179,-1.19491,-0.00255916,-2.40719
1480687908106693,-1.19485,-0.00246492,-2.40724
1480687908122234,-1.19485,-0.00246492,-2.40724
1480687908159834,-1.19485,-0.00246492,-2.40724
1480687908173872,-1.19485,-0.00246492,-2.40724
1480687908182896,-1.1947,-0.00250107,-2.40717
1480687908204955,-1.1947,-0.00250107,-2.40717
1480687908243561,-1.1947,-0.00250107,-2.40717
1480687908247567,-1.19471,-0.00243703,-2.4071
1480687908263610,-1.19473,-0.00246179,-2.4072
1480687908286171,-1.19473,-0.00246179,-2.4072
1480687908307727,-1.19457,-0.00249797,-2.40713
1480687908330289,-1.19467,-0.00236756,-2.40725
1480687908354353,-1.19467,-0.00236756,-2.40725
1480687908360869,-1.19452,-0.00240374,-2.40718
1480687908383930,-1.19452,-0.00240374,-2.40718
1480687908406992,-1.19452,-0.00240374,-2.40718
1480687908429552,-1.19454,-0.0024285,-2.40728
1480687908451610,-1.19452,-0.00240374,-2.40718
1480687908466652,-1.19452,-0.00240374,-2.40718
1480687908495226,-1.19452,-0.00240374,-2.40718
1480687908504250,-1.19452,-0.00240374,-2.40718
1480687908535333,-1.19452,-0.00240374,-2.40718
1480687908542853,-1.19454,-0.0024285,-2.40728
1480687908563909,-1.19454,-0.0024285,-2.40728
1480687908586469,-1.19452,-0.00240374,-2.40718
1480687908609029,-1.19447,-0.00224546,-2.40716
1480687908631590,-1.19447,-0.00224546,-2.40716
1480687908654149,-1.19446,-0.0023095,-2.40723
1480687908684732,-1.19448,-0.00233424,-2.40733
1480687908686736,-1.19449,-0.00227019,-2.40726
1480687908715813,-1.19449,-0.00227019,-2.40726
1480687908728848,-1.19447,-0.00224546,-2.40716
1480687908751909,-1.19447,-0.00224546,-2.40716
1480687908799035,-1.19447,-0.00224546,-2.40716
1480687908802544,-1.19433,-0.00230634,-2.40719
1480687908820592,-1.19449,-0.00227019,-2.40726
1480687908827112,-1.19447,-0.00224546,-2.40716
1480687908847664,-1.19443,-0.00217596,-2.4073
1480687908864208,-1.19443,-0.00217596,-2.4073
1480687908886767,-1.19428,-0.00221211,-2.40724
1480687908907824,-1.19428,-0.00214809,-2.40717
1480687908931387,-1.19428,-0.00214809,-2.40717
1480687908961967,-1.19428,-0.00214809,-2.40717
1480687908985531,-1.19428,-0.00214809,-2.40717
1480687908990042,-1.19428,-0.00214809,-2.40717
1480687909006586,-1.19423,-0.00205386,-2.40721
1480687909029146,-1.19407,-0.00209004,-2.40715
1480687909045690,-1.1941,-0.00211477,-2.40725
1480687909074768,-1.1941,-0.00211477,-2.40725
1480687909095322,-1.19423,-0.00205386,-2.40721
1480687909120389,-1.19423,-0.00205386,-2.40721
1480687909127909,-1.19423,-0.00205386,-2.40721
1480687909154981,-1.19407,-0.00209004,-2.40715
1480687909164005,-1.19405,-0.00195652,-2.40722
1480687909187567,-1.19405,-0.00195652,-2.40722
1480687909192080,-1.19405,-0.00195652,-2.40722
1480687909214639,-1.19405,-0.00195652,-2.40722
1480687909232189,-1.19405,-0.00195652,-2.40722
1480687909259760,-1.19405,-0.00195652,-2.40722
1480687909282821,-1.19405,-0.00195652,-2.40722
1480687909305882,-1.19389,-0.0019927,-2.40716
1480687909328943,-1.19405,-0.00195652,-2.40722
1480687909334459,-1.19399,-0.00186226,-2.40727
1480687909352506,-1.19399,-0.00179824,-2.4072
1480687909373562,-1.19399,-0.00179824,-2.4072
1480687909394618,-1.19384,-0.00183442,-2.40713
1480687909418684,-1.19384,-0.00183442,-2.40713
1480687909431718,-1.19378,-0.00174016,-2.40718
1480687909454277,-1.19378,-0.00174016,-2.40718
1480687909470821,-1.19378,-0.00174016,-2.40718
1480687909491876,-1.19378,-0.00174016,-2.40718
1480687909518447,-1.19381,-0.00176489,-2.40728
1480687909532988,-1.19365,-0.00180107,-2.40721
1480687909561062,-1.19365,-0.00180107,-2.40721
1480687909574597,-1.1936,-0.00164282,-2.40719
1480687909629743,-1.1936,-0.00164282,-2.40719
1480687909632250,-1.1936,-0.00164282,-2.40719
1480687909638266,-1.1936,-0.00164282,-2.40719
1480687909656816,-1.19347,-0.00170374,-2.40722
1480687909675365,-1.19347,-0.00170374,-2.40722
1480687909697423,-1.19347,-0.00170374,-2.40722
1480687909718479,-1.19354,-0.00154856,-2.40724
1480687909739536,-1.19341,-0.00160948,-2.40727
1480687909762095,-1.19341,-0.00160948,-2.40727
1480687909795184,-1.19341,-0.00160948,-2.40727
1480687909816240,-1.19341,-0.00160948,-2.40727
1480687909838799,-1.19327,-0.00158167,-2.40713
1480687909841306,-1.19342,-0.00154546,-2.4072
1480687909868378,-1.19321,-0.0014874,-2.40718
1480687909881919,-1.19321,-0.0014874,-2.40718
1480687909907984,-1.19323,-0.00151208,-2.40728
1480687909911994,-1.19308,-0.00154829,-2.40721
1480687909953103,-1.19308,-0.00154829,-2.40721
1480687909960123,-1.19341,-0.00160948,-2.40727
1480687909972154,-1.19341,-0.00160948,-2.40727
1480687910019781,-1.19341,-0.00160948,-2.40727
1480687910022287,-1.19335,-0.00151521,-2.40732
1480687910048358,-1.19335,-0.00151521,-2.40732
1480687910095983,-1.19336,-0.00145119,-2.40725
1480687910117038,-1.19336,-0.00145119,-2.40725
1480687910122052,-1.19336,-0.00145119,-2.40725
1480687910140100,-1.19323,-0.00151208,-2.40728
1480687910168175,-1.19323,-0.00151208,-2.40728
1480687910174693,-1.19323,-0.00151208,-2.40728
1480687910196754,-1.19317,-0.00141782,-2.40733
1480687910227834,-1.19317,-0.00141782,-2.40733
1480687910243377,-1.19317,-0.00141782,-2.40733
1480687910256913,-1.19302,-0.00145403,-2.40726
1480687910271951,-1.19304,-0.00147873,-2.40736
1480687910305540,-1.1929,-0.00145096,-2.40722
1480687910318575,-1.19284,-0.00135666,-2.40727
1480687910339630,-1.19284,-0.00135666,-2.40727
1480687910361690,-1.19299,-0.00132045,-2.40734
1480687910386255,-1.19284,-0.00135666,-2.40727
1480687910393279,-1.19278,-0.00126237,-2.40732
1480687910414330,-1.19278,-0.00126237,-2.40732
1480687910438394,-1.19279,-0.00119841,-2.40725
1480687910459450,-1.19279,-0.00119841,-2.40725
1480687910477498,-1.19279,-0.00119841,-2.40725
1480687910498555,-1.1926,-0.001165,-2.40733
1480687910512090,-1.1926,-0.001165,-2.40733
1480687910535152,-1.1926,-0.001165,-2.40733
1480687910557210,-1.1926,-0.001165,-2.40733
1480687910574756,-1.19261,-0.00110102,-2.40726
1480687910595812,-1.19255,-0.00100675,-2.4073
1480687910649454,-1.1924,-0.00104299,-2.40724
1480687910656974,-1.1924,-0.00104299,-2.40724
1480687910672016,-1.19242,-0.00106764,-2.40734
1480687910677031,-1.19227,-0.00110388,-2.40727
1480687910731172,-1.19221,-0.00100958,-2.40732
1480687910748721,-1.19222,-0.000945628,-2.40725
1480687910754736,-1.19222,-0.000945628,-2.40725
1480687910799857,-1.19222,-0.000945628,-2.40725
1480687910801861,-1.19209,-0.00100651,-2.40728
1480687910819407,-1.19203,-0.000912219,-2.40733
1480687910837956,-1.19203,-0.000912219,-2.40733
1480687910910150,-1.19203,-0.000912219,-2.40733
1480687910950257,-1.19204,-0.000848264,-2.40725
1480687910957275,-1.19188,-0.000884503,-2.40719
1480687910958779,-1.19188,-0.000884503,-2.40719
1480687910970809,-1.19185,-0.000814825,-2.40733
1480687910976831,-1.19169,-0.000851065,-2.40727
1480687910994372,-1.19169,-0.000851065,-2.40727
1480687911014425,-1.19169,-0.000851065,-2.40727
1480687911036987,-1.19169,-0.000851065,-2.40727
1480687911055033,-1.19169,-0.000851065,-2.40727
1480687911074586,-1.19164,-0.000692815,-2.40724
1480687911107172,-1.19164,-0.000692815,-2.40724
1480687911129732,-1.19151,-0.000753701,-2.40728
1480687911143272,-1.19151,-0.000753701,-2.40728
1480687911158309,-1.19145,-0.000659376,-2.40732
1480687911187384,-1.19145,-0.000659376,-2.40732
1480687911209947,-1.19145,-0.000659376,-2.40732
1480687911227492,-1.19146,-0.00059545,-2.40725
1480687911236016,-1.19146,-0.00059545,-2.40725
1480687911254565,-1.1914,-0.000501126,-2.4073
1480687911302190,-1.19146,-0.00059545,-2.40725
1480687911308207,-1.19125,-0.000537395,-2.40723
1480687911323246,-1.19125,-0.000537395,-2.40723
1480687911336782,-1.19125,-0.000537395,-2.40723
1480687911376389,-1.19125,-0.000537395,-2.40723
1480687911378895,-1.19122,-0.000403762,-2.40731
1480687911413989,-1.19107,-0.000440031,-2.40724
1480687911451587,-1.19107,-0.000440031,-2.40724
1480687911465626,-1.19107,-0.000440031,-2.40724
1480687911482170,-1.19101,-0.000345707,-2.40729
1480687911490693,-1.19101,-0.000345707,-2.40729
1480687911494201,-1.19089,-0.000342667,-2.40725
1480687911516763,-1.19083,-0.000248343,-2.4073
1480687911547843,-1.19083,-0.000248343,-2.4073
1480687911555865,-1.19068,-0.000284612,-2.40723
1480687911600985,-1.19083,-0.000248343,-2.4073
1480687911623043,-1.19083,-0.000248343,-2.4073
1480687911641092,-1.19068,-0.000284612,-2.40723
1480687911653124,-1.19068,-0.000284612,-2.40723
1480687911659641,-1.19065,-0.000150949,-2.40731
1480687911690724,-1.1905,-0.000187218,-2.40724
1480687911704260,-1.1905,-0.000187218,-2.40724
1480687911736345,-1.19065,-0.000150949,-2.40731
1480687911738851,-1.1905,-0.000187218,-2.40724
1480687911759908,-1.19044,-9.28938e-005,-2.40729
1480687911787982,-1.19044,-9.28938e-005,-2.40729
1480687911797509,-1.19044,-9.28938e-005,-2.40729
1480687911817059,-1.19044,-9.28938e-005,-2.40729
1480687911847641,-1.19044,-9.28938e-005,-2.40729
1480687911856164,-1.19045,-2.90275e-005,-2.40722
1480687911879726,-1.19045,-2.90275e-005,-2.40722
1480687911917327,-1.19026,4.47035e-006,-2.4073
1480687911921838,-1.19026,4.47035e-006,-2.4073
1480687911936878,-1.19026,4.47035e-006,-2.4073
1480687911966960,-1.19026,4.47035e-006,-2.4073
1480687911985008,-1.19026,4.47035e-006,-2.4073
1480687912013582,-1.19026,4.47035e-006,-2.4073
1480687912038147,-1.19005,0.000126392,-2.40721
1480687912059705,-1.19005,0.000126392,-2.40721
1480687912062212,-1.19008,0.000101835,-2.40731
1480687912082767,-1.19008,0.000101835,-2.40731
1480687912104825,-1.19005,0.000126392,-2.40721
1480687912124377,-1.18999,0.000220746,-2.40726
1480687912146938,-1.19003,0.000260055,-2.40729
1480687912165487,-1.19003,0.000260055,-2.40729
1480687912184537,-1.18987,0.000223756,-2.40722
1480687912211609,-1.18982,0.00031811,-2.40727
1480687912217124,-1.18982,0.00031811,-2.40727
1480687912305359,-1.18982,0.00031811,-2.40727
1480687912315887,-1.18984,0.000293553,-2.40737
1480687912342458,-1.19049,0.000412166,-2.40707
1480687912365017,-1.19049,0.000412166,-2.40707
1480687912377049,-1.18972,0.000850648,-2.40691
1480687912387075,-1.18953,0.000884116,-2.40699
1480687912410638,-1.18953,0.000884116,-2.40699
1480687912417155,-1.18953,0.000884116,-2.40699
1480687912446734,-1.18938,0.000847787,-2.40692
1480687912472803,-1.18938,0.000847787,-2.40692
1480687912493358,-1.18938,0.000847787,-2.40692
1480687912516419,-1.18933,0.00100601,-2.4069
1480687912518926,-1.18933,0.00100601,-2.4069
1480687912563043,-1.18935,0.00098151,-2.407
1480687912567054,-1.1892,0.000945151,-2.40693
1480687912590617,-1.18914,0.00103951,-2.40698
1480687912619694,-1.18914,0.00103951,-2.40698
1480687912629722,-1.18915,0.00110334,-2.40691
1480687912642254,-1.18915,0.00110334,-2.40691
1480687912665818,-1.18909,0.0011977,-2.40696
1480687912686873,-1.18909,0.0011977,-2.40696
1480687912697401,-1.18909,0.0011977,-2.40696
1480687912718958,-1.18896,0.00113684,-2.40699
1480687912741017,-1.18896,0.00113684,-2.40699
1480687912757561,-1.18896,0.00113684,-2.40699
1480687912778617,-1.18896,0.00113684,-2.40699
1480687912859832,-1.1888,0.00110048,-2.40692
1480687912871364,-1.1888,0.00110048,-2.40692
1480687912892419,-1.18875,0.00119483,-2.40697
1480687912894424,-1.18875,0.00125867,-2.4069
1480687912899940,-1.18875,0.00125867,-2.4069
1480687912927011,-1.18878,0.0012342,-2.407
1480687912937540,-1.18872,0.00132859,-2.40705
1480687912973134,-1.18857,0.00129223,-2.40698
1480687912987172,-1.18872,0.00132859,-2.40705
1480687913001710,-1.18872,0.00132859,-2.40705
1480687913034297,-1.18872,0.00132859,-2.40705
1480687913039310,-1.18857,0.00129223,-2.40698
1480687913061871,-1.18857,0.00135604,-2.40691
1480687913094456,-1.18857,0.00135604,-2.40691
1480687913148601,-1.18857,0.00135604,-2.40691
1480687913154618,-1.18852,0.00145039,-2.40696
1480687913167151,-1.18839,0.00138956,-2.40699
1480687913181688,-1.18839,0.00138956,-2.40699
1480687913199736,-1.18839,0.00138956,-2.40699
1480687913219289,-1.18839,0.00138956,-2.40699
1480687913241851,-1.18839,0.00138956,-2.40699
1480687913265915,-1.18839,0.00138956,-2.40699
1480687913279448,-1.18839,0.00138956,-2.40699
1480687913305016,-1.18823,0.0013532,-2.40692
1480687913332591,-1.18823,0.0013532,-2.40692
1480687913402275,-1.18823,0.0013532,-2.40692
1480687913406788,-1.18818,0.0015114,-2.4069
1480687913430852,-1.18805,0.00145054,-2.40693
1480687913453411,-1.18805,0.00145054,-2.40693
1480687913466949,-1.18799,0.00154492,-2.40698
1480687913489507,-1.18799,0.00154492,-2.40698
1480687913500037,-1.18799,0.00154492,-2.40698
1480687913519587,-1.188,0.00160873,-2.40691
1480687913549667,-1.188,0.00160873,-2.40691
1480687913583757,-1.18787,0.0015479,-2.40694
1480687913603811,-1.18787,0.0015479,-2.40694
1480687913610830,-1.18787,0.0015479,-2.40694
1480687913627374,-1.18781,0.00164229,-2.40699
1480687913648431,-1.18781,0.00164229,-2.40699
1480687913669485,-1.18781,0.00164229,-2.40699
1480687913681017,-1.18781,0.00164229,-2.40699
1480687913702574,-1.18781,0.00164229,-2.40699
1480687913724634,-1.18781,0.00164229,-2.40699
1480687913748196,-1.18776,0.00180045,-2.40697
1480687913768248,-1.18776,0.00180045,-2.40697
1480687913789805,-1.18776,0.00180045,-2.40697
1480687913804345,-1.18761,0.00176406,-2.4069
1480687913820888,-1.18761,0.00176406,-2.4069
1480687913841945,-1.18761,0.00176406,-2.4069
1480687913859992,-1.18761,0.00176406,-2.4069
1480687913883054,-1.18761,0.00176406,-2.4069
1480687913926669,-1.18755,0.00185847,-2.40695
1480687913931684,-1.18758,0.00183404,-2.40704
1480687913948226,-1.18742,0.00179765,-2.40698
1480687913961764,-1.18758,0.00183404,-2.40704
1480687913980312,-1.18758,0.00183404,-2.40704
1480687914002873,-1.18758,0.00189781,-2.40697
1480687914024931,-1.18758,0.00189781,-2.40697
1480687914044484,-1.18758,0.00189781,-2.40697
1480687914098127,-1.18743,0.00186142,-2.40691
1480687914121187,-1.18737,0.00195584,-2.40695
1480687914160291,-1.18737,0.00195584,-2.40695
1480687914185357,-1.18737,0.00195584,-2.40695
1480687914188365,-1.18737,0.00195584,-2.40695
1480687914209425,-1.18724,0.00189501,-2.40699
1480687914242008,-1.18724,0.00189501,-2.40699
1480687914255544,-1.1874,0.0019314,-2.40705
1480687914262061,-1.18737,0.00195584,-2.40695
1480687914279608,-1.18724,0.00189501,-2.40699
1480687914304675,-1.18724,0.00189501,-2.40699
1480687914329240,-1.18724,0.00189501,-2.40699
1480687914339768,-1.18724,0.00189501,-2.40699
1480687914391910,-1.18724,0.00189501,-2.40699
1480687914415470,-1.1874,0.0019314,-2.40705
1480687914445550,-1.18724,0.00189501,-2.40699
1480687914461091,-1.18724,0.00189501,-2.40699
1480687914468611,-1.18719,0.00205317,-2.40696
1480687914482648,-1.18719,0.00205317,-2.40696
1480687914511726,-1.18719,0.00205317,-2.40696
1480687914531779,-1.18719,0.00205317,-2.40696
1480687914542307,-1.18719,0.00205317,-2.40696
1480687914564367,-1.18704,0.00201678,-2.4069
1480687914584419,-1.18704,0.00201678,-2.4069
1480687914602467,-1.18698,0.0021112,-2.40694
1480687914646584,-1.18751,0.00208044,-2.40685
1480687914649592,-1.18753,0.002056,-2.40695
1480687914668142,-1.18738,0.00201959,-2.40688
1480687914690702,-1.18738,0.00201959,-2.40688
1480687914714766,-1.18738,0.00201959,-2.40688
1480687914737827,-1.18738,0.00201959,-2.40688
1480687914743342,-1.18738,0.00201959,-2.40688
1480687914767406,-1.18738,0.00201959,-2.40688
1480687914789966,-1.18738,0.00201959,-2.40688
1480687914811022,-1.18738,0.00201959,-2.40688
1480687914856145,-1.18738,0.00201959,-2.40688
1480687914864163,-1.18723,0.0019832,-2.40682
1480687914866674,-1.18717,0.00207761,-2.40686
1480687914884215,-1.18717,0.00207761,-2.40686
1480687914925326,-1.18717,0.00207761,-2.40686
1480687914945382,-1.18719,0.00205317,-2.40696
1480687914968941,-1.18719,0.00205317,-2.40696
1480687914971449,-1.1872,0.00211692,-2.40689
1480687915000025,-1.18714,0.00221133,-2.40694
1480687915013560,-1.18714,0.00221133,-2.40694
1480687915022584,-1.18714,0.00221133,-2.40694
1480687915045147,-1.18724,0.00189501,-2.40699
1480687915068205,-1.18768,0.00158143,-2.40702
1480687915091768,-1.18753,0.00154504,-2.40695
1480687915112824,-1.18768,0.00158143,-2.40702
1480687915156441,-1.18768,0.00158143,-2.40702
1480687915158948,-1.18768,0.00158143,-2.40702
1480687915180504,-1.18763,0.00167585,-2.40707
1480687915184514,-1.18747,0.00163946,-2.407
1480687915202563,-1.18747,0.00163946,-2.407
1480687915224622,-1.18747,0.00163946,-2.407
1480687915251693,-1.18747,0.00163946,-2.407
1480687915274253,-1.18748,0.00170323,-2.40693
1480687915293304,-1.18748,0.00170323,-2.40693
1480687915322882,-1.18748,0.00170323,-2.40693
1480687915344444,-1.1875,0.0016788,-2.40703
1480687915346946,-1.18735,0.00164241,-2.40696
1480687915373518,-1.1875,0.0016788,-2.40703
1480687915391064,-1.18748,0.00170323,-2.40693
1480687915412623,-1.1875,0.0016788,-2.40703
1480687915433678,-1.18735,0.00164241,-2.40696
1480687915458244,-1.18735,0.00164241,-2.40696
1480687915479298,-1.18735,0.00164241,-2.40696
1480687915494842,-1.18729,0.00173682,-2.40701
1480687915502360,-1.18729,0.00173682,-2.40701
1480687915524920,-1.18729,0.00173682,-2.40701
1480687915569538,-1.18729,0.00173682,-2.40701
1480687915572045,-1.18714,0.00170043,-2.40694
1480687915597612,-1.18716,0.00167599,-2.40704
1480687915622679,-1.18716,0.00167599,-2.40704
1480687915643737,-1.18714,0.00170043,-2.40694
