timestamp,emg1,emg2,emg3,emg4,emg5,emg6,emg7,emg8
1480627869968791,0,0,2,2,1,-1,-1,0
1480627869968791,-3,-5,1,2,0,1,0,1
1480627869983832,-2,-3,6,2,-2,-1,0,0
1480627869983832,-2,-4,-5,-2,-1,1,1,1
1480627869984836,1,0,-3,-1,-1,1,0,0
1480627869984836,-2,-4,9,2,2,0,1,0
1480627870007896,-4,-17,-34,-7,-2,-2,-4,-3
1480627870007896,0,7,10,2,3,2,1,1
1480627870008397,-3,-7,-1,1,-1,0,0,-1
1480627870008397,-1,2,-4,-2,-1,0,0,0
1480627870020931,0,-7,-2,0,-2,0,0,1
1480627870020931,-2,-7,-2,1,0,0,-1,-2
1480627870028951,4,5,-2,-3,-1,-2,-2,-1
1480627870028951,3,18,-5,-2,-2,0,0,-2
1480627870043991,-1,-1,10,4,-1,-2,-1,1
1480627870043991,1,10,-5,-2,-3,-1,-1,-1
1480627870044493,-2,-10,3,0,0,-1,0,-1
1480627870044493,-2,-2,1,-1,-1,-1,0,-2
1480627870066050,1,-1,5,-1,1,0,-1,2
1480627870066050,2,13,24,5,4,3,3,4
1480627870067053,-1,1,-6,-3,-1,-1,1,-1
1480627870067053,-3,-13,-11,-2,-3,-2,-2,-2
1480627870083096,-1,7,-4,0,-1,0,-2,-1
1480627870083096,-4,-12,-5,-1,-1,0,-1,0
1480627870088611,-3,0,0,-1,-2,-2,0,0
1480627870088611,2,3,6,0,-2,1,0,1
1480627870103655,2,8,6,1,1,0,0,-1
1480627870103655,-2,-8,-7,-1,-1,-1,-3,-1
1480627870111170,-1,0,1,1,0,-1,-2,-1
1480627870111170,1,1,0,0,-2,-1,-1,-1
1480627870127213,7,19,-4,-3,-2,-3,0,-1
1480627870127213,-2,-1,-2,-2,-1,-3,-2,1
1480627870133730,0,4,-6,-1,0,2,0,-2
1480627870133730,-2,-4,3,1,0,-2,0,-1
1480627870140749,0,2,5,1,1,3,0,1
1480627870140749,1,3,-3,-2,-2,-1,0,0
1480627870148770,-4,-5,-1,-2,-1,2,-1,0
1480627870148770,1,10,-18,-6,-3,-3,-4,-3
1480627870172339,4,15,30,9,2,3,4,1
1480627870172339,0,6,-7,-2,-3,-3,-1,-4
1480627870173342,0,-4,4,0,-2,-2,-1,-2
1480627870173342,-4,-4,-4,-2,0,0,0,-1
1480627870194391,-2,-11,-3,1,1,-2,-1,-2
1480627870194391,-1,-6,-4,-2,-1,1,-1,0
1480627870195394,5,9,3,0,1,0,-2,0
1480627870195394,-1,-3,7,3,3,2,3,1
1480627870200909,-1,-4,-6,-4,-1,-2,1,-2
1480627870200909,0,-2,2,-1,-1,-2,0,0
1480627870216951,2,4,-5,-1,-1,-1,-3,-2
1480627870216951,-2,-17,12,3,1,1,0,1
1480627870225474,-5,-10,-4,-3,1,-1,-2,0
1480627870225474,-1,-6,-9,-2,-3,-1,-1,-1
1480627870225975,2,5,2,-1,0,-2,1,-1
1480627870225975,1,0,2,0,0,1,1,1
1480627870247034,4,26,48,10,4,5,3,5
1480627870247034,-3,-15,4,1,2,0,0,1
1480627870247533,-2,0,-7,-3,-1,0,-1,-1
1480627870247533,2,9,0,-2,0,-1,-1,1
1480627870276109,-2,-15,-15,-4,-2,-3,-1,-2
1480627870276109,2,7,-1,-3,0,-1,-1,0
1480627870285134,-5,-9,3,1,0,2,0,2
1480627870285134,1,3,-2,-1,1,0,0,-2
1480627870287143,-4,-7,-10,-3,-4,-3,-3,-2
1480627870287143,1,0,-1,-1,0,0,0,-1
1480627870287643,0,3,-11,-3,-1,-2,1,-2
1480627870287643,-3,-6,-1,0,-1,-2,-1,0
1480627870314712,-5,-12,-9,-2,0,0,1,-2
1480627870314712,-1,1,2,1,-1,0,0,0
1480627870315213,1,-5,-3,-1,-1,-1,0,0
1480627870315213,-1,4,2,0,0,-1,-3,-2
1480627870329753,0,7,0,-1,0,0,-1,0
1480627870329753,0,13,2,1,0,2,0,0
1480627870330754,0,6,-11,-5,-2,-2,-1,-3
1480627870330754,1,5,3,2,0,0,0,-1
1480627870343789,1,-7,-3,0,0,-1,-1,-2
1480627870343789,-1,-3,-4,0,0,-2,0,-3
1480627870344792,-1,-3,4,3,-1,-2,0,-1
1480627870344792,-1,-1,-4,-2,-3,0,0,0
1480627870366349,1,-1,-5,-1,-1,-1,-1,-1
1480627870366349,-2,-2,-2,0,0,-1,-1,0
1480627870367352,1,-2,5,2,-1,0,0,-1
1480627870367352,0,-6,2,-1,0,-2,1,-1
1480627870389410,-3,-7,-5,-3,-1,-1,-1,-1
1480627870389410,2,2,1,-1,-2,-3,-1,-1
1480627870390414,-5,-25,8,5,4,1,2,3
1480627870390414,0,0,2,1,0,1,-1,2
1480627870404952,5,19,19,2,1,-1,0,1
1480627870404952,-2,-5,-22,-5,-3,-3,-2,-3
1480627870410969,-1,6,1,0,-1,0,-1,-1
1480627870410969,1,1,2,1,1,1,-1,0
1480627870426509,-3,-11,0,0,0,1,1,-1
1480627870426509,0,0,-4,-2,-1,0,-3,-2
1480627870427010,3,4,3,-1,-2,-1,1,-1
1480627870427010,-2,0,-6,-3,-1,-2,-2,0
1480627870449570,-2,0,-7,-1,-2,-1,-1,-1
1480627870449570,0,-3,6,2,-1,-1,1,0
1480627870450072,-1,1,-5,-2,-2,-1,-2,-2
1480627870450072,2,0,5,2,-1,0,1,-1
1480627870479650,-2,-5,-8,-1,-2,-1,-1,-3
1480627870479650,0,1,4,3,0,1,-2,2
1480627870480152,-3,-2,1,-2,-1,0,-1,1
1480627870480152,1,1,-5,-3,-1,-2,0,0
1480627870486168,0,0,-2,-1,-1,0,-1,0
1480627870486168,-2,-3,2,-1,0,1,0,-2
1480627870487173,1,4,-2,-2,-2,-3,-1,1
1480627870487173,-2,1,1,0,0,-2,-2,-1
1480627870509730,-1,-6,-5,0,0,0,0,0
1480627870509730,-4,-6,-3,-2,-1,0,-1,-2
1480627870510231,-3,0,10,3,0,0,-1,0
1480627870510231,-5,-17,-20,-4,-3,-2,0,-2
1480627870524270,1,10,6,0,0,0,-1,-1
1480627870524270,4,14,-15,-5,-3,-2,-2,-2
1480627870531289,-5,-2,-2,2,2,1,0,-1
1480627870531289,1,2,-1,-2,-2,0,-2,0
1480627870554350,0,9,-9,-3,-1,-3,-2,-2
1480627870554350,-3,-15,11,4,2,1,1,1
1480627870555352,1,2,-4,-1,-4,0,0,-1
1480627870555352,2,11,1,-1,0,0,1,-2
1480627870569390,0,2,-1,-1,0,-1,-1,0
1480627870569390,2,6,6,0,-1,0,1,1
1480627870570394,-1,-3,-2,-1,0,-2,-1,0
1480627870570394,0,0,6,2,-2,-2,-1,0
1480627870584429,-3,-10,0,2,-1,1,0,0
1480627870584429,-4,-9,-7,-2,-2,-1,-1,0
1480627870591450,-5,-19,-22,-5,-1,0,-2,-3
1480627870591450,4,17,15,3,1,-1,1,1
1480627870606488,1,5,-5,-1,-1,0,-1,-2
1480627870606488,-4,-25,12,5,3,1,2,0
1480627870606989,3,4,-3,-2,-1,-1,0,-1
1480627870606989,-2,-3,-4,-1,-1,0,-3,-2
1480627870630552,0,1,-2,-4,0,-1,0,0
1480627870630552,2,12,0,-1,0,-1,-2,-1
1480627870631556,1,-4,16,2,1,3,0,1
1480627870631556,-2,-9,-1,0,-1,-1,-1,1
1480627870652109,2,1,-1,-3,-4,-4,-1,0
1480627870652109,-1,5,-4,-2,-2,1,0,0
1480627870652611,2,5,0,-3,-2,-1,-1,0
1480627870652611,-1,-2,-3,-1,0,0,1,-2
1480627870666149,-4,-8,-3,-1,-1,0,-1,0
1480627870666149,-6,-17,-36,-10,-5,-5,-5,-5
1480627870667150,-2,4,3,1,0,-2,0,-1
1480627870667150,-3,0,-5,-2,-1,-1,-1,-4
1480627870689709,0,-1,-1,0,1,1,1,0
1480627870689709,3,6,8,2,1,0,0,0
1480627870690212,3,4,0,-1,-1,0,-1,-1
1480627870690212,-3,-2,-2,-1,-1,-1,-1,-1
1480627870703750,3,-1,-7,-4,0,-2,-3,-3
1480627870703750,-1,2,3,0,-1,1,1,0
1480627870704752,-2,2,-12,-2,0,-3,0,-2
1480627870704752,0,2,9,2,0,3,1,2
1480627870726306,1,-1,0,0,-1,0,-2,0
1480627870726306,0,5,6,2,0,1,0,1
1480627870727309,1,5,1,-2,0,0,-1,1
1480627870727309,-3,-20,2,1,1,1,2,-1
1480627870757389,-2,-2,2,1,0,0,2,-1
1480627870757389,1,5,3,0,0,-1,-1,1
1480627870758393,1,1,9,3,3,0,-1,0
1480627870758393,2,4,-3,-1,-1,0,-2,-1
1480627870772429,5,22,35,7,4,2,2,3
1480627870772429,-3,-7,4,2,0,0,0,-1
1480627870773432,-1,-4,6,1,0,1,2,1
1480627870773432,-1,3,0,1,0,0,0,1
1480627870786470,-5,-19,0,2,-1,0,0,0
1480627870786470,2,11,-5,-4,-2,-3,-1,-1
1480627870786970,-3,-4,0,2,-1,0,1,-2
1480627870786970,-2,-9,5,-1,0,1,0,2
1480627870810030,0,-2,-9,-3,0,-2,-1,-2
1480627870810030,2,6,0,-3,0,-2,-3,-1
1480627870811033,0,-2,-8,-4,-2,1,-2,-2
1480627870811033,-3,2,-2,-1,-2,0,-1,-3
1480627870831085,-3,-15,-4,0,-1,1,1,1
1480627870831085,1,1,3,1,-3,0,1,-2
1480627870838608,-1,0,1,1,1,-1,0,0
1480627870838608,1,-4,-3,-1,-1,0,-1,1
1480627870846125,-4,-1,-7,-2,-1,-3,0,-1
1480627870846125,-4,-25,-27,-6,-2,-1,-1,-1
1480627870847128,-1,-2,-4,-1,-1,-1,-1,-2
1480627870847128,3,2,20,6,2,1,3,2
1480627870869691,-2,-5,-3,-1,-1,1,-1,0
1480627870869691,-2,-2,4,0,0,0,1,-1
1480627870870192,1,17,-8,-4,-1,1,-2,-2
1480627870870192,-3,-1,-2,0,0,-1,-1,1
1480627870883726,-5,-6,-4,-3,-2,-2,1,-1
1480627870883726,-1,3,4,0,1,0,0,0
1480627870891746,2,6,1,-2,-1,1,-2,1
1480627870891746,3,9,-7,-3,1,-2,-2,-2
1480627870914308,1,4,-3,-1,-1,-1,-1,-1
1480627870914308,1,4,1,-1,1,-2,0,-1
1480627870915310,-2,-2,-2,-1,-1,-1,-1,0
1480627870915310,-3,-6,-10,-3,-2,0,-1,-2
1480627870945390,2,1,-2,-1,-3,-1,-1,-1
1480627870945390,-1,-3,7,1,1,-1,0,1
1480627870945891,-2,-4,-3,-2,-1,-4,0,-1
1480627870945891,1,-3,11,2,1,1,0,1
1480627870948398,3,9,4,0,-1,0,1,-1
1480627870948398,-1,3,2,0,-1,0,0,1
1480627870951405,0,-1,6,-1,1,0,-1,0
1480627870951405,1,4,-7,-2,-3,-3,0,-1
1480627870966446,-1,-5,-3,-2,0,0,-1,-1
1480627870966446,3,-5,8,2,-1,-1,-1,0
1480627870966948,-4,-9,-7,-2,-1,0,-2,-1
1480627870966948,-4,-8,-5,0,1,0,-2,-1
1480627870997027,0,0,-2,-2,0,-1,-2,-1
1480627870997027,1,4,2,0,-3,-1,-1,0
1480627870997528,-7,-25,1,4,3,2,1,0
1480627870997528,3,6,8,1,0,0,-1,1
1480627871003043,0,2,0,1,1,0,0,1
1480627871003043,-1,-2,3,2,0,1,0,0
1480627871011064,0,4,2,0,-1,-2,0,-3
1480627871011064,1,5,-4,-1,-2,-1,-2,0
1480627871026104,-3,-3,-5,-2,-2,-2,-1,-3
1480627871026104,-7,-29,-8,-2,0,2,0,0
1480627871027107,3,0,1,-1,-1,1,1,0
1480627871027107,-1,-4,-8,-4,-1,-3,-2,-3
1480627871049666,1,0,11,2,0,1,0,1
1480627871049666,-3,4,-3,-1,0,-2,-1,-1
1480627871050669,-1,-4,4,2,0,0,-2,0
1480627871050669,-1,-2,-2,-1,-1,-1,-1,0
1480627871064707,2,1,-11,-4,-2,-1,-1,0
1480627871064707,-2,5,4,0,0,1,-1,-1
1480627871079245,-5,-26,9,5,2,3,2,2
1480627871079245,-2,-7,-1,-1,1,-2,-1,-1
1480627871087768,0,4,0,0,-3,-1,0,-1
1480627871087768,4,12,1,-1,-1,-4,-2,-3
1480627871088771,4,13,-3,-3,-4,-4,-2,0
1480627871088771,6,27,25,5,1,3,2,2
1480627871116846,-6,-14,-7,-1,-1,-2,0,1
1480627871116846,-1,-3,-3,0,1,-1,0,-3
1480627871117848,-2,-9,-7,-1,-1,-2,0,-1
1480627871117848,-2,-5,-11,-4,-2,-2,-3,-1
1480627871123363,1,3,-4,-1,1,1,-2,-1
1480627871123363,-2,4,7,2,1,0,1,0
1480627871131384,1,10,-7,-3,-2,-2,-2,-2
1480627871131384,-3,-3,-6,-1,-1,-1,-1,-1
1480627871146424,-1,-1,5,1,-2,-1,-1,-1
1480627871146424,2,4,-4,-2,-1,0,0,0
1480627871146925,3,2,6,0,1,0,0,1
1480627871146925,-1,7,-16,-6,-3,-2,-1,-3
1480627871169485,0,-2,8,1,1,1,1,2
1480627871169485,4,7,-2,-2,-1,-1,-1,2
1480627871170995,1,7,-3,-3,-2,-1,-2,-2
1480627871170995,9,33,28,5,2,1,0,3
1480627871200067,0,2,8,3,3,1,0,-1
1480627871200067,0,-3,0,-2,-4,0,0,-1
1480627871200568,0,8,1,1,0,-1,1,0
1480627871200568,-8,-23,-10,0,1,-1,1,-1
1480627871207587,-1,4,-7,-3,-2,-2,-2,-2
1480627871207587,0,2,5,2,1,-1,-1,0
1480627871208589,-1,2,-12,-6,-3,-4,-3,-4
1480627871208589,-1,-8,-4,-2,-3,0,1,-1
1480627871230147,-1,-4,-5,0,-1,-1,0,1
1480627871230147,0,2,-10,-1,-2,-4,-1,-3
1480627871230649,-5,-11,10,3,2,3,2,1
1480627871230649,0,-4,-4,-2,-1,-2,-2,-1
1480627871252209,-1,-4,-4,-1,-1,0,0,-1
1480627871252209,-2,-8,-19,-7,-3,-3,-1,-1
1480627871252708,0,1,-1,0,-1,-3,-2,0
1480627871252708,-5,-13,-12,-4,-4,-2,-1,-1
1480627871274767,-1,-3,5,1,-1,-1,-1,1
1480627871274767,-2,-5,-1,0,-1,-1,-1,1
1480627871275268,-1,-1,-2,-1,1,2,3,0
1480627871275268,0,-5,-2,-2,-1,-2,-2,-2
1480627871289304,-4,-17,-3,1,0,0,1,1
1480627871289304,0,1,5,0,-1,1,0,0
1480627871290308,1,1,0,-1,1,0,-1,0
1480627871290308,3,-6,14,4,2,3,1,0
1480627871311865,1,5,-1,-1,-1,-1,-1,0
1480627871311865,-1,3,7,1,0,0,-2,-2
1480627871312867,0,-1,2,0,-1,0,1,-1
1480627871312867,2,4,-9,-2,-1,-2,-4,0
1480627871326905,1,1,0,-3,-2,-1,-2,-1
1480627871326905,-1,-18,10,5,3,2,2,1
1480627871327406,-7,-20,-27,-6,-3,-2,-3,-3
1480627871327406,-3,-17,6,2,1,1,2,1
1480627871349465,2,4,-1,-2,-1,-2,0,-2
1480627871349465,3,8,3,0,1,1,1,1
1480627871350467,1,-2,0,-1,-2,-3,-1,-3
1480627871350467,-2,1,-1,0,-2,-1,0,1
1480627871373528,-4,1,-2,-2,1,0,-1,-1
1480627871373528,-3,-5,-9,-4,-1,-1,-1,-1
1480627871374531,-2,-2,7,2,0,0,1,1
1480627871374531,-3,3,-8,-2,-2,-2,-2,-1
1480627871386566,1,4,-2,-2,-1,-4,-1,0
1480627871386566,0,5,1,-2,-1,-2,-4,-2
1480627871387066,1,5,5,0,0,1,0,2
1480627871387066,-1,2,-2,-1,0,0,-1,-1
1480627871408623,-5,-6,0,2,-1,-1,0,-3
1480627871408623,-8,-33,-24,-3,-2,-1,1,-1
1480627871409624,4,18,-5,-3,-3,-3,-3,-2
1480627871409624,-6,-27,6,2,2,1,2,1
1480627871432185,1,2,-3,-2,-2,1,-2,0
1480627871432185,3,4,-3,-3,-2,-2,-2,-1
1480627871432686,4,12,7,1,-1,-1,1,1
1480627871432686,2,6,0,0,-1,-1,1,-1
1480627871446222,0,-3,-2,0,0,-1,-1,0
1480627871446222,-3,2,6,2,1,1,0,0
1480627871447225,0,-2,2,-2,0,-1,-2,0
1480627871447225,1,9,2,0,2,1,-1,0
1480627871469284,2,2,2,0,0,-2,2,0
1480627871469284,-1,-5,13,2,0,0,0,1
1480627871476803,-2,3,-7,-3,-1,-1,-1,-2
1480627871476803,-1,1,-6,-3,-2,0,-2,-2
1480627871491843,3,7,-5,-4,-2,-3,-2,-1
1480627871491843,-1,8,0,-1,-1,-1,1,2
1480627871492846,0,-3,-2,-2,-2,0,-2,0
1480627871492846,-5,-17,-26,-5,-3,-2,-2,-3
1480627871506883,0,5,3,2,2,1,0,0
1480627871506883,-3,-14,1,0,0,-2,-1,0
1480627871507385,1,-3,2,0,-2,-1,0,0
1480627871507385,-1,9,5,1,1,2,1,0
1480627871528942,1,0,2,0,1,1,2,0
1480627871528942,1,8,-3,-2,-1,0,-1,-1
1480627871529443,-3,-3,-1,2,-1,-2,1,-1
1480627871529443,2,2,4,-1,-1,-1,-2,0
1480627871552505,-4,-6,-6,0,0,0,-1,-2
1480627871552505,2,12,6,0,1,-2,1,0
1480627871553010,-2,-10,6,3,1,1,0,-1
1480627871553010,3,13,-7,-3,-1,-2,-1,-1
1480627871566543,-6,-5,5,2,0,0,0,0
1480627871566543,9,31,22,2,0,1,0,1
1480627871567044,-5,-8,12,4,1,1,-1,2
1480627871567044,1,3,-1,0,-1,-2,-2,-1
1480627871588600,-2,-6,1,0,-1,-1,0,-1
1480627871588600,-6,-25,-2,1,0,-1,1,-2
1480627871589603,-1,0,-11,-2,1,-2,-1,-3
1480627871589603,-4,-1,16,4,2,2,3,3
1480627871619687,-1,1,-6,-2,1,0,0,1
1480627871619687,-2,4,-6,-1,-2,-1,-2,-2
1480627871620184,-2,-2,-5,-2,0,-1,0,-1
1480627871620184,0,-8,-5,-2,-3,-3,-2,-2
1480627871634724,-1,-1,-1,0,-1,0,0,-2
1480627871634724,0,2,-5,-1,-2,0,0,1
1480627871635226,2,9,0,-3,1,-1,-1,1
1480627871635226,3,3,2,-3,-2,-3,0,2
1480627871648761,5,24,29,4,1,1,1,3
1480627871648761,2,5,1,-1,-1,-1,-1,-3
1480627871649764,-1,3,-8,-4,-2,-1,-1,0
1480627871649764,3,19,-13,-7,-3,-2,-2,-3
1480627871671823,-2,-12,-10,-3,-2,0,0,-3
1480627871671823,-1,-4,-5,0,1,0,-1,-2
1480627871672825,-4,-14,-1,1,-2,-3,-2,0
1480627871672825,-3,-3,0,0,0,2,0,-2
1480627871686361,-1,-5,-6,-2,0,-1,1,0
1480627871686361,0,3,-3,-1,-1,-1,-1,0
1480627871687365,3,5,-3,-1,0,0,0,0
1480627871687365,-2,-4,4,1,0,1,1,0
1480627871708921,-2,-7,-1,0,-2,-1,0,-1
1480627871708921,-1,-4,-3,-1,0,-2,0,1
1480627871709423,-4,-3,7,2,1,2,0,-1
1480627871709423,4,6,21,4,1,1,0,3
1480627871732483,-2,-1,-3,-2,0,1,-2,-1
1480627871732483,-2,-2,-3,-1,-2,0,-2,0
1480627871732985,1,12,-5,-3,0,0,-1,-2
1480627871732985,-3,-5,-5,-1,1,-2,-1,0
1480627871746020,2,7,-12,-4,-2,-3,-2,-2
1480627871746020,-2,-13,8,1,1,1,1,1
1480627871754046,-6,-13,-2,0,-1,0,0,-2
1480627871754046,-1,0,-5,-1,-2,-2,-2,-1
1480627871768580,1,6,15,4,3,2,2,0
1480627871768580,-2,3,-4,-1,-1,-1,-2,0
1480627871769583,3,4,4,0,-1,-1,-1,0
1480627871769583,1,-2,1,1,0,-2,-1,-1
1480627871799161,-3,-7,-1,-1,-2,-1,0,-1
1480627871799161,5,11,-6,-4,-3,-4,-3,-2
1480627871800164,1,1,22,6,3,5,3,3
1480627871800164,-1,0,-10,-6,-1,-1,-1,0
1480627871807683,1,-4,3,0,0,1,2,0
1480627871807683,-2,2,3,0,2,0,-1,-2
1480627871813699,0,4,-10,-4,-3,-2,-3,0
1480627871813699,0,1,-5,0,-2,-1,1,-2
1480627871828739,0,0,-5,-1,0,-2,-2,-1
1480627871828739,0,1,-4,-1,-3,-1,0,-2
1480627871829742,-5,-20,11,5,2,1,1,0
1480627871829742,-6,-15,-9,-4,-4,-4,-2,-3
1480627871867843,-1,1,-11,-4,-1,-1,-4,-1
1480627871867843,-2,0,0,-1,0,1,1,-1
1480627871868345,3,9,-8,-5,-3,-5,-3,-2
1480627871868345,0,1,4,0,0,-1,0,-1
1480627871870352,-7,-21,-24,-4,-2,-1,-1,-2
1480627871870352,2,7,4,-1,1,-1,-1,1
1480627871873859,-1,4,-10,-2,-4,-3,-1,-2
1480627871873859,-1,-5,-1,0,1,1,-1,1
1480627871888398,0,9,-14,-3,-3,-2,-2,-2
1480627871888398,-2,-1,11,3,3,1,2,0
1480627871896420,1,8,-3,-4,-2,-2,0,-1
1480627871896420,-1,-1,5,2,-1,-1,-1,0
1480627871919985,2,3,4,0,0,-2,-1,0
1480627871919985,-2,-2,-4,-1,-1,-1,0,0
1480627871920985,-1,1,3,2,1,3,0,0
1480627871920985,-4,0,-2,1,1,0,1,1
1480627871925497,-2,-3,9,2,1,1,0,1
1480627871925497,-2,-8,-6,-2,-2,-2,0,-2
1480627871950062,-7,-21,0,1,1,2,0,2
1480627871950062,-1,-9,-8,-4,-2,-4,-3,-2
1480627871951566,1,2,-1,-2,-2,0,-3,-1
1480627871951566,-1,-5,-1,-2,-1,0,0,-1
1480627871952569,-3,-17,-29,-8,-4,-2,-3,-4
1480627871952569,2,14,0,-2,0,0,0,-2
1480627871972123,-1,-9,10,2,1,-1,1,2
1480627871972123,-4,-12,-4,0,0,-1,0,-2
1480627871973123,0,6,-5,-2,0,-1,0,0
1480627871973123,0,2,8,1,-2,-2,0,1
1480627871994681,0,2,3,0,-1,-1,-2,0
1480627871994681,2,3,-4,-2,-1,1,1,1
1480627871995182,5,12,6,0,-3,-3,1,0
1480627871995182,1,-4,1,0,0,2,0,0
1480627872009222,2,6,2,0,-1,-1,0,-1
1480627872009222,0,0,4,1,-2,0,0,1
1480627872023758,1,5,7,-1,1,0,0,-1
1480627872023758,-1,10,-10,-3,-1,1,-1,-1
1480627872040302,1,-6,5,2,0,0,0,2
1480627872040302,0,-1,-16,-4,-3,-2,-3,-1
1480627872040805,3,14,22,6,2,2,2,2
1480627872040805,0,1,-3,-2,-1,1,-1,-1
1480627872054341,-2,-8,9,3,0,1,0,-1
1480627872054341,-1,-3,-6,-2,-3,-2,-1,-1
1480627872055343,1,-5,0,0,1,0,0,0
1480627872055343,-3,-9,2,3,0,0,0,1
1480627872076899,3,16,7,1,-1,1,0,-1
1480627872076899,-1,-3,8,2,1,1,0,1
1480627872077903,1,-2,-5,-3,-3,-1,-2,-2
1480627872077903,1,3,1,0,0,-1,1,0
1480627872091939,-2,-6,-3,-2,0,-2,-1,0
1480627872091939,-1,5,-3,1,-1,-1,-1,-3
1480627872092943,0,2,0,-1,0,-3,-2,0
1480627872092943,-1,-5,-2,-1,0,1,0,-1
1480627872105476,-2,2,-3,-2,-1,-3,-2,-1
1480627872105476,-2,-3,3,2,1,2,2,-1
1480627872121519,1,10,13,3,-2,2,0,1
1480627872121519,-4,-23,6,3,2,1,-1,1
1480627872129039,-3,-5,-9,-4,-1,-2,-1,-1
1480627872129039,6,36,18,3,1,0,1,1
1480627872144080,-2,-9,-2,1,-1,-3,0,-2
1480627872144080,-1,2,0,-1,1,1,0,-3
1480627872152601,2,9,-9,-3,-2,-2,-4,-2
1480627872152601,-5,-24,-8,-2,-2,-2,-2,-1
1480627872153607,0,6,-6,-2,-4,-2,-1,-1
1480627872153607,-4,0,6,2,-1,0,0,0
1480627872174660,0,3,-2,0,-2,-1,0,-2
1480627872174660,-2,1,-5,-2,-1,0,-3,-1
1480627872175162,1,-1,6,3,1,0,-1,1
1480627872175162,3,-2,-2,-1,-2,-1,-2,-2
1480627872188697,-5,-9,1,1,-2,2,2,1
1480627872188697,1,-1,-3,-1,-1,-2,1,0
1480627872190703,-1,-2,-7,-2,-1,-2,-2,0
1480627872190703,2,4,-4,0,-2,-1,-1,0
1480627872226799,-5,-9,-8,-4,0,1,0,-2
1480627872226799,6,19,-1,-4,-2,0,-1,0
1480627872227801,-3,-3,-4,0,1,-2,-1,1
1480627872227801,-7,-19,-18,-1,-2,0,-1,-1
1480627872234319,0,-6,16,6,1,1,1,1
1480627872234319,1,-3,1,2,0,0,2,0
1480627872234821,-1,-3,-1,-2,-2,-1,-2,0
1480627872234821,1,-9,0,-1,-1,-2,0,1
1480627872248858,2,7,2,1,0,-1,1,1
1480627872248858,-2,-5,-2,0,0,-2,-1,-1
1480627872249359,-2,-1,1,1,1,1,1,0
1480627872249359,2,9,8,1,-1,-1,-1,-1
1480627872271919,1,-1,-5,-2,-1,1,-1,-1
1480627872271919,1,-9,12,2,0,-1,0,2
1480627872272922,-2,-2,-4,-3,-1,0,0,-2
1480627872272922,-1,5,3,-1,0,0,-1,1
1480627872293475,-3,-4,1,-1,1,1,1,-1
1480627872293475,-7,-12,-16,-3,-2,-2,-2,-3
1480627872301497,0,-1,4,0,0,2,0,-2
1480627872301497,-3,-5,-13,-3,-2,-1,0,-1
1480627872309017,-1,-6,15,5,-1,-1,0,2
1480627872309017,-2,-9,10,3,3,1,0,0
1480627872309518,1,1,-6,-2,-1,-2,-3,-2
1480627872309518,-1,2,5,2,1,0,0,0
1480627872332079,-3,0,-11,-4,-1,0,-1,-3
1480627872332079,1,2,-5,-1,-1,-1,-1,-2
1480627872333081,-3,-2,7,0,0,-1,0,1
1480627872333081,-2,0,5,1,2,2,1,-1
1480627872354137,1,4,-8,-3,-1,-1,-1,0
1480627872354137,0,5,5,0,0,-1,0,-1
1480627872355139,-1,-6,0,0,1,-2,0,0
1480627872355139,5,6,3,-2,-1,-2,-1,0
1480627872368676,-1,1,-1,-1,-1,-2,0,-1
1480627872368676,-2,1,-4,-3,-2,-1,-1,-1
1480627872369680,0,2,-4,-1,-1,-2,-2,-2
1480627872369680,-8,-8,-1,1,-1,0,0,-1
1480627872391737,-1,-1,0,0,-1,-2,-2,-2
1480627872391737,-5,-19,-24,-5,-3,-3,-4,-2
1480627872392740,-5,-16,-1,0,-1,-1,0,1
1480627872392740,1,1,4,0,-1,-2,-1,0
1480627872414799,3,6,-3,-1,0,-1,0,-1
1480627872414799,0,2,-10,-5,-1,1,-1,-3
1480627872415801,2,13,-1,-1,-3,-1,-1,0
1480627872415801,1,-1,1,0,-1,0,-2,-1
1480627872429337,-3,-20,0,3,-1,-1,-2,0
1480627872429337,4,10,7,1,-1,0,0,0
1480627872431343,0,3,-1,0,1,-1,1,-1
1480627872431343,2,8,3,-2,1,-2,0,0
1480627872453402,2,12,-6,-4,1,0,-2,-2
1480627872453402,-3,-6,4,1,-1,-1,1,2
1480627872454405,-3,-2,1,0,-1,-1,1,-1
1480627872454405,-1,-1,-2,-2,0,0,1,0
1480627872474960,-4,-3,-4,-1,0,-1,0,-1
1480627872474960,0,1,2,-1,1,0,-1,-1
1480627872475961,-3,-11,-14,-4,-1,-3,-2,-3
1480627872475961,2,5,0,-1,-2,-1,-1,-2
1480627872505038,-1,-7,-15,-3,-4,-1,-1,-2
1480627872505038,0,3,21,5,4,2,3,1
1480627872505540,0,2,0,-1,0,0,0,0
1480627872505540,-5,-31,4,3,2,1,-1,0
1480627872512558,-3,-7,-4,0,-1,0,0,1
1480627872512558,5,8,-3,-1,-2,0,0,-2
1480627872513061,-5,-13,-4,0,-1,1,-1,-1
1480627872513061,2,15,2,-2,-2,-2,0,-1
1480627872534617,-2,-5,5,1,-1,1,1,0
1480627872534617,-1,-4,-4,-2,-3,-3,-1,0
1480627872535119,1,9,2,0,-1,0,0,-1
1480627872535119,-1,-4,-3,-1,-3,-1,-1,-1
1480627872548655,2,8,4,0,-2,-2,-1,-1
1480627872548655,-1,3,-5,-1,0,-3,-2,-1
1480627872549657,1,-1,-1,0,0,0,-2,0
1480627872549657,-2,3,-4,0,0,1,1,-1
1480627872572218,0,3,3,-1,0,1,0,0
1480627872572218,0,-1,2,0,-1,0,0,2
1480627872573220,8,26,21,3,2,-1,1,3
1480627872573220,4,8,17,4,2,0,0,1
1480627872594277,-2,-2,-1,1,2,1,1,1
1480627872594277,0,6,2,0,1,-1,0,-2
1480627872595279,1,-3,-3,-1,-1,0,-1,0
1480627872595279,-5,-1,0,-1,0,0,-1,-1
1480627872609316,-1,2,7,1,1,0,-1,0
1480627872609316,-5,-26,-1,0,-2,0,0,1
1480627872609818,-3,-12,-4,0,0,1,2,-2
1480627872609818,1,8,-8,-2,0,-1,-2,-1
1480627872632879,-2,-2,-4,-2,-1,-2,0,-1
1480627872632879,-2,-5,6,0,-1,-1,-2,1
1480627872633883,-1,-1,-2,-1,0,0,-1,-2
1480627872633883,2,3,-1,-2,-2,0,-1,-1
1480627872661956,1,4,1,-1,0,1,0,1
1480627872661956,1,6,-4,-1,-1,0,-1,-2
1480627872662959,-4,-3,0,0,-1,0,-3,-1
1480627872662959,6,31,22,2,2,2,0,1
1480627872668980,0,-7,-8,-4,-3,-2,-1,-2
1480627872668980,-3,-2,-4,-3,-1,-2,-2,0
1480627872669478,2,-1,-3,-2,-2,-1,-1,-2
1480627872669478,-5,-8,-13,-2,-2,-3,-1,-3
1480627872699557,-4,-5,-4,-3,-1,0,-1,-2
1480627872699557,3,9,2,1,1,1,0,-1
1480627872700058,-14,-41,3,4,0,1,1,2
1480627872700058,-2,-8,-12,-2,-1,-2,-2,1
1480627872730640,3,5,0,-1,-2,-4,0,-1
1480627872730640,-2,-2,-6,-1,-2,0,-2,-1
1480627872731642,3,10,-4,-3,0,-1,-1,-1
1480627872731642,-2,-7,-4,1,0,0,-1,-1
1480627872733146,-2,0,-2,2,0,2,0,0
1480627872733146,-2,-9,1,-1,2,-1,0,-1
1480627872751696,3,9,-1,0,-2,0,-1,1
1480627872751696,-12,-35,-40,-7,-3,-2,-3,-6
1480627872759716,2,10,6,0,1,-1,-1,-1
1480627872759716,-2,-3,0,2,0,0,0,1
1480627872760719,1,5,-2,-1,2,0,0,-3
1480627872760719,-1,-7,-8,-3,-2,-3,-3,-2
1480627872789295,0,1,-2,-2,0,0,0,-1
1480627872789295,1,1,-2,-1,0,0,0,-2
1480627872805838,2,8,0,-1,-2,-1,0,-3
1480627872805838,1,6,9,0,0,2,2,0
1480627872807343,0,-3,2,0,1,0,0,1
1480627872807343,-4,-14,3,1,-1,0,0,1
1480627872808346,1,5,-6,-2,-2,-2,-2,-1
1480627872808346,4,8,6,1,-1,-1,-1,0
1480627872814362,-1,0,4,1,0,-1,-2,0
1480627872814362,0,3,-9,-2,-2,-2,1,-4
1480627872815364,-1,-2,-2,-1,0,-1,-1,-1
1480627872815364,-1,2,5,2,1,-1,-1,1
1480627872834415,1,9,32,7,4,3,2,3
1480627872834415,-2,-2,-8,-3,-2,-3,-1,0
1480627872835418,1,2,-4,-2,-1,0,-3,-1
1480627872835418,3,6,9,3,-1,0,0,1
1480627872857477,-2,-4,-10,-4,0,-2,-1,-2
1480627872857477,-2,1,-5,-1,-1,-1,-2,-1
1480627872857977,2,7,6,2,1,0,3,2
1480627872857977,-2,-5,-2,-2,-2,-2,-1,0
1480627872872516,0,-1,-8,-1,-3,-2,-2,-3
1480627872872516,2,4,4,0,1,0,1,1
1480627872873019,0,-3,-9,-2,-1,-2,-2,-1
1480627872873019,1,5,-2,-3,0,-1,-1,-1
1480627872894576,-6,-18,-5,0,-2,-1,0,-1
1480627872894576,-2,8,5,-1,1,0,0,-1
1480627872895077,0,-7,5,1,0,1,0,0
1480627872895077,1,4,0,-1,-1,-2,-1,-1
1480627872908111,-2,15,10,0,1,1,1,0
1480627872908111,0,2,-5,-1,0,0,-1,-1
1480627872916133,-3,-1,-10,-4,-3,-2,-2,-1
1480627872916133,2,7,16,3,3,2,0,1
1480627872939698,3,1,-10,-1,-2,0,-2,0
1480627872939698,-2,-2,-1,0,0,0,-1,-2
1480627872940197,-6,-5,-5,0,-1,0,0,-1
1480627872940197,0,-4,-6,-1,-1,-1,0,-1
1480627872954235,1,0,-2,0,-1,-2,0,0
1480627872954235,4,7,0,-2,-1,0,0,2
1480627872955237,-2,-9,0,-1,-1,0,0,-1
1480627872955237,-2,-4,-4,-1,1,-2,0,-1
1480627872976794,0,-3,-3,-2,1,-1,-1,-1
1480627872976794,0,2,4,2,-1,1,0,0
1480627872977796,0,-1,-1,-1,0,-1,-1,0
1480627872977796,-2,6,-6,0,-2,1,-1,0
1480627872991834,1,2,1,-1,-2,0,0,-1
1480627872991834,1,-1,2,1,1,-1,1,0
1480627872992836,1,7,2,-2,-1,-1,-2,-1
1480627872992836,1,-7,-2,-2,-3,-4,-1,-2
1480627873014896,-5,-31,-8,0,1,0,1,-1
1480627873014896,-2,5,-6,-1,-2,-1,-1,-1
1480627873015898,0,7,6,0,0,0,0,-2
1480627873015898,-1,1,5,1,-1,0,1,2
1480627873027930,2,4,-6,-4,-2,0,-2,1
1480627873027930,-2,-3,3,0,-1,-1,1,0
1480627873036456,1,-1,0,0,0,-1,0,0
1480627873036456,-1,-5,-7,-1,0,0,0,-1
1480627873059514,4,11,-3,-2,-3,-3,-2,-3
1480627873059514,-11,-16,2,4,2,1,0,0
1480627873060516,0,2,1,1,-1,-2,-1,-1
1480627873060516,-1,-1,0,0,0,1,0,-1
1480627873081577,0,7,-2,-1,1,-2,-1,1
1480627873081577,5,3,9,2,-2,1,0,2
1480627873089594,-2,-6,-3,0,0,0,1,-1
1480627873089594,1,1,4,0,-1,-1,-2,0
1480627873092104,-2,2,-2,-1,0,-3,0,-2
1480627873092104,2,14,-7,-4,-1,0,-1,0
1480627873103631,4,15,43,8,5,3,3,4
1480627873103631,-2,-6,-12,-5,-4,-2,-3,-2
1480627873111161,0,-2,4,2,-1,1,-3,1
1480627873111161,2,11,-5,-3,-1,-3,-1,-3
1480627873112154,-2,-7,-14,-3,0,-1,0,-1
1480627873112154,1,3,-5,-3,0,0,-1,0
1480627873142234,-3,-3,2,-2,-1,0,0,-1
1480627873142234,-1,-6,-5,-2,-2,-1,-2,0
1480627873142735,-1,-2,-9,-2,-1,0,-3,-1
1480627873142735,-1,-1,3,-1,1,0,1,0
1480627873158280,-3,-6,-10,-2,2,3,1,0
1480627873158280,1,-4,2,1,-1,-2,0,0
1480627873163791,-2,-4,-6,-2,-1,-2,0,-1
1480627873163791,-4,-5,2,0,1,-1,-1,-1
1480627873171311,4,6,3,-2,-1,-1,1,-1
1480627873171311,3,-2,1,0,0,1,0,0
1480627873171812,-2,-7,3,1,0,0,1,0
1480627873171812,2,-1,11,3,0,0,1,0
1480627873194372,-3,-1,0,1,-2,-1,0,-1
1480627873194372,-1,-8,2,-1,-1,0,-1,0
1480627873194874,-3,-11,-10,-2,-2,1,0,-1
1480627873194874,1,4,-2,-1,-1,-1,2,0
1480627873216933,-1,2,3,0,0,0,-1,0
1480627873216933,3,-2,13,4,1,0,1,2
1480627873217937,0,5,-1,0,-2,-2,-2,-1
1480627873217937,0,-2,0,1,-1,-1,0,0
1480627873231473,-5,-7,-5,-2,-1,0,0,0
1480627873231473,-4,-1,-11,-3,1,-1,0,-1
1480627873231973,0,3,-2,-2,-2,0,-2,0
1480627873231973,-1,-4,3,2,-1,0,0,3
1480627873255036,-2,2,-4,-1,-2,-1,0,-1
1480627873255036,0,1,0,0,-1,-1,-2,0
1480627873256038,0,3,3,0,-1,-1,0,1
1480627873256038,-2,-1,-2,0,0,0,-2,-2
1480627873284613,-1,-5,10,2,0,0,1,0
1480627873284613,-6,-11,-22,-3,-1,-1,-1,-2
1480627873285114,2,7,6,1,1,-2,-2,-1
1480627873285114,0,3,-3,-3,-1,-1,0,0
1480627873291631,0,9,-7,-2,0,-2,-1,-2
1480627873291631,-3,-9,-12,-6,-4,-3,-2,-1
1480627873299152,-1,2,-2,-1,-1,1,-2,0
1480627873299152,-2,-5,-3,-2,2,2,1,-1
1480627873314693,5,17,1,-2,-1,-2,-3,-3
1480627873314693,0,-1,6,0,-1,0,0,1
1480627873315194,0,3,-10,-3,-3,-1,-2,-1
1480627873315194,1,0,4,0,0,-2,-1,-1
1480627873336754,0,-5,-4,-2,-3,0,-1,0
1480627873336754,-6,-3,5,3,2,1,-1,-1
1480627873337755,-2,-2,-3,1,-2,1,1,0
1480627873337755,-1,1,-5,-3,-2,-2,-3,-2
1480627873351792,-1,-3,0,-1,-1,-2,0,0
1480627873351792,2,9,0,-2,-1,-1,0,-1
1480627873352797,-3,0,5,2,0,0,0,0
1480627873352797,1,-1,3,0,-1,0,1,-1
1480627873374351,6,26,33,7,4,2,1,2
1480627873374351,1,9,0,-3,-1,0,0,0
1480627873375354,-1,-3,-6,-2,-3,-2,-2,0
1480627873375354,1,4,-4,0,0,1,-1,0
1480627873396912,-10,-38,1,2,-1,1,1,2
1480627873396912,1,-2,1,0,1,0,-1,-1
1480627873397915,-1,-5,1,-1,0,-1,-1,-2
1480627873397915,0,-2,1,1,-1,-2,0,1
1480627873411952,-1,-7,-8,-3,-1,-1,0,-2
1480627873411952,0,-1,3,-1,-2,0,-1,-1
1480627873412453,-2,-12,-8,-3,0,-1,-2,0
1480627873412453,-1,1,-4,-1,-1,-1,0,-1
1480627873442533,0,2,-9,-4,-2,-3,-2,-1
1480627873442533,1,2,7,1,1,0,0,-1
1480627873443536,-6,-18,5,2,1,0,0,-1
1480627873443536,-3,-2,-1,1,1,1,1,0
1480627873464592,1,6,-9,-2,-1,-3,-2,1
1480627873464592,6,16,18,0,-2,-1,0,-1
1480627873465093,-1,1,-5,0,-1,-2,-1,-1
1480627873465093,-4,-10,-10,-3,0,-1,-1,-1
1480627873479632,1,8,7,1,0,0,-1,-1
1480627873479632,-1,-3,-7,-1,0,-1,-1,0
1480627873480133,-4,-20,-1,0,0,1,0,-1
1480627873480133,-1,5,0,-2,-2,-1,-2,-2
1480627873509712,-1,-2,-8,-3,-1,-2,-2,-1
1480627873509712,0,-6,-3,1,-1,1,-1,0
1480627873510715,0,5,0,-1,0,0,0,1
1480627873510715,0,-3,0,0,1,0,1,-1
1480627873524752,-3,-11,3,1,1,2,2,0
1480627873524752,-1,2,2,-1,0,0,1,-1
1480627873525755,5,14,-8,-2,-2,-3,0,0
1480627873525755,-6,-4,1,2,0,1,-1,0
1480627873533279,3,-3,8,1,1,0,-1,0
1480627873533279,-7,-21,2,0,-1,0,0,0
1480627873534278,2,7,-7,-4,-1,-2,-3,-2
1480627873534278,0,-5,8,0,1,1,-1,1
1480627873561850,-4,-3,-5,-1,-2,-1,-1,-1
1480627873561850,-1,5,-1,1,2,1,2,-2
1480627873562853,1,6,4,0,0,0,1,-1
1480627873562853,5,12,10,1,-1,-1,0,1
1480627873577392,-1,-1,-3,0,2,1,0,-2
1480627873577392,-2,-3,-2,0,1,0,-2,0
1480627873578395,-6,-24,-4,1,0,0,1,1
1480627873578395,1,3,-5,-2,-2,-2,-3,-1
1480627873591930,1,4,-3,-2,-2,0,-1,0
1480627873591930,0,-1,2,0,-1,-1,0,0
1480627873592933,0,5,2,-3,1,-1,1,-1
1480627873592933,1,-1,-1,-1,1,0,1,-1
1480627873614491,1,6,-3,-2,-2,-2,-3,-2
1480627873614491,2,4,-5,-3,-3,-2,-2,-2
1480627873614991,-1,1,4,1,-2,0,-1,-2
1480627873614991,1,2,-3,-1,-1,-1,-1,-1
1480627873645072,-5,-12,-1,-1,0,1,1,0
1480627873645072,2,4,2,-1,-2,0,1,-1
1480627873645573,-2,0,0,-2,2,-2,-1,-2
1480627873645573,2,7,-6,-4,-3,-4,-1,-2
1480627873659610,5,9,24,6,3,0,1,1
1480627873659610,-5,-12,-8,-1,1,1,-1,-1
1480627873660112,1,8,7,2,1,-1,0,1
1480627873660112,-6,-7,-13,-2,0,0,-1,-2
1480627873674650,-1,-1,-11,-2,-2,-1,-2,-3
1480627873674650,0,-4,-3,1,-2,-2,-2,0
1480627873675152,3,6,4,1,0,-1,0,0
1480627873675152,-2,-3,-1,-2,0,-2,0,0
1480627873697210,1,16,-10,-3,-1,-1,0,-1
1480627873697210,1,0,2,0,0,-1,0,-1
1480627873698715,-1,-3,-8,-3,-3,-2,-2,-1
1480627873698715,-2,-1,3,-1,0,0,-1,1
1480627873719274,0,0,-7,-4,-1,-1,0,-2
1480627873719274,-1,5,-11,-4,-2,-3,-3,-1
1480627873720271,2,8,-2,-3,-1,-3,1,-1
1480627873720271,-1,-3,5,2,0,0,0,-1
1480627873741830,-1,-2,-3,-1,-2,0,-1,-1
1480627873741830,-7,-24,-30,-6,-3,-2,0,-4
1480627873748847,-1,-2,-1,0,-1,2,0,-1
1480627873748847,-4,-21,-4,-2,1,0,0,0
1480627873756870,-3,-7,0,0,-1,0,1,-1
1480627873756870,2,2,5,0,-1,-3,-2,-1
1480627873757872,-3,-4,-3,-1,0,0,-1,-1
1480627873757872,-3,-5,-4,-1,-1,-1,0,0
1480627873770407,-3,-6,-4,-2,0,0,0,-1
1480627873770407,3,7,7,0,-1,-1,-1,2
1480627873778928,-1,-1,0,2,-1,1,-1,1
1480627873778928,3,11,5,1,-1,0,0,1
1480627873809510,0,-4,-1,-1,1,-2,0,-1
1480627873809510,2,5,6,1,0,1,0,0
1480627873810011,-1,-2,0,-1,-1,-2,-1,1
1480627873810011,1,1,-2,-1,-1,0,-3,-3
1480627873824549,-3,-17,3,2,1,2,1,2
1480627873824549,-4,-7,-1,-1,1,0,0,-2
1480627873825050,-5,-9,0,2,1,0,-1,0
1480627873825050,-1,-3,-5,-2,-1,-2,0,-2
1480627873830566,9,33,31,5,1,1,1,3
1480627873830566,1,10,7,0,-1,0,-2,0
1480627873839590,-1,-2,-17,-5,-3,-1,-1,-4
1480627873839590,0,7,1,-2,-1,-1,-1,1
1480627873862148,-1,-3,-10,-3,-1,0,-1,-2
1480627873862148,-3,-5,-2,-2,-1,1,-1,0
1480627873862650,2,8,-4,-3,-2,0,-1,-3
1480627873862650,2,1,2,2,0,0,0,-3
1480627873876689,0,-3,-8,-4,-2,-2,-2,-1
1480627873876689,-2,-6,3,0,2,0,-1,0
1480627873883706,-1,-7,0,-2,-1,-2,-1,0
1480627873883706,-1,0,1,0,-1,-1,0,-1
1480627873890725,-4,-7,-1,-1,0,0,-2,1
1480627873890725,5,9,2,0,-1,-1,1,0
1480627873915792,6,25,-4,-4,-2,-2,-2,-2
1480627873915792,1,3,2,0,-1,-1,0,-1
1480627873917296,-1,6,-7,-1,-3,-1,-2,-1
1480627873917296,-1,-2,3,1,1,0,2,1
1480627873918299,1,3,3,0,0,0,1,0
1480627873918299,-2,-9,-19,-4,-4,0,-2,-2
1480627873936848,0,7,3,-1,-1,-2,0,-2
1480627873936848,-2,-4,-2,-1,1,2,1,0
1480627873937851,-3,-9,6,2,1,0,-2,0
1480627873937851,-1,-1,-2,1,0,-1,-2,1
1480627873950885,-4,-14,-3,0,-1,-2,0,-1
1480627873950885,-1,0,0,-1,0,0,-1,-2
1480627873966427,0,-3,5,-1,-1,-2,-1,-1
1480627873966427,0,11,-3,-1,1,0,-1,-1
1480627873973947,0,0,-5,-2,-2,-4,-1,0
1480627873973947,3,9,4,1,-1,-1,0,0
1480627873996005,-3,-8,-4,0,1,2,-1,0
1480627873996005,0,2,4,1,0,-1,-1,-1
1480627874004528,1,-3,-3,-1,1,2,-2,0
1480627874004528,-3,-10,-9,-1,-2,-3,-1,-3
1480627874006032,1,-5,2,1,0,0,0,1
1480627874006032,1,-1,4,0,-1,-1,1,1
1480627874018566,-2,-2,-7,-1,-1,-1,-1,-3
1480627874018566,0,1,0,-2,1,-2,-2,-1
1480627874028090,-1,1,-2,0,-1,-1,-1,0
1480627874028090,-6,-29,13,5,0,0,2,2
1480627874034107,-4,-9,-2,-2,0,1,-1,-1
1480627874034107,4,15,-4,-3,-4,-2,-2,-1
1480627874065190,-7,-23,-32,-7,-2,-4,-4,-3
1480627874065190,1,9,-3,-3,-1,0,0,1
1480627874065692,2,1,-2,0,-1,0,-2,0
1480627874065692,-4,-11,-3,-1,-3,-2,-1,-2
1480627874089253,-1,3,0,-1,0,0,0,0
1480627874089253,0,-3,2,-2,0,0,-1,-1
1480627874090758,-1,1,-3,-1,0,-1,0,1
1480627874090758,-2,-13,6,3,1,1,1,1
1480627874102794,2,2,3,-1,-1,-1,1,-1
1480627874102794,1,5,-1,-3,-1,0,-1,-1
1480627874103293,-1,-2,4,1,0,-1,1,1
1480627874103293,-1,4,-5,-2,-2,1,-2,2
1480627874119337,0,4,9,3,0,0,1,-1
1480627874119337,2,-3,12,3,1,-1,0,1
1480627874119835,-7,-12,-4,0,-2,0,0,1
1480627874119835,-3,-2,2,1,0,-2,-1,0
1480627874123345,6,21,-1,-3,0,-1,-2,1
1480627874123345,-1,3,-9,-3,-3,-4,-1,-1
1480627874139387,3,1,0,-1,-1,0,-1,-1
1480627874139387,-1,-4,1,1,1,1,1,0
1480627874140891,-2,1,5,-1,-1,1,-2,-1
1480627874140891,-2,5,9,3,2,0,1,1
1480627874161946,0,-2,-1,0,1,0,-1,-1
1480627874161946,-1,7,-2,-1,-2,-3,-1,-1
1480627874163450,0,-1,4,2,-1,0,1,1
1480627874163450,-1,-6,-8,-3,-2,0,-1,-1
1480627874185008,-3,-3,1,2,2,-1,0,-1
1480627874185008,0,8,-4,-1,-4,-2,0,-3
1480627874186516,0,-2,0,-1,1,-2,0,-1
1480627874186516,0,-1,-2,0,-3,0,0,-2
1480627874200049,-2,-2,-1,1,-1,-2,1,-1
1480627874200049,4,11,-3,-4,0,0,-2,-2
1480627874201553,0,-2,6,1,1,0,0,1
1480627874201553,3,9,-1,-3,-1,0,-1,-2
1480627874213589,1,7,-5,-3,-1,-4,-2,-3
1480627874213589,-4,-6,-10,-3,-1,-1,0,-2
1480627874228123,0,-1,-9,-2,-3,-3,-1,-2
1480627874228123,1,14,14,3,1,3,1,0
1480627874244666,-3,-25,4,3,0,2,1,0
1480627874244666,0,-4,0,0,0,0,0,-1
1480627874246172,-5,-12,-16,-4,-2,-1,-1,-1
1480627874246172,-1,-9,-8,-3,-2,-2,-1,-3
1480627874266225,0,5,-3,-3,-2,1,-2,-1
1480627874266225,2,2,10,3,1,0,0,1
1480627874284773,2,-2,6,2,0,1,1,0
1480627874284773,-5,-7,-6,-2,0,0,0,0
1480627874284773,2,16,-2,-3,-2,-2,0,-3
1480627874284773,-3,-13,3,0,1,2,1,1
1480627874312849,2,10,3,1,0,-1,-1,1
1480627874312849,1,-2,6,2,0,0,-1,1
1480627874313350,1,6,-1,-2,-1,-2,-2,-2
1480627874313350,-1,1,3,-1,-1,-2,0,1
1480627874314853,-1,0,1,0,0,-1,0,-2
1480627874314853,2,5,-1,-2,-2,-3,-1,0
1480627874325883,-2,-1,-2,-1,-2,-1,1,-1
1480627874325883,2,1,-6,0,-2,-1,-2,-2
1480627874335409,-2,-9,5,3,2,0,2,3
1480627874335409,-4,-5,0,1,-1,-2,-1,-2
1480627874336415,-4,-2,2,0,0,-2,-1,0
1480627874336415,-7,-20,-27,-7,-4,-3,-3,-5
1480627874357467,2,10,9,3,0,0,2,1
1480627874357467,-4,-23,0,2,2,-1,1,0
1480627874358470,1,4,3,-1,0,-2,-1,-2
1480627874358470,-2,-3,4,1,0,0,1,1
1480627874359974,0,-7,-1,0,-1,-1,0,-1
1480627874359974,2,7,-3,-2,-2,0,0,-1
1480627874380027,1,-3,-1,-2,-3,0,-1,0
1480627874380027,3,8,2,0,1,0,-1,0
1480627874382533,-1,-8,-1,0,-2,1,-1,-1
1480627874382533,4,11,0,-1,-2,-2,-2,-1
1480627874393061,-3,-3,-2,0,0,0,0,0
1480627874393061,-2,-1,4,0,1,0,0,0
1480627874402086,0,6,0,-1,-2,-1,-2,-2
1480627874402086,0,2,-5,-2,1,-1,-1,-2
1480627874417125,-1,-3,1,1,1,1,0,1
1480627874417125,1,-4,8,2,-1,1,1,1
1480627874418629,-1,-2,-5,-1,0,0,-1,-2
1480627874418629,-2,3,3,2,0,1,-1,-1
1480627874438682,-1,-3,4,-1,-1,-1,-2,0
1480627874438682,-6,-25,-32,-8,-4,-2,-3,-2
1480627874447206,4,8,8,1,0,-1,0,-1
1480627874447206,0,0,-5,-2,-2,-1,0,-1
1480627874461746,-2,0,-4,0,-1,1,1,1
1480627874461746,-2,2,-1,-2,-2,-2,0,-5
1480627874463751,-2,-7,3,1,-1,0,-1,1
1480627874463751,-1,8,-3,-2,-2,-1,-3,-1
1480627874476784,-3,-18,2,2,0,-2,1,0
1480627874476784,3,9,11,1,0,0,0,1
1480627874478790,-5,-10,2,1,0,2,2,1
1480627874478790,0,4,4,-1,0,0,0,-1
1480627874499346,1,8,-1,-2,0,0,0,-1
1480627874499346,1,8,10,2,-1,0,0,1
1480627874501350,-2,1,0,-3,-3,-2,-1,-2
1480627874501350,0,-7,-8,-1,-2,-3,-1,-1
1480627874529424,2,8,-3,-1,-2,-1,-2,0
1480627874529424,4,15,9,0,2,1,0,0
1480627874530928,-4,-2,-5,-1,0,-2,0,-1
1480627874530928,-4,-8,-1,-1,1,1,1,0
1480627874535946,-2,-14,-24,-7,-5,-3,-2,-3
1480627874535946,4,13,16,4,0,-1,2,2
1480627874544473,1,5,-6,-4,-2,-2,-2,1
1480627874544473,0,0,6,1,1,1,-1,-1
1480627874559504,1,1,1,-1,1,2,0,-2
1480627874559504,-1,-6,-5,0,-3,-2,0,-3
1480627874561008,-2,-3,-1,-1,0,0,-2,-1
1480627874561008,-2,-6,-7,-3,-2,-1,0,0
1480627874589585,-1,3,0,0,-2,0,-2,-2
1480627874589585,-1,-6,7,2,2,0,0,1
1480627874591089,2,6,3,1,1,1,1,-1
1480627874591089,-1,2,1,0,-1,-2,1,0
1480627874596603,0,8,2,-1,-2,-2,1,-1
1480627874596603,-3,-13,5,2,1,-2,1,1
1480627874610640,-2,-3,-5,0,0,0,-2,-1
1480627874610640,0,-14,3,1,0,0,0,1
1480627874619666,1,5,2,0,0,1,0,-2
1480627874619666,-3,1,-8,-3,1,-1,-2,-1
1480627874621170,-2,-2,-1,-1,0,-1,-1,0
1480627874621170,-2,-6,-3,0,0,-2,-1,-1
1480627874633204,2,5,3,1,0,2,1,1
1480627874633204,3,14,13,2,1,1,-2,1
1480627874642225,1,2,-3,-1,-2,-1,-2,-1
1480627874642225,2,6,-2,-2,-1,2,-2,-1
1480627874656764,-5,-12,0,0,1,-1,0,0
1480627874656764,1,1,-7,-3,-2,-1,-1,-1
1480627874658769,-2,-8,0,-2,1,1,-2,1
1480627874658769,0,7,-1,-1,-1,-1,0,-2
1480627874678822,1,-1,4,0,1,0,-1,0
1480627874678822,0,0,-3,0,-2,0,0,-1
1480627874687344,1,3,2,-2,-1,-2,1,0
1480627874687344,0,-3,-6,-2,-4,-1,1,1
1480627874693361,-5,-10,10,2,3,1,2,2
1480627874693361,-1,2,-6,-1,-2,-1,-1,-1
1480627874702385,-3,-15,3,3,0,0,1,0
1480627874702385,-3,-1,-1,1,0,1,-1,-2
1480627874716923,-3,-21,5,3,1,-1,0,0
1480627874716923,-1,-1,-14,-5,-2,-2,0,-2
1480627874718428,3,10,5,-2,1,-1,-1,0
1480627874718428,3,5,1,0,-1,-1,-3,0
1480627874739485,1,5,-4,-2,-3,-3,-1,-2
1480627874739485,0,-8,2,0,-2,1,0,1
1480627874740987,-5,-15,1,2,3,2,1,0
1480627874740987,0,5,5,2,1,1,0,0
1480627874753021,2,8,-8,-4,-2,-2,-3,-1
1480627874753021,-3,0,3,1,-1,0,-3,0
1480627874762545,2,11,-3,-2,-3,-2,-1,-1
1480627874762545,-2,-6,-2,-1,0,-1,1,-1
1480627874777084,0,4,2,1,1,0,0,-1
1480627874777084,0,-1,-2,-1,0,0,-1,-3
1480627874778587,-2,6,-6,-2,-2,-2,0,0
1480627874778587,-3,-3,-3,-1,1,2,0,-1
1480627874807163,-1,-2,-1,2,0,-1,0,-1
1480627874807163,1,9,3,0,0,-1,0,0
1480627874808668,1,3,-3,-4,-1,-2,-1,-1
1480627874808668,2,6,-3,-2,-1,-2,0,-1
1480627874822203,0,4,-2,-1,-1,-1,-1,-1
1480627874822203,3,14,9,3,2,-1,-1,0
1480627874828219,1,0,1,-1,-2,-1,1,0
1480627874828219,4,18,33,7,2,1,2,2
1480627874837247,-1,-14,6,3,1,1,0,2
1480627874837247,-2,-7,-5,0,0,-1,0,-1
1480627874838747,1,4,2,1,0,2,-2,0
1480627874838747,3,-1,-6,-2,-1,-2,-1,1
1480627874867824,-1,5,-8,-4,-1,-2,0,-1
1480627874867824,-1,-5,0,0,-1,-1,1,-1
1480627874868828,-3,-8,-3,0,-1,-1,1,0
1480627874868828,-2,-5,-18,-5,-3,-3,-3,-3
1480627874873339,1,11,9,3,0,0,0,-1
1480627874873339,-3,-11,-6,-3,0,0,1,0
1480627874882368,-2,0,1,1,1,0,-1,-1
1480627874882368,-3,-6,-5,-2,0,-1,0,2
1480627874896902,0,-5,5,2,0,-1,0,1
1480627874896902,2,12,-4,-3,-2,1,-3,0
1480627874898406,8,15,-4,0,-2,-1,-1,-2
1480627874898406,-2,-8,8,4,0,1,0,1
1480627874919964,-3,-9,-17,-5,-4,-1,-1,-1
1480627874919964,-6,-20,-21,-6,-3,-3,-2,-1
1480627874921970,1,-1,-6,-1,-3,-2,-1,-1
1480627874921970,-5,-4,-9,-2,0,-1,0,-1
1480627874932999,1,13,4,-1,-2,-1,-3,0
1480627874932999,0,-5,1,1,-1,-1,0,-1
1480627874942022,-1,-2,0,-1,0,-2,0,-1
1480627874942022,-1,-1,-4,-2,0,0,-3,-1
1480627874957061,-2,0,-2,0,0,-2,0,-2
1480627874957061,0,3,3,0,-1,0,0,1
1480627874958566,-1,-6,3,0,0,3,-1,0
1480627874958566,1,5,1,-1,-2,-3,0,0
1480627874979622,0,0,0,0,-1,0,0,0
1480627874979622,0,3,2,0,-1,-1,-2,-1
1480627874985640,0,2,0,-1,0,-1,-1,-1
1480627874985640,-4,-6,-5,0,-2,0,0,-1
1480627874993159,1,3,-4,-1,0,0,0,0
1480627874993159,1,1,-2,-2,1,0,0,1
1480627875002183,-2,0,-6,-3,-1,-1,-1,-2
1480627875002183,1,2,1,-1,-2,-2,1,0
1480627875024241,-1,2,-14,-5,-1,-2,-1,-1
1480627875024241,6,26,30,6,4,1,1,3
1480627875026245,1,5,0,0,0,-2,-1,1
1480627875026245,-1,-2,0,-2,-1,-2,-1,-1
1480627875039281,1,-5,-2,-1,-1,0,0,0
1480627875039281,-4,-7,-10,-2,-1,0,-2,-3
1480627875041286,1,1,1,0,-2,0,0,1
1480627875041286,0,2,1,0,0,0,0,1
1480627875061840,-1,-6,1,0,0,-1,0,0
1480627875061840,-1,-10,-5,-1,-2,-1,-1,-1
1480627875063847,-7,-11,6,2,1,-1,0,0
1480627875063847,0,-3,0,-2,-1,0,-1,-1
1480627875075879,2,7,-3,-2,-1,-2,0,0
1480627875075879,0,-5,2,0,-1,-2,0,1
1480627875084902,1,0,-1,1,1,-1,0,1
1480627875084902,1,2,-5,-3,-1,0,-2,-1
1480627875099442,-1,1,1,0,-1,1,-1,-1
1480627875099442,-2,-4,-3,0,1,0,1,0
1480627875100945,0,-5,-1,0,-1,-1,0,-2
1480627875100945,-6,-15,-4,1,1,-2,0,-1
1480627875122503,5,11,6,0,-1,-3,0,-1
1480627875122503,-14,-46,-31,-4,-2,-1,0,-3
1480627875123505,2,5,1,-1,-1,0,0,0
1480627875123505,1,2,-4,-1,-2,-1,0,0
1480627875137043,-2,-5,-3,0,-2,1,-1,-2
1480627875137043,1,4,-4,-2,-2,-3,-2,0
1480627875138545,-1,-3,-3,-1,-1,-2,1,0
1480627875138545,0,3,0,-1,1,0,0,-2
1480627875159600,-2,-2,-2,-3,-3,-3,-1,-1
1480627875159600,1,8,4,1,-1,-1,-2,0
1480627875161105,-4,-13,-2,1,-1,1,1,0
1480627875161105,5,8,2,1,1,1,-1,0
1480627875182161,-1,-4,3,1,1,-1,-2,-1
1480627875182161,-3,-1,9,1,2,1,1,1
1480627875183665,2,4,-1,-2,0,0,-2,0
1480627875183665,0,-2,-2,0,1,-1,0,-1
1480627875196198,0,0,0,0,0,-1,-1,0
1480627875196198,-1,-4,-11,-2,-2,0,-1,-2
1480627875203221,-1,-6,0,1,-1,0,0,-1
1480627875203221,-6,-21,-18,-5,-4,-3,-2,-3
1480627875219262,1,-4,-1,-4,-3,-2,-1,0
1480627875219262,1,22,0,-1,0,1,-1,0
1480627875221264,-1,6,3,-2,-1,-2,-2,0
1480627875221264,1,-5,5,1,0,1,0,1
1480627875241820,-3,-2,-2,1,2,0,0,-2
1480627875241820,3,9,-2,-2,-2,0,0,-2
1480627875243825,-3,-4,-10,-2,-3,-1,-1,-1
1480627875243825,-1,10,4,0,-1,0,-1,0
1480627875256358,0,2,0,1,-1,-2,-1,0
1480627875256358,1,-1,8,2,2,-1,0,0
1480627875262876,-2,0,1,0,-1,-1,0,-1
1480627875262876,-1,-8,-1,-2,0,-1,1,-2
1480627875279420,-3,-3,-1,-1,1,1,0,0
1480627875279420,0,-3,-8,-3,-3,-2,-1,0
1480627875280924,1,-4,5,1,1,0,1,-1
1480627875280924,1,6,2,1,1,1,-1,1
1480627875301979,-2,-1,-2,-1,0,0,0,1
1480627875301979,-6,-20,-23,-5,-4,-3,-3,-2
1480627875304486,-2,5,-11,-4,-1,-1,-1,-1
1480627875304486,2,2,1,0,-1,0,-2,0
1480627875316519,0,5,5,-1,0,-1,0,-1
1480627875316519,2,1,3,1,-1,0,-1,2
1480627875323035,0,3,0,0,-1,1,1,-3
1480627875323035,0,-5,8,1,0,0,0,0
1480627875339579,-3,0,-9,-3,0,0,-2,-1
1480627875339579,3,11,9,0,1,-1,-1,0
1480627875341085,-3,-5,1,0,1,0,0,2
1480627875341085,-1,5,1,0,-1,-2,-1,0
1480627875362140,-1,-1,-8,-1,-1,-1,-1,-1
1480627875362140,0,-2,10,2,0,0,-1,0
1480627875363643,-2,0,2,0,2,0,-1,-1
1480627875363643,1,2,-3,-2,-1,-1,-2,0
1480627875376177,3,10,9,1,-1,-1,0,0
1480627875376177,1,-8,11,6,2,1,2,2
1480627875400241,3,-3,-7,-2,-2,-2,-4,-4
1480627875400241,-1,4,3,1,0,0,-1,-2
1480627875401745,3,19,31,7,4,4,2,3
1480627875401745,1,7,-2,-3,0,-1,0,-2
1480627875402752,-1,-1,-2,-2,-2,0,0,-1
1480627875402752,1,5,2,0,0,-2,1,-1
1480627875421798,-3,-5,-7,-2,-2,-2,-1,-2
1480627875421798,2,-3,6,3,1,0,-1,0
1480627875423804,-1,0,5,0,0,1,0,2
1480627875423804,0,-1,-6,-2,-2,-4,-1,-1
1480627875436342,-8,-47,3,4,4,5,3,3
1480627875436342,-2,3,-7,-4,-2,-3,-1,-3
1480627875443356,0,-1,-3,-1,0,-3,-2,-1
1480627875443356,-3,-4,3,0,-1,1,2,-1
1480627875459400,0,4,-9,-2,-5,-1,-1,-2
1480627875459400,-1,0,-5,-2,0,0,1,-2
1480627875465415,0,-4,13,4,0,1,2,2
1480627875465415,-2,3,-6,-1,-2,-2,-1,-2
1480627875482459,1,3,-6,-2,-2,0,-4,1
1480627875482459,-2,0,-3,0,1,-1,0,0
1480627875484466,11,40,35,4,2,-1,0,3
1480627875484466,1,-4,-3,0,-1,1,-1,-1
1480627875505020,-2,-6,-6,-3,0,-1,0,-2
1480627875505020,0,3,7,1,0,0,-1,0
1480627875506524,-2,-8,-10,-3,-3,-1,-1,-2
1480627875506524,-2,-2,1,-1,0,0,-1,2
1480627875519564,2,4,-1,-1,-2,0,-2,-1
1480627875519564,-1,-3,-7,-1,-3,-1,-2,0
1480627875521064,-4,-19,-4,2,1,0,1,-1
1480627875521064,-4,-20,11,4,1,2,2,1
1480627875542620,-3,1,-7,-1,-2,-2,-1,-4
1480627875542620,-4,-12,3,2,0,1,0,1
1480627875544124,-3,-6,-7,-4,-2,0,-1,-3
1480627875544124,0,7,-5,-2,1,-3,-1,-1
1480627875555655,-1,0,0,-1,2,0,1,-2
1480627875555655,0,4,3,-1,-1,-1,-1,-2
1480627875564680,-5,-17,-29,-6,-4,-1,-3,-2
1480627875564680,0,9,9,2,1,1,0,0
1480627875587739,3,5,-4,-4,-2,-2,-2,-2
1480627875587739,-2,-2,-5,-2,-1,1,0,-1
1480627875589244,-1,-4,-6,-1,-2,-1,-1,1
1480627875589244,0,-2,-4,-1,-2,-1,-1,-3
1480627875601778,2,1,0,0,0,0,0,0
1480627875601778,2,3,9,3,-1,1,-1,-1
1480627875603783,0,6,5,0,-1,-1,0,-1
1480627875603783,2,3,-3,-3,-1,-2,0,0
1480627875615814,-7,-42,22,9,5,4,2,1
1480627875615814,0,1,-5,-4,-2,-2,-2,0
1480627875624841,-3,1,-4,-1,-3,-3,0,-1
1480627875624841,0,-6,11,3,1,0,1,0
1480627875639377,2,8,-14,-4,-3,-4,0,-3
1480627875639377,-2,2,2,0,-2,0,2,0
1480627875640881,1,-3,4,-1,-1,0,-1,0
1480627875640881,-7,-16,-21,-6,-2,-2,-3,-3
1480627875669961,2,6,-6,-3,-2,-3,0,0
1480627875669961,1,-3,3,1,0,-1,1,-1
1480627875676476,3,11,9,2,0,-1,0,0
1480627875676476,0,0,-7,-3,-2,-2,-1,-2
1480627875676979,-1,5,-3,-1,-2,1,-2,0
1480627875676979,-4,-7,-6,-2,-3,-1,1,-1
1480627875686007,-3,-8,-9,-1,-1,-3,-1,-1
1480627875686007,2,7,-1,-2,0,-1,-2,1
1480627875699537,-2,0,1,1,0,-2,1,-1
1480627875699537,1,12,-2,0,0,-1,0,0
1480627875701042,-1,1,2,-1,0,1,-1,1
1480627875701042,-5,-34,12,6,3,3,3,2
1480627875729617,-2,6,3,0,-1,2,-1,-2
1480627875729617,0,1,-3,0,0,-2,-1,-1
1480627875731121,0,1,2,-1,0,0,0,-2
1480627875731121,10,48,28,3,-1,-1,1,2
1480627875735634,-1,-2,-6,-1,0,-1,0,1
1480627875735634,-2,-11,4,2,-1,-1,0,0
1480627875744657,1,4,1,-1,0,2,0,1
1480627875744657,-2,-2,-8,-2,-2,-1,-2,-3
1480627875759697,-1,3,1,0,-1,-2,-1,0
1480627875759697,-1,7,0,-2,1,-1,0,0
1480627875761201,1,-1,-5,0,1,1,-1,0
1480627875761201,-1,-1,-9,-2,-1,-3,-1,0
1480627875781757,0,-4,-1,-1,0,-1,-1,-1
1480627875781757,-3,-9,-5,-2,1,1,1,-1
1480627875784263,0,-1,0,-1,0,0,0,0
1480627875784263,-2,8,-20,-6,-4,-3,-3,-3
1480627875804316,-5,-21,10,5,1,1,1,2
1480627875804316,0,7,-7,-3,-4,-1,-2,-1
1480627875812337,-2,-4,1,2,0,0,0,0
1480627875812337,0,0,-4,-3,0,-1,1,-2
1480627875819363,6,17,-8,-4,-2,-2,0,-1
1480627875819363,2,15,14,0,3,1,2,0
1480627875820860,-6,-9,3,1,0,0,0,-2
1480627875820860,-1,-6,-5,-2,-2,-2,-1,0
1480627875841917,-2,-3,-11,-3,-1,-1,-3,-2
1480627875841917,-1,-12,1,2,0,-1,0,0
1480627875843420,0,7,-1,-1,1,0,-1,-2
1480627875843420,2,1,6,1,-1,1,-2,0
1480627875864477,1,3,1,-2,-1,1,-1,-1
1480627875864477,1,0,-3,-2,-2,-1,-2,0
1480627875865981,-1,-4,-2,0,0,-1,0,-1
1480627875865981,0,1,-4,-2,-1,-2,0,-1
1480627875879516,-3,-1,-10,-3,-1,-2,-1,-3
1480627875879516,-4,-14,11,3,1,1,0,1
1480627875881021,2,0,-3,-3,-2,-2,-2,0
1480627875881021,-8,-28,5,2,3,2,1,0
1480627875902077,2,4,-2,-1,-1,-2,-2,-1
1480627875902077,7,36,33,6,3,2,2,2
1480627875903580,0,1,-3,-2,-1,-2,-3,-2
1480627875903580,-1,5,-1,-1,-1,1,1,-3
1480627875916114,3,5,4,1,3,2,0,2
1480627875916114,-3,-13,-16,-4,0,-1,-2,-2
1480627875924637,1,2,-1,1,-1,0,2,-1
1480627875924637,1,11,1,1,0,0,-1,1
1480627875939676,0,-1,-3,-1,-2,-1,-1,-1
1480627875939676,0,-4,-7,-3,-1,-1,-1,-2
1480627875941681,0,-1,1,1,-2,-1,2,0
1480627875941681,0,0,-3,-2,1,1,0,0
1480627875962236,-4,-1,-2,-2,-2,-1,-1,-1
1480627875962236,-4,-6,-16,-3,-1,-2,0,-2
1480627875963740,-1,2,2,-1,-2,0,0,0
1480627875963740,1,-1,-2,0,0,-1,-1,-1
1480627875984296,0,5,2,0,-1,-2,-2,0
1480627875984296,3,15,-7,-4,-2,-3,-2,-4
1480627875990813,-5,-16,-1,2,1,3,0,1
1480627875990813,-1,3,-1,1,0,0,0,0
1480627875999837,-1,-16,-29,-7,-3,-6,-4,-3
1480627875999837,0,-3,-10,-2,-3,-2,-3,-1
1480627876005852,-1,-5,11,4,2,0,3,2
1480627876005852,-1,-2,0,-1,-3,-1,0,0
1480627876021895,0,-1,1,-1,-1,2,0,-1
1480627876021895,-2,-8,-2,0,1,2,-1,-2
1480627876023398,-7,-13,0,0,-2,0,-1,0
1480627876023398,-1,0,-5,-2,-1,-2,0,0
1480627876044455,1,5,9,2,-3,0,1,1
1480627876044455,2,-1,0,1,-1,0,0,1
1480627876045959,2,15,-2,-4,0,-2,-1,-1
1480627876045959,-1,7,2,-1,-1,-1,-1,-2
1480627876059996,-1,-4,13,3,1,2,2,0
1480627876059996,0,-2,3,1,0,-1,-2,2
1480627876061500,-3,-19,-8,0,0,0,0,0
1480627876061500,0,1,-4,-1,-2,-3,-1,1
1480627876082058,1,8,3,0,1,-2,-1,0
1480627876082058,-2,-8,2,1,0,1,1,1
1480627876083563,4,10,0,-1,0,-3,-2,-2
1480627876083563,-3,-8,-3,0,1,2,0,1
1480627876112135,3,8,23,7,1,1,1,2
1480627876112135,0,4,2,-1,2,0,1,0
1480627876113639,0,4,0,-1,-1,-1,0,-1
1480627876113639,0,-14,5,1,1,2,0,-2
1480627876118653,-5,-9,-9,-2,-3,-3,-2,-3
1480627876118653,0,-3,-1,-3,-1,-2,-1,-1
1480627876125671,-2,1,5,1,1,0,1,-1
1480627876125671,2,6,0,-2,-3,-3,-1,0
1480627876142717,-1,0,-2,0,1,-2,-2,0
1480627876142717,2,3,1,-1,-2,-1,-1,0
1480627876148230,0,2,-6,-2,-1,0,-2,1
1480627876148230,1,-4,3,0,0,-1,-1,-1
1480627876164274,-1,2,-5,-2,0,0,-1,-2
1480627876164274,0,-2,8,1,-2,0,0,1
1480627876166280,-4,-21,-2,0,0,-1,-1,-2
1480627876166280,1,6,-6,-2,-1,0,0,-2
1480627876178311,-2,5,2,0,1,-1,-1,-1
1480627876178311,-1,-9,-2,0,-1,1,2,-1
1480627876194855,1,7,-2,-3,0,1,0,0
1480627876194855,0,-1,1,0,-1,0,-1,0
1480627876201874,-8,-28,-30,-8,-4,-3,-3,-5
1480627876201874,-6,-6,-6,-1,-1,-2,-1,-2
1480627876203379,2,3,-3,-2,-2,-3,-1,-2
1480627876203379,-3,2,2,0,1,0,0,0
1480627876224935,1,5,-7,-2,-1,0,1,-1
1480627876224935,0,-7,4,2,2,0,-1,0
1480627876226940,1,1,-7,-1,-1,0,-2,-1
1480627876226940,-3,-11,-6,-1,-2,0,-3,0
1480627876238972,1,3,5,2,1,1,0,1
1480627876238972,1,6,-3,-3,-2,0,-1,-1
1480627876245489,0,4,1,1,-1,-2,-1,-1
1480627876245489,1,7,-2,1,1,0,1,-2
1480627876261031,0,-1,9,0,-1,2,1,1
1480627876261031,-3,0,-2,-1,-2,0,0,-1
1480627876269557,3,13,4,0,0,1,1,1
1480627876269557,-1,2,-2,0,-3,-1,0,-1
1480627876284594,3,5,4,2,-2,-1,0,0
1480627876284594,-2,-4,-7,-2,-1,-2,-3,-2
1480627876286100,-3,1,0,-1,-2,-1,-2,0
1480627876286100,0,-4,0,0,1,1,0,0
1480627876298631,0,-1,3,1,0,0,0,0
1480627876298631,0,3,0,-1,-1,0,1,0
1480627876306152,3,19,15,2,0,-2,0,2
1480627876306152,3,4,12,2,3,-1,1,2
1480627876322193,-1,-5,-4,0,0,-1,0,2
1480627876322193,3,6,2,1,-1,-1,0,-1
1480627876323699,-1,0,-14,-4,-2,0,-2,-2
1480627876323699,1,2,-6,-5,-5,-4,-1,-2
1480627876344252,-1,-10,1,0,0,-1,1,0
1480627876344252,-1,-2,-2,1,0,0,1,1
1480627876346257,0,-6,-3,-2,0,-2,0,-2
1480627876346257,0,-1,-1,0,0,0,0,-1
1480627876358791,0,1,-1,-1,-1,0,-2,-2
1480627876358791,-2,-2,-5,-2,-1,-3,-1,-1
1480627876365811,-1,-6,-2,-1,0,1,-2,0
1480627876365811,-3,-9,4,2,0,0,0,1
1480627876380850,1,3,1,0,-1,0,-1,-1
1480627876380850,3,17,-8,-3,-2,-3,-1,-1
1480627876389373,-6,-9,5,4,1,2,0,0
1480627876389373,-4,-1,-2,-1,-1,-1,0,-2
1480627876404414,2,3,0,2,-3,2,-2,1
1480627876404414,-1,-2,-3,-1,-1,0,0,-1
1480627876405917,-4,-22,-23,-5,0,-2,0,0
1480627876405917,-1,2,0,0,-1,-1,0,-2
1480627876418957,-2,-8,-1,-1,-1,-1,0,-1
1480627876418957,2,-5,-4,-2,-3,-1,-2,-1
1480627876425468,-2,-5,-3,-3,-2,0,-2,-1
1480627876425468,-4,-7,-8,-2,-1,0,-1,-1
1480627876442012,4,6,8,1,2,0,0,2
1480627876442012,-2,-7,0,2,1,0,-1,1
1480627876443517,2,4,4,0,-3,-2,0,-3
1480627876443517,3,19,-9,-4,-3,-2,-3,-2
1480627876465575,-2,5,-3,-2,0,-1,1,-2
1480627876465575,-3,-2,2,0,0,-1,-1,1
1480627876470590,0,3,7,3,-1,0,0,1
1480627876470590,-1,1,-8,-1,0,-1,-1,-1
1480627876478109,-3,-5,-4,-2,-2,0,-1,-2
1480627876478109,-1,-1,3,1,-1,1,0,0
1480627876487133,-3,-12,7,4,1,-1,-1,0
1480627876487133,-4,-8,0,1,-1,0,0,-1
1480627876502175,-2,-1,0,-1,-1,-1,1,-1
1480627876502175,0,2,0,0,0,0,-1,-2
1480627876503676,3,7,1,0,-1,0,-1,-1
1480627876503676,-3,-13,-4,-1,-1,-1,-1,-1
1480627876525234,1,-2,-2,-1,0,-1,-1,-1
1480627876525234,1,4,1,0,0,-2,0,-1
1480627876527740,0,1,-1,-2,0,0,0,1
1480627876527740,-7,-23,-27,-7,-4,-4,-2,-4
1480627876538268,2,9,4,0,1,0,0,-1
1480627876538268,-2,-9,-3,0,0,-1,0,-1
1480627876547292,1,5,-1,0,1,1,0,0
1480627876547292,-4,-7,6,3,-1,0,0,1
1480627876561831,-2,2,-4,-1,0,0,-2,-2
1480627876561831,0,-2,-1,1,-2,0,0,-2
1480627876563837,1,7,-5,-4,0,-1,-1,-1
1480627876563837,3,4,13,4,3,1,1,1
1480627876584391,-1,-3,0,0,-1,-1,-2,0
1480627876584391,-2,-1,-3,-1,-1,-1,0,0
1480627876585897,-3,-16,3,1,2,1,0,1
1480627876585897,0,5,2,-2,1,1,0,0
1480627876597928,-3,-5,-2,0,1,1,-1,-1
1480627876597928,-4,-9,-6,-4,1,0,-1,-1
1480627876606951,0,7,-4,-2,-3,-1,1,0
1480627876606951,2,6,8,1,0,0,-1,0
1480627876621490,-1,-6,-2,-1,0,-1,1,1
1480627876621490,-1,0,-1,-1,-1,0,-1,1
1480627876635531,0,8,-5,0,-2,-2,-2,-3
1480627876635531,2,-1,14,4,2,0,1,2
1480627876644552,-1,1,-7,-1,-2,0,0,-1
1480627876644552,0,0,4,1,-1,0,-1,-2
1480627876646056,0,1,-2,-3,-1,-2,-1,-1
1480627876646056,9,33,25,3,0,1,-1,0
1480627876658087,-7,-12,0,-1,-1,-1,0,-1
1480627876658087,-1,0,2,2,0,1,-1,-1
1480627876667111,-3,-5,-2,-2,0,1,1,-2
1480627876667111,-3,-6,-9,-2,0,-3,-1,-1
1480627876682151,2,2,0,-1,0,-1,-1,1
1480627876682151,2,5,6,-1,-2,0,-1,0
1480627876683655,-4,-3,-3,0,-1,-1,0,-2
1480627876683655,-4,-24,-7,0,0,1,1,0
1480627876704210,-2,4,-1,0,-2,-2,-1,-2
1480627876704210,-3,-18,1,1,2,0,1,1
1480627876710727,2,8,4,-1,1,-2,-1,-1
1480627876710727,-1,-2,-15,-3,-4,-1,-2,-3
1480627876718248,3,6,5,1,-1,0,0,1
1480627876718248,-2,0,3,0,0,0,0,-2
1480627876727272,1,-3,0,0,-1,-2,-1,1
1480627876727272,0,0,0,-1,1,0,0,0
1480627876742311,-3,-5,-4,-2,-1,0,0,-3
1480627876742311,1,5,0,-1,0,-1,0,1
1480627876743816,8,26,22,3,1,0,1,1
1480627876743816,-1,-1,1,0,-1,0,0,0
1480627876771890,2,3,-3,-2,-3,0,-2,0
1480627876771890,-3,-3,6,3,0,1,0,0
1480627876773394,-3,-10,-9,-2,-2,-1,-1,-1
1480627876773394,1,4,-2,-1,-2,-1,-1,-1
1480627876786930,-1,4,-7,-4,-1,0,-2,-2
1480627876786930,-1,4,-5,-2,-2,1,-3,-1
1480627876788434,-3,-3,-2,-1,-2,-1,-1,0
1480627876788434,-3,0,-3,-1,0,0,-2,0
1480627876801971,-4,-7,-7,-1,0,0,-1,-2
1480627876801971,1,2,-4,-3,-3,-3,-2,0
1480627876803976,1,-1,0,1,-1,1,0,0
1480627876803976,6,18,-2,-3,0,-2,-2,-2
1480627876825031,0,2,0,0,-1,-1,-1,1
1480627876825031,-1,1,-2,-1,2,-1,0,0
1480627876826535,-4,-6,0,0,1,0,0,-1
1480627876826535,-2,-7,-2,-1,-2,1,-1,-1
1480627876838067,2,0,2,0,0,-1,0,0
1480627876838067,-1,-3,-4,-2,-1,-2,-1,-1
1480627876854610,-2,-5,-7,0,-2,1,-2,-1
1480627876854610,5,19,26,4,2,0,-1,1
1480627876862130,-3,-7,3,2,3,1,1,1
1480627876862130,-4,-4,2,1,-1,-1,2,1
1480627876868147,1,5,0,-2,-1,0,-2,0
1480627876868147,0,7,-12,-4,-3,-1,-1,-2
1480627876884690,-1,-2,3,0,-1,0,-1,-1
1480627876884690,3,4,-1,-1,-2,-1,0,1
1480627876886194,-2,-7,-5,-2,0,0,0,-1
1480627876886194,-4,-8,-9,-3,-1,-1,-1,0
1480627876898226,1,5,-8,-4,-2,-4,-1,-2
1480627876898226,-4,-17,8,2,0,0,0,0
1480627876914770,0,1,-3,-1,-2,-2,0,0
1480627876914770,-2,-8,2,2,1,0,1,-1
1480627876921789,1,9,5,2,1,0,0,1
1480627876921789,0,3,-3,0,0,2,-2,-2
1480627876924297,0,-2,-2,-1,0,-1,0,0
1480627876924297,-4,-9,-2,1,-2,-2,0,-1
1480627876945353,-1,-10,-2,-1,-2,-1,0,-1
1480627876945353,1,2,-5,-1,-1,-1,1,-2
1480627876946855,-2,-3,3,-1,0,0,-1,1
1480627876946855,2,10,-10,-4,-2,-1,-2,-2
1480627876974429,-3,-1,5,1,1,0,0,1
1480627876974429,1,3,-1,-2,-1,-2,-1,0
1480627876975933,-1,-5,-5,-2,-1,0,0,0
1480627876975933,0,-6,-1,0,0,-1,0,0
1480627876982450,2,-1,-2,-1,1,0,0,-1
1480627876982450,6,31,33,5,2,2,2,2
1480627876984456,1,3,-8,-3,-2,-2,-2,-2
1480627876984456,-2,-5,0,0,-2,0,-1,2
1480627877004512,2,7,-14,-4,-3,-2,-2,-2
1480627877004512,-2,-7,-11,-1,1,-2,0,-1
1480627877006013,0,5,-1,-1,-1,-1,-1,-1
1480627877006013,1,-2,6,0,2,2,0,1
1480627877027074,1,1,-1,-2,-2,-2,-2,-1
1480627877027074,1,-3,-7,-2,-2,-1,-2,-2
1480627877028573,-2,-3,2,0,-2,1,-1,-1
1480627877028573,-2,-1,-9,-2,0,-3,-1,-2
1480627877042110,-2,-5,4,1,0,0,0,-2
1480627877042110,-5,-14,-18,-4,-3,-2,-3,-2
1480627877043613,0,0,6,1,1,0,1,1
1480627877043613,1,1,-3,-1,-2,-1,1,0
1480627877065171,-1,-1,3,-2,0,1,0,-1
1480627877065171,-3,-4,-1,0,-3,-3,-1,-2
1480627877066676,2,14,-4,-2,-1,-1,-1,-2
1480627877066676,-1,-7,5,1,0,-1,-2,-1
1480627877086727,1,-2,-2,-1,0,0,-2,-1
1480627877086727,6,8,1,0,0,0,1,0
1480627877088732,-1,-1,-2,-2,-1,-1,-1,1
1480627877088732,0,6,7,0,1,0,1,0
1480627877101768,2,-1,5,1,0,1,0,0
1480627877101768,-2,-4,-2,-1,1,1,0,0
1480627877108289,-3,-8,1,1,1,-1,1,-1
1480627877108289,-3,3,-8,-2,0,-1,-2,-1
1480627877131867,-3,-20,6,3,1,0,0,-1
1480627877131867,-2,-2,-8,-2,0,0,-1,-2
1480627877133853,3,22,24,3,1,2,3,1
1480627877133853,-1,-1,-1,-1,0,0,0,-1
1480627877146887,2,9,-5,-3,-3,-2,-1,-1
1480627877146887,-5,-15,6,3,2,1,1,1
1480627877148391,-1,-13,-5,0,-1,-1,-2,-2
1480627877148391,0,-3,-3,-1,-1,-1,-1,-1
1480627877169451,2,9,6,1,-1,-2,-2,0
1480627877169451,6,17,8,0,1,0,-2,0
1480627877170952,-2,-5,-1,0,0,0,-2,-1
1480627877170952,4,0,4,0,0,0,2,0
1480627877185494,-3,-3,-1,0,0,0,0,-1
1480627877185494,0,0,-6,-2,-2,-1,-1,-1
1480627877186995,-1,-5,-5,-2,-2,0,-1,1
1480627877186995,-3,-3,5,2,-1,2,0,0
1480627877214568,-2,-2,-2,-2,0,1,1,-2
1480627877214568,-1,-1,-4,-2,-2,-2,0,0
1480627877216071,-2,1,-7,-2,-1,0,0,-1
1480627877216071,-2,-5,-2,0,1,-1,-1,-1
1480627877222087,2,6,-10,-3,-2,-1,-3,-1
1480627877222087,-6,-11,-14,-4,-2,-1,-2,-3
1480627877228104,1,13,11,3,-1,0,-1,-1
1480627877228104,0,1,-3,-2,-2,-3,0,0
1480627877252170,1,-4,5,2,1,1,-2,2
1480627877252170,-3,-2,-7,-3,-3,-3,-1,-1
1480627877253672,-7,-17,-7,0,0,0,1,-2
1480627877253672,-6,-13,-10,-2,-1,-1,-1,-3
1480627877267208,2,8,4,0,0,0,0,-1
1480627877267208,2,0,4,0,-1,0,0,-1
1480627877268715,2,1,3,0,0,-3,-1,2
1480627877268715,0,-3,-2,-2,-1,-1,-1,-2
1480627877281245,-5,-12,-4,0,1,1,1,-1
1480627877281245,0,-2,6,1,0,-1,-1,1
1480627877288264,-3,-6,-7,-3,0,0,1,0
1480627877288264,-1,6,-3,-1,0,-2,-2,-1
1480627877304307,-2,-6,12,2,-1,0,0,2
1480627877304307,1,1,2,-1,1,0,1,0
1480627877306313,1,3,0,-1,-1,-2,-1,-2
1480627877306313,4,10,0,-3,-2,-1,-2,0
1480627877326867,-3,-26,48,13,7,6,6,6
1480627877326867,-5,-8,1,2,0,0,-1,1
1480627877328872,-1,-5,-5,-4,-4,-1,0,-2
1480627877328872,1,6,4,-2,-2,0,0,0
1480627877341406,1,9,-16,-5,-3,-4,-2,-3
1480627877341406,5,9,-6,-1,-2,-2,-1,0
1480627877347927,-2,-17,-5,-2,-2,-2,-2,0
1480627877347927,0,1,-1,0,5,2,0,-1
1480627877364467,-4,3,-14,-5,-3,-1,-2,-2
1480627877364467,0,-2,2,-2,-1,0,0,0
1480627877365971,-1,3,-8,-1,-2,-2,-2,-1
1480627877365971,-2,-5,-2,-2,-5,0,0,1
1480627877387027,1,1,-8,-2,-1,-2,-1,0
1480627877387027,1,8,-4,-2,0,0,-3,-1
1480627877388530,0,-2,6,7,6,1,-1,0
1480627877388530,-1,-2,0,-3,-7,-1,0,-2
1480627877417107,0,3,-7,0,0,-3,-1,-2
1480627877417107,-1,3,0,-2,0,0,-1,0
1480627877418611,1,1,1,-2,-2,0,-1,-1
1480627877418611,-1,1,-3,1,3,-1,-2,-1
1480627877432148,1,13,-11,-1,1,0,-2,-2
1480627877432148,9,38,34,3,0,-1,2,1
1480627877433652,-1,-12,3,5,1,-2,0,-2
1480627877433652,-2,-4,-2,-3,0,2,0,1
1480627877447186,-2,3,-2,-3,-6,-3,1,1
1480627877447186,-2,-5,-11,-1,-2,-3,-2,-1
1480627877448691,2,7,-6,-5,2,5,0,-1
1480627877448691,1,7,14,10,3,0,-1,0
1480627877469249,0,-4,-2,-13,-10,-2,-2,0
1480627877469249,-2,-10,-15,-3,-5,-1,-1,-3
1480627877471251,-2,-4,-7,0,-1,-5,-1,0
1480627877471251,-2,-8,-9,-2,-3,-3,-1,-2
1480627877493811,-2,-1,-5,2,2,0,-1,0
1480627877493811,-2,0,-2,0,-1,0,-1,-2
1480627877493811,-1,-15,8,3,5,2,2,-1
1480627877493811,-1,2,0,1,2,0,-1,0
1480627877506845,1,-6,5,4,0,-1,0,-1
1480627877506845,-4,-18,-3,-1,-1,0,0,0
1480627877508851,0,3,-1,-2,-2,-1,-1,0
1480627877508851,0,-2,1,-1,0,-1,-1,0
1480627877520381,4,23,29,5,2,1,0,1
1480627877520381,-5,-7,-5,-4,-4,0,0,-1
1480627877529406,1,6,-1,-2,-3,-3,-2,-2
1480627877529406,-2,-4,6,5,3,2,2,-1
1480627877544445,-3,-4,-13,-13,-10,-2,-1,-1
1480627877544445,0,-2,2,0,0,-2,0,-1
1480627877545950,-7,-5,0,0,1,1,-1,0
1480627877545950,4,-1,16,3,-1,-1,1,0
1480627877567006,-3,-3,-5,3,5,-2,0,-1
1480627877567006,-1,-5,0,4,1,0,-1,-1
1480627877573021,1,-1,-4,-6,-7,1,1,-1
1480627877573021,1,3,-7,1,5,-1,-2,-1
1480627877580541,-1,-7,1,0,0,3,1,0
1480627877580541,-1,1,5,1,2,0,-1,1
1480627877589565,1,7,-2,0,-4,-2,0,-1
1480627877589565,-4,-2,-8,-5,-5,-3,-2,-2
1480627877612627,3,18,-8,1,2,-2,-3,-2
1480627877612627,0,-9,1,1,1,0,0,0
1480627877614131,1,9,8,5,2,-2,-1,0
1480627877614131,0,-1,-5,-3,-7,-1,-1,-1
1480627877627165,8,31,25,3,2,1,1,2
1480627877627165,0,0,-4,0,1,-1,1,-2
1480627877628669,-2,-14,2,1,1,1,1,0
1480627877628669,2,1,3,0,0,0,-1,-1
1480627877640701,-3,-12,-12,0,0,-1,-1,-2
1480627877640701,1,2,-8,-1,-1,-1,-1,0
1480627877649728,0,8,31,9,2,2,2,3
1480627877649728,-1,0,-6,-4,-5,-2,1,-2
1480627877664264,-5,-15,-14,-2,1,1,-1,-1
1480627877664264,-3,-3,-1,-1,-6,-5,-2,-1
1480627877666271,1,-1,-20,-6,1,-2,-2,-4
1480627877666271,0,-7,0,4,0,0,0,1
1480627877686823,-2,-5,-5,-3,2,1,0,-2
1480627877686823,-2,-3,-2,-6,-6,0,-2,1
1480627877688830,1,1,1,-3,-8,-1,-1,-3
1480627877688830,0,13,-4,-3,-1,-2,-2,-3
1480627877709384,-1,-11,-3,-3,2,-2,1,-2
1480627877709384,-4,-22,-25,-1,-4,-4,-3,-2
1480627877710888,1,5,-3,-8,-2,1,2,0
1480627877710888,-4,-4,-3,-1,0,1,0,0
1480627877724425,-6,-4,-11,-1,-2,-1,-2,-1
1480627877724425,0,-1,4,-1,1,2,1,-1
1480627877725929,-4,-10,-13,1,0,-2,-1,-2
1480627877725929,-5,-11,1,0,1,-1,0,-1
1480627877746984,-2,-4,-8,-2,-4,-2,-2,-1
1480627877746984,1,5,5,1,5,4,1,0
1480627877748489,-4,-7,-2,-3,-1,-1,0,3
1480627877748489,1,-3,-1,-3,-2,1,1,0
1480627877760520,0,-4,-3,2,-4,-1,-1,-1
1480627877760520,3,10,5,1,2,-1,-2,-1
1480627877769546,0,2,0,3,0,0,-2,-1
1480627877769546,-2,-12,-39,-14,-5,-4,-3,-3
1480627877784585,-4,-7,9,3,-4,-1,0,0
1480627877784585,-1,0,1,0,4,2,0,0
1480627877786088,1,5,-4,0,2,-2,-2,-1
1480627877786088,-3,-5,-1,-1,0,1,-1,-1
1480627877807144,2,0,1,4,-7,-6,-3,-1
1480627877807144,1,2,5,2,1,0,1,-2
1480627877808650,0,0,-6,-7,-3,-1,-1,-2
1480627877808650,2,14,3,1,1,-1,0,-1
1480627877820680,-1,0,-7,-7,0,1,0,1
1480627877820680,1,11,-6,-2,-7,-3,-3,-4
1480627877830206,4,9,18,11,13,8,4,3
1480627877830206,0,-5,0,-3,-2,0,-1,-2
1480627877844744,2,-1,0,-3,0,-1,-1,1
1480627877844744,2,1,-4,-2,-2,0,-1,0
1480627877850761,-3,-3,-5,3,-2,-4,-1,-1
1480627877850761,-1,-3,6,2,3,2,2,0
1480627877882344,1,4,-1,-6,-3,1,0,-1
1480627877882344,-3,-17,12,3,4,3,2,1
1480627877891870,-3,-4,0,-1,-1,-2,-3,-1
1480627877891870,-1,-5,11,6,2,-1,1,-2
1480627877892371,0,-1,-2,3,1,-3,-3,0
1480627877892371,0,6,-7,-8,-4,-4,-2,-1
1480627877904904,-2,-4,5,-2,2,0,-1,-1
1480627877904904,-1,-2,1,0,-2,-1,0,0
1480627877905906,-1,-2,-1,-1,0,-1,-1,-2
1480627877905906,1,2,-2,0,-2,-4,-3,-2
1480627877908415,-2,-6,-11,-3,-9,-5,-1,-1
1480627877908415,-1,1,2,2,8,4,1,0
1480627877926963,-3,-5,0,1,4,1,2,-3
1480627877926963,-1,0,2,6,3,1,0,0
1480627877928467,3,7,3,0,-1,1,0,0
1480627877928467,0,8,-4,-5,-8,-3,-2,-2
1480627877950024,1,9,-2,-2,2,2,0,0
1480627877950024,-3,-4,0,2,-1,-2,1,1
1480627877965066,-1,-1,-9,-19,0,0,0,-2
1480627877965066,-2,2,7,15,0,-2,-2,2
1480627877967071,1,1,-3,2,2,2,1,1
1480627877967071,-1,-13,3,-2,-3,-2,-2,0
1480627877968578,-1,-2,-4,-4,-2,-3,-1,-2
1480627877968578,0,5,7,6,2,0,0,-1
1480627877987126,-1,-4,-1,-4,-6,-3,-2,-1
1480627877987126,2,1,-2,-6,2,0,0,2
1480627877988628,4,3,7,12,4,1,0,0
1480627877988628,-5,-16,-8,-16,-11,-2,-2,0
1480627878009182,-1,-4,-2,-2,0,-1,0,0
1480627878009182,3,6,9,13,0,0,2,1
1480627878011187,-3,-6,-12,-8,-6,-2,-2,-2
1480627878011187,3,8,-1,-1,1,-1,-2,0
1480627878023720,-1,-6,2,0,3,0,2,0
1480627878023720,-4,-5,0,-2,-2,1,-2,-1
1480627878030739,4,9,-3,-4,1,2,0,0
1480627878030739,0,3,6,14,0,-4,-3,-1
1480627878047283,-2,-1,1,-4,-4,-1,-1,0
1480627878047283,2,5,1,-1,4,2,-1,0
1480627878053299,4,17,-7,-3,-4,-3,-2,-3
1480627878053299,-3,-6,0,-8,0,0,1,-1
1480627878069343,-1,2,0,8,1,0,-1,0
1480627878069343,5,6,21,1,-1,1,2,2
1480627878071348,-3,-1,-3,1,2,3,0,-1
1480627878071348,0,-2,-4,-3,-5,-5,-2,-1
1480627878083880,2,2,9,4,2,0,1,0
1480627878083880,-3,-4,-21,-11,-3,0,-1,-3
1480627878090398,1,3,18,6,4,-1,1,1
1480627878090398,0,0,0,-4,-1,3,2,2
1480627878106942,-1,1,-10,3,-1,-1,0,-2
1480627878106942,-5,-10,2,-2,1,1,0,0
1480627878108446,-1,-6,2,15,-2,-3,-1,-1
1480627878108446,-1,-1,-5,-16,-1,-2,-1,0
1480627878129502,1,5,-3,-2,1,-2,0,2
1480627878129502,0,5,4,10,-1,-4,-2,-1
1480627878131006,-1,-8,-13,-35,-2,1,0,3
1480627878131006,-8,-14,10,32,2,1,0,0
1480627878143539,1,-2,-4,-13,-2,1,1,1
1480627878143539,-3,-2,5,9,3,1,0,-1
1480627878158078,3,13,21,5,0,1,1,0
1480627878158078,4,10,-16,-25,-1,0,-1,-1
1480627878167102,0,9,-7,-7,-6,-2,-2,-1
1480627878167102,0,7,14,18,1,-1,0,0
1480627878168608,-2,-9,-5,-1,-4,-2,0,1
1480627878168608,-4,-15,-18,-9,2,0,-1,-2
1480627878189662,-1,2,5,-1,0,-2,1,-2
1480627878189662,0,-3,-14,-9,-2,-2,0,0
1480627878191170,-2,-2,-11,-4,-2,-1,0,-1
1480627878191170,2,-1,2,-5,2,2,1,1
1480627878203705,-2,-15,1,0,-4,-3,-1,2
1480627878203705,-2,-2,2,9,1,0,-1,-1
1480627878210718,-4,-14,6,27,2,-2,-3,0
1480627878210718,2,8,12,10,2,0,1,-1
1480627878226761,0,-4,-9,-23,1,1,-1,0
1480627878226761,-11,-21,-4,-8,-8,2,3,-1
1480627878228766,-1,-2,-2,-7,0,-1,-1,-1
1480627878228766,3,9,42,5,1,2,1,3
1480627878249822,-5,-15,13,25,5,2,0,-2
1480627878249822,4,2,-21,-22,-1,-2,-2,-1
1480627878251831,-7,-16,-11,4,0,-2,-1,-4
1480627878251831,2,4,-4,1,-11,-2,-1,-2
1480627878263859,-1,-1,-6,5,7,2,0,-2
1480627878263859,2,6,7,-6,-4,-2,-2,1
1480627878270880,-1,-11,5,11,3,2,-1,0
1480627878270880,-1,0,-11,-6,-1,-1,0,-1
1480627878285918,2,4,1,-8,-4,-2,1,0
1480627878285918,-7,-7,-6,17,2,3,-1,-1
1480627878294440,0,7,-4,-7,-2,-1,0,0
1480627878294440,3,3,0,7,2,-1,-1,-1
1480627878309481,-1,-3,-2,-6,-9,-1,0,2
1480627878309481,7,12,0,-4,-5,-6,-1,-3
1480627878310985,-6,-14,7,-1,13,11,4,3
1480627878310985,-8,-12,1,3,2,0,0,-2
1480627878324019,-9,-21,-39,-16,-4,-5,-3,-3
1480627878324019,3,15,10,12,2,-3,-3,-1
1480627878330537,4,30,-9,2,-8,-4,-3,-4
1480627878330537,2,5,6,0,2,2,1,2
1480627878347080,3,5,-11,-24,-1,1,-2,-2
1480627878347080,-1,-4,13,30,2,0,0,1
1480627878348584,2,6,-5,-3,-2,-3,0,-2
1480627878348584,-1,0,-17,0,-4,-4,-3,-3
1480627878369642,2,6,9,8,0,1,0,0
1480627878369642,3,7,-3,-16,-1,2,-1,1
1480627878371145,-2,-5,1,-2,5,0,0,0
1480627878371145,0,0,2,3,1,-2,-1,-1
1480627878391699,-2,-4,10,10,-2,-2,-2,1
1480627878391699,-2,-4,-4,-6,4,2,1,-1
1480627878393705,-1,-6,-5,-7,-12,-3,-2,0
1480627878393705,-1,-4,-8,-14,-5,-2,0,-1
1480627878415763,7,14,6,15,8,0,1,0
1480627878415763,0,-1,-8,-9,-3,-2,-1,-1
1480627878417268,-1,-3,-8,-1,-5,-4,-1,-2
1480627878417268,-2,2,31,4,0,1,3,4
1480627878429300,5,6,2,-11,-4,0,-1,-1
1480627878429300,2,2,3,7,1,-3,-1,0
1480627878431306,0,-4,2,15,0,-2,-2,-1
1480627878431306,1,-2,-15,-3,-1,1,-2,-2
1480627878442835,-2,1,1,2,-1,0,1,1
1480627878442835,-3,-6,-6,-19,1,2,2,2
1480627878452361,1,2,14,-3,-3,0,0,2
1480627878452361,-8,-33,-4,10,7,1,1,1
1480627878467401,0,0,7,7,8,2,1,-1
1480627878467401,-3,-5,-21,-32,-12,-2,-1,-4
1480627878469408,-2,-3,7,27,2,-1,-2,-1
1480627878469408,2,9,-8,-12,-9,-3,-2,-2
1480627878489960,-2,-3,-4,-12,10,0,-1,1
1480627878489960,-3,-7,6,18,-10,-3,-3,-2
1480627878491466,3,4,-4,7,5,4,-1,0
1480627878491466,2,3,0,-13,0,3,0,2
1480627878502995,-5,-11,2,18,-6,-5,-1,-1
1480627878502995,2,0,1,-16,5,3,1,3
1480627878519539,-1,-3,-4,-20,-6,-3,-1,-2
1480627878519539,4,7,-5,14,3,-2,-1,-2
1480627878527060,1,5,4,0,-1,1,1,0
1480627878527060,-6,-18,-30,-5,-1,-2,-2,-3
1480627878529566,-6,-14,12,1,5,1,-1,0
1480627878529566,-1,8,-8,-2,-7,-1,-3,-2
1480627878550622,1,3,1,-2,-4,0,-2,-1
1480627878550622,0,-4,7,-2,-1,-2,0,-1
1480627878551625,2,3,-6,4,2,0,-1,0
1480627878551625,0,15,-8,-5,-3,-4,-3,-5
1480627878579699,-2,-5,2,0,-11,-3,-2,0
1480627878579699,0,10,13,4,2,1,0,2
1480627878581204,5,8,1,0,8,-1,0,1
1480627878581204,1,2,-11,-20,5,5,1,0
1480627878587221,1,2,12,31,-6,-1,-1,-1
1480627878587221,3,4,-6,-20,3,1,0,1
1480627878588724,-6,-6,4,10,-13,-4,-1,0
1480627878588724,-1,-3,-6,-4,4,-2,-2,1
1480627878609280,-4,-6,-5,-10,1,1,-2,1
1480627878609280,-1,3,-3,-2,-1,1,1,0
1480627878611283,0,4,-9,-21,-1,0,1,-1
1480627878611283,0,-2,6,12,-1,0,-2,0
1480627878623315,0,-15,-1,-3,0,1,0,3
1480627878623315,-1,-6,-18,3,-2,-1,-2,-4
1480627878632340,-2,7,-2,-6,-2,-1,0,-2
1480627878632340,-1,1,7,2,-1,-2,1,2
1480627878647379,0,7,-3,-1,-2,0,-1,-1
1480627878647379,0,-1,-4,8,5,-1,0,-2
1480627878652894,1,-4,-3,-7,-6,-4,-1,0
1480627878652894,-2,-4,0,1,-3,-2,0,1
1480627878669441,-3,4,1,6,1,0,-2,-2
1480627878669441,1,1,3,-14,1,1,0,1
1480627878670942,6,16,14,-3,0,3,2,-1
1480627878670942,0,-6,3,24,-2,-1,0,-1
1480627878692500,-2,-1,2,9,3,0,1,0
1480627878692500,-1,0,-2,-24,-2,-1,-3,-1
1480627878694003,-5,-8,-2,16,-5,-3,-2,-3
1480627878694003,-1,-2,-8,-9,3,3,1,-1
1480627878714558,-2,-2,1,-3,-5,0,-1,-3
1480627878714558,-3,1,9,19,2,-1,0,-1
1480627878716062,2,-1,-11,-25,0,2,0,0
1480627878716062,-3,0,-2,-5,-3,-1,-2,0
1480627878729598,1,-3,8,10,-1,-1,0,0
1480627878729598,-9,-11,0,-5,2,3,-1,1
1480627878731102,-3,-5,1,12,0,-1,0,0
1480627878731102,-1,0,0,-3,-2,1,0,-1
1480627878752160,4,10,-9,-34,-3,1,-1,-1
1480627878752160,6,10,5,20,-2,-4,-3,-1
1480627878754165,-4,0,0,2,-6,-2,1,1
1480627878754165,2,-8,9,17,11,3,1,1
1480627878774720,1,8,-3,-7,-9,-2,-1,-1
1480627878774720,2,-5,1,7,17,6,1,-1
1480627878776223,-5,-12,-14,-18,2,1,-1,-2
1480627878776223,2,10,14,29,-5,-4,-1,-1
1480627878789256,-1,4,-5,-9,-1,0,-1,0
1480627878789256,0,-1,-3,0,-8,-2,-2,0
1480627878791263,-2,-2,2,-1,1,-3,-1,0
1480627878791263,-5,-10,-7,-15,-2,-2,0,-2
1480627878803296,1,1,0,8,9,5,1,1
1480627878803296,-3,-6,8,9,-7,-4,0,-3
1480627878812319,0,1,0,-6,4,4,-1,0
1480627878812319,-7,-4,-5,9,-10,-6,-4,-4
1480627878834378,-3,-3,10,21,-6,-4,-1,1
1480627878834378,7,14,8,6,5,1,0,1
1480627878835885,3,7,0,-9,-9,-3,0,-1
1480627878835885,1,5,-6,-22,1,1,-1,0
1480627878849417,-1,-3,-3,-7,5,0,0,-3
1480627878849417,0,-6,-10,-4,-5,-2,-2,0
1480627878850921,-8,-22,-25,2,-2,0,-1,-3
1480627878850921,1,8,3,-8,-4,-4,-1,-2
1480627878871978,-4,-29,-6,-8,-7,-1,0,0
1480627878871978,0,5,2,12,-1,-3,0,0
1480627878873481,4,6,8,-4,10,4,2,0
1480627878873481,0,-2,0,-14,-2,1,0,0
1480627878887017,-2,6,1,17,-1,-3,-4,-1
1480627878887017,-6,-4,3,4,-2,0,2,-1
1480627878889524,0,-3,-2,-7,-1,-2,-2,0
1480627878889524,1,-2,-4,2,-6,-2,0,0
1480627878910078,3,2,5,-4,6,3,-1,-2
1480627878910078,-2,-5,-8,-12,-2,0,1,2
1480627878911583,-3,-4,12,17,8,3,1,2
1480627878911583,-5,-9,-6,-4,2,2,-1,-2
1480627878932639,-3,-3,-12,-7,0,-1,0,-3
1480627878932639,0,6,0,-5,-5,-2,-2,-2
1480627878939658,-2,-7,2,7,-5,-5,-2,-1
1480627878939658,5,4,-1,-8,3,3,1,0
1480627878947177,-3,-5,3,2,3,-1,-1,1
1480627878947177,2,7,0,1,7,0,0,-1
1480627878948681,2,10,5,-7,-1,1,1,-1
1480627878948681,-5,-24,-4,14,-2,-2,-1,1
1480627878969737,-8,-28,-34,-12,-10,-7,-4,-3
1480627878969737,0,8,-2,9,-4,-4,-1,-2
1480627878971241,2,-5,-3,-8,-6,0,-2,0
1480627878971241,3,4,0,-26,3,2,0,1
1480627878991796,-1,0,-7,-9,0,0,0,0
1480627878991796,2,-1,-1,-4,-1,-2,-2,-1
1480627878999819,1,3,5,5,1,-2,1,-3
1480627878999819,-2,-5,-5,3,1,-1,0,-2
1480627879006836,2,9,15,1,-7,0,0,-1
1480627879006836,1,-3,-4,-6,6,2,0,1
1480627879014857,-2,7,3,-3,-4,-4,-1,-1
1480627879014857,-1,0,4,2,4,0,-1,-1
1480627879029396,4,6,6,11,3,3,2,1
1480627879029396,-6,-21,17,7,-1,0,0,2
1480627879030901,-1,0,-12,-8,-4,-1,-3,-2
1480627879030901,2,4,-2,-1,-1,-1,-2,1
1480627879051957,1,10,-9,-6,-1,0,-2,-1
1480627879051957,-2,-1,13,15,-2,1,1,1
1480627879053460,-5,-3,-7,-1,4,0,-1,-3
1480627879053460,-7,-27,1,-8,-3,0,1,2
1480627879082036,-3,-5,-8,19,7,-2,-3,-5
1480627879082036,9,32,34,4,-8,0,1,1
1480627879083540,1,-9,0,-4,-1,-1,-2,-1
1480627879083540,-4,3,6,13,6,5,0,0
1480627879090057,2,4,-13,-22,-3,0,1,2
1480627879090057,0,-3,-8,5,-1,-2,-3,-3
1480627879095571,2,7,-4,-1,-7,-2,-3,0
1480627879095571,6,14,6,3,-4,-3,0,-1
1480627879112618,-5,-7,9,9,2,3,3,1
1480627879112618,0,-11,-5,-12,0,0,0,0
1480627879114623,6,25,-3,-11,0,0,-1,1
1480627879114623,4,5,0,7,1,-2,-1,0
1480627879135179,3,12,-1,-9,2,2,1,1
1480627879135179,-6,-8,-1,1,-8,-2,-2,-3
1480627879136682,-6,-12,-7,-1,7,-1,0,-1
1480627879136682,6,4,-6,-15,-16,-3,-1,-2
1480627879150217,-3,10,20,1,6,1,2,0
1480627879150217,-10,-32,-7,18,2,0,0,-1
1480627879152724,1,3,11,18,-2,-1,0,0
1480627879152724,2,14,10,-8,2,-1,1,2
1480627879171774,-3,-33,-13,-9,-3,-3,-1,0
1480627879171774,-5,-2,-28,-28,-8,-4,-2,-4
1480627879185815,5,6,-3,-4,1,2,-1,1
1480627879185815,-4,-11,9,20,7,1,1,0
1480627879194334,2,5,-20,-15,-4,-2,-1,-1
1480627879194334,4,8,-4,-6,0,0,1,3
1480627879195838,-3,-7,9,18,-3,0,1,0
1480627879195838,1,-1,-4,-2,1,-2,0,1
1480627879209374,-1,9,3,-4,3,0,-1,-2
1480627879209374,0,4,-7,-18,-2,-1,0,-2
1480627879210878,0,3,7,19,0,-2,0,1
1480627879210878,-2,11,-17,-4,-3,-1,-3,-4
1480627879231936,-2,4,18,13,1,-2,0,1
1480627879231936,5,13,4,-6,-1,1,1,0
1480627879233943,10,16,37,-3,1,1,-1,3
1480627879233943,-12,-5,-4,4,-1,-2,-3,-4
1480627879246474,-4,-4,12,26,-3,0,0,-1
1480627879246474,6,9,-13,-20,7,3,-1,1
1480627879252991,1,-1,-8,17,-8,-4,-1,1
1480627879252991,-4,-9,-13,-9,2,-1,-2,-2
1480627879269538,3,10,18,1,2,3,1,1
1480627879269538,3,-1,-14,-4,-13,0,0,-1
1480627879271039,-8,-13,-18,-21,10,0,-1,-5
1480627879271039,-1,-8,0,1,-8,-1,-1,2
1480627879293097,-3,-8,-7,8,1,-4,-3,-3
1480627879293097,6,29,9,-6,5,2,1,2
1480627879295103,1,-3,-21,-14,-10,-6,-3,-1
1480627879295103,2,-1,-6,4,-3,-2,-2,-2
1480627879305634,-6,-2,-1,-24,3,1,0,-3
1480627879305634,-2,3,-8,5,-6,-3,-1,-1
1480627879330698,-8,-11,4,4,-1,-4,-1,-3
1480627879330698,11,36,47,22,0,1,4,6
1480627879331701,3,-1,2,-25,2,0,0,3
1480627879331701,-6,-10,-5,8,-7,-5,-4,-6
1480627879333206,3,-4,-9,-10,9,7,4,2
1480627879333206,-3,-8,-9,-4,0,-2,-1,-2
1480627879352255,4,4,4,33,-6,-8,-3,0
1480627879352255,5,6,16,-3,8,2,2,3
1480627879353759,0,-2,2,7,-4,-4,-3,-2
1480627879353759,-2,-12,-2,-16,0,1,1,-1
1480627879381833,2,3,-10,-3,-5,0,0,-2
1480627879381833,-6,-15,-5,1,6,0,-2,-1
1480627879391861,3,8,0,13,-3,0,-1,-1
1480627879391861,1,1,-9,-33,-2,1,1,-1
1480627879392362,-3,0,4,30,-1,-3,-1,-2
1480627879392362,4,13,5,5,2,-1,0,0
1480627879402892,-4,-9,3,-12,1,3,1,0
1480627879402892,-3,1,-4,-1,-1,0,-1,-2
1480627879411914,0,-2,-7,-6,-1,0,1,0
1480627879411914,-3,-2,1,1,1,0,0,-1
1480627879413919,-3,-14,-20,3,-4,-3,-1,-2
1480627879413919,4,9,14,-6,2,0,-1,1
1480627879425450,2,5,-12,-18,-2,-1,-1,1
1480627879425450,-4,-10,10,22,2,0,0,-2
1480627879440489,-3,-4,-18,-24,-5,-1,0,-2
1480627879440489,0,-10,-1,29,2,-2,0,-1
1480627879450015,3,6,2,-13,0,1,0,0
1480627879450015,-5,-8,3,0,0,0,-1,1
1480627879455529,2,8,9,4,5,1,1,0
1480627879455529,2,0,-8,0,1,1,0,1
1480627879472076,-7,-8,10,-5,-4,-2,0,-1
1480627879472076,2,-3,1,18,3,-1,0,3
1480627879473579,-5,1,-7,-18,-4,0,-2,-11
1480627879473579,-6,-7,4,9,1,-1,-3,-4
1480627879485609,0,-10,-16,-12,-3,0,-1,4
1480627879485609,5,16,-7,-2,-1,-1,-2,-1
1480627879494635,5,11,6,6,0,0,0,2
1480627879494635,-4,-5,-13,-26,-2,0,0,0
1480627879509674,0,2,15,31,2,-2,-4,-5
1480627879509674,-3,4,1,13,-2,-2,-1,-1
1480627879511177,0,-4,4,-5,-3,0,0,2
1480627879511177,-2,-2,-9,-10,-1,-4,-2,-2
1480627879539253,2,5,-2,-14,-1,0,1,0
1480627879539253,-2,-10,2,6,-4,-2,-3,-2
1480627879547775,2,4,-2,-21,1,0,-1,2
1480627879547775,-3,-8,3,17,-2,0,1,-1
1480627879548777,-2,-2,-1,3,3,0,-1,1
1480627879548777,-3,-10,0,-14,-4,0,0,0
1480627879554794,-3,-3,-1,-7,0,1,3,1
1480627879554794,-11,-52,-23,1,-1,0,-1,-3
1480627879569338,1,8,5,22,-1,-1,-4,0
1480627879569338,-7,-24,-4,-20,3,3,1,0
1480627879571341,-3,5,-5,15,-3,-4,-3,-3
1480627879571341,3,10,4,2,-2,-1,0,1
1480627879598410,1,-2,-2,-9,2,2,1,0
1480627879598410,1,-3,-1,-5,-1,-2,-1,0
1480627879607935,-5,-11,-3,-1,1,1,-1,0
1480627879607935,2,12,14,35,7,0,0,-1
1480627879608436,-5,-13,-24,-44,-15,-1,0,-2
1480627879608436,-1,-4,5,10,3,1,0,2
1480627879621972,1,1,12,-1,-2,-2,-1,2
1480627879621972,2,6,2,4,0,0,0,0
1480627879637012,2,0,3,-3,5,2,0,1
1480627879637012,0,2,-4,11,3,-2,-1,-1
1480627879638516,-1,-1,0,-5,-1,-1,0,1
1480627879638516,0,4,6,14,1,-2,-1,-1
1480627879652057,0,3,-2,-6,-2,1,1,0
1480627879652057,-1,1,-1,-6,-3,-1,0,-1
1480627879653557,-1,0,-1,6,0,-2,-2,-2
1480627879653557,7,22,11,-14,0,2,0,2
1480627879665589,1,0,4,6,-1,-2,0,-1
1480627879665589,-1,1,-9,-7,1,0,-2,-2
1480627879690656,2,6,-5,7,4,-2,-2,-1
1480627879690656,0,7,-16,-23,-8,-1,-1,-2
1480627879691658,-8,-16,-8,16,2,-3,1,-3
1480627879691658,3,7,5,-10,-4,0,1,2
1480627879693164,2,-2,-4,-5,-5,-2,1,-1
1480627879693164,-1,3,-3,-7,-2,-3,-3,-3
1480627879711711,4,0,-2,-23,-1,0,1,2
1480627879711711,-6,-5,23,64,3,-4,-2,-4
1480627879719733,-3,-7,-8,-11,-5,-1,0,0
1480627879719733,-1,-1,1,-5,-1,0,0,1
1480627879734271,1,1,0,-8,2,-1,1,1
1480627879734271,1,4,-12,-32,-3,-3,-1,1
1480627879736281,4,10,10,30,5,1,-1,0
1480627879736281,-3,-1,5,2,1,2,0,0
1480627879749311,0,5,-3,1,-1,-5,-3,-1
1480627879749311,-4,-15,-20,-16,-7,-1,-3,-3
1480627879751320,-1,0,3,9,4,3,0,0
1480627879751320,-3,-7,-8,-4,6,-1,-1,-2
1480627879780394,3,1,4,1,-9,-1,3,2
1480627879780394,-2,1,-2,-6,-1,-1,0,1
1480627879781898,-4,4,-7,-7,-16,-6,-4,-5
1480627879781898,8,0,19,12,25,12,4,5
1480627879818496,-6,-7,2,5,7,3,-3,-3
1480627879818496,2,1,-4,-5,3,0,1,-1
1480627879819999,-1,6,4,-1,-1,0,-1,1
1480627879819999,3,11,-1,-1,-21,-11,-3,-1
1480627879820500,3,8,4,17,9,2,-1,0
1480627879820500,-6,-7,0,-5,-2,0,-1,-1
1480627879834037,-3,-8,-11,-9,-5,-1,-2,-3
1480627879834037,2,1,-6,2,0,-3,0,-1
1480627879835039,-3,-7,-19,-16,-8,-4,-4,-4
1480627879835039,1,8,4,1,-2,-1,-1,-3
1480627879845567,-3,-9,3,14,6,1,1,4
1480627879845567,1,0,10,-9,3,3,0,1
1480627879854591,2,8,-5,-8,-6,-1,0,0
1480627879854591,-3,-10,-4,25,-5,-6,-1,-2
1480627879856095,-2,-13,-24,-8,4,-1,-1,-2
1480627879856095,6,9,0,0,1,6,2,2
1480627879876148,2,3,10,-3,7,0,-1,0
1480627879876148,2,6,6,19,-2,-1,-1,2
1480627879885180,-4,7,-6,-43,-4,-1,-2,-2
1480627879885180,0,-2,-17,15,0,-2,-3,-5
1480627879899210,0,6,5,-1,1,-1,-1,-2
1480627879899210,-1,6,6,4,0,0,1,0
1480627879901216,-2,-8,16,12,4,0,0,1
1480627879901216,-3,-6,-4,-5,-3,-2,-1,-1
1480627879914751,2,-4,5,1,0,0,1,1
1480627879914751,-3,-12,-12,-19,-1,1,1,-2
1480627879920767,0,-5,13,12,3,1,1,2
1480627879920767,-3,-6,-11,-13,-7,-3,-2,-2
1480627879928788,-4,-6,2,10,-1,-2,-1,2
1480627879928788,5,6,3,-14,2,1,0,1
1480627879935809,-1,2,-2,1,-2,-1,0,-1
1480627879935809,-5,-8,-3,-25,-4,-2,-1,0
1480627879952852,-4,-3,6,44,-1,-3,-2,-2
1480627879952852,3,6,1,-21,4,1,1,2
1480627879954357,4,8,5,1,1,1,-1,0
1480627879954357,-8,-10,-3,7,-3,-5,-1,-3
1480627879974409,-2,-2,-4,-24,2,3,0,1
1480627879974409,4,0,-3,-3,1,1,0,-2
1480627879975914,3,4,4,7,-5,-2,1,-1
1480627879975914,-3,0,-1,-12,-1,0,0,-1
1480627879988949,0,-5,0,3,1,2,0,-1
1480627879988949,-4,-2,2,9,0,0,-2,-1
1480627879995466,-2,1,-3,7,-1,-1,-1,-2
1480627879995466,-8,-26,0,-4,-3,-1,-1,1
1480627880012011,6,27,29,8,4,2,3,3
1480627880012011,1,-8,1,-13,-1,0,0,3
1480627880013514,2,-2,-3,-1,0,0,2,4
1480627880013514,6,20,8,19,-2,-3,-1,-4
1480627880036076,-4,-12,-24,-25,-2,-3,-2,-4
1480627880036076,1,10,-6,-13,-6,-2,-3,-4
1480627880037578,-3,-2,10,13,3,3,1,0
1480627880037578,1,-1,-1,0,0,-2,0,1
1480627880048607,-3,-3,-5,12,-4,-2,-1,-3
1480627880048607,3,4,-4,-8,1,1,1,0
1480627880055625,0,-4,-13,-12,-4,-3,-1,-1
1480627880055625,-1,1,3,14,4,2,-1,0
1480627880086710,-5,-6,3,7,2,1,0,-3
1480627880086710,1,8,6,-28,-3,1,1,3
1480627880104256,-1,-6,3,34,-2,-4,-1,-3
1480627880104256,3,3,-4,-4,1,-1,1,0
1480627880104757,2,3,8,1,1,2,1,2
1480627880104757,-1,-6,-3,3,0,-2,0,0
1480627880109269,-1,-13,2,-22,-1,3,3,2
1480627880109269,-1,5,1,7,2,-3,-1,-3
1480627880110272,-3,0,-9,2,-4,0,-2,-1
1480627880110272,2,0,1,3,-1,-2,-1,-2
1480627880115786,0,3,1,-5,6,2,0,-1
1480627880115786,-3,-3,-4,0,-4,0,0,1
1480627880139348,1,2,-2,-6,1,-3,-1,-1
1480627880139348,-1,-2,1,13,2,0,0,-2
1480627880140853,-13,-21,-23,5,-2,-2,-4,-4
1480627880140853,0,1,-1,-10,8,4,2,0
1480627880154889,-5,-26,2,3,0,0,1,1
1480627880154889,-2,-2,-8,-6,-3,0,1,0
1480627880156393,1,3,4,10,4,0,0,-1
1480627880156393,2,3,-2,-14,-5,-3,-2,1
1480627880168930,2,-1,13,11,3,1,1,1
1480627880168930,-2,-8,-8,7,-3,-2,0,-1
1480627880175446,2,3,5,-10,-3,-1,-1,0
1480627880175446,1,3,-2,1,-4,-2,-1,-1
1480627880191988,6,10,0,-8,2,1,-3,0
1480627880191988,-4,-2,2,7,3,3,-1,1
1480627880193493,5,15,1,-5,-3,-2,0,0
1480627880193493,-4,-13,14,15,-4,-2,0,-1
1480627880214549,-1,0,-14,-9,-1,-2,0,0
1480627880214549,-3,-5,-1,-8,-3,-1,-2,-2
1480627880216053,0,5,4,7,1,-1,0,-1
1480627880216053,2,2,-6,-10,-2,1,-1,-3
1480627880228587,-2,-1,2,4,-2,0,0,-1
1480627880228587,-6,-25,-25,-3,-3,-4,-3,-2
1480627880235608,-1,2,-3,-14,-5,0,-1,0
1480627880235608,1,-2,-4,4,1,1,0,1
1480627880252149,1,0,0,1,1,-1,-1,-1
1480627880252149,2,2,-8,-12,1,1,0,0
1480627880253653,0,1,3,4,-3,-4,-2,-1
1480627880253653,-1,0,3,7,3,-2,0,-1
1480627880275212,0,5,-14,-8,-11,-3,-1,-2
1480627880275212,-1,-2,1,5,2,-1,-2,-1
1480627880276714,-2,-22,16,3,2,1,1,1
1480627880276714,-4,-2,-1,-4,0,0,0,-1
1480627880288244,-1,0,-3,-2,0,-1,-1,-1
1480627880288244,2,12,7,5,2,2,-2,-3
1480627880304789,3,6,-1,-8,-3,1,-1,2
1480627880304789,-3,-11,-3,1,-1,-2,-1,-1
1480627880311807,-1,0,-2,-2,1,-1,0,0
1480627880311807,1,6,9,6,-1,-1,1,0
1480627880313311,-3,1,-12,-14,0,2,0,-3
1480627880313311,0,4,0,4,0,-1,-1,-2
1480627880334367,-1,3,2,4,3,0,0,0
1480627880334367,1,4,8,5,-2,-2,-1,0
1480627880341888,1,7,2,0,0,0,1,-1
1480627880341888,4,6,-5,-7,-1,0,1,0
1480627880347916,-3,-16,-18,-4,-2,-3,-4,-3
1480627880347916,-2,-13,8,14,4,0,0,1
1480627880387508,-2,-6,-2,-2,0,0,0,-2
1480627880387508,-2,1,-8,-9,-5,-2,-2,-1
1480627880388512,2,2,8,5,0,-1,-1,0
1480627880388512,-2,2,-14,-6,0,-2,1,0
1480627880390015,0,6,-2,-2,1,-2,-2,0
1480627880390015,1,6,-4,0,-4,0,-1,0
1480627880402055,-3,-5,-2,-6,-2,-1,-1,-1
1480627880402055,1,4,2,1,-3,0,0,-1
1480627880403552,2,-3,10,4,1,2,2,4
1480627880403552,-8,-4,-6,3,-1,-2,-4,-12
1480627880417589,3,1,11,0,5,2,2,2
1480627880417589,1,4,6,-10,-4,-1,1,0
1480627880423103,-2,0,-2,15,2,-2,-3,-2
1480627880423103,2,-3,-5,-13,0,0,0,4
1480627880432128,-2,0,4,1,-4,-2,-2,-1
1480627880432128,1,-2,-1,4,0,1,1,0
1480627880433632,-6,-26,-12,-8,-4,-3,-1,1
1480627880433632,-3,-6,1,-7,2,-1,0,-1
1480627880454688,-2,-13,4,0,-8,-2,1,-1
1480627880454688,4,10,1,5,8,1,0,0
1480627880456693,-5,-3,-5,-8,-6,0,0,-2
1480627880456693,1,1,4,8,-2,1,3,2
1480627880468226,1,15,-9,-18,-3,-1,-1,-3
1480627880468226,-1,-2,3,11,-4,-1,-1,0
1480627880477248,4,8,1,2,1,-3,-1,-1
1480627880477248,1,5,7,-2,2,0,1,-1
1480627880491786,0,4,-3,-4,1,0,0,2
1480627880491786,-2,2,0,1,0,0,-2,-3
1480627880493793,4,14,-8,-14,0,0,-1,-1
1480627880493793,0,0,12,20,-3,-3,-1,1
1480627880514347,-2,-3,-2,3,1,0,0,-3
1480627880514347,1,-1,2,-6,-3,-3,0,4
1480627880516352,0,-1,-4,-2,0,-1,0,-3
1480627880516352,-7,-29,-8,-2,-2,0,1,0
1480627880536907,-7,-28,7,3,1,0,1,-1
1480627880536907,2,1,-12,-5,-3,-1,-2,-4
1480627880538411,12,38,6,-12,-1,-1,0,1
1480627880538411,-2,6,12,16,3,1,-1,-3
1480627880551948,-3,1,-28,-28,-5,1,-3,-3
1480627880551948,-1,1,-1,8,-6,-6,-4,-2
1480627880553450,-8,-15,-8,0,-1,0,0,-1
1480627880553450,5,14,4,11,9,-1,-1,-1
1480627880574507,9,9,0,5,-2,2,7,13
1480627880574507,-3,-2,1,-13,8,1,-3,-5
1480627880576011,-4,-2,2,4,-8,-3,0,-1
1480627880576011,2,12,-3,-27,6,5,0,4
1480627880588042,0,13,12,27,1,-3,-2,-9
1480627880588042,-1,0,-3,-15,-2,-3,-1,-1
1480627880598072,3,4,6,18,-7,-2,0,0
1480627880598072,2,5,-14,-20,-4,0,0,2
1480627880612106,-5,-4,-4,0,5,-1,-2,-1
1480627880612106,-4,-9,1,-1,-1,2,2,2
1480627880613611,2,-8,0,-13,2,0,-2,-3
1480627880613611,4,-1,5,13,-4,-1,-1,-1
1480627880634667,2,6,3,-1,-2,-2,-1,-2
1480627880634667,-4,-6,-1,2,3,1,2,-2
1480627880636171,-5,-9,5,6,0,1,-2,0
1480627880636171,0,-7,-6,-1,-4,-3,-3,-2
1480627880648202,-3,-2,6,4,1,0,-2,0
1480627880648202,0,3,-1,-13,-3,-1,2,0
1480627880663242,3,2,-3,0,2,0,0,-1
1480627880663242,1,4,10,4,-1,-3,2,1
1480627880671766,-1,-3,4,12,2,-1,-1,-4
1480627880671766,3,0,2,-1,-1,-1,0,2
1480627880678282,-1,1,-1,-1,1,-1,-1,-1
1480627880678282,-5,-9,-5,-6,-2,-3,-2,-5
1480627880694325,1,-2,1,-8,-3,-1,1,1
1480627880694325,-1,0,4,8,-1,-1,0,-1
1480627880695830,-1,-4,3,3,2,-1,0,2
1480627880695830,0,4,-10,-5,-3,-2,-1,-2
1480627880716886,2,-8,8,0,-1,0,-3,1
1480627880716886,1,3,-8,0,0,0,1,1
1480627880718393,-6,-3,-6,-7,2,2,2,-4
1480627880718393,1,-20,8,5,1,1,1,5
1480627880731926,-8,0,-4,-1,-5,-4,-2,-12
1480627880731926,1,2,3,-5,0,2,1,4
1480627880733432,-4,-8,2,-2,1,0,1,4
1480627880733432,-6,-16,4,5,0,0,0,2
1480627880754485,-5,-2,3,9,2,0,0,-9
1480627880754485,-7,-35,-34,-20,-4,-1,-1,-3
1480627880755990,0,10,15,23,1,-2,-2,-3
1480627880755990,1,1,-13,-5,-1,1,-1,-2
1480627880777045,1,1,-11,-19,-2,-1,0,5
1480627880777045,0,1,1,-1,-1,0,0,-1
1480627880778550,0,0,0,5,-3,-3,-2,-2
1480627880778550,-1,14,4,8,1,-2,-1,-2
1480627880791082,-1,2,-7,6,0,0,-1,1
1480627880791082,0,8,0,-8,0,-1,0,0
1480627880801612,2,4,-1,-3,4,3,1,0
1480627880801612,1,5,3,12,0,-3,-1,-1
1480627880815146,0,3,-6,-10,1,1,-1,2
1480627880815146,3,4,1,3,3,-2,1,-2
1480627880816651,-3,-4,1,-12,-3,-1,-1,1
1480627880816651,-4,-5,-4,7,-4,-1,-1,-3
1480627880836709,2,-2,3,-4,1,4,1,3
1480627880836709,4,13,9,11,-6,-6,-1,-3
1480627880838709,-2,-2,-19,-6,3,1,0,-2
1480627880838709,-10,-26,-1,-4,0,-1,0,-1
1480627880851245,3,0,4,-2,0,-1,-1,0
1480627880851245,0,7,4,-2,0,2,-1,0
1480627880858261,0,0,8,17,-5,-3,-2,0
1480627880858261,4,8,-9,-20,0,0,0,1
1480627880874805,6,37,44,21,2,0,3,0
1480627880874805,2,6,14,3,5,3,3,5
1480627880880821,-1,-1,0,6,-2,0,-1,0
1480627880880821,0,1,-6,-9,-4,0,-1,-2
1480627880904384,-1,-10,-6,-4,-3,-4,-2,2
1480627880904384,-5,0,-5,-2,-1,0,-2,-2
1480627880905888,2,4,-5,-17,-3,-1,0,-1
1480627880905888,1,4,6,6,-2,-2,1,1
1480627880911904,-2,-12,-3,5,-1,-5,0,-2
1480627880911904,-1,-5,-5,-1,1,5,0,-1
1480627880925440,-2,-1,-5,-5,1,-1,-1,-1
1480627880925440,-1,-3,-8,-18,-3,0,-2,-1
1480627880934465,-1,-2,-3,2,-1,3,0,-1
1480627880934465,2,7,-1,26,-1,-4,-3,-3
1480627880935975,-2,-8,3,-9,2,5,3,1
1480627880935975,4,29,-7,-5,-3,-3,-3,-3
1480627880957023,2,-4,-8,-10,0,0,0,0
1480627880957023,-8,-25,-20,-3,-1,-2,-3,-3
1480627880958527,-5,-9,-10,-11,-7,-1,1,-2
1480627880958527,-2,-2,-1,-1,0,-1,-1,1
1480627880971064,0,0,-5,-2,1,0,-3,-3
1480627880971064,0,0,6,20,3,0,1,-1
1480627880978080,-3,-6,-8,-12,0,-3,-3,-1
1480627880978080,-1,0,-2,-5,0,-1,0,1
1480627880994628,-4,-9,-2,7,1,1,-2,0
1480627880994628,-3,-3,6,2,-1,-1,0,0
1480627880996128,4,5,6,11,3,0,0,0
1480627880996128,1,1,7,5,-2,0,0,-1
1480627881016683,-1,-1,-4,-4,2,0,0,1
1480627881016683,1,4,0,-8,-5,-2,-1,1
1480627881023200,1,5,3,0,-2,-2,-2,2
1480627881023200,-1,-5,1,-1,2,1,1,0
1480627881031723,1,4,-5,-7,-1,-1,0,0
1480627881031723,-2,0,11,14,4,2,1,0
1480627881045780,-2,0,-3,-3,0,0,-2,-4
1480627881045780,-3,-7,-5,-1,1,1,0,-1
1480627881054283,-3,-5,-4,-1,-1,-2,-2,0
1480627881054283,2,11,-4,-12,-3,-2,-1,1
1480627881056288,0,-6,9,6,2,2,1,1
1480627881056288,2,14,-8,-14,-3,-2,-1,0
1480627881077345,-5,-7,0,14,-1,0,0,-2
1480627881077345,4,11,12,1,0,0,-2,0
1480627881078850,4,8,-5,-1,-2,-3,-1,-1
1480627881078850,5,18,38,9,3,1,2,2
1480627881091382,0,4,-12,-10,-3,-2,-2,0
1480627881091382,-5,-10,-1,-4,-3,-1,-2,-1
1480627881097899,2,12,-1,-6,-1,0,-2,-1
1480627881097899,-6,-12,-3,10,-1,0,-2,-2
1480627881114443,-1,-1,0,0,-1,0,0,-1
1480627881114443,0,-2,-1,-7,-1,-2,0,1
1480627881116950,0,-4,-3,-2,3,-2,1,4
1480627881116950,-4,-7,-8,-4,-6,-1,-4,-7
1480627881137007,0,-2,6,8,2,2,0,-1
1480627881137007,-3,-5,-7,-9,-7,0,-1,-1
1480627881138507,-2,-5,1,-3,2,0,0,-1
1480627881138507,1,-6,-5,3,2,-2,-1,2
1480627881151042,1,1,-1,-7,-2,-1,-1,3
1480627881151042,-2,-2,7,13,4,0,-2,-3
1480627881165579,0,0,-3,3,-2,0,0,1
1480627881165579,-1,-3,-1,-1,0,1,-1,-1
1480627881182624,3,11,-8,-11,-1,-2,-1,-1
1480627881182624,0,-7,0,-1,-2,-3,0,1
1480627881184129,-1,-3,1,1,-4,-2,-2,-1
1480627881184129,-2,-9,-9,1,-1,-3,-1,-1
1480627881197664,-2,-5,3,-1,0,-2,1,0
1480627881197664,-1,1,-3,-4,-3,1,-1,-2
1480627881203187,-4,-2,1,3,-3,-1,-1,-4
1480627881203187,-1,-12,-12,-5,1,-2,-3,-3
1480627881210699,0,3,-1,-5,-1,0,0,0
1480627881210699,-1,-6,2,4,0,0,1,1
1480627881219722,-2,4,-4,1,0,-1,1,-2
1480627881219722,-5,-23,-25,-1,-3,-3,-2,-3
1480627881235266,-7,-27,4,4,2,1,2,1
1480627881235266,-2,1,-10,-8,-2,0,0,-3
1480627881236768,5,7,-5,-2,-1,-1,0,7
1480627881236768,-4,4,0,-3,-2,1,-2,-10
1480627881256822,0,-7,6,5,1,0,-1,1
1480627881256822,2,5,-1,-4,-1,-2,-1,0
1480627881258326,-2,-9,1,2,0,-1,-2,-8
1480627881258326,4,18,14,1,1,0,1,3
1480627881270860,3,5,5,-1,-1,0,1,1
1480627881270860,-1,-4,-12,-5,-1,-3,-1,1
1480627881287904,2,1,3,1,-2,0,-2,0
1480627881287904,-7,-6,5,-1,-1,-2,1,-1
1480627881294422,11,11,0,-1,-2,-1,0,4
1480627881294422,-3,-12,-4,0,2,1,2,2
1480627881295925,8,29,38,5,4,4,4,4
1480627881295925,-1,9,2,3,-1,0,-3,-7
1480627881317484,-8,-29,-1,1,-1,0,0,4
1480627881317484,-1,7,-1,-2,-2,0,-1,-10
1480627881318987,-1,-10,-6,-3,1,0,4,18
1480627881318987,0,5,0,-2,-2,-2,-5,-13
1480627881330517,4,14,0,-3,-2,0,-4,-3
1480627881330517,-3,-2,2,-1,1,-1,-2,-2
1480627881356586,-5,-7,-16,-13,-2,1,3,1
1480627881356586,0,-6,7,13,-3,-2,-3,0
1480627881357589,-1,2,-2,4,0,0,-1,-1
1480627881357589,6,3,-6,-22,-2,-1,5,13
1480627881360598,-2,-2,-7,10,-1,-3,-6,-3
1480627881360598,-6,-1,10,15,5,3,-2,-11
1480627881377643,3,9,-6,0,-4,-3,1,2
1480627881377643,-5,-3,2,-2,-1,-1,-4,-14
1480627881379147,0,-6,-13,-34,2,3,2,9
1480627881379147,4,-2,9,24,-3,-4,0,6
1480627881390679,-4,1,-5,-2,-1,0,-3,-11
1480627881390679,2,-1,5,2,3,2,4,10
1480627881399703,-4,-11,-16,-10,-6,-1,-4,-7
1480627881399703,10,35,43,24,8,3,4,5
1480627881415745,-4,3,-8,-10,1,0,0,-2
1480627881415745,1,-5,1,6,-2,-2,-1,4
1480627881420758,-2,2,-1,-7,0,0,-3,-7
1480627881420758,1,-4,-18,-27,-3,-1,0,3
1480627881436800,-5,-24,9,19,1,2,4,5
1480627881436800,1,10,-3,-6,0,1,-3,-5
1480627881438304,-5,-11,13,23,1,0,-2,-8
1480627881438304,-2,-5,-13,-15,-2,0,1,8
1480627881459361,1,12,4,2,0,0,-2,-2
1480627881459361,0,-1,-6,-6,-3,-3,-2,-3
1480627881461366,0,-3,5,8,0,-1,-1,-2
1480627881461366,-3,-6,-9,-1,-2,0,1,4
1480627881489441,2,6,-4,-12,0,1,-1,-1
1480627881489441,2,3,3,12,1,1,-1,3
1480627881498966,1,9,-1,1,-1,-2,-1,-8
1480627881498966,0,-7,-6,-18,0,2,1,1
1480627881499969,-3,-2,-2,7,0,-1,-1,-4
1480627881499969,1,-10,8,7,2,0,0,1
1480627881511499,-4,-14,-5,5,-1,-1,-1,0
1480627881511499,4,17,25,3,1,-1,2,3
1480627881512001,0,1,-3,-8,-1,-2,2,2
1480627881512001,0,0,1,2,0,2,-2,-1
1480627881519520,1,5,5,0,1,0,1,-2
1480627881519520,-3,-9,-14,-14,-1,-1,-1,0
1480627881542080,1,5,4,12,0,-1,-1,3
1480627881542080,-2,-3,0,3,1,-2,-1,3
1480627881543584,0,11,2,2,-1,-2,-2,-12
1480627881543584,-1,11,-9,-5,-2,-1,-2,0
1480627881556118,-3,-5,-7,-19,-2,0,0,0
1480627881556118,-1,-4,-9,-5,-5,-2,-1,-4
1480627881564642,1,2,2,19,0,-3,-1,0
1480627881564642,1,-5,-8,-6,-2,-2,0,2
1480627881579179,0,11,15,1,1,-1,0,-1
1480627881579179,-4,0,-7,-30,-3,-1,2,-3
1480627881581185,3,5,10,33,0,-2,-2,1
1480627881581185,3,-1,-5,-2,2,0,-1,0
1480627881594721,-4,-13,-7,5,-2,-1,-2,-5
1480627881594721,-4,-3,0,-8,2,1,1,-1
1480627881596225,0,3,-14,-17,-7,-5,-2,1
1480627881596225,2,-7,-20,-4,3,1,-2,0
1480627881616779,5,18,15,0,0,-1,0,-1
1480627881616779,0,1,3,15,-3,-3,0,-2
1480627881618786,1,-3,-9,-21,1,4,2,7
1480627881618786,-5,-8,0,24,-1,-2,-5,-10
1480627881631318,-1,-7,-3,-3,2,0,-3,-2
1480627881631318,-3,6,6,4,2,1,-1,1
1480627881640342,2,3,7,-1,-1,0,-1,0
1480627881640342,-1,0,5,-7,0,1,2,5
1480627881654881,2,-5,-6,-7,-3,0,0,1
1480627881654881,-1,-5,-7,-7,-5,-2,-1,-3
1480627881656887,-2,-8,7,15,5,1,0,4
1480627881656887,1,6,1,5,-2,-2,0,-3
1480627881676940,-10,-21,-5,5,1,-3,-2,-5
1480627881676940,4,-1,-8,-12,1,1,-1,3
1480627881678443,-4,-7,-8,-6,-3,-1,0,2
1480627881678443,1,0,6,-10,-1,2,3,10
1480627881700502,1,4,6,16,2,0,-1,-8
1480627881700502,-7,-7,0,1,-1,-1,-2,-2
1480627881705515,0,-12,-1,-11,2,2,1,-1
1480627881705515,-11,-34,-27,6,5,1,-2,1
1480627881714540,1,8,-8,-14,-7,-2,2,7
1480627881714540,1,-2,16,31,8,1,0,-3
1480627881716043,0,4,6,6,-4,-3,0,3
1480627881716043,-3,-10,-30,-38,-10,-6,-5,-10
1480627881744619,-1,-1,-2,-18,-2,1,1,4
1480627881744619,0,3,19,48,1,-4,-3,-2
1480627881746625,-1,1,-9,-15,2,2,2,0
1480627881746625,6,25,15,-2,-9,-1,5,6
1480627881760160,2,-2,-1,-9,2,1,-2,-5
1480627881760160,-3,1,3,0,2,1,1,1
1480627881761665,-3,0,-1,5,-2,-2,-2,-3
1480627881761665,3,5,-9,-30,-2,-1,-2,3
1480627881773699,1,11,25,40,-2,-3,1,0
1480627881773699,-1,-2,-18,-16,-6,1,-1,-4
1480627881788236,0,1,2,14,-1,-2,0,1
1480627881788236,-1,-3,4,-9,1,2,2,-4
1480627881796758,-1,7,27,0,2,2,1,1
1480627881796758,1,0,-1,-1,2,0,-1,-1
1480627881798764,-1,-2,-4,-14,-1,0,-2,-3
1480627881798764,1,1,15,10,2,0,-3,-3
1480627881820823,0,-11,-12,11,0,-1,1,2
1480627881820823,0,-1,-7,-8,0,-3,0,1
1480627881822326,3,-4,0,-10,-4,1,-2,-2
1480627881822326,-4,-5,3,17,3,0,0,-2
1480627881833356,-2,-3,-7,7,2,-1,-2,-1
1480627881833356,-2,-1,-6,-13,-4,1,0,1
1480627881858924,2,-4,-5,-21,-1,2,-1,-1
1480627881858924,-4,-5,11,33,2,-1,-2,-2
1480627881859926,1,2,-16,-17,-2,2,-2,-2
1480627881859926,0,3,4,5,0,1,2,3
1480627881862936,-1,-2,-8,-19,1,-1,-3,-5
1480627881862936,3,8,1,11,0,0,0,-3
1480627881878475,-4,-14,-2,-9,-2,-1,-1,0
1480627881878475,2,1,0,7,0,-2,-3,-3
1480627881886997,-2,2,0,-4,1,-2,0,0
1480627881886997,-2,-1,-1,3,1,1,0,0
1480627881894518,-1,2,-15,-18,-4,-1,-1,-4
1480627881894518,-1,-3,-3,-1,-2,-1,-1,1
1480627881908054,-2,5,12,17,2,0,0,1
1480627881908054,-8,-24,12,5,1,-1,0,-3
1480627881917079,0,-5,-5,-10,-2,-2,-2,4
1480627881917079,-1,-5,12,-3,1,1,1,-7
1480627881918582,-2,2,-6,3,-2,-3,-3,-4
1480627881918582,3,5,2,0,1,1,1,0
1480627881940645,-3,-4,1,-3,0,1,0,0
1480627881940645,-8,-5,-4,-7,-2,1,-2,-4
1480627881942648,2,-2,-2,7,-2,0,-1,2
1480627881942648,2,5,0,-8,-2,-1,-1,-1
1480627881953675,0,1,-11,-16,1,0,0,-1
1480627881953675,-3,4,4,9,-1,-2,-1,-1
1480627881960694,-5,-9,1,20,-1,0,-1,-4
1480627881960694,-4,-16,-26,-13,-5,-3,-3,-2
1480627881977739,-4,-7,0,-8,-2,-1,2,3
1480627881977739,-4,-4,-5,-2,0,0,-2,-7
1480627881979243,0,1,-3,-4,1,1,0,0
1480627881979243,1,-11,4,7,2,-1,0,0
1480627882000344,0,3,-4,0,-3,1,0,-3
1480627882000344,0,-1,-5,-8,0,0,0,3
1480627882001305,0,-3,1,2,-1,-1,1,1
1480627882001305,2,9,0,-17,-2,1,1,-1
1480627882022358,-2,-1,-6,21,2,-2,0,-2
1480627882022358,4,6,9,-8,0,2,4,3
1480627882023862,-2,-4,-3,3,1,-1,-1,-3
1480627882023862,-3,3,1,5,-1,-1,0,1
1480627882051938,2,5,-3,-4,1,0,-2,-2
1480627882051938,0,0,-8,5,-2,-2,-2,-1
1480627882053441,-2,0,-1,-7,0,0,0,-2
1480627882053441,3,12,0,2,2,2,0,0
1480627882059458,4,19,-13,-18,-4,0,-1,-1
1480627882059458,4,12,7,21,0,-2,-1,-2
1480627882060961,-1,3,-4,-9,-2,0,-2,-1
1480627882060961,7,33,38,16,5,2,0,1
1480627882073996,-1,0,6,2,-1,0,-1,-1
1480627882073996,2,-4,-6,-12,1,-1,0,2
1480627882080513,-1,0,-4,-4,0,-1,0,-2
1480627882080513,-1,-3,-5,6,-7,-3,-2,-2
1480627882097057,3,5,15,11,-2,-3,0,-3
1480627882097057,-2,3,1,0,2,1,2,1
1480627882099567,-1,-4,3,-5,-3,0,1,-1
1480627882099567,-1,-5,-11,-10,-2,0,-1,1
1480627882119618,-2,-7,4,17,0,-2,-2,0
1480627882119618,0,-4,-10,-5,-2,-2,-1,-1
1480627882121121,1,7,-1,-8,-2,-1,0,1
1480627882121121,-2,-1,-12,-9,-5,-1,-1,-2
1480627882133655,-4,-9,-4,2,4,5,-2,-1
1480627882133655,4,9,3,6,1,-2,-2,-1
1480627882157718,-4,-5,-1,4,1,0,0,0
1480627882157718,1,0,-3,-12,-1,-1,1,0
1480627882158219,-4,-26,2,-7,0,2,1,1
1480627882158219,2,3,2,10,-2,-2,-1,0
1480627882160225,2,18,23,-10,1,1,-1,1
1480627882160225,-4,-6,-4,13,-1,-4,-2,-2
1480627882179778,-4,-8,-3,-9,0,0,1,-1
1480627882179778,-3,-9,-1,-11,-3,-2,0,2
1480627882187297,-3,-17,10,23,1,-2,-3,-3
1480627882187297,-9,-22,-9,-4,7,3,2,0
1480627882192811,3,17,-8,-11,-10,-4,-3,-4
1480627882192811,4,-1,-9,-17,1,1,2,3
1480627882202839,-3,-7,-3,23,-2,-2,-1,-3
1480627882202839,0,-4,-9,-13,0,-2,-4,-1
1480627882216876,3,3,-3,3,-8,-5,2,4
1480627882216876,-5,-9,4,14,10,5,0,9
1480627882218381,-1,14,-12,-27,-4,-1,0,-13
1480627882218381,-1,-6,2,13,-5,-7,-1,-1
1480627882239435,-2,-2,-35,-36,5,3,-1,-4
1480627882239435,9,15,9,16,-3,-4,-2,3
1480627882246957,0,5,8,13,8,2,3,7
1480627882246957,-4,-10,-15,-15,-9,0,-2,-4
1480627882252976,-1,3,11,2,1,-2,0,-1
1480627882252976,2,7,-16,-32,-6,-1,-1,-5
1480627882261996,1,-3,4,24,4,3,2,4
1480627882261996,1,12,0,-10,-7,-2,-2,-1
1480627882277537,3,2,10,15,2,-2,-1,1
1480627882277537,-2,0,2,-3,-2,2,0,-3
1480627882279041,-2,-4,-2,-4,-3,-5,-3,0
1480627882279041,7,11,8,7,4,5,0,6
1480627882300098,2,4,9,3,3,1,0,0
1480627882300098,-9,-21,-5,6,-3,-1,-3,-9
1480627882313637,3,-3,-1,-10,0,-1,-1,0
1480627882313637,-1,-5,5,11,3,2,-1,1
1480627882314638,0,-3,-1,-9,0,0,-1,0
1480627882314638,-2,-4,8,10,-3,-1,-2,-1
1480627882322156,-1,-4,-5,-10,-4,-1,0,3
1480627882322156,3,4,19,9,6,4,3,-1
1480627882344214,-6,-1,4,8,-2,-2,-3,-5
1480627882344214,4,-2,-1,-4,1,1,0,4
1480627882346223,-4,-7,-17,-30,-4,0,-1,-4
1480627882346223,7,10,-2,11,1,0,2,4
1480627882359255,4,1,3,9,0,-3,-1,5
1480627882359255,-1,-1,-5,-4,1,0,-1,-15
1480627882361260,-11,-8,4,21,2,0,-1,0
1480627882361260,8,-1,-6,-23,-1,1,4,15
1480627882373292,-13,-4,-4,-3,-1,-1,-1,-14
1480627882373292,2,3,7,-3,1,0,0,-2
1480627882382317,9,19,4,-1,-1,1,1,4
1480627882382317,-8,2,2,10,2,-2,-2,-5
1480627882396854,4,3,-1,2,-3,1,1,6
1480627882396854,2,5,2,-20,-2,0,0,4
1480627882398359,-3,-14,-15,9,-5,-6,-4,0
1480627882398359,-5,10,-17,-6,-5,-5,-3,-12
1480627882427436,0,-9,12,12,5,3,2,1
1480627882427436,-2,0,-8,-6,-5,-3,-2,-2
1480627882429441,3,0,-8,-10,-2,0,0,0
1480627882429441,-2,-4,0,-2,1,-1,-2,0
1480627882432951,3,4,0,7,0,-2,-2,0
1480627882432951,-7,-7,-6,-13,0,1,1,-1
1480627882447990,2,2,17,40,5,-1,1,2
1480627882447990,-1,-7,0,-24,-4,4,1,-2
1480627882464535,-1,2,2,18,-4,-2,0,-4
1480627882464535,0,-3,-2,-23,-1,1,0,4
1480627882466038,-3,-5,-1,10,0,-1,-1,-3
1480627882466038,-2,-5,0,-3,-1,-1,-1,-2
1480627882479574,-2,-3,-1,7,3,0,-1,1
1480627882479574,2,2,-5,-14,-1,-2,-1,2
1480627882481078,-2,-6,-1,3,-4,-1,0,-1
1480627882481078,-1,-4,4,11,0,-2,0,-2
1480627882493112,-1,1,1,-5,1,1,-2,1
1480627882493112,2,1,4,22,-1,-3,-1,0
1480627882509654,7,31,34,-12,2,5,2,2
1480627882509654,-1,-2,1,1,1,2,-1,-1
1480627882517175,2,7,-4,-7,-1,-2,-1,2
1480627882517175,-2,-5,1,3,4,3,2,0
1480627882518680,2,-8,-15,-20,-3,1,1,3
1480627882518680,-3,-6,-5,14,-3,-6,-5,-4
1480627882547255,-1,4,3,2,3,-1,1,0
1480627882547255,1,5,8,9,-3,0,-2,0
1480627882549265,-1,-3,-9,-7,2,-1,-1,-1
1480627882549265,0,-3,-2,-15,-8,2,-1,0
1480627882553270,1,-7,1,-4,1,1,0,0
1480627882553270,-5,-33,4,7,3,0,2,3
1480627882562294,0,-12,-1,4,0,1,0,1
1480627882562294,2,7,7,3,2,-2,1,1
1480627882576834,-1,-4,-6,-1,-4,-2,-1,-1
1480627882576834,3,11,-2,-4,-1,0,0,-1
1480627882578839,1,1,-5,-8,-1,-2,-1,-2
1480627882578839,-3,-8,-3,2,0,-2,-2,1
1480627882599395,-3,-2,-11,-30,-2,1,1,-2
1480627882599395,-4,-1,9,35,3,-1,0,0
1480627882601403,-2,-4,-5,-1,-4,-2,-1,-1
1480627882601403,-5,-16,-23,-5,-1,-1,-2,-3
1480627882621953,2,9,5,-10,-2,1,-1,0
1480627882621953,2,15,0,3,0,-1,0,0
1480627882623458,-4,-14,-3,0,-4,-2,-1,-2
1480627882623458,-6,-15,-9,1,3,1,1,-1
1480627882636993,-1,6,-14,-8,-3,-3,-3,-5
1480627882636993,0,-4,-2,0,-2,1,-1,5
1480627882638497,-5,3,-2,-1,-1,-1,-1,-7
1480627882638497,4,15,3,-6,-3,-1,-3,0
1480627882659553,-7,-16,-9,3,1,1,-1,-1
1480627882659553,-1,4,2,1,-1,0,0,-3
1480627882661057,0,-1,-12,-10,-1,-2,-1,0
1480627882661057,-1,4,11,3,1,0,-2,-5
1480627882689633,0,2,6,6,0,-3,0,0
1480627882689633,-1,-3,-11,-10,-3,-1,-2,-4
1480627882691137,0,-4,3,2,-2,0,1,-1
1480627882691137,4,11,3,0,1,1,3,4
1480627882704172,-1,2,4,7,0,0,-2,-1
1480627882704172,-4,-7,-2,-3,-3,0,0,-1
1480627882710692,1,1,-4,-3,-1,1,-2,-1
1480627882710692,3,11,11,3,3,1,1,0
1480627882719214,3,7,-6,-7,-4,-2,1,0
1480627882719214,5,25,30,7,3,-1,1,2
1480627882721217,-5,-6,-2,1,0,-1,-1,-4
1480627882721217,-1,-13,-4,0,2,0,-1,4
1480627882741772,1,10,12,2,2,1,0,2
1480627882741772,0,-10,-5,-15,-2,1,0,-1
1480627882743778,0,3,-2,8,-4,-3,-2,-1
1480627882743778,0,3,6,-5,0,-2,1,0
1480627882756310,-7,-27,3,14,0,-1,-1,-1
1480627882756310,3,18,-14,-2,-1,-3,-2,-3
1480627882770348,2,-4,5,-2,-1,1,-2,3
1480627882770348,-2,-7,-1,-6,-2,-2,1,4
1480627882779874,-2,2,-2,-2,-2,-1,-2,-11
1480627882779874,-5,-5,-7,-8,-2,0,-2,-3
1480627882781879,3,6,2,6,-2,-1,-1,2
1480627882781879,-1,2,-7,-2,0,1,-1,-1
1480627882801935,-3,-8,2,0,1,0,1,4
1480627882801935,-9,-8,0,10,-2,-3,-4,-11
1480627882803436,4,1,-2,-9,2,1,2,3
1480627882803436,0,4,-8,-4,-3,-1,0,-2
1480627882816472,8,26,39,19,3,1,1,3
1480627882816472,2,5,-17,-24,-3,-3,-1,0
1480627882822989,-12,-11,8,6,-1,-1,0,-2
1480627882822989,5,15,-2,2,2,0,0,0
1480627882838529,-3,-13,-5,0,-3,0,1,2
1480627882838529,1,-2,-6,-1,-2,0,-1,0
1480627882853068,1,3,6,-7,0,1,-2,-4
1480627882853068,2,-3,3,0,2,2,0,2
1480627882862092,-1,-5,-9,5,-1,-2,-4,-2
1480627882862092,0,-10,4,1,0,1,1,4
1480627882863597,-5,-21,-13,-20,0,0,0,-1
1480627882863597,-4,-9,6,15,-3,-2,-1,-3
1480627882876131,-5,0,-10,-4,-2,-2,-3,-1
1480627882876131,4,-2,4,3,0,0,1,-1
1480627882883148,0,5,-2,2,3,1,1,3
1480627882883148,3,6,-1,-3,-1,0,1,-2
1480627882899693,5,16,18,-3,0,1,3,4
1480627882899693,3,1,2,4,0,-1,0,3
1480627882901201,-2,4,-4,2,-1,-1,-3,-9
1480627882901201,-2,2,-1,-6,-1,-1,-2,-4
1480627882922252,-6,-14,-23,-15,-3,-2,-1,-4
1480627882922252,-2,-3,3,16,0,-2,-1,2
1480627882924759,4,5,1,-4,1,-2,-1,3
1480627882924759,-6,-13,2,3,-2,0,-1,-2
1480627882936294,7,-7,1,-7,0,1,1,4
1480627882936294,-3,-4,0,0,0,1,-1,-1
1480627882942806,-2,4,-2,-1,-3,-4,-1,0
1480627882942806,-1,-1,-2,-4,0,0,-1,-2
1480627882966872,1,4,-5,-3,0,0,0,1
1480627882966872,-1,-6,4,5,1,1,1,-1
1480627882968883,3,11,6,5,1,1,0,-1
1480627882968883,-2,1,-4,-18,-1,-1,-2,-3
1480627882981911,-3,-9,-1,18,2,-2,-1,-1
1480627882981911,-4,-8,6,-4,-2,0,-3,-1
1480627882983415,-1,-6,-16,0,-1,0,1,-1
1480627882983415,-4,-12,-9,-1,-2,-2,0,2
1480627882996449,1,11,2,-3,-1,0,-2,-3
1480627882996449,2,1,-10,-11,-3,-1,-1,-1
1480627883010487,-2,-3,2,6,-1,0,-1,-2
1480627883010487,-4,-2,6,5,0,-1,-1,-3
1480627883019511,1,-5,-14,-12,-4,-3,-2,1
1480627883019511,-6,-8,-2,9,2,2,-1,-2
1480627883021015,5,3,-3,-14,-1,-1,0,1
1480627883021015,-4,-10,16,29,2,0,-1,-1
1480627883049592,-5,-1,-1,-3,1,0,0,-3
1480627883049592,2,9,-11,-9,-3,-2,-1,2
1480627883061625,3,5,3,-3,1,1,0,2
1480627883061625,0,2,0,7,-1,-3,-2,-2
1480627883061625,-4,-19,-11,-5,4,1,0,0
1480627883061625,-6,-7,10,12,2,2,1,1
1480627883063127,-2,1,-13,-19,-1,0,0,-2
1480627883063127,-4,-29,-16,9,-5,-5,-2,-1
1480627883079170,0,-2,12,8,1,1,1,0
1480627883079170,1,1,-7,-7,0,-1,0,-1
1480627883081175,-2,0,5,10,1,0,-1,0
1480627883081175,0,9,3,-25,-1,2,0,-1
1480627883102233,4,9,5,12,-1,-1,0,0
1480627883102233,-2,-2,-3,-10,-1,-3,-2,-2
1480627883103736,-6,-10,6,12,-1,-2,0,0
1480627883103736,3,9,1,2,0,-1,1,3
1480627883124293,0,-2,-7,-5,-1,1,-1,0
1480627883124293,2,7,7,-1,1,0,1,0
1480627883126298,0,3,-17,-11,-6,-2,-3,-3
1480627883126298,3,12,0,5,2,0,-1,-3
1480627883140332,0,3,0,-4,-4,-4,-1,-2
1480627883140332,1,-7,-1,5,-1,-1,-2,0
1480627883145847,0,4,-9,-1,-4,-2,0,-1
1480627883145847,6,27,24,1,3,2,2,1
1480627883161890,3,11,-3,-5,-1,0,-2,-2
1480627883161890,-2,-1,-7,-2,-3,-3,-2,-2
1480627883163394,1,-5,0,-1,2,0,-1,1
1480627883163394,-1,-10,-7,-13,-1,0,1,0
1480627883184453,-5,-7,2,19,-2,-3,-1,-3
1480627883184453,3,3,-9,-5,-6,-4,-1,1
1480627883185954,1,-1,8,2,1,2,2,6
1480627883185954,-2,1,-8,-11,-1,0,-2,-10
1480627883207511,-3,0,3,-5,0,-1,0,-3
1480627883207511,-1,3,-4,15,2,-4,-3,-7
1480627883209015,-3,-4,1,-9,-4,-3,-1,-1
1480627883209015,0,-3,-2,8,1,-1,-1,5
1480627883245614,-5,-16,3,-8,3,0,1,0
1480627883245614,-6,-39,21,2,3,4,4,3
1480627883247116,-5,-20,-13,-9,-1,-1,-2,-2
1480627883247116,-1,1,8,26,1,0,0,0
1480627883248119,3,3,-5,-1,2,-2,-2,-3
1480627883248119,4,15,-7,-25,-4,2,2,2
1480627883261655,-4,-6,9,21,-5,-3,-1,-4
1480627883261655,0,-5,-12,-20,-3,-1,-1,0
1480627883263160,2,10,-8,-5,0,0,0,3
1480627883263160,0,4,0,3,-1,-3,-4,0
1480627883273185,0,6,1,17,3,0,0,-2
1480627883273185,4,13,-9,-16,-3,-3,-4,-1
1480627883289230,-1,4,-3,5,4,2,2,-1
1480627883289230,5,17,12,16,-1,-1,1,3
1480627883291234,-6,-11,-6,-14,-1,3,1,0
1480627883291234,1,0,27,4,-1,1,0,0
1480627883295745,1,4,-9,-9,-3,1,-1,2
1480627883295745,-4,-3,-10,-8,0,-1,0,-4
1480627883320813,-1,6,-9,10,5,-2,2,-1
1480627883320813,4,9,3,-6,-4,0,1,6
1480627883326829,-6,-10,-1,-4,-1,0,-2,-6
1480627883326829,-1,0,3,-9,1,2,2,1
1480627883328834,4,8,8,17,5,-2,-2,-2
1480627883328834,-3,-7,-5,3,-2,-1,0,5
1480627883358412,1,0,3,3,-2,-1,0,3
1480627883358412,-3,3,-5,-8,1,-1,-5,-17
1480627883359917,5,5,1,-10,-2,0,0,5
1480627883359917,-8,-25,3,23,3,1,0,-3
1480627883372450,2,4,-2,-7,-5,-3,-2,1
1480627883372450,1,-1,-2,-10,-2,-1,0,4
1480627883379970,-2,2,2,2,-4,-4,-2,-6
1480627883379970,-3,-6,-7,3,2,1,2,-1
1480627883380973,2,0,3,-1,-2,0,-1,-3
1480627883380973,0,-4,0,-2,-1,-2,-1,2
1480627883382476,1,7,11,4,0,-2,-3,-1
1480627883382476,2,4,-11,-10,0,-1,-2,-1
1480627883402532,3,10,27,5,0,-1,2,2
1480627883402532,3,5,-6,-3,0,3,-1,1
1480627883404035,-1,0,-1,-12,-1,2,-1,-2
1480627883404035,-1,0,-14,-1,-1,-3,-3,-4
1480627883432109,-1,-4,-5,2,-2,-2,-1,2
1480627883432109,-5,-7,5,31,2,-1,0,-1
1480627883433614,5,14,15,5,3,0,0,0
1480627883433614,-3,-3,-2,-22,-6,-1,-2,-1
1480627883439629,-2,-5,-7,-1,-3,-3,0,-2
1480627883439629,1,-6,-6,4,1,-1,0,5
1480627883441133,-8,-6,-11,-17,-3,1,-1,-6
1480627883441133,-1,1,1,7,-4,-4,-2,-4
1480627883461187,1,-2,3,14,5,1,0,1
1480627883461187,0,5,-3,-5,-1,-1,-1,-3
1480627883469709,1,-1,-3,-4,-2,-2,-1,1
1480627883469709,1,-2,-9,-37,-4,1,2,1
1480627883491768,-3,0,9,32,9,0,-1,0
1480627883491768,1,1,-1,-2,-7,-3,-2,0
1480627883493772,0,-7,2,-6,0,0,0,2
1480627883493772,-1,-1,2,8,1,0,0,1
1480627883506306,4,1,-7,-18,-4,-1,0,-3
1480627883506306,1,9,35,6,5,2,3,5
1480627883538392,4,-2,-1,2,1,2,-1,-1
1480627883538392,0,2,-6,-14,1,1,0,-1
1480627883538893,0,2,-1,16,0,1,0,1
1480627883538893,-8,-7,-10,-2,-2,-1,-3,-5
1480627883540898,3,-1,1,3,-2,-2,-1,3
1480627883540898,2,7,20,7,3,2,2,1
1480627883551927,-1,3,-11,-13,-3,-2,-2,-1
1480627883551927,-2,-12,0,-2,0,-1,0,2
1480627883553431,-2,-2,-1,-2,0,-2,-2,-1
1480627883553431,0,1,-9,6,-1,-3,-2,-1
1480627883574989,-7,-14,1,-6,-3,-3,0,-1
1480627883574989,2,2,-5,-7,-1,-1,0,-1
1480627883582509,-1,2,-5,-2,0,-1,-3,-3
1480627883582509,-2,-1,1,13,5,1,-1,1
1480627883583512,-1,-3,-8,-19,-9,-1,0,-2
1480627883583512,-4,-7,1,5,0,2,0,0
1480627883585016,2,1,4,1,1,1,1,2
1480627883585016,2,-8,9,15,6,3,-1,0
1480627883605571,3,9,13,-11,-2,2,2,2
1480627883605571,-7,-27,-11,17,-1,-4,-2,0
1480627883607074,2,5,6,1,-2,0,2,-1
1480627883607074,2,8,3,-7,-1,-1,-8,-3
1480627883619608,-5,-6,-6,2,-1,0,14,3
1480627883619608,0,5,-5,-2,-2,-2,0,-2
1480627883621112,-2,0,-4,1,2,1,0,1
1480627883621112,-5,-18,2,-3,0,0,-1,-2
1480627883649186,0,-9,2,1,1,0,-4,2
1480627883649186,1,9,-1,-5,2,0,-1,-3
1480627883651194,-5,-5,-4,2,-1,0,1,1
1480627883651194,1,8,-11,-7,-5,-2,-1,0
1480627883664226,2,3,-2,-2,0,-1,-3,-3
1480627883664226,-3,4,4,-2,1,0,1,-1
1480627883666232,-1,-6,-1,-7,-1,-1,-7,-2
1480627883666232,-5,-3,-5,8,-1,-1,11,1
1480627883678765,3,1,-8,-23,-1,1,-1,0
1480627883678765,-1,-4,-8,13,-1,-2,-3,-3
1480627883685784,0,-1,0,1,-7,-3,0,1
1480627883685784,-5,-1,-2,2,0,-1,-3,-5
1480627883702829,1,3,-1,1,4,1,-2,-1
1480627883702829,1,2,-6,-17,-7,2,1,-1
1480627883708344,-1,0,1,6,2,0,2,-3
1480627883708344,-2,-1,2,3,-2,-2,-1,-1
1480627883724386,-1,12,-2,1,-3,-3,-3,-3
1480627883724386,-3,-23,-22,-25,-3,-3,-4,-2
1480627883725890,-4,-7,9,15,3,3,3,1
1480627883725890,2,0,-4,-1,-3,-4,-2,-1
1480627883739426,1,9,1,9,0,1,-3,-3
1480627883739426,-2,-7,6,-3,0,1,1,-1
1480627883746947,2,-5,-7,-2,-1,-2,-2,0
1480627883746947,3,3,-1,-12,-1,0,-1,-1
1480627883769506,-3,-13,-6,9,-6,-3,-2,-2
1480627883769506,0,6,2,-8,2,2,-2,0
1480627883771012,-4,-7,-6,-1,1,1,1,-2
1480627883771012,-3,3,0,3,0,1,-1,-2
1480627883784548,-6,-14,-9,-6,0,-2,-2,-1
1480627883784548,2,6,3,2,1,1,1,2
1480627883786051,2,5,-4,-6,-1,-1,-2,-1
1480627883786051,2,3,-5,-3,2,0,0,0
1480627883798585,1,1,2,1,2,2,1,0
1480627883798585,2,4,3,7,0,-2,-1,-1
1480627883813122,-1,0,-5,2,0,0,1,0
1480627883813122,1,-4,2,4,-1,-2,0,0
1480627883830168,0,-1,-2,-10,0,-1,-2,0
1480627883830168,-3,6,10,19,4,1,-1,-3
1480627883831673,2,0,2,-9,-5,-4,-1,1
1480627883831673,-1,-3,-2,-5,-1,1,2,1
1480627883852226,1,2,-1,1,-2,-1,-3,-1
1480627883852226,3,5,1,9,4,-1,-1,0
1480627883853730,-2,1,2,5,1,-1,0,-2
1480627883853730,-1,-1,0,2,0,0,-3,-1
1480627883858745,-3,-6,-4,-11,2,-1,1,0
1480627883858745,3,-7,5,-3,0,0,3,3
1480627883865762,-2,2,-3,-2,1,0,0,-1
1480627883865762,-2,3,-4,-5,-7,0,-2,-2
1480627883881804,3,6,0,11,3,1,1,2
1480627883881804,5,19,15,2,-2,-1,-1,1
1480627883883814,-6,-14,0,-2,-1,-2,-2,-2
1480627883883814,-3,-5,-2,-13,1,1,1,-1
1480627883904365,1,2,-5,6,-3,-1,-2,-3
1480627883904365,-1,-1,-8,-1,2,-1,-3,-3
1480627883905873,0,3,-2,-17,-4,0,0,0
1480627883905873,4,7,1,-2,2,-2,-3,0
1480627883935452,-8,-4,10,8,-1,0,2,-1
1480627883935452,-2,-6,-5,-3,-1,-3,-1,0
1480627883942466,-1,4,1,1,1,2,-1,-3
1480627883942466,3,-2,1,4,-1,-1,0,1
1480627883943469,2,3,0,-7,1,-2,-3,-1
1480627883943469,-1,-1,-10,-12,-7,-1,0,1
1480627883944973,2,5,-3,0,2,1,-1,0
1480627883944973,-2,0,8,21,1,-1,0,0
1480627883964526,0,-8,5,5,0,0,0,-1
1480627883964526,-1,5,-3,-8,0,-1,2,0
1480627883966030,5,4,-8,-11,-4,-3,-1,1
1480627883966030,-3,-1,1,0,0,0,-1,0
1480627883994605,1,-6,11,8,2,0,0,1
1480627883994605,1,9,-7,-14,-7,0,-1,-2
1480627883997113,0,5,-2,-2,-3,0,-1,-1
1480627883997113,2,1,1,2,1,-2,0,1
1480627884009646,-3,-8,-12,-17,-3,0,-2,-1
1480627884009646,-5,-19,-16,20,5,-3,-4,-2
1480627884025186,0,2,4,4,0,1,0,-1
1480627884025186,-2,0,-7,-5,-3,-2,-2,-1
1480627884025688,2,8,1,-10,0,1,0,-1
1480627884025688,0,-10,-2,3,-1,-1,-1,-1
1480627884027693,-2,-1,-5,-4,-3,-2,0,-1
1480627884027693,-5,-7,-2,-3,2,2,2,0
1480627884046744,0,-1,2,10,-2,-2,-2,-3
1480627884046744,2,5,-2,-12,-1,-1,-1,0
1480627884048749,-1,-6,12,12,2,-3,0,1
1480627884048749,2,4,1,-11,-2,-1,2,2
1480627884061786,-2,-8,5,8,1,1,1,-1
1480627884061786,2,3,3,-7,1,0,0,3
1480627884063790,1,4,2,6,-1,-4,-2,-3
1480627884063790,-3,-5,-1,6,2,1,1,-1
1480627884084358,0,3,-3,-8,-3,-2,0,1
1480627884084358,-2,-8,-2,1,-1,0,0,-2
1480627884085849,-2,-2,-11,-6,2,0,0,-1
1480627884085849,2,-14,-5,0,-1,-1,-2,3
1480627884097880,1,6,3,1,-3,-1,-2,0
1480627884097880,-1,15,-2,-9,-3,-1,0,-2
1480627884106904,-2,-1,1,1,-1,0,0,0
1480627884106904,-2,-1,-5,-1,-1,-1,-3,-4
1480627884121944,-1,2,-2,1,2,-1,-2,0
1480627884121944,8,31,40,15,5,3,1,5
1480627884123448,-2,-2,-1,2,-2,-2,0,-2
1480627884123448,0,3,-1,-3,-2,1,0,-1
1480627884144504,-1,4,-4,-10,-1,-2,0,0
1480627884144504,-4,-8,-8,3,-2,-3,-2,-3
1480627884146008,0,-3,7,5,3,2,1,1
1480627884146008,1,6,3,-1,-1,-1,0,-2
1480627884158040,1,-4,-3,0,0,-2,0,-1
1480627884158040,-4,-7,-5,-3,-2,0,-1,-2
1480627884167064,1,14,-8,-5,0,-1,-1,-1
1480627884167064,0,-4,2,0,5,1,-1,-1
1480627884182104,-3,-5,3,3,-4,-1,-1,-1
1480627884182104,-2,-4,-5,-4,-2,-1,0,-1
1480627884183608,-1,7,-13,-6,-3,-2,-2,-3
1480627884183608,2,14,0,2,-1,-2,-1,-1
1480627884204666,1,0,-1,-8,4,0,0,-1
1480627884204666,-4,-5,2,-1,-6,-3,0,-1
1480627884206168,-4,-9,6,15,3,1,0,1
1480627884206168,1,2,-4,1,3,0,0,-1
1480627884218200,-6,-32,-3,-1,3,3,3,1
1480627884218200,1,1,-4,4,1,0,-1,-2
1480627884233241,-1,-4,1,-12,-6,0,1,1
1480627884233241,-1,-4,1,-1,-5,-3,-2,-1
1480627884241762,-1,8,-7,-3,1,-1,-2,-2
1480627884241762,0,-9,-12,-8,0,-1,-1,-2
1480627884243768,8,22,29,14,5,0,3,4
1480627884243768,1,1,6,1,-4,-2,0,1
1480627884264325,-3,3,-5,-4,-1,1,0,-2
1480627884264325,0,5,-8,0,-1,-1,-2,-2
1480627884270840,-1,-4,-7,-11,-2,-2,-1,0
1480627884270840,0,-1,-5,0,-2,-2,2,0
1480627884278361,5,22,0,10,-1,-3,-3,0
1480627884278361,-2,-4,9,10,2,1,1,1
1480627884287886,-1,-6,-10,-7,0,2,-1,0
1480627884287886,-3,-7,5,-2,3,1,2,0
1480627884301924,0,4,-9,1,-6,-3,-2,-2
1480627884301924,3,2,-3,-3,3,1,1,5
1480627884303427,-3,-4,-8,-17,-6,-2,-4,-13
1480627884303427,-6,-6,2,7,1,-1,-2,-2
1480627884324482,-1,-2,0,8,-2,-3,-1,0
1480627884324482,-1,-24,-5,-1,-1,0,0,0
1480627884325986,0,-4,5,0,1,0,1,3
1480627884325986,1,5,-3,-4,-1,0,-1,-3
1480627884338018,-1,0,-4,-7,-3,-2,0,-1
1480627884338018,-1,1,-7,-18,-3,-1,-1,0
1480627884347042,-1,-3,-4,24,11,1,-1,0
1480627884347042,-2,-3,-2,-7,-10,0,0,0
1480627884361581,0,-3,4,1,1,1,0,2
1480627884361581,0,-2,0,-3,1,1,-1,-1
1480627884368606,-2,1,0,-7,-2,-1,-1,0
1480627884368606,-1,1,0,-1,3,2,0,1
1480627884384647,-2,-3,4,-1,1,-1,-1,0
1480627884384647,1,3,2,6,1,-1,0,-2
1480627884386147,-4,-23,-21,-12,-9,-3,-1,0
1480627884386147,-3,-6,-16,-11,-3,0,-1,-2
1480627884406701,-1,1,4,8,-3,-1,-1,-4
1480627884406701,-4,-4,9,6,7,1,1,-1
1480627884408707,3,8,1,3,1,0,0,5
1480627884408707,-1,-3,-1,-11,-4,-1,-1,-5
1480627884421742,-1,2,4,9,0,-4,-2,-4
1480627884421742,-4,-3,-3,5,2,1,0,0
1480627884424750,-1,0,-3,-16,-8,0,2,0
1480627884424750,1,4,4,14,3,0,-1,2
1480627884445304,1,-1,-6,-14,-3,-2,-2,-1
1480627884445304,2,5,3,6,0,-1,-2,-2
1480627884446808,-2,1,2,1,2,-1,1,0
1480627884446808,-1,-2,-11,-10,-1,0,1,-2
1480627884457837,-6,-10,14,6,5,5,5,3
1480627884457837,-1,1,0,2,-1,-1,-1,-1
1480627884467368,0,-1,-3,-3,-3,0,-3,-3
1480627884467368,0,-3,-9,-2,-4,-2,-3,-2
1480627884489925,2,9,-3,-1,1,-1,-1,-1
1480627884489925,5,11,-13,-24,-2,-3,0,0
1480627884491427,0,-1,11,21,-2,-2,-2,1
1480627884491427,-1,-4,4,0,2,-2,1,2
1480627884504461,1,0,-4,-3,-1,0,-1,0
1480627884504461,0,2,3,5,-3,-3,0,4
1480627884505966,-1,1,-3,-3,3,0,0,-11
1480627884505966,2,7,0,-1,1,-2,-1,1
1480627884534543,0,0,-2,3,-5,-3,-1,3
1480627884534543,-5,-7,-2,-3,-2,-2,-2,-10
1480627884536046,-1,0,1,3,3,-1,0,1
1480627884536046,-2,-8,8,7,3,1,1,0
1480627884549582,0,0,-4,-10,-1,-1,0,-1
1480627884549582,2,0,0,-1,-2,3,1,2
1480627884551090,-5,-22,-39,-5,-5,-3,-4,-5
1480627884551090,4,13,9,-2,-1,-1,-1,5
1480627884565123,-3,-3,-2,0,3,0,-2,-10
1480627884565123,3,6,4,8,-1,-2,-1,1
1480627884567129,-5,-9,4,-4,-2,-3,-2,-2
1480627884567129,1,6,-12,-11,0,-2,-3,3
1480627884587181,2,5,9,1,-4,2,1,5
1480627884587181,-2,2,-8,-3,-2,0,-2,-1
1480627884602726,7,27,3,-6,1,-1,1,1
1480627884602726,0,0,-1,8,2,0,0,0
1480627884603729,0,1,6,-3,-1,-2,-1,-3
1480627884603729,-1,-2,0,7,0,-2,-1,-1
1480627884605230,0,2,2,-9,1,1,1,5
1480627884605230,-1,-5,-1,-4,3,0,1,0
1480627884631801,0,-2,-1,19,1,-1,-1,-2
1480627884631801,4,3,-1,-6,0,2,1,5
1480627884637816,-1,-3,10,6,2,0,-1,2
1480627884637816,-2,-4,-5,-14,-4,1,0,-6
1480627884646840,-1,-5,-7,-5,4,-1,0,3
1480627884646840,-3,-21,9,4,-1,-2,-1,-2
1480627884648344,1,-3,5,1,1,0,1,6
1480627884648344,1,1,7,14,-3,0,-1,-2
1480627884661379,-1,3,-3,-9,0,1,-3,-3
1480627884661379,0,-5,-9,-3,1,-1,-1,0
1480627884668398,-5,-5,3,5,0,0,0,0
1480627884668398,-2,-21,-27,-10,-1,-1,-2,2
1480627884684442,-1,5,5,12,5,-1,-3,-10
1480627884684442,-3,-3,-8,-9,-7,0,-1,-2
1480627884685946,1,-2,1,-1,-1,-2,-2,-3
1480627884685946,-4,-21,3,1,-2,0,1,1
1480627884714521,-3,-5,-2,-3,-4,0,1,6
1480627884714521,-2,0,-4,1,1,-2,-1,-4
1480627884716028,-1,-2,0,-5,-6,-2,1,0
1480627884716028,1,10,10,6,3,0,0,1
1480627884730062,1,-1,-5,-6,-4,-2,-2,2
1480627884730062,-3,-10,15,7,1,0,0,0
1480627884731566,0,2,-6,0,1,-1,1,2
1480627884731566,-3,3,2,-3,0,-1,1,-1
1480627884745101,-2,-5,-1,3,-3,0,-3,1
1480627884745101,-7,-1,-4,7,4,0,-1,-7
1480627884746606,2,0,6,-1,2,3,3,0
1480627884746606,-1,8,-1,-2,-1,-1,0,-3
1480627884766660,2,-2,-1,1,0,1,2,6
1480627884766660,-2,0,-9,-8,-7,-2,-2,-1
1480627884768665,-1,0,0,-1,1,1,-3,-2
1480627884768665,-2,3,1,4,3,1,-1,0
1480627884796740,-2,-3,-2,2,-4,-2,-2,-2
1480627884796740,2,2,-2,-9,0,0,-1,2
1480627884798746,0,4,1,4,0,0,-1,-2
1480627884798746,0,4,0,5,3,-1,-3,-3
1480627884828324,1,1,-7,-17,-7,1,1,1
1480627884828324,0,12,24,12,3,2,1,2
1480627884829828,0,-1,-3,-4,0,1,0,0
1480627884829828,-4,1,4,1,-3,-4,-2,-4
1480627884830830,3,7,12,3,3,-1,1,0
1480627884830830,4,4,-1,-5,1,1,2,2
1480627884843363,0,0,-5,-6,-3,-3,0,1
1480627884843363,-3,6,2,3,2,0,-1,-4
1480627884844366,1,0,-3,1,5,2,2,1
1480627884844366,4,2,-5,0,-5,-3,-2,1
1480627884855897,-2,-4,-1,1,3,1,0,-2
1480627884855897,-1,-3,-10,-4,-5,0,-2,-3
1480627884863919,-1,-1,1,-3,0,-1,0,-3
1480627884863919,5,11,-8,-8,-2,0,-1,2
1480627884877956,-1,2,5,4,1,0,1,-1
1480627884877956,-2,-8,-2,4,-3,-2,-1,-1
1480627884903023,1,6,7,5,4,2,2,-1
1480627884903023,0,0,-6,-11,-7,-3,-1,-2
1480627884905030,-1,-2,-1,9,1,-3,-2,-2
1480627884905030,0,2,-8,2,2,1,0,0
1480627884905529,-5,-10,-19,-20,-7,-2,-2,-2
1480627884905529,-4,-4,2,5,1,-1,-1,-2
1480627884910542,-5,-10,-1,-11,-4,-1,1,-1
1480627884910542,1,1,9,8,4,-1,0,1
1480627884925582,3,3,1,2,1,2,1,5
1480627884925582,-5,-6,-5,-6,-2,-1,-3,-10
1480627884930595,-1,2,-1,-3,-1,0,-2,-2
1480627884930595,6,10,10,9,1,0,-2,3
1480627884954659,-13,-44,-20,-8,-4,0,-1,-4
1480627884954659,-4,-13,0,1,4,0,0,2
1480627884956163,-2,-18,2,0,-1,0,0,2
1480627884956163,0,6,4,-5,-3,-2,-1,-3
1480627884961177,2,4,2,9,1,-1,-1,1
1480627884961177,-4,-10,5,-4,2,3,2,2
1480627884968196,0,4,3,19,2,-2,-2,-1
1480627884968196,-1,-8,-9,-12,-4,-1,-1,-1
1480627884984740,-2,4,2,2,1,-2,0,-2
1480627884984740,3,11,1,0,4,3,1,0
1480627884986245,-1,5,-9,-12,0,-1,-1,0
1480627884986245,1,6,19,14,2,2,0,2
1480627885005795,3,10,2,3,-1,-3,-1,-1
1480627885005795,0,0,0,-10,-2,-1,-1,0
1480627885014821,-1,2,3,7,-2,0,0,-1
1480627885014821,1,-3,-4,-1,-1,-3,-2,0
1480627885020835,-2,3,5,-2,4,0,1,0
1480627885020835,-2,-2,-1,3,-2,-3,-1,3
1480627885037387,0,5,-8,-12,-6,-3,-2,-1
1480627885037387,-1,-1,5,11,-3,-1,-2,-3
1480627885044398,-1,-1,-6,-9,-2,1,0,0
1480627885044398,0,0,-5,-7,-3,-1,0,-2
1480627885045902,0,2,0,10,0,-2,-1,0
1480627885045902,0,-3,-8,-20,-4,-1,1,2
1480627885074480,1,3,5,10,1,-2,-3,-2
1480627885074480,0,0,7,19,2,0,-1,-1
1480627885076485,1,-3,1,0,5,-1,-2,0
1480627885076485,0,4,-14,-25,-14,0,0,-2
1480627885105566,-2,-10,2,-4,-1,-1,0,0
1480627885105566,1,1,2,11,3,-2,0,1
1480627885107567,0,-3,8,-1,2,1,0,-2
1480627885107567,-2,3,4,4,0,-3,-1,0
1480627885108068,0,9,-1,-6,-1,-2,-1,0
1480627885108068,-2,-3,-3,0,-2,-1,-2,0
1480627885112078,1,-1,-4,-6,-2,0,-1,0
1480627885112078,9,25,-3,-5,2,0,0,3
1480627885135142,3,28,37,9,1,3,1,-4
1480627885135142,0,3,-1,3,2,-1,0,-1
1480627885150180,0,2,-3,-7,-5,1,0,2
1480627885150180,-10,-19,-11,-3,-6,-5,-4,-4
1480627885156696,2,8,-10,-4,-3,-3,-1,0
1480627885156696,0,8,-9,-5,3,1,0,-2
1480627885158702,0,8,9,3,-1,0,-1,-3
1480627885158702,0,-10,2,5,0,-1,-1,2
1480627885171736,-3,-9,-11,-2,3,-2,-1,-1
1480627885171736,-3,-8,-2,-5,-12,-3,-1,-2
1480627885173742,0,5,-17,-12,-2,1,0,-3
1480627885173742,-5,-8,1,-4,6,5,2,-1
1480627885186777,-3,-8,-2,9,-2,-2,-1,1
1480627885186777,4,6,4,-2,-1,-2,-1,2
1480627885188783,-1,6,1,8,0,-3,-2,-7
1480627885188783,-3,-8,4,8,2,0,-1,-2
1480627885200821,0,-3,-4,-9,-3,1,0,-1
1480627885200821,2,4,3,3,2,1,0,2
1480627885211342,-6,-35,5,-6,-4,1,3,4
1480627885211342,-2,-2,0,3,3,-1,1,0
1480627885224377,-2,-11,-10,-5,-3,-1,0,-2
1480627885224377,-6,-16,6,18,7,-2,-1,0
1480627885231898,0,-3,-8,-8,-4,0,2,2
1480627885231898,2,10,4,-2,0,-1,0,-2
1480627885247439,1,3,11,3,1,1,0,3
1480627885247439,2,2,-3,-24,-9,-2,-1,-2
1480627885252953,1,-5,15,28,9,1,0,2
1480627885252953,-1,-4,-4,-4,0,2,0,0
1480627885260473,-4,-2,-7,4,-1,0,1,-1
1480627885260473,0,6,-5,-4,1,0,0,-1
1480627885269500,2,3,-2,-4,-3,-2,-2,-2
1480627885269500,-2,-6,-3,-6,-4,-1,-1,-2
1480627885285039,2,-2,-1,-3,-1,0,0,6
1480627885285039,-4,-1,-3,5,3,-2,-4,-14
1480627885286542,-1,4,-1,-4,-4,0,0,1
1480627885286542,-2,4,-5,4,0,-1,0,-2
1480627885314617,1,-1,-1,-3,-6,-2,0,-4
1480627885314617,4,4,5,3,2,-1,1,3
1480627885316121,0,7,-6,-19,-9,-3,0,0
1480627885316121,-6,-10,7,16,2,-3,-1,-2
1480627885320633,0,-1,-3,-7,0,-1,0,1
1480627885320633,-3,-12,-3,8,-2,0,0,2
1480627885330160,2,6,0,-1,1,-1,-2,0
1480627885330160,0,-10,14,2,-1,1,4,3
1480627885351716,-1,-4,10,3,3,-1,0,-1
1480627885351716,0,-5,-8,-6,-3,-1,0,1
1480627885353721,7,30,18,-1,1,1,1,0
1480627885353721,3,11,-12,-7,-4,-4,-2,-1
1480627885365755,-1,-3,-7,0,-2,-1,-2,-3
1480627885365755,-5,-10,-3,3,2,3,1,0
1480627885381294,1,-8,-4,0,3,0,-1,0
1480627885381294,0,0,4,5,2,-1,0,1
1480627885381795,-2,9,-1,-6,0,1,-1,-1
1480627885381795,1,7,-4,-1,1,0,-1,0
1480627885395832,-1,-2,-1,-6,-3,0,1,1
1480627885395832,3,6,6,2,2,2,0,0
1480627885404356,0,1,-6,-7,-2,-1,-1,-2
1480627885404356,-3,1,5,2,-4,-1,-2,0
1480627885405859,0,-3,-5,6,2,-1,-1,-2
1480627885405859,-2,-4,-3,-2,1,-2,0,-1
1480627885426916,1,-3,0,0,-4,-2,-1,-1
1480627885426916,-2,-30,3,-6,-1,-1,2,1
1480627885428421,-1,-4,-4,-10,0,-1,-1,3
1480627885428421,-1,3,-5,5,-3,-1,-2,-1
1480627885450481,8,24,39,12,5,2,3,3
1480627885450481,1,6,-3,0,0,-1,-1,0
1480627885451982,-2,-3,-9,-6,-3,0,-2,-2
1480627885451982,1,-2,-1,3,-1,0,1,0
1480627885463513,0,-4,-8,-3,3,0,0,-1
1480627885463513,-3,0,3,5,-1,1,0,-1
1480627885478051,-2,-5,0,3,0,-1,0,-1
1480627885478051,1,0,-6,-6,-2,-1,-3,-2
1480627885487578,0,-1,-10,8,2,-3,-2,0
1480627885487578,1,3,-3,-12,-10,-2,1,-2
1480627885489080,-6,-8,-4,9,5,0,0,0
1480627885489080,-2,-9,-8,-11,-3,-1,1,0
1480627885509635,-2,-2,-7,-2,-4,-1,-2,0
1480627885509635,-7,-6,3,1,3,3,1,1
1480627885511140,-1,7,3,2,-3,-4,-2,0
1480627885511140,0,5,4,6,1,0,0,0
1480627885539214,-4,0,-10,-12,-1,1,0,-2
1480627885539214,3,7,6,8,-4,-2,-2,0
1480627885541222,-2,0,-7,-2,-2,-2,0,-1
1480627885541222,-2,-10,-2,-6,0,-1,-1,4
1480627885547235,-4,-10,-1,2,-5,-1,-1,-8
1480627885547235,0,10,-5,-3,5,-1,-2,-1
1480627885553251,0,-11,-1,-6,-7,0,1,1
1480627885553251,1,5,0,-1,-2,-3,-2,2
1480627885568293,5,24,24,8,5,2,1,1
1480627885568293,1,6,-3,-1,-3,-3,0,-1
1480627885577317,0,-3,5,9,5,0,-1,0
1480627885577317,-2,1,-1,-11,-1,2,-1,-2
1480627885591854,0,-10,-8,6,2,-2,0,1
1480627885591854,2,-3,-2,-12,-6,-2,-1,-1
1480627885597871,1,7,4,16,1,-1,-1,-3
1480627885597871,-4,-6,-6,3,-3,0,-2,-2
1480627885606894,0,-3,-7,-8,-1,-4,-2,1
1480627885606894,2,0,-2,-13,0,1,2,4
1480627885608398,-3,2,1,6,0,1,-1,-4
1480627885608398,6,21,12,3,-2,1,1,-2
1480627885629454,-4,0,-8,2,-2,0,-2,-1
1480627885629454,4,7,1,-7,0,-2,0,0
1480627885630958,-3,-21,6,6,6,0,1,2
1480627885630958,-1,-7,-4,-5,-1,3,2,1
1480627885659535,-2,-2,-6,-3,-3,0,-1,1
1480627885659535,-1,-2,-3,-2,-1,-2,1,0
1480627885661039,0,4,-6,-11,0,1,0,-1
1480627885661039,-7,-29,10,15,2,1,1,0
1480627885673571,-5,-13,-5,-3,1,0,1,0
1480627885673571,1,-1,0,10,-2,-2,-3,-2
1480627885682094,0,1,-1,-3,-3,-3,-1,0
1480627885682094,1,3,-10,-14,-2,-2,-3,-3
1480627885690116,-4,-16,-20,-8,-5,-3,-1,-1
1480627885690116,-4,2,3,2,1,0,0,0
1480627885691622,-1,1,-5,1,-2,0,0,0
1480627885691622,1,2,-8,0,-2,-3,-1,-1
1480627885711673,1,-2,-2,-9,2,0,1,-1
1480627885711673,5,14,-3,12,5,-1,0,2
1480627885713679,-3,-8,-12,-19,-6,-4,-2,-2
1480627885713679,-3,2,4,9,0,-2,-1,-2
1480627885727215,0,2,11,11,2,-1,0,0
1480627885727215,1,0,2,-4,-3,0,0,-3
1480627885728719,-2,-2,-14,-16,-9,-3,-4,-2
1480627885728719,0,-7,5,0,3,3,2,2
1480627885750276,1,7,5,5,-2,-2,-1,-4
1480627885750276,-2,-5,1,3,3,1,-1,2
1480627885751780,-2,-4,0,-1,2,0,0,0
1480627885751780,-1,4,-4,-7,-3,-1,-5,-2
1480627885763812,2,1,4,1,2,0,-1,2
1480627885763812,-1,-5,-9,-2,-5,-4,-2,-2
1480627885770830,-1,2,-2,-2,0,1,1,-1
1480627885770830,2,5,1,-1,1,0,0,-1
1480627885787374,0,3,11,12,-1,-2,0,0
1480627885787374,-3,-6,-5,-3,-1,-1,0,-3
1480627885788879,-5,-22,-22,7,-1,-1,-1,-1
1480627885788879,-1,-11,4,3,1,-1,2,2
1480627885809934,-2,-8,-7,-13,-2,-1,-1,-3
1480627885809934,-6,-6,6,0,0,1,-2,-1
1480627885812442,2,6,-2,-5,1,1,1,0
1480627885812442,3,27,-21,-11,-1,-3,-3,-4
1480627885823972,-3,2,-3,-15,-6,1,2,0
1480627885823972,2,-4,5,32,1,-4,-2,-1
1480627885838009,4,17,9,-7,1,1,1,3
1480627885838009,-2,-1,-3,12,-1,-3,-1,-5
1480627885846030,10,9,0,7,-1,1,-1,8
1480627885846030,-1,0,6,-5,2,0,0,-1
1480627885854553,0,6,2,-8,-6,-1,0,-1
1480627885854553,-3,-3,-6,-4,0,-2,0,0
1480627885870095,-5,-12,-2,-6,-4,-1,-1,0
1480627885870095,-1,-5,6,4,1,0,0,1
1480627885871599,0,3,5,8,5,-1,-1,0
1480627885871599,11,43,24,-36,1,7,5,5
1480627885883634,-7,-3,7,42,-2,-4,-3,-4
1480627885883634,0,5,-9,-7,-2,1,-1,0
1480627885909198,2,4,12,7,-1,-1,1,-2
1480627885909198,-3,-10,-2,17,-4,-4,-3,-1
1480627885909700,2,4,-7,-18,0,1,-1,-3
1480627885909700,-2,0,3,-3,5,4,2,-1
1480627885938276,-4,-13,-13,-5,0,-1,1,2
1480627885938276,1,10,17,15,-2,-4,-3,-1
1480627885938777,-4,-10,2,-1,0,1,1,1
1480627885938777,0,-10,-23,-44,-5,-1,2,1
1480627885940782,-4,2,23,52,7,-3,-3,-5
