timestamp,roll,pitch,yaw
1480627869956759,-1.28665,0.189064,-1.85807
1480627869969794,-1.28635,0.188644,-1.85753
1480627870006893,-1.28627,0.188316,-1.85695
1480627870013410,-1.28588,0.188036,-1.85641
1480627870029453,-1.28573,0.187848,-1.85582
1480627870050509,-1.28562,0.187735,-1.85539
1480627870082093,-1.28576,0.1878,-1.85551
1480627870089613,-1.28576,0.1878,-1.85551
1480627870112173,-1.28576,0.1878,-1.85551
1480627870134734,-1.28576,0.1878,-1.85551
1480627870149773,-1.28562,0.187735,-1.85539
1480627870173837,-1.28562,0.187735,-1.85539
1480627870195895,-1.28562,0.187735,-1.85539
1480627870224471,-1.28562,0.187735,-1.85539
1480627870230487,-1.28562,0.187735,-1.85539
1480627870253048,-1.28562,0.187735,-1.85539
1480627870286137,-1.28562,0.187735,-1.85539
1480627870298169,-1.28562,0.187735,-1.85539
1480627870317219,-1.28556,0.187838,-1.85551
1480627870331757,-1.28503,0.187391,-1.85501
1480627870358328,-1.28463,0.186896,-1.8546
1480627870373369,-1.28434,0.186541,-1.85404
1480627870390915,-1.28412,0.186147,-1.85335
1480627870418489,-1.28405,0.185884,-1.85274
1480627870440546,-1.28393,0.185872,-1.85216
1480627870451074,-1.28392,0.185683,-1.85171
1480627870481155,-1.2838,0.185505,-1.8513
1480627870493186,-1.2838,0.185505,-1.8513
1480627870511235,-1.28371,0.18558,-1.85132
1480627870532291,-1.28371,0.18558,-1.85132
1480627870556355,-1.28371,0.18558,-1.85132
1480627870570896,-1.2838,0.185505,-1.8513
1480627870591951,-1.28367,0.185403,-1.85132
1480627870613007,-1.2838,0.185505,-1.8513
1480627870635566,-1.2838,0.185505,-1.8513
1480627870653620,-1.2838,0.185505,-1.8513
1480627870673166,-1.2838,0.185505,-1.8513
1480627870691213,-1.2838,0.185505,-1.8513
1480627870718285,-1.2838,0.185505,-1.8513
1480627870733325,-1.28371,0.18558,-1.85132
1480627870758893,-1.2838,0.185505,-1.8513
1480627870774435,-1.2838,0.185505,-1.8513
1480627870792984,-1.2838,0.185505,-1.8513
1480627870812035,-1.2838,0.185505,-1.8513
1480627870839608,-1.2838,0.185505,-1.8513
1480627870853146,-1.2838,0.185505,-1.8513
1480627870871193,-1.2838,0.185505,-1.8513
1480627870898265,-1.2838,0.185505,-1.8513
1480627870916313,-1.2838,0.185505,-1.8513
1480627870946894,-1.28359,0.185543,-1.85131
1480627870951909,-1.28359,0.185543,-1.85131
1480627870972963,-1.28359,0.185543,-1.85131
1480627870998531,-1.28359,0.185543,-1.85131
1480627871012067,-1.28359,0.185543,-1.85131
1480627871033124,-1.28357,0.18558,-1.85119
1480627871063704,-1.28372,0.185645,-1.8513
1480627871086766,-1.28359,0.185543,-1.85131
1480627871093282,-1.28372,0.185645,-1.8513
1480627871118851,-1.28347,0.185999,-1.85131
1480627871132387,-1.28347,0.185999,-1.85131
1480627871160462,-1.28378,0.186344,-1.85142
1480627871171992,-1.28378,0.186344,-1.85142
1480627871207086,-1.28378,0.186344,-1.85142
1480627871213103,-1.28378,0.186344,-1.85142
1480627871235663,-1.28376,0.186381,-1.8513
1480627871253712,-1.28376,0.186381,-1.8513
1480627871276270,-1.28382,0.186521,-1.85143
1480627871291310,-1.28382,0.186521,-1.85143
1480627871313870,-1.28382,0.186521,-1.85143
1480627871333422,-1.28382,0.186521,-1.85143
1480627871350968,-1.28367,0.186456,-1.85131
1480627871375033,-1.28382,0.186521,-1.85143
1480627871393080,-1.28382,0.186521,-1.85143
1480627871415641,-1.28391,0.186446,-1.85141
1480627871433689,-1.28403,0.186548,-1.8514
1480627871453243,-1.28394,0.186623,-1.85142
1480627871483320,-1.28403,0.186548,-1.8514
1480627871493848,-1.28403,0.186548,-1.8514
1480627871513401,-1.28394,0.186623,-1.85142
1480627871535963,-1.28394,0.186623,-1.85142
1480627871554009,-1.28394,0.186623,-1.85142
1480627871573059,-1.28409,0.186688,-1.85153
1480627871595619,-1.28407,0.186725,-1.8514
1480627871621692,-1.28407,0.186725,-1.8514
1480627871636228,-1.28407,0.186725,-1.8514
1480627871663299,-1.28407,0.186725,-1.8514
1480627871673827,-1.28407,0.186725,-1.8514
1480627871693380,-1.28398,0.1868,-1.85142
1480627871715438,-1.28399,0.186865,-1.8514
1480627871737998,-1.28399,0.186865,-1.8514
1480627871754545,-1.28399,0.186865,-1.8514
1480627871775598,-1.28399,0.186865,-1.8514
1480627871806680,-1.28399,0.186865,-1.8514
1480627871814703,-1.28399,0.186865,-1.8514
1480627871835758,-1.28414,0.18693,-1.85151
1480627871869348,-1.28412,0.186967,-1.85139
1480627871874862,-1.28412,0.186967,-1.85139
1480627871896921,-1.28426,0.187033,-1.8515
1480627871921488,-1.28412,0.186967,-1.85139
1480627871951065,-1.28412,0.186967,-1.85139
1480627871955576,-1.28403,0.187042,-1.85141
1480627871974628,-1.28403,0.187042,-1.85141
1480627871996185,-1.28403,0.187042,-1.85141
1480627872024761,-1.28403,0.187042,-1.85141
1480627872041807,-1.28403,0.187042,-1.85141
1480627872056345,-1.28417,0.187108,-1.85152
1480627872078405,-1.28417,0.187108,-1.85152
1480627872093945,-1.28417,0.187108,-1.85152
1480627872122020,-1.28417,0.187108,-1.85152
1480627872144582,-1.28417,0.187108,-1.85152
1480627872154106,-1.28404,0.187107,-1.85139
1480627872176164,-1.28395,0.187182,-1.8514
1480627872195716,-1.28395,0.187182,-1.8514
1480627872228804,-1.28404,0.187107,-1.85139
1480627872240837,-1.28419,0.187172,-1.8515
1480627872255877,-1.2841,0.187247,-1.85152
1480627872273422,-1.28408,0.187284,-1.85139
1480627872302502,-1.28408,0.187284,-1.85139
1480627872315534,-1.28408,0.187284,-1.85139
1480627872333585,-1.28408,0.187284,-1.85139
1480627872360654,-1.28408,0.187284,-1.85139
1480627872375696,-1.2841,0.187247,-1.85152
1480627872393744,-1.2841,0.187247,-1.85152
1480627872416805,-1.2841,0.187247,-1.85152
1480627872452902,-1.2841,0.187247,-1.85152
1480627872454905,-1.28408,0.187284,-1.85139
1480627872476462,-1.28408,0.187284,-1.85139
1480627872506543,-1.28416,0.187145,-1.85139
1480627872525594,-1.2843,0.18721,-1.85151
1480627872536122,-1.2843,0.18721,-1.85151
1480627872555673,-1.2843,0.18721,-1.85151
1480627872578234,-1.2843,0.18721,-1.85151
1480627872596282,-1.2843,0.18721,-1.85151
1480627872615833,-1.2843,0.18721,-1.85151
1480627872634383,-1.2843,0.18721,-1.85151
1480627872663460,-1.2843,0.18721,-1.85151
1480627872675492,-1.2843,0.18721,-1.85151
1480627872701060,-1.2843,0.18721,-1.85151
1480627872732645,-1.28443,0.187312,-1.8515
1480627872752704,-1.28443,0.187312,-1.8515
1480627872781273,-1.28443,0.187312,-1.8515
1480627872806842,-1.28428,0.187247,-1.85138
1480627872812858,-1.28428,0.187247,-1.85138
1480627872815867,-1.28443,0.187312,-1.8515
1480627872836424,-1.28443,0.187312,-1.8515
1480627872858980,-1.28443,0.187312,-1.8515
1480627872885551,-1.28434,0.187387,-1.85152
1480627872896080,-1.28434,0.187387,-1.85152
1480627872917135,-1.28435,0.187452,-1.85149
1480627872941199,-1.28435,0.187452,-1.85149
1480627872956239,-1.28435,0.187452,-1.85149
1480627872978800,-1.28435,0.187452,-1.85149
1480627873005872,-1.28426,0.187527,-1.85151
1480627873016901,-1.28426,0.187527,-1.85151
1480627873036957,-1.28426,0.187527,-1.85151
1480627873061018,-1.28426,0.187527,-1.85151
1480627873090096,-1.28424,0.187564,-1.85139
1480627873104634,-1.28439,0.187629,-1.8515
1480627873118170,-1.28439,0.187629,-1.8515
1480627873157274,-1.28439,0.187629,-1.8515
1480627873164794,-1.28439,0.187629,-1.8515
1480627873185853,-1.28439,0.187629,-1.8515
1480627873200890,-1.28453,0.187694,-1.85161
1480627873218436,-1.28451,0.187731,-1.85149
1480627873246010,-1.28451,0.187731,-1.85149
1480627873256540,-1.28466,0.187796,-1.8516
1480627873286124,-1.28466,0.187796,-1.8516
1480627873305669,-1.28457,0.187871,-1.85162
1480627873316197,-1.28458,0.187936,-1.8516
1480627873338757,-1.28456,0.187973,-1.85147
1480627873358308,-1.28458,0.187936,-1.8516
1480627873375856,-1.28456,0.187973,-1.85147
1480627873398416,-1.28447,0.188048,-1.85149
1480627873417967,-1.28447,0.188048,-1.85149
1480627873444037,-1.28462,0.188113,-1.85161
1480627873466096,-1.28462,0.188113,-1.85161
1480627873481136,-1.28462,0.188113,-1.85161
1480627873511717,-1.2846,0.18815,-1.85148
1480627873532773,-1.28475,0.188216,-1.8516
1480627873545808,-1.28475,0.188216,-1.8516
1480627873563855,-1.28475,0.188216,-1.8516
1480627873578895,-1.28475,0.188216,-1.8516
1480627873605967,-1.28475,0.188216,-1.8516
1480627873615994,-1.28475,0.188216,-1.8516
1480627873646576,-1.28467,0.188355,-1.85159
1480627873661114,-1.28467,0.188355,-1.85159
1480627873676158,-1.28465,0.188392,-1.85147
1480627873699718,-1.28479,0.188458,-1.85158
1480627873721276,-1.28479,0.188458,-1.85158
1480627873749850,-1.28479,0.188458,-1.85158
1480627873758373,-1.28479,0.188458,-1.85158
1480627873779931,-1.28479,0.188458,-1.85158
1480627873811020,-1.28471,0.188532,-1.8516
1480627873826053,-1.28471,0.188532,-1.8516
1480627873840090,-1.28492,0.18856,-1.85157
1480627873863653,-1.28483,0.188635,-1.85159
1480627873884710,-1.28483,0.188635,-1.85159
1480627873916796,-1.28483,0.188635,-1.85159
1480627873920805,-1.28483,0.188635,-1.85159
1480627873938853,-1.28483,0.188635,-1.85159
1480627873966930,-1.28483,0.188635,-1.85159
1480627873974451,-1.28499,0.188765,-1.85168
1480627874005029,-1.2849,0.18884,-1.8517
1480627874026587,-1.28497,0.188802,-1.85155
1480627874035611,-1.28488,0.188877,-1.85157
1480627874088250,-1.28496,0.188737,-1.85158
1480627874091761,-1.28488,0.188877,-1.85157
1480627874118332,-1.28488,0.188877,-1.85157
1480627874120837,-1.28503,0.188942,-1.85169
1480627874140389,-1.28503,0.188942,-1.85169
1480627874162949,-1.28503,0.188942,-1.85169
1480627874186014,-1.28503,0.188942,-1.85169
1480627874201052,-1.28503,0.188942,-1.85169
1480627874221104,-1.28503,0.188942,-1.85169
1480627874245169,-1.28501,0.188979,-1.85156
1480627874283269,-1.28501,0.188979,-1.85156
1480627874285777,-1.28501,0.188979,-1.85156
1480627874314355,-1.28492,0.189054,-1.85158
1480627874334405,-1.28506,0.189119,-1.85169
1480627874342427,-1.28506,0.189119,-1.85169
1480627874359473,-1.28506,0.189119,-1.85169
1480627874381531,-1.28506,0.189119,-1.85169
1480627874401585,-1.28505,0.189156,-1.85157
1480627874418629,-1.28505,0.189156,-1.85157
1480627874446203,-1.28505,0.189156,-1.85157
1480627874462747,-1.28505,0.189156,-1.85157
1480627874477787,-1.28519,0.189221,-1.85168
1480627874500347,-1.28519,0.189221,-1.85168
1480627874530427,-1.28519,0.189221,-1.85168
1480627874543964,-1.28517,0.189258,-1.85156
1480627874560508,-1.28517,0.189258,-1.85156
1480627874590086,-1.28517,0.189258,-1.85156
1480627874597605,-1.28511,0.189361,-1.85168
1480627874620166,-1.28509,0.189398,-1.85155
1480627874641222,-1.28524,0.189463,-1.85167
1480627874657766,-1.28524,0.189463,-1.85167
1480627874686343,-1.28524,0.189463,-1.85167
1480627874701382,-1.28524,0.189463,-1.85167
1480627874717926,-1.28524,0.189463,-1.85167
1480627874740486,-1.28524,0.189463,-1.85167
1480627874762043,-1.28524,0.189463,-1.85167
1480627874777586,-1.28537,0.189566,-1.85166
1480627874807665,-1.28537,0.189566,-1.85166
1480627874823206,-1.28537,0.189566,-1.85166
1480627874837751,-1.28537,0.189566,-1.85166
1480627874868326,-1.28537,0.189566,-1.85166
1480627874881362,-1.28537,0.189566,-1.85166
1480627874897905,-1.28537,0.189566,-1.85166
1480627874920967,-1.28537,0.189566,-1.85166
1480627874941521,-1.28537,0.189566,-1.85166
1480627874958065,-1.28528,0.189641,-1.85167
1480627874980625,-1.28528,0.189641,-1.85167
1480627875001181,-1.28537,0.189566,-1.85166
1480627875025243,-1.28537,0.189566,-1.85166
1480627875040284,-1.28537,0.189566,-1.85166
1480627875062844,-1.28537,0.189566,-1.85166
1480627875083900,-1.28537,0.189566,-1.85166
1480627875100444,-1.28528,0.189641,-1.85167
1480627875123004,-1.28542,0.189706,-1.85179
1480627875137542,-1.28542,0.189706,-1.85179
1480627875160102,-1.28542,0.189706,-1.85179
1480627875182662,-1.28542,0.189706,-1.85179
1480627875197201,-1.28528,0.189641,-1.85167
1480627875220262,-1.28528,0.189641,-1.85167
1480627875242822,-1.28528,0.189641,-1.85167
1480627875256860,-1.28528,0.189641,-1.85167
1480627875280423,-1.28528,0.189641,-1.85167
1480627875302986,-1.28542,0.189706,-1.85179
1480627875317020,-1.28541,0.189743,-1.85166
1480627875340081,-1.28541,0.189743,-1.85166
1480627875362641,-1.28541,0.189743,-1.85166
1480627875377180,-1.28542,0.189808,-1.85164
1480627875401745,-1.28541,0.189743,-1.85166
1480627875422801,-1.28541,0.189743,-1.85166
1480627875437340,-1.28541,0.189743,-1.85166
1480627875459901,-1.28541,0.189743,-1.85166
1480627875483462,-1.28541,0.189743,-1.85166
1480627875506023,-1.28541,0.189743,-1.85166
1480627875520062,-1.28541,0.189743,-1.85166
1480627875543623,-1.28541,0.189743,-1.85166
1480627875563676,-1.28541,0.189743,-1.85166
1480627875588242,-1.28542,0.189808,-1.85164
1480627875602783,-1.28542,0.189808,-1.85164
1480627875623836,-1.28533,0.189883,-1.85166
1480627875640380,-1.28533,0.189883,-1.85166
1480627875670961,-1.28542,0.189808,-1.85164
1480627875683996,-1.28542,0.189808,-1.85164
1480627875700040,-1.28542,0.189808,-1.85164
1480627875730120,-1.28542,0.189808,-1.85164
1480627875743655,-1.28542,0.189808,-1.85164
1480627875760198,-1.28542,0.189808,-1.85164
1480627875782759,-1.28533,0.189883,-1.85166
1480627875811334,-1.28533,0.189883,-1.85166
1480627875820359,-1.28533,0.189883,-1.85166
1480627875842919,-1.28533,0.189883,-1.85166
1480627875865479,-1.28533,0.189883,-1.85166
1480627875880520,-1.28533,0.189883,-1.85166
1480627875902585,-1.28533,0.189883,-1.85166
1480627875923635,-1.28533,0.189883,-1.85166
1480627875940679,-1.28524,0.189958,-1.85168
1480627875962738,-1.28524,0.189958,-1.85168
1480627875985298,-1.28525,0.190023,-1.85166
1480627876000839,-1.28525,0.190023,-1.85166
1480627876022897,-1.28537,0.190125,-1.85165
1480627876045457,-1.28539,0.190088,-1.85177
1480627876060999,-1.28536,0.19006,-1.85167
1480627876082556,-1.28536,0.19006,-1.85167
1480627876112636,-1.28551,0.190125,-1.85178
1480627876119658,-1.28551,0.190125,-1.85178
1480627876143719,-1.28549,0.190162,-1.85166
1480627876165280,-1.28551,0.190125,-1.85178
1480627876193852,-1.28552,0.19019,-1.85176
1480627876202883,-1.28537,0.190125,-1.85165
1480627876225938,-1.28537,0.190125,-1.85165
1480627876239474,-1.28537,0.190125,-1.85165
1480627876269056,-1.28543,0.190265,-1.85178
1480627876285095,-1.28541,0.190302,-1.85165
1480627876299637,-1.28556,0.190367,-1.85177
1480627876322697,-1.28556,0.190367,-1.85177
1480627876345256,-1.28556,0.190367,-1.85177
1480627876359794,-1.28556,0.190367,-1.85177
1480627876388871,-1.28556,0.190367,-1.85177
1480627876405415,-1.28556,0.190367,-1.85177
1480627876419455,-1.28556,0.190367,-1.85177
1480627876443015,-1.28556,0.190367,-1.85177
1480627876466078,-1.28554,0.190404,-1.85164
1480627876486131,-1.28569,0.190469,-1.85176
1480627876502675,-1.28569,0.190469,-1.85176
1480627876526237,-1.28581,0.190572,-1.85174
1480627876546290,-1.28567,0.190506,-1.85163
1480627876562834,-1.2856,0.190544,-1.85177
1480627876585396,-1.28561,0.190609,-1.85175
1480627876606450,-1.28561,0.190609,-1.85175
1480627876622493,-1.28561,0.190609,-1.85175
1480627876645053,-1.28561,0.190609,-1.85175
1480627876666110,-1.28561,0.190609,-1.85175
1480627876682652,-1.28573,0.190712,-1.85174
1480627876705213,-1.28573,0.190712,-1.85174
1480627876726270,-1.28573,0.190712,-1.85174
1480627876743314,-1.28573,0.190712,-1.85174
1480627876772894,-1.28577,0.190889,-1.85175
1480627876787933,-1.28577,0.190889,-1.85175
1480627876802978,-1.28577,0.190889,-1.85175
1480627876826034,-1.28577,0.190889,-1.85175
1480627876853608,-1.28577,0.190889,-1.85175
1480627876863133,-1.28577,0.190889,-1.85175
1480627876885194,-1.28577,0.190889,-1.85175
1480627876913768,-1.28592,0.190954,-1.85186
1480627876922792,-1.28592,0.190954,-1.85186
1480627876945853,-1.2859,0.190991,-1.85174
1480627876975434,-1.2859,0.190991,-1.85174
1480627876983453,-1.2859,0.190991,-1.85174
1480627877005011,-1.2859,0.190991,-1.85174
1480627877027570,-1.2859,0.190991,-1.85174
1480627877042611,-1.2859,0.190991,-1.85174
1480627877065672,-1.2859,0.190991,-1.85174
1480627877087730,-1.28605,0.191056,-1.85185
1480627877102773,-1.28605,0.191056,-1.85185
1480627877132851,-1.28603,0.191093,-1.85173
1480627877147890,-1.28608,0.191233,-1.85186
1480627877170452,-1.28594,0.191168,-1.85174
1480627877185995,-1.28595,0.191233,-1.85172
1480627877215069,-1.28595,0.191233,-1.85172
1480627877223090,-1.28595,0.191233,-1.85172
1480627877252672,-1.28586,0.191308,-1.85174
1480627877268211,-1.28586,0.191308,-1.85174
1480627877282248,-1.286,0.191373,-1.85186
1480627877305309,-1.286,0.191373,-1.85186
1480627877327870,-1.286,0.191373,-1.85186
1480627877341907,-1.286,0.191373,-1.85186
1480627877365470,-1.28593,0.191513,-1.85185
1480627877388030,-1.28593,0.191513,-1.85185
1480627877417608,-1.28593,0.191513,-1.85185
1480627877432649,-1.28578,0.191448,-1.85174
1480627877447688,-1.28593,0.191513,-1.85185
1480627877470248,-1.28593,0.191513,-1.85185
1480627877493811,-1.28591,0.19155,-1.85173
1480627877507848,-1.28625,0.19168,-1.85169
1480627877528905,-1.28688,0.191901,-1.85133
1480627877545448,-1.28721,0.192133,-1.85114
1480627877567507,-1.28721,0.192133,-1.85114
1480627877589063,-1.28721,0.192133,-1.85114
1480627877613630,-1.28721,0.192133,-1.85114
1480627877627667,-1.28762,0.192327,-1.85081
1480627877648727,-1.28808,0.19227,-1.85046
1480627877665267,-1.28807,0.192205,-1.85048
1480627877687827,-1.28876,0.192465,-1.8504
1480627877710387,-1.28945,0.192725,-1.85032
1480627877725427,-1.29047,0.193153,-1.85008
1480627877747987,-1.29132,0.193133,-1.85001
1480627877769046,-1.29132,0.193133,-1.85001
1480627877785588,-1.29132,0.193133,-1.85001
1480627877807645,-1.29132,0.193133,-1.85001
1480627877829704,-1.29132,0.193133,-1.85001
1480627877845747,-1.29209,0.193254,-1.84993
1480627877890866,-1.29256,0.193487,-1.84988
1480627877893374,-1.29256,0.193487,-1.84988
1480627877906910,-1.29256,0.193487,-1.84988
1480627877927967,-1.29269,0.193589,-1.84987
1480627877950526,-1.29269,0.193589,-1.84987
1480627877967571,-1.29269,0.193589,-1.84987
1480627877987624,-1.29307,0.193505,-1.84968
1480627878010184,-1.29307,0.193505,-1.84968
1480627878024724,-1.29307,0.193505,-1.84968
1480627878047784,-1.29307,0.193505,-1.84968
1480627878070345,-1.29292,0.19344,-1.84957
1480627878084884,-1.29295,0.193328,-1.84927
1480627878107944,-1.29288,0.193068,-1.84867
1480627878130505,-1.29301,0.192807,-1.84793
1480627878144542,-1.29314,0.193003,-1.84733
1480627878167604,-1.29259,0.19318,-1.84707
1480627878190163,-1.29166,0.193925,-1.84819
1480627878204702,-1.29326,0.193972,-1.84851
1480627878227764,-1.29455,0.194104,-1.84779
1480627878250826,-1.29328,0.194131,-1.8479
1480627878264864,-1.29154,0.194214,-1.84836
1480627878293939,-1.29049,0.194661,-1.84859
1480627878310484,-1.29042,0.195361,-1.84858
1480627878324521,-1.29144,0.195789,-1.84834
1480627878347583,-1.29263,0.196172,-1.84792
1480627878370142,-1.29325,0.196331,-1.84759
1480627878392702,-1.29279,0.196257,-1.84703
1480627878416264,-1.29182,0.196265,-1.84652
1480627878430302,-1.29185,0.196321,-1.84606
1480627878451358,-1.29276,0.196369,-1.8457
1480627878467902,-1.29433,0.196577,-1.84568
1480627878490963,-1.29596,0.197104,-1.84513
1480627878519039,-1.29734,0.19763,-1.84499
1480627878528564,-1.2972,0.197564,-1.84487
1480627878550622,-1.29734,0.19763,-1.84499
1480627878580202,-1.29734,0.19763,-1.84499
1480627878587721,-1.29845,0.197922,-1.84476
1480627878610281,-1.2997,0.19845,-1.84448
1480627878631337,-1.30058,0.198155,-1.84429
1480627878648382,-1.301,0.198147,-1.84425
1480627878670448,-1.301,0.198147,-1.84425
1480627878693001,-1.301,0.198147,-1.84425
1480627878715061,-1.30167,0.198624,-1.84434
1480627878730100,-1.30248,0.198926,-1.84428
1480627878753161,-1.30313,0.199338,-1.84438
1480627878775221,-1.3038,0.199712,-1.84461
1480627878790260,-1.30524,0.200145,-1.8448
1480627878811315,-1.30641,0.200475,-1.84485
1480627878835383,-1.30768,0.200731,-1.84489
1480627878850421,-1.30813,0.201076,-1.84515
1480627878872979,-1.30866,0.201385,-1.84527
1480627878888521,-1.30964,0.201544,-1.84562
1480627878910580,-1.31019,0.201574,-1.8456
1480627878938654,-1.31019,0.201574,-1.8456
1480627878947680,-1.31033,0.201639,-1.84572
1480627878970238,-1.31136,0.201904,-1.84567
1480627878998815,-1.31122,0.201839,-1.84555
1480627879013855,-1.31123,0.201801,-1.84567
1480627879030400,-1.31117,0.202227,-1.84598
1480627879052959,-1.31135,0.202299,-1.84627
1480627879082537,-1.31218,0.202738,-1.84662
1480627879090558,-1.31288,0.203326,-1.84675
1480627879113620,-1.31323,0.203919,-1.8473
1480627879136181,-1.31313,0.204661,-1.84762
1480627879151727,-1.31311,0.20533,-1.84792
1480627879179295,-1.31324,0.205433,-1.84791
1480627879195337,-1.3134,0.205888,-1.8482
1480627879210377,-1.31361,0.206415,-1.84864
1480627879232938,-1.31385,0.206626,-1.84907
1480627879246976,-1.31459,0.206967,-1.84961
1480627879270036,-1.31541,0.207832,-1.85001
1480627879294100,-1.31727,0.208926,-1.85093
1480627879313651,-1.31925,0.210331,-1.85156
1480627879332202,-1.32184,0.211303,-1.85245
1480627879352756,-1.32471,0.211881,-1.85345
1480627879390857,-1.32672,0.212164,-1.85382
1480627879393364,-1.3273,0.212153,-1.85393
1480627879412919,-1.32731,0.212221,-1.85391
1480627879433974,-1.32625,0.211996,-1.85383
1480627879450520,-1.32502,0.211493,-1.85373
1480627879472576,-1.3237,0.210993,-1.85324
1480627879493631,-1.32245,0.210136,-1.85241
1480627879510175,-1.31994,0.209195,-1.85136
1480627879546772,-1.31592,0.208912,-1.85029
1480627879553791,-1.31125,0.208118,-1.8497
1480627879570335,-1.30719,0.20749,-1.84924
1480627879606933,-1.30477,0.206798,-1.84884
1480627879621471,-1.3037,0.20622,-1.84848
1480627879637514,-1.30309,0.205492,-1.84836
1480627879652555,-1.30278,0.205044,-1.84839
1480627879681632,-1.30232,0.204772,-1.84855
1480627879692159,-1.30159,0.204723,-1.84877
1480627879718732,-1.30172,0.204826,-1.84876
1480627879735274,-1.30249,0.204948,-1.8487
1480627879750815,-1.30306,0.204939,-1.84881
1480627879780895,-1.30306,0.204939,-1.84881
1480627879818996,-1.30298,0.205079,-1.8488
1480627879833537,-1.30397,0.205555,-1.8489
1480627879836047,-1.30586,0.205939,-1.84918
1480627879855093,-1.30847,0.206631,-1.84946
1480627879884672,-1.31131,0.207983,-1.85014
1480627879900213,-1.31446,0.209513,-1.85157
1480627879915754,-1.31743,0.210798,-1.85287
1480627879929791,-1.32146,0.211741,-1.85381
1480627879953354,-1.3238,0.211941,-1.85426
1480627879975413,-1.32283,0.212035,-1.85477
1480627879989450,-1.32038,0.212192,-1.85492
1480627880013013,-1.31866,0.212053,-1.85475
1480627880036576,-1.31748,0.211163,-1.85423
1480627880049610,-1.3154,0.210281,-1.85314
1480627880103256,-1.31149,0.209087,-1.85191
1480627880105760,-1.30694,0.208009,-1.85116
1480627880111273,-1.30274,0.207253,-1.85062
1480627880140351,-1.30037,0.206416,-1.85005
1480627880155892,-1.30018,0.205605,-1.84948
1480627880169429,-1.30102,0.2053,-1.84911
1480627880192491,-1.30149,0.204974,-1.84907
1480627880215051,-1.30085,0.204777,-1.84885
1480627880229589,-1.29996,0.204618,-1.8489
1480627880252650,-1.29996,0.204618,-1.8489
1480627880275712,-1.30051,0.204321,-1.8487
1480627880303786,-1.3012,0.203847,-1.84835
1480627880312810,-1.30145,0.203662,-1.84817
1480627880341386,-1.30145,0.203662,-1.84817
1480627880355925,-1.30082,0.203466,-1.84795
1480627880389014,-1.30048,0.2034,-1.84797
1480627880402551,-1.3,0.203269,-1.84786
1480627880418094,-1.3,0.203269,-1.84786
1480627880432630,-1.3,0.203269,-1.84786
1480627880455690,-1.3,0.203269,-1.84786
1480627880476245,-1.3,0.203269,-1.84786
1480627880492789,-1.3,0.203269,-1.84786
1480627880515349,-1.30009,0.203195,-1.84785
1480627880537909,-1.30009,0.203195,-1.84785
1480627880552948,-1.3009,0.204062,-1.84823
1480627880575008,-1.30163,0.205733,-1.84847
1480627880596566,-1.3033,0.207319,-1.84908
1480627880612608,-1.30623,0.208324,-1.85004
1480627880635677,-1.30942,0.208901,-1.85057
1480627880656224,-1.31196,0.209831,-1.85027
1480627880672267,-1.31229,0.209677,-1.84993
1480627880695329,-1.3103,0.208945,-1.85005
1480627880717888,-1.30791,0.208606,-1.84993
1480627880732928,-1.30638,0.208317,-1.84973
1480627880754987,-1.3058,0.207797,-1.84906
1480627880777547,-1.30637,0.207422,-1.84799
1480627880799615,-1.30709,0.20662,-1.84702
1480627880815648,-1.306,0.205754,-1.84635
1480627880837706,-1.30411,0.204874,-1.84605
1480627880852245,-1.30227,0.204067,-1.84591
1480627880875808,-1.30122,0.203944,-1.8457
1480627880905387,-1.30146,0.203935,-1.84579
1480627880912909,-1.30196,0.20389,-1.84562
1480627880935470,-1.30278,0.203919,-1.84588
1480627880958029,-1.30311,0.204057,-1.84629
1480627880972064,-1.3028,0.204175,-1.84675
1480627880995126,-1.30176,0.204413,-1.84727
1480627881017686,-1.30079,0.204615,-1.84765
1480627881032726,-1.30079,0.204615,-1.84765
1480627881055286,-1.30079,0.204615,-1.84765
1480627881078347,-1.30079,0.204615,-1.84765
1480627881091883,-1.30017,0.204484,-1.84741
1480627881115446,-1.29961,0.20439,-1.84745
1480627881138007,-1.29961,0.20439,-1.84745
1480627881152042,-1.29959,0.204427,-1.84732
1480627881183628,-1.29959,0.204427,-1.84732
1480627881198667,-1.29968,0.204353,-1.84731
1480627881218722,-1.29932,0.204398,-1.84762
1480627881235768,-1.29864,0.204592,-1.84783
1480627881257824,-1.29817,0.204992,-1.84829
1480627881286400,-1.29785,0.205215,-1.84861
1480627881295424,-1.29776,0.205289,-1.84863
1480627881318486,-1.29778,0.205577,-1.84894
1480627881356085,-1.29894,0.206082,-1.84927
1480627881358091,-1.30158,0.206352,-1.84967
1480627881378148,-1.30376,0.206557,-1.84995
1480627881398700,-1.3049,0.206501,-1.85029
1480627881416246,-1.30537,0.206175,-1.85025
1480627881437804,-1.3042,0.205744,-1.85034
1480627881460363,-1.30244,0.205368,-1.85064
1480627881498465,-1.30072,0.205339,-1.85078
1480627881500971,-1.30005,0.205209,-1.85081
1480627881519019,-1.30005,0.205209,-1.85081
1480627881542583,-1.30005,0.205209,-1.85081
1480627881563638,-1.29921,0.204947,-1.85074
1480627881580182,-1.29838,0.204855,-1.8505
1480627881595224,-1.29792,0.204688,-1.85053
1480627881617782,-1.29741,0.204594,-1.8503
1480627881639339,-1.29733,0.204734,-1.8503
1480627881655883,-1.29733,0.204734,-1.8503
1480627881677942,-1.29733,0.204734,-1.8503
1480627881701508,-1.29733,0.204734,-1.8503
1480627881715041,-1.29759,0.206002,-1.85074
1480627881745622,-1.2995,0.207306,-1.85175
1480627881760661,-1.30322,0.208717,-1.85295
1480627881775703,-1.3076,0.209304,-1.85398
1480627881797761,-1.31082,0.209904,-1.85462
1480627881821336,-1.31223,0.210751,-1.85469
1480627881858422,-1.31214,0.210825,-1.85471
1480627881860931,-1.31087,0.210744,-1.8545
1480627881886497,-1.30923,0.21018,-1.85402
1480627881895020,-1.30796,0.209532,-1.85336
1480627881917584,-1.30719,0.208514,-1.85235
1480627881941643,-1.30567,0.207123,-1.85069
1480627881954678,-1.30357,0.205917,-1.84922
1480627881978241,-1.30126,0.205247,-1.84822
1480627882000344,-1.29969,0.204493,-1.84771
1480627882023361,-1.29954,0.203859,-1.84715
1480627882052940,-1.30034,0.203208,-1.84694
1480627882060459,-1.30009,0.202929,-1.84653
1480627882074498,-1.29951,0.202452,-1.84685
1480627882098561,-1.29837,0.202131,-1.84697
1480627882120118,-1.29771,0.202119,-1.84747
1480627882134661,-1.29768,0.202407,-1.84805
1480627882159225,-1.29821,0.202509,-1.84845
1480627882186295,-1.29821,0.202509,-1.84845
1480627882201840,-1.29794,0.202975,-1.84876
1480627882217882,-1.29712,0.203841,-1.84913
1480627882246455,-1.29691,0.204941,-1.84959
1480627882261494,-1.29977,0.206544,-1.85068
1480627882278540,-1.30409,0.207556,-1.85156
1480627882300599,-1.30949,0.208259,-1.85263
1480627882321153,-1.31328,0.208883,-1.85281
1480627882345217,-1.31324,0.2092,-1.85283
1480627882360257,-1.31006,0.209479,-1.85304
1480627882381313,-1.30609,0.209778,-1.85305
1480627882397858,-1.30454,0.210473,-1.85272
1480627882428441,-1.30563,0.210572,-1.8516
1480627882441974,-1.30732,0.21006,-1.85028
1480627882465036,-1.30661,0.209041,-1.849
1480627882480078,-1.30334,0.207865,-1.84819
1480627882508653,-1.29933,0.206853,-1.84776
1480627882517677,-1.29642,0.206308,-1.8474
1480627882548257,-1.29648,0.20588,-1.84709
1480627882561292,-1.29797,0.206089,-1.84668
1480627882577837,-1.29941,0.205355,-1.84655
1480627882600396,-1.29914,0.204523,-1.84659
1480627882622956,-1.29729,0.204388,-1.84675
1480627882637996,-1.29516,0.204432,-1.84691
1480627882660054,-1.29356,0.204215,-1.84675
1480627882690135,-1.29359,0.204169,-1.84643
1480627882705175,-1.29506,0.203817,-1.84602
1480627882720215,-1.29584,0.203866,-1.84553
1480627882742775,-1.29572,0.203586,-1.84526
1480627882757313,-1.2952,0.203277,-1.84515
1480627882780876,-1.29437,0.203183,-1.84492
1480627882802935,-1.2939,0.203117,-1.84479
1480627882817478,-1.2939,0.203117,-1.84479
1480627882846551,-1.29479,0.203446,-1.84457
1480627882862595,-1.29564,0.203532,-1.84436
1480627882877132,-1.29564,0.203532,-1.84436
1480627882900195,-1.29564,0.203532,-1.84436
1480627882923756,-1.2949,0.203689,-1.84429
1480627882937292,-1.2949,0.203689,-1.84429
1480627882967879,-1.29562,0.203569,-1.84424
1480627882982915,-1.2964,0.203759,-1.84415
1480627882996951,-1.2964,0.203759,-1.84415
1480627883020012,-1.29585,0.203832,-1.84403
1480627883061625,-1.29571,0.203767,-1.84391
1480627883061625,-1.296,0.204318,-1.84374
1480627883080173,-1.29672,0.204302,-1.84354
1480627883102733,-1.29695,0.204155,-1.84323
1480627883125293,-1.29706,0.204043,-1.84334
1480627883141335,-1.29662,0.203985,-1.84339
1480627883162893,-1.29619,0.204096,-1.84328
1480627883185453,-1.29619,0.204096,-1.84328
1480627883208012,-1.29619,0.204096,-1.84328
1480627883246615,-1.29619,0.204096,-1.84328
1480627883260653,-1.29647,0.204022,-1.84313
1480627883264162,-1.29677,0.203912,-1.84311
1480627883290232,-1.29733,0.204176,-1.8429
1480627883319810,-1.29733,0.204176,-1.8429
1480627883327831,-1.29742,0.204102,-1.84288
1480627883358915,-1.29707,0.204633,-1.84277
1480627883373453,-1.29707,0.204633,-1.84277
1480627883381975,-1.29761,0.205399,-1.84302
1480627883403031,-1.29845,0.206327,-1.84295
1480627883433115,-1.29944,0.206975,-1.84287
1480627883440133,-1.29999,0.207173,-1.84269
1480627883468709,-1.29999,0.207173,-1.84269
1480627883492775,-1.30001,0.207136,-1.84282
1480627883521847,-1.29992,0.20721,-1.84283
1480627883539895,-1.30001,0.207136,-1.84282
1480627883552929,-1.2999,0.207247,-1.84271
1480627883575491,-1.2999,0.207247,-1.84271
1480627883584515,-1.30058,0.207689,-1.84292
1480627883606573,-1.30084,0.207895,-1.84291
1480627883620110,-1.30084,0.207895,-1.84291
1480627883650189,-1.30084,0.207895,-1.84291
1480627883665230,-1.30015,0.2078,-1.84281
1480627883680269,-1.29935,0.207984,-1.84244
1480627883703832,-1.29843,0.207889,-1.8418
1480627883725389,-1.29745,0.207336,-1.84128
1480627883746445,-1.29716,0.206384,-1.84085
1480627883770510,-1.29638,0.205897,-1.84019
1480627883785047,-1.296,0.206316,-1.84004
1480627883800088,-1.29613,0.206419,-1.84004
1480627883830670,-1.2967,0.206309,-1.84028
1480627883853229,-1.29668,0.206346,-1.84016
1480627883859747,-1.29624,0.20653,-1.84047
1480627883882810,-1.29536,0.206191,-1.84025
1480627883905368,-1.29531,0.205948,-1.84026
1480627883935452,-1.29538,0.206479,-1.84055
1480627883944472,-1.29607,0.206744,-1.84048
1480627883965027,-1.29607,0.206744,-1.84048
1480627883995608,-1.29607,0.206744,-1.84048
1480627884010658,-1.29607,0.206744,-1.84048
1480627884026692,-1.29598,0.206818,-1.8405
1480627884047753,-1.29599,0.206884,-1.84048
1480627884062787,-1.29599,0.206884,-1.84048
1480627884085347,-1.29599,0.206884,-1.84048
1480627884106403,-1.29599,0.206884,-1.84048
1480627884122946,-1.29543,0.206722,-1.84054
1480627884145006,-1.29557,0.206788,-1.84066
1480627884166062,-1.29557,0.206788,-1.84066
1480627884182606,-1.29593,0.206184,-1.84035
1480627884205165,-1.29593,0.206184,-1.84035
1480627884226722,-1.29598,0.206324,-1.84048
1480627884242766,-1.29598,0.206324,-1.84048
1480627884264824,-1.29598,0.206324,-1.84048
1480627884286382,-1.29584,0.206258,-1.84037
1480627884302925,-1.29584,0.206258,-1.84037
1480627884325485,-1.29584,0.206258,-1.84037
1480627884346040,-1.29584,0.206258,-1.84037
1480627884362584,-1.29626,0.206354,-1.84019
1480627884385146,-1.29649,0.206346,-1.84029
1480627884407704,-1.29649,0.206346,-1.84029
1480627884423747,-1.29649,0.206346,-1.84029
1480627884445805,-1.29649,0.206346,-1.84029
1480627884466360,-1.29685,0.206375,-1.8404
1480627884490424,-1.29719,0.206339,-1.84053
1480627884504963,-1.29754,0.206303,-1.84066
1480627884535043,-1.29818,0.206156,-1.84077
1480627884550086,-1.29917,0.206141,-1.84085
1480627884566126,-1.30004,0.20609,-1.84091
1480627884588185,-1.30055,0.205943,-1.84088
1480627884604227,-1.30117,0.206076,-1.84112
1480627884632302,-1.30248,0.206408,-1.84132
1480627884647843,-1.30429,0.206696,-1.84134
1480627884661880,-1.30567,0.206602,-1.84124
1480627884685443,-1.30567,0.206602,-1.84124
1480627884715022,-1.30546,0.206469,-1.8414
1480627884731065,-1.30496,0.206512,-1.84158
1480627884746105,-1.3051,0.206578,-1.84169
1480627884767665,-1.3051,0.206578,-1.84169
1480627884797743,-1.3051,0.206578,-1.84169
1480627884829326,-1.3051,0.206578,-1.84169
1480627884842861,-1.3051,0.206578,-1.84169
1480627884844867,-1.30471,0.206762,-1.84173
1480627884870937,-1.30471,0.206762,-1.84173
1480627884904025,-1.30457,0.206696,-1.84162
1480627884909038,-1.30457,0.206696,-1.84162
1480627884926584,-1.30458,0.206762,-1.8416
1480627884955161,-1.30458,0.206762,-1.8416
1480627884962179,-1.30449,0.206836,-1.84161
1480627884985242,-1.30458,0.206762,-1.8416
1480627885013817,-1.30458,0.206762,-1.8416
1480627885036376,-1.30458,0.206762,-1.8416
1480627885045405,-1.30458,0.206659,-1.84174
1480627885075481,-1.30458,0.206659,-1.84174
1480627885106564,-1.30457,0.206696,-1.84162
1480627885111076,-1.305,0.206859,-1.84142
1480627885135645,-1.3052,0.206926,-1.84127
1480627885157700,-1.30529,0.206852,-1.84126
1480627885172740,-1.3052,0.206926,-1.84127
1480627885187780,-1.3052,0.206926,-1.84127
1480627885210340,-1.30529,0.206852,-1.84126
1480627885231396,-1.30529,0.206852,-1.84126
1480627885248442,-1.3052,0.206926,-1.84127
1480627885268998,-1.30521,0.206992,-1.84125
1480627885285539,-1.30521,0.206992,-1.84125
1480627885315118,-1.30521,0.206992,-1.84125
1480627885329156,-1.30521,0.206992,-1.84125
1480627885352718,-1.30521,0.206992,-1.84125
1480627885373774,-1.3052,0.206926,-1.84127
1480627885389817,-1.3052,0.206926,-1.84127
1480627885405358,-1.3052,0.206926,-1.84127
1480627885427919,-1.30535,0.206992,-1.84139
1480627885451481,-1.30535,0.206992,-1.84139
1480627885464516,-1.3052,0.206926,-1.84127
1480627885488580,-1.3052,0.206926,-1.84127
1480627885510137,-1.30529,0.206852,-1.84126
1480627885540218,-1.30529,0.206852,-1.84126
1480627885548238,-1.30514,0.206786,-1.84114
1480627885576314,-1.3052,0.206926,-1.84127
1480627885592357,-1.3052,0.206926,-1.84127
1480627885607897,-1.3052,0.206926,-1.84127
1480627885630457,-1.30505,0.20686,-1.84116
1480627885660036,-1.30492,0.206536,-1.84084
1480627885681092,-1.30511,0.206213,-1.84052
1480627885691118,-1.3051,0.206146,-1.84054
1480627885712676,-1.3051,0.206146,-1.84054
1480627885728217,-1.3051,0.206146,-1.84054
1480627885750781,-1.30512,0.206109,-1.84067
1480627885764816,-1.30521,0.206035,-1.84065
1480627885788379,-1.30521,0.206035,-1.84065
1480627885810937,-1.30519,0.206073,-1.84053
1480627885824473,-1.30568,0.206206,-1.84063
1480627885854052,-1.30563,0.205962,-1.84064
1480627885870596,-1.30563,0.205962,-1.84064
1480627885908196,-1.30538,0.20681,-1.84067
1480627885910703,-1.30656,0.207209,-1.84072
1480627885939780,-1.30757,0.207123,-1.84037
1480627885953818,-1.30844,0.207176,-1.8403
1480627885967858,-1.30774,0.207574,-1.84021
1480627885990414,-1.30734,0.208103,-1.84037
1480627886020997,-1.30819,0.208656,-1.84075
1480627886041552,-1.30815,0.209467,-1.84078
1480627886050074,-1.30822,0.210167,-1.84092
1480627886072636,-1.30853,0.210617,-1.8409
1480627886088174,-1.30857,0.210794,-1.84091
1480627886118255,-1.30859,0.211251,-1.84106
1480627886131291,-1.30881,0.211774,-1.84105
1480627886148335,-1.30883,0.211737,-1.84118
1480627886199974,-1.30883,0.211737,-1.84118
1480627886217521,-1.30883,0.211737,-1.84118
1480627886221529,-1.30881,0.211774,-1.84105
1480627886230052,-1.30881,0.211774,-1.84105
1480627886251610,-1.30942,0.212115,-1.84101
1480627886267655,-1.30953,0.212004,-1.84112
1480627886290212,-1.30913,0.212395,-1.84087
1480627886313274,-1.3081,0.213781,-1.84082
1480627886341349,-1.30757,0.21547,-1.84072
1480627886350376,-1.3076,0.217458,-1.83986
1480627886370930,-1.30825,0.217667,-1.83802
1480627886394991,-1.30944,0.215943,-1.83559
1480627886410533,-1.30935,0.216868,-1.83369
1480627886433594,-1.30761,0.216941,-1.83205
1480627886447130,-1.30757,0.216472,-1.83129
1480627886485231,-1.31013,0.215836,-1.82954
1480627886492751,-1.31473,0.215255,-1.8275
1480627886507791,-1.31822,0.215501,-1.82613
1480627886536367,-1.31934,0.214963,-1.82518
1480627886560431,-1.3201,0.215059,-1.82398
1480627886566950,-1.32061,0.214737,-1.82307
1480627886596527,-1.32053,0.214877,-1.82307
1480627886628111,-1.3234,0.215988,-1.82365
1480627886633627,-1.32797,0.215869,-1.82301
1480627886658191,-1.33092,0.215473,-1.82168
1480627886674236,-1.33095,0.215753,-1.82051
1480627886687269,-1.32997,0.216811,-1.82001
1480627886718353,-1.33021,0.217126,-1.8203
1480627886734397,-1.33167,0.216912,-1.82066
1480627886755449,-1.33344,0.217258,-1.82087
1480627886769989,-1.33506,0.217538,-1.82096
1480627886793051,-1.33578,0.21743,-1.82136
1480627886815116,-1.33578,0.21743,-1.82136
1480627886845189,-1.33578,0.21743,-1.82136
1480627886852709,-1.33569,0.217501,-1.82137
1480627886873764,-1.33624,0.217498,-1.82088
1480627886898331,-1.33604,0.217079,-1.8203
1480627886935931,-1.33515,0.216666,-1.81963
1480627886938938,-1.33437,0.216248,-1.81893
1480627886966513,-1.33368,0.215584,-1.81837
1480627886988570,-1.33174,0.214953,-1.81815
1480627886994085,-1.32937,0.215377,-1.81799
1480627887011632,-1.32713,0.215479,-1.81822
1480627887040210,-1.32419,0.215171,-1.8181
1480627887070788,-1.32094,0.21521,-1.81826
1480627887074298,-1.31787,0.214763,-1.81871
1480627887092847,-1.31577,0.214527,-1.81941
1480627887122927,-1.31559,0.213971,-1.82015
1480627887130450,-1.31615,0.214153,-1.82114
1480627887152506,-1.31716,0.214503,-1.82196
1480627887175066,-1.31837,0.214923,-1.82262
1480627887190106,-1.31941,0.21506,-1.82329
1480627887212667,-1.31909,0.215169,-1.82374
1480627887241243,-1.31932,0.215344,-1.82473
1480627887259291,-1.32041,0.216323,-1.82527
1480627887272828,-1.32211,0.217019,-1.82536
1480627887293882,-1.32325,0.217186,-1.82543
1480627887311429,-1.3232,0.217047,-1.82529
1480627887340506,-1.32228,0.216771,-1.8259
1480627887353542,-1.32132,0.216848,-1.82597
1480627887378107,-1.32132,0.216848,-1.82597
1480627887399163,-1.32203,0.217054,-1.8255
1480627887422725,-1.32342,0.217746,-1.82514
1480627887437765,-1.32456,0.219178,-1.82496
1480627887453307,-1.32524,0.222263,-1.82455
1480627887475866,-1.32761,0.224959,-1.82263
1480627887490405,-1.33186,0.225547,-1.82027
1480627887512464,-1.33225,0.225699,-1.81723
1480627887535525,-1.33082,0.224993,-1.8174
1480627887549563,-1.33175,0.225761,-1.81898
1480627887572624,-1.33238,0.22618,-1.81998
1480627887595185,-1.33124,0.226599,-1.82045
1480627887617744,-1.32757,0.226082,-1.82077
1480627887632785,-1.32198,0.224971,-1.82141
1480627887655345,-1.31747,0.224361,-1.82194
1480627887669886,-1.31613,0.225039,-1.82274
1480627887700469,-1.31816,0.224716,-1.82336
1480627887716006,-1.3219,0.223366,-1.82373
1480627887729541,-1.32581,0.22191,-1.82394
1480627887752603,-1.32676,0.221273,-1.82388
1480627887782683,-1.32518,0.220613,-1.82379
1480627887798225,-1.32319,0.220694,-1.8242
1480627887812763,-1.32311,0.220833,-1.82419
1480627887843344,-1.32525,0.221874,-1.82395
1480627887849864,-1.32652,0.221451,-1.82361
1480627887873926,-1.32477,0.219737,-1.8238
1480627887895483,-1.32136,0.218491,-1.82396
1480627887933085,-1.31877,0.218294,-1.82438
1480627887946117,-1.31776,0.216407,-1.82456
1480627887955142,-1.31947,0.215239,-1.82501
1480627887978704,-1.32139,0.215025,-1.82551
1480627887992741,-1.32247,0.21512,-1.82587
1480627888015302,-1.32181,0.215091,-1.82591
1480627888036358,-1.32081,0.214924,-1.82598
1480627888052401,-1.32013,0.214508,-1.8263
1480627888075461,-1.31945,0.213986,-1.82675
1480627888096518,-1.31817,0.213785,-1.82711
1480627888120081,-1.31808,0.213364,-1.82711
1480627888142641,-1.31885,0.212765,-1.82721
1480627888158181,-1.31904,0.212344,-1.82748
1480627888172721,-1.31882,0.212141,-1.82766
1480627888185754,-1.3185,0.211757,-1.8281
1480627888202299,-1.31829,0.211344,-1.82857
1480627888231879,-1.31767,0.210964,-1.82917
1480627888237894,-1.31661,0.210625,-1.82967
1480627888261958,-1.3158,0.210601,-1.83002
1480627888286022,-1.31572,0.21074,-1.83001
1480627888298054,-1.31618,0.210353,-1.83
1480627888320614,-1.31673,0.209504,-1.8298
1480627888343175,-1.3164,0.208596,-1.82967
1480627888358215,-1.31571,0.207726,-1.82985
1480627888380775,-1.31511,0.207344,-1.83001
1480627888403334,-1.31476,0.207038,-1.8302
1480627888422886,-1.31476,0.207038,-1.8302
1480627888440435,-1.31534,0.206824,-1.8306
1480627888462996,-1.31544,0.206751,-1.83058
1480627888478032,-1.31471,0.206588,-1.83093
1480627888500594,-1.31435,0.206523,-1.83138
1480627888523152,-1.31433,0.206526,-1.83182
1480627888538193,-1.31401,0.206144,-1.83226
1480627888560752,-1.31314,0.205983,-1.83248
1480627888591836,-1.31149,0.205795,-1.83261
1480627888598353,-1.3103,0.205632,-1.83282
1480627888620411,-1.3103,0.205528,-1.83296
1480627888645980,-1.31031,0.205594,-1.83295
1480627888661521,-1.31018,0.205627,-1.83224
1480627888684087,-1.3101,0.20541,-1.83152
1480627888703132,-1.30954,0.20485,-1.83097
1480627888719676,-1.30813,0.204298,-1.83048
1480627888743740,-1.30675,0.204027,-1.82986
1480627888763291,-1.30642,0.204057,-1.82929
1480627888781843,-1.30705,0.203731,-1.82895
1480627888800894,-1.30787,0.203546,-1.82888
1480627888822952,-1.30786,0.20348,-1.8289
1480627888839498,-1.30795,0.203407,-1.82889
1480627888862056,-1.30784,0.203654,-1.82918
1480627888883112,-1.30784,0.203654,-1.82918
1480627888907174,-1.30812,0.204045,-1.82961
1480627888929735,-1.3084,0.204606,-1.82989
1480627888951292,-1.30891,0.204462,-1.82986
1480627888960316,-1.30952,0.204416,-1.82965
1480627888990396,-1.30953,0.204378,-1.82978
1480627889004433,-1.30902,0.204384,-1.8294
1480627889025488,-1.30902,0.204384,-1.8294
1480627889040530,-1.30882,0.204453,-1.82885
1480627889071612,-1.30826,0.204556,-1.82816
1480627889085649,-1.3072,0.204411,-1.82733
1480627889103699,-1.30564,0.204064,-1.82642
1480627889123750,-1.30412,0.203399,-1.82551
1480627889145809,-1.30221,0.202353,-1.82464
1480627889160347,-1.30109,0.201032,-1.82473
1480627889184412,-1.30116,0.201355,-1.82531
1480627889200958,-1.30248,0.201692,-1.82506
1480627889228029,-1.30294,0.201682,-1.82459
1480627889260115,-1.30256,0.201162,-1.8249
1480627889267137,-1.30218,0.201598,-1.82581
1480627889284177,-1.30169,0.201821,-1.82643
1480627889303230,-1.3017,0.201939,-1.82689
1480627889334814,-1.30198,0.202566,-1.82714
1480627889341831,-1.3024,0.203128,-1.82755
1480627889362887,-1.30269,0.203651,-1.82794
1480627889394470,-1.30255,0.203585,-1.82782
1480627889400990,-1.30255,0.203585,-1.82782
1480627889426556,-1.30255,0.203585,-1.82782
1480627889448616,-1.30255,0.203585,-1.82782
1480627889460647,-1.30255,0.203585,-1.82782
1480627889490728,-1.30246,0.203658,-1.82784
1480627889518300,-1.30247,0.203724,-1.82782
1480627889522311,-1.30258,0.203541,-1.82751
1480627889545874,-1.30257,0.203475,-1.82753
1480627889565426,-1.30258,0.203541,-1.82751
1480627889587985,-1.30257,0.203475,-1.82753
1480627889618567,-1.30309,0.203398,-1.82748
1480627889628595,-1.3031,0.203464,-1.82746
1480627889640626,-1.30309,0.203502,-1.82734
1480627889663185,-1.303,0.203575,-1.82736
1480627889685745,-1.303,0.203575,-1.82736
1480627889724348,-1.30301,0.203537,-1.82748
1480627889733373,-1.30301,0.203537,-1.82748
1480627889754930,-1.30301,0.203537,-1.82748
1480627889761948,-1.30301,0.203537,-1.82748
1480627889792029,-1.30301,0.203537,-1.82748
1480627889805564,-1.30301,0.203537,-1.82748
1480627889820604,-1.303,0.203575,-1.82736
1480627889846172,-1.303,0.203575,-1.82736
1480627889865725,-1.303,0.203575,-1.82736
1480627889882269,-1.303,0.203575,-1.82736
1480627889910844,-1.303,0.203575,-1.82736
1480627889925897,-1.30254,0.20333,-1.82696
1480627889942941,-1.30226,0.203041,-1.82638
1480627889962995,-1.30232,0.202719,-1.82594
1480627889985556,-1.3019,0.20226,-1.82539
1480627890008115,-1.30171,0.202223,-1.82498
1480627890023156,-1.30185,0.202321,-1.82453
1480627890047721,-1.30258,0.202483,-1.82417
1480627890069782,-1.30258,0.202483,-1.82417
1480627890093342,-1.30291,0.202826,-1.82385
1480627890113897,-1.3032,0.202926,-1.82354
1480627890121918,-1.30335,0.202993,-1.82366
1480627890144478,-1.3031,0.203272,-1.82325
1480627890165536,-1.30362,0.2033,-1.82306
1480627890183584,-1.30443,0.203051,-1.82301
1480627890214164,-1.30451,0.203472,-1.82301
1480627890233217,-1.30483,0.204381,-1.82313
1480627890244245,-1.30555,0.204765,-1.8231
1480627890263294,-1.30678,0.205248,-1.82329
1480627890285854,-1.30728,0.205841,-1.82354
1480627890307913,-1.3072,0.20637,-1.8237
1480627890322953,-1.30705,0.206934,-1.824
1480627890348520,-1.30694,0.207352,-1.82413
1480627890380105,-1.30693,0.207286,-1.82415
1480627890392138,-1.30693,0.207286,-1.82415
1480627890405672,-1.30693,0.207286,-1.82415
1480627890436756,-1.30694,0.207352,-1.82413
1480627890443272,-1.30694,0.207352,-1.82413
1480627890465333,-1.30693,0.20739,-1.82401
1480627890483381,-1.30693,0.20739,-1.82401
1480627890505942,-1.30693,0.20739,-1.82401
1480627890533013,-1.30683,0.207463,-1.82402
1480627890543539,-1.30685,0.207425,-1.82415
1480627890563092,-1.30685,0.207425,-1.82415
1480627890585652,-1.30671,0.207358,-1.82403
1480627890604202,-1.30671,0.207358,-1.82403
1480627890623251,-1.30685,0.207425,-1.82415
1480627890655337,-1.30694,0.207352,-1.82413
1480627890670879,-1.30694,0.207352,-1.82413
1480627890683413,-1.30694,0.207352,-1.82413
1480627890705471,-1.30694,0.207352,-1.82413
1480627890724021,-1.30694,0.207352,-1.82413
1480627890743073,-1.30694,0.207352,-1.82413
1480627890768640,-1.3068,0.207285,-1.82401
1480627890788192,-1.3068,0.207285,-1.82401
1480627890810751,-1.30671,0.207358,-1.82403
1480627890825791,-1.30685,0.207425,-1.82415
1480627890849858,-1.30671,0.207358,-1.82403
1480627890865898,-1.30671,0.207358,-1.82403
1480627890892969,-1.30685,0.207425,-1.82415
1480627890916532,-1.30692,0.20683,-1.82401
1480627890924554,-1.30692,0.20683,-1.82401
1480627890948618,-1.30683,0.206903,-1.82402
1480627890976191,-1.30653,0.206516,-1.82403
1480627890999253,-1.30653,0.206516,-1.82403
1480627891005771,-1.30653,0.206516,-1.82403
1480627891027828,-1.30652,0.20645,-1.82405
1480627891044372,-1.30652,0.20645,-1.82405
1480627891065430,-1.30652,0.20645,-1.82405
1480627891087988,-1.30652,0.20645,-1.82405
1480627891105536,-1.30652,0.20645,-1.82405
1480627891125588,-1.30652,0.20645,-1.82405
1480627891148149,-1.30652,0.20645,-1.82405
1480627891178729,-1.30652,0.20645,-1.82405
1480627891201791,-1.30654,0.206412,-1.82417
1480627891208309,-1.30654,0.206412,-1.82417
1480627891227361,-1.30654,0.206412,-1.82417
1480627891252926,-1.30663,0.206339,-1.82415
1480627891277492,-1.30654,0.206412,-1.82417
1480627891286015,-1.30663,0.206339,-1.82415
1480627891307071,-1.30663,0.206339,-1.82415
1480627891345173,-1.30639,0.206345,-1.82405
1480627891348180,-1.30693,0.206622,-1.82429
1480627891374752,-1.30693,0.206622,-1.82429
1480627891388287,-1.3074,0.206796,-1.82427
1480627891405834,-1.30784,0.207524,-1.82408
1480627891425386,-1.30736,0.207387,-1.82398
1480627891450954,-1.3068,0.207285,-1.82401
1480627891466497,-1.30727,0.207526,-1.82398
1480627891485545,-1.3077,0.207627,-1.8238
1480627891508106,-1.3077,0.207627,-1.8238
1480627891534677,-1.3077,0.207627,-1.8238
1480627891545706,-1.3077,0.207627,-1.8238
1480627891570772,-1.3077,0.207627,-1.8238
1480627891585814,-1.3077,0.207627,-1.8238
1480627891622409,-1.3077,0.207627,-1.8238
1480627891627924,-1.3077,0.207627,-1.8238
1480627891659508,-1.3077,0.207627,-1.8238
1480627891665526,-1.3077,0.207627,-1.8238
1480627891688085,-1.3077,0.207627,-1.8238
1480627891706133,-1.3077,0.207627,-1.8238
1480627891728693,-1.3077,0.207627,-1.8238
1480627891757268,-1.3077,0.207627,-1.8238
1480627891766293,-1.30755,0.207561,-1.82369
1480627891792864,-1.30764,0.207488,-1.82367
1480627891815424,-1.30779,0.207554,-1.82379
1480627891826954,-1.30779,0.207554,-1.82379
1480627891847008,-1.30779,0.207554,-1.82379
1480627891875584,-1.30779,0.207554,-1.82379
1480627891902656,-1.30764,0.207488,-1.82367
1480627891921706,-1.30755,0.207561,-1.82369
1480627891929728,-1.30757,0.207522,-1.82381
1480627891961813,-1.30757,0.207522,-1.82381
1480627891981868,-1.30757,0.207522,-1.82381
1480627891988383,-1.30751,0.207383,-1.82368
1480627892005930,-1.30751,0.207383,-1.82368
1480627892036011,-1.30751,0.207383,-1.82368
1480627892048043,-1.30751,0.207383,-1.82368
1480627892066092,-1.30753,0.207345,-1.8238
1480627892089653,-1.30738,0.207278,-1.82368
1480627892111712,-1.30738,0.207278,-1.82368
1480627892126250,-1.30738,0.207278,-1.82368
1480627892148810,-1.30725,0.207174,-1.82369
1480627892176886,-1.30725,0.207174,-1.82369
1480627892185909,-1.30725,0.207174,-1.82369
1480627892208469,-1.30735,0.207101,-1.82367
1480627892237046,-1.30734,0.207035,-1.82369
1480627892250581,-1.30734,0.207035,-1.82369
1480627892276650,-1.30734,0.207035,-1.82369
1480627892292695,-1.30734,0.207035,-1.82369
1480627892313749,-1.3072,0.207034,-1.82356
1480627892334304,-1.30722,0.206996,-1.82368
1480627892368394,-1.30721,0.20693,-1.8237
1480627892371904,-1.30721,0.20693,-1.8237
1480627892420031,-1.30721,0.20693,-1.8237
1480627892440587,-1.3073,0.206857,-1.82368
1480627892443095,-1.3073,0.206857,-1.82368
1480627892456128,-1.3073,0.206857,-1.82368
1480627892469664,-1.3073,0.206857,-1.82368
1480627892501251,-1.3073,0.206857,-1.82368
1480627892516792,-1.3073,0.206857,-1.82368
1480627892530828,-1.30715,0.206791,-1.82356
1480627892550879,-1.30717,0.206752,-1.82369
1480627892568428,-1.30717,0.206752,-1.82369
1480627892595499,-1.30717,0.206752,-1.82369
1480627892613550,-1.30717,0.206752,-1.82369
1480627892628587,-1.30702,0.206686,-1.82357
1480627892648139,-1.30702,0.206686,-1.82357
1480627892701280,-1.30717,0.206752,-1.82369
1480627892733368,-1.30702,0.206686,-1.82357
1480627892735877,-1.30675,0.206651,-1.82386
1480627892761440,-1.30675,0.206651,-1.82386
1480627892792523,-1.3066,0.206585,-1.82374
1480627892795030,-1.3066,0.206585,-1.82374
1480627892808566,-1.3066,0.206585,-1.82374
1480627892829622,-1.3066,0.206585,-1.82374
1480627892850677,-1.3066,0.206585,-1.82374
1480627892868727,-1.3066,0.206585,-1.82374
1480627892889280,-1.3066,0.206585,-1.82374
1480627892910337,-1.3066,0.206585,-1.82374
1480627892928385,-1.3066,0.206585,-1.82374
1480627892949443,-1.30647,0.20648,-1.82375
1480627892972000,-1.30647,0.20648,-1.82375
1480627892988549,-1.30648,0.206546,-1.82373
1480627893011606,-1.30647,0.20648,-1.82375
1480627893038176,-1.30647,0.20648,-1.82375
1480627893056224,-1.30647,0.20648,-1.82375
1480627893070773,-1.30647,0.20648,-1.82375
1480627893090816,-1.30647,0.20648,-1.82375
1480627893112875,-1.30647,0.20648,-1.82375
1480627893147468,-1.30647,0.20648,-1.82375
1480627893151981,-1.30647,0.20648,-1.82375
1480627893169024,-1.30647,0.20648,-1.82375
1480627893198603,-1.30656,0.206407,-1.82373
1480627893235201,-1.30656,0.206407,-1.82373
1480627893238711,-1.30641,0.206341,-1.82361
1480627893267790,-1.30656,0.206407,-1.82373
1480627893289845,-1.30656,0.206407,-1.82373
1480627893309900,-1.30642,0.206237,-1.82376
1480627893312406,-1.30656,0.206407,-1.82373
1480627893349005,-1.30656,0.206407,-1.82373
1480627893370059,-1.30656,0.206407,-1.82373
1480627893372566,-1.30641,0.206341,-1.82361
1480627893394123,-1.30643,0.206303,-1.82374
1480627893432225,-1.30643,0.206303,-1.82374
1480627893454283,-1.30643,0.206303,-1.82374
1480627893482860,-1.30643,0.206303,-1.82374
1480627893484864,-1.30643,0.206303,-1.82374
1480627893513942,-1.30643,0.206303,-1.82374
1480627893533498,-1.30643,0.206303,-1.82374
1480627893543521,-1.30643,0.206303,-1.82374
1480627893558561,-1.30643,0.206303,-1.82374
1480627893587136,-1.30643,0.206303,-1.82374
1480627893593154,-1.30629,0.206236,-1.82362
1480627893618721,-1.3063,0.206198,-1.82375
1480627893638274,-1.3063,0.206198,-1.82375
1480627893648301,-1.3063,0.206198,-1.82375
1480627893679884,-1.3063,0.206198,-1.82375
1480627893700940,-1.3063,0.206198,-1.82375
1480627893708461,-1.3063,0.206198,-1.82375
1480627893731021,-1.30616,0.206131,-1.82363
1480627893759596,-1.30616,0.206131,-1.82363
1480627893835297,-1.3055,0.206376,-1.82338
1480627893837804,-1.30521,0.207214,-1.82324
1480627893865377,-1.30959,0.211515,-1.82108
1480627893893953,-1.31247,0.211316,-1.81987
1480627893901975,-1.31314,0.210612,-1.81955
1480627893918518,-1.31425,0.212779,-1.81962
1480627893932059,-1.31894,0.214166,-1.81866
1480627893978178,-1.32424,0.214399,-1.8175
1480627893983692,-1.32689,0.214891,-1.81652
1480627894008257,-1.32713,0.215591,-1.81593
1480627894014775,-1.32667,0.216013,-1.81539
1480627894038853,-1.32643,0.216468,-1.81483
1480627894059393,-1.32696,0.216047,-1.81407
1480627894075939,-1.32701,0.215276,-1.81347
1480627894091484,-1.32701,0.215276,-1.81347
1480627894118050,-1.32721,0.214294,-1.8133
1480627894140610,-1.32685,0.213311,-1.81301
1480627894151137,-1.32634,0.212716,-1.81275
1480627894173698,-1.32604,0.212327,-1.81275
1480627894193250,-1.32554,0.211733,-1.81249
1480627894210797,-1.32469,0.210999,-1.81225
1480627894233359,-1.32436,0.210327,-1.81238
1480627894254412,-1.32343,0.209626,-1.81228
1480627894279479,-1.32273,0.208959,-1.81217
1480627894294018,-1.32236,0.208365,-1.81205
1480627894313068,-1.32236,0.208365,-1.81205
1480627894346660,-1.32243,0.20857,-1.81217
1480627894361196,-1.32325,0.208327,-1.81213
1480627894373228,-1.32424,0.207874,-1.81207
1480627894405815,-1.3241,0.207702,-1.81209
1480627894412834,-1.32337,0.207806,-1.81214
1480627894448428,-1.32337,0.207806,-1.81214
1480627894458460,-1.32337,0.207806,-1.81214
1480627894481016,-1.32257,0.207488,-1.81174
1480627894510092,-1.32196,0.207347,-1.81106
1480627894512599,-1.32142,0.207345,-1.81051
1480627894541677,-1.31972,0.207691,-1.81046
1480627894593314,-1.31769,0.207964,-1.81042
1480627894601336,-1.31609,0.207962,-1.81066
1480627894621891,-1.31308,0.207579,-1.81128
1480627894645954,-1.31152,0.207862,-1.81139
1480627894653476,-1.31116,0.208352,-1.81184
1480627894676034,-1.31244,0.208811,-1.81234
1480627894697092,-1.31314,0.209373,-1.81258
1480627894713634,-1.3128,0.210185,-1.81277
1480627894734753,-1.31306,0.210987,-1.81331
1480627894758754,-1.31327,0.212113,-1.81318
1480627894781314,-1.31408,0.212705,-1.81284
1480627894794849,-1.31737,0.213582,-1.81252
1480627894818412,-1.32069,0.215688,-1.81164
1480627894833456,-1.32343,0.216286,-1.81049
1480627894871557,-1.32579,0.216853,-1.80966
1480627894875564,-1.32643,0.217594,-1.80936
1480627894898124,-1.32712,0.217701,-1.8099
1480627894914670,-1.33043,0.218203,-1.80946
1480627894936227,-1.33316,0.218291,-1.80819
1480627894953271,-1.33397,0.217875,-1.80771
1480627894975330,-1.33238,0.217134,-1.80764
1480627894997891,-1.32984,0.215928,-1.80773
1480627895012930,-1.32781,0.21497,-1.80737
1480627895034992,-1.32631,0.213876,-1.80699
1480627895065069,-1.32482,0.212676,-1.80676
1480627895073599,-1.32331,0.211237,-1.8067
1480627895095149,-1.32148,0.209792,-1.80664
1480627895123725,-1.31968,0.208942,-1.8073
1480627895138765,-1.31779,0.208937,-1.80769
1480627895155310,-1.31672,0.208586,-1.80819
1480627895177869,-1.31704,0.208167,-1.80859
1480627895192407,-1.31739,0.207964,-1.80888
1480627895215469,-1.31741,0.207925,-1.80901
1480627895237027,-1.31702,0.207503,-1.80917
1480627895261090,-1.31607,0.206908,-1.80937
1480627895275128,-1.31478,0.206801,-1.80959
1480627895297688,-1.31426,0.206768,-1.80977
1480627895320247,-1.31432,0.206413,-1.80989
1480627895343310,-1.31363,0.20603,-1.81009
1480627895356343,-1.31234,0.205924,-1.81031
1480627895372888,-1.31111,0.205823,-1.81027
1480627895402971,-1.31038,0.205538,-1.81016
1480627895416506,-1.30964,0.205187,-1.81006
1480627895432547,-1.30916,0.204943,-1.8101
1480627895455609,-1.30855,0.204763,-1.80998
1480627895476163,-1.30799,0.204658,-1.81002
1480627895498723,-1.30735,0.204794,-1.80991
1480627895515271,-1.30678,0.204792,-1.8098
1480627895543842,-1.30677,0.204727,-1.80982
1480627895552866,-1.30626,0.204865,-1.80984
1480627895582948,-1.3054,0.204865,-1.8099
1480627895596483,-1.30435,0.20501,-1.80999
1480627895621552,-1.30435,0.20501,-1.80999
1480627895649626,-1.30561,0.204832,-1.80989
1480627895656141,-1.30616,0.204482,-1.80972
1480627895672685,-1.30553,0.203915,-1.80988
1480627895695746,-1.30425,0.20378,-1.80957
1480627895716302,-1.30361,0.20339,-1.8089
1480627895733347,-1.30441,0.202014,-1.80826
1480627895755405,-1.30635,0.200612,-1.80729
1480627895776461,-1.30964,0.19949,-1.80676
1480627895793006,-1.31222,0.198482,-1.80645
1480627895824088,-1.31338,0.19803,-1.8061
1480627895836624,-1.3124,0.198583,-1.80558
1480627895852664,-1.31174,0.198641,-1.80489
1480627895875225,-1.31244,0.196642,-1.8037
1480627895898286,-1.31421,0.192903,-1.80176
1480627895913827,-1.31489,0.188354,-1.79876
1480627895935389,-1.3149,0.182536,-1.7944
1480627895957944,-1.30935,0.174713,-1.78873
1480627895971981,-1.29907,0.166062,-1.78302
1480627896002563,-1.2893,0.158081,-1.77761
1480627896025122,-1.28132,0.152562,-1.77293
1480627896032142,-1.27497,0.148709,-1.76835
1480627896055203,-1.27064,0.146641,-1.76364
1480627896085283,-1.26706,0.145637,-1.75923
1480627896100326,-1.2623,0.146073,-1.75613
1480627896128898,-1.25505,0.149191,-1.75537
1480627896137923,-1.24828,0.150284,-1.75472
1480627896158477,-1.24077,0.149549,-1.75348
1480627896175021,-1.2341,0.150761,-1.75006
1480627896197582,-1.23008,0.146478,-1.74609
1480627896226659,-1.22222,0.139289,-1.74366
1480627896242704,-1.20782,0.131228,-1.7423
1480627896258243,-1.19571,0.120406,-1.74216
1480627896287821,-1.19024,0.107972,-1.74257
1480627896296849,-1.18849,0.0954628,-1.74222
1480627896318907,-1.18591,0.0820451,-1.74131
1480627896338958,-1.18204,0.0679603,-1.74091
1480627896355502,-1.17571,0.0542285,-1.74144
1480627896378063,-1.16838,0.040402,-1.74242
1480627896400624,-1.16204,0.0253992,-1.74214
1480627896415664,-1.15771,0.0083587,-1.74081
1480627896438222,-1.15339,-0.00809795,-1.74056
1480627896473315,-1.14939,-0.0213178,-1.74165
1480627896497380,-1.14764,-0.0327096,-1.7431
1480627896505402,-1.14805,-0.0430428,-1.7442
1480627896526456,-1.14769,-0.0523171,-1.74408
1480627896534979,-1.14586,-0.0608152,-1.7441
1480627896557539,-1.14281,-0.0680219,-1.74476
1480627896578595,-1.1401,-0.0719616,-1.74534
1480627896595139,-1.13777,-0.0730002,-1.74602
1480627896618200,-1.13779,-0.0729868,-1.74697
1480627896655800,-1.14062,-0.0746001,-1.74901
1480627896658308,-1.1396,-0.0766154,-1.75148
1480627896677860,-1.13337,-0.078131,-1.75375
1480627896698916,-1.12532,-0.0803274,-1.7553
1480627896722478,-1.11836,-0.0831902,-1.75593
1480627896738521,-1.11317,-0.085541,-1.75562
1480627896766094,-1.10917,-0.0869291,-1.75496
1480627896776121,-1.10513,-0.0879526,-1.75438
1480627896805199,-1.10055,-0.0888978,-1.75408
1480627896818733,-1.09753,-0.0898191,-1.7537
1480627896835280,-1.09612,-0.0909464,-1.75298
1480627896865359,-1.0937,-0.0922083,-1.75142
1480627896880398,-1.08955,-0.0930344,-1.74922
1480627896895941,-1.08413,-0.0935971,-1.74807
1480627896917497,-1.08012,-0.0942524,-1.74771
1480627896940057,-1.08029,-0.0948873,-1.74675
1480627896955097,-1.08034,-0.0955695,-1.74503
1480627896985177,-1.07872,-0.0957961,-1.74443
1480627897000219,-1.07738,-0.0959321,-1.74369
1480627897015260,-1.07446,-0.0970927,-1.74245
1480627897043832,-1.07021,-0.0975445,-1.74175
1480627897060377,-1.06653,-0.0979923,-1.74112
1480627897082437,-1.06379,-0.0985334,-1.74075
1480627897097978,-1.06293,-0.0991194,-1.74014
1480627897127555,-1.06432,-0.0991823,-1.73926
1480627897134575,-1.0664,-0.0986287,-1.73837
1480627897172676,-1.06652,-0.0979443,-1.73729
1480627897180196,-1.06574,-0.0973474,-1.73642
1480627897195236,-1.06499,-0.0968837,-1.73587
1480627897218296,-1.06461,-0.0961567,-1.73536
1480627897240356,-1.06546,-0.0954246,-1.73498
1480627897261412,-1.06659,-0.0952044,-1.73493
1480627897285476,-1.06659,-0.0952044,-1.73493
1480627897301024,-1.06656,-0.0955736,-1.73518
1480627897314554,-1.06711,-0.0960525,-1.73513
1480627897337615,-1.0677,-0.0969162,-1.7352
1480627897360676,-1.06672,-0.0979228,-1.73517
1480627897381231,-1.0666,-0.0987431,-1.73548
1480627897405798,-1.06839,-0.0990978,-1.73605
1480627897427854,-1.07071,-0.0989921,-1.73657
1480627897442896,-1.07205,-0.0986117,-1.73721
1480627897457434,-1.07178,-0.0982458,-1.73788
1480627897487513,-1.07015,-0.0979923,-1.73836
1480627897501552,-1.06806,-0.0977256,-1.73887
1480627897524611,-1.06666,-0.0974875,-1.73942
1480627897540153,-1.06587,-0.0971515,-1.74
1480627897568729,-1.06488,-0.096782,-1.74091
1480627897577753,-1.06233,-0.0957799,-1.74314
1480627897600314,-1.05724,-0.093461,-1.74599
1480627897621369,-1.05216,-0.0911038,-1.74842
1480627897637914,-1.04917,-0.0894386,-1.7498
1480627897660975,-1.04691,-0.088352,-1.75053
1480627897682533,-1.0457,-0.0873529,-1.75135
1480627897697572,-1.04515,-0.0865347,-1.75211
1480627897720132,-1.04513,-0.086492,-1.75196
1480627897741189,-1.04525,-0.0864262,-1.75204
1480627897765254,-1.04426,-0.0863356,-1.7521
1480627897787813,-1.04324,-0.0862024,-1.752
1480627897801350,-1.04364,-0.086301,-1.75175
1480627897817391,-1.04366,-0.0863436,-1.7519
1480627897847473,-1.04366,-0.0863436,-1.7519
1480627897868527,-1.04326,-0.0861534,-1.7513
1480627897877551,-1.0438,-0.0851381,-1.75091
1480627897901114,-1.04566,-0.083223,-1.75061
1480627897928687,-1.05169,-0.0811181,-1.74904
1480627897937712,-1.05925,-0.0805267,-1.74676
1480627897960772,-1.06414,-0.0810245,-1.7448
1480627897982831,-1.06744,-0.0813003,-1.74348
1480627898003386,-1.06661,-0.0827413,-1.74078
1480627898019929,-1.06405,-0.0828631,-1.73855
1480627898043492,-1.06159,-0.0833812,-1.73682
1480627898065050,-1.05938,-0.0851576,-1.735
1480627898080091,-1.05722,-0.0859683,-1.73423
1480627898103151,-1.05553,-0.0870712,-1.73366
1480627898117189,-1.05485,-0.0887464,-1.73293
1480627898141754,-1.05446,-0.0899436,-1.73207
1480627898170330,-1.05239,-0.0910353,-1.73123
1480627898177850,-1.05033,-0.0920739,-1.73134
1480627898200412,-1.04848,-0.0928738,-1.7317
1480627898239013,-1.04696,-0.0929146,-1.73184
1480627898244027,-1.04357,-0.0928771,-1.7321
1480627898261071,-1.03758,-0.0925893,-1.73308
1480627898283129,-1.02974,-0.0916397,-1.73481
1480627898303685,-1.02057,-0.0897054,-1.73715
1480627898320729,-1.01206,-0.0873584,-1.73902
1480627898342788,-1.00633,-0.085728,-1.74066
1480627898365352,-1.00338,-0.0852399,-1.74244
1480627898380389,-1.00343,-0.0834028,-1.74402
1480627898402950,-1.00399,-0.0824304,-1.74554
1480627898423503,-1.00794,-0.0825085,-1.74626
1480627898441052,-1.01284,-0.0817264,-1.74579
1480627898470127,-1.01603,-0.0819606,-1.74565
1480627898483664,-1.01748,-0.0825315,-1.74515
1480627898500209,-1.01703,-0.0830796,-1.7444
1480627898522767,-1.0155,-0.0838197,-1.74412
1480627898551343,-1.01415,-0.0844937,-1.7436
1480627898560367,-1.01402,-0.0847165,-1.74276
1480627898582928,-1.01439,-0.0852071,-1.74182
1480627898604487,-1.01463,-0.0863184,-1.74114
1480627898620026,-1.01398,-0.0868096,-1.74031
1480627898643088,-1.0125,-0.0871262,-1.74002
1480627898665149,-1.01133,-0.0881396,-1.7397
1480627898681189,-1.01078,-0.0889509,-1.73894
1480627898702746,-1.00909,-0.0892777,-1.73833
1480627898723802,-1.00675,-0.0897495,-1.73758
1480627898747870,-1.0062,-0.090647,-1.737
1480627898762405,-1.00678,-0.0910231,-1.73649
1480627898784965,-1.00756,-0.0913902,-1.73632
1480627898800006,-1.00756,-0.0913902,-1.73632
1480627898830086,-1.00756,-0.0913902,-1.73632
1480627898845125,-1.00637,-0.091225,-1.73658
1480627898860668,-1.00496,-0.0914705,-1.73693
1480627898883226,-1.00485,-0.0918053,-1.73777
1480627898905788,-1.00586,-0.0916864,-1.73845
1480627898919323,-1.00678,-0.0913586,-1.73895
1480627898943888,-1.00645,-0.0915098,-1.73939
1480627898964944,-1.00576,-0.0917111,-1.74014
1480627898979484,-1.00477,-0.0916858,-1.74065
1480627899002545,-1.00407,-0.0917608,-1.74108
1480627899033126,-1.00368,-0.0917435,-1.7415
1480627899039642,-1.00339,-0.0915498,-1.7421
1480627899062704,-1.00339,-0.0915498,-1.7421
1480627899085264,-1.00339,-0.0915498,-1.7421
1480627899099803,-1.00269,-0.091457,-1.74219
1480627899122865,-1.00181,-0.0912796,-1.74261
1480627899144922,-1.00142,-0.0914126,-1.74295
1480627899175003,-1.00142,-0.0914126,-1.74295
1480627899183526,-1.00142,-0.0914126,-1.74295
1480627899205083,-1.00114,-0.0912439,-1.74328
1480627899227643,-1.00121,-0.0914273,-1.74372
1480627899256219,-1.00153,-0.0912423,-1.74423
1480627899265245,-1.00175,-0.0909315,-1.74473
1480627899286298,-1.00165,-0.0908475,-1.74473
1480627899308858,-1.00099,-0.0903265,-1.74481
1480627899331430,-1,-0.0903084,-1.74464
1480627899346459,-0.999898,-0.0904848,-1.74447
1480627899362502,-1.00018,-0.0904194,-1.74405
1480627899385063,-1.00078,-0.0904289,-1.74396
1480627899406117,-1.00078,-0.0904289,-1.74396
1480627899422661,-1.00088,-0.0905128,-1.74396
1480627899445222,-1.00088,-0.0905128,-1.74396
1480627899466277,-1.00069,-0.0905375,-1.74404
1480627899482821,-1.00069,-0.0905375,-1.74404
1480627899505381,-1.00069,-0.0905375,-1.74404
1480627899533456,-1.00127,-0.0904378,-1.74405
1480627899542480,-1.00127,-0.0904378,-1.74405
1480627899565040,-1.00129,-0.0903959,-1.74403
1480627899586097,-1.00119,-0.090312,-1.74404
1480627899602640,-1.00119,-0.090312,-1.74404
1480627899625201,-1.00119,-0.090312,-1.74404
1480627899646256,-1.00119,-0.090312,-1.74404
1480627899668816,-1.00109,-0.0904205,-1.74412
1480627899685862,-1.00109,-0.0904205,-1.74412
1480627899706416,-1.00109,-0.0904205,-1.74412
1480627899722459,-1.00109,-0.0904205,-1.74412
1480627899746524,-1.00109,-0.0904205,-1.74412
1480627899775099,-1.00109,-0.0902438,-1.74447
1480627899782619,-1.0013,-0.0899748,-1.74498
1480627899805680,-1.0018,-0.09,-1.74549
1480627899827739,-1.0022,-0.0897744,-1.74566
1480627899842779,-1.00222,-0.0898159,-1.74582
1480627899864840,-1.00222,-0.0898159,-1.74582
1480627899887899,-1.00214,-0.0896899,-1.74581
1480627899901939,-1.00214,-0.0896899,-1.74581
1480627899924998,-1.00242,-0.0896244,-1.7454
1480627899948063,-1.00242,-0.0897174,-1.74488
1480627899962602,-1.00181,-0.0896084,-1.74438
1480627899985160,-1.00173,-0.0895757,-1.74386
1480627900007718,-1.00214,-0.0892919,-1.7436
1480627900022256,-1.00342,-0.0877944,-1.74315
1480627900046822,-1.0079,-0.0858886,-1.74203
1480627900067883,-1.019,-0.0860114,-1.73967
1480627900088933,-1.03354,-0.0861799,-1.73616
1480627900105478,-1.04253,-0.0863648,-1.73244
1480627900127537,-1.04836,-0.0875178,-1.73005
1480627900150097,-1.04773,-0.089829,-1.7257
1480627900165139,-1.04346,-0.0932653,-1.72153
1480627900193713,-1.03823,-0.0961402,-1.71932
1480627900208753,-1.03327,-0.0974574,-1.71708
1480627900226801,-1.03045,-0.0986048,-1.71578
1480627900247356,-1.0282,-0.0996472,-1.71519
1480627900268914,-1.02713,-0.101547,-1.71527
1480627900284955,-1.02786,-0.103168,-1.71554
1480627900307519,-1.02844,-0.10392,-1.71504
1480627900329576,-1.02672,-0.104195,-1.71454
1480627900345116,-1.02402,-0.104396,-1.71561
1480627900367675,-1.02204,-0.104164,-1.71628
1480627900388731,-1.02107,-0.103405,-1.71651
1480627900411291,-1.01909,-0.103152,-1.71676
1480627900427835,-1.016,-0.102894,-1.71701
1480627900448893,-1.01178,-0.102417,-1.71791
1480627900465437,-1.00582,-0.101366,-1.71912
1480627900487995,-1.00044,-0.0996394,-1.72113
1480627900508551,-0.995466,-0.0980566,-1.72223
1480627900532615,-0.990489,-0.0971738,-1.7225
1480627900547657,-0.986364,-0.0968195,-1.72263
1480627900568711,-0.983595,-0.0964582,-1.72276
1480627900585255,-0.983618,-0.0964176,-1.72274
1480627900607814,-0.984892,-0.0965494,-1.72256
1480627900629372,-0.985723,-0.0961003,-1.72236
1480627900644913,-0.985609,-0.0961685,-1.72228
1480627900667975,-0.985502,-0.0960848,-1.72229
1480627900690034,-0.984503,-0.0962032,-1.72231
1480627900705074,-0.983438,-0.0963089,-1.72224
1480627900727635,-0.98333,-0.0962252,-1.72224
1480627900757713,-0.984299,-0.0962169,-1.72198
1480627900771249,-0.986085,-0.0963098,-1.72187
1480627900787794,-0.988354,-0.0963916,-1.72142
1480627900810353,-0.990323,-0.0967473,-1.72064
1480627900824390,-0.991588,-0.0971809,-1.7203
1480627900847959,-0.992179,-0.0973355,-1.72013
1480627900870012,-0.993344,-0.0975334,-1.71988
1480627900893074,-0.995137,-0.0974585,-1.71943
1480627900908614,-0.99738,-0.0979635,-1.71901
1480627900930172,-0.999256,-0.0980795,-1.71833
1480627900944711,-1.00007,-0.0982328,-1.71781
1480627900967774,-1.00041,-0.0989762,-1.71725
1480627900990333,-1.0014,-0.0993774,-1.71674
1480627901004370,-1.00189,-0.099625,-1.71624
1480627901035452,-1.00188,-0.0999118,-1.71566
1480627901050492,-1.00224,-0.100419,-1.71501
1480627901065030,-1.00284,-0.100985,-1.71458
1480627901088092,-1.00311,-0.1013,-1.71417
1480627901111154,-1.00322,-0.101367,-1.71375
1480627901124689,-1.00411,-0.101381,-1.71342
1480627901147755,-1.00591,-0.101299,-1.71298
1480627901170816,-1.00648,-0.101324,-1.71249
1480627901198887,-1.00707,-0.101777,-1.71216
1480627901213927,-1.00737,-0.102134,-1.7119
1480627901229970,-1.00656,-0.102297,-1.71158
1480627901252531,-1.00549,-0.102322,-1.71133
1480627901267571,-1.00467,-0.102636,-1.71093
1480627901290129,-1.00457,-0.102966,-1.71068
1480627901311186,-1.00407,-0.103268,-1.71044
1480627901327729,-1.00316,-0.103515,-1.71046
1480627901350290,-1.00218,-0.103363,-1.71038
1480627901371346,-1.001,-0.103239,-1.71038
1480627901388391,-1.00049,-0.103212,-1.71056
1480627901409949,-0.999122,-0.103047,-1.7109
1480627901438524,-0.996644,-0.102771,-1.71134
1480627901447552,-0.99351,-0.10233,-1.71187
1480627901477629,-0.989651,-0.101844,-1.7125
1480627901491164,-0.985637,-0.100969,-1.71363
1480627901508210,-0.98281,-0.0998291,-1.71473
1480627901530268,-0.981094,-0.098567,-1.71565
1480627901551324,-0.979453,-0.0977318,-1.7164
1480627901567869,-0.978227,-0.0970363,-1.71706
1480627901590429,-0.977558,-0.0961074,-1.71739
1480627901613991,-0.977787,-0.0952382,-1.71753
1480627901633543,-0.978789,-0.094965,-1.71759
1480627901650588,-0.979879,-0.0953139,-1.71757
1480627901673651,-0.98093,-0.0955094,-1.71748
1480627901687687,-0.981517,-0.0957457,-1.71748
1480627901718268,-0.981517,-0.0957457,-1.71748
1480627901732809,-0.981517,-0.0957457,-1.71748
1480627901746845,-0.981517,-0.0957457,-1.71748
1480627901769906,-0.981517,-0.0957457,-1.71748
1480627901800990,-0.981631,-0.0956772,-1.71755
1480627901807005,-0.981517,-0.0957457,-1.71748
1480627901830068,-0.981517,-0.0957457,-1.71748
1480627901854131,-0.981517,-0.0957457,-1.71748
1480627901868669,-0.980731,-0.0956177,-1.71774
1480627901899250,-0.980036,-0.0953795,-1.71792
1480627901920306,-0.980036,-0.0953795,-1.71792
1480627901927325,-0.980545,-0.09534,-1.71798
1480627901950386,-0.981237,-0.0950803,-1.71789
1480627901972947,-0.981237,-0.0950803,-1.71789
1480627901987485,-0.981457,-0.0950954,-1.71796
1480627902010045,-0.98135,-0.0950118,-1.71796
1480627902032605,-0.981373,-0.0949715,-1.71795
1480627902047143,-0.981373,-0.0949715,-1.71795
1480627902077725,-0.981266,-0.0948879,-1.71795
1480627902093768,-0.981512,-0.0954118,-1.71789
1480627902113821,-0.981895,-0.0958269,-1.71789
1480627902130367,-0.982482,-0.0961454,-1.71806
1480627902168969,-0.983161,-0.0962718,-1.71797
1480627902182005,-0.984061,-0.0964134,-1.71795
1480627902197547,-0.984627,-0.0966082,-1.71778
1480627902228124,-0.985109,-0.0966789,-1.71762
1480627902233641,-0.985613,-0.0967913,-1.7176
1480627902250183,-0.985499,-0.0968597,-1.71753
1480627902272744,-0.985414,-0.096818,-1.71769
1480627902293799,-0.9853,-0.0968864,-1.71762
1480627902310348,-0.985408,-0.09697,-1.71761
1480627902332905,-0.985205,-0.0969018,-1.71712
1480627902354962,-0.984833,-0.0967503,-1.71694
1480627902370002,-0.983655,-0.0963599,-1.71712
1480627902392563,-0.98303,-0.0966321,-1.71732
1480627902421138,-0.983138,-0.0967157,-1.71731
1480627902445202,-0.983738,-0.0966481,-1.71747
1480627902460242,-0.983744,-0.0964961,-1.71755
1480627902473778,-0.982981,-0.0962459,-1.71763
1480627902490322,-0.982105,-0.0959821,-1.71747
1480627902519901,-0.981074,-0.0962836,-1.71701
1480627902533939,-0.98079,-0.0968364,-1.71693
1480627902549983,-0.980885,-0.0972243,-1.71676
1480627902572541,-0.981817,-0.0976399,-1.71653
1480627902595102,-0.983109,-0.0978796,-1.71625
1480627902618162,-0.983015,-0.0978956,-1.71575
1480627902632704,-0.982143,-0.0975626,-1.71584
1480627902655762,-0.981544,-0.0976308,-1.71569
1480627902670301,-0.98143,-0.0976993,-1.71561
1480627902700382,-0.981929,-0.0978815,-1.71535
1480627902714922,-0.982399,-0.0982559,-1.71502
1480627902729460,-0.982399,-0.0982559,-1.71502
1480627902754525,-0.98172,-0.0981305,-1.71511
1480627902782600,-0.981833,-0.098062,-1.71519
1480627902790120,-0.982412,-0.0978697,-1.71502
1480627902812682,-0.983613,-0.0975688,-1.71498
1480627902835240,-0.985405,-0.096854,-1.71511
1480627902849779,-0.988268,-0.0947628,-1.71585
1480627902872842,-0.993187,-0.0911225,-1.71663
1480627902895400,-1.00367,-0.0887653,-1.71564
1480627902916958,-1.01538,-0.089247,-1.7124
1480627902939017,-1.01838,-0.0891387,-1.70884
1480627902955561,-1.01375,-0.0885205,-1.70763
1480627902977620,-1.00832,-0.0881149,-1.70802
1480627903000180,-1.00846,-0.08895,-1.70729
1480627903015220,-1.01269,-0.090059,-1.70556
1480627903029759,-1.01626,-0.0904375,-1.70425
1480627903060339,-1.01555,-0.0911358,-1.70367
1480627903075379,-1.01142,-0.0924182,-1.704
1480627903103454,-1.00712,-0.0935777,-1.7045
1480627903112479,-1.00381,-0.0939976,-1.70412
1480627903135039,-1.00135,-0.0942385,-1.70379
1480627903156096,-0.997304,-0.0943073,-1.70372
1480627903172638,-0.990495,-0.0939029,-1.70428
1480627903202718,-0.984111,-0.0933013,-1.70518
1480627903216254,-0.982172,-0.092684,-1.70585
1480627903232799,-0.982746,-0.0928171,-1.70635
1480627903255358,-0.985008,-0.0925608,-1.70673
1480627903276417,-0.98602,-0.0921434,-1.70728
1480627903299977,-0.985529,-0.0919064,-1.7082
1480627903315020,-0.983657,-0.0920304,-1.70897
1480627903336072,-0.981278,-0.0921127,-1.70951
1480627903352617,-0.979597,-0.0918612,-1.71021
1480627903376180,-0.978811,-0.0917358,-1.71047
1480627903397736,-0.977894,-0.0922176,-1.71059
1480627903412777,-0.97781,-0.0920941,-1.71058
1480627903435337,-0.977923,-0.0920252,-1.71065
1480627903456394,-0.977121,-0.0922748,-1.71051
1480627903472435,-0.976798,-0.0926753,-1.71037
1480627903508531,-0.977093,-0.0929547,-1.70995
1480627903517556,-0.97728,-0.0931505,-1.70953
1480627903532597,-0.976988,-0.0931957,-1.70912
1480627903563682,-0.975816,-0.0932973,-1.70881
1480627903578216,-0.974531,-0.0934685,-1.70843
1480627903599274,-0.974155,-0.0934726,-1.70818
1480627903615316,-0.975111,-0.0936812,-1.70759
1480627903637375,-0.976489,-0.0938869,-1.7074
1480627903659433,-0.97767,-0.0940382,-1.70713
1480627903675978,-0.978541,-0.0942857,-1.70687
1480627903697538,-0.979997,-0.0948367,-1.70637
1480627903712073,-0.981567,-0.0953181,-1.70593
1480627903759198,-0.98365,-0.0949542,-1.7058
1480627903763712,-0.987284,-0.0945559,-1.706
1480627903780257,-0.992121,-0.094806,-1.70586
1480627903795295,-0.99369,-0.0955055,-1.70511
1480627903825376,-0.990716,-0.0956797,-1.70482
1480627903831892,-0.987161,-0.0955656,-1.70519
1480627903863476,-0.986771,-0.0954821,-1.70586
1480627903883528,-0.988344,-0.0952299,-1.70543
1480627903892052,-0.989733,-0.0951859,-1.70474
1480627903915113,-0.98967,-0.0951046,-1.70489
1480627903937674,-0.988563,-0.0951485,-1.70491
1480627903952211,-0.986878,-0.0953877,-1.70511
1480627903975273,-0.985903,-0.0954743,-1.70512
1480627904005353,-0.986008,-0.0956271,-1.70487
1480627904035433,-0.986373,-0.0959155,-1.70454
1480627904041449,-0.986373,-0.0959155,-1.70454
1480627904057492,-0.985081,-0.0963335,-1.70465
1480627904079051,-0.983686,-0.0965983,-1.70502
1480627904101108,-0.982888,-0.0966975,-1.70495
1480627904117652,-0.982888,-0.0966975,-1.70495
1480627904146229,-0.982887,-0.0967796,-1.70512
1480627904155252,-0.982897,-0.0964753,-1.70528
1480627904177812,-0.982515,-0.0959924,-1.70552
1480627904198868,-0.982628,-0.0959234,-1.7056
1480627904214910,-0.982628,-0.0959234,-1.7056
1480627904237470,-0.983035,-0.0955637,-1.70558
1480627904258526,-0.983738,-0.0956456,-1.70548
1480627904282590,-0.983517,-0.0956315,-1.70541
1480627904306153,-0.982912,-0.0959369,-1.70535
1480627904318687,-0.982912,-0.0959369,-1.70535
1480627904335732,-0.983894,-0.0962664,-1.70509
1480627904358291,-0.98576,-0.0966198,-1.7049
1480627904380354,-0.987619,-0.0964751,-1.70479
1480627904395391,-0.989015,-0.0963747,-1.70477
1480627904424970,-0.9899,-0.0963166,-1.70467
1480627904438505,-0.991472,-0.0963112,-1.70474
1480627904455049,-0.993753,-0.0963045,-1.70455
1480627904477610,-0.996117,-0.0964895,-1.70411
1480627904500170,-0.997487,-0.0965663,-1.70361
1480627904520724,-0.998194,-0.0967302,-1.70368
1480627904546796,-0.998669,-0.0971831,-1.70352
1480627904560841,-0.999553,-0.0973593,-1.70352
1480627904582890,-1.00093,-0.0973671,-1.70326
1480627904597929,-1.00282,-0.0972489,-1.70292
1480627904619988,-1.00483,-0.0968428,-1.70297
1480627904634527,-1.00601,-0.0969626,-1.70297
1480627904658090,-1.00689,-0.0972061,-1.70273
1480627904680148,-1.00738,-0.0974232,-1.70248
1480627904694688,-1.00729,-0.0975346,-1.70256
1480627904717748,-1.00767,-0.0973668,-1.70248
1480627904740309,-1.00815,-0.0975838,-1.70224
1480627904754345,-1.00855,-0.0976771,-1.70199
1480627904777407,-1.00915,-0.0975902,-1.70174
1480627904808490,-1.00915,-0.0975902,-1.70174
1480627904821023,-1.00829,-0.0973734,-1.70173
1480627904838069,-1.00798,-0.0972357,-1.70165
1480627904860129,-1.00809,-0.0973183,-1.70165
1480627904874665,-1.00838,-0.0972618,-1.70165
1480627904897727,-1.00889,-0.0973034,-1.70189
1480627904926303,-1.00829,-0.0971551,-1.70205
1480627904941343,-1.00672,-0.0970096,-1.70206
1480627904957386,-1.00541,-0.0968486,-1.70207
1480627904980951,-1.005,-0.0969737,-1.70199
1480627905001004,-1.00431,-0.0971553,-1.70192
1480627905017545,-1.00375,-0.0970763,-1.70198
1480627905040607,-1.00193,-0.0971093,-1.70185
1480627905061162,-0.99957,-0.0970077,-1.70136
1480627905077706,-0.996888,-0.0975284,-1.7004
1480627905100268,-0.993725,-0.0988701,-1.69953
1480627905145888,-0.990226,-0.0998824,-1.69961
1480627905148393,-0.989316,-0.100079,-1.70029
1480627905166443,-0.991303,-0.100276,-1.70001
1480627905181484,-0.992499,-0.100091,-1.69908
1480627905198528,-0.991616,-0.0999031,-1.69868
1480627905220085,-0.989224,-0.0999721,-1.69839
1480627905242645,-0.987248,-0.100344,-1.69835
1480627905257684,-0.987176,-0.100555,-1.69793
1480627905280751,-0.988057,-0.100633,-1.69734
1480627905301301,-0.988365,-0.100674,-1.69684
1480627905332886,-0.988365,-0.100674,-1.69684
1480627905340405,-0.987563,-0.100928,-1.69669
1480627905362968,-0.986571,-0.100824,-1.69663
1480627905377503,-0.986593,-0.100867,-1.69678
1480627905408586,-0.986571,-0.100824,-1.69663
1480627905428641,-0.987191,-0.10078,-1.69652
1480627905437664,-0.987303,-0.100711,-1.6966
1480627905460223,-0.987303,-0.100711,-1.6966
1480627905490303,-0.987191,-0.10078,-1.69652
1480627905503839,-0.987191,-0.10078,-1.69652
1480627905520383,-0.987191,-0.10078,-1.69652
1480627905550964,-0.987078,-0.10085,-1.69645
1480627905556981,-0.987078,-0.10085,-1.69645
1480627905581045,-0.987191,-0.10078,-1.69652
1480627905611125,-0.987191,-0.10078,-1.69652
1480627905617642,-0.987191,-0.10078,-1.69652
1480627905640203,-0.987303,-0.100711,-1.6966
1480627905670283,-0.987303,-0.100711,-1.6966
1480627905685322,-0.987191,-0.10078,-1.69652
1480627905700363,-0.987191,-0.10078,-1.69652
1480627905722421,-0.987191,-0.10078,-1.69652
1480627905736960,-0.987078,-0.10085,-1.69645
1480627905768043,-0.987078,-0.10085,-1.69645
1480627905783082,-0.987082,-0.100698,-1.69653
1480627905799125,-0.987082,-0.100698,-1.69653
1480627905820181,-0.987082,-0.100698,-1.69653
1480627905843243,-0.987675,-0.100846,-1.69635
1480627905863797,-0.987675,-0.100846,-1.69635
1480627905887863,-0.987189,-0.10085,-1.69628
1480627905916940,-0.987189,-0.10085,-1.69628
1480627905934486,-0.987189,-0.10085,-1.69628
1480627905941504,-0.987076,-0.100919,-1.6962
1480627905962564,-0.987076,-0.100919,-1.6962
1480627905983616,-0.987076,-0.100919,-1.6962
1480627906000161,-0.987298,-0.100933,-1.69627
1480627906022721,-0.987298,-0.100933,-1.69627
1480627906045782,-0.987276,-0.10089,-1.69612
1480627906060319,-0.987276,-0.10089,-1.69612
1480627906089898,-0.987298,-0.100933,-1.69627
1480627906103936,-0.987298,-0.100933,-1.69627
1480627906119978,-0.987185,-0.101002,-1.6962
1480627906142539,-0.987185,-0.101002,-1.6962
1480627906165099,-0.987185,-0.101002,-1.6962
1480627906180141,-0.987185,-0.101002,-1.6962
1480627906218240,-0.987185,-0.101002,-1.6962
1480627906224256,-0.987894,-0.100929,-1.69618
1480627906246818,-0.987872,-0.100886,-1.69602
1480627906262862,-0.987475,-0.100862,-1.69603
1480627906285420,-0.987475,-0.100862,-1.69603
1480627906299959,-0.987693,-0.101027,-1.69602
1480627906323521,-0.987581,-0.101097,-1.69595
1480627906343573,-0.987469,-0.101166,-1.69587
1480627906360619,-0.987469,-0.101166,-1.69587
1480627906382678,-0.987469,-0.101166,-1.69587
1480627906405239,-0.987666,-0.101219,-1.69595
1480627906420279,-0.987666,-0.101219,-1.69595
1480627906443338,-0.987666,-0.101219,-1.69595
1480627906465398,-0.987666,-0.101219,-1.69595
1480627906485952,-0.987666,-0.101219,-1.69595
1480627906502497,-0.987666,-0.101219,-1.69595
1480627906529067,-0.987576,-0.101331,-1.69603
1480627906540096,-0.987464,-0.1014,-1.69596
1480627906562657,-0.987464,-0.1014,-1.69596
1480627906585718,-0.987464,-0.1014,-1.69596
1480627906600762,-0.987576,-0.101331,-1.69603
1480627906622816,-0.987554,-0.101289,-1.69588
1480627906645380,-0.987663,-0.101371,-1.69587
1480627906668438,-0.987776,-0.101302,-1.69595
1480627906688992,-0.987776,-0.101302,-1.69595
1480627906722080,-0.987663,-0.101371,-1.69587
1480627906727595,-0.987685,-0.101414,-1.69603
1480627906742636,-0.987549,-0.101523,-1.69596
1480627906765697,-0.987549,-0.101523,-1.69596
1480627906779734,-0.987659,-0.101606,-1.69596
1480627906802796,-0.987659,-0.101606,-1.69596
1480627906839894,-0.987659,-0.101606,-1.69596
1480627906848920,-0.987771,-0.101537,-1.69603
1480627906863457,-0.987749,-0.101494,-1.69588
1480627906885016,-0.987749,-0.101494,-1.69588
1480627906923115,-0.987771,-0.101537,-1.69603
1480627906926624,-0.988454,-0.101656,-1.69594
1480627906945676,-0.988454,-0.101656,-1.69594
1480627906966232,-0.988341,-0.101725,-1.69587
1480627906990795,-0.988341,-0.101725,-1.69587
1480627907011852,-0.989026,-0.101774,-1.69603
1480627907026892,-0.989135,-0.101857,-1.69602
1480627907042433,-0.989247,-0.101788,-1.6961
1480627907072012,-0.98954,-0.101495,-1.69601
1480627907086049,-0.98954,-0.101495,-1.69601
1480627907110113,-0.99043,-0.101281,-1.69599
1480627907125654,-0.991719,-0.101023,-1.69621
1480627907153728,-0.993179,-0.10108,-1.6962
1480627907162754,-0.994551,-0.101166,-1.69611
1480627907199355,-0.994374,-0.101155,-1.69618
1480627907205868,-0.993062,-0.101384,-1.69621
1480627907222914,-0.992284,-0.101528,-1.6963
1480627907244973,-0.992284,-0.101528,-1.6963
1480627907266028,-0.992393,-0.101611,-1.6963
1480627907282572,-0.991594,-0.101713,-1.69623
1480627907311649,-0.990514,-0.1015,-1.69657
1480627907327692,-0.991308,-0.100596,-1.69688
1480627907350252,-0.996456,-0.0982598,-1.69708
1480627907365294,-1.00752,-0.0982166,-1.69545
1480627907402391,-1.0206,-0.0998065,-1.69413
1480627907404897,-1.02702,-0.100985,-1.69392
1480627907432977,-1.02777,-0.101887,-1.69542
1480627907447511,-1.02722,-0.102656,-1.69667
1480627907469570,-1.02308,-0.10173,-1.69681
1480627907485110,-1.01703,-0.100802,-1.69696
1480627907513689,-1.01187,-0.100838,-1.69754
1480627907522209,-1.00761,-0.100879,-1.6978
1480627907552791,-1.00513,-0.101152,-1.69708
1480627907567831,-1.0037,-0.102217,-1.69596
1480627907581869,-1.00251,-0.102707,-1.69564
1480627907606935,-1.00076,-0.102639,-1.69589
1480627907627992,-1.00061,-0.103385,-1.69633
1480627907642028,-1.001,-0.103964,-1.69666
1480627907665093,-1.00009,-0.103679,-1.69676
1480627907693666,-0.998634,-0.103402,-1.69709
1480627907710210,-0.99752,-0.103616,-1.69745
1480627907725751,-0.997433,-0.103493,-1.69744
1480627907748813,-0.998014,-0.103309,-1.69769
1480627907768364,-0.998526,-0.103266,-1.69775
1480627907785410,-0.998526,-0.103266,-1.69775
1480627907807468,-0.998503,-0.103306,-1.69777
1480627907830530,-0.997552,-0.10312,-1.69768
1480627907858604,-0.996268,-0.10299,-1.69744
1480627907875149,-0.995267,-0.10312,-1.69746
1480627907888684,-0.994576,-0.103305,-1.69739
1480627907906231,-0.993377,-0.103381,-1.69733
1480627907934807,-0.991407,-0.103284,-1.69711
1480627907948845,-0.989521,-0.103545,-1.69699
1480627907965388,-0.988713,-0.104103,-1.69669
1480627907987948,-0.988713,-0.104103,-1.69669
1480627908008503,-0.988822,-0.104186,-1.69668
1480627908025046,-0.989253,-0.103702,-1.69649
1480627908055126,-0.989284,-0.103262,-1.69606
1480627908069165,-0.989378,-0.102903,-1.69548
1480627908087213,-0.989408,-0.102546,-1.69521
1480627908108770,-0.989408,-0.102546,-1.69521
1480627908136344,-0.989317,-0.102657,-1.6953
1480627908152385,-0.989403,-0.10278,-1.6953
1480627908167927,-0.989291,-0.102849,-1.69523
1480627908196002,-0.989313,-0.102892,-1.69538
1480627908205026,-0.989291,-0.102849,-1.69523
1480627908228589,-0.989897,-0.102389,-1.69537
1480627908248644,-0.990011,-0.102237,-1.69528
1480627908280226,-0.990705,-0.101817,-1.69526
1480627908287745,-0.990933,-0.101514,-1.69508
1480627908310306,-0.99036,-0.101395,-1.69499
1480627908325345,-0.990251,-0.101313,-1.695
1480627908348408,-0.990449,-0.101353,-1.69467
1480627908369965,-0.990449,-0.101353,-1.69467
1480627908385005,-0.990337,-0.101422,-1.69459
1480627908407571,-0.990359,-0.101465,-1.69475
1480627908430627,-0.990337,-0.101422,-1.69459
1480627908446168,-0.990535,-0.101476,-1.69467
1480627908468226,-0.990535,-0.101476,-1.69467
1480627908491288,-0.991939,-0.100968,-1.69423
1480627908504339,-0.993961,-0.10065,-1.69377
1480627908527885,-0.995537,-0.100456,-1.69309
1480627908550445,-0.996162,-0.100244,-1.69266
1480627908564984,-0.996565,-0.100019,-1.69215
1480627908589047,-0.997138,-0.100191,-1.69158
1480627908610605,-0.998557,-0.100262,-1.69123
1480627908624643,-1.00043,-0.100006,-1.69055
1480627908648207,-1.00271,-0.100051,-1.69012
1480627908670350,-1.00481,-0.0997391,-1.68977
1480627908684304,-1.00631,-0.0994329,-1.68951
1480627908713881,-1.008,-0.0992643,-1.68949
1480627908745965,-1.0089,-0.0989643,-1.68932
1480627908750980,-1.00879,-0.0990333,-1.68925
1480627908783566,-1.00881,-0.0990766,-1.6894
1480627908790082,-1.0087,-0.0991456,-1.68933
1480627908820162,-1.00881,-0.0992278,-1.68932
1480627908828188,-1.0095,-0.0989578,-1.68924
1480627908850244,-1.00961,-0.0990399,-1.68923
1480627908871299,-1.00901,-0.0988952,-1.6894
1480627908895863,-1.0087,-0.0988432,-1.68949
1480627908909901,-1.00881,-0.0987742,-1.68956
1480627908930959,-1.0087,-0.0988432,-1.68949
1480627908947501,-1.0087,-0.0988432,-1.68949
1480627908970061,-1.0087,-0.0988432,-1.68949
1480627908992120,-1.00781,-0.098908,-1.68957
1480627909008162,-1.00701,-0.0989444,-1.68975
1480627909031726,-1.00652,-0.0988142,-1.69015
1480627909051279,-1.0056,-0.0989194,-1.69025
1480627909073837,-1.00453,-0.0991246,-1.69033
1480627909089879,-1.00264,-0.0993225,-1.69043
1480627909110936,-0.999967,-0.0995991,-1.69087
1480627909117959,-0.997083,-0.0995584,-1.6914
1480627909132997,-0.994005,-0.0993941,-1.69209
1480627909172600,-0.990956,-0.0991053,-1.69262
1480627909195160,-0.988685,-0.0988344,-1.69339
1480627909198673,-0.987095,-0.0988323,-1.69399
1480627909215715,-0.9865,-0.0987671,-1.69433
1480627909240781,-0.986191,-0.0987957,-1.69459
1480627909252813,-0.986303,-0.0987264,-1.69466
1480627909275373,-0.986303,-0.0987264,-1.69466
1480627909297934,-0.986303,-0.0987264,-1.69466
1480627909312974,-0.986303,-0.0987264,-1.69466
1480627909337038,-0.985618,-0.09876,-1.69467
1480627909358093,-0.985022,-0.0987644,-1.69477
1480627909373134,-0.98491,-0.0988337,-1.69469
1480627909397198,-0.984933,-0.0987938,-1.69468
1480627909417753,-0.984705,-0.0990846,-1.69446
1480627909434297,-0.984128,-0.0992713,-1.69422
1480627909455352,-0.983244,-0.0993221,-1.6939
1480627909495459,-0.981673,-0.0995598,-1.69353
1480627909500472,-0.980278,-0.0999023,-1.69365
1480627909524537,-0.980245,-0.10041,-1.69383
1480627909546093,-0.981221,-0.101203,-1.69375
1480627909556120,-0.981983,-0.101667,-1.69334
1480627909575673,-0.981983,-0.101667,-1.69334
1480627909606754,-0.981295,-0.101947,-1.69385
1480627909615780,-0.981295,-0.101947,-1.69385
1480627909635332,-0.981187,-0.101782,-1.69369
1480627909657893,-0.981799,-0.102124,-1.69359
1480627909674435,-0.981969,-0.10244,-1.69336
1480627909695491,-0.981969,-0.10244,-1.69336
1480627909718052,-0.981956,-0.103131,-1.69321
1480627909740611,-0.981956,-0.103131,-1.69321
1480627909755650,-0.981448,-0.103176,-1.69315
1480627909778211,-0.981471,-0.103137,-1.69314
1480627909804281,-0.981846,-0.103118,-1.69297
1480627909815316,-0.98244,-0.103184,-1.69263
1480627909846392,-0.983464,-0.102765,-1.6921
1480627909854414,-0.985238,-0.102308,-1.69123
1480627909876974,-0.986949,-0.10177,-1.69052
1480627909898030,-0.989463,-0.100905,-1.69021
1480627909914576,-0.995409,-0.100167,-1.6897
1480627909943151,-1.00157,-0.0992308,-1.68879
1480627909975736,-1.00378,-0.0989161,-1.68827
1480627909989774,-1.00371,-0.0980205,-1.68826
1480627909995289,-1.00352,-0.09721,-1.68858
1480627910017848,-1.0056,-0.0969021,-1.68931
1480627910041912,-1.00956,-0.096784,-1.68995
1480627910071993,-1.01245,-0.096342,-1.68994
1480627910078009,-1.01076,-0.0958885,-1.68986
1480627910098567,-1.00643,-0.0952857,-1.69019
1480627910123129,-1.00231,-0.0945011,-1.69052
1480627910138169,-1.00097,-0.093757,-1.6905
1480627910160729,-1.00126,-0.0936832,-1.6901
1480627910183291,-1.00033,-0.0943109,-1.68971
1480627910198331,-0.998141,-0.0951745,-1.68949
1480627910220387,-0.994983,-0.0956636,-1.68911
1480627910235427,-0.99113,-0.0956919,-1.68882
1480627910257997,-0.987892,-0.0951204,-1.68918
1480627910280548,-0.985065,-0.0941976,-1.68994
1480627910295588,-0.981331,-0.0936933,-1.69106
1480627910321155,-0.976609,-0.0934005,-1.69237
1480627910357752,-0.97249,-0.0930983,-1.6936
1480627910359758,-0.968947,-0.0927373,-1.69417
1480627910377807,-0.967459,-0.0927805,-1.69503
1480627910403877,-0.968921,-0.0930288,-1.69509
1480627910415909,-0.970478,-0.0930133,-1.69514
1480627910437967,-0.970967,-0.0928645,-1.6957
1480627910460526,-0.971042,-0.0933734,-1.69572
1480627910483091,-0.97064,-0.0937447,-1.69615
1480627910499634,-0.970739,-0.0942142,-1.69615
1480627910520689,-0.971205,-0.0949004,-1.69608
1480627910538233,-0.971097,-0.0948174,-1.69608
1480627910577337,-0.970688,-0.095413,-1.69619
1480627910581852,-0.970348,-0.0958651,-1.69647
1480627910596890,-0.97065,-0.0961634,-1.69688
1480627910617945,-0.97065,-0.0961634,-1.69688
1480627910652036,-0.971108,-0.0962787,-1.69713
1480627910657050,-0.971698,-0.0964377,-1.69737
1480627910678106,-0.971672,-0.0966396,-1.69771
1480627910718212,-0.971466,-0.0970639,-1.69822
1480627910720721,-0.971749,-0.0972495,-1.69872
1480627910738265,-0.972032,-0.0974352,-1.69921
1480627910771353,-0.971715,-0.0978477,-1.69948
1480627910776868,-0.971507,-0.0983433,-1.69975
1480627910801434,-0.971507,-0.0983433,-1.69975
1480627910820484,-0.971507,-0.0983433,-1.69975
1480627910844548,-0.971388,-0.0987278,-1.69993
1480627910858083,-0.971388,-0.0987278,-1.69993
1480627910880648,-0.970884,-0.0987003,-1.70011
1480627910903204,-0.970884,-0.0987003,-1.70011
1480627910918244,-0.970884,-0.0987003,-1.70011
1480627910943818,-0.970884,-0.0987003,-1.70011
1480627910956846,-0.970686,-0.0987281,-1.7002
1480627910977904,-0.971071,-0.0991401,-1.7002
1480627911000465,-0.971071,-0.0991401,-1.7002
1480627911018512,-0.970472,-0.0993667,-1.69998
1480627911045582,-0.97038,-0.0995495,-1.69982
1480627911068143,-0.970854,-0.0998405,-1.69932
1480627911078170,-0.971634,-0.100268,-1.6989
1480627911105242,-0.972703,-0.100474,-1.69814
1480627911120782,-0.97351,-0.100699,-1.69738
1480627911138329,-0.974001,-0.101325,-1.69648
1480627911165409,-0.974388,-0.101716,-1.69565
1480627911206511,-0.976162,-0.10207,-1.69455
1480627911215039,-0.979613,-0.102337,-1.69357
1480627911219545,-0.984246,-0.102174,-1.69265
1480627911240601,-0.987125,-0.101749,-1.69192
1480627911264667,-0.989033,-0.10136,-1.69187
1480627911279705,-0.992901,-0.100398,-1.6918
1480627911300763,-0.997486,-0.0993476,-1.6913
1480627911318809,-0.999186,-0.0986117,-1.69054
1480627911354905,-0.999238,-0.0982128,-1.69027
1480627911363428,-0.999238,-0.0982128,-1.69027
1480627911386490,-0.998295,-0.0987296,-1.68997
1480627911398021,-0.998317,-0.0987725,-1.69013
1480627911428101,-0.998317,-0.0987725,-1.69013
1480627911438127,-0.998317,-0.0987725,-1.69013
1480627911459183,-0.998114,-0.098939,-1.68972
1480627911480742,-0.996824,-0.0991172,-1.68933
1480627911502799,-0.99465,-0.0992092,-1.68911
1480627911519345,-0.993562,-0.0993588,-1.68863
1480627911540398,-0.993184,-0.0995162,-1.68831
1480627911558447,-0.992207,-0.0996801,-1.68807
1480627911578000,-0.990613,-0.0997387,-1.68802
1480627911616104,-0.988071,-0.0997833,-1.68821
1480627911633149,-0.985087,-0.0998842,-1.68844
1480627911638159,-0.982708,-0.0996739,-1.68873
1480627911663226,-0.979897,-0.0991679,-1.68925
1480627911683282,-0.976364,-0.0986232,-1.68989
1480627911697820,-0.972639,-0.0981058,-1.69062
1480627911720382,-0.969399,-0.0977322,-1.69135
1480627911742938,-0.968308,-0.0974866,-1.69195
1480627911759482,-0.969098,-0.0974625,-1.69217
1480627911788058,-0.969665,-0.0975781,-1.69225
1480627911811120,-0.969665,-0.0975781,-1.69225
1480627911825658,-0.9692,-0.0978604,-1.69242
1480627911840697,-0.968385,-0.0980045,-1.69237
1480627911863260,-0.968385,-0.0980045,-1.69237
1480627911880806,-0.96937,-0.0981048,-1.69243
1480627911900358,-0.971234,-0.0981415,-1.69239
1480627911922917,-0.972898,-0.0983596,-1.69235
1480627911940965,-0.973274,-0.098189,-1.69226
1480627911963525,-0.973189,-0.0980667,-1.69226
1480627911984582,-0.973351,-0.0986979,-1.69228
1480627911999623,-0.974248,-0.0989102,-1.69242
1480627912022682,-0.977395,-0.098755,-1.69235
1480627912042735,-0.983224,-0.0980647,-1.69213
1480627912068304,-0.990241,-0.0972523,-1.69184
1480627912080337,-0.997759,-0.0967389,-1.6915
1480627912113424,-1.0044,-0.0969629,-1.69071
1480627912120944,-1.00747,-0.0970122,-1.69012
1480627912140496,-1.00718,-0.0969194,-1.6902
1480627912163058,-1.00469,-0.0968048,-1.69014
1480627912196648,-1.00181,-0.0973309,-1.69032
1480627912203663,-0.999133,-0.0979105,-1.6906
1480627912223717,-0.996165,-0.0976643,-1.69095
1480627912249288,-0.994488,-0.0972942,-1.69105
1480627912263323,-0.993718,-0.0970544,-1.69113
1480627912282879,-0.989306,-0.0964368,-1.69125
1480627912300923,-0.981739,-0.095254,-1.69184
1480627912320474,-0.97478,-0.0946137,-1.69269
1480627912354565,-0.969468,-0.0946863,-1.69331
1480627912361083,-0.966245,-0.0948887,-1.69413
1480627912382139,-0.966134,-0.0949585,-1.69406
1480627912403196,-0.966134,-0.0949585,-1.69406
1480627912421744,-0.966134,-0.0949585,-1.69406
1480627912472378,-0.965456,-0.0949125,-1.6939
1480627912474885,-0.96436,-0.0949622,-1.69394
1480627912480904,-0.964362,-0.0948899,-1.69419
1480627912500454,-0.965032,-0.0952418,-1.69418
1480627912523013,-0.965811,-0.0956767,-1.69417
1480627912541563,-0.965703,-0.0955936,-1.69418
1480627912568136,-0.965473,-0.0960475,-1.69429
1480627912585179,-0.964898,-0.0964073,-1.6948
1480627912601724,-0.96417,-0.0966006,-1.695
1480627912623282,-0.963858,-0.0968597,-1.69535
1480627912642832,-0.964137,-0.0971152,-1.6956
1480627912660880,-0.964521,-0.0976069,-1.69577
1480627912681937,-0.964289,-0.0981412,-1.69605
1480627912710513,-0.963884,-0.0986645,-1.69641
1480627912721040,-0.963399,-0.0989122,-1.69684
1480627912751120,-0.962666,-0.0993382,-1.69713
1480627912773182,-0.962069,-0.0996553,-1.69749
1480627912781201,-0.961756,-0.0999942,-1.69801
1480627912801755,-0.961267,-0.100394,-1.69836
1480627912822810,-0.961155,-0.100464,-1.69829
1480627912840859,-0.961267,-0.100394,-1.69836
1480627912867931,-0.960653,-0.100436,-1.69848
1480627912882973,-0.96037,-0.100422,-1.69873
1480627912901520,-0.959953,-0.100435,-1.69875
1480627912922075,-0.95956,-0.10041,-1.69876
1480627912946640,-0.959074,-0.100649,-1.69878
1480627912961681,-0.959097,-0.100691,-1.69894
1480627912989254,-0.958985,-0.100761,-1.69887
1480627913027355,-0.959287,-0.10097,-1.6987
1480627913029862,-0.960043,-0.101285,-1.69836
1480627913049417,-0.961414,-0.101558,-1.69791
1480627913073478,-0.962284,-0.101722,-1.69748
1480627913081001,-0.962957,-0.101914,-1.69714
1480627913103557,-0.96394,-0.102008,-1.69679
1480627913124613,-0.965041,-0.101717,-1.69624
1480627913145669,-0.966052,-0.10161,-1.69554
1480627913163719,-0.966752,-0.101681,-1.69503
1480627913183272,-0.967823,-0.101815,-1.69451
1480627913223877,-0.96881,-0.101826,-1.69399
1480627913227889,-0.969905,-0.10192,-1.69346
1480627913242929,-0.971005,-0.10186,-1.69301
1480627913268497,-0.971401,-0.101793,-1.69243
1480627913315123,-0.972087,-0.101514,-1.69191
1480627913320635,-0.973894,-0.101308,-1.69168
1480627913325648,-0.975849,-0.101374,-1.69107
1480627913343195,-0.977236,-0.101324,-1.69037
1480627913370768,-0.978424,-0.101384,-1.68993
1480627913385309,-0.979439,-0.101351,-1.68941
1480627913404358,-0.980009,-0.101526,-1.68883
1480627913422909,-0.980505,-0.102242,-1.68851
1480627913445468,-0.982096,-0.102019,-1.68822
1480627913463516,-0.985229,-0.101967,-1.68792
1480627913487078,-0.990094,-0.101817,-1.68749
1480627913505627,-0.993637,-0.101705,-1.68703
1480627913523676,-0.995924,-0.101375,-1.68699
1480627913546236,-0.996802,-0.100507,-1.68714
1480627913584838,-0.997141,-0.100147,-1.68744
1480627913595867,-0.997604,-0.10025,-1.68729
1480627913605894,-0.997025,-0.100452,-1.68745
1480627913625445,-0.995339,-0.100471,-1.68756
1480627913651015,-0.994052,-0.100596,-1.68782
1480627913664554,-0.993254,-0.100633,-1.688
1480627913685607,-0.991969,-0.100675,-1.6881
1480627913703153,-0.989914,-0.100548,-1.68804
1480627913725212,-0.987043,-0.100414,-1.68801
1480627913745265,-0.983829,-0.0999566,-1.68829
1480627913780360,-0.981363,-0.0997766,-1.6885
1480627913792891,-0.978503,-0.0995731,-1.68872
1480627913805424,-0.975385,-0.0993078,-1.68878
1480627913823473,-0.971152,-0.0989817,-1.68896
1480627913846033,-0.968047,-0.0985643,-1.6891
1480627913865591,-0.966196,-0.0979913,-1.68921
1480627913883634,-0.966309,-0.0978406,-1.68912
1480627913904689,-0.967388,-0.0975128,-1.68884
1480627913929256,-0.968576,-0.0972677,-1.68855
1480627913943291,-0.969279,-0.0972639,-1.68828
1480627913966355,-0.96956,-0.0974287,-1.68795
1480627913985403,-0.969974,-0.0976371,-1.68761
1480627914003453,-0.971331,-0.0977878,-1.68726
1480627914026012,-0.974103,-0.0974805,-1.68702
1480627914045563,-0.976545,-0.0973114,-1.6868
1480627914063613,-0.976545,-0.0973114,-1.6868
1480627914086172,-0.974905,-0.0969057,-1.6869
1480627914105724,-0.973351,-0.0966221,-1.68701
1480627914131798,-0.973329,-0.0965801,-1.68685
1480627914145831,-0.972762,-0.0963846,-1.68661
1480627914165387,-0.97101,-0.0962736,-1.68631
1480627914183430,-0.968828,-0.096872,-1.6859
1480627914210503,-0.96577,-0.0976912,-1.68551
1480627914225542,-0.963131,-0.0985762,-1.68528
1480627914243592,-0.96262,-0.098946,-1.68589
1480627914266151,-0.964883,-0.0983783,-1.68572
1480627914294726,-0.966467,-0.0979204,-1.68533
1480627914303250,-0.966467,-0.0979204,-1.68533
1480627914325809,-0.965878,-0.097774,-1.68551
1480627914345361,-0.965278,-0.0983202,-1.68554
1480627914369426,-0.965167,-0.0983903,-1.68547
1480627914385970,-0.965574,-0.0989944,-1.68555
1480627914405521,-0.965439,-0.0991034,-1.68549
1480627914423570,-0.965439,-0.0991034,-1.68549
1480627914446130,-0.96515,-0.0993975,-1.68558
1480627914465686,-0.964754,-0.0995279,-1.68552
1480627914483729,-0.964732,-0.0994861,-1.68536
1480627914505788,-0.965413,-0.0992953,-1.68542
1480627914525340,-0.966118,-0.0990657,-1.68547
1480627914549409,-0.967125,-0.0991237,-1.68552
1480627914571964,-0.968484,-0.0991202,-1.68524
1480627914604049,-0.969558,-0.0991051,-1.68521
1480627914608060,-0.969558,-0.0991051,-1.68521
1480627914626108,-0.969274,-0.0990843,-1.68505
1480627914648672,-0.969274,-0.0990843,-1.68505
1480627914668222,-0.969187,-0.0990435,-1.68521
1480627914686771,-0.969296,-0.0991263,-1.68521
1480627914706823,-0.969296,-0.0991263,-1.68521
1480627914727880,-0.969866,-0.0990775,-1.68495
1480627914745928,-0.969866,-0.0990775,-1.68495
1480627914768488,-0.969866,-0.0990775,-1.68495
1480627914788039,-0.970459,-0.0989991,-1.6851
1480627914806087,-0.97229,-0.0971783,-1.68548
1480627914828648,-0.981283,-0.0946253,-1.68605
1480627914851207,-0.994445,-0.0933285,-1.68437
1480627914880286,-1.00296,-0.0937164,-1.68161
1480627914886802,-1.00289,-0.093893,-1.68037
1480627914907858,-0.999308,-0.0941255,-1.68057
1480627914926407,-1.00045,-0.0932936,-1.67947
1480627914948466,-1.0008,-0.0930314,-1.67619
1480627914968019,-0.999821,-0.0932384,-1.6749
1480627914986568,-0.996438,-0.0942912,-1.67478
1480627915009128,-0.993055,-0.0958835,-1.67459
1480627915035698,-0.992168,-0.0961761,-1.67436
1480627915045726,-0.992279,-0.0961061,-1.67444
1480627915072796,-0.992367,-0.0961451,-1.67428
1480627915089340,-0.991652,-0.0966949,-1.67446
1480627915105884,-0.990082,-0.0965856,-1.67489
1480627915128946,-0.989996,-0.0964638,-1.67488
1480627915158524,-0.990687,-0.0959541,-1.6747
1480627915166547,-0.991858,-0.0961253,-1.67445
1480627915188604,-0.992539,-0.0964022,-1.67469
1480627915208156,-0.992535,-0.0964985,-1.67527
1480627915226707,-0.992018,-0.0970998,-1.67553
1480627915249269,-0.99161,-0.0980041,-1.67547
1480627915267816,-0.991005,-0.0987048,-1.67541
1480627915290376,-0.99129,-0.0988783,-1.6755
1480627915315944,-0.992656,-0.0992673,-1.67565
1480627915327976,-0.994535,-0.0993729,-1.67579
1480627915350535,-0.995618,-0.0996575,-1.67562
1480627915368583,-0.995618,-0.0996575,-1.67562
1480627915395657,-0.994902,-0.100207,-1.6758
1480627915417714,-0.994791,-0.100277,-1.67573
1480627915443282,-0.995677,-0.100358,-1.67556
1480627915448299,-0.996381,-0.10112,-1.67531
1480627915465345,-0.996531,-0.101624,-1.67501
1480627915488402,-0.996555,-0.101584,-1.675
1480627915509458,-0.997351,-0.101709,-1.67515
1480627915526504,-0.998011,-0.102247,-1.67508
1480627915549068,-0.998694,-0.102897,-1.67492
1480627915569618,-0.998694,-0.102897,-1.67492
1480627915599699,-0.997606,-0.103068,-1.67485
1480627915608221,-0.996289,-0.103932,-1.67498
1480627915631785,-0.995286,-0.10424,-1.67532
1480627915657854,-0.994797,-0.104111,-1.67573
1480627915683922,-0.993973,-0.103902,-1.67649
1480627915689437,-0.991141,-0.103275,-1.67749
1480627915708488,-0.985707,-0.102728,-1.67815
1480627915728541,-0.979008,-0.102227,-1.67893
1480627915755613,-0.972731,-0.101205,-1.67979
1480627915766141,-0.96893,-0.0997378,-1.68074
1480627915795720,-0.967295,-0.0991127,-1.68116
1480627915810259,-0.968332,-0.0997728,-1.68206
1480627915825802,-0.970788,-0.0996489,-1.6824
1480627915848360,-0.972851,-0.0995753,-1.68251
1480627915877438,-0.972851,-0.0997181,-1.68202
1480627915885960,-0.970906,-0.0993258,-1.68157
1480627915909525,-0.968763,-0.0990451,-1.68137
1480627915937598,-0.968654,-0.0989625,-1.68137
1480627915952637,-0.971304,-0.0992569,-1.68098
1480627915967677,-0.972989,-0.0998034,-1.68054
1480627915990237,-0.973638,-0.100495,-1.68039
1480627916011293,-0.97412,-0.100486,-1.68046
1480627916035357,-0.97727,-0.0999253,-1.68037
1480627916049899,-0.981634,-0.0996954,-1.6801
1480627916070951,-0.986557,-0.0993707,-1.67944
1480627916087997,-0.990693,-0.0991531,-1.67872
1480627916111561,-0.996247,-0.0996316,-1.67815
1480627916131114,-1.00124,-0.101245,-1.67764
1480627916153671,-1.00598,-0.10169,-1.67737
1480627916184253,-1.0075,-0.101402,-1.67686
1480627916191272,-1.00548,-0.102674,-1.67657
1480627916207816,-1.0033,-0.102643,-1.67683
1480627916237896,-1.00004,-0.102076,-1.67678
1480627916250930,-0.996378,-0.102565,-1.67658
1480627916267475,-0.993116,-0.103311,-1.67648
1480627916290035,-0.989088,-0.103673,-1.67655
1480627916312093,-0.985018,-0.104419,-1.67649
1480627916328138,-0.980981,-0.104821,-1.67658
1480627916350194,-0.977639,-0.104257,-1.67673
1480627916371251,-0.974615,-0.102911,-1.67742
1480627916388797,-0.970769,-0.102873,-1.67809
1480627916409853,-0.967117,-0.10373,-1.67863
1480627916432915,-0.96387,-0.104067,-1.67924
1480627916447958,-0.961649,-0.103217,-1.67968
1480627916471017,-0.960357,-0.103078,-1.68013
1480627916491069,-0.961254,-0.102752,-1.68074
1480627916508115,-0.962219,-0.102344,-1.68086
1480627916530174,-0.962307,-0.102232,-1.68077
1480627916551231,-0.962333,-0.10204,-1.68084
1480627916567774,-0.962222,-0.102111,-1.68077
1480627916589832,-0.962922,-0.102186,-1.68066
1480627916618909,-0.964388,-0.102262,-1.68038
1480627916628937,-0.965062,-0.102681,-1.68013
1480627916657513,-0.96506,-0.102762,-1.68029
1480627916671048,-0.964949,-0.102832,-1.68022
1480627916687592,-0.964494,-0.102651,-1.68022
1480627916710654,-0.964472,-0.102609,-1.68006
1480627916740233,-0.96607,-0.102737,-1.68017
1480627916747755,-0.967712,-0.102822,-1.67981
1480627916770313,-0.968613,-0.102713,-1.67969
1480627916791873,-0.969293,-0.102674,-1.67967
1480627916808414,-0.969751,-0.10255,-1.67983
1480627916830976,-0.970233,-0.10254,-1.6799
1480627916852531,-0.970735,-0.102725,-1.68005
1480627916867573,-0.971215,-0.102868,-1.68005
1480627916890131,-0.971608,-0.102971,-1.6802
1480627916912692,-0.971608,-0.102971,-1.6802
1480627916935251,-0.972227,-0.102771,-1.68017
1480627916950291,-0.972775,-0.10276,-1.67992
1480627916996414,-0.972886,-0.10269,-1.68
1480627917001428,-0.972775,-0.10276,-1.67992
1480627917009951,-0.972797,-0.102802,-1.68008
1480627917032511,-0.973101,-0.103089,-1.68008
1480627917047049,-0.972992,-0.103006,-1.68008
1480627917070110,-0.972397,-0.103167,-1.6801
1480627917092671,-0.972396,-0.10332,-1.68002
1480627917106707,-0.972396,-0.10332,-1.68002
1480627917131276,-0.973098,-0.103323,-1.68016
1480627917152831,-0.972967,-0.103198,-1.68001
1480627917175391,-0.972967,-0.103198,-1.68001
1480627917189931,-0.972967,-0.103198,-1.68001
1480627917212489,-0.972967,-0.103198,-1.68001
1480627917228030,-0.972679,-0.103565,-1.67986
1480627917257609,-0.972679,-0.103565,-1.67986
1480627917273151,-0.972085,-0.103797,-1.67964
1480627917287187,-0.971625,-0.103921,-1.67949
1480627917310249,-0.971625,-0.103921,-1.67949
1480627917339828,-0.971516,-0.103838,-1.67949
1480627917353864,-0.971605,-0.103726,-1.67941
1480627917375923,-0.971805,-0.103839,-1.67883
1480627917392970,-0.971126,-0.10395,-1.67861
1480627917413524,-0.970247,-0.104245,-1.6784
1480627917431574,-0.969453,-0.104967,-1.67804
1480627917452628,-0.969276,-0.105417,-1.67789
1480627917473684,-0.969451,-0.105651,-1.67749
1480627917490228,-0.969868,-0.105939,-1.67731
1480627917512788,-0.970242,-0.105989,-1.6769
1480627917535348,-0.969741,-0.106029,-1.67644
1480627917550889,-0.969175,-0.105766,-1.67644
1480627917572949,-0.969263,-0.105653,-1.67635
1480627917601022,-0.969486,-0.105809,-1.67594
1480627917616069,-0.969285,-0.106604,-1.67564
1480627917632608,-0.969285,-0.106604,-1.67564
1480627917655166,-0.969175,-0.106674,-1.67557
1480627917670206,-0.969175,-0.106674,-1.67557
1480627917692265,-0.969175,-0.106674,-1.67557
1480627917714329,-0.969175,-0.106674,-1.67557
1480627917737887,-0.969285,-0.106757,-1.67557
1480627917752425,-0.969175,-0.106674,-1.67557
1480627917774986,-0.969285,-0.106604,-1.67564
1480627917790025,-0.969485,-0.106799,-1.67524
1480627917813589,-0.969289,-0.106748,-1.67516
1480627917851188,-0.968896,-0.106952,-1.67485
1480627917856201,-0.968917,-0.106995,-1.67501
1480627917872746,-0.968807,-0.107065,-1.67494
1480627917895808,-0.969488,-0.107248,-1.6746
1480627917910346,-0.969973,-0.107381,-1.67419
1480627917932404,-0.970083,-0.10731,-1.67426
1480627917954964,-0.969801,-0.107138,-1.67418
1480627917969509,-0.969801,-0.107138,-1.67418
1480627917992566,-0.969808,-0.107048,-1.6736
1480627918015626,-0.970008,-0.107089,-1.67327
1480627918029664,-0.970604,-0.106845,-1.67308
1480627918053226,-0.97151,-0.105888,-1.67318
1480627918075284,-0.974118,-0.103782,-1.67328
1480627918098346,-0.980277,-0.101418,-1.67273
1480627918112886,-0.985319,-0.100219,-1.67171
1480627918134943,-0.990185,-0.099643,-1.67128
1480627918149983,-0.992466,-0.0992946,-1.67123
1480627918173044,-0.992442,-0.0993343,-1.67124
1480627918201120,-0.994235,-0.099756,-1.67073
1480627918209642,-0.995927,-0.099763,-1.66957
1480627918234708,-0.994271,-0.0999645,-1.66894
1480627918255264,-0.991592,-0.100296,-1.66899
1480627918276319,-0.988542,-0.10079,-1.66872
1480627918292363,-0.984704,-0.101621,-1.66808
1480627918315426,-0.981578,-0.101997,-1.66782
1480627918335978,-0.978916,-0.101863,-1.66771
1480627918352523,-0.977642,-0.101989,-1.66758
1480627918375092,-0.976148,-0.101646,-1.66762
1480627918403658,-0.97233,-0.100886,-1.66801
1480627918412691,-0.96659,-0.100041,-1.66902
1480627918435242,-0.960883,-0.099267,-1.66975
1480627918456297,-0.957282,-0.0986394,-1.67081
1480627918472340,-0.957242,-0.0993916,-1.6719
1480627918495403,-0.960218,-0.099866,-1.67248
1480627918515958,-0.962776,-0.0994236,-1.67279
1480627918532500,-0.963846,-0.0993288,-1.673
1480627918555061,-0.962861,-0.0993188,-1.67311
1480627918576116,-0.961201,-0.0991975,-1.67332
1480627918600182,-0.960696,-0.0993284,-1.67343
1480627918615226,-0.96069,-0.0997957,-1.67361
1480627918643796,-0.961665,-0.100507,-1.67376
1480627918658837,-0.962004,-0.101072,-1.67394
1480627918674879,-0.961406,-0.101702,-1.67415
1480627918695936,-0.960504,-0.102046,-1.67436
1480627918712481,-0.960415,-0.102312,-1.67437
1480627918735042,-0.960391,-0.10235,-1.67437
1480627918757599,-0.960501,-0.102433,-1.67437
1480627918772640,-0.960693,-0.102717,-1.67454
1480627918795200,-0.960582,-0.102714,-1.67471
1480627918817760,-0.959991,-0.102498,-1.67513
1480627918838815,-0.960293,-0.102485,-1.67568
1480627918855861,-0.960767,-0.102787,-1.67601
1480627918877418,-0.960233,-0.103343,-1.67614
1480627918891957,-0.959439,-0.103849,-1.67651
1480627918922538,-0.958868,-0.104134,-1.67686
1480627918937579,-0.958868,-0.104134,-1.67686
1480627918960138,-0.958736,-0.104009,-1.67671
1480627918982698,-0.959042,-0.104215,-1.67654
1480627919005259,-0.959042,-0.104215,-1.67654
1480627919011777,-0.959042,-0.104215,-1.67654
1480627919035341,-0.959152,-0.104298,-1.67653
1480627919057899,-0.958058,-0.104357,-1.67658
1480627919072437,-0.957356,-0.104743,-1.67646
1480627919095500,-0.957269,-0.104702,-1.67662
1480627919117557,-0.957378,-0.104785,-1.67662
1480627919132096,-0.956875,-0.104988,-1.67648
1480627919155157,-0.955919,-0.104705,-1.6765
1480627919177719,-0.955028,-0.1045,-1.67637
1480627919207296,-0.955028,-0.1045,-1.67637
1480627919217824,-0.955422,-0.104441,-1.67619
1480627919237877,-0.955422,-0.104441,-1.67619
1480627919258933,-0.955443,-0.104636,-1.67627
1480627919283498,-0.955443,-0.104636,-1.67627
1480627919297540,-0.955443,-0.104636,-1.67627
1480627919318591,-0.95505,-0.104769,-1.67621
1480627919335136,-0.95505,-0.104769,-1.67621
1480627919357695,-0.955026,-0.104807,-1.67622
1480627919378753,-0.955421,-0.104748,-1.67604
1480627919402815,-0.956294,-0.104677,-1.67592
1480627919418357,-0.956404,-0.104606,-1.67599
1480627919438916,-0.955619,-0.104565,-1.67602
1480627919454955,-0.955812,-0.104695,-1.67626
1480627919477514,-0.956819,-0.104515,-1.67621
1480627919498573,-0.957692,-0.104598,-1.67602
1480627919515117,-0.957896,-0.104327,-1.67544
1480627919537675,-0.957511,-0.103759,-1.6751
1480627919560235,-0.957259,-0.10301,-1.67507
1480627919575776,-0.95798,-0.101221,-1.67465
1480627919599339,-0.962742,-0.0991872,-1.67458
1480627919618891,-0.971975,-0.0977801,-1.67461
1480627919634530,-0.980881,-0.0962613,-1.67266
1480627919657493,-0.983239,-0.0955025,-1.67047
1480627919680055,-0.983025,-0.0946474,-1.67062
1480627919708630,-0.986696,-0.0934131,-1.67094
1480627919717655,-0.99123,-0.0932541,-1.66958
1480627919740715,-0.996393,-0.0930521,-1.66855
1480627919755253,-0.997883,-0.092868,-1.6678
1480627919784832,-0.995706,-0.0937565,-1.66759
1480627919807893,-0.992644,-0.0946514,-1.66771
1480627919814916,-0.989992,-0.0948621,-1.66758
1480627919838475,-0.987411,-0.0951395,-1.6669
1480627919867553,-0.984085,-0.0957588,-1.66598
1480627919874572,-0.979767,-0.0966213,-1.66567
1480627919897632,-0.975742,-0.0971992,-1.66569
1480627919920694,-0.972552,-0.0977084,-1.66587
1480627919934734,-0.96964,-0.0972244,-1.66616
1480627919957792,-0.965807,-0.0966671,-1.6669
1480627919980353,-0.960405,-0.0961919,-1.66802
1480627920002412,-0.954847,-0.0950901,-1.66953
1480627920018955,-0.9526,-0.0945393,-1.67129
1480627920040011,-0.95297,-0.0939151,-1.67224
1480627920061067,-0.955379,-0.0941999,-1.67258
1480627920077614,-0.956355,-0.0944497,-1.67296
1480627920100171,-0.956346,-0.0949964,-1.67331
1480627920115213,-0.955723,-0.0957446,-1.67369
1480627920137771,-0.955496,-0.0963531,-1.67372
1480627920160331,-0.956077,-0.0968901,-1.67396
1480627920181390,-0.956832,-0.0972824,-1.6742
1480627920203446,-0.956741,-0.0977017,-1.67414
1480627920220491,-0.956795,-0.0984812,-1.67425
1480627920248568,-0.957679,-0.099305,-1.67449
1480627920257591,-0.958807,-0.0997494,-1.67432
1480627920280151,-0.959981,-0.0999711,-1.67461
1480627920308725,-0.960958,-0.100449,-1.67468
1480627920317749,-0.960958,-0.100449,-1.67468
1480627920349333,-0.960624,-0.100442,-1.67519
1480627920361367,-0.961123,-0.10048,-1.67582
1480627920378412,-0.962863,-0.101039,-1.67587
1480627920399969,-0.963712,-0.101466,-1.67554
1480627920421026,-0.963618,-0.101893,-1.67588
1480627920437569,-0.962405,-0.102191,-1.67659
1480627920460143,-0.961614,-0.102012,-1.67751
1480627920481202,-0.962087,-0.102169,-1.67832
1480627920511279,-0.964051,-0.102283,-1.67866
1480627920534341,-0.964051,-0.102283,-1.67866
1480627920541360,-0.962954,-0.102422,-1.67887
1480627920557401,-0.96264,-0.102763,-1.67938
1480627920588484,-0.963317,-0.102651,-1.67961
1480627920602521,-0.96428,-0.102622,-1.67934
1480627920623577,-0.96428,-0.102622,-1.67934
1480627920640122,-0.963319,-0.102643,-1.6792
1480627920668196,-0.962748,-0.102773,-1.67962
1480627920679228,-0.963826,-0.101989,-1.67997
1480627920700283,-0.967758,-0.100929,-1.6799
1480627920722842,-0.973469,-0.100456,-1.67924
1480627920743397,-0.982331,-0.0990003,-1.67877
1480627920761445,-0.991065,-0.0978958,-1.67883
1480627920782500,-0.998573,-0.0978716,-1.67842
1480627920803557,-1.0063,-0.0966455,-1.67859
1480627920820602,-1.01038,-0.0962344,-1.67816
1480627920848677,-1.01063,-0.09734,-1.67737
1480627920865722,-1.00896,-0.0974276,-1.67802
1480627920880260,-1.00686,-0.0975168,-1.67828
1480627920902821,-1.00427,-0.0983705,-1.67806
1480627920916858,-1.00132,-0.0986099,-1.67751
1480627920945936,-0.998568,-0.0986837,-1.67737
1480627920962481,-0.997572,-0.0983686,-1.67762
1480627920977520,-0.997551,-0.0983255,-1.67747
1480627921000081,-0.997661,-0.0984074,-1.67746
1480627921022638,-0.997172,-0.0984304,-1.67779
1480627921036679,-0.995977,-0.0981458,-1.67813
1480627921068261,-0.995378,-0.0980175,-1.67871
1480627921082801,-0.995378,-0.0980175,-1.67871
1480627921111379,-0.994486,-0.098336,-1.67929
1480627921120901,-0.992888,-0.0984979,-1.67981
1480627921142959,-0.989523,-0.0987014,-1.67995
1480627921163517,-0.98579,-0.0987737,-1.68033
1480627921180061,-0.982267,-0.0984287,-1.68062
1480627921203120,-0.97786,-0.097244,-1.68028
1480627921225180,-0.973247,-0.0972515,-1.68005
1480627921240218,-0.968331,-0.0975948,-1.67994
1480627921262779,-0.963337,-0.0979713,-1.67976
1480627921284335,-0.959307,-0.0986426,-1.67999
1480627921301887,-0.956161,-0.0988578,-1.6801
1480627921322436,-0.955872,-0.0992326,-1.68037
1480627921351514,-0.95646,-0.0993049,-1.68043
1480627921360037,-0.956511,-0.100158,-1.68031
1480627921382599,-0.955664,-0.100109,-1.68024
1480627921403653,-0.954578,-0.099779,-1.68027
1480627921420698,-0.953599,-0.0996854,-1.68022
1480627921450778,-0.953599,-0.0996854,-1.68022
1480627921463818,-0.953734,-0.0997239,-1.6798
1480627921487375,-0.953063,-0.0996783,-1.67925
1480627921502418,-0.952475,-0.0999078,-1.67863
1480627921523472,-0.951581,-0.100238,-1.67803
1480627921540015,-0.950707,-0.100843,-1.67767
1480627921563078,-0.950707,-0.100843,-1.67767
1480627921585146,-0.951297,-0.100755,-1.6774
1480627921600176,-0.951407,-0.100684,-1.67747
1480627921622735,-0.951217,-0.100474,-1.67707
1480627921653316,-0.951047,-0.100534,-1.6765
1480627921667355,-0.950854,-0.100632,-1.67594
1480627921682394,-0.950267,-0.100943,-1.67549
1480627921704954,-0.949876,-0.101224,-1.67494
1480627921719493,-0.949706,-0.101364,-1.67454
1480627921748587,-0.949706,-0.101364,-1.67454
1480627921765115,-0.949902,-0.101488,-1.67438
1480627921795206,-0.949682,-0.102012,-1.67384
1480627921803728,-0.949791,-0.102095,-1.67384
1480627921825787,-0.949901,-0.102024,-1.67391
1480627921839323,-0.949901,-0.102024,-1.67391
1480627921868902,-0.949791,-0.102095,-1.67384
1480627921885446,-0.949791,-0.102095,-1.67384
1480627921900988,-0.949791,-0.102095,-1.67384
1480627921928561,-0.949816,-0.102285,-1.67352
1480627921945106,-0.949622,-0.102463,-1.67312
1480627921959141,-0.949121,-0.102514,-1.67307
1480627921982706,-0.948839,-0.102576,-1.67308
1480627922005264,-0.948948,-0.102659,-1.67307
1480627922019303,-0.948838,-0.10273,-1.673
1480627922043365,-0.948838,-0.10273,-1.673
1480627922065424,-0.949315,-0.102717,-1.67307
1480627922085978,-0.949227,-0.10283,-1.67315
1480627922102524,-0.948922,-0.102623,-1.67332
1480627922126086,-0.948922,-0.102623,-1.67332
1480627922146140,-0.948944,-0.102664,-1.67348
1480627922186246,-0.949599,-0.102193,-1.67328
1480627922191259,-0.949632,-0.101455,-1.673
1480627922214323,-0.94947,-0.100822,-1.67257
1480627922231868,-0.94947,-0.100822,-1.67257
1480627922252421,-0.94908,-0.10103,-1.67227
1480627922267963,-0.948495,-0.101189,-1.67189
1480627922282502,-0.948517,-0.10123,-1.67205
1480627922306064,-0.948517,-0.10123,-1.67205
1480627922333638,-0.948407,-0.101301,-1.67198
1480627922342163,-0.948889,-0.101203,-1.67147
1480627922373244,-0.949504,-0.101076,-1.67119
1480627922386277,-0.951187,-0.100691,-1.67078
1480627922402821,-0.953719,-0.100343,-1.67003
1480627922425883,-0.957084,-0.0998102,-1.66972
1480627922454961,-0.960604,-0.0995488,-1.66903
1480627922462481,-0.962575,-0.0997105,-1.66832
1480627922485541,-0.962293,-0.0999996,-1.66801
1480627922507603,-0.960912,-0.100666,-1.668
1480627922537681,-0.960912,-0.100666,-1.668
1480627922545704,-0.961589,-0.100622,-1.66798
1480627922567761,-0.9626,-0.100205,-1.66785
1480627922582801,-0.962185,-0.09999,-1.66778
1480627922612380,-0.961028,-0.0998215,-1.66805
1480627922627420,-0.959454,-0.0998251,-1.66826
1480627922648976,-0.958471,-0.0998172,-1.66838
1480627922665019,-0.958558,-0.100164,-1.66806
1480627922688081,-0.958671,-0.100547,-1.6675
1480627922703622,-0.958693,-0.100589,-1.66766
1480627922733202,-0.958583,-0.10066,-1.66759
1480627922763783,-0.958583,-0.10066,-1.66759
1480627922768796,-0.958559,-0.100698,-1.6676
1480627922792525,-0.959256,-0.100696,-1.66773
1480627922809570,-0.960043,-0.10058,-1.66778
1480627922822103,-0.960131,-0.100467,-1.6677
1480627922845171,-0.960152,-0.100663,-1.66778
1480627922868229,-0.960431,-0.10076,-1.6681
1480627922889783,-0.959645,-0.100722,-1.66812
1480627922905327,-0.958747,-0.100835,-1.66824
1480627922927385,-0.95866,-0.100948,-1.66833
1480627922941922,-0.959049,-0.101507,-1.66825
1480627922964984,-0.959506,-0.101605,-1.66809
1480627922987543,-0.95953,-0.101567,-1.66808
1480627923011106,-0.959815,-0.101423,-1.66791
1480627923025145,-0.959925,-0.101352,-1.66798
1480627923047705,-0.959925,-0.101352,-1.66798
1480627923070765,-0.959925,-0.101352,-1.66798
1480627923086306,-0.959251,-0.101316,-1.66783
1480627923107863,-0.959032,-0.101305,-1.66777
1480627923128919,-0.959141,-0.101387,-1.66776
1480627923144963,-0.958661,-0.101634,-1.66779
1480627923168023,-0.95816,-0.101606,-1.66756
1480627923188578,-0.95816,-0.101606,-1.66756
1480627923205624,-0.95875,-0.101748,-1.66738
1480627923227181,-0.95875,-0.101748,-1.66738
1480627923265785,-0.95886,-0.101677,-1.66746
1480627923268290,-0.95875,-0.101748,-1.66738
1480627923288343,-0.95875,-0.101748,-1.66738
1480627923308898,-0.958641,-0.101819,-1.66731
1480627923324941,-0.959058,-0.1018,-1.66729
1480627923347506,-0.959036,-0.101758,-1.66713
1480627923368557,-0.959146,-0.101687,-1.66721
1480627923385101,-0.959036,-0.101758,-1.66713
1480627923407660,-0.959146,-0.101687,-1.66721
1480627923428718,-0.960327,-0.101203,-1.66723
1480627923445263,-0.962775,-0.100745,-1.6673
1480627923467822,-0.965733,-0.0995414,-1.66757
1480627923490381,-0.970562,-0.0982629,-1.66723
1480627923513445,-0.977867,-0.0969745,-1.66638
1480627923534001,-0.98504,-0.0978905,-1.66585
1480627923565581,-0.992269,-0.0985765,-1.66642
1480627923571096,-0.998118,-0.0978966,-1.66641
1480627923593656,-1.00201,-0.0972709,-1.6653
1480627923610200,-1.0034,-0.0971373,-1.66408
1480627923640280,-1.00289,-0.0981816,-1.66369
