timestamp,x,y,z
1480098267550833,0.574707,-0.512695,0.595215
1480098267565372,0.578125,-0.53125,0.595703
1480098267588435,0.572266,-0.53125,0.595215
1480098267610997,0.578125,-0.51123,0.595703
1480098267625532,0.577637,-0.532715,0.595703
1480098267648594,0.574707,-0.52002,0.602539
1480098267671654,0.582031,-0.519043,0.591309
1480098267693713,0.576172,-0.535156,0.600098
1480098267708753,0.578613,-0.51123,0.588867
1480098267731312,0.57373,-0.529297,0.59375
1480098267752369,0.573242,-0.529297,0.59375
1480098267768412,0.583984,-0.510254,0.598145
1480098267796988,0.57373,-0.53418,0.595215
1480098267812027,0.578125,-0.519043,0.595215
1480098267828573,0.577148,-0.510742,0.59082
1480098267858651,0.570801,-0.538086,0.592285
1480098267872188,0.581543,-0.523926,0.596191
1480098267888732,0.580078,-0.535156,0.606445
1480098267911292,0.571289,-0.536133,0.600586
1480098267932347,0.576172,-0.508789,0.602051
1480098267948392,0.570313,-0.52832,0.59668
1480098267970951,0.574219,-0.52002,0.595215
1480098267992006,0.583496,-0.516602,0.595215
1480098268008552,0.572754,-0.541016,0.598145
1480098268031149,0.578125,-0.511719,0.592773
1480098268052706,0.579102,-0.522461,0.595703
1480098268068711,0.569824,-0.525391,0.597168
1480098268091271,0.580566,-0.508301,0.59668
1480098268112326,0.57666,-0.536621,0.596191
1480098268135889,0.576172,-0.526367,0.597168
1480098268150930,0.579102,-0.52002,0.598145
1480098268171985,0.570313,-0.536133,0.599121
1480098268188530,0.573242,-0.515137,0.600586
1480098268211091,0.576172,-0.520508,0.598633
1480098268233650,0.575684,-0.536621,0.598633
1480098268248690,0.581543,-0.514648,0.595703
1480098268272252,0.571777,-0.531738,0.595703
1480098268294313,0.572754,-0.522949,0.598633
1480098268307847,0.575684,-0.510254,0.596191
1480098268330908,0.569824,-0.535645,0.602051
1480098268353971,0.580566,-0.519531,0.599609
1480098268368018,0.578613,-0.522461,0.595703
1480098268391068,0.571289,-0.536621,0.593262
1480098268413628,0.581543,-0.509766,0.593262
1480098268427665,0.574707,-0.532227,0.603027
1480098268452732,0.568848,-0.529297,0.592285
1480098268473788,0.577148,-0.511719,0.59375
1480098268487825,0.57373,-0.533691,0.59375
1480098268510892,0.57666,-0.519043,0.588867
1480098268533447,0.578125,-0.528809,0.594238
1480098268547987,0.571289,-0.543457,0.602051
1480098268571047,0.577637,-0.512207,0.59668
1480098268593611,0.570801,-0.522461,0.597168
1480098268614662,0.566406,-0.520508,0.597656
1480098268631208,0.58252,-0.505859,0.593262
1480098268653767,0.57666,-0.537109,0.594238
1480098268674822,0.57666,-0.520996,0.590332
1480098268690865,0.577637,-0.518066,0.591309
1480098268713425,0.571289,-0.53125,0.59375
1480098268734481,0.578125,-0.507813,0.593262
1480098268757041,0.576172,-0.526367,0.598633
1480098268773585,0.573242,-0.533691,0.598633
1480098268794641,0.581543,-0.513672,0.597656
1480098268811188,0.573242,-0.534668,0.597168
1480098268833745,0.571777,-0.524414,0.606445
1480098268854801,0.578125,-0.513672,0.597168
1480098268870844,0.572266,-0.532715,0.592285
1480098268900923,0.580078,-0.515625,0.597656
1480098268915964,0.578125,-0.526367,0.592773
1480098268931004,0.573242,-0.535156,0.590332
1480098268953564,0.579102,-0.509766,0.595703
1480098268974625,0.572266,-0.530762,0.605957
1480098268991664,0.57373,-0.524902,0.598633
1480098269013723,0.580078,-0.513672,0.595215
1480098269034780,0.57373,-0.534668,0.599609
1480098269051324,0.578613,-0.515137,0.599121
1480098269073383,0.580566,-0.525391,0.59668
1480098269095943,0.575195,-0.535156,0.592285
1480098269110482,0.583496,-0.507813,0.600586
1480098269133542,0.572266,-0.531738,0.592773
1480098269156103,0.575195,-0.523438,0.598145
1480098269171143,0.583496,-0.512207,0.595703
1480098269193704,0.569824,-0.538086,0.583984
1480098269216262,0.57373,-0.517578,0.597168
1480098269231303,0.577637,-0.538574,0.599609
1480098269253361,0.574219,-0.543457,0.604004
1480098269276422,0.584961,-0.51416,0.604004
1480098269290461,0.57373,-0.525879,0.60498
1480098269313523,0.574707,-0.516602,0.600586
1480098269336081,0.579102,-0.510254,0.600098
1480098269357137,0.57666,-0.539551,0.59375
1480098269374183,0.577637,-0.514648,0.589355
1480098269396241,0.577148,-0.517578,0.589844
1480098269410782,0.570801,-0.537109,0.589355
1480098269433341,0.580078,-0.507813,0.593262
1480098269455899,0.574219,-0.533203,0.602051
1480098269470439,0.577637,-0.524902,0.595703
1480098269493502,0.585938,-0.514648,0.598633
1480098269523580,0.572754,-0.536621,0.604004
1480098269530599,0.572754,-0.522461,0.597168
1480098269553661,0.573242,-0.523438,0.599121
1480098269576220,0.57373,-0.54248,0.595215
1480098269590257,0.580566,-0.513672,0.597168
1480098269613318,0.578613,-0.528809,0.589844
1480098269636379,0.574219,-0.527832,0.597168
1480098269656935,0.581055,-0.513184,0.604492
1480098269673483,0.57373,-0.536133,0.598633
1480098269696540,0.575684,-0.521484,0.599121
1480098269717094,0.580566,-0.517578,0.595703
1480098269733639,0.570801,-0.535645,0.594238
1480098269756199,0.58252,-0.51123,0.59668
1480098269777254,0.577637,-0.530762,0.59375
1480098269801318,0.575684,-0.530273,0.596191
1480098269815857,0.57959,-0.509277,0.59375
1480098269836913,0.574707,-0.53125,0.600586
1480098269859473,0.574219,-0.522461,0.600586
1480098269876037,0.58252,-0.516113,0.592285
1480098269897092,0.574219,-0.532715,0.594238
1480098269913636,0.580566,-0.504883,0.591309
1480098269942212,0.579102,-0.521973,0.591309
1480098269957252,0.575684,-0.537109,0.59668
1480098269973295,0.583008,-0.525879,0.598145
1480098269996858,0.57666,-0.538574,0.599121
1480098270016912,0.572266,-0.51709,0.600586
1480098270033455,0.577637,-0.510254,0.601074
1480098270056017,0.571289,-0.52832,0.598633
1480098270079078,0.57959,-0.509277,0.587891
1480098270093615,0.579102,-0.527344,0.585938
1480098270116175,0.574219,-0.533203,0.595703
1480098270138735,0.58252,-0.506836,0.600586
1480098270154280,0.57959,-0.537109,0.597168
1480098270175834,0.574707,-0.519531,0.596191
1480098270198394,0.581543,-0.513184,0.598145
1480098270213434,0.574219,-0.533203,0.596191
1480098270235994,0.578125,-0.516602,0.602539
1480098270258553,0.574219,-0.528809,0.599609
1480098270272652,0.563477,-0.539551,0.605957
1480098270296216,0.57666,-0.513672,0.597168
1480098270326298,0.575684,-0.536621,0.596191
1480098270332814,0.578613,-0.519531,0.588867
1480098270355875,0.577637,-0.512695,0.601563
1480098270378436,0.577637,-0.541504,0.595703
1480098270392973,0.578613,-0.517578,0.59668
1480098270416035,0.575684,-0.519531,0.59668
1480098270445613,0.567871,-0.525391,0.594238
1480098270454637,0.578613,-0.512695,0.596191
1480098270476698,0.575195,-0.533203,0.591309
1480098270498759,0.572266,-0.531738,0.595703
1480098270512792,0.575195,-0.512695,0.597656
1480098270541870,0.574219,-0.533203,0.595215
1480098270558412,0.57373,-0.515137,0.602051
1480098270579470,0.575195,-0.517578,0.600098
1480098270596012,0.569824,-0.536133,0.594727
1480098270619084,0.573242,-0.512207,0.596191
1480098270639664,0.573242,-0.535645,0.59668
1480098270656172,0.575195,-0.534668,0.596191
1480098270678734,0.581055,-0.519531,0.598633
1480098270699818,0.578613,-0.533691,0.597168
1480098270715832,0.571289,-0.512695,0.594727
1480098270738391,0.574707,-0.512695,0.599609
1480098270759447,0.569824,-0.535645,0.599609
1480098270766466,0.579102,-0.515625,0.595703
1480098270790530,0.574707,-0.53418,0.595703
1480098270804066,0.571777,-0.532715,0.59082
1480098270826628,0.574707,-0.508789,0.603516
1480098270841665,0.567871,-0.530273,0.597168
1480098270871245,0.57373,-0.521484,0.600586
1480098270886284,0.577148,-0.520508,0.598633
1480098270901325,0.57373,-0.537109,0.595215
1480098270940429,0.571289,-0.516113,0.59668
1480098270946445,0.566406,-0.530762,0.598145
1480098270961485,0.570801,-0.535156,0.590332
1480098270984045,0.578613,-0.516113,0.59668
1480098271006606,0.57373,-0.541016,0.597656
1480098271021647,0.577148,-0.524414,0.601074
1480098271043705,0.57959,-0.517578,0.598633
1480098271066264,0.575195,-0.536621,0.597656
1480098271081340,0.578125,-0.51416,0.598633
1480098271103947,0.574707,-0.528809,0.593262
1480098271126424,0.569336,-0.537109,0.595703
1480098271144474,0.581543,-0.511719,0.594727
1480098271164079,0.573242,-0.533203,0.594727
1480098271186583,0.576172,-0.527344,0.591797
1480098271201623,0.577637,-0.51416,0.591797
1480098271224184,0.572754,-0.537598,0.598633
1480098271246743,0.575195,-0.513184,0.596191
1480098271261283,0.577148,-0.52002,0.59375
1480098271283842,0.568848,-0.537598,0.597168
1480098271307906,0.57959,-0.520508,0.605957
1480098271321443,0.576172,-0.537598,0.59668
1480098271344002,0.572754,-0.529297,0.601563
1480098271369606,0.578613,-0.512695,0.594238
1480098271383106,0.570801,-0.530273,0.599609
1480098271404161,0.575684,-0.513184,0.597168
1480098271426724,0.57666,-0.522949,0.594238
1480098271442765,0.567871,-0.533691,0.594238
1480098271463821,0.576172,-0.515137,0.59668
1480098271486417,0.57373,-0.530273,0.588867
1480098271502926,0.572754,-0.524414,0.593262
1480098271523981,0.575195,-0.51123,0.59668
1480098271546540,0.571777,-0.541504,0.606445
1480098271563084,0.57666,-0.518555,0.602051
1480098271584194,0.57959,-0.525879,0.594238
1480098271606700,0.566895,-0.540039,0.598145
1480098271622743,0.576172,-0.513184,0.595215
1480098271651320,0.571777,-0.529785,0.59375
1480098271666360,0.572266,-0.530273,0.600098
1480098271684409,0.583008,-0.512695,0.595215
1480098271711479,0.576172,-0.533691,0.600586
1480098271726526,0.575684,-0.520508,0.599121
1480098271743071,0.57666,-0.515137,0.602539
1480098271765624,0.569336,-0.541992,0.597168
1480098271786679,0.579102,-0.518555,0.59375
1480098271804226,0.575195,-0.529785,0.589844
1480098271825282,0.569824,-0.531738,0.59668
1480098271846339,0.577637,-0.51416,0.59375
1480098271864888,0.572754,-0.535156,0.59375
1480098271883976,0.572754,-0.521484,0.598633
1480098271906535,0.577148,-0.51416,0.592773
1480098271932066,0.569824,-0.536133,0.601074
1480098271947106,0.575684,-0.507813,0.595703
1480098271966657,0.576172,-0.527832,0.598145
1480098271984705,0.573242,-0.541016,0.601074
1480098272003756,0.581055,-0.51709,0.600098
1480098272026820,0.574219,-0.537598,0.606445
1480098272051885,0.570801,-0.522461,0.604004
1480098272063918,0.577637,-0.508789,0.597168
1480098272086478,0.57373,-0.537109,0.588379
1480098272109037,0.582031,-0.515625,0.587402
1480098272124078,0.57373,-0.525879,0.593262
1480098272146636,0.571777,-0.536621,0.59375
1480098272177747,0.575195,-0.51123,0.597656
1480098272184237,0.570801,-0.526855,0.601074
1480098272206319,0.571289,-0.528809,0.601563
1480098272228856,0.575684,-0.517578,0.601074
1480098272243935,0.573242,-0.536133,0.596191
1480098272269477,0.578125,-0.51416,0.597656
1480098272297543,0.574707,-0.526855,0.594727
1480098272304061,0.571777,-0.533203,0.589844
1480098272329122,0.57666,-0.51416,0.597168
1480098272351180,0.571777,-0.536621,0.599121
1480098272364228,0.57373,-0.522949,0.602539
1480098272387778,0.57959,-0.516602,0.599121
1480098272408835,0.571289,-0.538574,0.596191
1480098272423911,0.574707,-0.52002,0.604492
1480098272446470,0.584473,-0.524902,0.598633
1480098272468994,0.567383,-0.533203,0.598633
1480098272487059,0.579102,-0.507324,0.597656
1480098272506593,0.574707,-0.529297,0.595215
1480098272529153,0.576172,-0.527832,0.59668
1480098272544194,0.58252,-0.513672,0.594727
1480098272566254,0.569824,-0.534668,0.597168
1480098272588812,0.575684,-0.518555,0.593262
1480098272606861,0.573242,-0.516113,0.589355
1480098272633932,0.573242,-0.544922,0.596191
1480098272648973,0.575684,-0.521484,0.600586
1480098272665517,0.57959,-0.531738,0.603516
1480098272694092,0.568848,-0.529297,0.601074
1480098272709133,0.575195,-0.506348,0.603516
1480098272725676,0.571777,-0.527832,0.594238
1480098272746231,0.577637,-0.521484,0.591309
1480098272768791,0.580566,-0.522461,0.592773
1480098272785336,0.570801,-0.536133,0.598145
1480098272806392,0.578613,-0.509277,0.598145
1480098272828951,0.571289,-0.522461,0.603516
1480098272845527,0.570313,-0.53125,0.599121
1480098272866551,0.57959,-0.51709,0.593262
1480098272889115,0.574707,-0.541016,0.598633
1480098272905658,0.57373,-0.528809,0.595215
1480098272926711,0.57666,-0.52002,0.595215
1480098272948770,0.567383,-0.540527,0.602051
1480098272967821,0.571777,-0.513672,0.597168
1480098273002954,0.576172,-0.530273,0.59668
1480098273008931,0.570313,-0.537109,0.597656
1480098273031491,0.579102,-0.508789,0.591309
1480098273046530,0.574707,-0.536133,0.597656
1480098273069112,0.572266,-0.525391,0.597656
1480098273087139,0.577148,-0.518555,0.598633
1480098273114210,0.569824,-0.540527,0.595703
1480098273128786,0.574219,-0.515625,0.595703
1480098273146796,0.573242,-0.527832,0.599121
1480098273166348,0.572266,-0.531738,0.595215
1480098273190413,0.576172,-0.510742,0.591797
1480098273220500,0.571777,-0.53125,0.597656
1480098273226509,0.570801,-0.525879,0.59375
1480098273249084,0.574707,-0.51709,0.59375
1480098273267116,0.573242,-0.542969,0.595703
1480098273286669,0.578613,-0.527344,0.601563
1480098273311736,0.578125,-0.526367,0.602051
1480098273326776,0.569824,-0.535645,0.599121
1480098273346328,0.575195,-0.510742,0.600586
1480098273368888,0.565918,-0.528809,0.599121
1480098273386936,0.573242,-0.527344,0.594727
1480098273409496,0.57666,-0.515625,0.594238
1480098273436568,0.571289,-0.542969,0.591797
1480098273447097,0.57666,-0.517578,0.595703
1480098273468152,0.574707,-0.517578,0.598633
1480098273488707,0.570313,-0.533691,0.601074
1480098273506755,0.580078,-0.517578,0.596191
1480098273527811,0.577148,-0.534668,0.593262
1480098273548865,0.573242,-0.53125,0.601074
1480098273579484,0.575195,-0.518066,0.601074
1480098273593987,0.56543,-0.533691,0.592285
1480098273616547,0.572266,-0.519531,0.597656
1480098273631587,0.580078,-0.518555,0.601563
1480098273648129,0.572754,-0.539551,0.594238
1480098273669186,0.581055,-0.51709,0.598633
1480098273691244,0.570801,-0.530273,0.597656
1480098273715308,0.571777,-0.530762,0.608887
1480098273736364,0.576172,-0.513184,0.594238
1480098273751404,0.574707,-0.534668,0.598145
1480098273767949,0.570313,-0.520996,0.603027
1480098273789008,0.577637,-0.516602,0.594238
1480098273811607,0.574219,-0.538086,0.595703
1480098273829617,0.576172,-0.516602,0.599121
1480098273849168,0.57666,-0.527344,0.595703
1480098273871729,0.570313,-0.53125,0.597168
1480098273889279,0.578125,-0.509766,0.597168
1480098273908827,0.572754,-0.536133,0.594238
1480098273931387,0.573242,-0.53125,0.602051
1480098273949436,0.583008,-0.525879,0.597168
1480098273969025,0.573242,-0.541504,0.603027
1480098273991548,0.57373,-0.510254,0.600586
1480098274009598,0.571289,-0.519043,0.597656
1480098274028646,0.572266,-0.53125,0.597168
1480098274051206,0.582031,-0.519043,0.591797
1480098274069254,0.571777,-0.541016,0.592285
1480098274090311,0.571289,-0.525391,0.597168
1480098274111367,0.580078,-0.513184,0.592285
1480098274129414,0.567871,-0.532715,0.598633
1480098274148966,0.571289,-0.518555,0.600586
1480098274171527,0.578125,-0.526367,0.59668
1480098274189073,0.572266,-0.540039,0.599609
1480098274209129,0.578125,-0.51416,0.596191
1480098274231186,0.572754,-0.534668,0.592773
1480098274249233,0.570801,-0.526367,0.59375
1480098274268785,0.578613,-0.52002,0.599609
1480098274291346,0.569824,-0.538574,0.600586
1480098274309397,0.57666,-0.522949,0.595215
1480098274328945,0.57666,-0.521973,0.59375
1480098274359026,0.569824,-0.532715,0.597168
1480098274369553,0.579102,-0.512695,0.599609
1480098274391612,0.574707,-0.532227,0.595215
1480098274411665,0.575684,-0.53125,0.589844
1480098274429212,0.583008,-0.513672,0.597168
1480098274448764,0.574219,-0.537598,0.591309
1480098274471324,0.575195,-0.525879,0.597656
1480098274489873,0.575195,-0.520996,0.595215
1480098274519452,0.573242,-0.533691,0.600586
1480098274531484,0.576172,-0.509766,0.593262
1480098274550034,0.572754,-0.527344,0.592773
1480098274570588,0.568359,-0.53125,0.592285
1480098274591643,0.575195,-0.515137,0.595703
1480098274609193,0.574219,-0.546875,0.599609
1480098274630247,0.578125,-0.52832,0.599609
1480098274651310,0.578125,-0.519043,0.600586
1480098274670354,0.567383,-0.535645,0.599121
1480098274690407,0.57666,-0.512695,0.600098
1480098274711463,0.576172,-0.526855,0.602539
1480098274729511,0.574219,-0.535645,0.592285
1480098274750567,0.578125,-0.512207,0.595215
1480098274771623,0.573242,-0.530762,0.594238
1480098274790174,0.57666,-0.520508,0.592773
1480098274825266,0.575684,-0.508301,0.598145
1480098274831282,0.572266,-0.538086,0.600098
1480098274849329,0.577148,-0.518555,0.598145
1480098274871889,0.579102,-0.528809,0.600586
1480098274891441,0.566895,-0.53418,0.595703
1480098274909992,0.575195,-0.513184,0.595703
1480098274932049,0.570801,-0.531738,0.592773
1480098274951623,0.577148,-0.527832,0.594238
1480098274970150,0.576172,-0.515625,0.594727
1480098274991708,0.573242,-0.538574,0.600098
1480098275011260,0.577148,-0.520996,0.604004
1480098275033819,0.580078,-0.523926,0.595215
1480098275051868,0.570313,-0.537109,0.597656
1480098275071420,0.578125,-0.509766,0.595703
1480098275101499,0.575684,-0.533691,0.59375
1480098275112028,0.576172,-0.529785,0.593262
1480098275133083,0.578613,-0.511719,0.596191
1480098275154140,0.569824,-0.535645,0.595215
1480098275171687,0.575195,-0.512207,0.596191
1480098275191238,0.574707,-0.518066,0.594238
1480098275213798,0.568359,-0.536133,0.590332
1480098275231846,0.576172,-0.51123,0.597656
1480098275251398,0.574219,-0.53125,0.593262
1480098275273959,0.573242,-0.532715,0.595215
1480098275292006,0.57666,-0.525391,0.605469
1480098275315082,0.577148,-0.541016,0.596191
1480098275334119,0.574219,-0.524902,0.602051
1480098275351666,0.575195,-0.515625,0.596191
1480098275381745,0.568848,-0.531738,0.59668
1480098275393777,0.578613,-0.510742,0.600586
1480098275411825,0.576172,-0.53125,0.589355
1480098275432881,0.569824,-0.532715,0.595703
1480098275453968,0.58252,-0.512207,0.592285
1480098275471986,0.575195,-0.53418,0.593262
1480098275494546,0.57373,-0.523438,0.59668
1480098275514097,0.577148,-0.518555,0.600098
1480098275539163,0.570801,-0.538574,0.602051
1480098275552700,0.576172,-0.51416,0.598145
1480098275573788,0.575195,-0.530762,0.602051
1480098275591804,0.567871,-0.530273,0.591797
1480098275612860,0.574219,-0.515625,0.592285
1480098275633941,0.57373,-0.536621,0.59668
1480098275656475,0.571289,-0.524414,0.595703
1480098275673019,0.574707,-0.521973,0.595703
1480098275694076,0.575195,-0.539551,0.595215
1480098275716635,0.572266,-0.513672,0.602051
1480098275740699,0.574219,-0.523926,0.598633
1480098275753734,0.571289,-0.532715,0.596191
1480098275771782,0.583496,-0.51123,0.596191
1480098275794342,0.57666,-0.531738,0.594727
1480098275813894,0.575684,-0.529785,0.595703
1480098275831942,0.582031,-0.512695,0.596191
1480098275854503,0.574707,-0.535645,0.594727
1480098275874054,0.577637,-0.516113,0.601074
1480098275891602,0.576172,-0.516113,0.595215
1480098275914662,0.570313,-0.533691,0.589844
1480098275933713,0.577637,-0.508789,0.591309
1480098275951761,0.572754,-0.538574,0.597168
1480098275974321,0.57666,-0.537598,0.597656
1480098275993873,0.578125,-0.519531,0.598145
1480098276011921,0.569336,-0.536133,0.595703
1480098276034481,0.571777,-0.512695,0.598633
1480098276054033,0.577637,-0.518066,0.595703
1480098276078097,0.571777,-0.538086,0.59375
1480098276094139,0.579102,-0.515137,0.59668
1480098276113692,0.575684,-0.529785,0.592773
1480098276131740,0.574707,-0.530762,0.593262
1480098276154300,0.572754,-0.509766,0.599609
1480098276173852,0.573242,-0.536621,0.597656
1480098276191899,0.575195,-0.525391,0.605957
1480098276214461,0.58252,-0.522461,0.601074
1480098276235516,0.569336,-0.537598,0.598145
1480098276252060,0.575195,-0.512207,0.597656
1480098276274620,0.57373,-0.529785,0.593262
1480098276294171,0.572266,-0.530273,0.59375
1480098276311720,0.580566,-0.513184,0.59668
1480098276334279,0.577148,-0.541016,0.59668
1480098276353869,0.57666,-0.524414,0.604004
1480098276371879,0.580566,-0.519531,0.601563
1480098276400455,0.571289,-0.535156,0.597656
1480098276415495,0.577148,-0.512207,0.603027
1480098276432038,0.581055,-0.526367,0.59668
1480098276455101,0.571777,-0.532715,0.605957
1480098276475153,0.584473,-0.51123,0.596191
1480098276491697,0.57373,-0.53418,0.589844
1480098276521779,0.575195,-0.523926,0.597656
1480098276535313,0.57959,-0.514648,0.595703
1480098276556408,0.570801,-0.538574,0.596191
1480098276574419,0.579102,-0.516602,0.600098
1480098276595474,0.578613,-0.52002,0.598145
1480098276616529,0.572754,-0.532715,0.596191
1480098276634576,0.580566,-0.513672,0.600098
1480098276655132,0.57666,-0.538574,0.597656
1480098276676190,0.576172,-0.525391,0.600098
1480098276695238,0.579102,-0.51123,0.604492
1480098276716795,0.569824,-0.526855,0.597168
1480098276739356,0.571777,-0.510742,0.600098
1480098276754395,0.585938,-0.523438,0.592773
1480098276776956,0.576172,-0.532715,0.599121
1480098276799516,0.580078,-0.511719,0.596191
1480098276814555,0.57959,-0.525391,0.59082
1480098276836614,0.575684,-0.518555,0.596191
1480098276857670,0.57959,-0.505371,0.593262
1480098276874214,0.57373,-0.536133,0.603027
1480098276896774,0.582031,-0.517578,0.601074
1480098276916326,0.583008,-0.523438,0.594238
1480098276934375,0.574707,-0.530762,0.599121
1480098276956935,0.584473,-0.506836,0.592773
1480098276976488,0.581543,-0.522461,0.594727
1480098276995037,0.573242,-0.53418,0.59375
1480098277017094,0.583008,-0.503906,0.592285
1480098277036646,0.57959,-0.53125,0.589844
1480098277054193,0.580078,-0.516602,0.596191
1480098277076253,0.583008,-0.507813,0.593262
1480098277096305,0.572754,-0.535156,0.598633
1480098277114353,0.586426,-0.509277,0.599121
1480098277136914,0.585938,-0.522461,0.594727
1480098277156466,0.579102,-0.52832,0.595215
1480098277174513,0.586914,-0.505371,0.595215
1480098277197073,0.57666,-0.530762,0.590332
1480098277216624,0.582031,-0.51709,0.593262
1480098277234171,0.581543,-0.504395,0.589355
1480098277256731,0.57959,-0.524902,0.592285
1480098277276286,0.581055,-0.505371,0.592773
1480098277294332,0.584473,-0.528809,0.595703
1480098277317432,0.580566,-0.539551,0.59668
1480098277336946,0.588867,-0.507324,0.600586
1480098277354492,0.577637,-0.524414,0.59668
1480098277377053,0.575684,-0.520508,0.600586
1480098277398107,0.580078,-0.508301,0.597656
1480098277414167,0.57959,-0.538086,0.591309
1480098277436710,0.585938,-0.515137,0.592773
1480098277457766,0.583984,-0.52002,0.598633
1480098277474312,0.57959,-0.527344,0.593262
1480098277501383,0.578613,-0.49707,0.599609
1480098277516923,0.578613,-0.529297,0.59668
1480098277534470,0.577637,-0.525879,0.601074
1480098277557030,0.583496,-0.509766,0.599609
1480098277577085,0.57373,-0.532715,0.599609
1480098277593127,0.577148,-0.508789,0.601074
1480098277616187,0.581543,-0.514648,0.59375
1480098277637244,0.575684,-0.532715,0.600098
1480098277652785,0.57959,-0.509766,0.599609
1480098277682363,0.580566,-0.529297,0.600586
1480098277698453,0.572266,-0.530762,0.596191
1480098277719508,0.581543,-0.507324,0.598145
1480098277736053,0.572266,-0.53125,0.600098
1480098277758613,0.58252,-0.520508,0.599609
1480098277779669,0.584961,-0.516113,0.598145
1480098277796214,0.57373,-0.534668,0.597656
1480098277818271,0.583496,-0.510254,0.585938
1480098277839327,0.581055,-0.520508,0.598633
1480098277855872,0.575684,-0.530273,0.597168
1480098277878432,0.582031,-0.504883,0.595215
1480098277899487,0.576172,-0.525879,0.597168
1480098277916031,0.576172,-0.514648,0.598145
1480098277939092,0.583984,-0.516113,0.600586
1480098277959648,0.576172,-0.544434,0.601563
1480098277976192,0.582031,-0.512695,0.598633
1480098277998251,0.575684,-0.524414,0.597168
1480098278019307,0.570313,-0.523926,0.597656
1480098278035851,0.587891,-0.5,0.59668
1480098278058410,0.57959,-0.532715,0.592285
1480098278080468,0.580078,-0.525391,0.592285
1480098278096012,0.584473,-0.513672,0.595215
1480098278119072,0.577148,-0.539551,0.592773
1480098278139665,0.576172,-0.505371,0.596191
1480098278156169,0.57666,-0.519043,0.599121
1480098278184745,0.576172,-0.532227,0.595215
1480098278199787,0.586914,-0.51416,0.601563
1480098278215829,0.577148,-0.533203,0.602051
1480098278238388,0.57373,-0.525879,0.599121
1480098278259447,0.578125,-0.512695,0.594727
1480098278275991,0.571777,-0.532227,0.599609
1480098278298550,0.577148,-0.518066,0.595215
1480098278320135,0.578613,-0.517578,0.595215
1480098278336149,0.572266,-0.540527,0.59668
1480098278358709,0.580078,-0.508301,0.595703
1480098278379782,0.576172,-0.526367,0.599121
1480098278395807,0.571777,-0.527344,0.603027
1480098278418368,0.581055,-0.512695,0.595703
1480098278439423,0.57666,-0.533203,0.600098
1480098278455967,0.579102,-0.515137,0.599121
1480098278478527,0.581055,-0.51123,0.595215
1480098278499584,0.569824,-0.535645,0.598145
1480098278516128,0.582031,-0.510742,0.594727
1480098278538686,0.578125,-0.526367,0.602051
1480098278559744,0.576172,-0.52002,0.589844
1480098278576290,0.579102,-0.499023,0.59375
1480098278598345,0.572266,-0.533691,0.597656
1480098278628427,0.574219,-0.526367,0.592285
1480098278635947,0.583496,-0.517578,0.602051
1480098278658506,0.573242,-0.529785,0.600098
1480098278681067,0.576172,-0.505371,0.598145
1480098278703626,0.578125,-0.525391,0.598633
1480098278718667,0.574219,-0.532227,0.599609
1480098278740725,0.585449,-0.510742,0.598633
1480098278755264,0.575684,-0.52832,0.599121
1480098278778326,0.579102,-0.519043,0.596191
1480098278800887,0.578125,-0.509277,0.59375
1480098278815425,0.570313,-0.53125,0.596191
1480098278838484,0.583984,-0.51709,0.593262
1480098278861046,0.581543,-0.527832,0.592773
1480098278875583,0.577148,-0.530762,0.594727
1480098278898677,0.585449,-0.51123,0.595703
1480098278921216,0.57666,-0.532227,0.591309
1480098278935241,0.578125,-0.524414,0.600098
1480098278958804,0.585938,-0.512695,0.59082
1480098278982392,0.579102,-0.537109,0.594238
1480098278995403,0.577637,-0.515137,0.599609
1480098279018479,0.574707,-0.515625,0.598145
1480098279041025,0.570313,-0.529785,0.601074
1480098279055561,0.578125,-0.508789,0.603516
1480098279078623,0.577637,-0.530273,0.601563
1480098279101184,0.578613,-0.523926,0.597168
1480098279123744,0.584473,-0.509277,0.598633
1480098279145803,0.579102,-0.534668,0.602539
1480098279160843,0.580078,-0.513184,0.602539
1480098279181898,0.58252,-0.520508,0.595215
1480098279205961,0.574219,-0.532715,0.59082
1480098279221010,0.580078,-0.502441,0.588867
1480098279242087,0.577148,-0.520996,0.597168
1480098279258602,0.575684,-0.522949,0.585938
1480098279281163,0.581543,-0.512207,0.595703
1480098279302220,0.576172,-0.544434,0.602539
1480098279318261,0.580078,-0.526367,0.605469
1480098279340821,0.585938,-0.51416,0.603027
1480098279361885,0.57373,-0.527832,0.600098
1480098279378422,0.575684,-0.501465,0.601074
1480098279400981,0.584961,-0.522461,0.597168
1480098279422038,0.583008,-0.528809,0.59375
1480098279438582,0.58252,-0.509277,0.59082
1480098279461153,0.57666,-0.532227,0.595703
1480098279482197,0.578125,-0.516602,0.599121
1480098279498239,0.581055,-0.509277,0.596191
1480098279520800,0.57373,-0.527344,0.602539
1480098279541863,0.583008,-0.510254,0.603516
1480098279558399,0.584473,-0.524414,0.59668
1480098279580960,0.574707,-0.532227,0.595215
1480098279603519,0.583008,-0.509277,0.598145
1480098279618559,0.577148,-0.528809,0.594238
1480098279641119,0.580078,-0.521484,0.597656
1480098279663678,0.583008,-0.505371,0.592773
1480098279678217,0.578613,-0.533691,0.598633
1480098279701280,0.586914,-0.512207,0.601074
1480098279723338,0.585449,-0.515625,0.59668
1480098279737878,0.571777,-0.530762,0.598633
1480098279760938,0.584961,-0.508301,0.599121
1480098279789513,0.581055,-0.52832,0.599609
1480098279798037,0.585449,-0.524902,0.595215
1480098279821098,0.586426,-0.507813,0.599609
1480098279843658,0.57959,-0.53125,0.592773
1480098279857696,0.585449,-0.512207,0.593262
1480098279881257,0.585449,-0.512207,0.59082
1480098279903819,0.578613,-0.532715,0.596191
1480098279917855,0.585449,-0.502441,0.592285
1480098279942423,0.584961,-0.520508,0.591797
1480098279963477,0.58252,-0.516602,0.588379
1480098279978016,0.588867,-0.505371,0.593262
1480098280001078,0.585449,-0.533691,0.59668
1480098280023136,0.587402,-0.518066,0.597656
1480098280037673,0.585449,-0.509277,0.598145
1480098280061236,0.577148,-0.525391,0.597656
1480098280083295,0.581543,-0.500488,0.595703
1480098280104351,0.589355,-0.522949,0.597168
1480098280128415,0.575684,-0.523438,0.588867
1480098280143456,0.586914,-0.503906,0.596191
1480098280164511,0.588379,-0.527344,0.589844
1480098280181055,0.580566,-0.51416,0.600586
1480098280203615,0.583984,-0.50293,0.594238
1480098280224673,0.581543,-0.530273,0.595703
1480098280241215,0.587891,-0.508789,0.59668
1480098280263274,0.587891,-0.520508,0.604004
1480098280284330,0.580078,-0.523926,0.600586
1480098280300874,0.585938,-0.500977,0.593262
1480098280323434,0.57959,-0.521973,0.597656
1480098280344505,0.583496,-0.522461,0.595215
1480098280361035,0.585938,-0.507324,0.592285
1480098280383594,0.583496,-0.525391,0.593262
1480098280404650,0.586426,-0.512207,0.595703
1480098280421194,0.587891,-0.510742,0.594238
1480098280443754,0.578125,-0.528809,0.595703
1480098280464811,0.589355,-0.508789,0.594238
1480098280480852,0.589844,-0.519531,0.595215
1480098280503430,0.585449,-0.52002,0.598145
1480098280525973,0.588867,-0.504395,0.590332
1480098280541013,0.582031,-0.526855,0.592773
1480098280563573,0.587891,-0.513184,0.593262
1480098280586132,0.583984,-0.506836,0.586426
1480098280601673,0.580566,-0.52832,0.59082
1480098280624245,0.587891,-0.50293,0.592285
1480098280645795,0.583496,-0.524902,0.592773
1480098280660831,0.582031,-0.533203,0.599121
1480098280683391,0.59082,-0.507324,0.59668
1480098280705951,0.578613,-0.523926,0.59668
1480098280720490,0.578613,-0.509766,0.599121
1480098280743552,0.585449,-0.505371,0.589844
1480098280766112,0.583984,-0.532227,0.594727
1480098280780149,0.585449,-0.51416,0.598633
1480098280803727,0.583984,-0.52002,0.593262
1480098280826272,0.577637,-0.530273,0.589844
1480098280840309,0.583984,-0.5,0.595215
1480098280863370,0.578125,-0.524414,0.600586
1480098280885929,0.57959,-0.527344,0.595703
1480098280900468,0.588867,-0.510742,0.602539
1480098280923530,0.57666,-0.532715,0.600098
1480098280946091,0.583496,-0.508789,0.599609
1480098280960127,0.580566,-0.516602,0.592773
1480098280983689,0.575684,-0.53125,0.595215
1480098281005749,0.581543,-0.508789,0.598633
1480098281026805,0.578613,-0.524414,0.599609
1480098281043349,0.576172,-0.525391,0.601074
1480098281065908,0.583008,-0.506348,0.602051
1480098281087466,0.577637,-0.530762,0.602539
1480098281103508,0.57666,-0.519531,0.598145
1480098281126071,0.580566,-0.515137,0.591797
1480098281147132,0.57666,-0.530762,0.594238
1480098281163669,0.582031,-0.501953,0.591797
1480098281185727,0.582031,-0.512207,0.587402
1480098281207285,0.575195,-0.523438,0.593262
1480098281223328,0.57959,-0.504883,0.600586
1480098281245888,0.574707,-0.52832,0.603516
1480098281274463,0.572754,-0.516602,0.608398
1480098281289504,0.584473,-0.518555,0.608887
1480098281306048,0.57959,-0.539551,0.611328
1480098281327104,0.589355,-0.506836,0.608887
1480098281343648,0.583984,-0.511719,0.605957
1480098281366207,0.57666,-0.519043,0.59375
1480098281387262,0.58252,-0.50293,0.584473
1480098281403306,0.577637,-0.53418,0.579102
1480098281425866,0.581055,-0.523926,0.57959
1480098281446922,0.583008,-0.508789,0.57959
1480098281463465,0.583984,-0.533203,0.58252
1480098281486027,0.59082,-0.508789,0.586426
1480098281508587,0.58252,-0.516602,0.598145
1480098281523628,0.576172,-0.532715,0.604004
1480098281546193,0.578613,-0.51123,0.602051
1480098281568244,0.572266,-0.529785,0.612305
1480098281583286,0.571777,-0.527832,0.609863
1480098281605845,0.576172,-0.510742,0.604004
1480098281628406,0.570801,-0.53125,0.60791
1480098281642950,0.577148,-0.512695,0.60498
1480098281666005,0.582031,-0.52002,0.603027
1480098281688565,0.57373,-0.533203,0.608398
1480098281702603,0.581543,-0.509277,0.601563
1480098281726190,0.580566,-0.523438,0.599121
1480098281748223,0.575684,-0.523926,0.606934
1480098281762792,0.587891,-0.504883,0.60498
1480098281785824,0.578613,-0.529297,0.605957
1480098281809389,0.584473,-0.512695,0.59668
1480098281822923,0.584961,-0.511719,0.599121
1480098281845983,0.57373,-0.532227,0.597168
1480098281868544,0.582031,-0.506836,0.595215
1480098281883081,0.581055,-0.519531,0.585938
1480098281913663,0.576172,-0.523438,0.59668
1480098281928704,0.587891,-0.512207,0.592285
1480098281949758,0.586426,-0.536133,0.600098
1480098281966806,0.583496,-0.521484,0.596191
1480098281988362,0.585938,-0.504395,0.600586
1480098282009443,0.575195,-0.525879,0.600098
1480098282025964,0.584473,-0.506836,0.599121
1480098282048523,0.586914,-0.522461,0.594238
1480098282069577,0.581543,-0.529785,0.594238
1480098282086123,0.588379,-0.50293,0.59668
1480098282108686,0.586914,-0.519531,0.597168
1480098282129737,0.58252,-0.513672,0.598633
1480098282145782,0.588379,-0.500488,0.599609
1480098282168342,0.577148,-0.530762,0.601563
1480098282189401,0.584473,-0.508301,0.602051
1480098282211957,0.585938,-0.51416,0.59668
1480098282228502,0.579102,-0.525391,0.591797
1480098282249054,0.582031,-0.499023,0.596191
1480098282266102,0.586914,-0.51709,0.592773
1480098282288660,0.583984,-0.521484,0.586426
1480098282309716,0.587891,-0.505371,0.593262
1480098282325759,0.582031,-0.527832,0.589844
1480098282354336,0.589355,-0.508301,0.596191
1480098282369376,0.587402,-0.510254,0.59668
1480098282385919,0.584961,-0.524902,0.591797
1480098282408482,0.586426,-0.5,0.591797
1480098282431039,0.588379,-0.514648,0.592285
1480098282446080,0.58252,-0.520508,0.594727
1480098282468639,0.588379,-0.495605,0.595703
1480098282491199,0.589355,-0.518555,0.592773
1480098282512258,0.589355,-0.509277,0.597656
1480098282528299,0.591797,-0.505859,0.588379
1480098282550859,0.588379,-0.533691,0.595703
1480098282565396,0.594238,-0.506836,0.589844
1480098282588959,0.591797,-0.513672,0.595215
1480098282611017,0.57959,-0.51709,0.597656
1480098282625557,0.59375,-0.494629,0.592773
1480098282648619,0.591797,-0.522949,0.590332
1480098282671177,0.593262,-0.508789,0.585938
1480098282685216,0.596191,-0.498047,0.59082
1480098282708780,0.594727,-0.523438,0.592285
1480098282736852,0.595215,-0.50293,0.59375
1480098282745376,0.591309,-0.506348,0.593262
1480098282768438,0.586426,-0.522949,0.596191
1480098282790998,0.595215,-0.503418,0.594727
1480098282805535,0.593262,-0.519043,0.59375
1480098282828613,0.588867,-0.512207,0.599121
1480098282851158,0.594727,-0.496094,0.595703
1480098282865195,0.589355,-0.522949,0.590332
1480098282888758,0.597168,-0.510254,0.591309
1480098282910815,0.59668,-0.510254,0.587891
1480098282939391,0.592285,-0.520508,0.590332
1480098282948417,0.593262,-0.493164,0.590332
1480098282970975,0.595215,-0.512695,0.595703
1480098282999552,0.594727,-0.515137,0.595703
1480098283008577,0.594238,-0.499512,0.587891
1480098283031136,0.588867,-0.519043,0.587891
1480098283052190,0.59375,-0.499512,0.588379
1480098283068235,0.59668,-0.498535,0.592285
1480098283090796,0.589844,-0.518066,0.585449
1480098283111849,0.598633,-0.493164,0.590332
1480098283128394,0.597656,-0.513184,0.590332
1480098283150956,0.594238,-0.522461,0.590332
1480098283172009,0.606934,-0.498047,0.591797
1480098283188555,0.598145,-0.517578,0.593262
1480098283211113,0.589844,-0.501953,0.594727
1480098283233675,0.586914,-0.492676,0.596191
1480098283248717,0.591309,-0.527832,0.593262
1480098283271273,0.598633,-0.506836,0.592285
1480098283292330,0.59668,-0.508789,0.586914
1480098283308374,0.589844,-0.52002,0.593262
1480098283330934,0.59375,-0.489746,0.593262
1480098283351990,0.589844,-0.51416,0.596191
1480098283368533,0.590332,-0.515625,0.592285
1480098283391094,0.59668,-0.502441,0.588379
1480098283421172,0.59082,-0.524902,0.581543
1480098283428692,0.595703,-0.495605,0.584473
1480098283450751,0.592773,-0.504883,0.595703
1480098283473311,0.589844,-0.519531,0.588379
1480098283494367,0.588379,-0.500977,0.594727
1480098283510912,0.577637,-0.523926,0.605469
1480098283533973,0.587891,-0.522949,0.603027
1480098283548011,0.598633,-0.499512,0.605957
1480098283571071,0.589844,-0.522461,0.600586
1480098283593632,0.594727,-0.5,0.591797
1480098283608172,0.592773,-0.501953,0.581543
1480098283631234,0.586914,-0.523926,0.568848
1480098283653289,0.580078,-0.516602,0.574707
1480098283667828,0.59668,-0.492676,0.559082
1480098283691394,0.608887,-0.500977,0.637207
1480098283713450,0.556641,-0.509277,0.59082
1480098283736043,0.56543,-0.525879,0.57666
1480098283751051,0.618164,-0.525879,0.585938
1480098283773611,0.601074,-0.494629,0.575684
1480098283802186,0.604492,-0.51709,0.60498
1480098283811210,0.616699,-0.504395,0.612305
1480098283833270,0.572266,-0.541016,0.608887
1480098283854325,0.558105,-0.544434,0.61084
1480098283870870,0.573242,-0.510254,0.603027
1480098283893430,0.569336,-0.528809,0.602539
1480098283914522,0.598145,-0.519531,0.605957
1480098283931029,0.585938,-0.522949,0.601563
1480098283953588,0.560059,-0.550293,0.593262
1480098283974648,0.578125,-0.514648,0.586914
1480098283990689,0.603516,-0.511719,0.591309
1480098284013249,0.587402,-0.529785,0.597168
1480098284034341,0.596191,-0.527344,0.599121
1480098284050849,0.571777,-0.523926,0.562012
1480098284073409,0.609863,-0.509277,0.585938
1480098284094464,0.632324,-0.496582,0.592285
1480098284111008,0.587402,-0.526855,0.611816
1480098284133567,0.580566,-0.527344,0.594727
1480098284154623,0.571289,-0.516602,0.575684
1480098284171167,0.589355,-0.520508,0.588379
1480098284193225,0.603027,-0.490723,0.59082
1480098284214283,0.587891,-0.51416,0.586914
1480098284230826,0.614258,-0.516113,0.5625
1480098284253388,0.599121,-0.517578,0.562988
1480098284274441,0.614258,-0.514648,0.586426
1480098284290987,0.599609,-0.484375,0.586914
1480098284313547,0.571777,-0.477539,0.570801
1480098284336106,0.592285,-0.538574,0.580078
1480098284351147,0.59668,-0.542969,0.582031
1480098284373205,0.598145,-0.539551,0.599609
1480098284395767,0.589844,-0.52002,0.599121
1480098284410806,0.601074,-0.476563,0.587891
1480098284433366,0.592285,-0.505371,0.583008
1480098284455924,0.589355,-0.501465,0.585938
1480098284470463,0.592773,-0.512207,0.594238
1480098284493525,0.591309,-0.536621,0.585449
1480098284516084,0.583984,-0.515625,0.59082
1480098284530123,0.586426,-0.521484,0.584473
1480098284553684,0.585449,-0.519043,0.582031
1480098284575744,0.59668,-0.48877,0.585938
1480098284590281,0.594238,-0.517578,0.599121
1480098284614847,0.591309,-0.523926,0.611816
1480098284635906,0.594238,-0.508789,0.599609
1480098284650443,0.587891,-0.524414,0.597656
1480098284673507,0.584473,-0.502441,0.59082
1480098284696064,0.588379,-0.507813,0.58252
1480098284710101,0.580566,-0.53125,0.585938
1480098284733663,0.592773,-0.510742,0.590332
1480098284756223,0.592285,-0.525391,0.595703
1480098284776778,0.59082,-0.521973,0.598633
1480098284793322,0.595215,-0.503418,0.592773
1480098284815883,0.593262,-0.524902,0.597168
1480098284836938,0.59375,-0.501953,0.584473
1480098284853483,0.587891,-0.50293,0.584473
1480098284883562,0.575195,-0.529785,0.587402
1480098284897099,0.586914,-0.507813,0.58252
1480098284913643,0.588867,-0.520996,0.58252
1480098284935700,0.591309,-0.521484,0.583984
1480098284957258,0.598145,-0.504883,0.589355
1480098284973301,0.59668,-0.528809,0.59082
1480098284995862,0.588867,-0.513184,0.598145
1480098285016917,0.597168,-0.500488,0.59375
1480098285033460,0.577148,-0.520996,0.594727
1480098285056021,0.581543,-0.509277,0.595215
1480098285077077,0.589844,-0.527832,0.588379
1480098285093621,0.584961,-0.534668,0.594238
1480098285116180,0.586914,-0.498535,0.587891
1480098285137237,0.588867,-0.520996,0.588379
1480098285153279,0.588867,-0.51416,0.590332
1480098285176344,0.599609,-0.507324,0.59375
1480098285196896,0.585938,-0.532715,0.603027
1480098285213442,0.586914,-0.52002,0.595703
1480098285235999,0.583984,-0.510742,0.59082
1480098285257056,0.585449,-0.521484,0.583008
1480098285273601,0.586914,-0.499023,0.584961
1480098285296159,0.586426,-0.526855,0.586426
1480098285318219,0.586914,-0.539551,0.596191
1480098285333259,0.592285,-0.512695,0.591797
1480098285355818,0.582031,-0.527832,0.599121
1480098285378378,0.586914,-0.505859,0.592773
1480098285392918,0.589355,-0.508789,0.589355
1480098285415978,0.581543,-0.53125,0.591309
1480098285438569,0.585938,-0.516602,0.591309
1480098285452577,0.584473,-0.531738,0.587891
1480098285476137,0.580566,-0.527344,0.587891
1480098285498697,0.588867,-0.499023,0.585449
1480098285512736,0.594238,-0.527344,0.593262
1480098285536799,0.595215,-0.51709,0.584473
1480098285558357,0.594238,-0.508301,0.587891
1480098285572896,0.581055,-0.532715,0.586914
1480098285595957,0.585449,-0.504395,0.592773
1480098285618517,0.584961,-0.52002,0.590332
1480098285632554,0.58252,-0.520508,0.591309
1480098285656117,0.592285,-0.506348,0.602051
1480098285678676,0.586426,-0.533203,0.59375
1480098285699231,0.591797,-0.519531,0.598633
1480098285715776,0.591797,-0.500977,0.584473
1480098285738336,0.58252,-0.527832,0.591797
1480098285759430,0.588379,-0.510254,0.591797
1480098285775936,0.587891,-0.519043,0.583008
1480098285798500,0.575684,-0.52832,0.587402
1480098285819551,0.584473,-0.504883,0.57666
1480098285836135,0.583496,-0.523926,0.588867
1480098285866180,0.584473,-0.530762,0.595215
1480098285887237,0.595215,-0.512695,0.595703
1480098285895754,0.589844,-0.530273,0.600586
1480098285925835,0.590332,-0.509277,0.601563
1480098285939370,0.584961,-0.509277,0.595703
1480098285961930,0.580566,-0.521973,0.59082
1480098285978475,0.589355,-0.5,0.587891
1480098285999531,0.585449,-0.52832,0.585449
1480098286016074,0.585449,-0.523926,0.585449
1480098286038633,0.595215,-0.500488,0.585449
1480098286059724,0.582031,-0.522949,0.591309
1480098286075733,0.587402,-0.513184,0.592285
1480098286098298,0.587891,-0.512207,0.599609
1480098286119353,0.581543,-0.533203,0.590332
1480098286135913,0.583008,-0.509766,0.594238
1480098286158496,0.585938,-0.521973,0.598633
1480098286179549,0.578613,-0.524414,0.595703
1480098286196057,0.586914,-0.506836,0.596191
1480098286218621,0.580078,-0.532715,0.591797
1480098286241178,0.58252,-0.521973,0.59668
1480098286255716,0.587891,-0.508789,0.592285
1480098286278275,0.580566,-0.53418,0.59668
1480098286300843,0.585938,-0.506348,0.596191
1480098286315374,0.583496,-0.520508,0.598145
1480098286338436,0.578613,-0.52832,0.601563
1480098286360996,0.587891,-0.506348,0.594727
1480098286375549,0.584961,-0.526855,0.589844
1480098286398598,0.580566,-0.515137,0.599609
1480098286421168,0.592285,-0.506348,0.590332
1480098286435194,0.583496,-0.533203,0.588379
1480098286458255,0.586914,-0.510254,0.594727
1480098286480814,0.583984,-0.511719,0.597656
1480098286495386,0.580566,-0.529297,0.592773
1480098286518415,0.586914,-0.508301,0.595215
1480098286540976,0.585449,-0.522949,0.593262
1480098286555518,0.581055,-0.520996,0.59668
1480098286578575,0.590332,-0.503906,0.592285
1480098286601648,0.583008,-0.529785,0.586426
1480098286615173,0.583496,-0.514648,0.603027
1480098286638234,0.587402,-0.519043,0.603516
1480098286660792,0.581543,-0.538574,0.605957
1480098286681850,0.586426,-0.510254,0.595215
1480098286698393,0.581543,-0.515625,0.598145
1480098286720954,0.578125,-0.520996,0.593262
1480098286742009,0.589355,-0.502441,0.589844
1480098286758553,0.580566,-0.52832,0.587402
1480098286781112,0.583496,-0.516602,0.592285
1480098286802670,0.588379,-0.506836,0.586426
1480098286818211,0.577148,-0.526855,0.592285
1480098286840773,0.577148,-0.498047,0.595215
1480098286861828,0.584473,-0.523438,0.594727
1480098286878375,0.585938,-0.53125,0.593262
1480098286900934,0.595215,-0.512695,0.59668
1480098286922008,0.581055,-0.530273,0.594727
1480098286938533,0.585938,-0.518066,0.594727
1480098286961092,0.586914,-0.508301,0.596191
1480098286982148,0.58252,-0.534668,0.602539
1480098286998691,0.583008,-0.513672,0.597656
1480098287020750,0.585449,-0.521973,0.59668
1480098287041806,0.583984,-0.528809,0.59668
1480098287058351,0.584961,-0.507813,0.588867
1480098287080911,0.582031,-0.525391,0.592773
1480098287101966,0.578613,-0.521484,0.59082
1480098287118511,0.587402,-0.505859,0.59668
1480098287141580,0.581543,-0.530762,0.59375
1480098287163631,0.587891,-0.514648,0.596191
1480098287178671,0.591797,-0.513672,0.594238
1480098287200730,0.582031,-0.526367,0.597168
1480098287223290,0.592285,-0.498047,0.598145
1480098287238329,0.586914,-0.519531,0.592285
1480098287260890,0.583008,-0.521484,0.591309
1480098287283450,0.589844,-0.50293,0.601074
1480098287298490,0.584961,-0.53125,0.595215
1480098287321050,0.58252,-0.512695,0.597168
1480098287343608,0.582031,-0.516602,0.596191
1480098287357647,0.580078,-0.532715,0.593262
1480098287380708,0.586914,-0.508789,0.595703
1480098287403268,0.589355,-0.51709,0.593262
1480098287417807,0.581055,-0.515137,0.595703
1480098287440868,0.592773,-0.502441,0.590332
1480098287463428,0.585449,-0.527344,0.587402
1480098287484485,0.591797,-0.516113,0.587891
1480098287501028,0.589844,-0.506836,0.589844
1480098287523593,0.586426,-0.532715,0.583984
1480098287537625,0.583496,-0.5,0.586426
1480098287561188,0.587402,-0.520508,0.594238
1480098287583248,0.583984,-0.529297,0.592773
1480098287604302,0.586914,-0.507813,0.597168
1480098287620846,0.578613,-0.526367,0.601563
1480098287643406,0.583008,-0.522461,0.600098
1480098287664462,0.586426,-0.509277,0.594727
1480098287681006,0.583496,-0.533203,0.597656
1480098287703567,0.591309,-0.51709,0.59375
1480098287724624,0.588379,-0.520508,0.59082
1480098287740666,0.58252,-0.526855,0.594727
1480098287763726,0.586914,-0.504395,0.592773
1480098287784280,0.584473,-0.527832,0.592285
1480098287800825,0.586426,-0.524414,0.593262
1480098287823388,0.59375,-0.509277,0.588379
1480098287844440,0.583008,-0.525391,0.589355
1480098287860985,0.586914,-0.506836,0.592773
1480098287883552,0.591309,-0.515137,0.59375
1480098287904604,0.583008,-0.532715,0.59082
1480098287920644,0.589844,-0.50293,0.589844
1480098287950723,0.590332,-0.52002,0.581055
1480098287964259,0.583008,-0.520508,0.591309
1480098287980805,0.592773,-0.509766,0.595215
1480098288003364,0.585938,-0.538574,0.594727
1480098288024420,0.587891,-0.518555,0.599121
1480098288041465,0.584961,-0.508789,0.597168
1480098288063523,0.580078,-0.521484,0.59668
1480098288084580,0.586914,-0.504883,0.600586
1480098288100121,0.588867,-0.523926,0.587891
1480098288123686,0.585938,-0.528809,0.583008
1480098288145742,0.594238,-0.505371,0.59082
1480098288160782,0.585938,-0.527832,0.591797
1480098288183342,0.578613,-0.512207,0.592285
1480098288205903,0.587402,-0.51123,0.600098
1480098288220942,0.580566,-0.533203,0.593262
1480098288243502,0.589355,-0.509766,0.59668
1480098288266063,0.586914,-0.517578,0.59668
1480098288280099,0.57959,-0.522461,0.601563
1480098288303663,0.584961,-0.501953,0.59668
1480098288326222,0.586426,-0.527832,0.591309
1480098288340259,0.584473,-0.521484,0.596191
1480098288363321,0.59082,-0.506348,0.592285
1480098288385881,0.583984,-0.527344,0.592285
1480098288400420,0.589844,-0.51123,0.591797
1480098288423482,0.587891,-0.516113,0.596191
1480098288446040,0.580566,-0.527344,0.599121
1480098288460078,0.583984,-0.500977,0.594727
1480098288491163,0.586914,-0.524414,0.589844
1480098288506200,0.585938,-0.522949,0.59375
1480098288520239,0.594238,-0.507324,0.591309
1480098288543300,0.584961,-0.529785,0.587402
1480098288565864,0.584473,-0.513184,0.595703
1480098288580398,0.585449,-0.516113,0.59082
1480098288603460,0.583984,-0.537598,0.597656
1480098288626019,0.59082,-0.508789,0.59375
1480098288647075,0.586914,-0.52832,0.605469
1480098288663619,0.578613,-0.526367,0.600586
1480098288686180,0.586914,-0.500488,0.593262
1480098288707235,0.583496,-0.529785,0.592773
1480098288723281,0.585938,-0.518066,0.591309
1480098288745838,0.587891,-0.512695,0.588867
1480098288766894,0.578613,-0.535645,0.59375
1480098288783438,0.586914,-0.503418,0.59375
1480098288805999,0.583496,-0.52002,0.592773
1480098288827054,0.582031,-0.529785,0.598145
1480098288843601,0.592285,-0.51123,0.59668
1480098288867662,0.582031,-0.53125,0.595703
1480098288886712,0.583984,-0.51416,0.593262
1480098288903257,0.587402,-0.507324,0.589844
1480098288925817,0.575684,-0.530762,0.591797
1480098288946872,0.585938,-0.511719,0.592773
1480098288963418,0.586914,-0.522949,0.587402
1480098288985977,0.578613,-0.529785,0.59375
1480098289007033,0.583008,-0.504395,0.599121
1480098289023588,0.586426,-0.530273,0.593262
1480098289046136,0.586914,-0.522949,0.601563
1480098289068196,0.590332,-0.509277,0.599609
1480098289084238,0.576172,-0.531738,0.603516
1480098289106297,0.583984,-0.51416,0.596191
1480098289128356,0.587402,-0.52002,0.594238
1480098289143398,0.581543,-0.53125,0.591797
1480098289165956,0.589355,-0.507813,0.589844
1480098289188517,0.578125,-0.528809,0.585449
1480098289202552,0.583008,-0.529297,0.583984
1480098289225614,0.589355,-0.519043,0.594238
1480098289248675,0.581055,-0.540527,0.598145
1480098289262713,0.583496,-0.52002,0.603516
1480098289285790,0.583008,-0.517578,0.601074
1480098289308336,0.578125,-0.528809,0.593262
1480098289322874,0.586914,-0.51123,0.587891
1480098289345935,0.584961,-0.532227,0.589844
1480098289368494,0.583496,-0.530762,0.589355
1480098289382534,0.589844,-0.51416,0.592285
1480098289406094,0.577148,-0.522949,0.583008
1480098289429155,0.577637,-0.512695,0.589355
1480098289442691,0.583496,-0.510742,0.588379
1480098289473277,0.584961,-0.537598,0.591309
1480098289488313,0.585449,-0.516113,0.595215
1480098289509372,0.584961,-0.51709,0.593262
1480098289525913,0.580566,-0.529785,0.598145
1480098289548473,0.587891,-0.509766,0.594238
1480098289569528,0.583008,-0.53125,0.598145
1480098289586072,0.58252,-0.521484,0.595703
1480098289615651,0.589355,-0.507324,0.591797
1480098289629688,0.586914,-0.537109,0.586914
1480098289645732,0.58252,-0.51123,0.593262
1480098289668292,0.588379,-0.519043,0.588379
1480098289689348,0.580566,-0.532715,0.59082
1480098289705892,0.589844,-0.503418,0.591309
1480098289728452,0.585449,-0.526855,0.591309
1480098289749507,0.589844,-0.524902,0.584961
1480098289766552,0.589844,-0.504395,0.585938
1480098289788612,0.585449,-0.528809,0.584473
1480098289810671,0.585449,-0.516113,0.586426
1480098289825710,0.591797,-0.525391,0.592285
1480098289848271,0.584473,-0.53418,0.587891
1480098289869326,0.589355,-0.506836,0.590332
1480098289885870,0.585938,-0.520996,0.591797
1480098289908430,0.582031,-0.521484,0.583008
1480098289929486,0.589355,-0.506836,0.586426
1480098289946030,0.581055,-0.537598,0.583496
1480098289968590,0.586914,-0.522949,0.586426
1480098289989647,0.589844,-0.518555,0.587891
1480098290006193,0.581055,-0.536621,0.595703
1480098290028250,0.585938,-0.508789,0.595703
1480098290050809,0.580566,-0.526855,0.594727
1480098290065854,0.582031,-0.525879,0.599121
1480098290088410,0.585449,-0.519043,0.606934
1480098290110969,0.596191,-0.538086,0.595703
1480098290126009,0.587402,-0.516602,0.595215
1480098290148569,0.586426,-0.503418,0.584961
1480098290170628,0.576172,-0.523926,0.581055
1480098290185166,0.585449,-0.51709,0.57959
1480098290208228,0.583496,-0.535645,0.589355
1480098290230788,0.584961,-0.544922,0.59375
1480098290245327,0.589844,-0.508789,0.59375
1480098290268388,0.58252,-0.516602,0.601563
1480098290290948,0.58252,-0.522461,0.609375
1480098290305487,0.59375,-0.522949,0.602051
1480098290328548,0.586914,-0.533691,0.592773
1480098290358628,0.583984,-0.506348,0.579102
1480098290365145,0.58252,-0.504395,0.566895
1480098290388206,0.577148,-0.538574,0.583984
1480098290410766,0.59082,-0.522461,0.58252
1480098290425305,0.583496,-0.531738,0.597656
1480098290454382,0.585449,-0.524902,0.59668
1480098290470926,0.591797,-0.504883,0.597168
1480098290484964,0.585938,-0.53418,0.60498
1480098290508526,0.585938,-0.518066,0.609375
1480098290531086,0.586426,-0.516602,0.602539
1480098290552142,0.581055,-0.53418,0.594238
1480098290568686,0.582031,-0.510254,0.592773
1480098290590746,0.581543,-0.525391,0.585449
1480098290611800,0.580566,-0.521484,0.588379
1480098290628345,0.587402,-0.503906,0.583984
1480098290650905,0.578613,-0.530762,0.59082
1480098290671961,0.580078,-0.518066,0.597656
1480098290688505,0.585938,-0.507813,0.589355
1480098290711065,0.581543,-0.522461,0.602051
1480098290732120,0.590332,-0.505371,0.594727
1480098290748164,0.585449,-0.521973,0.586426
1480098290770724,0.583008,-0.524902,0.587402
1480098290793284,0.585938,-0.504883,0.591797
1480098290808324,0.580078,-0.525879,0.584961
1480098290830884,0.583008,-0.520508,0.595215
1480098290851941,0.591797,-0.521484,0.599609
1480098290868485,0.579102,-0.540039,0.602051
1480098290891045,0.587402,-0.515137,0.600098
1480098290912099,0.58252,-0.521973,0.603516
1480098290927640,0.57666,-0.529297,0.594727
1480098290950703,0.584961,-0.513184,0.595215
1480098290973264,0.580078,-0.540039,0.588379
1480098290988806,0.581543,-0.532715,0.58252
1480098291010862,0.588379,-0.514648,0.58252
1480098291033422,0.583496,-0.535156,0.585938
1480098291048462,0.584961,-0.508301,0.586914
1480098291071022,0.582031,-0.520996,0.585938
1480098291093587,0.579102,-0.541992,0.597656
1480098291107620,0.583496,-0.520508,0.597656
1480098291130681,0.57959,-0.533691,0.603516
1480098291153242,0.574707,-0.518555,0.605957
1480098291167779,0.583008,-0.503418,0.601074
1480098291190843,0.582031,-0.53125,0.602539
1480098291213401,0.58252,-0.521973,0.597168
1480098291227940,0.582031,-0.520508,0.59375
1480098291251033,0.578613,-0.538086,0.588379
1480098291273561,0.583984,-0.508301,0.58252
1480098291287599,0.575684,-0.517578,0.585449
1480098291310661,0.57666,-0.530273,0.588379
1480098291333221,0.586914,-0.510254,0.587891
1480098291347763,0.582031,-0.539551,0.594727
1480098291370819,0.582031,-0.523926,0.59082
1480098291393380,0.584961,-0.51709,0.594238
1480098291414436,0.574707,-0.533203,0.592773
1480098291431482,0.579102,-0.515625,0.603516
1480098291453541,0.583984,-0.527344,0.592773
1480098291474596,0.575684,-0.532715,0.601074
1480098291491139,0.585449,-0.517578,0.599121
1480098291513198,0.579102,-0.53125,0.591797
1480098291534254,0.57959,-0.524902,0.592773
1480098291550799,0.583496,-0.515137,0.588379
1480098291573360,0.57373,-0.537598,0.595215
1480098291594415,0.581055,-0.51709,0.588867
1480098291610958,0.581055,-0.521973,0.588379
1480098291633519,0.571289,-0.529297,0.597168
1480098291662102,0.585938,-0.516602,0.59375
1480098291671117,0.58252,-0.533691,0.588867
1480098291693679,0.577637,-0.528809,0.593262
1480098291714232,0.581543,-0.51709,0.591797
1480098291730778,0.574219,-0.535156,0.591797
1480098291753339,0.581055,-0.51416,0.589355
1480098291774393,0.584473,-0.526855,0.598633
1480098291790938,0.577148,-0.533691,0.595703
1480098291813528,0.582031,-0.505859,0.592773
1480098291819011,0.579102,-0.530273,0.592285
1480098291841573,0.577637,-0.540527,0.591797
1480098291864132,0.587402,-0.519531,0.595215
1480098291878676,0.577637,-0.537598,0.588867
1480098291901231,0.575684,-0.510742,0.588867
1480098291916270,0.576172,-0.512695,0.584961
1480098291940335,0.575195,-0.543457,0.59668
1480098291961390,0.58252,-0.521484,0.600098
1480098291976439,0.583984,-0.526855,0.598145
1480098291998989,0.583984,-0.524414,0.591797
1480098292021049,0.583496,-0.495117,0.585449
1480098292036089,0.57666,-0.53125,0.594727
1480098292058648,0.579102,-0.532715,0.59668
1480098292081210,0.583984,-0.532227,0.593262
1480098292096249,0.57373,-0.54248,0.587402
1480098292118809,0.577637,-0.509766,0.590332
1480098292141369,0.583008,-0.51416,0.587891
1480098292156410,0.574707,-0.534668,0.595215
1480098292178969,0.578125,-0.51709,0.594727
1480098292201028,0.574707,-0.537598,0.59375
1480098292217572,0.576172,-0.529785,0.592285
1480098292238628,0.588379,-0.508789,0.592773
1480098292261188,0.577637,-0.532715,0.586914
1480098292277731,0.583008,-0.514648,0.594727
1480098292298802,0.577637,-0.526367,0.602051
1480098292321347,0.572754,-0.539063,0.598633
1480098292337893,0.584961,-0.513672,0.590332
1480098292358947,0.578613,-0.527344,0.588379
1480098292389533,0.571777,-0.515625,0.59082
1480098292397551,0.585938,-0.516602,0.583008
1480098292418607,0.579102,-0.544434,0.593262
1480098292441168,0.578125,-0.520996,0.597656
1480098292457711,0.573242,-0.52002,0.590332
1480098292478767,0.574707,-0.532715,0.591309
1480098292501327,0.583496,-0.510254,0.589355
1480098292517871,0.573242,-0.537109,0.598145
1480098292538927,0.574707,-0.535645,0.594238
1480098292561485,0.587891,-0.51709,0.595215
1480098292577530,0.582031,-0.533691,0.591309
1480098292598586,0.580078,-0.516602,0.584473
1480098292621145,0.585938,-0.51416,0.581055
1480098292637689,0.576172,-0.543457,0.597656
1480098292658773,0.576172,-0.519531,0.601074
1480098292681305,0.572266,-0.530762,0.589844
1480098292699353,0.571777,-0.528809,0.585938
1480098292718904,0.588379,-0.504395,0.588379
1480098292741464,0.585449,-0.533691,0.591309
1480098292759012,0.580078,-0.533691,0.599121
1480098292778563,0.581543,-0.526855,0.599609
1480098292801123,0.570801,-0.541016,0.599121
1480098292819172,0.579102,-0.508301,0.589355
1480098292838724,0.581543,-0.516602,0.589355
1480098292861284,0.580566,-0.535645,0.585938
1480098292883844,0.585938,-0.513672,0.590332
1480098292898883,0.574219,-0.541504,0.59668
1480098292921443,0.574219,-0.53418,0.599609
1480098292943517,0.58252,-0.520508,0.600098
1480098292958542,0.581055,-0.530273,0.591309
1480098292981102,0.580566,-0.503906,0.584961
1480098293003664,0.581055,-0.515625,0.584961
1480098293018703,0.577637,-0.543945,0.591797
1480098293041265,0.579102,-0.522949,0.597168
1480098293063822,0.572754,-0.533691,0.595703
1480098293081869,0.574219,-0.523926,0.597656
1480098293101422,0.586426,-0.505859,0.59375
1480098293123484,0.584961,-0.532715,0.591797
1480098293139022,0.580566,-0.512695,0.596191
1480098293161080,0.577148,-0.522949,0.601563
1480098293183640,0.571289,-0.550293,0.603027
1480098293198681,0.574219,-0.509277,0.592773
1480098293221241,0.57373,-0.522949,0.59668
1480098293252324,0.579102,-0.530762,0.59668
1480098293258840,0.587891,-0.511719,0.596191
1480098293281400,0.57959,-0.537109,0.590332
1480098293303972,0.572266,-0.518066,0.589355
1480098293318499,0.579102,-0.521484,0.58252
1480098293341060,0.576172,-0.541992,0.599121
1480098293363620,0.58252,-0.516113,0.590332
1480098293378661,0.579102,-0.526367,0.596191
1480098293408739,0.576172,-0.525879,0.586914
1480098293423779,0.585449,-0.503906,0.586426
1480098293438820,0.578613,-0.536621,0.59668
1480098293461379,0.583008,-0.526855,0.590332
1480098293483941,0.581055,-0.522461,0.586914
1480098293499982,0.575195,-0.540039,0.590332
1480098293521039,0.577637,-0.518555,0.599609
1480098293543598,0.586426,-0.524902,0.595215
1480098293560142,0.577637,-0.535645,0.595703
1480098293581198,0.578125,-0.51123,0.594238
1480098293603758,0.576172,-0.533691,0.594727
1480098293620302,0.575195,-0.532715,0.594238
1480098293641358,0.576172,-0.516602,0.591309
1480098293663918,0.568848,-0.541016,0.595215
1480098293680467,0.574707,-0.517578,0.598145
1480098293701518,0.588867,-0.524902,0.59668
1480098293723580,0.575684,-0.533691,0.601074
1480098293740121,0.584961,-0.512695,0.597168
1480098293761176,0.579102,-0.531738,0.593262
1480098293783736,0.574707,-0.530273,0.583008
1480098293806296,0.575684,-0.509766,0.586426
1480098293821338,0.574219,-0.535156,0.585938
1480098293843897,0.578125,-0.523926,0.588379
1480098293861944,0.585938,-0.519043,0.592773
1480098293881496,0.575684,-0.534668,0.589844
1480098293903556,0.587891,-0.508789,0.597656
1480098293921604,0.586914,-0.531738,0.598633
1480098293941155,0.572266,-0.539551,0.600586
1480098293963719,0.577148,-0.512207,0.596191
1480098293981781,0.567871,-0.537598,0.599609
1480098294001315,0.571289,-0.522949,0.588379
1480098294023876,0.580566,-0.519531,0.600098
1480098294041422,0.575684,-0.542969,0.589355
1480098294063983,0.587402,-0.517578,0.601074
1480098294084035,0.583984,-0.523926,0.597168
1480098294101583,0.575684,-0.528809,0.59375
1480098294121135,0.582031,-0.507813,0.599609
1480098294143703,0.576172,-0.53125,0.591797
1480098294161743,0.576172,-0.525391,0.59082
1480098294181295,0.583984,-0.514648,0.586426
1480098294203854,0.57959,-0.541992,0.585449
1480098294221903,0.583496,-0.517578,0.585938
1480098294241454,0.585938,-0.515625,0.59668
1480098294263516,0.57666,-0.530762,0.589844
1480098294281561,0.584473,-0.51123,0.593262
1480098294301113,0.581543,-0.533691,0.59375
1480098294323673,0.571777,-0.525391,0.589355
1480098294346234,0.578125,-0.517578,0.598145
1480098294361273,0.573242,-0.543457,0.591309
1480098294383832,0.581055,-0.517578,0.59082
1480098294406393,0.581055,-0.522461,0.594727
1480098294422936,0.57373,-0.537598,0.595703
1480098294443992,0.587891,-0.513672,0.601563
1480098294466051,0.583496,-0.529297,0.598633
1480098294482596,0.576172,-0.534668,0.597168
1480098294503652,0.580078,-0.513184,0.594727
1480098294526213,0.570801,-0.533203,0.594238
1480098294546264,0.57959,-0.518555,0.588867
1480098294563812,0.584473,-0.519531,0.591797
1480098294586372,0.576172,-0.541016,0.593262
1480098294602414,0.57959,-0.515137,0.599121
1480098294623971,0.577637,-0.521484,0.592285
1480098294646031,0.576172,-0.524414,0.608398
1480098294662575,0.581543,-0.508301,0.593262
1480098294683630,0.58252,-0.533691,0.59668
1480098294706193,0.583008,-0.532715,0.595215
1480098294724238,0.586914,-0.515625,0.600586
1480098294743791,0.578613,-0.527832,0.600098
1480098294766350,0.583984,-0.50293,0.588379
1480098294784407,0.584961,-0.519043,0.59082
1480098294803950,0.579102,-0.529297,0.586914
1480098294826008,0.591309,-0.509277,0.581543
1480098294844056,0.582031,-0.537109,0.585938
1480098294863609,0.58252,-0.527832,0.587402
1480098294889180,0.582031,-0.509277,0.593262
1480098294904219,0.577148,-0.527832,0.597168
1480098294923768,0.578613,-0.507813,0.598145
1480098294946329,0.582031,-0.520996,0.599121
1480098294964376,0.578613,-0.538574,0.60498
1480098294983928,0.584473,-0.510742,0.591797
1480098295006488,0.57959,-0.532227,0.591309
1480098295024037,0.582031,-0.522949,0.589355
1480098295045091,0.587402,-0.508301,0.583496
1480098295066147,0.583008,-0.535645,0.585449
1480098295084207,0.581543,-0.509277,0.587402
1480098295103750,0.589355,-0.515625,0.588379
1480098295126307,0.583984,-0.529297,0.59082
1480098295144355,0.588379,-0.508789,0.589844
1480098295163907,0.580566,-0.520996,0.595703
1480098295186467,0.581055,-0.526855,0.59668
1480098295211535,0.584961,-0.510254,0.590332
1480098295223566,0.581055,-0.533203,0.592773
1480098295246126,0.583984,-0.516602,0.598633
1480098295264174,0.584473,-0.51709,0.589355
1480098295283726,0.576172,-0.532715,0.591797
1480098295306286,0.581543,-0.517578,0.596191
1480098295324334,0.583496,-0.53418,0.602051
1480098295343886,0.577148,-0.530273,0.597656
1480098295366446,0.584473,-0.510742,0.597656
1480098295383992,0.576172,-0.526367,0.59668
1480098295405050,0.581055,-0.516113,0.592285
1480098295426105,0.59082,-0.510742,0.590332
1480098295444153,0.583984,-0.536133,0.591309
1480098295465209,0.584473,-0.506348,0.585938
1480098295486265,0.590332,-0.522461,0.587402
1480098295504314,0.581055,-0.524414,0.588867
1480098295525375,0.584473,-0.5,0.597656
1480098295546926,0.580078,-0.530273,0.590332
1480098295563973,0.582031,-0.52002,0.593262
1480098295585028,0.584473,-0.509766,0.595703
1480098295606084,0.575195,-0.53418,0.59375
1480098295624132,0.580078,-0.514648,0.591797
1480098295645188,0.580566,-0.520508,0.591309
1480098295666244,0.574707,-0.531738,0.594238
1480098295684291,0.586914,-0.509277,0.59375
1480098295708355,0.582031,-0.526855,0.589355
1480098295726403,0.58252,-0.523926,0.592285
1480098295743951,0.592773,-0.508301,0.59668
1480098295766510,0.578125,-0.536621,0.592773
1480098295786062,0.582031,-0.512695,0.595215
1480098295808623,0.57959,-0.51416,0.589844
1480098295826670,0.57666,-0.527344,0.590332
1480098295846223,0.587402,-0.508789,0.59668
1480098295868783,0.583496,-0.526367,0.588867
1480098295886830,0.583496,-0.523926,0.59082
1480098295906383,0.589355,-0.507324,0.59082
1480098295928942,0.581543,-0.540527,0.594727
1480098295946489,0.585449,-0.526367,0.594727
1480098295966040,0.585449,-0.516113,0.595215
1480098295988601,0.577148,-0.530762,0.600098
1480098296006648,0.58252,-0.500977,0.595215
1480098296026200,0.583984,-0.52002,0.594238
1480098296049764,0.578613,-0.530762,0.588867
1480098296066811,0.588867,-0.504395,0.587891
1480098296086362,0.580566,-0.532715,0.590332
1480098296108920,0.57666,-0.520508,0.591309
1480098296126468,0.57959,-0.508301,0.596191
1480098296146019,0.579102,-0.532227,0.594727
1480098296168617,0.587891,-0.510742,0.589844
1480098296191139,0.586914,-0.518066,0.592285
1480098296206182,0.577637,-0.531738,0.598145
1480098296228740,0.583984,-0.504395,0.591309
1480098296246787,0.584961,-0.528809,0.588867
1480098296273859,0.580078,-0.524414,0.589844
1480098296288901,0.588867,-0.51123,0.595215
1480098296306446,0.580078,-0.533203,0.594238
1480098296329007,0.584961,-0.512695,0.594727
1480098296348558,0.585938,-0.516602,0.599121
1480098296366606,0.575195,-0.529297,0.594238
1480098296387663,0.583984,-0.506348,0.598145
1480098296408718,0.583008,-0.523438,0.59375
1480098296426767,0.581543,-0.522949,0.592773
1480098296447822,0.586914,-0.508301,0.590332
1480098296468878,0.581055,-0.527832,0.590332
1480098296486425,0.58252,-0.515137,0.587402
1480098296507481,0.58252,-0.514648,0.587891
1480098296528540,0.576172,-0.535156,0.592773
1480098296546585,0.589355,-0.51709,0.59668
1480098296567641,0.583008,-0.52832,0.599609
1480098296588696,0.578613,-0.524414,0.599609
1480098296606744,0.581543,-0.501953,0.592773
1480098296627800,0.578125,-0.52832,0.598145
1480098296648856,0.584961,-0.521973,0.591309
1480098296666904,0.586426,-0.518555,0.595215
1480098296688964,0.580566,-0.533203,0.594238
1480098296708516,0.58252,-0.513672,0.592285
1480098296726564,0.586914,-0.518066,0.590332
1480098296749124,0.571777,-0.529785,0.59668
1480098296768676,0.584961,-0.51123,0.597656
1480098296786723,0.581055,-0.530762,0.596191
1480098296809283,0.584473,-0.524414,0.591797
1480098296828836,0.585938,-0.510254,0.597168
1480098296846884,0.581543,-0.532227,0.59082
1480098296868942,0.583984,-0.514648,0.592285
1480098296891503,0.584961,-0.520508,0.59375
1480098296906542,0.580078,-0.533691,0.593262
1480098296929103,0.583984,-0.51123,0.596191
1480098296948654,0.583984,-0.531738,0.587402
1480098296966702,0.579102,-0.527344,0.597168
1480098296989262,0.583984,-0.508789,0.594238
1480098297016334,0.577637,-0.532715,0.588379
1480098297026863,0.581543,-0.516113,0.594238
1480098297048921,0.586914,-0.515137,0.587891
1480098297068974,0.578613,-0.53418,0.586914
1480098297086521,0.585938,-0.512207,0.595215
1480098297109081,0.585938,-0.524414,0.591797
1480098297136152,0.580566,-0.529297,0.59082
1480098297146683,0.59082,-0.508301,0.589355
1480098297169241,0.583984,-0.541016,0.597168
1480098297188792,0.584473,-0.525391,0.589844
1480098297206841,0.587402,-0.521484,0.595703
1480098297229400,0.576172,-0.537109,0.592285
1480098297248954,0.582031,-0.505859,0.59668
1480098297266500,0.581543,-0.517578,0.591309
1480098297289060,0.583984,-0.53418,0.588379
1480098297310117,0.585938,-0.509766,0.587402
1480098297331171,0.580078,-0.530762,0.586914
1480098297349721,0.58252,-0.521484,0.592773
1480098297370275,0.585938,-0.509766,0.590332
1480098297391332,0.57666,-0.530762,0.592773
1480098297409380,0.584473,-0.517578,0.592285
1480098297430440,0.586426,-0.523438,0.59668
1480098297451491,0.578125,-0.532715,0.598145
1480098297469038,0.584473,-0.506836,0.596191
1480098297490094,0.575684,-0.527344,0.589844
1480098297512654,0.581543,-0.524902,0.588379
1480098297529198,0.586914,-0.51416,0.588867
1480098297550254,0.578613,-0.537598,0.590332
1480098297571311,0.58252,-0.513184,0.59375
1480098297589359,0.580566,-0.523438,0.594727
1480098297611417,0.575195,-0.53418,0.598633
1480098297630969,0.58252,-0.513672,0.600098
1480098297649017,0.584961,-0.525879,0.601074
1480098297671577,0.575684,-0.529785,0.597656
1480098297691131,0.583496,-0.509277,0.592285
1480098297709177,0.581543,-0.537109,0.589355
1480098297731737,0.584473,-0.516113,0.598145
1480098297751289,0.585938,-0.519043,0.590332
1480098297769337,0.57666,-0.528809,0.595215
1480098297798916,0.57959,-0.506836,0.588379
1480098297811448,0.581543,-0.524902,0.586914
1480098297828997,0.575195,-0.529785,0.587402
1480098297851556,0.585449,-0.513184,0.601563
1480098297871108,0.586426,-0.539063,0.593262
1480098297889159,0.580566,-0.522949,0.603516
1480098297911716,0.587402,-0.509277,0.594727
1480098297931269,0.574707,-0.527832,0.592773
1480098297949316,0.585938,-0.509766,0.591797
1480098297971876,0.584961,-0.525391,0.594727
1480098297991427,0.58252,-0.536133,0.594238
1480098298008974,0.586426,-0.509277,0.588379
1480098298031538,0.577637,-0.53125,0.588379
1480098298051086,0.57666,-0.519531,0.600098
1480098298069134,0.581543,-0.509766,0.593262
1480098298091699,0.578613,-0.539551,0.591797
1480098298111246,0.586914,-0.51709,0.590332
1480098298129294,0.58252,-0.519531,0.594727
1480098298151855,0.569336,-0.53418,0.592773
1480098298171411,0.578613,-0.505371,0.588379
1480098298188954,0.578125,-0.533691,0.591309
1480098298219035,0.578125,-0.525391,0.59668
1480098298232568,0.585449,-0.513184,0.591309
1480098298249113,0.57666,-0.532227,0.592773
1480098298271673,0.582031,-0.514648,0.594727
1480098298292728,0.583008,-0.516602,0.592285
1480098298309272,0.574219,-0.535156,0.594238
1480098298331832,0.587402,-0.51123,0.594238
1480098298352889,0.583008,-0.526367,0.593262
1480098298368932,0.580566,-0.528809,0.595215
1480098298391492,0.588379,-0.510742,0.589844
1480098298412548,0.580566,-0.537109,0.590332
1480098298429092,0.58252,-0.519531,0.595215
1480098298451651,0.583984,-0.512695,0.591309
1480098298472707,0.574707,-0.53418,0.599121
1480098298489251,0.581543,-0.512695,0.592773
1480098298512313,0.578613,-0.523926,0.588867
1480098298532868,0.575195,-0.53418,0.59375
1480098298549411,0.586426,-0.522949,0.596191
1480098298571474,0.581543,-0.537598,0.59375
1480098298594031,0.579102,-0.522461,0.599121
1480098298614585,0.583496,-0.512695,0.598145
1480098298630628,0.575195,-0.52832,0.600586
1480098298653689,0.583496,-0.509766,0.598145
1480098298674243,0.583496,-0.521973,0.597168
1480098298690789,0.577148,-0.536133,0.592773
1480098298713347,0.586914,-0.509766,0.59668
1480098298734405,0.583008,-0.523926,0.59082
1480098298750948,0.575195,-0.520508,0.594727
1480098298773508,0.587891,-0.510254,0.592285
1480098298794563,0.578613,-0.535645,0.593262
1480098298810606,0.586914,-0.518066,0.595703
1480098298833167,0.588379,-0.518555,0.59082
1480098298854726,0.577637,-0.532227,0.590332
1480098298870767,0.584473,-0.505371,0.588867
1480098298893326,0.581055,-0.525391,0.592773
1480098298914381,0.58252,-0.526367,0.59375
1480098298930927,0.588379,-0.51123,0.592285
1480098298953488,0.583008,-0.535645,0.59082
1480098298974549,0.584961,-0.513672,0.59082
1480098298991087,0.585938,-0.512207,0.595215
1480098299013144,0.582031,-0.533203,0.59082
1480098299034200,0.586914,-0.509766,0.59668
1480098299050745,0.584473,-0.525391,0.589355
1480098299079320,0.585449,-0.526855,0.595703
1480098299095865,0.59082,-0.507813,0.589355
1480098299110907,0.583008,-0.531738,0.591309
1480098299133465,0.583008,-0.517578,0.588867
1480098299162040,0.589844,-0.511719,0.586426
1480098299171066,0.584961,-0.531738,0.590332
1480098299193125,0.586914,-0.510254,0.584961
1480098299214681,0.587402,-0.51709,0.589844
1480098299230724,0.582031,-0.532227,0.597656
1480098299253284,0.590332,-0.51416,0.592285
1480098299274339,0.584473,-0.530762,0.598633
1480098299290883,0.586914,-0.516602,0.599121
1480098299313447,0.587402,-0.504395,0.589844
1480098299334500,0.577637,-0.529785,0.585449
1480098299350543,0.587402,-0.513672,0.58252
1480098299373102,0.585938,-0.521973,0.580078
1480098299394158,0.57959,-0.532227,0.586914
1480098299410702,0.591797,-0.507813,0.583496
1480098299433262,0.584473,-0.523438,0.582031
1480098299454318,0.587402,-0.521484,0.589355
1480098299470862,0.594727,-0.512695,0.590332
1480098299493423,0.583984,-0.533203,0.591797
1480098299515982,0.581543,-0.51709,0.59375
1480098299531022,0.587402,-0.51416,0.592773
1480098299553082,0.577148,-0.53418,0.587402
1480098299575640,0.587891,-0.519531,0.587402
1480098299590680,0.581543,-0.532227,0.585938
1480098299613240,0.579102,-0.533203,0.586914
1480098299635801,0.588867,-0.515137,0.584473
1480098299650340,0.581055,-0.533203,0.600098
1480098299673402,0.58252,-0.520508,0.598145
1480098299696462,0.587402,-0.522949,0.597656
1480098299709999,0.57959,-0.537109,0.59082
1480098299733560,0.583984,-0.513184,0.599121
1480098299756122,0.582031,-0.525391,0.588379
1480098299770158,0.57666,-0.531738,0.590332
1480098299799236,0.585938,-0.510254,0.587891
1480098299815779,0.578613,-0.53125,0.59375
1480098299830318,0.581055,-0.518555,0.589355
1480098299853380,0.586426,-0.513184,0.594727
1480098299875940,0.578613,-0.537109,0.592285
1480098299889977,0.587402,-0.519531,0.598145
1480098299913540,0.584473,-0.525391,0.594238
1480098299935598,0.57959,-0.532715,0.597168
1480098299950137,0.584473,-0.504883,0.591797
1480098299973700,0.57959,-0.530762,0.593262
1480098300003278,0.577148,-0.525879,0.590332
1480098300016814,0.585449,-0.516113,0.58252
1480098300033359,0.577637,-0.541016,0.589844
1480098300055922,0.581543,-0.512207,0.594727
1480098300078479,0.57959,-0.515625,0.587402
1480098300093517,0.574707,-0.53125,0.596191
1480098300115576,0.583984,-0.510742,0.598633
1480098300137135,0.583496,-0.531738,0.592773
1480098300154180,0.577637,-0.525879,0.600098
1480098300175736,0.586426,-0.507813,0.594238
1480098300196793,0.574707,-0.533691,0.591309
1480098300213336,0.582031,-0.51416,0.585449
1480098300235897,0.585449,-0.522461,0.593262
1480098300256954,0.581055,-0.536133,0.586914
1480098300273499,0.586426,-0.512207,0.594238
1480098300295556,0.585449,-0.525391,0.59082
1480098300316611,0.583496,-0.526855,0.596191
1480098300333156,0.588867,-0.508301,0.594727
1480098300355715,0.580078,-0.533203,0.595215
1480098300376771,0.581543,-0.513184,0.591309
1480098300393318,0.58252,-0.510742,0.589355
1480098300415875,0.580566,-0.533691,0.588867
1480098300436932,0.586426,-0.508301,0.591797
1480098300453476,0.583008,-0.525391,0.586426
1480098300476035,0.580078,-0.525391,0.588867
1480098300498094,0.590332,-0.507324,0.594727
1480098300513134,0.584473,-0.544434,0.599609
1480098300535695,0.585938,-0.52832,0.592773
1480098300558254,0.586426,-0.510254,0.600586
1480098300573295,0.579102,-0.522949,0.589844
1480098300595854,0.577637,-0.505859,0.59375
1480098300625934,0.586914,-0.517578,0.598633
1480098300632451,0.580566,-0.537598,0.594727
1480098300656015,0.584961,-0.513184,0.587402
1480098300678073,0.580078,-0.532715,0.596191
1480098300692612,0.577148,-0.521484,0.589844
1480098300715675,0.585938,-0.502441,0.595703
1480098300738234,0.577148,-0.53125,0.597656
1480098300752772,0.584961,-0.512207,0.598633
1480098300775833,0.583496,-0.52002,0.59375
1480098300798392,0.57666,-0.535645,0.596191
1480098300812430,0.584473,-0.51123,0.598145
1480098300835993,0.577637,-0.525391,0.591797
1480098300858051,0.582031,-0.527344,0.594238
1480098300872590,0.589844,-0.512207,0.592285
1480098300895653,0.58252,-0.537598,0.588379
1480098300918212,0.583496,-0.518555,0.598633
1480098300932749,0.583496,-0.515625,0.596191
1480098300956312,0.575684,-0.535156,0.595215
1480098300978403,0.58252,-0.510742,0.596191
1480098300999454,0.583984,-0.529297,0.602539
1480098301015972,0.585938,-0.530273,0.610352
1480098301038531,0.592285,-0.507813,0.608887
1480098301059587,0.583496,-0.522949,0.61084
1480098301076132,0.577148,-0.514648,0.600098
1480098301098190,0.580566,-0.51709,0.581543
1480098301119246,0.577637,-0.536133,0.576172
1480098301135791,0.577637,-0.51123,0.571777
1480098301158352,0.588379,-0.527344,0.580566
1480098301179405,0.587402,-0.535156,0.588379
1480098301195949,0.594727,-0.508301,0.601074
1480098301218510,0.588379,-0.523926,0.59375
1480098301239069,0.583008,-0.506836,0.605957
1480098301255609,0.59375,-0.500488,0.596191
1480098301278670,0.589355,-0.527344,0.600586
1480098301299225,0.584961,-0.50293,0.595703
1480098301315768,0.589844,-0.509766,0.592773
1480098301338330,0.586914,-0.525391,0.591309
1480098301359384,0.59082,-0.498535,0.588867
1480098301375930,0.588867,-0.521484,0.59082
1480098301398489,0.591309,-0.519043,0.590332
1480098301420548,0.601074,-0.506836,0.597168
1480098301436098,0.599609,-0.530762,0.600098
1480098301458148,0.595703,-0.513672,0.599609
1480098301480710,0.604492,-0.512695,0.60791
1480098301495748,0.592773,-0.526855,0.602051
1480098301518309,0.590332,-0.498047,0.595215
1480098301548391,0.600098,-0.518066,0.591797
1480098301555406,0.595703,-0.524414,0.585938
1480098301578468,0.597656,-0.49707,0.581055
1480098301602030,0.584473,-0.515137,0.582031
1480098301615065,0.585449,-0.509277,0.576172
1480098301638126,0.595215,-0.506836,0.575195
1480098301660687,0.595215,-0.523926,0.578613
1480098301675225,0.611816,-0.5,0.580566
1480098301698788,0.617188,-0.506348,0.572754
1480098301720847,0.612305,-0.519043,0.57959
1480098301734884,0.616699,-0.494629,0.585938
1480098301758446,0.60498,-0.511719,0.588867
1480098301781006,0.601563,-0.494141,0.583984
1480098301795043,0.609863,-0.48877,0.582031
1480098301818105,0.601074,-0.51123,0.577637
1480098301840665,0.604004,-0.480957,0.570313
1480098301861720,0.610352,-0.484863,0.56543
1480098301878264,0.606445,-0.506836,0.566406
1480098301900825,0.622559,-0.492676,0.56543
1480098301921880,0.632813,-0.529785,0.560547
1480098301938425,0.630371,-0.523926,0.571289
1480098301960987,0.61084,-0.475586,0.584473
1480098301982040,0.585449,-0.478027,0.599609
1480098301998083,0.589844,-0.476074,0.607422
1480098302020644,0.606445,-0.506836,0.599609
1480098302041699,0.585449,-0.524414,0.584473
1480098302058243,0.598145,-0.491699,0.578613
1480098302080804,0.607422,-0.513184,0.566406
1480098302101872,0.60498,-0.515625,0.582031
1480098302118404,0.613281,-0.492188,0.588379
1480098302140963,0.609863,-0.523438,0.599609
1480098302162034,0.627441,-0.513672,0.601074
1480098302178062,0.626465,-0.495117,0.59375
1480098302200623,0.615234,-0.482422,0.59375
1480098302222180,0.617188,-0.464355,0.594238
1480098302238225,0.62207,-0.505371,0.592773
1480098302260782,0.608398,-0.521973,0.586426
1480098302281838,0.611328,-0.494141,0.581543
1480098302298382,0.59668,-0.509277,0.567383
1480098302320943,0.599609,-0.510254,0.565918
1480098302341999,0.60791,-0.495117,0.564453
1480098302358041,0.599609,-0.516113,0.580566
1480098302380600,0.611328,-0.49707,0.582031
1480098302403161,0.603516,-0.496582,0.580078
1480098302425722,0.599121,-0.503418,0.589844
1480098302440762,0.603516,-0.483398,0.587891
1480098302463320,0.602539,-0.504883,0.586426
1480098302477860,0.601563,-0.490723,0.586914
1480098302500921,0.612305,-0.492188,0.580566
1480098302523514,0.608398,-0.522949,0.577637
1480098302537519,0.617188,-0.493164,0.575684
1480098302561083,0.614746,-0.494629,0.57666
1480098302583139,0.61377,-0.512207,0.583008
1480098302597677,0.626953,-0.490234,0.580566
1480098302620743,0.609375,-0.49707,0.57666
1480098302643300,0.610352,-0.497559,0.581543
1480098302658341,0.616211,-0.48877,0.580078
1480098302680911,0.600586,-0.512695,0.584473
1480098302703475,0.599121,-0.487793,0.583984
1480098302726533,0.603516,-0.504395,0.583984
1480098302741573,0.600098,-0.526367,0.583496
1480098302763130,0.601563,-0.505859,0.582031
1480098302777669,0.603516,-0.519531,0.57959
1480098302800730,0.599609,-0.512207,0.580078
1480098302823290,0.611816,-0.5,0.578613
1480098302844345,0.604004,-0.536133,0.583008
1480098302860890,0.605469,-0.523438,0.587891
1480098302883450,0.600586,-0.513672,0.595703
1480098302904506,0.59082,-0.533691,0.591797
1480098302920549,0.603027,-0.509766,0.589844
1480098302943108,0.604004,-0.52002,0.589844
1480098302964164,0.600586,-0.52002,0.587402
1480098302980709,0.601563,-0.498047,0.578125
1480098303003269,0.598145,-0.52832,0.577148
1480098303024324,0.603027,-0.531738,0.577148
1480098303040872,0.605469,-0.520996,0.58252
1480098303063429,0.589355,-0.530273,0.583496
1480098303084484,0.595215,-0.50293,0.583984
1480098303100527,0.601563,-0.516602,0.574219
1480098303123087,0.596191,-0.526855,0.577148
1480098303144143,0.602539,-0.498047,0.580566
1480098303160687,0.59375,-0.526367,0.575195
1480098303183247,0.602539,-0.523438,0.57959
1480098303204303,0.602051,-0.507813,0.587402
1480098303220853,0.587402,-0.522461,0.585938
1480098303243407,0.597168,-0.508301,0.589844
1480098303264463,0.602539,-0.511719,0.584961
1480098303281007,0.598633,-0.53125,0.582031
1480098303303580,0.600098,-0.512207,0.577148
1480098303325632,0.600098,-0.521973,0.583496
1480098303340668,0.595215,-0.521973,0.580078
1480098303363226,0.601563,-0.502441,0.585449
1480098303385786,0.595703,-0.532227,0.583008
1480098303408346,0.600098,-0.515625,0.583984
1480098303423386,0.599609,-0.508301,0.577148
1480098303445948,0.59668,-0.522461,0.575684
1480098303459983,0.602051,-0.50293,0.57373
1480098303483045,0.602051,-0.516113,0.57373
1480098303505605,0.593262,-0.521484,0.57959
1480098303520145,0.594238,-0.50293,0.582031
1480098303543205,0.592773,-0.528809,0.585938
1480098303565764,0.589844,-0.512207,0.589844
1480098303580303,0.608398,-0.510742,0.588867
1480098303603365,0.600098,-0.534668,0.593262
1480098303625925,0.60498,-0.502441,0.589355
1480098303639962,0.598145,-0.512695,0.588867
1480098303663534,0.595215,-0.520996,0.589844
1480098303685583,0.604004,-0.499512,0.583984
1480098303707142,0.599609,-0.525879,0.581055
1480098303723183,0.596191,-0.51709,0.573242
1480098303745743,0.603516,-0.501465,0.571289
1480098303766800,0.596191,-0.528809,0.570801
1480098303783344,0.594238,-0.500977,0.57666
1480098303805903,0.598633,-0.508301,0.577637
1480098303826959,0.596191,-0.530273,0.584961
1480098303843503,0.599609,-0.507813,0.589355
1480098303865561,0.597168,-0.525879,0.595215
1480098303887122,0.59375,-0.522461,0.589355
1480098303903162,0.603516,-0.507324,0.583496
1480098303925722,0.592285,-0.527344,0.588379
1480098303946778,0.597168,-0.512207,0.585449
1480098303963322,0.595703,-0.511719,0.588379
1480098303985884,0.598145,-0.537109,0.582031
1480098304006938,0.605469,-0.514648,0.586426
1480098304023482,0.594727,-0.520508,0.583496
1480098304046042,0.591309,-0.526367,0.585938
1480098304067098,0.600586,-0.499023,0.588867
1480098304083141,0.59375,-0.524414,0.581543
1480098304105701,0.594238,-0.503418,0.577148
1480098304126756,0.595703,-0.505371,0.574707
1480098304143301,0.588379,-0.52832,0.581055
1480098304165862,0.59082,-0.513184,0.583496
1480098304186917,0.596191,-0.530762,0.592773
1480098304203461,0.595215,-0.539551,0.595703
1480098304226021,0.601074,-0.51123,0.600098
1480098304248079,0.592773,-0.523926,0.59375
1480098304263119,0.590332,-0.510254,0.597656
1480098304285681,0.597168,-0.505859,0.587402
1480098304308239,0.590332,-0.532227,0.584961
1480098304323280,0.595703,-0.513672,0.57666
1480098304345839,0.600098,-0.513672,0.574707
1480098304368399,0.588379,-0.524414,0.571777
1480098304382437,0.595215,-0.494629,0.572266
1480098304407004,0.596191,-0.51709,0.578125
1480098304428058,0.59668,-0.516602,0.587891
1480098304442597,0.603516,-0.505371,0.584473
1480098304465658,0.587402,-0.530762,0.583008
1480098304488218,0.585449,-0.512207,0.577637
1480098304502757,0.589844,-0.50293,0.574219
1480098304525818,0.585938,-0.535645,0.575684
1480098304555898,0.595703,-0.509766,0.573242
1480098304562917,0.593262,-0.535645,0.577637
1480098304585978,0.591309,-0.543945,0.581543
1480098304608037,0.586914,-0.532227,0.580566
1480098304622575,0.568359,-0.547852,0.590332
1480098304645638,0.5625,-0.532715,0.599609
1480098304668196,0.579102,-0.524902,0.586914
1480098304682735,0.574707,-0.552734,0.583496
1480098304705797,0.580078,-0.527344,0.589355
1480098304727855,0.586914,-0.533203,0.583496
1480098304749415,0.59082,-0.543945,0.570313
1480098304765959,0.602051,-0.527832,0.574707
1480098304788516,0.599121,-0.561035,0.583008
1480098304809572,0.581055,-0.547363,0.593262
1480098304825617,0.564453,-0.524414,0.601074
1480098304848175,0.55127,-0.558594,0.600586
1480098304869231,0.570801,-0.543945,0.591797
1480098304886778,0.583496,-0.550781,0.59375
1480098304908335,0.574219,-0.547363,0.593262
1480098304929391,0.587402,-0.518066,0.583496
1480098304945935,0.581055,-0.547852,0.572266
1480098304968495,0.579102,-0.55127,0.561035
1480098304989552,0.593262,-0.523926,0.543457
1480098305006097,0.592285,-0.547852,0.541016
1480098305028154,0.59082,-0.524414,0.555664
1480098305049210,0.591309,-0.523926,0.581055
1480098305065754,0.572266,-0.547363,0.603027
1480098305088314,0.58252,-0.519531,0.613281
1480098305109370,0.58252,-0.529297,0.623535
1480098305125914,0.578125,-0.532715,0.633301
1480098305148475,0.57959,-0.519531,0.616699
1480098305169530,0.568848,-0.552246,0.606934
1480098305185573,0.576172,-0.526855,0.592773
1480098305208134,0.580566,-0.51416,0.571777
1480098305230694,0.578125,-0.536621,0.557617
1480098305245734,0.592285,-0.520996,0.549805
1480098305268293,0.589844,-0.534668,0.54834
1480098305290852,0.588867,-0.53125,0.55957
1480098305311908,0.588379,-0.504395,0.57373
1480098305328453,0.575195,-0.531738,0.594238
1480098305351012,0.580566,-0.516113,0.609863
1480098305365050,0.587891,-0.504395,0.615723
1480098305388111,0.585449,-0.530762,0.614746
1480098305410671,0.587402,-0.507324,0.605957
1480098305425213,0.581055,-0.515137,0.605469
1480098305448271,0.571777,-0.529297,0.591309
1480098305470832,0.580566,-0.513672,0.584473
1480098305484868,0.584473,-0.544434,0.568359
1480098305508431,0.591309,-0.539063,0.559082
1480098305530491,0.597168,-0.526367,0.5625
1480098305545029,0.59082,-0.545898,0.561523
1480098305568090,0.59668,-0.525391,0.571289
1480098305591151,0.590332,-0.51709,0.576172
1480098305605189,0.581055,-0.53125,0.587402
1480098305628250,0.587402,-0.510742,0.587402
1480098305650810,0.586914,-0.537109,0.599121
1480098305665850,0.581055,-0.530762,0.597168
1480098305688410,0.583496,-0.51123,0.603027
1480098305710970,0.57666,-0.52832,0.604492
1480098305732026,0.582031,-0.517578,0.596191
1480098305748576,0.583984,-0.523926,0.591797
1480098305770629,0.579102,-0.540527,0.589355
1480098305791684,0.588867,-0.513672,0.583008
1480098305808230,0.585449,-0.526855,0.580566
1480098305830789,0.578125,-0.527832,0.584473
1480098305851844,0.582031,-0.509277,0.583496
1480098305868388,0.578125,-0.535156,0.582031
1480098305890949,0.581055,-0.527832,0.583984
1480098305912004,0.586426,-0.523926,0.589844
1480098305928553,0.581055,-0.541504,0.589355
1480098305950607,0.584961,-0.520996,0.598633
1480098305971663,0.57959,-0.534668,0.59375
1480098305988708,0.575195,-0.538574,0.598145
1480098306010768,0.583984,-0.516602,0.593262
1480098306033328,0.57959,-0.528809,0.594727
1480098306048367,0.581543,-0.524902,0.595215
1480098306070930,0.59082,-0.518555,0.586914
1480098306091983,0.583008,-0.536133,0.594727
1480098306108527,0.582031,-0.512207,0.589844
1480098306130586,0.586426,-0.525391,0.593262
1480098306153146,0.583496,-0.53125,0.595703
1480098306168186,0.591309,-0.514648,0.586914
1480098306190746,0.586426,-0.541504,0.592285
1480098306213306,0.590332,-0.527344,0.588867
1480098306228847,0.59375,-0.51416,0.584473
1480098306250906,0.580566,-0.543457,0.580078
1480098306273466,0.584473,-0.520508,0.589355
1480098306287503,0.592285,-0.512207,0.584473
1480098306311067,0.586426,-0.537109,0.583984
1480098306333124,0.594238,-0.509766,0.581543
1480098306347664,0.589355,-0.522461,0.584961
1480098306370725,0.584473,-0.532227,0.592285
1480098306393284,0.592773,-0.502441,0.577637
1480098306407823,0.589355,-0.530762,0.587891
1480098306430886,0.595215,-0.513672,0.593262
1480098306453445,0.597656,-0.514648,0.590332
1480098306467482,0.593262,-0.539063,0.597656
1480098306490543,0.601563,-0.515625,0.600586
1480098306513103,0.601563,-0.53125,0.607422
1480098306527643,0.587891,-0.518555,0.600586
1480098306550706,0.596191,-0.498047,0.591797
1480098306573264,0.59375,-0.523926,0.584473
1480098306594319,0.593262,-0.510254,0.581055
1480098306610863,0.609863,-0.512695,0.57959
1480098306633423,0.604004,-0.532227,0.570801
1480098306654480,0.609863,-0.50293,0.56543
1480098306670522,0.607422,-0.511719,0.564453
1480098306693082,0.599121,-0.512207,0.564453
1480098306714138,0.605957,-0.484863,0.565918
1480098306730682,0.605469,-0.518066,0.559082
1480098306753242,0.612305,-0.504883,0.561035
1480098306774298,0.617188,-0.494629,0.562012
1480098306790842,0.603027,-0.513184,0.560547
1480098306813402,0.61377,-0.496582,0.565918
1480098306834458,0.608887,-0.492676,0.5625
1480098306850501,0.594727,-0.520508,0.587891
1480098306873064,0.571777,-0.52832,0.630371
1480098306894117,0.69043,-0.523926,0.568359
1480098306910660,0.615234,-0.45459,0.553711
1480098306933220,0.564453,-0.448242,0.564453
1480098306954277,0.616211,-0.519531,0.563965
1480098306970821,0.608398,-0.525879,0.584473
1480098306993381,0.618652,-0.533203,0.589355
1480098307015940,0.624023,-0.530762,0.58252
1480098307030982,0.620605,-0.484375,0.579102
1480098307053543,0.625977,-0.487793,0.572266
1480098307074095,0.615234,-0.496582,0.582031
1480098307090639,0.611328,-0.503906,0.581543
1480098307113200,0.605469,-0.534668,0.581055
1480098307135759,0.606934,-0.514648,0.572266
1480098307150801,0.60791,-0.49707,0.571289
1480098307173361,0.597656,-0.499023,0.570313
1480098307195921,0.606445,-0.480957,0.576172
1480098307209957,0.614746,-0.519531,0.580078
1480098307233018,0.616211,-0.530762,0.574707
1480098307255579,0.624023,-0.506348,0.572754
1480098307270117,0.61084,-0.516602,0.581055
1480098307293178,0.599121,-0.501953,0.587891
1480098307315739,0.607422,-0.497559,0.583008
1480098307330278,0.604004,-0.529297,0.577637
1480098307353339,0.606934,-0.504395,0.582031
1480098307375899,0.611816,-0.511719,0.570313
1480098307389935,0.602051,-0.518555,0.570313
1480098307413508,0.61377,-0.496582,0.571777
1480098307436060,0.60791,-0.518066,0.571289
1480098307450108,0.608887,-0.513184,0.57959
1480098307473156,0.608398,-0.501953,0.581543
1480098307495717,0.599609,-0.524414,0.575195
1480098307510256,0.596191,-0.505859,0.568848
1480098307533316,0.605957,-0.513184,0.57666
1480098307555876,0.604492,-0.537109,0.587402
1480098307576932,0.609375,-0.504883,0.587891
1480098307592975,0.60791,-0.519043,0.586426
1480098307615535,0.600098,-0.517578,0.58252
1480098307636591,0.608398,-0.497559,0.573242
1480098307653135,0.600098,-0.52002,0.573242
1480098307675695,0.604492,-0.51416,0.572754
1480098307696751,0.608887,-0.508301,0.572754
1480098307713295,0.602539,-0.534668,0.581055
1480098307735855,0.61084,-0.507813,0.581543
1480098307756911,0.603516,-0.527832,0.583008
1480098307773455,0.600098,-0.530762,0.586914
1480098307795515,0.607422,-0.505859,0.587891
1480098307817072,0.599609,-0.52832,0.58252
1480098307833114,0.598633,-0.511719,0.582031
1480098307855674,0.601563,-0.512695,0.58252
1480098307876730,0.594727,-0.530762,0.569824
1480098307893274,0.601074,-0.506348,0.568848
1480098307915835,0.608398,-0.516602,0.578125
1480098307936898,0.604492,-0.526855,0.574707
1480098307953435,0.614746,-0.502441,0.580566
1480098307975493,0.606445,-0.523926,0.57959
1480098307998054,0.604004,-0.513184,0.580566
1480098308013092,0.606934,-0.501465,0.578613
1480098308035653,0.600098,-0.522461,0.577637
1480098308058214,0.598633,-0.503906,0.570801
1480098308073261,0.604004,-0.513184,0.580078
1480098308095813,0.600586,-0.532715,0.580566
1480098308118373,0.614258,-0.506836,0.574707
1480098308132411,0.606934,-0.526855,0.574707
1480098308163492,0.60498,-0.507813,0.577637
1480098308178534,0.608398,-0.492676,0.578613
1480098308192571,0.599121,-0.521484,0.572754
1480098308215631,0.604004,-0.506836,0.570313
1480098308238191,0.607422,-0.506348,0.566406
1480098308252732,0.603516,-0.532227,0.574219
1480098308275792,0.604492,-0.501465,0.572266
1480098308298352,0.605469,-0.516113,0.577637
1480098308312389,0.601074,-0.516602,0.578125
1480098308335955,0.612305,-0.498047,0.577637
1480098308358010,0.606934,-0.525391,0.582031
1480098308372550,0.599609,-0.511719,0.58252
1480098308395610,0.604492,-0.504395,0.575684
1480098308418171,0.596191,-0.523926,0.583496
1480098308432712,0.602051,-0.503418,0.57373
1480098308455770,0.59668,-0.515137,0.578613
1480098308478330,0.59375,-0.519043,0.57959
1480098308492367,0.603516,-0.509277,0.583496
1480098308515930,0.59668,-0.535156,0.586914
1480098308537988,0.604004,-0.523926,0.58252
1480098308559546,0.610352,-0.511719,0.588867
1480098308575589,0.598633,-0.525879,0.583496
1480098308598149,0.597168,-0.503906,0.587891
1480098308619206,0.600098,-0.520996,0.589844
1480098308635749,0.592773,-0.538574,0.57959
1480098308658309,0.60498,-0.523438,0.577148
1480098308679365,0.598633,-0.537109,0.573242
1480098308695909,0.595215,-0.513672,0.57373
1480098308718469,0.60791,-0.49707,0.572754
1480098308739524,0.599609,-0.529297,0.575684
1480098308755567,0.599121,-0.512207,0.579102
1480098308778127,0.60498,-0.522949,0.578125
1480098308799183,0.597168,-0.531738,0.577637
1480098308815728,0.606445,-0.498535,0.575684
1480098308838288,0.600098,-0.516602,0.571289
1480098308859344,0.597168,-0.516113,0.579102
1480098308877392,0.606934,-0.504883,0.583008
1480098308898447,0.598633,-0.53125,0.587402
1480098308919503,0.59375,-0.514648,0.584473
1480098308935547,0.600586,-0.509277,0.585938
1480098308958107,0.590332,-0.527832,0.591309
1480098308979163,0.604004,-0.50293,0.584473
1480098308995709,0.602539,-0.523926,0.58252
1480098309018266,0.596191,-0.526855,0.589355
1480098309040827,0.604492,-0.499512,0.578613
1480098309055866,0.594727,-0.524902,0.583008
1480098309078427,0.598145,-0.510254,0.574219
1480098309100987,0.606445,-0.504883,0.57666
1480098309115024,0.591797,-0.521484,0.572754
1480098309144101,0.59668,-0.501465,0.577148
1480098309160646,0.604492,-0.52002,0.569824
1480098309175184,0.599609,-0.534668,0.575195
1480098309205766,0.602539,-0.513184,0.586914
1480098309220809,0.595703,-0.526855,0.579102
1480098309235346,0.592773,-0.517578,0.583008
1480098309258405,0.600098,-0.50293,0.588867
1480098309280971,0.596191,-0.523438,0.585938
1480098309295002,0.598145,-0.507324,0.583984
1480098309318063,0.600586,-0.513184,0.579102
1480098309357167,0.595215,-0.528809,0.574219
1480098309361714,0.59668,-0.503906,0.58252
1480098309378223,0.59375,-0.519531,0.581055
1480098309401285,0.598145,-0.523438,0.582031
1480098309421839,0.603027,-0.505371,0.582031
1480098309438384,0.596191,-0.533203,0.584961
1480098309460943,0.593262,-0.516602,0.583496
1480098309481999,0.599121,-0.51709,0.584473
1480098309499045,0.59082,-0.530762,0.585449
1480098309520602,0.595703,-0.503906,0.589355
1480098309541658,0.599609,-0.532715,0.587402
1480098309558202,0.596191,-0.533203,0.592773
1480098309580762,0.606934,-0.531738,0.595703
1480098309601818,0.583496,-0.530762,0.561035
1480098309618864,0.605469,-0.526367,0.570801
1480098309640922,0.625977,-0.45459,0.595703
1480098309661980,0.600098,-0.486328,0.600586
1480098309678022,0.560059,-0.499023,0.600098
1480098309700581,0.588867,-0.524902,0.590332
1480098309721637,0.585449,-0.52832,0.592285
1480098309745701,0.594727,-0.492676,0.595703
1480098309760740,0.578613,-0.512695,0.59668
1480098309781797,0.583008,-0.525391,0.592773
1480098309798340,0.585449,-0.508789,0.598145
1480098309820900,0.586426,-0.531738,0.599609
1480098309841956,0.585449,-0.496582,0.604004
1480098309857999,0.575684,-0.499023,0.595703
1480098309880559,0.599121,-0.525391,0.595215
1480098309903119,0.612305,-0.506836,0.566895
1480098309917658,0.58252,-0.537598,0.579102
1480098309940719,0.617676,-0.51709,0.585449
1480098309963279,0.602539,-0.500488,0.579102
1480098309978319,0.572754,-0.511719,0.579102
1480098310000881,0.594727,-0.502441,0.578125
1480098310023439,0.601074,-0.531738,0.588867
1480098310045999,0.583496,-0.540039,0.592773
1480098310061039,0.598145,-0.495117,0.592285
1480098310083099,0.59375,-0.520996,0.592773
1480098310097640,0.588867,-0.522461,0.588867
1480098310120697,0.59668,-0.512207,0.583496
1480098310143259,0.589355,-0.529785,0.581055
1480098310157797,0.592285,-0.510742,0.583984
1480098310180858,0.600098,-0.507324,0.583496
1480098310203422,0.587891,-0.53418,0.583496
1480098310217455,0.59668,-0.508301,0.586914
1480098310240517,0.59668,-0.519043,0.589355
1480098310263077,0.59082,-0.523438,0.595215
1480098310277619,0.59668,-0.504395,0.592285
1480098310300677,0.585938,-0.530762,0.590332
1480098310323237,0.591309,-0.520508,0.589355
1480098310337275,0.592773,-0.51123,0.592285
1480098310360838,0.590332,-0.536133,0.590332
1480098310383396,0.595215,-0.51123,0.583008
1480098310404453,0.595215,-0.522461,0.585938
1480098310421498,0.591309,-0.533203,0.580566
1480098310443055,0.598145,-0.503906,0.580566
1480098310464113,0.59668,-0.526367,0.580078
1480098310481658,0.591309,-0.51709,0.57959
1480098310503216,0.599609,-0.501465,0.577637
1480098310524271,0.588867,-0.524414,0.578125
1480098310540816,0.59375,-0.508301,0.583984
1480098310563375,0.595703,-0.523926,0.579102
1480098310584431,0.593262,-0.533203,0.586426
1480098310600975,0.59668,-0.507324,0.587402
1480098310623034,0.588379,-0.519043,0.586426
1480098310644090,0.582031,-0.517578,0.592285
1480098310660636,0.591309,-0.508789,0.595215
1480098310683194,0.590332,-0.534668,0.586914
1480098310704250,0.591309,-0.516602,0.588379
1480098310721295,0.594238,-0.517578,0.586914
1480098310743354,0.587891,-0.532715,0.586426
1480098310764414,0.595703,-0.507813,0.591797
1480098310780953,0.59082,-0.526855,0.590332
1480098310803014,0.587891,-0.532715,0.589844
1480098310824069,0.597656,-0.503418,0.590332
1480098310840614,0.593262,-0.530273,0.588379
1480098310863173,0.588379,-0.519531,0.585938
1480098310884230,0.590332,-0.51709,0.583496
1480098310900772,0.584961,-0.532715,0.587891
1480098310923333,0.595215,-0.51123,0.58252
1480098310945892,0.594238,-0.522461,0.57959
1480098310960933,0.590332,-0.530273,0.57959
1480098310983493,0.595215,-0.504883,0.58252
1480098311013072,0.591309,-0.525391,0.57959
1480098311020591,0.591797,-0.518555,0.583496
1480098311043152,0.598145,-0.507813,0.581055
1480098311065711,0.589844,-0.535645,0.580078
1480098311080251,0.59668,-0.512207,0.583008
1480098311103312,0.59375,-0.515625,0.587891
1480098311125872,0.585449,-0.53125,0.585938
1480098311139910,0.600098,-0.507324,0.591309
1480098311163486,0.590332,-0.534668,0.584473
1480098311185532,0.588379,-0.527344,0.589844
1480098311200069,0.594238,-0.510254,0.591797
1480098311223130,0.583008,-0.527832,0.586426
1480098311245690,0.589355,-0.515137,0.583984
1480098311260229,0.595703,-0.514648,0.585449
1480098311284294,0.583496,-0.53418,0.583496
1480098311305850,0.59082,-0.505371,0.581055
1480098311319888,0.588379,-0.523926,0.584961
1480098311343450,0.588379,-0.530273,0.584961
1480098311365509,0.601563,-0.51123,0.591797
1480098311386568,0.59668,-0.537598,0.588379
1480098311403110,0.588867,-0.516113,0.59375
1480098311425670,0.594727,-0.507324,0.587891
1480098311446724,0.584961,-0.527832,0.585449
1480098311463268,0.594238,-0.508789,0.581055
1480098311486831,0.589844,-0.52002,0.578613
1480098311506885,0.587891,-0.526855,0.582031
1480098311523428,0.603516,-0.508301,0.578125
1480098311545988,0.588867,-0.52832,0.583008
1480098311566543,0.586426,-0.51709,0.584473
1480098311583090,0.588867,-0.512695,0.588379
1480098311606651,0.588867,-0.540039,0.592773
1480098311626703,0.594238,-0.515625,0.585449
1480098311643248,0.589844,-0.519531,0.58252
1480098311665807,0.58252,-0.526855,0.583496
1480098311686863,0.592285,-0.509766,0.585449
1480098311703408,0.587402,-0.526855,0.588379
1480098311725466,0.588867,-0.52832,0.588867
1480098311746522,0.592773,-0.511719,0.583008
1480098311770586,0.584961,-0.534668,0.594238
1480098311785628,0.587402,-0.512695,0.59082
1480098311807184,0.593262,-0.513184,0.59375
1480098311823226,0.589355,-0.527832,0.590332
1480098311845786,0.599609,-0.507813,0.586914
1480098311868848,0.591797,-0.522461,0.584961
1480098311883386,0.591797,-0.520996,0.580566
1480098311905946,0.592773,-0.508301,0.578613
1480098311928508,0.588379,-0.530273,0.582031
1480098311943045,0.591309,-0.519043,0.584473
1480098311965605,0.592773,-0.514648,0.583496
1480098311988165,0.583984,-0.538574,0.591309
1480098312002703,0.593262,-0.51123,0.586914
1480098312025764,0.589355,-0.527832,0.585938
1480098312048327,0.584473,-0.526367,0.586914
1480098312062362,0.592285,-0.505859,0.584961
1480098312085924,0.590332,-0.534668,0.585449
1480098312107983,0.586914,-0.522949,0.57959
1480098312122522,0.597656,-0.506348,0.583008
1480098312146086,0.584961,-0.52832,0.578125
1480098312168144,0.593262,-0.513672,0.591797
1480098312182682,0.599121,-0.530762,0.589355
1480098312205746,0.59082,-0.533691,0.601074
1480098312228303,0.592285,-0.509766,0.598633
1480098312249359,0.584473,-0.52002,0.594238
1480098312265903,0.584961,-0.521484,0.592773
1480098312287962,0.597656,-0.509766,0.583496
1480098312309019,0.585449,-0.540527,0.582031
1480098312325562,0.592285,-0.512695,0.57959
1480098312348122,0.593262,-0.520996,0.57959
1480098312369178,0.589844,-0.533691,0.584961
1480098312385742,0.588379,-0.503906,0.585449
1480098312408282,0.591797,-0.525879,0.583984
1480098312429338,0.592285,-0.529297,0.587402
1480098312445882,0.604004,-0.515137,0.587891
1480098312468444,0.587402,-0.534668,0.594727
1480098312488998,0.57959,-0.521484,0.588379
1480098312505540,0.585449,-0.510742,0.585938
1480098312528101,0.585449,-0.533691,0.585449
1480098312549157,0.592773,-0.512207,0.584961
1480098312565701,0.59082,-0.526367,0.59082
1480098312588272,0.588379,-0.531738,0.591309
1480098312609317,0.589844,-0.509277,0.591797
1480098312625860,0.588379,-0.53125,0.593262
1480098312647919,0.588867,-0.519043,0.584473
1480098312669476,0.597656,-0.505859,0.585938
1480098312685519,0.586426,-0.53125,0.579102
1480098312708080,0.588379,-0.509277,0.581055
1480098312729639,0.589355,-0.527344,0.582031
1480098312753199,0.583984,-0.530762,0.583496
1480098312768741,0.590332,-0.516113,0.586914
1480098312790800,0.594238,-0.53418,0.588867
1480098312805840,0.588867,-0.518066,0.588379
1480098312828399,0.592773,-0.504883,0.591797
1480098312850959,0.587402,-0.544434,0.591797
1480098312866001,0.591309,-0.519043,0.589355
1480098312871013,0.589844,-0.51416,0.59375
1480098312893573,0.583984,-0.524902,0.592773
1480098312916132,0.592773,-0.506348,0.575684
1480098312931173,0.594727,-0.52832,0.578613
1480098312953733,0.591309,-0.533203,0.590332
1480098312976292,0.59668,-0.514648,0.587402
1480098312992335,0.585938,-0.540527,0.591797
1480098313013392,0.590332,-0.515137,0.598633
1480098313035959,0.591797,-0.509766,0.592773
1480098313052498,0.586426,-0.532715,0.589355
1480098313073551,0.599121,-0.516113,0.597168
1480098313096112,0.598633,-0.532227,0.600586
1480098313112657,0.592285,-0.532227,0.599609
1480098313133712,0.595215,-0.504395,0.599121
1480098313156272,0.589355,-0.529785,0.591797
1480098313172314,0.588867,-0.510254,0.575684
1480098313193370,0.588379,-0.513672,0.563965
1480098313215930,0.586914,-0.534668,0.550293
1480098313232474,0.59668,-0.513672,0.552734
1480098313253530,0.597656,-0.52002,0.554199
1480098313276096,0.594727,-0.519531,0.566406
1480098313292636,0.60498,-0.502441,0.574707
1480098313313690,0.59668,-0.524902,0.577637
1480098313336250,0.590332,-0.518066,0.584961
1480098313352294,0.595703,-0.511719,0.585938
1480098313373850,0.587891,-0.533691,0.585938
1480098313395910,0.600586,-0.51123,0.583984
1480098313412455,0.602051,-0.520508,0.57959
1480098313433508,0.59668,-0.537109,0.575195
1480098313456068,0.60498,-0.513672,0.574219
1480098313474118,0.600098,-0.532227,0.575684
1480098313493668,0.600098,-0.522949,0.569824
1480098313516229,0.60498,-0.516602,0.574707
1480098313534277,0.593262,-0.541016,0.575195
1480098313553328,0.593262,-0.521484,0.571289
1480098313575887,0.589844,-0.520996,0.578613
1480098313598447,0.583496,-0.529297,0.578613
1480098313613487,0.594238,-0.51416,0.585938
1480098313636047,0.592773,-0.53125,0.586914
1480098313658607,0.588379,-0.531738,0.594727
1480098313673647,0.591797,-0.519043,0.588379
1480098313696207,0.589844,-0.537598,0.585938
1480098313718767,0.588867,-0.519043,0.588867
1480098313734810,0.591309,-0.513672,0.587891
1480098313758874,0.586426,-0.52832,0.580566
1480098313778426,0.592773,-0.509277,0.581543
1480098313793466,0.59375,-0.525879,0.585938
1480098313816025,0.587891,-0.527832,0.586426
1480098313838588,0.600586,-0.507324,0.580566
1480098313853626,0.588867,-0.528809,0.583984
1480098313876186,0.586914,-0.519043,0.585938
1480098313898746,0.591309,-0.518555,0.585449
1480098313913785,0.588379,-0.540527,0.585449
1480098313935845,0.589844,-0.516602,0.592285
1480098313958407,0.585938,-0.518555,0.581543
1480098313973444,0.580078,-0.53125,0.58252
1480098313996004,0.586914,-0.512207,0.588867
1480098314018565,0.587891,-0.537598,0.587891
1480098314033606,0.588379,-0.526855,0.588867
1480098314063685,0.590332,-0.513184,0.584473
1480098314078725,0.581055,-0.532715,0.590332
1480098314093764,0.585938,-0.513672,0.583008
1480098314115823,0.584961,-0.528809,0.59082
1480098314138383,0.585449,-0.540527,0.588379
1480098314153423,0.588867,-0.510742,0.585938
1480098314175983,0.585938,-0.528809,0.588867
1480098314198543,0.582031,-0.52832,0.591797
1480098314213583,0.583984,-0.517578,0.591797
1480098314236146,0.58252,-0.544922,0.584961
1480098314258703,0.589355,-0.516113,0.586426
1480098314273743,0.585449,-0.518066,0.583008
1480098314296303,0.582031,-0.53418,0.58252
1480098314318365,0.583496,-0.51416,0.582031
1480098314334908,0.583008,-0.539063,0.586426
1480098314355962,0.577148,-0.533691,0.588379
1480098314378523,0.587402,-0.51709,0.587891
1480098314401082,0.57959,-0.537598,0.593262
1480098314416130,0.580078,-0.521973,0.586426
1480098314438684,0.584961,-0.517578,0.587402
1480098314455235,0.578125,-0.542969,0.586914
1480098314476282,0.583496,-0.523438,0.588379
1480098314498842,0.582031,-0.535156,0.586914
1480098314514884,0.581055,-0.538574,0.587891
1480098314535940,0.585938,-0.515625,0.586426
1480098314559003,0.57666,-0.537598,0.583496
1480098314575046,0.579102,-0.526367,0.585938
1480098314596101,0.589355,-0.521484,0.59082
1480098314618661,0.580078,-0.542969,0.593262
1480098314635205,0.57959,-0.522461,0.592773
1480098314656260,0.581543,-0.529785,0.590332
1480098314678332,0.575195,-0.540039,0.586914
1480098314696367,0.583984,-0.516602,0.589355
1480098314715919,0.579102,-0.538574,0.589844
1480098314738480,0.578613,-0.533203,0.592285
1480098314756527,0.586914,-0.522461,0.589844
1480098314776079,0.57959,-0.543457,0.591797
1480098314798639,0.578125,-0.522949,0.593262
1480098314816687,0.583008,-0.523438,0.586914
1480098314836239,0.578125,-0.540039,0.582031
1480098314858800,0.587891,-0.515625,0.586426
1480098314882365,0.585449,-0.534668,0.582031
1480098314895898,0.579102,-0.535156,0.587402
1480098314918460,0.589355,-0.519043,0.58252
1480098314936506,0.582031,-0.542969,0.583984
1480098314956058,0.581055,-0.523926,0.591797
1480098314978618,0.583008,-0.516113,0.584961
1480098314996666,0.575684,-0.537598,0.590332
1480098315016233,0.586914,-0.514648,0.58252
1480098315038779,0.58252,-0.529785,0.589355
1480098315060836,0.576172,-0.541504,0.593262
1480098315075876,0.582031,-0.523926,0.59375
1480098315098437,0.580078,-0.543457,0.596191
1480098315120996,0.577148,-0.525391,0.591797
1480098315143560,0.584473,-0.512695,0.583984
1480098315158596,0.580566,-0.537598,0.589355
1480098315181156,0.585449,-0.520508,0.587402
1480098315196196,0.585449,-0.527344,0.585938
1480098315218758,0.578613,-0.536621,0.583984
1480098315241316,0.583984,-0.512695,0.586914
1480098315255855,0.578613,-0.533203,0.579102
1480098315278415,0.578613,-0.525391,0.59375
1480098315300977,0.584473,-0.518066,0.588379
1480098315317519,0.576172,-0.540039,0.59082
1480098315338575,0.583984,-0.52002,0.586914
1480098315361135,0.584473,-0.525879,0.585938
1480098315377679,0.576172,-0.541504,0.585938
1480098315398735,0.586914,-0.517578,0.581055
1480098315421295,0.583008,-0.532715,0.585938
1480098315437338,0.580566,-0.535645,0.587402
1480098315458394,0.586914,-0.519043,0.58252
1480098315480954,0.576172,-0.547363,0.586914
1480098315497498,0.584961,-0.523438,0.581543
1480098315518554,0.583008,-0.521973,0.584961
1480098315541118,0.574219,-0.541016,0.583984
1480098315557662,0.583496,-0.51709,0.589355
1480098315578717,0.583008,-0.540039,0.587402
1480098315601280,0.578613,-0.540527,0.593262
1480098315618825,0.589355,-0.51709,0.588379
1480098315638376,0.578613,-0.543457,0.584473
1480098315660936,0.582031,-0.529297,0.588379
1480098315678985,0.583496,-0.522461,0.58252
1480098315698537,0.580566,-0.54248,0.581055
1480098315721096,0.584473,-0.518555,0.57666
1480098315739145,0.580078,-0.524902,0.578613
1480098315758696,0.580566,-0.544922,0.588867
1480098315781256,0.589355,-0.523926,0.587402
1480098315798804,0.583984,-0.54248,0.588379
1480098315818857,0.574219,-0.531738,0.590332
1480098315840915,0.57666,-0.515625,0.584473
1480098315858964,0.570313,-0.540039,0.58252
1480098315878516,0.583496,-0.525391,0.587891
1480098315901078,0.583008,-0.530273,0.583984
1480098315919124,0.57666,-0.539063,0.585449
1480098315938676,0.583008,-0.520996,0.587402
1480098315961235,0.582031,-0.537109,0.58252
1480098315978782,0.577637,-0.528809,0.592285
1480098315998333,0.585449,-0.519043,0.587402
1480098316020948,0.582031,-0.541992,0.588867
1480098316038944,0.584961,-0.525391,0.587891
1480098316058494,0.584473,-0.526855,0.588379
1480098316081054,0.57373,-0.538086,0.593262
1480098316099102,0.581055,-0.520996,0.587891
1480098316118654,0.578125,-0.533691,0.583496
1480098316141214,0.578613,-0.538086,0.589355
1480098316158762,0.585938,-0.520996,0.585938
1480098316178312,0.57959,-0.544434,0.589844
1480098316200875,0.580566,-0.530762,0.586914
1480098316218924,0.583984,-0.520996,0.590332
1480098316239977,0.576172,-0.543945,0.583984
1480098316261033,0.583984,-0.520508,0.591797
1480098316279086,0.583984,-0.527832,0.589355
1480098316300137,0.583008,-0.541992,0.583008
1480098316321192,0.584473,-0.52002,0.587402
1480098316338739,0.580078,-0.536621,0.583008
1480098316361300,0.581543,-0.533203,0.587891
1480098316381355,0.586914,-0.520996,0.587891
1480098316398902,0.575195,-0.544434,0.588867
1480098316419956,0.579102,-0.522461,0.591797
1480098316441011,0.578613,-0.523926,0.586914
1480098316459059,0.569824,-0.540527,0.586426
1480098316480115,0.58252,-0.519043,0.584473
1480098316501179,0.580566,-0.54541,0.59082
1480098316519220,0.57373,-0.54541,0.588379
1480098316540275,0.583984,-0.526855,0.594238
1480098316560830,0.572754,-0.541016,0.592285
1480098316578878,0.571289,-0.521973,0.586914
1480098316601939,0.57959,-0.523926,0.586426
1480098316620990,0.577637,-0.54834,0.584473
1480098316643553,0.585449,-0.519043,0.586426
1480098316661598,0.58252,-0.533203,0.59082
1480098316681202,0.578613,-0.538086,0.581543
1480098316703716,0.58252,-0.515137,0.584961
1480098316721256,0.574707,-0.54541,0.595703
1480098316740810,0.581055,-0.531738,0.587402
1480098316763383,0.587402,-0.525391,0.584473
1480098316781416,0.57666,-0.54541,0.587402
1480098316808490,0.581543,-0.519531,0.588867
1480098316823529,0.581543,-0.537109,0.586426
1480098316841577,0.573242,-0.541992,0.584961
1480098316861128,0.57959,-0.523438,0.579102
1480098316883689,0.575684,-0.54248,0.583984
1480098316901739,0.578125,-0.530762,0.581055
1480098316921289,0.583984,-0.519531,0.582031
1480098316943407,0.574707,-0.547852,0.588867
1480098316961396,0.577637,-0.522461,0.59082
1480098316980947,0.585449,-0.53125,0.583008
1480098317003567,0.573242,-0.54248,0.585938
1480098317021592,0.583984,-0.51416,0.590332
1480098317041109,0.580078,-0.537109,0.58252
1480098317063705,0.575684,-0.533691,0.587891
1480098317081717,0.585938,-0.523438,0.585449
1480098317101284,0.581543,-0.544922,0.583984
1480098317123845,0.58252,-0.522461,0.59082
1480098317141374,0.582031,-0.527344,0.585449
1480098317160967,0.57373,-0.546387,0.589844
1480098317183487,0.580078,-0.515625,0.584961
1480098317201534,0.580078,-0.533691,0.58252
1480098317222590,0.575684,-0.530762,0.590332
1480098317243645,0.581055,-0.517578,0.582031
1480098317261192,0.579102,-0.537598,0.583496
1480098317282248,0.574707,-0.532715,0.592285
1480098317303805,0.581055,-0.537598,0.588867
1480098317321354,0.574707,-0.550293,0.585449
1480098317342409,0.584961,-0.521484,0.592285
1480098317366473,0.586426,-0.526367,0.589844
1480098317381512,0.577148,-0.53418,0.584473
1480098317402569,0.586914,-0.519531,0.584961
1480098317423625,0.581055,-0.541016,0.582031
1480098317441673,0.584961,-0.531738,0.583008
1480098317462729,0.57959,-0.520996,0.586914
1480098317491306,0.571777,-0.547363,0.584473
1480098317501331,0.577148,-0.522949,0.585449
1480098317522387,0.584473,-0.53418,0.578613
1480098317543443,0.581543,-0.538574,0.581055
1480098317561491,0.586914,-0.516602,0.586914
1480098317584052,0.583008,-0.542969,0.583984
1480098317603603,0.576172,-0.538086,0.59082
1480098317621651,0.584473,-0.524902,0.591797
1480098317644212,0.576172,-0.554199,0.602539
1480098317663763,0.583984,-0.530762,0.599121
1480098317681310,0.584473,-0.523926,0.597168
1480098317703869,0.58252,-0.541504,0.597168
1480098317723422,0.581055,-0.517578,0.594238
1480098317745982,0.575684,-0.536621,0.593262
1480098317764030,0.579102,-0.538574,0.581543
1480098317783582,0.585938,-0.522461,0.572266
1480098317801629,0.581055,-0.541992,0.567871
1480098317824189,0.586914,-0.525391,0.575195
1480098317843741,0.59668,-0.523926,0.577637
1480098317861303,0.590332,-0.533691,0.570313
1480098317883848,0.593262,-0.515137,0.577637
1480098317903401,0.586914,-0.527832,0.575684
1480098317921448,0.575195,-0.535645,0.585449
1480098317944008,0.585449,-0.511719,0.584473
1480098317963561,0.579102,-0.537598,0.57959
1480098317981646,0.589355,-0.526367,0.583984
1480098318004194,0.592773,-0.522949,0.581543
1480098318023720,0.593262,-0.546387,0.586914
1480098318041769,0.59668,-0.518066,0.587891
1480098318063827,0.591797,-0.52002,0.58252
1480098318083880,0.584473,-0.528809,0.578613
1480098318105939,0.595215,-0.513184,0.575195
1480098318123987,0.592285,-0.528809,0.577637
1480098318146547,0.595703,-0.525391,0.575684
1480098318166099,0.606445,-0.509766,0.567871
1480098318184149,0.594238,-0.530273,0.572754
1480098318205203,0.595703,-0.516602,0.581055
1480098318227763,0.59375,-0.521973,0.575684
1480098318243807,0.589844,-0.537109,0.581055
1480098318264863,0.593262,-0.51416,0.581055
1480098318285918,0.586914,-0.530762,0.587402
1480098318304041,0.582031,-0.531738,0.589355
1480098318325022,0.595215,-0.517578,0.589355
1480098318346078,0.587402,-0.54541,0.591309
1480098318368638,0.592285,-0.524414,0.600098
1480098318385185,0.592285,-0.515625,0.583008
1480098318406237,0.585938,-0.539063,0.587402
1480098318423793,0.589355,-0.51709,0.581543
1480098318444841,0.589355,-0.528809,0.581543
1480098318465898,0.587891,-0.536133,0.580566
1480098318488496,0.59668,-0.51416,0.573242
1480098318506504,0.588867,-0.532715,0.574707
1480098318526057,0.59082,-0.528809,0.577148
1480098318544104,0.59375,-0.512695,0.579102
1480098318567667,0.589844,-0.537109,0.574219
1480098318586216,0.591797,-0.511719,0.577148
1480098318603763,0.59375,-0.526367,0.57373
1480098318626323,0.587891,-0.54541,0.583984
1480098318645875,0.598145,-0.51416,0.578125
1480098318663923,0.589844,-0.536621,0.574707
1480098318686486,0.583496,-0.521484,0.583008
1480098318706036,0.595215,-0.508301,0.578125
1480098318724083,0.586914,-0.539063,0.577637
1480098318754163,0.591309,-0.525391,0.580566
1480098318766195,0.596191,-0.525879,0.574219
1480098318783743,0.586426,-0.540039,0.578613
1480098318806302,0.59082,-0.512695,0.57959
1480098318825854,0.584473,-0.53125,0.584473
1480098318843916,0.585449,-0.53418,0.587402
1480098318866463,0.585938,-0.515625,0.582031
1480098318886037,0.587402,-0.54541,0.587891
1480098318904062,0.589355,-0.535156,0.582031
1480098318926623,0.592773,-0.520996,0.565918
1480098318946174,0.575195,-0.536621,0.581543
1480098318963721,0.589844,-0.523926,0.581543
1480098318986782,0.586914,-0.539063,0.594238
1480098319005832,0.581543,-0.544434,0.600586
1480098319023880,0.593262,-0.523438,0.591797
1480098319046440,0.592773,-0.529785,0.581055
1480098319065993,0.592285,-0.517578,0.574219
1480098319088553,0.595703,-0.51416,0.575195
1480098319106600,0.587891,-0.544922,0.576172
1480098319127656,0.590332,-0.520508,0.572754
1480098319143699,0.588379,-0.520508,0.57373
1480098319166760,0.585449,-0.541016,0.580078
1480098319193331,0.591797,-0.510742,0.580078
1480098319203865,0.59082,-0.539063,0.586426
1480098319226419,0.585938,-0.54248,0.59082
1480098319247476,0.597168,-0.523926,0.594727
1480098319264019,0.589844,-0.546387,0.591797
1480098319286579,0.582031,-0.520508,0.589844
1480098319307637,0.58252,-0.514648,0.581055
1480098319324191,0.586426,-0.550781,0.586914
1480098319346238,0.597168,-0.524414,0.58252
1480098319367298,0.588867,-0.529297,0.580078
1480098319383838,0.578613,-0.527832,0.581055
1480098319406407,0.593262,-0.507324,0.572266
1480098319428958,0.583984,-0.526855,0.572266
1480098319448510,0.59082,-0.522461,0.57959
1480098319471073,0.588379,-0.517578,0.575684
1480098319489119,0.586914,-0.539063,0.580566
1480098319508669,0.594727,-0.521484,0.583496
1480098319526717,0.589844,-0.52832,0.579102
1480098319548776,0.586426,-0.532227,0.578613
1480098319568830,0.595703,-0.512695,0.577148
1480098319586378,0.589844,-0.538086,0.587891
1480098319608937,0.588867,-0.52832,0.584961
1480098319628488,0.590332,-0.524414,0.585938
1480098319646536,0.583008,-0.538086,0.581055
1480098319669598,0.585449,-0.513184,0.58252
1480098319689150,0.592285,-0.520508,0.571777
1480098319705694,0.589844,-0.532715,0.569824
1480098319728755,0.59375,-0.511719,0.574707
1480098319749811,0.59082,-0.53418,0.579102
1480098319765858,0.586914,-0.53125,0.578125
1480098319787912,0.597168,-0.519531,0.577148
1480098319808969,0.591309,-0.545898,0.580078
1480098319825512,0.591797,-0.525391,0.578613
1480098319848074,0.594238,-0.528809,0.57373
1480098319869128,0.580566,-0.53418,0.576172
1480098319885672,0.587402,-0.504883,0.580566
1480098319908233,0.590332,-0.53125,0.580566
1480098319936809,0.583984,-0.534668,0.583496
1480098319945833,0.590332,-0.51416,0.586426
1480098319967891,0.587891,-0.539551,0.579102
1480098319988947,0.588867,-0.524902,0.579102
1480098320005491,0.587402,-0.515137,0.580078
1480098320028553,0.579102,-0.541016,0.588379
1480098320051616,0.584961,-0.519531,0.587402
1480098320065651,0.584473,-0.530273,0.588867
1480098320088211,0.583984,-0.537109,0.586426
1480098320109268,0.589355,-0.51416,0.583496
1480098320125815,0.583496,-0.53418,0.588379
1480098320148371,0.584473,-0.524902,0.581055
1480098320169427,0.590332,-0.520996,0.580566
1480098320185470,0.583496,-0.550781,0.589844
1480098320208030,0.588379,-0.528809,0.583496
1480098320229085,0.586914,-0.522949,0.579102
1480098320245630,0.583008,-0.536621,0.585449
1480098320268190,0.588379,-0.51123,0.583496
1480098320289245,0.588867,-0.534668,0.581543
1480098320305790,0.583984,-0.53418,0.578613
1480098320335870,0.588379,-0.515625,0.581055
1480098320349405,0.576172,-0.535645,0.584473
1480098320365448,0.583496,-0.52832,0.585938
1480098320388009,0.590332,-0.530762,0.588867
1480098320410569,0.582031,-0.552734,0.594238
1480098320425608,0.590332,-0.516602,0.592773
1480098320448168,0.586914,-0.522461,0.59375
1480098320470729,0.582031,-0.532715,0.592773
1480098320485769,0.588867,-0.515625,0.587891
1480098320508329,0.57666,-0.538086,0.580078
1480098320530387,0.573242,-0.535156,0.586426
1480098320544928,0.588867,-0.527832,0.578613
1480098320567989,0.580078,-0.537109,0.581055
1480098320590549,0.583984,-0.51123,0.584473
1480098320605086,0.58252,-0.522949,0.583008
1480098320628147,0.580078,-0.54248,0.588379
1480098320650707,0.588379,-0.522461,0.590332
1480098320664744,0.582031,-0.542969,0.591309
1480098320688308,0.578125,-0.530762,0.59375
1480098320710872,0.585449,-0.514648,0.587402
1480098320731923,0.577637,-0.537109,0.589355
1480098320748468,0.583984,-0.520508,0.583496
1480098320770526,0.585938,-0.530273,0.58252
1480098320785065,0.578125,-0.545898,0.592285
1480098320808125,0.585449,-0.519043,0.583008
1480098320830686,0.582031,-0.536133,0.586914
1480098320844724,0.581055,-0.534668,0.58252
1480098320868288,0.58252,-0.51709,0.585938
1480098320890846,0.581543,-0.540527,0.588867
1480098320911901,0.580078,-0.527832,0.583984
1480098320927944,0.585938,-0.526367,0.583496
1480098320950504,0.571777,-0.540527,0.584961
1480098320971565,0.578125,-0.525879,0.583008
1480098320988106,0.581055,-0.534668,0.585449
1480098321010665,0.580566,-0.542969,0.587891
1480098321031721,0.584473,-0.518066,0.59082
1480098321048264,0.579102,-0.530762,0.59082
1480098321070866,0.579102,-0.526367,0.588867
1480098321091881,0.588867,-0.527832,0.591797
1480098321107925,0.576172,-0.545898,0.586914
1480098321136499,0.585938,-0.519531,0.592285
1480098321151539,0.583984,-0.53125,0.582031
1480098321168083,0.574707,-0.540527,0.586426
1480098321190643,0.58252,-0.518066,0.588867
1480098321211699,0.578125,-0.537598,0.586426
1480098321228244,0.581543,-0.537109,0.588379
1480098321250807,0.584961,-0.522949,0.583984
1480098321271859,0.574219,-0.541992,0.585938
1480098321287902,0.581055,-0.524902,0.58252
1480098321310462,0.580566,-0.529785,0.584473
1480098321333024,0.578613,-0.543457,0.589355
1480098321348062,0.58252,-0.518066,0.589844
