timestamp,x,y,z
1480098267550833,-0.0625,0.25,0.0625
1480098267565372,-0.25,0.25,0.125
1480098267588435,-0.3125,0.25,-0.0625
1480098267610997,-0.3125,0.3125,0.0625
1480098267625532,-0.0625,0.25,-0.0625
1480098267648594,0.125,0,-0.0625
1480098267671654,-0.125,0,0
1480098267693713,0.125,0.1875,-0.0625
1480098267708753,0.0625,0.0625,0
1480098267731312,0,0.0625,-0.125
1480098267752369,-0.125,0.0625,0
1480098267768412,-0.3125,0.1875,0.125
1480098267796988,-0.125,0.375,0.0625
1480098267812027,0,0.375,0.125
1480098267828573,-0.125,0.4375,0.125
1480098267858651,-0.125,0.5,0.375
1480098267872188,0.125,0.1875,0.1875
1480098267888732,0.3125,0.375,-0.1875
1480098267911292,0.625,0.375,-0.125
1480098267932347,0.25,0.3125,0.125
1480098267948392,-0.125,0.125,0.1875
1480098267970951,-0.4375,0.125,0
1480098267992006,-0.375,0.25,0.1875
1480098268008552,0.125,0.25,0.1875
1480098268031149,0.0625,0.3125,0.0625
1480098268052706,0.1875,0.4375,-0.0625
1480098268068711,0,0.4375,0.25
1480098268091271,-0.5625,0.125,0.3125
1480098268112326,-0.5,0.125,0.125
1480098268135889,0,0.3125,-0.0625
1480098268150930,0.4375,0.3125,0.0625
1480098268171985,0.4375,0.125,0.25
1480098268188530,0.125,0.125,0.0625
1480098268211091,-0.4375,0.4375,0.0625
1480098268233650,-0.5,0.1875,0.125
1480098268248690,-0.4375,0.4375,0.0625
1480098268272252,-0.125,0.3125,-0.0625
1480098268294313,-0.0625,0.1875,-0.0625
1480098268307847,-0.0625,0,0
1480098268330908,0,0,0
1480098268353971,0.125,0,-0.0625
1480098268368018,0.0625,-0.125,-0.125
1480098268391068,0.125,-0.125,0
1480098268413628,-0.0625,-0.125,0
1480098268427665,0,0.125,-0.0625
1480098268452732,0,0.25,-0.0625
1480098268473788,0.0625,0.1875,0.0625
1480098268487825,-0.375,0.3125,0
1480098268510892,-0.1875,0.625,0.25
1480098268533447,-0.125,0.25,0
1480098268547987,0.5,0.0625,-0.3125
1480098268571047,0.625,0.3125,-0.25
1480098268593611,0.4375,0.1875,-0.125
1480098268614662,0,0.125,-0.125
1480098268631208,-0.5,-0.125,-0.1875
1480098268653767,-0.3125,0.0625,0.0625
1480098268674822,0.25,0.1875,0.125
1480098268690865,0.1875,0.1875,0
1480098268713425,-0.0625,0.125,-0.125
1480098268734481,0.0625,0.1875,0.125
1480098268757041,-0.125,0.0625,0.25
1480098268773585,-0.125,0,0
1480098268794641,0.1875,0.0625,0
1480098268811188,0.375,0.125,-0.0625
1480098268833745,0.375,0.125,0.0625
1480098268854801,0.3125,0.125,0
1480098268870844,-0.1875,0.125,-0.1875
1480098268900923,-0.375,0.25,-0.0625
1480098268915964,-0.5,0.1875,-0.0625
1480098268931004,-0.25,0.25,-0.125
1480098268953564,0,0.125,0.0625
1480098268974625,-0.125,0.125,0.0625
1480098268991664,-0.125,0.0625,0.0625
1480098269013723,0.0625,0.1875,0.0625
1480098269034780,-0.125,0.0625,0.0625
1480098269051324,-0.125,0.0625,0.0625
1480098269073383,-0.125,0.125,0.0625
1480098269095943,0.0625,0.0625,0.0625
1480098269110482,0.0625,0.0625,-0.125
1480098269133542,0.0625,0.125,-0.1875
1480098269156103,-0.1875,-0.0625,-0.125
1480098269171143,-0.25,-0.25,0.125
1480098269193704,-0.4375,0.0625,0.1875
1480098269216262,-0.0625,0.5,0.3125
1480098269231303,0.25,0.375,0.25
1480098269253361,0.25,0.4375,-0.0625
1480098269276422,0.0625,0.4375,-0.125
1480098269290461,-0.25,0.1875,0
1480098269313523,-0.4375,0,0
1480098269336081,-0.125,-0.4375,0
1480098269357137,0.5,-0.375,-0.0625
1480098269374183,0.6875,-0.1875,0.0625
1480098269396241,0.1875,-0.125,0
1480098269410782,-0.375,-0.125,-0.0625
1480098269433341,0.25,0.25,0
1480098269455899,-0.5625,0.125,0.3125
1480098269470439,-0.5,0,0
1480098269493502,-0.0625,0.125,-0.125
1480098269523580,0.1875,0.0625,0.125
1480098269530599,0.25,0,0.1875
1480098269553661,0.125,-0.0625,0.0625
1480098269576220,-0.125,-0.0625,-0.125
1480098269590257,-0.25,0.0625,0.0625
1480098269613318,-0.25,-0.125,-0.0625
1480098269636379,-0.5625,-0.1875,-0.125
1480098269656935,-0.3125,-0.3125,-0.125
1480098269673483,-0.0625,-0.375,0
1480098269696540,0.125,-0.375,-0.125
1480098269717094,0.25,-0.4375,-0.1875
1480098269733639,-0.1875,-0.25,0
1480098269756199,-0.25,-0.1875,0.0625
1480098269777254,-0.3125,-0.125,0
1480098269801318,-0.0625,-0.0625,-0.125
1480098269815857,0.0625,-0.125,-0.0625
1480098269836913,0.3125,-0.1875,0
1480098269859473,-0.0625,-0.25,-0.0625
1480098269876037,0,-0.25,-0.25
1480098269897092,0.5625,-0.25,-0.125
1480098269913636,0.25,-0.25,0.1875
1480098269942212,-0.125,0.375,0.1875
1480098269957252,0.1875,0.6875,0.4375
1480098269973295,0.3125,0.625,-0.0625
1480098269996858,0.625,0.625,-0.5
1480098270016912,0.25,0.4375,0
1480098270033455,-0.375,-0.0625,0.25
1480098270056017,-0.5625,-0.0625,0.0625
1480098270079078,-0.25,0,0.25
1480098270093615,0.5625,0.1875,0.5625
1480098270116175,0.625,0.1875,0.4375
1480098270138735,-0.0625,0.3125,0.25
1480098270154280,-0.4375,0.4375,0.125
1480098270175834,-0.5,0.375,0.25
1480098270198394,-0.75,0.1875,0.125
1480098270213434,-0.6875,0.125,0
1480098270235994,-0.125,0.0625,0.125
1480098270258553,0.4375,-0.1875,0.0625
1480098270272652,1.0625,-0.3125,0.125
1480098270296216,0.6875,-0.375,-0.125
1480098270326298,0.25,0.0625,-0.1875
1480098270332814,-0.25,0.375,-0.1875
1480098270355875,-0.5,0.1875,0.5
1480098270378436,-1.3125,-0.0625,-0.3125
1480098270392973,-0.3125,0.25,-0.5
1480098270416035,0.25,0.5625,-0.0625
1480098270445613,0.1875,0.4375,0.3125
1480098270454637,-0.4375,0,0.0625
1480098270476698,-0.625,0.0625,-0.0625
1480098270498759,-0.4375,0.375,0.125
1480098270512792,-0.1875,0.5,0.125
1480098270541870,-0.1875,0.625,0.0625
1480098270558412,0.0625,0.4375,-0.0625
1480098270579470,-0.125,0.1875,0.25
1480098270596012,-0.9375,0.25,0.1875
1480098270619084,-0.3125,0.5625,0.0625
1480098270639664,0.125,0.4375,0.4375
1480098270656172,0.125,0.4375,0
1480098270678734,0.4375,0.6875,-0.375
1480098270699818,-0.0625,0.5,-0.125
1480098270715832,-0.4375,0.5,0.1875
1480098270738391,-0.6875,0.375,0.125
1480098270759447,-0.875,0.375,0.0625
1480098270766466,-0.5625,0.4375,0.25
1480098270790530,-0.125,0.625,0.25
1480098270804066,-0.25,0.5,-0.125
1480098270826628,0.125,0.625,0.125
1480098270841665,-0.4375,0.375,0.25
1480098270871245,-0.5,0.0625,0.125
1480098270886284,-0.0625,0.0625,-0.0625
1480098270901325,0.1875,0.125,-0.0625
1480098270940429,0.3125,0.125,0.0625
1480098270946445,0.375,0.125,0.0625
1480098270961485,0.125,0,0.0625
1480098270984045,-0.125,0.125,-0.0625
1480098271006606,-0.3125,0.125,-0.125
1480098271021647,-0.4375,-0.0625,-0.1875
1480098271043705,-0.4375,-0.125,-0.0625
1480098271066264,-0.0625,-0.3125,-0.0625
1480098271081340,0,-0.3125,-0.125
1480098271103947,0.3125,-0.375,-0.0625
1480098271126424,0.1875,-0.3125,-0.0625
1480098271144474,0.125,-0.125,0.1875
1480098271164079,-0.1875,-0.0625,0
1480098271186583,-0.0625,-0.125,0.0625
1480098271201623,-0.125,0.125,0.0625
1480098271224184,-0.125,0.125,0.0625
1480098271246743,-0.125,0.125,0.25
1480098271261283,-0.3125,0.25,0.0625
1480098271283842,0,0.4375,0.25
1480098271307906,0.125,0.125,0.25
1480098271321443,0.125,0,0
1480098271344002,0.5625,0.125,-0.1875
1480098271369606,0.3125,0,-0.0625
1480098271383106,0.0625,-0.125,0
1480098271404161,-0.25,-0.1875,-0.0625
1480098271426724,-0.375,-0.125,0.0625
1480098271442765,-0.0625,0,0.125
1480098271463821,-0.0625,0,0.125
1480098271486417,-0.125,0.0625,-0.0625
1480098271502926,-0.1875,0.0625,0.0625
1480098271523981,-0.4375,0,0.1875
1480098271546540,-0.375,-0.1875,-0.0625
1480098271563084,-0.1875,0,-0.1875
1480098271584194,0.1875,-0.0625,-0.0625
1480098271606700,0.4375,0,0.0625
1480098271622743,0.0625,-0.0625,0
1480098271651320,-0.125,0,0
1480098271666360,-0.375,0,-0.125
1480098271684409,-0.625,0.125,-0.0625
1480098271711479,-0.5,0.0625,-0.1875
1480098271726526,-0.125,-0.0625,0
1480098271743071,0.1875,-0.25,-0.0625
1480098271765624,0.0625,-0.1875,0.0625
1480098271786679,-0.0625,-0.1875,-0.1875
1480098271804226,0.1875,-0.125,-0.125
1480098271825282,0.125,-0.125,0.0625
1480098271846339,0,-0.0625,0
1480098271864888,-0.0625,0,0
1480098271883976,-0.25,0.0625,0
1480098271906535,-0.0625,0.0625,0.0625
1480098271932066,-0.125,0.0625,0.125
1480098271947106,-0.375,0.1875,0.0625
1480098271966657,0.25,0.3125,0.3125
1480098271984705,0.1875,0,0
1480098272003756,0.5,0.0625,-0.25
1480098272026820,0.375,0,-0.1875
1480098272051885,0.25,-0.125,0.0625
1480098272063918,-0.1875,-0.25,-0.0625
1480098272086478,-0.5,-0.25,-0.0625
1480098272109037,-0.125,-0.125,0.125
1480098272124078,0.1875,0.125,0.125
1480098272146636,-0.125,-0.0625,-0.0625
1480098272177747,0,0.1875,0.0625
1480098272184237,-0.1875,0.0625,0.25
1480098272206319,-0.5625,-0.125,0.1875
1480098272228856,-0.1875,-0.125,0.0625
1480098272243935,0,0.1875,-0.125
1480098272269477,0.1875,0.0625,0
1480098272297543,0.125,-0.0625,0.125
1480098272304061,0.0625,0.0625,0.0625
1480098272329122,-0.0625,0.125,0
1480098272351180,-0.3125,0.1875,-0.0625
1480098272364228,-0.375,0.1875,-0.0625
1480098272387778,-0.4375,0.125,-0.0625
1480098272408835,-0.125,-0.0625,0
1480098272423911,-0.0625,-0.0625,0.0625
1480098272446470,0.125,-0.125,-0.125
1480098272468994,0.25,-0.0625,-0.125
1480098272487059,0,-0.25,-0.0625
1480098272506593,-0.125,-0.125,0
1480098272529153,-0.125,0,0.0625
1480098272544194,-0.1875,0,0
1480098272566254,0.3125,0.0625,0.0625
1480098272588812,-0.1875,0.1875,0.1875
1480098272606861,-0.1875,0.3125,0.0625
1480098272633932,0,0.125,0.375
1480098272648973,-0.1875,0.0625,0.0625
1480098272665517,0.4375,0.25,-0.3125
1480098272694092,0.5625,0.1875,-0.0625
1480098272709133,0.375,0.0625,0.0625
1480098272725676,-0.3125,-0.125,0
1480098272746231,-0.5,-0.125,0.0625
1480098272768791,-0.3125,0.125,0.25
1480098272785336,0.0625,0.125,0.0625
1480098272806392,0.0625,0.1875,-0.125
1480098272828951,0.0625,0.125,0.0625
1480098272845527,-0.4375,0,0.3125
1480098272866551,-0.625,-0.125,-0.0625
1480098272889115,-0.0625,0.125,-0.125
1480098272905658,0.125,0.125,0
1480098272926711,0.125,0.0625,0.125
1480098272948770,0.0625,0.125,0.1875
1480098272967821,0.0625,0.125,0.0625
1480098273002954,0,0.1875,0.125
1480098273008931,-0.4375,0.25,0.0625
1480098273031491,-0.6875,0.1875,0.0625
1480098273046530,-0.1875,0.125,0.0625
1480098273069112,-0.125,0.0625,0.0625
1480098273087139,0.125,-0.125,0.0625
1480098273114210,0.125,-0.0625,-0.125
1480098273128786,-0.0625,-0.1875,-0.0625
1480098273146796,-0.25,-0.125,-0.0625
1480098273166348,-0.0625,-0.1875,0
1480098273190413,-0.1875,0,0
1480098273220500,0.125,0,0
1480098273226509,-0.0625,-0.0625,0.125
1480098273249084,-0.0625,0.0625,0
1480098273267116,0.0625,-0.0625,0.125
1480098273286669,0.3125,-0.125,-0.0625
1480098273311736,0.3125,0,-0.3125
1480098273326776,0.4375,0,-0.125
1480098273346328,0.3125,-0.125,0.0625
1480098273368888,-0.1875,-0.1875,-0.125
1480098273386936,-0.375,-0.125,-0.0625
1480098273409496,-0.125,-0.0625,0.0625
1480098273436568,0.0625,0.0625,-0.0625
1480098273447097,-0.25,-0.125,-0.25
1480098273468152,0.3125,-0.0625,-0.125
1480098273488707,0,-0.1875,0.1875
1480098273506755,-0.375,-0.375,0
1480098273527811,0.125,-0.375,-0.1875
1480098273548865,0.25,-0.25,-0.25
1480098273579484,0.75,-0.1875,0.0625
1480098273593987,0.4375,-0.125,-0.125
1480098273616547,-0.1875,-0.0625,-0.1875
1480098273631587,-0.375,-0.0625,0
1480098273648129,-0.4375,0.0625,-0.0625
1480098273669186,-0.3125,0.0625,-0.1875
1480098273691244,-0.125,0,-0.1875
1480098273715308,0.0625,-0.0625,0
1480098273736364,0.125,-0.375,-0.125
1480098273751404,0.125,-0.1875,-0.125
1480098273767949,0,-0.1875,-0.125
1480098273789008,-0.0625,-0.3125,-0.1875
1480098273811607,0.0625,-0.1875,-0.0625
1480098273829617,-0.0625,-0.0625,0
1480098273849168,0.0625,-0.125,0
1480098273871729,0,-0.1875,0.0625
1480098273889279,-0.3125,0.0625,-0.0625
1480098273908827,0.125,0.125,0.0625
1480098273931387,0,-0.125,0.0625
1480098273949436,0.4375,-0.1875,-0.375
1480098273969025,0.6875,0,-0.25
1480098273991548,0.3125,0.0625,0.0625
1480098274009598,0,-0.125,0
1480098274028646,-0.75,-0.25,0
1480098274051206,-0.25,-0.25,0.125
1480098274069254,0.1875,0,0.125
1480098274090311,0.0625,0,0
1480098274111367,0.125,0,-0.0625
1480098274129414,0,-0.0625,0.0625
1480098274148966,-0.3125,-0.25,0.1875
1480098274171527,-0.1875,-0.3125,-0.125
1480098274189073,0.25,-0.125,-0.125
1480098274209129,0.5625,-0.1875,-0.125
1480098274231186,0.375,-0.25,-0.0625
1480098274249233,0.1875,-0.125,-0.125
1480098274268785,-0.1875,-0.0625,0
1480098274291346,-0.3125,0,-0.125
1480098274309397,-0.375,-0.125,-0.1875
1480098274328945,-0.0625,-0.125,-0.125
1480098274359026,0.0625,-0.125,0
1480098274369553,0.25,-0.1875,-0.1875
1480098274391612,0.125,-0.3125,-0.125
1480098274411665,0,-0.125,-0.1875
1480098274429212,0.0625,-0.3125,-0.125
1480098274448764,0.0625,-0.3125,0
1480098274471324,0.0625,-0.1875,-0.125
1480098274489873,0,-0.0625,-0.1875
1480098274519452,0.0625,-0.0625,-0.1875
1480098274531484,0,-0.1875,-0.125
1480098274550034,-0.0625,-0.1875,0.0625
1480098274570588,-0.25,-0.0625,0.125
1480098274591643,0.4375,0.125,0.1875
1480098274609193,0.4375,-0.1875,0
1480098274630247,0.4375,-0.0625,-0.25
1480098274651310,0.25,0,-0.1875
1480098274670354,0,0.0625,-0.0625
1480098274690407,-0.125,-0.25,0.125
1480098274711463,-0.0625,-0.375,-0.0625
1480098274729511,0.0625,-0.0625,0
1480098274750567,0.25,0,0.0625
1480098274771623,0.0625,-0.125,0
1480098274790174,-0.25,0,-0.125
1480098274825266,0,-0.0625,0.125
1480098274831282,-0.3125,-0.125,0.1875
1480098274849329,-0.1875,-0.25,-0.125
1480098274871889,0.1875,0,-0.1875
1480098274891441,0.1875,-0.0625,-0.0625
1480098274909992,0.1875,-0.0625,0
1480098274932049,0.0625,-0.0625,0.0625
1480098274951623,-0.125,-0.0625,0
1480098274970150,-0.375,0,-0.125
1480098274991708,-0.4375,0,-0.0625
1480098275011260,-0.3125,-0.0625,-0.1875
1480098275033819,0.0625,-0.125,-0.1875
1480098275051868,0.0625,-0.25,-0.0625
1480098275071420,0,-0.3125,-0.1875
1480098275101499,0.0625,-0.25,-0.125
1480098275112028,-0.0625,-0.1875,-0.125
1480098275133083,0.125,-0.25,-0.0625
1480098275154140,0.1875,-0.25,-0.125
1480098275171687,0.125,-0.1875,-0.1875
1480098275191238,-0.0625,-0.125,-0.125
1480098275213798,0.0625,-0.0625,-0.125
1480098275231846,0,-0.1875,0.0625
1480098275251398,-0.3125,0.1875,0.0625
1480098275273959,0.25,0.125,0.1875
1480098275292006,0.25,-0.1875,0.0625
1480098275315082,0.25,-0.0625,-0.375
1480098275334119,0.5,0.0625,-0.375
1480098275351666,0.375,-0.0625,-0.0625
1480098275381745,0.0625,-0.375,0.0625
1480098275393777,-0.375,-0.375,-0.1875
1480098275411825,-0.1875,-0.125,0
1480098275432881,0.25,-0.0625,0.125
1480098275453968,0.125,0,0.0625
1480098275471986,-0.125,0.125,-0.125
1480098275494546,-0.25,-0.0625,0.125
1480098275514097,-0.5,-0.0625,0.25
1480098275539163,-0.25,-0.125,0
1480098275552700,0.125,-0.125,-0.0625
1480098275573788,0.375,-0.0625,-0.0625
1480098275591804,0.3125,-0.0625,0.125
1480098275612860,0.0625,-0.0625,0.0625
1480098275633941,-0.375,0,-0.0625
1480098275656475,-0.3125,0.125,0
1480098275673019,-0.5625,0.0625,0
1480098275694076,-0.25,0.0625,-0.1875
1480098275716635,-0.125,-0.125,-0.0625
1480098275740699,0,-0.0625,-0.125
1480098275753734,-0.1875,-0.125,0
1480098275771782,0.0625,-0.25,-0.125
1480098275794342,0,-0.125,-0.0625
1480098275813894,0,-0.25,-0.0625
1480098275831942,-0.0625,-0.125,-0.1875
1480098275854503,0.0625,-0.0625,-0.0625
1480098275874054,-0.125,-0.125,0
1480098275891602,0.25,-0.125,-0.0625
1480098275914662,-0.375,0,-0.125
1480098275933713,-0.125,0.1875,0
1480098275951761,0.125,-0.0625,0.1875
1480098275974321,0.25,0,-0.25
1480098275993873,0.75,0,-0.25
1480098276011921,0.625,0.0625,-0.1875
1480098276034481,-0.1875,0,0
1480098276054033,-0.5625,-0.1875,-0.0625
1480098276078097,-0.5625,-0.25,0
1480098276094139,0,-0.0625,0.0625
1480098276113692,0.3125,-0.0625,-0.0625
1480098276131740,0.125,0,-0.125
1480098276154300,-0.0625,-0.0625,-0.0625
1480098276173852,-0.4375,-0.1875,0.3125
1480098276191899,-0.1875,-0.3125,0
1480098276214461,0.25,-0.1875,-0.125
1480098276235516,0.3125,-0.0625,-0.1875
1480098276252060,0.375,-0.1875,0.0625
1480098276274620,0.3125,-0.1875,-0.125
1480098276294171,-0.1875,-0.0625,-0.125
1480098276311720,-0.25,0,-0.125
1480098276334279,-0.4375,0,-0.0625
1480098276353869,-0.3125,-0.0625,-0.1875
1480098276371879,0.125,-0.1875,-0.125
1480098276400455,0.1875,-0.3125,-0.0625
1480098276415495,0.4375,-0.5,-0.0625
1480098276432038,0.3125,-0.4375,-0.25
1480098276455101,0.125,-0.5,-0.1875
1480098276475153,0.125,-0.625,-0.125
1480098276491697,0.4375,-0.625,-0.1875
1480098276521779,0.5625,-0.625,-0.3125
1480098276535313,0.25,-0.5,-0.3125
1480098276556408,0.1875,-0.5,-0.3125
1480098276574419,0.25,-0.4375,-0.125
1480098276595474,0,-0.375,-0.0625
1480098276616529,0.25,-0.1875,0
1480098276634576,0.5,-0.375,0.0625
1480098276655132,0.625,-0.5,-0.375
1480098276676190,0.875,-0.375,-0.5625
1480098276695238,0.75,-0.5,-0.25
1480098276716795,0.5625,-0.6875,-0.0625
1480098276739356,0.1875,-0.875,-0.1875
1480098276754395,0,-1.0625,-0.1875
1480098276776956,0.75,-0.8125,-0.125
1480098276799516,1.125,-0.8125,-0.1875
1480098276814555,0.875,-0.8125,-0.3125
1480098276836614,1.1875,-0.8125,-0.25
1480098276857670,0.5625,-0.875,0.0625
1480098276874214,0.125,-1.125,-0.1875
1480098276896774,0.625,-0.875,-0.1875
1480098276916326,0.75,-0.875,-0.25
1480098276934375,1.0625,-0.875,-0.0625
1480098276956935,1,-0.8125,0.0625
1480098276976488,0.375,-0.6875,-0.125
1480098276995037,0.5,-0.5625,-0.1875
1480098277017094,0.25,-0.5,-0.1875
1480098277036646,0,-0.5,-0.3125
1480098277054193,0.125,-0.625,-0.25
1480098277076253,-0.0625,-0.5,-0.1875
1480098277096305,0.0625,-0.5,-0.25
1480098277114353,0.5,-0.5,-0.25
1480098277136914,0.5,-0.375,-0.3125
1480098277156466,0.0625,-0.375,-0.1875
1480098277174513,-0.25,-0.25,-0.1875
1480098277197073,-0.375,-0.25,-0.1875
1480098277216624,0.125,0.125,-0.125
1480098277234171,0.125,-0.0625,0
1480098277256731,-0.3125,0.125,-0.1875
1480098277276286,0,0.375,0.125
1480098277294332,-0.25,0.25,0.0625
1480098277317432,-0.0625,0.4375,-0.375
1480098277336946,0.25,0.6875,-0.1875
1480098277354492,-0.3125,0.5625,0.125
1480098277377053,-0.75,0.6875,0.125
1480098277398107,-1.25,0.625,0
1480098277414167,-1,0.8125,0.125
1480098277436710,-0.3125,0.8125,0
1480098277457766,-0.0625,0.6875,-0.0625
1480098277474312,-0.25,0.5,-0.1875
1480098277501383,-0.3125,0.1875,0.125
1480098277516923,-0.625,-0.0625,-0.0625
1480098277534470,-0.125,0.0625,-0.125
1480098277557030,0.3125,0.375,-0.1875
1480098277577085,0.25,0.25,-0.125
1480098277593127,0,0.3125,0
1480098277616187,-0.4375,0.375,-0.125
1480098277637244,-0.5,0.3125,0
1480098277652785,-0.625,0.4375,0.0625
1480098277682363,-0.5,0.3125,-0.0625
1480098277698453,-0.375,0.25,-0.0625
1480098277719508,-0.125,0,-0.0625
1480098277736053,-0.125,-0.125,-0.0625
1480098277758613,0,-0.1875,-0.1875
1480098277779669,0.25,-0.1875,-0.125
1480098277796214,0.125,-0.0625,-0.125
1480098277818271,0.0625,-0.125,-0.125
1480098277839327,-0.4375,0.125,0.0625
1480098277855872,-0.4375,0.125,-0.1875
1480098277878432,0.0625,0.125,-0.25
1480098277899487,-0.3125,0.0625,0.0625
1480098277916031,0.0625,0.3125,0.0625
1480098277939092,0.1875,0.0625,0.3125
1480098277959648,0.0625,-0.125,0
1480098277976192,0.3125,0.0625,-0.125
1480098277998251,0.375,0.25,-0.0625
1480098278019307,0.1875,0.1875,0.125
1480098278035851,-0.375,0.1875,0.25
1480098278058410,-0.875,0,0.0625
1480098278080468,-0.4375,0.125,0.1875
1480098278096012,-0.125,0.25,0.1875
1480098278119072,-0.1875,0.1875,0.0625
1480098278139665,-0.1875,0.4375,-0.125
1480098278156169,-0.375,0.1875,0.1875
1480098278184745,-0.6875,0.125,0.1875
1480098278199787,-0.25,0.0625,0.0625
1480098278215829,0,0.125,-0.0625
1480098278238388,0.1875,0.0625,0.0625
1480098278259447,0.375,0,0
1480098278275991,-0.125,0,-0.0625
1480098278298550,-0.4375,0,0
1480098278320135,-0.5625,-0.0625,0
1480098278336149,-0.25,0.0625,-0.125
1480098278358709,0.0625,-0.0625,-0.125
1480098278379782,0,-0.125,-0.125
1480098278395807,-0.1875,-0.125,-0.1875
1480098278418368,0,-0.1875,-0.0625
1480098278439423,0.0625,-0.1875,-0.25
1480098278455967,0.3125,-0.125,-0.25
1480098278478527,-0.125,-0.1875,-0.1875
1480098278499584,-0.375,0,-0.25
1480098278516128,-0.25,0.1875,-0.0625
1480098278538686,0.1875,-0.125,-0.125
1480098278559744,-0.125,0,-0.1875
1480098278576290,0.375,0.25,-0.125
1480098278598345,0.3125,0.0625,0
1480098278628427,0.4375,-0.1875,-0.125
1480098278635947,0.75,0.0625,-0.3125
1480098278658506,0.4375,0.0625,-0.125
1480098278681067,-0.25,0.125,0.125
1480098278703626,-1,0.25,-0.0625
1480098278718667,-0.8125,0.0625,0
1480098278740725,-0.125,0,0.125
1480098278755264,0.0625,-0.125,0.25
1480098278778326,-0.0625,-0.3125,-0.25
1480098278800887,0.0625,-0.25,-0.125
1480098278815425,0,-0.4375,0.25
1480098278838484,0.125,-0.3125,0
1480098278861046,0.25,-0.1875,-0.0625
1480098278875583,0.0625,0,0
1480098278898677,0,0,0.25
1480098278921216,0.125,0.125,0
1480098278935241,-0.3125,0.125,-0.0625
1480098278958804,-0.5625,0.3125,0
1480098278982392,-0.625,0.3125,-0.0625
1480098278995403,-0.625,0.125,-0.125
1480098279018479,-0.4375,0.0625,0
1480098279041025,-0.125,0,0
1480098279055561,0.375,-0.25,0
1480098279078623,0.3125,-0.25,0
1480098279101184,0.3125,-0.25,-0.125
1480098279123744,0.3125,-0.4375,-0.125
1480098279145803,-0.125,-0.5625,-0.125
1480098279160843,-0.125,-0.5625,-0.25
1480098279181898,0.1875,-0.375,-0.25
1480098279205961,0.4375,-0.3125,-0.4375
1480098279221010,0.25,-0.25,-0.25
1480098279242087,-0.0625,-0.3125,0
1480098279258602,-0.25,-0.125,-0.0625
1480098279281163,0.1875,0.125,0.125
1480098279302220,0.3125,-0.25,0.0625
1480098279318261,0.5,-0.1875,-0.25
1480098279340821,0.625,-0.0625,-0.1875
1480098279361885,0.125,-0.3125,-0.0625
1480098279378422,0,-0.5,-0.0625
1480098279400981,-0.0625,-0.5,0
1480098279422038,0.1875,-0.6875,-0.0625
1480098279438582,0.6875,-0.625,0
1480098279461153,0.5,-0.6875,0.0625
1480098279482197,0.25,-0.6875,-0.4375
1480098279498239,0.8125,-0.75,-0.125
1480098279520800,0.5,-1.0625,0.1875
1480098279541863,0.5625,-1.0625,-0.125
1480098279558399,0.75,-0.875,-0.1875
1480098279580960,0.8125,-0.8125,-0.0625
1480098279603519,1,-0.6875,0.125
1480098279618559,0.75,-0.6875,-0.0625
1480098279641119,0.25,-0.625,-0.0625
1480098279663678,0.1875,-0.5,-0.0625
1480098279678217,0.0625,-0.4375,-0.125
1480098279701280,0.1875,-0.6875,-0.3125
1480098279723338,0.3125,-0.625,-0.1875
1480098279737878,0.625,-0.875,-0.1875
1480098279760938,0.5,-1,-0.25
1480098279789513,0.5625,-1,-0.3125
1480098279798037,0.9375,-0.9375,-0.3125
1480098279821098,0.5625,-0.9375,-0.25
1480098279843658,0.6875,-0.8125,-0.3125
1480098279857696,0.4375,-0.5625,-0.0625
1480098279881257,0.125,-0.625,-0.1875
1480098279903819,0.1875,-0.75,-0.1875
1480098279917855,0.8125,-0.5,-0.0625
1480098279942423,0.3125,-0.6875,-0.0625
1480098279963477,0.5625,-0.375,-0.0625
1480098279978016,0.5,-0.5625,0.1875
1480098280001078,0.1875,-0.5,-0.25
1480098280023136,0.9375,-0.3125,-0.375
1480098280037673,0.8125,-0.25,-0.1875
1480098280061236,0.375,-0.3125,0.0625
1480098280083295,-0.625,-0.125,0
1480098280104351,-0.75,-0.25,-0.125
1480098280128415,0.3125,-0.125,0.0625
1480098280143456,0.6875,-0.1875,-0.0625
1480098280164511,0.4375,-0.125,-0.375
1480098280181055,0.4375,-0.0625,-0.125
1480098280203615,-0.3125,-0.25,0.3125
1480098280224673,-0.5625,-0.375,-0.0625
1480098280241215,0.125,-0.0625,-0.25
1480098280263274,0.4375,0,-0.25
1480098280284330,0.5625,-0.125,-0.0625
1480098280300874,0.3125,0.0625,-0.0625
1480098280323434,-0.25,0,-0.125
1480098280344505,-0.375,0.125,-0.0625
1480098280361035,-0.3125,0.25,-0.125
1480098280383594,-0.375,0.25,-0.1875
1480098280404650,-0.3125,0.25,-0.0625
1480098280421194,-0.5,0.1875,0
1480098280443754,-0.25,0.125,-0.0625
1480098280464811,-0.0625,0.125,-0.25
1480098280480852,0,0.125,-0.125
1480098280503430,-0.3125,0,-0.125
1480098280525973,-0.3125,0.125,-0.1875
1480098280541013,-0.5625,0.375,-0.1875
1480098280563573,-0.4375,0.3125,-0.25
1480098280586132,0,0.5,-0.125
1480098280601673,-0.8125,0.625,0
1480098280624245,-0.75,0.875,0
1480098280645795,-0.6875,0.9375,0.125
1480098280660831,-0.875,0.9375,-0.125
1480098280683391,-0.125,1.1875,-0.25
1480098280705951,-0.1875,0.9375,0.125
1480098280720490,-0.9375,0.875,0.125
1480098280743552,-1.375,0.75,0.1875
1480098280766112,-1.0625,0.6875,0.1875
1480098280780149,-0.5,1,0
1480098280803727,-0.0625,0.8125,-0.0625
1480098280826272,-0.1875,0.5625,-0.125
1480098280840309,-0.5,0.6875,0.0625
1480098280863370,-1,0.5625,0.1875
1480098280885929,-0.9375,0.25,0.125
1480098280900468,0.25,0.3125,-0.25
1480098280923530,0.6875,0.375,-0.125
1480098280946091,0.4375,0.375,0.0625
1480098280960127,-0.0625,0.25,0.0625
1480098280983689,-0.125,0.375,0
1480098281005749,-0.1875,0.4375,-0.0625
1480098281026805,-0.25,0.625,-0.25
1480098281043349,-0.25,0.625,-0.4375
1480098281065908,-0.1875,0.5,-0.125
1480098281087466,-0.25,0.125,-0.25
1480098281103508,-0.3125,-0.125,-0.3125
1480098281126071,-0.25,-0.0625,-0.375
1480098281147132,-0.125,0.25,-0.3125
1480098281163669,-0.125,0.625,-0.4375
1480098281185727,-0.4375,0.8125,-0.6875
1480098281207285,-0.9375,0.6875,-0.375
1480098281223328,-1.125,0.5625,-0.0625
1480098281245888,-1.125,0.4375,0.5
1480098281274463,-0.625,0.625,0.625
1480098281289504,0.25,0.3125,0.125
1480098281306048,0.6875,-0.25,-0.5
1480098281327104,0.875,-0.4375,-0.375
1480098281343648,0.4375,-0.6875,0
1480098281366207,-0.125,-0.9375,0.1875
1480098281387262,0.125,-1,0.1875
1480098281403306,0.6875,-0.75,0.1875
1480098281425866,1,-0.125,0.375
1480098281446922,0.5625,0.625,0.5625
1480098281463465,-0.5,0.8125,0.5
1480098281486027,-0.8125,1.1875,0.1875
1480098281508587,-0.625,1.3125,0.3125
1480098281523628,-0.8125,1.1875,0.5
1480098281546193,-0.75,1.125,0.3125
1480098281568244,-0.5,1,0
1480098281583286,-0.375,0.8125,-0.0625
1480098281605845,0.375,0.625,0
1480098281628406,0.4375,0.25,-0.0625
1480098281642950,0,0,-0.0625
1480098281666005,-0.5,-0.1875,0.0625
1480098281688565,-0.25,-0.1875,-0.25
1480098281702603,0,-0.25,-0.375
1480098281726190,0.25,-0.75,-0.5
1480098281748223,0.25,-1.0625,-0.4375
1480098281762792,0.0625,-1.25,-0.375
1480098281785824,0.5,-1.4375,-0.5
1480098281809389,0.8125,-1.4375,-0.5
1480098281822923,0.75,-1.5,-0.4375
1480098281845983,0.625,-1.75,-0.25
1480098281868544,0.6875,-1.5,-0.1875
1480098281883081,0.6875,-1.25,0
1480098281913663,1.1875,-1.0625,0.1875
1480098281928704,1.1875,-1.25,0.25
1480098281949758,0.9375,-1.3125,-0.3125
1480098281966806,1.375,-1.0625,-0.4375
1480098281988362,1.625,-1.0625,-0.25
1480098282009443,1,-1.3125,0
1480098282025964,0.4375,-1.5,-0.125
1480098282048523,0.25,-1.1875,-0.1875
1480098282069577,0.6875,-0.75,-0.0625
1480098282086123,1.3125,-0.5625,-0.4375
1480098282108686,0.5625,-0.5625,-0.6875
1480098282129737,0.4375,-0.6875,-0.4375
1480098282145782,-0.4375,-0.9375,-0.125
1480098282168342,-0.375,-1.0625,-0.5
1480098282189401,0.1875,-1.0625,-0.5
1480098282211957,0.8125,-1.125,-0.5625
1480098282228502,1.25,-1.1875,-0.4375
1480098282249054,0.9375,-1.4375,-0.1875
1480098282266102,0.4375,-1.375,-0.0625
1480098282288660,0.25,-1.1875,-0.1875
1480098282309716,0.0625,-0.9375,-0.3125
1480098282325759,0,-1,-0.375
1480098282354336,0.25,-1.1875,-0.3125
1480098282369376,-0.125,-1.1875,-0.3125
1480098282385919,-0.0625,-1.1875,-0.4375
1480098282408482,0.0625,-1,-0.375
1480098282431039,0.5625,-1,-0.625
1480098282446080,0.4375,-0.875,-0.5
1480098282468639,0.1875,-1.0625,-0.375
1480098282491199,-0.1875,-0.9375,-0.1875
1480098282512258,-0.1875,-0.75,-0.25
1480098282528299,0.75,-0.6875,-0.3125
1480098282550859,1.125,-1,-0.3125
1480098282565396,0.8125,-1.0625,-0.6875
1480098282588959,0.5625,-0.9375,-0.4375
1480098282611017,0.0625,-1.125,-0.0625
1480098282625557,0.1875,-0.9375,-0.125
1480098282648619,0.375,-1.125,-0.375
1480098282671177,1.0625,-1,-0.375
1480098282685216,1.125,-0.875,-0.25
1480098282708780,0.5,-1,-0.4375
1480098282736852,0.25,-0.9375,-0.5
1480098282745376,0.125,-0.875,-0.25
1480098282768438,-0.1875,-1.0625,-0.1875
1480098282790998,0.0625,-0.9375,-0.375
1480098282805535,0.75,-0.875,-0.5
1480098282828613,1.25,-0.8125,-0.4375
1480098282851158,1,-0.875,-0.25
1480098282865195,0.5,-0.8125,-0.25
1480098282888758,0.1875,-0.8125,-0.3125
1480098282910815,0.3125,-0.6875,-0.375
1480098282939391,0.5,-0.5625,-0.4375
1480098282948417,0.125,-0.5625,-0.3125
1480098282970975,0.125,-0.625,-0.3125
1480098282999552,-0.0625,-0.5625,-0.3125
1480098283008577,0.375,-0.375,-0.25
1480098283031136,0.3125,-0.1875,-0.3125
1480098283052190,-0.1875,-0.1875,-0.3125
1480098283068235,0.125,0.0625,-0.25
1480098283090796,0,0.25,0
1480098283111849,-0.125,0.5625,-0.0625
1480098283128394,-0.0625,0.6875,0.25
1480098283150956,-0.25,0.5,-0.125
1480098283172009,0,0.75,-0.375
1480098283188555,0.1875,0.5625,0.125
1480098283211113,-0.3125,0.375,0.375
1480098283233675,-1.0625,0.5,0.3125
1480098283248717,-1.0625,0.3125,0.125
1480098283271273,0.0625,0.375,-0.0625
1480098283292330,0.6875,0.5,-0.1875
1480098283308374,0.3125,0.375,-0.1875
1480098283330934,-0.1875,0.4375,-0.25
1480098283351990,-1,0.4375,0
1480098283368533,-1.375,0.375,-0.125
1480098283391094,-0.4375,0.5625,-0.3125
1480098283421172,-0.3125,1.125,-0.1875
1480098283428692,-0.6875,1.3125,0.0625
1480098283450751,-1.1875,1.25,0.5625
1480098283473311,-2,1.1875,0.4375
1480098283494367,-1.625,1.3125,0.25
1480098283510912,-0.75,1.0625,-0.25
1480098283533973,-0.4375,1,-0.625
1480098283548011,-0.125,0.875,-0.3125
1480098283571071,-0.4375,0.4375,0.125
1480098283593632,-0.0625,0.5625,2.0625
1480098283608172,0,0.625,3.3125
1480098283631234,0.5625,1.1875,4.6875
1480098283653289,1.4375,1.875,5.3125
1480098283667828,5.5625,-2,7.5625
1480098283691394,-0.375,1.625,-3.5625
1480098283713450,-10.1875,8.25,1.875
1480098283736043,-0.5,2.0625,0.5
1480098283751051,-3.375,-3,2.3125
1480098283773611,-3.375,-4.8125,4.375
1480098283802186,-0.5,-3.4375,0.1875
1480098283811210,-3.375,-2.375,1.375
1480098283833270,-2.5,-2,2.3125
1480098283854325,0.9375,-3.125,0.375
1480098283870870,-0.5625,-3.625,-0.8125
1480098283893430,-0.9375,-4.5,-1.25
1480098283914522,-1.375,-3.625,-2.1875
1480098283931029,-1.75,-1.875,-2.8125
1480098283953588,0.6875,-1.1875,-2.5
1480098283974648,3.4375,-1.4375,-2.375
1480098283990689,2.375,0.0625,-2.375
1480098284013249,0.25,-0.0625,-2.6875
1480098284034341,-5.125,1.5,-1.6875
1480098284050849,-0.3125,-0.75,0.375
1480098284073409,1.625,-0.625,-2.125
1480098284094464,-1.125,1.1875,-2.0625
1480098284111008,-1.125,1.25,-1.5625
1480098284133567,-1.625,1.375,-2.3125
1480098284154623,-2.25,-0.8125,-3.5625
1480098284171167,0.0625,-1.125,-3.125
1480098284193225,-1.125,1.625,-1.875
1480098284214283,-2.375,1.9375,-0.625
1480098284230826,-0.5,3.8125,-0.9375
1480098284253388,3.25,1.25,0.6875
1480098284274441,5.5,-0.125,-1.8125
1480098284290987,3.4375,1.875,0.3125
1480098284313547,-1.6875,1.125,0.6875
1480098284336106,-5.625,0.4375,-0.9375
1480098284351147,-3.125,0.125,0.3125
1480098284373205,2.4375,1.25,-0.0625
1480098284395767,0.8125,2,-0.8125
1480098284410806,-0.4375,1.75,-0.625
1480098284433366,-1.125,0.875,-0.5
1480098284455924,-1.3125,-0.0625,0.0625
1480098284470463,-0.375,-0.625,0.5
1480098284493525,-0.25,0.3125,0.375
1480098284516084,0.875,1.25,0.125
1480098284530123,0.5,1.5,-0.3125
1480098284553684,-0.1875,1.375,0.25
1480098284575744,-1.75,0.9375,0.625
1480098284590281,-2.6875,0.5625,0.4375
1480098284614847,-1,0.1875,0.3125
1480098284635906,1.3125,0,-0.0625
1480098284650443,2.5,0.125,0.1875
1480098284673507,1.5,-0.125,0.125
1480098284696064,-0.25,0,0.1875
1480098284710101,-1.4375,0.125,0.375
1480098284733663,-1.375,0.1875,0.375
1480098284756223,-0.5625,0.625,-0.375
1480098284776778,-0.125,0.75,-0.75
1480098284793322,0.625,0.625,-0.5
1480098284815883,0,-0.3125,-0.4375
1480098284836938,-1.125,-0.375,-0.625
1480098284853483,-0.6875,-0.0625,0
1480098284883562,-0.1875,-0.3125,0.5625
1480098284897099,0.5,-0.25,0.1875
1480098284913643,1.25,0.3125,0
1480098284935700,1.0625,0.8125,0.125
1480098284957258,0.0625,0.75,0.3125
1480098284973301,-1.25,0.625,0.125
1480098284995862,-1.6875,0.4375,-0.1875
1480098285016917,-1.625,0.4375,0
1480098285033460,-1.25,0.625,0.125
1480098285056021,-0.5,0.375,0.375
1480098285077077,0.5,0.25,0.125
1480098285093621,1.1875,0.625,-0.25
1480098285116180,0.4375,1,0.0625
1480098285137237,-0.4375,0.8125,0.4375
1480098285153279,-1.5625,0.6875,0.375
1480098285176344,-2.0625,0.25,0.0625
1480098285196896,-1,0.25,0.1875
1480098285213442,0.3125,0,0.0625
1480098285235999,0.5625,0.375,0.0625
1480098285257056,-0.0625,0.375,0.1875
1480098285273601,-0.6875,0.0625,0.5625
1480098285296159,-1.3125,-0.125,0.5625
1480098285318219,-0.625,0.0625,0.3125
1480098285333259,1.1875,0.4375,0
1480098285355818,1.1875,0.375,-0.4375
1480098285378378,0.4375,0.25,-0.5
1480098285392918,-0.4375,-0.0625,-0.125
1480098285415978,-1.125,-0.4375,-0.125
1480098285438569,-0.5,-0.3125,-0.125
1480098285452577,0.625,-0.0625,-0.25
1480098285476137,1.375,0.3125,-0.3125
1480098285498697,0.625,0.3125,-0.25
1480098285512736,-0.1875,-0.1875,-0.1875
1480098285536799,-0.625,-0.125,-0.375
1480098285558357,-0.3125,0.125,-0.25
1480098285572896,0,0.5,-0.125
1480098285595957,0.0625,0.5625,-0.25
1480098285618517,-0.0625,0.5,-0.25
1480098285632554,0.125,0.4375,-0.25
1480098285656117,-0.0625,0.5625,-0.25
1480098285678676,0.1875,0.4375,-0.3125
1480098285699231,0.3125,0.125,-0.25
1480098285715776,0.0625,-0.125,-0.25
1480098285738336,0.25,-0.3125,-0.125
1480098285759430,-0.3125,-0.1875,-0.25
1480098285775936,-0.25,0.25,-0.3125
1480098285798500,-0.375,0.4375,0.0625
1480098285819551,-0.6875,0.6875,-0.0625
1480098285836135,-0.5625,1.0625,0.125
1480098285866180,-0.1875,0.875,-0.125
1480098285887237,0.375,0.8125,-0.3125
1480098285895754,0.1875,0.75,-0.375
1480098285925835,0.1875,0.4375,-0.125
1480098285939370,0.125,0.125,0.125
1480098285961930,0.25,-0.125,0.1875
1480098285978475,0.0625,0,-0.125
1480098285999531,0,0.1875,0.125
1480098286016074,0.625,0.25,0.0625
1480098286038633,0.4375,0.625,0.0625
1480098286059724,-0.4375,0.5,0.3125
1480098286075733,-1.0625,0.375,0.1875
1480098286098298,-0.625,0.125,0.125
1480098286119353,0,0.5,0.125
1480098286135913,0.625,0.4375,0.25
1480098286158496,0.3125,0.5,0.0625
1480098286179549,-0.0625,0.25,0.1875
1480098286196057,-0.25,0.25,0.3125
1480098286218621,-0.375,0.375,0.1875
1480098286241178,-0.3125,0.375,0
1480098286255716,-0.625,0.25,-0.0625
1480098286278275,-0.3125,-0.0625,-0.125
1480098286300843,-0.1875,0,0.0625
1480098286315374,-0.1875,0.0625,0
1480098286338436,0,-0.0625,-0.0625
1480098286360996,0.0625,-0.1875,0
1480098286375549,0.125,-0.25,0
1480098286398598,0.25,-0.1875,0.0625
1480098286421168,-0.0625,-0.1875,-0.125
1480098286435194,0.0625,-0.1875,-0.0625
1480098286458255,0.5,-0.1875,-0.125
1480098286480814,0.25,-0.0625,-0.125
1480098286495386,-0.125,-0.125,-0.125
1480098286518415,-0.125,0.0625,-0.0625
1480098286540976,-0.3125,-0.0625,-0.125
1480098286555518,0.0625,0.25,0.0625
1480098286578575,-0.3125,0.25,0.0625
1480098286601648,-0.125,0.4375,0
1480098286615173,0.1875,0.375,0.25
1480098286638234,-0.0625,-0.1875,-0.125
1480098286660792,0.25,-0.125,-0.4375
1480098286681850,0.3125,-0.125,-0.4375
1480098286698393,0.375,-0.1875,-0.0625
1480098286720954,0.1875,-0.4375,-0.0625
1480098286742009,-0.125,-0.4375,-0.25
1480098286758553,0.125,-0.375,-0.0625
1480098286781112,0.1875,-0.3125,0.0625
1480098286802670,0.125,-0.1875,-0.125
1480098286818211,0.25,-0.0625,0.125
1480098286840773,-0.25,0,0.5
1480098286861828,-0.375,-0.1875,0.3125
1480098286878375,-0.375,-0.0625,0.125
1480098286900934,-0.25,0.25,0.0625
1480098286922008,-0.125,0.1875,0.25
1480098286938533,-0.3125,-0.125,-0.125
1480098286961092,-0.0625,-0.125,-0.1875
1480098286982148,-0.1875,-0.0625,-0.3125
1480098286998691,-0.25,-0.1875,-0.5
1480098287020750,-0.375,-0.375,-0.6875
1480098287041806,0.125,-0.5,-0.625
1480098287058351,0.4375,-0.75,-0.375
1480098287080911,0.8125,-0.8125,-0.4375
1480098287101966,0.9375,-0.6875,-0.3125
1480098287118511,0.625,-0.625,-0.0625
1480098287141580,0.125,-0.5625,-0.0625
1480098287163631,-0.0625,-0.4375,-0.1875
1480098287178671,0.125,-0.5625,-0.125
1480098287200730,-0.125,-0.3125,-0.5
1480098287223290,-0.25,-0.3125,-0.5
1480098287238329,-0.6875,-0.3125,-0.625
1480098287260890,-0.75,-0.3125,-0.625
1480098287283450,-0.3125,-0.4375,-0.5625
1480098287298490,-0.375,-0.5625,-0.5
1480098287321050,0.125,-0.25,-0.5625
1480098287343608,0.5,-0.4375,-0.25
1480098287357647,0.125,-0.75,-0.4375
1480098287380708,0.375,-0.625,-0.375
1480098287403268,0.375,-0.5625,-0.25
1480098287417807,0.125,-0.6875,0
1480098287440868,0.25,-0.6875,0.3125
1480098287463428,-0.1875,-0.5625,0.125
1480098287484485,0.0625,-0.375,0.125
1480098287501028,-0.375,-0.125,0.125
1480098287523593,-0.5625,0,-0.125
1480098287537625,-0.25,0.125,0.0625
1480098287561188,-0.8125,-0.0625,0.25
1480098287583248,-0.875,-0.125,-0.1875
1480098287604302,-0.5625,-0.0625,-0.3125
1480098287620846,-0.1875,-0.125,-0.0625
1480098287643406,0.25,-0.3125,0.25
1480098287664462,0.1875,-0.375,0.125
1480098287681006,-0.0625,-0.3125,-0.125
1480098287703567,-0.0625,-0.5,-0.125
1480098287724624,-0.0625,-0.375,-0.125
1480098287740666,-0.0625,-0.375,0
1480098287763726,-0.1875,-0.4375,-0.125
1480098287784280,-0.125,-0.4375,-0.25
1480098287800825,0.1875,-0.625,-0.375
1480098287823388,0.5,-0.4375,-0.1875
1480098287844440,0.3125,-0.4375,-0.375
1480098287860985,-0.125,-0.3125,-0.4375
1480098287883552,-0.375,-0.5,-0.3125
1480098287904604,0.125,-0.3125,-0.3125
1480098287920644,0.625,-0.1875,-0.1875
1480098287950723,-0.0625,-0.125,-0.125
1480098287964259,0.375,0.1875,-0.0625
1480098287980805,0.0625,0,0.125
1480098288003364,0.125,0,-0.1875
1480098288024420,0.6875,0.1875,-0.3125
1480098288041465,0.5,0.1875,-0.0625
1480098288063523,-0.0625,-0.25,0.0625
1480098288084580,-0.3125,0,-0.125
1480098288100121,-0.3125,0.0625,-0.0625
1480098288123686,0.3125,0.25,-0.125
1480098288145742,0.1875,0.0625,0
1480098288160782,-0.125,0.125,-0.1875
1480098288183342,-0.375,0.125,-0.0625
1480098288205903,-0.75,-0.25,0.125
1480098288220942,-0.4375,-0.25,-0.125
1480098288243502,0.125,0,-0.3125
1480098288266063,0.125,-0.1875,-0.1875
1480098288280099,0,-0.1875,0.0625
1480098288303663,-0.0625,-0.1875,0
1480098288326222,0,-0.0625,-0.0625
1480098288340259,-0.125,0.0625,0.0625
1480098288363321,-0.3125,0.1875,0
1480098288385881,-0.4375,0.125,-0.0625
1480098288400420,-0.5,-0.0625,-0.0625
1480098288423482,-0.375,-0.125,0
1480098288446040,0.0625,-0.1875,-0.0625
1480098288460078,0.125,-0.25,-0.25
1480098288491163,-0.0625,-0.25,-0.1875
1480098288506200,-0.25,-0.0625,0
1480098288520239,-0.0625,0,-0.125
1480098288543300,-0.3125,0.0625,0.0625
1480098288565864,-0.4375,0.3125,0
1480098288580398,-0.1875,0.375,0.25
1480098288603460,-0.3125,0.0625,-0.0625
1480098288626019,-0.0625,0.1875,-0.25
1480098288647075,0.125,0.1875,-0.0625
1480098288663619,0.125,0.125,0.0625
1480098288686180,-0.1875,-0.1875,-0.0625
1480098288707235,-0.5625,-0.3125,-0.1875
1480098288723281,-0.25,-0.1875,0.0625
1480098288745838,0.0625,-0.1875,-0.0625
1480098288766894,-0.375,-0.0625,-0.1875
1480098288783438,-0.125,0,-0.1875
1480098288805999,-0.125,0.0625,0.1875
1480098288827054,-0.8125,-0.3125,0.0625
1480098288843601,-0.3125,-0.25,-0.3125
1480098288867662,-0.0625,-0.0625,-0.25
1480098288886712,-0.25,-0.125,0
1480098288903257,-0.125,-0.0625,0.1875
1480098288925817,-0.125,-0.125,0.125
1480098288946872,-0.4375,0.0625,0.0625
1480098288963418,-0.8125,0.375,0.25
1480098288985977,-1.1875,0.5,0.0625
1480098289007033,-1.3125,0.375,0.0625
1480098289023588,-1.0625,0.0625,-0.0625
1480098289046136,-0.5,-0.1875,0.0625
1480098289068196,0,-0.3125,0.125
1480098289084238,-0.125,-0.5,0.1875
1480098289106297,0,-0.75,0.1875
1480098289128356,-0.125,-0.8125,0
1480098289143398,0.25,-0.6875,0.0625
1480098289165956,0.125,-0.5,0.1875
1480098289188517,-0.1875,-0.3125,0.1875
1480098289202552,0,-0.25,0.1875
1480098289225614,-0.125,-0.625,-0.1875
1480098289248675,0.375,-0.25,-0.375
1480098289262713,0.4375,-0.3125,-0.3125
1480098289285790,0.5625,-0.625,-0.1875
1480098289308336,0.375,-0.875,-0.1875
1480098289322874,0,-1,-0.375
1480098289345935,0.3125,-0.875,-0.25
1480098289368494,0.875,-0.9375,-0.375
1480098289382534,1,-0.875,-0.625
1480098289406094,0.8125,-0.625,-0.5625
1480098289429155,0.25,-0.6875,-0.0625
1480098289442691,-0.3125,-1,-0.1875
1480098289473277,-0.0625,-0.8125,-0.4375
1480098289488313,0.5,-0.375,-0.375
1480098289509372,0.6875,-0.25,-0.1875
1480098289525913,0.5625,-0.5,-0.1875
1480098289548473,0.1875,-0.5,-0.25
1480098289569528,0,-0.1875,-0.125
1480098289586072,-0.25,-0.25,-0.1875
1480098289615651,-0.25,-0.3125,-0.25
1480098289629688,-0.0625,-0.5,-0.1875
1480098289645732,0.25,-0.5,-0.0625
1480098289668292,0.25,-0.5625,-0.1875
1480098289689348,0.25,-0.5,-0.125
1480098289705892,0.25,-0.25,0
1480098289728452,0.1875,-0.5,-0.0625
1480098289749507,0.1875,-0.375,-0.125
1480098289766552,0.3125,-0.1875,0.0625
1480098289788612,0,0.125,0.0625
1480098289810671,0.375,0.3125,0.25
1480098289825710,0.3125,0.0625,-0.125
1480098289848271,0.5625,0.4375,-0.375
1480098289869326,1,0.5,-0.1875
1480098289885870,0.5625,0.375,0.25
1480098289908430,0.125,0.4375,0.125
1480098289929486,-0.3125,0.5,0
1480098289946030,-0.0625,0.8125,0.1875
1480098289968590,0,0.8125,0.1875
1480098289989647,-0.125,0.8125,0.25
1480098290006193,-0.25,0.6875,0.0625
1480098290028250,-0.875,0.75,0.1875
1480098290050809,-1.125,0.5625,0.1875
1480098290065854,-0.625,0.625,-0.0625
1480098290088410,0.4375,-0.3125,0.1875
1480098290110969,0.5,-0.6875,-0.875
1480098290126009,1.3125,-0.25,-0.5625
1480098290148569,1.6875,-0.3125,-0.125
1480098290170628,0.9375,-0.4375,0.25
1480098290185166,-0.0625,-0.3125,-0.1875
1480098290208228,-0.0625,-0.0625,0.0625
1480098290230788,-0.5,0.375,-0.1875
1480098290245327,-0.1875,0.5625,-0.1875
1480098290268388,0,0.25,-0.125
1480098290290948,0.0625,-0.6875,-0.0625
1480098290305487,0.4375,-1.1875,-0.5625
1480098290328548,1.5625,-0.625,-0.6875
1480098290358628,1.875,-0.1875,-0.125
1480098290365145,0.5,0.0625,-0.125
1480098290388206,-0.25,-0.3125,0.0625
1480098290410766,-0.4375,0.0625,-0.375
1480098290425305,0.25,1.125,-0.0625
1480098290454382,0.3125,1.25,-0.375
1480098290470926,1.1875,1.0625,-0.5625
1480098290484964,1,0.375,-0.625
1480098290508526,0,-0.3125,-0.5
1480098290531086,-0.6875,-0.375,-0.625
1480098290552142,-0.0625,-0.1875,-0.75
1480098290568686,1.375,-0.25,-0.75
1480098290590746,1.8125,-0.3125,-0.875
1480098290611800,1.125,-0.25,-0.75
1480098290628345,-0.375,-0.1875,-0.625
1480098290650905,-0.625,0.25,-0.3125
1480098290671961,0.375,0.25,-0.0625
1480098290688505,1.4375,0,-0.1875
1480098290711065,1.375,-0.1875,0
1480098290732120,0.0625,0.0625,0.0625
1480098290748164,-0.25,0.25,0.5625
1480098290770724,-0.875,0.4375,0.6875
1480098290793284,-0.875,0.6875,0.625
1480098290808324,-1.1875,0.875,0.4375
1480098290830884,-2,1.0625,0.3125
1480098290851941,-2.0625,1.1875,0.3125
1480098290868485,-1.6875,0.9375,0.1875
1480098290891045,-0.9375,0.75,-0.0625
1480098290912099,-0.125,0.3125,-0.1875
1480098290927640,0.3125,-0.125,-0.125
1480098290950703,0.4375,-0.5,0.1875
1480098290973264,0.625,-0.4375,0.1875
1480098290988806,0.875,-0.125,0.0625
1480098291010862,1,0.0625,0.1875
1480098291033422,0.5625,0.4375,0.3125
1480098291048462,-0.0625,0.875,0.1875
1480098291071022,-0.3125,1.125,0.375
1480098291093587,-0.625,0.9375,0.25
1480098291107620,-0.4375,0.9375,-0.1875
1480098291130681,-0.0625,1.0625,-0.1875
1480098291153242,0,0.75,-0.25
1480098291167779,-0.1875,0.1875,-0.1875
1480098291190843,-0.5625,-0.25,-0.4375
1480098291213401,0.4375,-0.5625,-0.1875
1480098291227940,1.1875,-0.5,-0.1875
1480098291251033,1,-0.375,-0.1875
1480098291273561,0.375,-0.3125,-0.1875
1480098291287599,0.25,-0.25,0.125
1480098291310661,-0.1875,-0.3125,0.1875
1480098291333221,-0.1875,0,-0.0625
1480098291347763,0.0625,0.4375,0
1480098291370819,0.125,0.625,0
1480098291393380,0.1875,0.75,0.0625
1480098291414436,-0.0625,0.625,0
1480098291431482,-0.5625,0.5,0.0625
1480098291453541,-0.6875,0.5625,-0.0625
1480098291474596,-0.25,0.4375,-0.125
1480098291491139,-0.3125,0.1875,-0.1875
1480098291513198,0.125,0.125,-0.1875
1480098291534254,0.375,0.0625,-0.1875
1480098291550799,0.4375,-0.0625,-0.0625
1480098291573360,0.3125,-0.25,-0.0625
1480098291594415,0.4375,-0.3125,-0.125
1480098291610958,0.3125,-0.375,-0.1875
1480098291633519,0.3125,-0.3125,-0.0625
1480098291662102,0.375,-0.25,-0.1875
1480098291671117,0.5,-0.4375,-0.375
1480098291693679,0.5625,-0.3125,-0.1875
1480098291714232,0.4375,-0.3125,-0.1875
1480098291730778,0.3125,-0.0625,-0.1875
1480098291753339,-0.1875,-0.0625,-0.1875
1480098291774393,-0.0625,0.125,0
1480098291790938,0.4375,0.0625,0
1480098291813528,0.25,0.1875,0
1480098291819011,0.0625,0.0625,-0.0625
1480098291841573,0.25,-0.1875,-0.0625
1480098291864132,0.625,-0.1875,-0.3125
1480098291878676,0.3125,0.4375,-0.5
1480098291901231,0,0.75,-0.1875
1480098291916270,-0.5625,0.25,0.0625
1480098291940335,-1,-0.125,-0.125
1480098291961390,0,-0.1875,-0.25
1480098291976439,0.6875,-0.0625,-0.6875
1480098291998989,0.5625,0.3125,-0.75
1480098292021049,0.125,0.1875,-0.3125
1480098292036089,0,-1,0.375
1480098292058648,-1,-1.375,-0.1875
1480098292081210,0.0625,-0.5625,-0.625
1480098292096249,1.5625,0.6875,-0.3125
1480098292118809,1.1875,0.6875,-0.1875
1480098292141369,-0.5625,-0.0625,-0.1875
1480098292156410,-1.1875,-0.375,0
1480098292178969,-0.75,-0.3125,0.125
1480098292201028,-0.125,0.375,-0.0625
1480098292217572,0.75,0.625,-0.25
1480098292238628,0.75,0.375,-0.5
1480098292261188,0.3125,-0.1875,-0.4375
1480098292277731,-0.8125,-0.4375,-0.0625
1480098292298802,-0.75,-0.4375,0.125
1480098292321347,0.3125,-0.25,-0.4375
1480098292337893,1.4375,0.0625,-0.625
1480098292358947,1.5,-0.0625,-0.375
1480098292389533,0.3125,-0.25,-0.0625
1480098292397551,-0.9375,-0.5625,-0.0625
1480098292418607,-0.3125,-0.25,-0.125
1480098292441168,0.8125,0.0625,-0.1875
1480098292457711,1.0625,0,-0.0625
1480098292478767,-0.0625,-0.25,0.25
1480098292501327,-0.8125,-0.25,0.1875
1480098292517871,-0.0625,-0.1875,0.875
1480098292538927,-0.1875,-0.3125,0.3125
1480098292561485,0.625,0.3125,-0.25
1480098292577530,1.3125,0.4375,-0.25
1480098292598586,0.3125,0.1875,0
1480098292621145,-0.8125,0.0625,-0.0625
1480098292637689,-0.9375,-0.0625,0.125
1480098292658773,-0.125,-0.0625,0.3125
1480098292681305,0.3125,0.3125,-0.25
1480098292699353,0.875,0.5,0
1480098292718904,0.1875,0.1875,0.25
1480098292741464,-0.9375,-0.125,0.25
1480098292759012,-0.9375,-0.3125,0.1875
1480098292778563,0,-0.125,0.25
1480098292801123,0.6875,0,0
1480098292819172,0.875,0,-0.1875
1480098292838724,0.25,-0.125,0
1480098292861284,-0.5,-0.1875,0
1480098292883844,-0.25,0,0.125
1480098292898883,0.4375,0.0625,0.3125
1480098292921443,0.875,0.0625,-0.0625
1480098292943517,1.0625,0.0625,-0.5
1480098292958542,0.4375,0.25,-0.6875
1480098292981102,-1.0625,0.5,-0.1875
1480098293003664,-1.1875,0.125,0.375
1480098293018703,-0.6875,-0.5,0.3125
1480098293041265,0.375,-0.0625,-0.0625
1480098293063822,1.3125,0.6875,-0.125
1480098293081869,0.9375,0.9375,0.125
1480098293101422,-0.3125,0.5625,0.125
1480098293123484,-1.1875,0,0
1480098293139022,-1.0625,0.125,-0.0625
1480098293161080,-0.8125,0.25,0.3125
1480098293183640,0,-0.125,-0.125
1480098293198681,1.0625,0.1875,-0.5
1480098293221241,0.625,0.0625,-0.125
1480098293252324,-0.3125,-0.4375,0.0625
1480098293258840,-0.75,-0.125,-0.25
1480098293281400,-0.5625,0.1875,-0.125
1480098293303972,0.1875,0.3125,0.375
1480098293318499,0.5625,-0.0625,0.25
1480098293341060,0.4375,-0.25,0
1480098293363620,-0.0625,0.125,-0.125
1480098293378661,-0.3125,0.4375,-0.0625
1480098293408739,-0.1875,0.4375,-0.125
1480098293423779,0,0.4375,0
1480098293438820,-0.125,0.25,0.125
1480098293461379,-0.5,0.3125,0.125
1480098293483941,-1,0.75,0.1875
1480098293499982,-0.6875,0.625,0.125
1480098293521039,0.0625,0.3125,0.1875
1480098293543598,0.0625,0.3125,-0.25
1480098293560142,0.1875,0.3125,-0.3125
1480098293581198,0.125,0.1875,0.3125
1480098293603758,-0.4375,0,0.125
1480098293620302,0.0625,0,-0.25
1480098293641358,0.5,0.1875,0.125
1480098293663918,0.3125,0.25,0.1875
1480098293680467,0.0625,0.3125,-0.0625
1480098293701518,-0.0625,0.0625,-0.3125
1480098293723580,-0.3125,-0.125,-0.125
1480098293740121,-0.3125,-0.25,-0.0625
1480098293761176,-0.125,-0.3125,-0.25
1480098293783736,0.625,-0.0625,-0.125
1480098293806296,0.8125,0.0625,0
1480098293821338,0.625,0,0
1480098293843897,-0.0625,0.0625,-0.0625
1480098293861944,-0.125,0.4375,-0.0625
1480098293881496,-0.3125,0.4375,0.0625
1480098293903556,0.1875,0.25,0.125
1480098293921604,0.6875,0,0.0625
1480098293941155,0.625,-0.3125,-0.125
1480098293963719,0.5625,-0.375,0.125
1480098293981781,-0.1875,-0.375,0.4375
1480098294001315,-0.875,-0.125,0.125
1480098294023876,-0.0625,0.0625,0.3125
1480098294041422,0.9375,-0.3125,0
1480098294063983,1.4375,-0.3125,-0.3125
1480098294084035,0.9375,-0.4375,-0.1875
1480098294101583,0.0625,-0.625,0
1480098294121135,-0.1875,-0.75,0.0625
1480098294143703,0,-0.9375,0.0625
1480098294161743,0.6875,-0.6875,0.0625
1480098294181295,0.8125,-0.5,0.0625
1480098294203854,0.375,-0.25,0
1480098294221903,0.3125,-0.1875,0.25
1480098294241454,0.0625,-0.1875,0.375
1480098294263516,-0.1875,-0.3125,0.125
1480098294281561,-0.0625,-0.3125,0
1480098294301113,0.3125,-0.375,0.125
1480098294323673,0.5625,-0.375,0.3125
1480098294346234,0.8125,-0.4375,0.3125
1480098294361273,0.8125,-0.1875,0.1875
1480098294383832,0.625,0.0625,0.125
1480098294406393,-0.1875,0.125,0.1875
1480098294422936,-0.75,-0.0625,0.0625
1480098294443992,-0.5625,0,-0.0625
1480098294466051,0,0.125,0.125
1480098294482596,0.5,0.375,0.4375
1480098294503652,0.75,0.125,0.375
1480098294526213,0.625,-0.625,0.125
1480098294546264,0.1875,-0.75,-0.375
1480098294563812,0.125,-0.4375,-0.3125
1480098294586372,0.3125,-0.4375,0
1480098294602414,0.5,-0.5625,-0.125
1480098294623971,1.0625,-0.6875,-0.3125
1480098294646031,0.9375,-0.625,-0.1875
1480098294662575,1.3125,-0.6875,-0.1875
1480098294683630,2.25,-1.0625,0.125
1480098294706193,1.75,-1.4375,0
1480098294724238,2.5,-1.5625,-0.3125
1480098294743791,2.1875,-1.375,-0.125
1480098294766350,1.25,-1.375,0.125
1480098294784407,0.75,-1.1875,0.0625
1480098294803950,0.3125,-0.875,-0.0625
1480098294826008,-0.0625,-0.25,0.125
1480098294844056,-0.625,0.0625,0.125
1480098294863609,-0.875,0.3125,0
1480098294889180,-0.5625,0.375,0.0625
1480098294904219,-0.25,0.125,0.125
1480098294923768,-0.3125,-0.1875,0.0625
1480098294946329,0.125,-0.5625,0.125
1480098294964376,0.875,-0.9375,0.125
1480098294983928,1.5625,-0.8125,0.125
1480098295006488,1.875,-0.875,0.1875
1480098295024037,1.625,-0.625,0.1875
1480098295045091,0.9375,-0.5,0.3125
1480098295066147,0.125,-0.125,0.125
1480098295084207,-0.375,0.1875,0.125
1480098295103750,-1.0625,0.3125,0
1480098295126307,-0.9375,0.3125,0.0625
1480098295144355,-0.5,0.1875,0.0625
1480098295163907,-0.0625,-0.0625,0.125
1480098295186467,-0.1875,0,0
1480098295211535,-0.1875,0,-0.125
1480098295223566,-0.25,-0.125,0
1480098295246126,-0.0625,-0.125,0.125
1480098295264174,-0.1875,0.125,0.125
1480098295283726,-0.0625,0.3125,0.0625
1480098295306286,0.0625,0.1875,0.125
1480098295324334,-0.125,-0.0625,-0.1875
1480098295343886,0.1875,0.0625,-0.3125
1480098295366446,0.375,-0.125,0
1480098295383992,0.75,-0.25,-0.0625
1480098295405050,0.125,-0.5,-0.125
1480098295426105,-0.375,-0.375,-0.125
1480098295444153,0.0625,-0.125,0
1480098295465209,0.1875,0.125,-0.1875
1480098295486265,0,0.125,-0.4375
1480098295504314,0.1875,0.0625,-0.3125
1480098295525375,-0.375,0,0.125
1480098295546926,-0.875,-0.0625,-0.0625
1480098295563973,0,0,-0.0625
1480098295585028,0.25,-0.0625,-0.0625
1480098295606084,0.5625,-0.25,0.125
1480098295624132,0.75,-0.125,0.1875
1480098295645188,0.5,-0.0625,0.25
1480098295666244,0.125,0.125,0.25
1480098295684291,-0.5,0.125,0.125
1480098295708355,-0.5625,0,0.125
1480098295726403,-0.125,0.0625,0.125
1480098295743951,-0.0625,0.0625,-0.0625
1480098295766510,0.125,-0.0625,-0.125
1480098295786062,0.1875,-0.125,-0.125
1480098295808623,0.25,0,0
1480098295826670,-0.0625,0,-0.0625
1480098295846223,0.25,0.0625,0.0625
1480098295868783,0,0.125,0.25
1480098295886830,-0.125,0.4375,0.125
1480098295906383,0.375,0.375,0.3125
1480098295928942,0.125,0.125,0.25
1480098295946489,-0.0625,0.125,-0.0625
1480098295966040,0.3125,0.1875,-0.0625
1480098295988601,0.5,0.0625,0
1480098296006648,0.375,-0.0625,0.0625
1480098296026200,-0.0625,-0.25,-0.0625
1480098296049764,0.1875,-0.25,0.0625
1480098296066811,0.25,-0.0625,0.0625
1480098296086362,-0.0625,-0.125,0.0625
1480098296108920,0.0625,-0.0625,0
1480098296126468,0,0,0.25
1480098296146019,0,-0.3125,0.1875
1480098296168617,0.3125,-0.1875,-0.0625
1480098296191139,0.1875,0,-0.0625
1480098296206182,0.0625,0,0.125
1480098296228740,0.0625,0,0.1875
1480098296246787,0.1875,0.0625,0.125
1480098296273859,0.1875,0.125,0.0625
1480098296288901,-0.0625,0.1875,0.0625
1480098296306446,-0.4375,0.25,-0.0625
1480098296329007,-0.6875,0.0625,-0.0625
1480098296348558,-0.1875,-0.1875,-0.0625
1480098296366606,0.375,-0.375,-0.0625
1480098296387663,0.4375,-0.25,-0.125
1480098296408718,0.375,-0.25,-0.0625
1480098296426767,0.375,-0.25,0.0625
1480098296447822,-0.0625,-0.375,0
1480098296468878,0.0625,0,0
1480098296486425,-0.1875,0.1875,0.1875
1480098296507481,-0.125,0.3125,0.1875
1480098296528540,0.125,0.3125,0.25
1480098296546585,0.375,0,0.0625
1480098296567641,0.4375,0.1875,-0.1875
1480098296588696,0.4375,0.1875,0.0625
1480098296606744,0.3125,0.125,0.1875
1480098296627800,0.0625,-0.1875,0.125
1480098296648856,-0.1875,-0.125,0.0625
1480098296666904,0.125,0.0625,0.125
1480098296688964,0.1875,0.0625,0.0625
1480098296708516,-0.1875,0,0
1480098296726564,0.1875,0.0625,-0.0625
1480098296749124,-0.0625,0.0625,0.375
1480098296768676,-0.25,-0.0625,0.1875
1480098296786723,0.25,0.0625,0.125
1480098296809283,0.25,-0.0625,0
1480098296828836,0.3125,0.0625,0.1875
1480098296846884,0.3125,0.0625,0.125
1480098296868942,0.3125,0.0625,0.125
1480098296891503,0.0625,0.1875,0.0625
1480098296906542,-0.4375,0.1875,0
1480098296929103,-0.5625,0.125,-0.125
1480098296948654,-0.1875,0.0625,-0.125
1480098296966702,0.25,-0.0625,0.0625
1480098296989262,0.375,-0.0625,0
1480098297016334,0.3125,-0.1875,-0.0625
1480098297026863,0.125,-0.1875,-0.125
1480098297048921,0.1875,-0.1875,0.0625
1480098297068974,0,-0.0625,0.0625
1480098297086521,-0.25,0.0625,0
1480098297109081,0.125,0.0625,0.125
1480098297136152,0.125,0.125,0.1875
1480098297146683,0.1875,0.25,0.125
1480098297169241,0.1875,0.1875,0.1875
1480098297188792,0,0.0625,-0.0625
1480098297206841,0.0625,0.0625,-0.25
1480098297229400,0.5,0.125,0
1480098297248954,0.4375,0.0625,0.125
1480098297266500,-0.25,0,0
1480098297289060,-0.5,0,0.0625
1480098297310117,0,-0.0625,0.25
1480098297331171,0.1875,0.125,0.25
1480098297349721,-0.0625,0,-0.0625
1480098297370275,0.125,0.1875,0.0625
1480098297391332,-0.125,0.0625,0.3125
1480098297409380,-0.375,-0.125,0.125
1480098297430440,0.0625,-0.0625,-0.0625
1480098297451491,0.25,-0.125,-0.0625
1480098297469038,0.375,-0.0625,0.25
1480098297490094,0.3125,0.0625,0.1875
1480098297512654,0.125,0.125,0.125
1480098297529198,-0.1875,0.1875,0.0625
1480098297550254,-0.5625,0.1875,0
1480098297571311,-0.4375,0.1875,0.0625
1480098297589359,-0.0625,0.1875,0.0625
1480098297611417,0,-0.0625,-0.0625
1480098297630969,0.4375,0,0.0625
1480098297649017,0.25,-0.0625,-0.1875
1480098297671577,0.1875,-0.125,-0.0625
1480098297691131,0.1875,-0.3125,0
1480098297709177,0.25,-0.3125,-0.125
1480098297731737,0.1875,-0.1875,-0.0625
1480098297751289,0.25,0,-0.125
1480098297769337,0.125,0,-0.125
1480098297798916,-0.0625,0.0625,0.1875
1480098297811448,-0.3125,0.1875,0.125
1480098297828997,0.375,0.1875,0.25
1480098297851556,0.4375,0,0.1875
1480098297871108,0.5625,0.125,-0.25
1480098297889159,0.5,0.1875,-0.1875
1480098297911716,0.25,0,0
1480098297931269,-0.0625,-0.125,0.25
1480098297949316,-0.25,-0.125,-0.125
1480098297971876,0,0,0.0625
1480098297991427,0.4375,0.125,0.1875
1480098298008974,0.4375,0,0.125
1480098298031538,0,-0.0625,-0.1875
1480098298051086,0.125,-0.0625,0.125
1480098298069134,-0.375,0,0.25
1480098298091699,0.4375,0.0625,-0.125
1480098298111246,1.125,-0.25,-0.0625
1480098298129294,1,0,0
1480098298151855,0.125,-0.0625,0.1875
1480098298171411,-0.5,-0.0625,0
1480098298188954,-0.1875,0.1875,0.125
1480098298219035,-0.1875,0.1875,0
1480098298232568,-0.375,0.1875,-0.125
1480098298249113,-0.5625,0.125,-0.0625
1480098298271673,-0.4375,0,0.0625
1480098298292728,0.125,-0.1875,0.125
1480098298309272,0.4375,-0.25,-0.0625
1480098298331832,0.25,-0.25,-0.125
1480098298352889,0.0625,-0.25,-0.0625
1480098298368932,-0.25,-0.3125,-0.125
1480098298391492,-0.25,-0.125,0.0625
1480098298412548,-0.125,-0.0625,0
1480098298429092,0.25,0,-0.1875
1480098298451651,0.125,0.0625,-0.1875
1480098298472707,-0.375,-0.125,-0.125
1480098298489251,-0.5,0,0
1480098298512313,-0.3125,0.125,0.1875
1480098298532868,-0.0625,0.25,0.125
1480098298549411,0.5,0.0625,0
1480098298571474,0.4375,0.0625,-0.25
1480098298594031,0.0625,0,-0.1875
1480098298614585,-0.25,-0.0625,0.0625
1480098298630628,-0.1875,-0.1875,0
1480098298653689,-0.625,-0.5625,-0.125
1480098298674243,-0.25,-0.5,-0.0625
1480098298690789,0.6875,-0.5,0
1480098298713347,0.6875,-0.75,0
1480098298734405,0.125,-0.75,-0.25
1480098298750948,0.25,-0.875,0
1480098298773508,0.25,-1.0625,0.125
1480098298794563,0.5625,-1.125,-0.0625
1480098298810606,0.875,-1.0625,-0.25
1480098298833167,0.875,-1,-0.25
1480098298854726,0.8125,-1.125,0.125
1480098298870767,0.625,-1.0625,0.0625
1480098298893326,0.625,-1,0.125
1480098298914381,0.125,-0.875,0.0625
1480098298930927,0.25,-0.8125,0
1480098298953488,0,-0.5625,-0.25
1480098298974549,0.125,-0.8125,-0.125
1480098298991087,-0.125,-1.0625,0.0625
1480098299013144,0.0625,-1.125,0.0625
1480098299034200,0.5,-1,-0.0625
1480098299050745,0.5625,-0.875,0
1480098299079320,0.875,-1,0.125
1480098299095865,0.6875,-1.125,0.1875
1480098299110907,0.1875,-0.9375,0.125
1480098299133465,0.0625,-0.8125,0.25
1480098299162040,-0.3125,-0.6875,0
1480098299171066,0.25,-0.625,0.0625
1480098299193125,0.0625,-0.5625,0.375
1480098299214681,-0.25,-0.3125,0.1875
1480098299230724,0.4375,-0.25,0.3125
1480098299253284,0.3125,-0.5,0.125
1480098299274339,0.625,-0.3125,-0.125
1480098299290883,0.4375,-0.375,0.0625
1480098299313447,0,-0.4375,0.375
1480098299334500,-0.6875,-0.4375,0.375
1480098299350543,-0.6875,-0.25,0.25
1480098299373102,0.1875,0.125,0.5
1480098299394158,0.3125,0.3125,0.25
1480098299410702,-0.25,0.5,0.25
1480098299433262,-0.75,0.5625,0.4375
1480098299454318,-1.5,0.5625,0.5625
1480098299470862,-1.6875,0.6875,0.1875
1480098299493423,-0.8125,1.0625,0.0625
1480098299515982,-0.25,1.1875,0.0625
1480098299531022,-0.375,1.3125,0.25
1480098299553082,-0.875,1.125,0.3125
1480098299575640,-1.3125,1.125,0.3125
1480098299590680,-1.3125,1.4375,0.125
1480098299613240,-1,1.5,0.1875
1480098299635801,-1.3125,1.3125,-0.0625
1480098299650340,-1,1,0.0625
1480098299673402,-0.875,0.8125,-0.0625
1480098299696462,-0.875,0.6875,0
1480098299709999,-0.4375,0.4375,-0.0625
1480098299733560,0,0.3125,-0.125
1480098299756122,0.3125,0.3125,-0.125
1480098299770158,0.1875,0.375,-0.375
1480098299799236,0.0625,0.3125,-0.5625
1480098299815779,0.25,0.25,-0.25
1480098299830318,-0.4375,0.4375,-0.25
1480098299853380,-0.0625,0.6875,-0.1875
1480098299875940,0.0625,0.5,-0.0625
1480098299889977,0.5625,0.3125,-0.3125
1480098299913540,1.375,0.3125,-0.25
1480098299935598,1.3125,0.1875,-0.125
1480098299950137,1.0625,0.0625,-0.3125
1480098299973700,0.125,-0.125,-0.375
1480098300003278,0.125,-0.5,-0.25
1480098300016814,0.3125,-0.3125,-0.125
1480098300033359,0.3125,-0.1875,-0.3125
1480098300055922,0,0,-0.625
1480098300078479,-0.0625,0.1875,-0.4375
1480098300093517,-0.1875,0.125,-0.1875
1480098300115576,-0.125,0,-0.4375
1480098300137135,0.3125,-0.1875,-0.5625
1480098300154180,0.3125,-0.3125,-0.4375
1480098300175736,0.3125,-0.3125,-0.25
1480098300196793,0.25,-0.375,-0.375
1480098300213336,0.1875,-0.25,-0.3125
1480098300235897,0.125,-0.3125,-0.25
1480098300256954,0.375,-0.1875,-0.1875
1480098300273499,-0.1875,0,-0.3125
1480098300295556,-0.5625,0,-0.375
1480098300316611,-0.375,-0.1875,-0.25
1480098300333156,0.1875,-0.4375,-0.3125
1480098300355715,0.5,-0.25,-0.375
1480098300376771,0.25,-0.1875,-0.25
1480098300393318,-0.25,-0.125,-0.125
1480098300415875,-0.5,0,-0.0625
1480098300436932,0.0625,0.125,0.0625
1480098300453476,0.25,0.25,0.1875
1480098300476035,0.25,0.5625,0.1875
1480098300498094,0,0.375,0.4375
1480098300513134,-0.625,0,0.0625
1480098300535695,0.125,0,-0.0625
1480098300558254,0.625,0.125,0
1480098300573295,0.375,0.125,0.0625
1480098300595854,-0.1875,-0.1875,0.0625
1480098300625934,-0.6875,-0.25,0.0625
1480098300632451,-0.1875,-0.0625,0.1875
1480098300656015,0.1875,0.125,0.1875
1480098300678073,0,0,0
1480098300692612,-0.375,0.125,0
1480098300715675,-0.5,0.125,0.3125
1480098300738234,-0.75,-0.0625,0.3125
1480098300752772,0,-0.375,0.125
1480098300775833,0.375,-0.3125,0.0625
1480098300798392,0.1875,-0.0625,0
1480098300812430,0.6875,-0.125,0.125
1480098300835993,0.3125,0,-0.125
1480098300858051,-0.1875,0.125,-0.0625
1480098300872590,-0.625,0.25,-0.125
1480098300895653,-0.875,0.1875,-0.1875
1480098300918212,-0.625,0.125,-0.25
1480098300932749,-0.1875,0.125,-0.1875
1480098300956312,0.0625,0.0625,-0.25
1480098300978403,0.3125,-0.1875,-0.3125
1480098300999454,0.5,-0.75,-0.3125
1480098301015972,1.1875,-1.375,-0.3125
1480098301038531,2,-2.1875,-0.375
1480098301059587,2,-2.5625,-0.5
1480098301076132,1.9375,-2.5,-0.6875
1480098301098190,1.8125,-2.375,-0.75
1480098301119246,1.9375,-2.125,-0.8125
1480098301135791,2.0625,-1.6875,-0.5
1480098301158352,1.375,-1.375,-0.3125
1480098301179405,0.8125,-1.0625,-0.5
1480098301195949,0.5,-0.625,-0.625
1480098301218510,0.9375,-0.625,-0.6875
1480098301239069,1.375,-1.125,-0.5625
1480098301255609,0.75,-2,-0.5
1480098301278670,1.0625,-2.3125,-0.0625
1480098301299225,1.9375,-2.25,0.25
1480098301315768,2.0625,-2.375,-0.0625
1480098301338330,2.3125,-2.3125,-0.5
1480098301359384,2.625,-2.125,-0.125
1480098301375930,1.8125,-2.1875,0.0625
1480098301398489,1.0625,-2.3125,-0.125
1480098301420548,0.9375,-2.3125,-0.25
1480098301436098,0.5625,-2.375,-0.6875
1480098301458148,1.0625,-2.4375,-1.0625
1480098301480710,0.625,-2.5625,-1.4375
1480098301495748,0.875,-2.9375,-1.8125
1480098301518309,1.5,-3.6875,-1.5
1480098301548391,1.5625,-4.4375,-1.125
1480098301555406,1.5,-4.5,-1.5625
1480098301578468,3.125,-4.25,-1.25
1480098301602030,2.625,-4.5,-0.75
1480098301615065,1.625,-4.875,-0.5625
1480098301638126,2.3125,-4.375,-0.75
1480098301660687,2.75,-3.625,-0.625
1480098301675225,2.625,-2.875,-0.8125
1480098301698788,1.625,-2.125,-1.3125
1480098301720847,0.375,-1.9375,-1.375
1480098301734884,-0.0625,-2.375,-1.375
1480098301758446,-0.25,-2.5,-1.4375
1480098301781006,-0.25,-1.75,-2.0625
1480098301795043,0.8125,-1.3125,-2.1875
1480098301818105,1.875,-1.375,-2.25
1480098301840665,2.5625,-1.25,-1.8125
1480098301861720,1.75,-0.8125,-1.25
1480098301878264,-0.3125,0.5,-1
1480098301900825,-1.25,2,-1.0625
1480098301921880,-2.875,2.875,-1.75
1480098301938425,-2.25,3.25,-2.5625
1480098301960987,-1.625,2.5,-1.75
1480098301982040,-5.9375,1.25,-0.625
1480098301998083,-8.6875,0.875,-0.75
1480098302020644,-5.625,1.625,-1.125
1480098302041699,0.5625,1.625,-0.4375
1480098302058243,4.375,1.5,0.5
1480098302080804,2.125,1.625,0.6875
1480098302101872,-0.6875,1.0625,1.25
1480098302118404,-4,0.375,1.4375
1480098302140963,-6.25,0.375,0.875
1480098302162034,-4.0625,0.5625,-0.125
1480098302178062,0.5625,0.3125,-0.625
1480098302200623,3.0625,-0.875,-0.375
1480098302222180,2.6875,-2.25,0.25
1480098302238225,2.5625,-3,0
1480098302260782,4.875,-3.1875,-0.25
1480098302281838,6.5,-2.75,0.125
1480098302298382,4.75,-1.875,0.375
1480098302320943,3.375,-1.5625,0.25
1480098302341999,2.625,-1.25,0.375
1480098302358041,0.875,-0.8125,0.875
1480098302380600,-1,0.0625,0.1875
1480098302403161,0.25,0.5625,0.625
1480098302425722,0.875,0.25,1.1875
1480098302440762,0.8125,0,0.8125
1480098302463320,1.5,0,1.125
1480098302477860,1.3125,-0.0625,1.75
1480098302500921,0.625,-0.4375,1.9375
1480098302523514,1.25,-0.75,1.625
1480098302537519,1.8125,-0.25,1.5
1480098302561083,0.75,-0.125,1.75
1480098302583139,-2.125,-0.3125,1.5
1480098302597677,-3.375,0.5,0.5625
1480098302620743,-3.75,1.1875,0.9375
1480098302643300,-4.25,1.4375,1.1875
1480098302658341,-3.5625,1.25,0.875
1480098302680911,-2.3125,1.375,1.25
1480098302703475,-2.75,1.375,1.6875
1480098302726533,-3.4375,1.25,2.125
1480098302741573,-3.0625,1,2.1875
1480098302763130,-2.375,0.9375,1.9375
1480098302777669,-1.8125,1.1875,2.1875
1480098302800730,-2.0625,1.4375,2.3125
1480098302823290,-3.0625,1.4375,1.875
1480098302844345,-3.4375,1.3125,1.5
1480098302860890,-2.75,1.1875,1.4375
1480098302883450,-2.0625,1.0625,1.375
1480098302904506,-1.25,0.5625,1.125
1480098302920549,-1,0.375,0.75
1480098302943108,-0.8125,0.125,0.375
1480098302964164,-0.6875,0.125,0.4375
1480098302980709,-0.125,-0.125,0.375
1480098303003269,-0.1875,-0.3125,0.625
1480098303024324,0.5625,-0.375,0.25
1480098303040872,1.3125,-0.125,-0.125
1480098303063429,1.5625,0.0625,-0.25
1480098303084484,1.1875,0,0.0625
1480098303100527,0.0625,-0.25,-0.125
1480098303123087,0,-0.25,-0.3125
1480098303144143,-0.25,-0.3125,0.25
1480098303160687,-0.9375,-0.3125,0.3125
1480098303183247,-0.5625,0,0
1480098303204303,1,0.125,-0.375
1480098303220853,1,0.0625,0.0625
1480098303243407,-0.125,-0.4375,0.25
1480098303264463,-0.4375,-0.4375,0
1480098303281007,-0.5,-0.25,-0.1875
1480098303303580,0.5,0,-0.25
1480098303325632,1.4375,0.1875,0
1480098303340668,1,0.1875,0
1480098303363226,0.3125,0.125,-0.1875
1480098303385786,-0.3125,-0.125,-0.375
1480098303408346,-0.6875,-0.1875,-0.8125
1480098303423386,0.3125,0.1875,-0.6875
1480098303445948,0.5625,0.3125,-0.5
1480098303459983,0.375,0.3125,-0.4375
1480098303483045,0.6875,0.25,-0.1875
1480098303505605,0.0625,0.25,-0.0625
1480098303520145,-0.5,0.5,-0.0625
1480098303543205,-0.75,0.75,0.0625
1480098303565764,-0.625,0.8125,0
1480098303580303,-0.4375,0.625,0.25
1480098303603365,0.3125,0.4375,-0.0625
1480098303625925,0.5,0.75,-0.4375
1480098303639962,-0.1875,0.5625,-0.375
1480098303663534,-0.25,0.125,-0.25
1480098303685583,-0.4375,-0.25,-0.5
1480098303707142,-0.25,-0.375,-0.5
1480098303723183,-0.0625,0,-0.25
1480098303745743,0.125,0.25,-0.3125
1480098303766800,0.0625,0.4375,-0.4375
1480098303783344,-0.4375,0.8125,-0.125
1480098303805903,-1.5625,1,0.375
1480098303826959,-1.8125,0.75,0.25
1480098303843503,-0.9375,0.8125,0.125
1480098303865561,-0.5,0.8125,0.0625
1480098303887122,-0.3125,0.8125,0.125
1480098303903162,0,0.875,0.125
1480098303925722,0.125,0.75,0.0625
1480098303946778,-0.5,0.5625,0.0625
1480098303963322,-0.75,0.625,-0.0625
1480098303985884,-1.0625,0.75,0
1480098304006938,-0.875,0.75,-0.3125
1480098304023482,-0.5625,0.625,-0.3125
1480098304046042,-0.4375,0.3125,-0.3125
1480098304067098,-0.1875,0.375,-0.3125
1480098304083141,0.0625,0.625,-0.3125
1480098304105701,-0.4375,0.875,-0.1875
1480098304126756,-1.1875,1,0.4375
1480098304143301,-2,1.3125,0.5625
1480098304165862,-1.8125,1.4375,0.75
1480098304186917,-0.875,1.375,0.375
1480098304203461,0.1875,1.3125,-0.1875
1480098304226021,0.875,1.0625,-0.25
1480098304248079,0.5,0.4375,-0.375
1480098304263119,0.0625,-0.3125,-0.4375
1480098304285681,-0.0625,-0.875,-0.5
1480098304308239,0.125,-0.6875,-0.75
1480098304323280,0.25,-0.25,-0.4375
1480098304345839,-0.25,0.1875,-0.375
1480098304368399,-0.125,0.375,-0.25
1480098304382437,-0.6875,0.6875,0.0625
1480098304407004,-2.375,1.3125,0.0625
1480098304428058,-3.0625,1.9375,0.25
1480098304442597,-3.25,1.8125,0.5
1480098304465658,-3.25,1.8125,0.8125
1480098304488218,-3.6875,2.125,0.8125
1480098304502757,-5.5625,3.625,0.8125
1480098304525818,-6.375,3.5625,1.625
1480098304555898,-6.5,3,1.8125
1480098304562917,-7,2.875,1.375
1480098304585978,-7.6875,4.3125,0.9375
1480098304608037,-5.9375,4.75,0.375
1480098304622575,-5.1875,3.8125,0.6875
1480098304645638,-5.125,2.1875,0.9375
1480098304668196,-5.75,2.5625,1.1875
1480098304682735,-3.4375,2.6875,1.3125
1480098304705797,-1.25,1.625,1.8125
1480098304727855,-0.875,0.875,1.8125
1480098304749415,-2,1.1875,1.6875
1480098304765959,-1.9375,2.3125,1.8125
1480098304788516,-1.375,1.9375,1.1875
1480098304809572,-0.0625,0.625,0.5
1480098304825617,0.5625,-0.25,0.1875
1480098304848175,-1.1875,-0.375,-0.625
1480098304869231,-1.8125,0.625,-1.9375
1480098304886778,2.8125,0.25,-1.625
1480098304908335,6.8125,-2.6875,-0.5
1480098304929391,5.8125,-3.9375,-0.625
1480098304945935,5.1875,-2.625,-1.25
1480098304968495,4.1875,-0.625,-1.1875
1480098304989552,0.75,1.3125,-1.375
1480098305006097,-0.625,2.1875,-0.8125
1480098305028154,-1.1875,2.25,-0.375
1480098305049210,-2.375,2.8125,-1.125
1480098305065754,-2.5,3.3125,-1.875
1480098305088314,-2.625,3.25,-2.125
1480098305109370,-2.625,2.625,-2.1875
1480098305125914,-0.625,0.8125,-2.0625
1480098305148475,3.1875,-1.5,-2.25
1480098305169530,5.8125,-3.0625,-2.4375
1480098305185573,6.125,-3.75,-2.1875
1480098305208134,4,-3.5625,-1.6875
1480098305230694,1.25,-3.3125,-1.125
1480098305245734,1.25,-2.25,-0.875
1480098305268293,2.5625,-0.5,-1.125
1480098305290852,1.9375,1.0625,-0.875
1480098305311908,0,1.875,-0.0625
1480098305328453,-3.125,1.75,0.125
1480098305351012,-4,1.5,-0.3125
1480098305365050,-2.4375,1.375,-0.1875
1480098305388111,0.625,0.5,-0.0625
1480098305410671,3.9375,-1,-0.0625
1480098305425213,5.125,-2.3125,0.6875
1480098305448271,4.4375,-2.9375,1.8125
1480098305470832,3.375,-2.875,2.1875
1480098305484868,1.125,-2.6875,1.8125
1480098305508431,1.625,-2.375,1.3125
1480098305530491,2.3125,-1.5,1.3125
1480098305545029,1.5625,-0.1875,1.0625
1480098305568090,0.5625,0.875,1.0625
1480098305591151,-0.8125,1.625,0.5625
1480098305605189,-2.6875,2,0.1875
1480098305628250,-4.0625,2.25,0.0625
1480098305650810,-3.375,1.9375,-0.25
1480098305665850,-1.5,1.75,-0.5625
1480098305688410,0.5625,1.25,-0.4375
1480098305710970,0.875,0.1875,0
1480098305732026,0.5625,-1,0.25
1480098305748576,1,-1.5,0.3125
1480098305770629,1.4375,-1.4375,0.375
1480098305791684,2.5625,-1,0.375
1480098305808230,2.875,-0.75,0.625
1480098305830789,1.875,-0.6875,1
1480098305851844,0.4375,-0.6875,1
1480098305868388,0.0625,0,0.875
1480098305890949,0.75,0.4375,0.625
1480098305912004,1,0.75,0.125
1480098305928553,0.5625,0.6875,0.0625
1480098305950607,-0.3125,0.625,0.1875
1480098305971663,-1.0625,0.5,0.1875
1480098305988708,-0.875,0.3125,-0.1875
1480098306010768,-0.4375,-0.0625,-0.25
1480098306033328,-0.1875,-0.5625,-0.125
1480098306048367,-1.0625,-1,-0.0625
1480098306070930,-1.1875,-1.125,-0.1875
1480098306091983,-0.0625,-1.25,-0.125
1480098306108527,0.5,-1.4375,0
1480098306130586,1.5,-1.75,-0.3125
1480098306153146,1.6875,-1.875,-0.5
1480098306168186,1.375,-2.1875,-0.3125
1480098306190746,1.5625,-2.3125,-0.375
1480098306213306,1.5625,-2,-0.4375
1480098306228847,1.5,-2,-0.5625
1480098306250906,1.75,-1.875,-0.75
1480098306273466,1.1875,-2,-0.75
1480098306287503,0.6875,-1.875,-0.75
1480098306311067,-0.125,-1.8125,-0.6875
1480098306333124,-0.1875,-2,-0.75
1480098306347664,0.125,-2.0625,-1
1480098306370725,0.3125,-2.25,-0.75
1480098306393284,0.875,-2,-0.875
1480098306407823,0.625,-2.1875,-0.5625
1480098306430886,0.4375,-2.1875,-0.9375
1480098306453445,1.1875,-2.3125,-0.75
1480098306467482,1.0625,-2.5625,-1.0625
1480098306490543,1.125,-3.5,-1.8125
1480098306513103,1.5625,-4.5625,-1.875
1480098306527643,1.75,-4.9375,-1.6875
1480098306550706,2,-5,-1.4375
1480098306573264,2.375,-5.5625,-1.375
1480098306594319,2.875,-6.125,-1.3125
1480098306610863,3.6875,-6.1875,-1.5625
1480098306633423,4.5625,-5.375,-1.5625
1480098306654480,4.0625,-5.4375,-1.5
1480098306670522,3.3125,-5.4375,-1.25
1480098306693082,2.875,-5,-1
1480098306714138,2.8125,-4.25,-0.6875
1480098306730682,2.125,-3,-0.6875
1480098306753242,3,-2.375,-0.8125
1480098306774298,2.4375,-1.5,-0.5625
1480098306790842,2.125,-1,-0.3125
1480098306813402,1.875,-0.125,0.125
1480098306834458,0.5625,1.0625,0.5
1480098306850501,2,1.1875,-0.1875
1480098306873064,4.0625,-1.75,1.0625
1480098306894117,8.625,-1.8125,-3.125
1480098306910660,6.375,-0.625,-1.5625
1480098306933220,-6.125,-1.625,0.5
1480098306954277,-14.75,-2.9375,0.0625
1480098306970821,-10.875,-0.3125,0.6875
1480098306993381,-0.3125,2.1875,0.375
1480098307015940,7.0625,2.625,0.875
1480098307030982,6,2.375,-0.6875
1480098307053543,0.4375,1.75,-0.375
1480098307074095,-5.125,0.3125,0.125
1480098307090639,-7.375,-0.3125,-0.125
1480098307113200,-4.25,0.1875,-0.3125
1480098307135759,0.5625,0.75,-0.25
1480098307150801,3,1.25,-0.1875
1480098307173361,1.5625,1.4375,-0.5
1480098307195921,-1.875,0.8125,0.125
1480098307209957,-3.4375,0.75,1.3125
1480098307233018,-2.8125,0.5625,1.125
1480098307255579,-0.125,1,0.6875
1480098307270117,1,1.0625,0.6875
1480098307293178,0.875,0.4375,0.8125
1480098307315739,-0.5625,0.3125,0.75
1480098307330278,-0.8125,0.3125,0.4375
1480098307353339,-0.4375,0.25,0.5625
1480098307375899,0.125,0.3125,0.75
1480098307389935,0.1875,0.6875,0.5625
1480098307413508,-0.8125,0.875,0.3125
1480098307436060,-1.875,0.9375,0.125
1480098307450108,-1.875,0.6875,0.3125
1480098307473156,-1.4375,0.875,0.625
1480098307495717,-0.6875,1.3125,0.6875
1480098307510256,-0.875,1.5625,0.625
1480098307533316,-1.5,1.5625,0.8125
1480098307555876,-1.6875,0.8125,0.8125
1480098307576932,-0.75,0.875,0.5625
1480098307592975,-0.375,0.6875,0.5625
1480098307615535,-0.125,0.8125,0.4375
1480098307636591,-0.25,0.8125,0.625
1480098307653135,-1.0625,0.5,0.6875
1480098307675695,-1.25,0.5625,0.6875
1480098307696751,-1.4375,0.875,0.375
1480098307713295,-1.5,0.9375,0.1875
1480098307735855,-0.875,1,-0.125
1480098307756911,-0.5625,0.8125,-0.0625
1480098307773455,-0.125,0.25,-0.4375
1480098307795515,-0.0625,-0.0625,-0.5625
1480098307817072,-0.125,-0.4375,-0.6875
1480098307833114,-0.625,-0.5625,-0.625
1480098307855674,-0.25,-0.625,-0.4375
1480098307876730,0.6875,-0.375,-0.3125
1480098307893274,1.4375,-0.25,-0.3125
1480098307915835,0.75,-0.3125,-0.375
1480098307936898,-0.125,-0.25,-0.375
1480098307953435,-0.5625,-0.1875,-0.625
1480098307975493,-0.1875,-0.3125,-0.5625
1480098307998054,-0.1875,-0.4375,-0.5
1480098308013092,0.4375,-0.625,-0.5
1480098308035653,0.5,-0.4375,-0.6875
1480098308058214,0.5,-0.1875,-0.4375
1480098308073261,0.125,-0.4375,-0.1875
1480098308095813,0.4375,-0.375,-0.5625
1480098308118373,0.8125,0.0625,-0.5
1480098308132411,0.75,0.125,-0.4375
1480098308163492,0.875,0.1875,-0.625
1480098308178534,-0.125,-0.125,-0.5
1480098308192571,-0.75,-0.125,-0.0625
1480098308215631,-1,0.25,0.25
1480098308238191,-0.8125,0.375,0.125
1480098308252732,-0.375,0.75,0.1875
1480098308275792,0.1875,1.1875,0.125
1480098308298352,-0.4375,1.375,0.25
1480098308312389,-1,1,0.3125
1480098308335955,-1.375,0.9375,0.125
1480098308358010,-1.4375,1.1875,0
1480098308372550,-0.9375,1.3125,0.1875
1480098308395610,-0.5625,1.1875,0.25
1480098308418171,-0.1875,1.25,0.125
1480098308432712,-0.5625,1.5625,0.25
1480098308455770,-1.5625,1.5,0.4375
1480098308478330,-2.4375,1.25,0.75
1480098308492367,-3.125,0.75,1.125
1480098308515930,-2.1875,0.5,0.875
1480098308537988,-1.1875,0.4375,0.125
1480098308559546,-0.6875,0.1875,0.0625
1480098308575589,0.1875,-0.125,0
1480098308598149,-0.1875,-0.25,0.1875
1480098308619206,-0.1875,-0.875,0.0625
1480098308635749,0.1875,-0.75,-0.125
1480098308658309,0.875,-0.3125,-0.5
1480098308679365,2.25,0.25,-0.375
1480098308695909,2.0625,0.25,-0.25
1480098308718469,0.625,-0.125,-0.3125
1480098308739524,-0.375,-0.25,-0.25
1480098308755567,-0.75,0,-0.25
1480098308778127,-0.75,0.3125,-0.4375
1480098308799183,0.75,0.5625,-0.5625
1480098308815728,1.1875,0.5,-0.25
1480098308838288,0.0625,0.5625,-0.4375
1480098308859344,-0.625,0.5625,-0.4375
1480098308877392,-1.1875,0.6875,-0.375
1480098308898447,-0.875,0.75,-0.4375
1480098308919503,-0.125,0.8125,-0.4375
1480098308935547,0.5625,0.6875,-0.5625
1480098308958107,0.25,0.5625,-0.5625
1480098308979163,-0.25,0.375,-0.4375
1480098308995709,-0.4375,0.3125,-0.6875
1480098309018266,-0.25,0.125,-0.4375
1480098309040827,0,-0.125,-0.125
1480098309055866,-0.3125,-0.3125,-0.25
1480098309078427,-0.375,-0.125,-0.1875
1480098309100987,-0.0625,-0.125,0.0625
1480098309115024,0.0625,0.1875,0.1875
1480098309144101,0,0.3125,0.5
1480098309160646,-0.375,0.375,0.375
1480098309175184,0.25,0.625,0.3125
1480098309205766,0.75,0.875,0.4375
1480098309220809,0.625,0.875,0.125
1480098309235346,0,0.75,0.25
1480098309258405,-0.4375,0.1875,-0.1875
1480098309280971,-0.875,0.0625,-0.1875
1480098309295002,-1.6875,0.1875,0.125
1480098309318063,-1.4375,0.25,-0.0625
1480098309357167,-0.4375,0.6875,0
1480098309361714,0.5,0.5,0.25
1480098309378223,0.375,0.375,0.3125
1480098309401285,0.125,0.6875,0.3125
1480098309421839,-0.625,0.6875,0.0625
1480098309438384,-0.875,0.8125,0.0625
1480098309460943,-0.4375,0.5,0.3125
1480098309481999,0.0625,0.5,0.3125
1480098309499045,-0.0625,0.5625,0.375
1480098309520602,0.125,0.5,0.125
1480098309541658,-0.0625,-0.125,-0.1875
1480098309558202,2.1875,-1.3125,-0.6875
1480098309580762,7.25,-2,-1.375
1480098309601818,7.75,0.25,0.3125
1480098309618864,12.1875,-0.5625,7.5625
1480098309640922,12.875,2.0625,10.8125
1480098309661980,5.3125,4.1875,1.8125
1480098309678022,-2.4375,4.875,1
1480098309700581,-2.5,2.3125,1.8125
1480098309721637,-0.6875,0.8125,0.5
1480098309745701,-0.75,2.1875,0.625
1480098309760740,-1.5625,2.875,0.3125
1480098309781797,-2.875,3.25,-0.8125
1480098309798340,-0.875,3.0625,-2.25
1480098309820900,1.0625,1.8125,-2.1875
1480098309841956,-0.5625,-3.125,-0.25
1480098309857999,-2.75,-5.8125,-2
1480098309880559,-7.5625,-4.125,-4.125
1480098309903119,-7.125,-0.375,-2.6875
1480098309917658,-1.4375,0.9375,-0.125
1480098309940719,0.4375,0.0625,-3.3125
1480098309963279,-0.5625,0.5625,-0.25
1480098309978319,-1.5625,0.3125,1
1480098310000881,-5.3125,-0.3125,-2.25
1480098310023439,-3.875,-0.1875,0
1480098310045999,0.4375,-0.0625,0.3125
1480098310061039,-0.625,0.4375,-0.5
1480098310083099,-1.4375,0.3125,-0.125
1480098310097640,-1.25,-0.125,-0.3125
1480098310120697,-0.1875,-0.25,-0.125
1480098310143259,0.5,0.125,-0.0625
1480098310157797,0.1875,0.1875,0.125
1480098310180858,-1.4375,0.375,-0.125
1480098310203422,-2.125,0.375,-0.1875
1480098310217455,-1.25,0.3125,-0.25
1480098310240517,-0.125,0.4375,-0.1875
1480098310263077,-0.3125,0.3125,-0.4375
1480098310277619,-0.25,0.1875,-0.375
1480098310300677,-0.4375,0.0625,-0.375
1480098310323237,-0.125,-0.375,-0.25
1480098310337275,0.1875,-0.5,-0.125
1480098310360838,0.3125,-0.625,-0.125
1480098310383396,0.1875,-0.5625,-0.1875
1480098310404453,0.0625,-0.5625,-0.0625
1480098310421498,0.4375,-0.5625,-0.0625
1480098310443055,0.5625,-0.4375,-0.1875
1480098310464113,0.125,-0.1875,-0.1875
1480098310481658,-0.0625,0,-0.375
1480098310503216,-0.3125,0.25,-0.4375
1480098310524271,-0.4375,0.5625,-0.0625
1480098310540816,0,0.9375,0.1875
1480098310563375,0.625,1,0.1875
1480098310584431,0.75,1.125,0.125
1480098310600975,-0.25,1.375,0.0625
1480098310623034,-0.9375,1.375,0.4375
1480098310644090,-1.625,1.125,0.5
1480098310660636,-1.8125,0.8125,0.375
1480098310683194,-0.9375,0.625,0.375
1480098310704250,-0.5,0.5,0.4375
1480098310721295,-0.3125,0.1875,0.3125
1480098310743354,-0.0625,0.0625,0.25
1480098310764414,-0.125,-0.0625,0.125
1480098310780953,0.125,-0.5,0.0625
1480098310803014,0.8125,-0.5625,-0.125
1480098310824069,0.8125,-0.625,-0.25
1480098310840614,0.25,-0.75,-0.4375
1480098310863173,-0.125,-0.5625,-0.5
1480098310884230,0.0625,-0.5,-0.3125
1480098310900772,0.25,-0.375,-0.3125
1480098310923333,-0.1875,-0.125,-0.1875
1480098310945892,-0.5,-0.125,-0.125
1480098310960933,-0.875,0,0
1480098310983493,-0.875,0.0625,0.0625
1480098311013072,-0.6875,0.125,-0.0625
1480098311020591,-0.3125,0.1875,0.0625
1480098311043152,0.0625,0.1875,0.125
1480098311065711,0.375,0.3125,0.125
1480098311080251,0.125,0.25,0.125
1480098311103312,-0.3125,0.3125,0
1480098311125872,-0.6875,0.4375,-0.1875
1480098311139910,-0.5625,0.4375,-0.1875
1480098311163486,-0.1875,0.3125,-0.125
1480098311185532,0.25,0.25,0.0625
1480098311200069,0,0.0625,-0.0625
1480098311223130,-0.5,0,-0.0625
1480098311245690,-0.25,-0.375,0.0625
1480098311260229,-0.3125,-0.3125,0.0625
1480098311284294,0.1875,-0.125,0.3125
1480098311305850,0.125,0.125,0.4375
1480098311319888,-0.3125,0.3125,0.4375
1480098311343450,0.0625,0.125,0.5
1480098311365509,0.3125,0,0.125
1480098311386568,0.25,0.1875,-0.4375
1480098311403110,0.3125,0.375,-0.375
1480098311425670,0.3125,0.1875,-0.125
1480098311446724,0,-0.1875,-0.25
1480098311463268,-0.125,-0.25,-0.25
1480098311486831,-0.3125,-0.125,-0.1875
1480098311506885,-0.9375,0.0625,-0.0625
1480098311523428,-0.75,0.0625,-0.1875
1480098311545988,0.5625,0.0625,-0.0625
1480098311566543,0.6875,0.0625,0.1875
1480098311583090,0.125,-0.125,0.1875
1480098311606651,-0.0625,-0.1875,0.0625
1480098311626703,-0.1875,-0.0625,-0.1875
1480098311643248,0.0625,0.1875,0.0625
1480098311665807,0,0.3125,0.125
1480098311686863,-0.1875,0.3125,-0.125
1480098311703408,-0.125,0.25,-0.125
1480098311725466,-0.25,0.1875,-0.0625
1480098311746522,-0.625,0.1875,-0.1875
1480098311770586,-0.6875,0,-0.1875
1480098311785628,-0.3125,-0.1875,-0.125
1480098311807184,0.1875,-0.3125,-0.0625
1480098311823226,0.5,-0.375,-0.1875
1480098311845786,0.25,-0.4375,-0.125
1480098311868848,0,-0.4375,-0.125
1480098311883386,0,0,0.0625
1480098311905946,-0.5,0,0.25
1480098311928508,-0.1875,0,0
1480098311943045,0.0625,0.0625,-0.1875
1480098311965605,0,0.0625,-0.25
1480098311988165,-0.375,0,-0.125
1480098312002703,-0.375,0,-0.125
1480098312025764,0.1875,0.25,0.125
1480098312048327,0.875,-0.5625,0.0625
1480098312062362,0.375,-0.25,0.3125
1480098312085924,0.0625,-0.0625,0.125
1480098312107983,0.3125,0,0
1480098312122522,-0.75,0.125,0.1875
1480098312146086,-0.9375,0.625,0.3125
1480098312168144,-0.5625,0.5,0.1875
1480098312182682,-0.5,0.375,-0.3125
1480098312205746,-0.0625,0.5625,-0.4375
1480098312228303,0.375,0.5,-0.1875
1480098312249359,0,0.0625,0
1480098312265903,-0.5625,-0.3125,-0.125
1480098312287962,-0.4375,-0.5625,-0.1875
1480098312309019,0.25,-0.4375,0
1480098312325562,0.375,-0.375,0.125
1480098312348122,0.125,-0.4375,-0.0625
1480098312369178,0.625,-0.125,-0.25
1480098312385742,0.25,-0.0625,0.0625
1480098312408282,-0.3125,-0.0625,0.0625
1480098312429338,-0.5625,0.0625,-0.125
1480098312445882,-0.4375,0.125,-0.25
1480098312468444,0.0625,0.25,-0.125
1480098312488998,0.0625,0.1875,0.0625
1480098312505540,-0.0625,0.125,0.0625
1480098312528101,-0.1875,0.1875,-0.125
1480098312549157,-0.4375,0.25,-0.1875
1480098312565701,-0.8125,0.0625,-0.0625
1480098312588272,-0.5625,0,0.0625
1480098312609317,0.0625,-0.25,0
1480098312625860,0.3125,-0.4375,-0.125
1480098312647919,0.0625,-0.3125,-0.25
1480098312669476,0,-0.3125,-0.25
1480098312685519,0,-0.375,-0.125
1480098312708080,-0.125,-0.4375,-0.125
1480098312729639,0.25,-0.125,-0.0625
1480098312753199,0.1875,-0.0625,0
1480098312768741,0,-0.125,0.0625
1480098312790800,-0.1875,0,-0.0625
1480098312805840,-0.1875,0,-0.0625
1480098312828399,-0.375,-0.125,0.125
1480098312850959,-0.5625,-0.4375,0.125
1480098312866001,0.0625,-0.375,-0.25
1480098312871013,0.6875,-0.4375,-0.25
1480098312893573,0.1875,-0.5625,0.0625
1480098312916132,-0.125,-0.375,0.0625
1480098312931173,0.25,-0.1875,0.125
1480098312953733,0.375,-0.375,0.1875
1480098312976292,0.625,-0.3125,0.25
1480098312992335,0.4375,-0.4375,0.25
1480098313013392,0.375,-0.4375,0.1875
1480098313035959,0.25,-0.6875,0.125
1480098313052498,-0.25,-1.3125,0.125
1480098313073551,-0.25,-2.0625,0.0625
1480098313096112,0.625,-2.8125,-0.25
1480098313112657,1.375,-3.625,-0.25
1480098313133712,1.75,-4.375,-0.25
1480098313156272,1.5625,-4.6875,-0.25
1480098313172314,1.5625,-4.25,-0.25
1480098313193370,1.6875,-3.3125,0.0625
1480098313215930,1.875,-2.5625,-0.0625
1480098313232474,2,-1.5625,-0.3125
1480098313253530,0.375,-0.75,-0.125
1480098313276096,-1.9375,-0.125,0
1480098313292636,-3.75,0.3125,0.25
1480098313313690,-3.75,0.875,0.4375
1480098313336250,-2.1875,1.0625,0.625
1480098313352294,-0.9375,1.25,0.625
1480098313373850,-0.75,1.125,0.75
1480098313395910,-1.1875,1,0.8125
1480098313412455,-1.4375,0.875,0.75
1480098313433508,-1.125,1,0.5625
1480098313456068,-0.375,1.1875,0.25
1480098313474118,0.25,1.3125,0.125
1480098313493668,0.375,1.3125,0.0625
1480098313516229,0.1875,1.375,0
1480098313534277,0.0625,1.625,-0.0625
1480098313553328,-0.5625,1.875,-0.1875
1480098313575887,-1.375,2.125,-0.375
1480098313598447,-1.8125,2.25,-0.3125
1480098313613487,-1.8125,2.0625,-0.1875
1480098313636047,-0.375,2.0625,-0.375
1480098313658607,0.375,2,-0.1875
1480098313673647,0.0625,1.6875,-0.4375
1480098313696207,-0.25,1.375,-0.5625
1480098313718767,-0.5,1.0625,-0.375
1480098313734810,-0.4375,0.625,-0.0625
1480098313758874,-0.1875,0.875,-0.0625
1480098313778426,-0.5,0.875,-0.25
1480098313793466,-0.4375,1.0625,-0.25
1480098313816025,0,0.9375,-0.125
1480098313838588,-0.125,0.9375,-0.4375
1480098313853626,-0.1875,0.9375,-0.1875
1480098313876186,-0.6875,0.875,0.25
1480098313898746,-0.6875,0.75,0.1875
1480098313913785,-0.0625,0.75,-0.0625
1480098313935845,0.0625,0.9375,-0.125
1480098313958407,0.0625,1,0.25
1480098313973444,-0.125,0.875,0.5
1480098313996004,-0.3125,0.8125,0.5
1480098314018565,0.0625,1,0.4375
1480098314033606,-0.125,1.1875,0.25
1480098314063685,-0.25,1.25,0.25
1480098314078725,-0.875,1.0625,0.1875
1480098314093764,-1.4375,1,0.125
1480098314115823,-0.875,0.9375,0.3125
1480098314138383,-0.375,0.875,0.0625
1480098314153423,-0.125,0.875,0.125
1480098314175983,-0.5625,0.6875,0.3125
1480098314198543,-0.8125,0.5625,0.25
1480098314213583,-0.6875,0.5,0.25
1480098314236146,-0.4375,0.625,0.1875
1480098314258703,0.1875,0.5625,0.1875
1480098314273743,-0.1875,0.4375,0.375
1480098314296303,-0.875,0.625,0.375
1480098314318365,-0.8125,0.6875,0.5625
1480098314334908,-0.4375,0.75,0.625
1480098314355962,0.5625,0.6875,0.375
1480098314378523,0.25,1,0.25
1480098314401082,0,0.8125,0.375
1480098314416130,-0.3125,0.625,0.4375
1480098314438684,-1.125,0.4375,0.25
1480098314455235,-1.25,0.4375,0.1875
1480098314476282,-1.125,0.3125,0.1875
1480098314498842,-0.75,0.125,0.125
1480098314514884,-0.0625,0.125,0.0625
1480098314535940,0.25,0.25,0.1875
1480098314559003,-0.0625,0.0625,0.125
1480098314575046,-0.5625,0.0625,0.125
1480098314596101,-0.125,0,0
1480098314618661,0.0625,0,-0.0625
1480098314635205,0.25,0,-0.0625
1480098314656260,0.3125,0,-0.1875
1480098314678332,0.0625,0,-0.25
1480098314696367,-0.0625,0,-0.3125
1480098314715919,-0.375,0,-0.25
1480098314738480,-0.5625,-0.1875,-0.25
1480098314756527,-0.1875,-0.25,-0.1875
1480098314776079,0.25,-0.3125,-0.3125
1480098314798639,0.25,-0.3125,-0.3125
1480098314816687,0.0625,-0.5625,-0.125
1480098314836239,0.0625,-0.5625,-0.125
1480098314858800,0.1875,-0.5,-0.1875
1480098314882365,0.6875,-0.25,-0.25
1480098314895898,0.1875,-0.25,-0.125
1480098314918460,0.0625,-0.125,-0.25
1480098314936506,0.1875,0,-0.375
1480098314956058,-0.0625,0,-0.25
1480098314978618,-0.1875,-0.0625,-0.25
1480098314996666,-0.4375,-0.125,-0.125
1480098315016233,-0.8125,0.1875,-0.1875
1480098315038779,0,0.3125,0
1480098315060836,0.3125,0,0.1875
1480098315075876,0.6875,-0.0625,-0.0625
1480098315098437,0.625,0.125,-0.125
1480098315120996,0.25,0.25,-0.0625
1480098315143560,-0.375,0,0.0625
1480098315158596,-0.625,-0.125,0.0625
1480098315181156,-0.1875,-0.25,0.0625
1480098315196196,0.1875,0,0.0625
1480098315218758,0,0.0625,0
1480098315241316,-0.5,0,0.0625
1480098315255855,0,-0.125,0.25
1480098315278415,0.1875,-0.3125,0.5625
1480098315300977,0.125,-0.3125,0.375
1480098315317519,0.1875,-0.375,0.3125
1480098315338575,0.25,-0.1875,0.1875
1480098315361135,0.375,-0.3125,0.375
1480098315377679,0.6875,-0.25,0.5
1480098315398735,0.25,-0.0625,0.125
1480098315421295,-0.25,0,0.1875
1480098315437338,-0.9375,0.1875,0.25
1480098315458394,-1.375,0.25,0.0625
1480098315480954,-1.1875,0.4375,0
1480098315497498,-0.6875,0.5,-0.1875
1480098315518554,-0.625,0.5,-0.125
1480098315541118,-0.625,0.4375,0.125
1480098315557662,-1,0.25,0.1875
1480098315578717,-0.5625,0.125,0
1480098315601280,-0.125,0,-0.125
1480098315618825,0.0625,-0.0625,-0.0625
1480098315638376,0.0625,-0.125,0.0625
1480098315660936,0.0625,-0.125,0.0625
1480098315678985,0.3125,-0.25,-0.0625
1480098315698537,0.5,-0.375,-0.125
1480098315721096,-0.1875,-0.1875,0.125
1480098315739145,-0.125,0.0625,0.0625
1480098315758696,0.0625,0.25,0.125
1480098315781256,0.125,0.0625,-0.0625
1480098315798804,0.375,0.1875,-0.4375
1480098315818857,0.25,0.4375,-0.3125
1480098315840915,-0.3125,0.25,0
1480098315858964,-1.25,0.125,-0.125
1480098315878516,-0.6875,0.0625,-0.125
1480098315901078,0.0625,0,-0.125
1480098315919124,0.1875,-0.125,0
1480098315938676,0.0625,-0.25,0
1480098315961235,0.0625,-0.25,-0.1875
1480098315978782,0.0625,-0.25,0.0625
1480098315998333,0,-0.375,-0.125
1480098316020948,0.125,-0.0625,-0.1875
1480098316038944,0.0625,0,-0.3125
1480098316058494,0.0625,0,-0.25
1480098316081054,0.0625,0.125,-0.1875
1480098316099102,0,0,-0.125
1480098316118654,-0.0625,0.125,-0.125
1480098316141214,-0.1875,0.0625,-0.1875
1480098316158762,-0.4375,0.0625,-0.125
1480098316178312,-0.6875,0.0625,-0.125
1480098316200875,-0.375,0.0625,-0.0625
1480098316218924,-0.375,0,0.0625
1480098316239977,-0.1875,0,0
1480098316261033,-0.1875,0.125,0.125
1480098316279086,-0.4375,0.25,0.1875
1480098316300137,-0.8125,0.3125,0.125
1480098316321192,-0.5625,0.4375,0.25
1480098316338739,-0.6875,0.625,0.1875
1480098316361300,-0.75,0.5,0.0625
1480098316381355,-0.625,0.625,0
1480098316398902,-0.8125,0.5625,-0.125
1480098316419956,-0.6875,0.1875,-0.125
1480098316441011,-0.5625,-0.0625,0.0625
1480098316459059,-0.4375,0,0.125
1480098316480115,0.375,0.0625,0.125
1480098316501179,0.6875,0,0
1480098316519220,1.1875,-0.25,-0.125
1480098316540275,1.1875,-0.125,-0.0625
1480098316560830,0.5625,0,0
1480098316578878,0,-0.0625,0
1480098316601939,-0.25,-0.25,-0.1875
1480098316620990,-0.0625,-0.3125,0
1480098316643553,0.1875,-0.375,0.0625
1480098316661598,0.125,-0.3125,0.1875
1480098316681202,-0.25,-0.375,-0.125
1480098316703716,0.25,-0.3125,-0.25
1480098316721256,0.4375,-0.3125,-0.125
1480098316740810,0.625,-0.3125,-0.125
1480098316763383,0.5625,-0.4375,-0.25
1480098316781416,0.25,-0.5,-0.25
1480098316808490,0.1875,-0.5,-0.25
1480098316823529,0.5625,-0.375,-0.25
1480098316841577,0.5625,-0.3125,-0.1875
1480098316861128,0.375,-0.125,-0.1875
1480098316883689,0.125,-0.0625,-0.125
1480098316901739,-0.5625,-0.1875,-0.0625
1480098316921289,-0.375,-0.1875,0.0625
1480098316943407,-0.125,-0.0625,0.125
1480098316961396,0.0625,0,-0.0625
1480098316980947,0.125,-0.0625,-0.125
1480098317003567,0.4375,-0.1875,0.0625
1480098317021592,0.375,-0.25,0.0625
1480098317041109,0.0625,-0.3125,-0.125
1480098317063705,-0.1875,-0.375,-0.125
1480098317081717,0.1875,-0.3125,-0.125
1480098317101284,0.375,-0.3125,-0.125
1480098317123845,0.5,-0.375,-0.1875
1480098317141374,0.1875,-0.4375,-0.125
1480098317160967,0.3125,-0.5625,-0.125
1480098317183487,0.5625,-0.625,-0.0625
1480098317201534,0.4375,-0.625,0
1480098317222590,0.4375,-0.625,0.0625
1480098317243645,0.375,-0.625,0.125
1480098317261192,0.25,-0.375,0.125
1480098317282248,0.5625,-0.1875,0.5625
1480098317303805,0.4375,-0.375,0.375
1480098317321354,0.8125,-0.4375,0.0625
1480098317342409,0.625,-0.5625,0.125
1480098317366473,0.6875,-0.5625,0.3125
1480098317381512,0.625,-0.375,0.125
1480098317402569,0.0625,-0.125,-0.5625
1480098317423625,0.25,-0.5625,-0.375
1480098317441673,0.375,-0.875,0.375
1480098317462729,-0.0625,-0.5625,0.1875
1480098317491306,-0.8125,-0.3125,-0.3125
1480098317501331,-0.3125,-0.25,-0.125
1480098317522387,0.375,-0.1875,0.125
1480098317543443,1.0625,-0.125,0
1480098317561491,0.5625,-0.25,0.1875
1480098317584052,-0.375,-0.5,0.125
1480098317603603,0.0625,-0.5,0.25
1480098317621651,0.5625,-0.625,0.25
1480098317644212,0.875,-1.3125,0.125
1480098317663763,1.25,-2.0625,-0.3125
1480098317681310,1.125,-2.3125,-0.4375
1480098317703869,0.8125,-2.9375,-0.125
1480098317723422,0.9375,-3.3125,0.0625
1480098317745982,0.875,-3.375,-0.1875
1480098317764030,0.5,-3.0625,-0.4375
1480098317783582,0.9375,-2.5,-0.25
1480098317801629,1.75,-2.1875,-0.625
1480098317824189,1.8125,-2.25,-0.875
1480098317843741,0.875,-2.375,-1.0625
1480098317861303,-0.25,-2.4375,-0.9375
1480098317883848,-1.25,-2.25,-0.6875
1480098317903401,0.5,-1.9375,-0.5
1480098317921448,2.875,-1.75,0
1480098317944008,2.3125,-1.5625,-0.375
1480098317963561,1.625,-1.1875,-0.1875
1480098317981646,1.25,-1.125,0
1480098318004194,0.8125,-1.1875,-0.1875
1480098318023720,0.875,-1.375,-0.375
1480098318041769,1.3125,-1.5625,-0.5
1480098318063827,0.8125,-1.4375,-0.375
1480098318083880,0.3125,-1.125,-0.4375
1480098318105939,0.4375,-0.875,-0.5
1480098318123987,0.9375,-0.5625,-0.4375
1480098318146547,1,-0.4375,-0.4375
1480098318166099,0.6875,-0.0625,-0.5
1480098318184149,0,0.25,-0.125
1480098318205203,-0.625,0.125,0.0625
1480098318227763,-0.375,0.375,-0.125
1480098318243807,0,0.5625,-0.1875
1480098318264863,0.1875,0.6875,0.0625
1480098318285918,-0.375,0.625,0.375
1480098318304041,-0.875,0.875,0.25
1480098318325022,-0.875,0.75,0.25
1480098318346078,-0.5625,0.625,0.125
1480098318368638,-0.625,0.3125,-0.0625
1480098318385185,-1.125,0,-0.375
1480098318406237,-1.4375,-0.5,-0.125
1480098318423793,0.125,-0.8125,-0.125
1480098318444841,0.875,-0.6875,-0.25
1480098318465898,0.5,-0.5,-0.375
1480098318488496,0.6875,-0.5,-0.3125
1480098318506504,0.0625,-0.4375,-0.125
1480098318526057,-0.375,-0.5625,-0.125
1480098318544104,0.25,-0.3125,0.125
1480098318567667,-0.0625,-0.0625,0.125
1480098318586216,-0.25,0.0625,-0.0625
1480098318603763,-0.0625,-0.1875,0.5625
1480098318626323,-0.125,-0.1875,0.3125
1480098318645875,0.375,0.3125,0.0625
1480098318663923,0.4375,0.5,0.0625
1480098318686486,0.125,0.3125,0.5
1480098318706036,-0.625,0.1875,0.625
1480098318724083,-1,0.125,0.5
1480098318754163,-0.75,0.4375,0.25
1480098318766195,-0.5625,0.5625,0.1875
1480098318783743,-0.375,0.5,0.3125
1480098318806302,0,0.375,0.1875
1480098318825854,-0.25,0.375,0.125
1480098318843916,-0.6875,0.1875,0.125
1480098318866463,-0.375,0.125,0.25
1480098318886037,0.3125,-0.0625,0.3125
1480098318904062,0.75,-0.0625,0.125
1480098318926623,0.5,0.6875,-0.4375
1480098318946174,0.375,0.625,0.375
1480098318963721,-1.25,-0.5,0.3125
1480098318986782,-1.125,-0.4375,-0.25
1480098319005832,0.3125,-0.0625,-0.1875
1480098319023880,0.625,-0.125,-0.25
1480098319046440,1.1875,-0.3125,-0.75
1480098319065993,0.875,-0.625,-0.625
1480098319088553,-0.5,-0.9375,-0.1875
1480098319106600,-1.0625,-0.5625,-0.25
1480098319127656,-0.75,0.125,-0.25
1480098319143699,0.1875,0.375,0.0625
1480098319166760,0.125,0.25,0.125
1480098319193331,0.8125,0.5625,0.0625
1480098319203865,0.6875,0.4375,0.5625
1480098319226419,0.625,-0.1875,0.4375
1480098319247476,1.125,-0.1875,-0.3125
1480098319264019,1.0625,-0.1875,-0.6875
1480098319286579,1.3125,-0.3125,-0.25
1480098319307637,0.3125,-0.625,-0.25
1480098319324191,-0.1875,-1.25,-0.5625
1480098319346238,0.9375,-1.3125,-0.9375
1480098319367298,1.375,-0.625,-0.8125
1480098319383838,0.9375,-0.8125,-0.625
1480098319406407,0.5625,-1.1875,-0.4375
1480098319428958,0.6875,-0.9375,-0.3125
1480098319448510,0,-0.6875,-0.0625
1480098319471073,0.1875,-0.625,0.375
1480098319489119,0,-0.1875,0.3125
1480098319508669,0.375,-0.125,0.0625
1480098319526717,1.1875,-0.125,0.1875
1480098319548776,0.625,-0.0625,0.0625
1480098319568830,0.1875,-0.125,0
1480098319586378,-0.75,-0.3125,0
1480098319608937,-1.0625,-0.25,-0.25
1480098319628488,0.0625,-0.125,-0.4375
1480098319646536,0.375,0.0625,-0.25
1480098319669598,0,-0.0625,-0.0625
1480098319689150,-0.8125,0.25,0
1480098319705694,-1,0.375,0.1875
1480098319728755,-0.4375,0.375,0.4375
1480098319749811,-0.375,0.375,0.5
1480098319765858,-0.4375,1.0625,0.1875
1480098319787912,-0.125,1.3125,0.1875
1480098319808969,-0.5,1.3125,-0.125
1480098319825512,-1,1.5,-0.125
1480098319848074,-1.125,1.4375,0.0625
1480098319869128,-0.5,1.3125,0.125
1480098319885672,-0.8125,1.0625,0
1480098319908233,-1.1875,1,0.125
1480098319936809,-0.6875,1.0625,0.4375
1480098319945833,-0.25,0.9375,0.5
1480098319967891,-0.1875,0.9375,0.25
1480098319988947,0.25,1.0625,0.125
1480098320005491,-0.0625,1.0625,0.5625
1480098320028553,-1.25,0.875,0.625
1480098320051616,-1.375,1,0.25
1480098320065651,-0.75,1.25,0.125
1480098320088211,-0.6875,1.25,0.0625
1480098320109268,-0.625,1.25,0.0625
1480098320125815,-0.5,1.1875,0.0625
1480098320148371,-0.8125,0.875,0.1875
1480098320169427,-0.6875,0.625,0.1875
1480098320185470,-0.5,0.6875,0.125
1480098320208030,-0.375,0.75,-0.125
1480098320229085,0.0625,0.75,-0.125
1480098320245630,-0.375,0.4375,-0.1875
1480098320268190,-0.9375,0.4375,-0.0625
1480098320289245,-0.5625,0.8125,0.1875
1480098320305790,-0.3125,0.875,0.4375
1480098320335870,-0.5625,1.3125,0.25
1480098320349405,-0.5,1.625,0.625
1480098320365448,-1.375,1.1875,0.75
1480098320388009,-1.1875,1.0625,0.25
1480098320410569,-0.5625,1.1875,0.125
1480098320425608,0.0625,1.1875,-0.0625
1480098320448168,0.0625,0.9375,-0.0625
1480098320470729,-0.875,0.3125,0
1480098320485769,-1,0.1875,0.125
1480098320508329,-0.625,0.375,0.1875
1480098320530387,-0.375,0.4375,0.3125
1480098320544928,0.25,0.5,0.125
1480098320567989,0.9375,0.875,0.1875
1480098320590549,0.1875,0.8125,0.5625
1480098320605086,-0.75,0.6875,0.625
1480098320628147,-0.8125,0.5,0.625
1480098320650707,-0.6875,0.5,0.5625
1480098320664744,-0.0625,0.5625,0.5625
1480098320688308,0.5,0.5,0.3125
1480098320710872,-0.125,0.25,0.375
1480098320731923,-0.6875,-0.1875,0.375
1480098320748468,-1.3125,-0.6875,0.5
1480098320770526,-1.8125,-0.375,0.4375
1480098320785065,-1.4375,-0.125,0.3125
1480098320808125,-0.5,0.125,0.125
1480098320830686,-0.1875,0.375,0.0625
1480098320844724,-0.25,0.25,0.125
1480098320868288,-0.8125,0.25,0.125
1480098320890846,-0.6875,0.375,0.3125
1480098320911901,-0.125,0.3125,0.5
1480098320927944,0.0625,0.4375,0.3125
1480098320950504,0.625,0.75,0.5
1480098320971565,0.5625,0.6875,0.6875
1480098320988106,0.5625,0.5625,0.375
1480098321010665,0.1875,0.6875,0.1875
1480098321031721,-0.3125,0.8125,0.375
1480098321048264,-0.75,0.8125,0.375
1480098321070866,-1.6875,0.625,0.4375
1480098321091881,-1.125,0.3125,0.25
1480098321107925,-0.5,0.375,0.3125
1480098321136499,-0.375,0.25,0.3125
1480098321151539,-0.125,0.125,0.0625
1480098321168083,0.375,0,0.125
1480098321190643,0.25,-0.375,0.125
1480098321211699,0.3125,-0.5,0.125
1480098321228244,0.5,-0.25,-0.0625
1480098321250807,0.375,0,-0.0625
1480098321271859,0.5,-0.125,0.125
1480098321287902,0.1875,-0.0625,0.125
1480098321310462,-0.0625,0.125,0
1480098321333024,-0.1875,0.375,-0.0625
1480098321348062,-0.875,0.375,0.0625
1480098321370622,-0.875,0.375,-0.125
1480098321393182,-0.75,0.1875,-0.1875
1480098321408222,-0.1875,0,0.0625
1480098321430783,-0.0625,0,-0.0625
1480098321453342,0.0625,0.0625,-0.1875
1480098321467384,0.1875,-0.125,-0.0625
1480098321490440,-0.125,-0.1875,0.0625
1480098321513001,-0.1875,-0.25,0
1480098321527539,0.1875,0.0625,0
1480098321551605,0,0.0625,0.125
1480098321573160,-0.0625,0.1875,0.1875
1480098321587700,-0.9375,0.125,0.4375
1480098321610760,-1,0.4375,0.375
1480098321633320,-0.625,0.5625,0.5625
1480098321647358,-0.1875,0.5,0.3125
1480098321670421,0.25,0.5625,0.0625
1480098321692980,0.125,0.625,0.125
1480098321708521,-0.625,0.375,0.5
1480098321730579,-1,0.1875,0.5
1480098321753143,-0.875,0.125,0.1875
1480098321767687,-0.1875,0.1875,0.3125
1480098321790739,-0.5,0.25,0.375
1480098321813299,-0.9375,0.125,0.4375
1480098321834355,-0.375,0.25,0.0625
1480098321850398,0.0625,0.25,0.3125
1480098321872961,-0.1875,0.0625,0.3125
1480098321894014,-0.1875,-0.0625,0.1875
1480098321910558,-0.4375,-0.0625,0.125
1480098321933119,-0.125,0.125,0.125
1480098321954173,0.3125,0.0625,0.3125
1480098321970718,0,0.25,0.25
1480098321993278,-0.4375,0.25,0.1875
1480098322014334,-0.75,0.25,0.125
1480098322030880,-0.875,0.25,0.125
1480098322052936,-0.5625,0.25,0.125
1480098322073992,-0.25,0.1875,0.0625
1480098322098056,-0.1875,0.0625,-0.0625
1480098322113096,-0.25,0,-0.0625
1480098322134153,-0.4375,0.0625,0.125
1480098322150697,-0.25,0,0
1480098322173257,0.125,0.125,-0.125
1480098322194312,0.125,0,-0.0625
1480098322210856,0,-0.0625,0.125
1480098322232915,-0.375,-0.0625,0.0625
1480098322253972,-0.1875,-0.125,-0.125
1480098322270515,0.0625,0,-0.0625
1480098322293075,-0.3125,-0.125,0.125
1480098322315637,-0.1875,-0.125,0.375
1480098322330677,-0.625,0,0.25
1480098322360756,-0.375,0.4375,0.125
1480098322375795,-0.0625,0.5,0.25
1480098322389833,0.125,0.25,0.0625
1480098322413401,0.125,0.375,-0.125
1480098322435455,-0.3125,0.375,0.1875
1480098322449995,-0.375,0.25,0.3125
1480098322473054,-0.625,0.25,0.1875
1480098322495614,-0.0625,0.1875,0.0625
1480098322510152,0.1875,0.25,0.25
1480098322533214,-0.4375,0.0625,0.5
1480098322555774,-0.75,0,0.3125
1480098322569811,0,0.1875,0.1875
1480098322593374,0.125,0.125,0.375
1480098322615934,0,-0.0625,0.1875
1480098322629971,0.125,0,0.25
1480098322653809,-0.0625,0.0625,0.125
1480098322675593,-0.375,0.1875,0.1875
1480098322690131,0,0.1875,0.125
1480098322713192,-0.1875,0.1875,0.0625
1480098322735755,-0.5625,0.125,0.25
1480098322756809,-0.8125,0.3125,0.1875
1480098322772851,-1.0625,0.25,0.125
1480098322795413,-0.625,0.1875,0.0625
1480098322816467,-0.3125,0.0625,0.0625
1480098322833014,-0.5625,0.125,0.0625
1480098322855572,-0.625,0.125,0.125
1480098322876627,-0.375,0.0625,0.0625
1480098322893171,-0.3125,0.0625,0
1480098322915733,-0.4375,0.125,0.1875
1480098322936787,-0.375,0.1875,0.25
1480098322953332,-0.375,0.1875,0.125
1480098322975390,-0.25,0.125,0.0625
1480098322996446,-0.3125,0.125,0
1480098323012990,-0.375,0.125,0.1875
1480098323035550,-0.75,0.125,0.0625
1480098323056605,-0.3125,0,0.1875
1480098323073151,-0.4375,0.125,0.25
1480098323095710,-0.1875,0.4375,0.25
1480098323116766,-0.125,0.3125,0.4375
1480098323133310,-0.25,0.25,0.1875
1480098323155368,0.1875,0.3125,-0.125
1480098323176424,-0.0625,0.375,-0.0625
1480098323192968,-0.4375,0.1875,0.375
1480098323215533,-0.8125,0.1875,0.1875
1480098323238088,-0.375,0.0625,0.0625
1480098323253129,-0.1875,0.1875,0.125
1480098323275689,-0.375,0.0625,0.375
1480098323298249,-1,0.0625,0.125
1480098323313288,-0.375,0.3125,0.125
1480098323335347,-0.125,0.25,0.3125
1480098323357907,-0.25,0.0625,0.125
1480098323372450,-0.125,0.125,0.0625
1480098323395507,-0.3125,0.125,0.25
1480098323418067,-0.3125,0,0.3125
1480098323432606,0.0625,0.125,0.125
1480098323455667,-0.0625,0.25,0.1875
1480098323478227,-0.3125,0.375,0.1875
1480098323492768,-0.9375,0.4375,0.1875
1480098323515827,-1.0625,0.3125,0.125
1480098323538391,-0.6875,0.1875,0.125
1480098323552424,-0.25,0.125,0.125
1480098323575486,-0.0625,0.0625,0
1480098323598045,-0.3125,-0.0625,0.0625
1480098323612587,-0.375,-0.0625,0.125
1480098323636147,-0.1875,-0.0625,0.125
1480098323658206,0.0625,-0.0625,0.0625
1480098323672244,-0.0625,-0.0625,0.0625
1480098323695805,-0.25,-0.0625,0.0625
1480098323717864,-0.1875,0,0.0625
1480098323738920,-0.25,-0.0625,0.0625
1480098323755464,-0.0625,-0.125,-0.0625
1480098323778024,-0.1875,-0.125,0.3125
1480098323799081,-0.5625,0.1875,0.1875
1480098323815625,-0.25,0.375,0.375
1480098323838185,0.125,0.25,0.25
1480098323859241,0.375,0.0625,0
1480098323875785,0.3125,0.375,-0.125
1480098323898344,-0.1875,0.4375,0.1875
1480098323918899,-1,0.25,0.1875
1480098323935443,-0.75,-0.125,0.1875
1480098323958003,0,-0.125,0.25
1480098323979059,0.3125,0,0.25
1480098323995604,-0.1875,0,0.375
1480098324024179,-0.6875,0,0.1875
1480098324039721,0.0625,-0.0625,0.25
1480098324063284,0.0625,-0.1875,0.1875
1480098324078323,0,-0.25,-0.0625
1480098324099385,0,-0.125,0.0625
1480098324115422,-0.0625,-0.25,0.125
1480098324137982,0.4375,-0.125,0.0625
1480098324159038,0.625,-0.125,0.0625
1480098324175582,0.0625,0,0.0625
1480098324198141,-0.625,0.0625,-0.0625
1480098324220702,-0.8125,0.0625,0.0625
1480098324235742,-0.375,-0.0625,-0.0625
1480098324258302,0,-0.125,-0.1875
1480098324280360,0.125,-0.25,0.0625
1480098324301416,-0.1875,-0.125,0.1875
1480098324317961,-0.3125,-0.0625,0
1480098324340521,-0.125,-0.0625,-0.0625
1480098324355059,-0.125,0.0625,0.0625
1480098324378121,-0.25,0.1875,0
1480098324400683,-0.3125,0.1875,0.125
1480098324415223,-0.0625,0.0625,0.1875
1480098324438280,-0.0625,0.125,0.0625
1480098324460339,-0.0625,0,0.125
1480098324474878,-0.375,0.125,0.125
1480098324497939,0,0.3125,0.3125
1480098324520499,0.0625,0.125,0.5625
1480098324535040,0.4375,0,0.1875
1480098324558099,0.6875,0.25,-0.125
1480098324580659,-0.0625,0.375,0.0625
1480098324602217,-0.6875,0.25,0.4375
1480098324618260,-1.125,0.125,0.3125
1480098324640819,-0.8125,0.25,0.25
1480098324661875,0.125,0.4375,0.1875
1480098324677918,0.0625,0.375,0.3125
1480098324700478,-0.5625,0.1875,0
1480098324722038,-0.4375,0.0625,0.125
1480098324738077,-0.625,-0.125,0.375
1480098324760638,-0.0625,-0.25,0.125
1480098324781694,0.4375,-0.1875,-0.0625
1480098324798237,0.5,-0.125,0
1480098324820798,0.3125,-0.125,0.125
1480098324841854,0.125,-0.125,0.25
1480098324857899,0,-0.0625,0.0625
1480098324880456,-0.0625,0,0
1480098324901512,-0.5625,0.125,0.0625
1480098324918057,-0.9375,0.3125,0.125
1480098324940617,-0.625,0.1875,0.0625
1480098324961672,-0.25,0.125,0
1480098324978219,0,0.0625,0
1480098325000776,-0.125,0.0625,0.0625
1480098325021832,-0.375,0.0625,0
1480098325039380,-0.5,0,0.125
1480098325060436,-0.0625,-0.0625,0.125
1480098325081493,0.0625,0.0625,0.0625
1480098325098539,0.375,0.125,0.0625
1480098325120595,-0.625,0,0.1875
1480098325143155,-0.6875,0.3125,0.1875
1480098325158195,-0.125,0.25,0.375
1480098325180755,0.25,0.0625,0.1875
1480098325211338,0.5625,0.1875,-0.125
1480098325218355,0.1875,0.3125,0
1480098325240414,0,0.125,0.3125
1480098325262974,-0.5,0,0.3125
1480098325277512,-0.625,0.125,0.0625
1480098325300574,-0.625,0.1875,0.3125
1480098325323134,-0.4375,0.25,0.4375
1480098325337672,-0.8125,0.1875,0.25
1480098325360733,-0.375,0.375,0.1875
1480098325383296,0,0.375,0.5
1480098325397332,-0.375,0.0625,0.1875
1480098325420394,-0.1875,-0.0625,0.125
1480098325442954,-0.3125,0.0625,0.125
1480098325457491,-0.375,0.125,0.3125
1480098325480553,-0.0625,0.25,0.375
1480098325503112,-0.125,0,0.0625
1480098325517651,-0.1875,0.1875,0
1480098325540713,-0.3125,0.25,0.0625
1480098325563275,-0.625,-0.0625,-0.0625
1480098325577311,-0.5625,-0.1875,-0.125
1480098325600873,-0.125,-0.375,-0.1875
1480098325622932,0.0625,-0.3125,-0.0625
1480098325645495,0.1875,-0.375,-0.0625
1480098325660532,0.125,-0.25,0
1480098325683095,0.3125,-0.1875,-0.0625
1480098325704148,0.125,-0.0625,0
1480098325721193,0.0625,0.125,0
1480098325743251,0.375,0.25,0.125
1480098325764307,-0.1875,0,0.125
1480098325780350,-0.5,0.1875,-0.125
1480098325802912,-0.125,0.25,0.1875
1480098325823966,0.0625,0.0625,0.125
1480098325840510,0.6875,0.0625,-0.3125
1480098325863070,0.6875,0.1875,-0.3125
1480098325884126,0.25,0.1875,0.125
1480098325900670,-0.4375,-0.0625,0.1875
1480098325923230,-0.625,-0.25,0.0625
1480098325944324,-0.1875,-0.1875,0.1875
1480098325960829,0,-0.25,0.125
1480098325982889,-0.0625,-0.25,-0.125
1480098326003945,0,-0.125,-0.25
1480098326020489,0.125,-0.1875,0.125
1480098326043049,-0.25,-0.5,0.125
1480098326064104,0,-0.25,-0.125
1480098326080648,-0.0625,-0.0625,-0.25
1480098326103208,0.1875,0.0625,0
1480098326125769,0.0625,0,0.0625
1480098326140309,0,0.0625,0.0625
1480098326163368,-0.25,0.1875,-0.0625
1480098326191443,-0.3125,0.1875,-0.0625
1480098326199969,-0.625,0.125,0
1480098326223035,-0.625,0.125,0
1480098326245587,0,-0.0625,0
1480098326260126,0.3125,-0.125,-0.125
1480098326283192,0.1875,-0.125,-0.0625
1480098326305751,-0.0625,-0.125,0
1480098326319784,-0.125,-0.3125,-0.125
1480098326342845,-0.375,-0.125,-0.0625
1480098326365410,0.0625,-0.125,-0.0625
1480098326379946,0.4375,-0.125,-0.125
1480098326403005,0.3125,-0.25,0
1480098326425566,-0.6875,-0.25,0
1480098326440104,-0.25,0,0.0625
1480098326463166,0.4375,-0.125,0.1875
1480098326485726,0.6875,-0.25,-0.0625
1480098326499763,0.8125,0,-0.1875
1480098326523326,0.5625,0,-0.125
1480098326545384,0.0625,0,0
1480098326559923,-0.375,0,0.0625
1480098326583000,-0.5625,-0.1875,0.0625
1480098326605545,-0.1875,-0.125,0.125
1480098326626600,0,-0.125,0.0625
1480098326643144,0,-0.1875,-0.25
1480098326665706,0.875,-0.5,-0.3125
1480098326686760,0.25,-0.6875,0
1480098326702803,-0.1875,-0.875,-0.125
1480098326725364,0.375,-0.625,-0.4375
1480098326746419,0.625,-0.625,-0.4375
1480098326762964,0.875,-0.625,-0.1875
1480098326785523,0.625,-0.625,-0.1875
1480098326806579,0.3125,-0.625,-0.25
1480098326823123,0.125,-0.5625,-0.3125
1480098326845684,0,-0.5625,-0.25
1480098326866739,-0.0625,-0.625,-0.3125
1480098326883283,0.25,-0.6875,-0.5
1480098326905345,0.5,-0.75,-0.4375
1480098326926398,0.4375,-0.8125,-0.375
1480098326942942,0.4375,-0.875,-0.375
1480098326965505,0.625,-0.6875,-0.625
1480098326986558,0.375,-0.75,-0.6875
1480098327003102,0.375,-0.8125,-0.5
1480098327025661,0.5625,-0.625,-0.5625
1480098327048222,1.0625,-0.875,-0.3125
1480098327062761,0.4375,-0.9375,-0.1875
1480098327085822,0,-0.625,-0.25
1480098327107881,0.5625,-0.625,-0.0625
1480098327128936,0.875,-0.625,-0.3125
1480098327145480,1.8125,-0.5,-0.3125
1480098327168040,1.25,-0.5625,0
1480098327182579,0.1875,-0.5625,0.1875
1480098327205641,-0.8125,-0.5,0
1480098327228200,-0.6875,-0.4375,0
1480098327242238,-0.125,-0.1875,0.125
1480098327265801,-0.0625,-0.0625,0.25
1480098327287868,-0.25,-0.1875,-0.1875
1480098327302398,0.125,-0.125,-0.3125
1480098327325459,-0.5,-0.25,0.1875
1480098327348020,-1,-0.5,0
1480098327362558,-0.5625,-0.3125,0.125
1480098327385620,0,-0.125,0.125
1480098327408181,0.4375,0.0625,0.25
1480098327422217,0,0.0625,0.3125
1480098327445779,-0.8125,0.1875,0.25
1480098327467838,-1.125,0.3125,0.125
1480098327482379,-0.8125,0.1875,0.0625
1480098327505437,-0.75,0.125,0.0625
1480098327527998,-0.5625,0,0.0625
1480098327549054,-0.4375,-0.25,-0.0625
1480098327565598,-0.1875,-0.3125,-0.0625
1480098327588158,0.3125,-0.3125,-0.0625
1480098327609214,0.125,0,0
1480098327625758,0,0.1875,0.0625
1480098327648318,-0.0625,0.3125,0.0625
1480098327670377,0.375,0.125,0.125
1480098327685418,-0.1875,0.0625,0.125
1480098327707976,-0.125,0.3125,-0.25
1480098327729033,-0.125,0.1875,0.1875
1480098327745598,-0.125,0,-0.1875
1480098327768137,0.5625,0.0625,-0.375
1480098327789193,0.4375,0.0625,-0.1875
1480098327805737,0.3125,0.0625,0.0625
1480098327828296,-0.4375,-0.125,-0.0625
1480098327849352,-0.9375,0.0625,-0.125
1480098327865401,-0.3125,0.4375,0.125
1480098327887957,0.25,0.75,0.125
1480098327909512,0.625,0.75,0.125
1480098327925555,1.25,0.5,0
1480098327948115,0.1875,0.1875,0.1875
1480098327970676,-0.8125,-0.25,-0.1875
1480098327985715,-0.5,-0.1875,-0.1875
1480098328008275,0,-0.0625,-0.25
1480098328030838,0.6875,-0.125,0
1480098328045878,0.6875,-0.125,-0.125
1480098328067937,0.25,-0.125,-0.25
1480098328090497,-0.1875,-0.0625,-0.0625
1480098328105036,-0.75,-0.0625,-0.125
1480098328128098,-0.8125,0.125,-0.1875
1480098328150658,-0.1875,0.375,-0.1875
1480098328164695,0.0625,0.1875,0
1480098328188258,-0.1875,0.3125,0.125
1480098328211321,-0.25,0.375,0.125
1480098328224855,-0.3125,0.3125,0.0625
1480098328248417,-0.25,0.25,0
1480098328270477,-0.5,0.125,0.0625
1480098328285014,-0.4375,0.1875,0
1480098328308076,-0.125,0.1875,0
1480098328330638,-0.5625,0.1875,0.0625
1480098328345191,-0.25,0.4375,0.3125
1480098328368237,0.0625,0.1875,0.5
1480098328391299,0.4375,0.1875,-0.125
1480098328411851,0.875,0.375,-0.25
1480098328427896,0.3125,0.375,0
1480098328450455,-0.25,0.1875,0.1875
1480098328471511,-0.625,0,0
1480098328488054,-0.6875,-0.0625,0
1480098328510615,-0.3125,0.25,0.125
1480098328531671,-0.1875,0.25,0.125
1480098328548215,-0.125,0.25,0.0625
1480098328570777,0.4375,0.375,-0.0625
1480098328591830,-0.3125,0.3125,0.1875
1480098328607874,-0.9375,0.125,0.1875
1480098328630434,-0.5625,0.125,-0.0625
1480098328651488,-0.375,0.0625,-0.125
1480098328668033,0.25,0,0.25
1480098328690599,0.3125,0.0625,0.0625
1480098328711649,0.125,0.0625,-0.25
1480098328728194,-0.375,0.0625,0
1480098328750753,-1.125,0.125,0.0625
1480098328771809,-1.0625,0,-0.0625
1480098328787863,-0.125,0.125,-0.25
1480098328817933,0.3125,0.125,-0.25
1480098328831467,0.1875,0,-0.125
1480098328848012,-0.125,-0.25,-0.0625
1480098328870572,-0.125,-0.375,-0.125
1480098328892130,0.3125,-0.5,0
1480098328908673,0.5625,-0.4375,-0.0625
1480098328930731,0.5625,-0.375,-0.125
1480098328953300,0.3125,-0.3125,-0.125
1480098328967831,0,-0.375,0.25
1480098328990391,-0.375,-0.0625,0
1480098329018968,0,0.3125,0.0625
1480098329027990,0.375,0.25,0.125
1480098329050550,0.5625,0.1875,-0.125
1480098329073110,0.5625,0.3125,-0.3125
1480098329095670,0.1875,0.3125,-0.25
1480098329110711,-0.5,0.0625,0
1480098329133274,-0.8125,-0.0625,-0.0625
1480098329147309,-0.4375,-0.125,-0.0625
1480098329170369,-0.125,-0.0625,-0.0625
1480098329192930,0.0625,-0.0625,0.25
1480098329207467,0.125,-0.0625,-0.0625
1480098329230529,0.3125,0.0625,0.0625
1480098329253090,-0.0625,-0.1875,0.25
1480098329267659,-0.1875,-0.375,0.0625
1480098329290692,0.25,-0.25,0
1480098329313249,0.625,-0.1875,0
1480098329327287,0.5,-0.25,0.0625
1480098329350849,0.1875,-0.125,0
1480098329380427,-0.25,0,-0.25
1480098329387447,-0.5,0.0625,-0.125
1480098329410508,-0.8125,0.1875,0.0625
1480098329433067,-0.8125,0.25,0
1480098329454124,-0.25,0.3125,-0.1875
1480098329470667,-0.0625,0.125,-0.0625
1480098329493228,-0.25,0,0.125
1480098329514284,-0.4375,-0.0625,0.125
1480098329530827,-0.25,-0.125,-0.125
1480098329552887,0.3125,-0.125,-0.125
1480098329573943,0.0625,-0.25,-0.125
1480098329590486,-0.0625,-0.25,0
1480098329613047,0,-0.1875,-0.1875
1480098329634103,0.125,-0.1875,-0.25
1480098329650647,0.375,-0.125,-0.0625
1480098329673207,0.1875,-0.125,-0.0625
1480098329694262,0.0625,-0.1875,-0.125
1480098329710806,0.0625,-0.125,-0.125
1480098329732866,-0.0625,-0.125,0
1480098329753921,0,0,0.125
1480098329770465,-0.5625,0.0625,0.1875
1480098329800546,-0.75,0.375,0.1875
1480098329814084,0.125,0.375,0.25
1480098329830626,0.625,0.3125,0.0625
1480098329853185,1.1875,0.4375,0.3125
1480098329876747,0.3125,0.375,0.5625
1480098329890786,-0.5,0.4375,-0.25
1480098329912843,-1.5625,-0.3125,0.5625
1480098329935404,-0.625,-0.3125,-0.5
1480098329949942,0.875,0.25,-0.0625
1480098329973005,-0.0625,-0.1875,0.1875
1480098330003084,-0.8125,0.125,-0.25
1480098330010103,-0.4375,0,-0.125
1480098330033165,0.375,-0.1875,0.125
1480098330055725,0.0625,-0.375,0.25
1480098330069761,0.375,-0.375,-0.25
1480098330092822,0.625,-0.25,-0.0625
1480098330115886,0.4375,-0.125,-0.0625
1480098330130422,-0.125,0,0
1480098330152983,-0.1875,-0.0625,0
1480098330175543,0,0,-0.125
1480098330190081,0.25,0.125,-0.3125
1480098330220663,-0.0625,0.1875,-0.1875
1480098330235703,-0.5625,0.125,-0.375
1480098330249740,-0.4375,0,-0.3125
1480098330273303,-0.4375,-0.125,-0.25
1480098330295361,-0.125,-0.25,-0.25
1480098330309899,0.375,-0.1875,-0.3125
1480098330332961,0.6875,-0.375,-0.3125
1480098330355522,0.375,-0.4375,-0.125
1480098330376576,0,-0.3125,0
1480098330393121,-0.0625,-0.375,0.0625
1480098330415684,0.1875,-0.375,-0.125
1480098330436736,0.8125,-0.5625,-0.1875
1480098330453281,1.0625,-0.5,-0.25
1480098330475339,0.8125,-0.5,-0.125
1480098330496397,0.1875,-0.625,-0.125
1480098330512941,-0.25,-0.5,-0.3125
1480098330535499,0.4375,-0.3125,-0.125
1480098330557057,-0.0625,-0.125,-0.0625
1480098330573099,-0.3125,0.375,-0.0625
1480098330595671,-0.375,0.125,0.25
1480098330616214,0.0625,0,-0.375
1480098330633259,0.5625,0.3125,-0.1875
1480098330655820,0.25,0.375,-0.0625
1480098330683903,-1,-0.25,0.4375
1480098330692419,-0.1875,-0.5,-0.25
1480098330715482,0.3125,-0.5625,-0.3125
1480098330736535,0.0625,-0.375,-0.4375
1480098330759102,0.625,-0.0625,0.125
1480098330775638,-0.4375,0.0625,0.125
1480098330796695,-0.375,0.125,-0.1875
1480098330813240,0.25,0.25,0.1875
1480098330835298,0.0625,0,0.1875
1480098330857857,0,-0.0625,0.0625
1480098330872898,-0.1875,0.1875,-0.0625
1480098330895458,-0.0625,0.1875,0.125
1480098330918017,0.125,0.125,0
1480098330933057,0.1875,0.25,-0.125
1480098330963137,0.0625,0.375,-0.0625
1480098330978177,-1.4375,0.5625,-0.0625
1480098330999233,-1.375,0.375,-0.0625
1480098331015778,-0.6875,0.0625,-0.1875
1480098331037837,0.125,-0.125,-0.4375
1480098331052378,0.875,-0.1875,-0.25
1480098331075436,0.375,0,-0.0625
1480098331097999,-0.875,-0.1875,-0.0625
1480098331112535,-0.375,-0.4375,-0.1875
1480098331135597,0.3125,-0.5,-0.3125
1480098331158156,0.875,-0.3125,-0.375
1480098331172193,0.4375,0,0
1480098331195755,-0.5,-0.1875,-0.125
1480098331218318,-0.4375,-0.0625,-0.125
1480098331240875,0.3125,-0.1875,-0.3125
1480098331255414,0.375,-0.1875,-0.25
1480098331277975,0.3125,-0.25,-0.1875
1480098331299030,0.0625,0.375,0.0625
1480098331315575,-0.6875,0.4375,0.0625
1480098331338137,0.0625,0,-0.0625
1480098331359190,1.0625,0.0625,-0.375
1480098331375736,0.8125,0.4375,-0.375
1480098331398295,-0.5625,0.3125,0.1875
1480098331419351,-0.625,0.0625,0.125
1480098331435395,-0.625,-0.0625,-0.0625
1480098331457953,0.3125,0.125,-0.125
1480098331479009,0.1875,0.3125,0.125
1480098331495554,-0.625,0.125,0.125
1480098331518114,-1,-0.0625,-0.0625
1480098331539170,0.125,-0.25,-0.1875
1480098331555713,0.25,-0.1875,-0.125
1480098331578274,0.25,-0.25,-0.3125
1480098331599330,0.5625,-0.125,0
1480098331615372,-0.0625,-0.0625,-0.125
1480098331637931,0.1875,-0.1875,-0.0625
1480098331658988,0.5625,-0.1875,-0.0625
1480098331675532,0.1875,-0.25,-0.125
1480098331698095,-0.375,0,-0.125
1480098331719150,-0.1875,0.3125,-0.25
1480098331734693,-0.875,0.1875,-0.125
1480098331758253,-0.3125,-0.0625,-0.1875
1480098331780311,0,0,-0.1875
1480098331795352,-0.25,-0.0625,-0.25
1480098331818413,-0.1875,-0.125,-0.1875
1480098331840471,0.0625,-0.5,-0.125
1480098331855510,0.5625,-0.375,-0.125
1480098331878071,0.25,-0.25,-0.1875
1480098331900630,-0.0625,-0.1875,-0.0625
1480098331915169,-0.3125,-0.125,0.0625
1480098331938261,0,-0.125,-0.25
1480098331960289,-0.25,-0.3125,-0.0625
1480098331974828,0.3125,-0.1875,-0.1875
1480098331997892,0.0625,0.125,-0.125
1480098332020449,-0.375,-0.125,0.0625
1480098332034989,-0.5,0.0625,-0.0625
1480098332058049,0.5,0.25,0.1875
1480098332080610,0.375,0.125,0.0625
1480098332094647,0.0625,0.125,-0.3125
1480098332118209,-0.25,0.25,-0.25
1480098332140769,0.125,0.125,0
1480098332154807,0.375,0,0
1480098332177879,-0.125,-0.125,-0.125
1480098332200427,-0.1875,-0.1875,0
1480098332214967,-0.0625,0,0
1480098332238027,-0.25,0,0
1480098332260588,0,-0.375,-0.25
1480098332281645,1.0625,-0.25,-0.1875
1480098332298191,0.3125,-1,0.125
1480098332320751,-0.8125,-0.9375,-0.0625
1480098332341307,-0.625,-0.625,0.0625
1480098332357847,0.25,-0.1875,-0.1875
1480098332380407,0.625,-0.25,-0.0625
1480098332401968,0.625,-0.125,-0.0625
1480098332418007,-0.4375,0,-0.1875
1480098332440567,-0.6875,0.25,-0.0625
1480098332461626,-0.6875,0.375,0.0625
1480098332478167,-0.5625,0.375,-0.1875
1480098332500727,-0.125,0.25,-0.1875
1480098332521782,0.4375,0.125,-0.1875
1480098332537826,-0.0625,0.125,-0.1875
1480098332560386,-0.375,0.0625,-0.125
1480098332581943,-0.25,0,-0.125
1480098332597986,0.25,0,-0.125
1480098332620546,0.375,-0.125,-0.1875
1480098332641602,0.375,-0.25,-0.1875
1480098332658146,-0.0625,-0.0625,-0.25
1480098332680706,-0.3125,-0.0625,-0.125
1480098332703280,-0.1875,-0.125,-0.125
1480098332718808,0.1875,-0.1875,-0.25
1480098332740365,0.0625,-0.1875,0
1480098332762925,-0.1875,0,-0.1875
1480098332777963,0.25,0.3125,0.125
1480098332800525,-0.125,0,0.25
1480098332823121,0.25,0.125,-0.1875
1480098332837624,0.5,0.3125,-0.375
1480098332860690,0.1875,0.125,-0.0625
1480098332883244,-0.1875,-0.125,0.1875
1480098332904300,-0.5,0,0
1480098332920343,0,0,0.0625
1480098332942903,0.4375,0,-0.0625
1480098332963959,-0.3125,-0.0625,0
1480098332980504,-0.5,0,-0.0625
1480098333003062,-0.1875,0.125,0.0625
1480098333017601,-0.1875,-0.0625,0.1875
1480098333040663,0.0625,-0.25,-0.0625
1480098333063224,0.3125,-0.125,-0.3125
1480098333077260,0.25,-0.25,-0.125
1480098333100321,0.125,-0.125,0.0625
1480098333122882,0,-0.0625,0.0625
1480098333137420,0,0.0625,0
1480098333160482,0.0625,0.0625,-0.1875
1480098333183042,-0.125,0.125,-0.1875
1480098333204128,-0.75,0.125,-0.0625
1480098333220642,-0.625,0.375,0.125
1480098333243201,-0.25,0,-0.125
1480098333264257,0.375,-0.125,-0.25
1480098333280299,-0.0625,-0.1875,-0.25
1480098333302860,-0.125,-0.3125,-0.3125
1480098333323916,-0.1875,-0.375,0.0625
1480098333340460,0.1875,-0.3125,-0.125
1480098333363020,0.625,-0.25,-0.125
1480098333384081,0.625,-0.25,-0.3125
1480098333408139,0.3125,-0.25,-0.1875
1480098333423180,-0.125,-0.25,0.125
1480098333444240,-0.5625,0,0.125
1480098333460779,0.3125,0.1875,0.125
1480098333482839,0.9375,-0.0625,0.125
1480098333503894,0.6875,0,-0.25
1480098333520439,0.125,0.0625,-0.375
1480098333543000,-0.4375,0.125,0
1480098333564055,-0.375,0.0625,0.125
1480098333581100,0.0625,-0.0625,0
1480098333603158,0,-0.1875,-0.125
1480098333624214,-0.0625,-0.0625,0.0625
1480098333640257,-0.375,-0.0625,0.0625
1480098333662818,-0.5625,-0.125,-0.0625
1480098333685377,0.75,0.0625,-0.125
