timestamp,x,y,z,w
1480098267550833,0.325989,0.299255,0.0817871,-0.893005
1480098267565372,0.325989,0.299255,0.0817871,-0.893005
1480098267588435,0.325989,0.299255,0.0817871,-0.893005
1480098267610997,0.325989,0.299255,0.0817871,-0.893005
1480098267625532,0.325989,0.299255,0.0817871,-0.893005
1480098267648594,0.325989,0.299255,0.0817871,-0.893005
1480098267671654,0.325989,0.299255,0.0817871,-0.893005
1480098267693713,0.325989,0.299255,0.0817871,-0.893005
1480098267708753,0.325989,0.299316,0.0817871,-0.893005
1480098267731312,0.325989,0.299255,0.0817871,-0.893005
1480098267752369,0.325989,0.299255,0.0817871,-0.893005
1480098267768412,0.325989,0.299316,0.0817871,-0.893005
1480098267796988,0.325989,0.299316,0.0817871,-0.893005
1480098267812027,0.325989,0.299316,0.0817871,-0.893005
1480098267828573,0.325989,0.299316,0.0818481,-0.893005
1480098267858651,0.32605,0.299316,0.0817871,-0.893005
1480098267872188,0.32605,0.299316,0.0817871,-0.893005
1480098267888732,0.32605,0.299316,0.0817871,-0.893005
1480098267911292,0.32605,0.299255,0.0817871,-0.893005
1480098267932347,0.325989,0.299255,0.0817871,-0.893005
1480098267948392,0.32605,0.299255,0.0817871,-0.893005
1480098267970951,0.32605,0.299255,0.0817871,-0.893005
1480098267992006,0.325989,0.299255,0.0817871,-0.893005
1480098268008552,0.32605,0.299255,0.0817871,-0.893005
1480098268031149,0.32605,0.299255,0.0817871,-0.893005
1480098268052706,0.32605,0.299255,0.0817871,-0.893005
1480098268068711,0.32605,0.299255,0.0817871,-0.893005
1480098268091271,0.325989,0.299316,0.0817871,-0.893005
1480098268112326,0.32605,0.299255,0.0817871,-0.893005
1480098268135889,0.32605,0.299255,0.0817871,-0.893005
1480098268150930,0.325989,0.299255,0.0817871,-0.893005
1480098268171985,0.32605,0.299255,0.0817871,-0.893005
1480098268188530,0.325989,0.299255,0.0817871,-0.893005
1480098268211091,0.325989,0.299255,0.0817871,-0.893005
1480098268233650,0.32605,0.299255,0.0817871,-0.893005
1480098268248690,0.325989,0.299255,0.0817871,-0.893005
1480098268272252,0.32605,0.299255,0.0817871,-0.893005
1480098268294313,0.32605,0.299255,0.0817871,-0.893005
1480098268307847,0.325989,0.299255,0.0817871,-0.893005
1480098268330908,0.32605,0.299194,0.0817871,-0.893005
1480098268353971,0.325989,0.299194,0.0817871,-0.893066
1480098268368018,0.325989,0.299194,0.0817871,-0.893005
1480098268391068,0.32605,0.299194,0.0817871,-0.893005
1480098268413628,0.325989,0.299255,0.0817871,-0.893005
1480098268427665,0.32605,0.299194,0.0817871,-0.893005
1480098268452732,0.32605,0.299194,0.0817871,-0.893005
1480098268473788,0.32605,0.299194,0.0817871,-0.893005
1480098268487825,0.32605,0.299194,0.0817871,-0.893005
1480098268510892,0.32605,0.299194,0.0817871,-0.893005
1480098268533447,0.32605,0.299255,0.0817871,-0.893005
1480098268547987,0.326111,0.299194,0.0817261,-0.893005
1480098268571047,0.32605,0.299194,0.0817261,-0.893005
1480098268593611,0.32605,0.299194,0.0817261,-0.893005
1480098268614662,0.32605,0.299194,0.0817261,-0.893005
1480098268631208,0.32605,0.299194,0.0817871,-0.893005
1480098268653767,0.32605,0.299194,0.0817261,-0.893005
1480098268674822,0.32605,0.299194,0.0817261,-0.893005
1480098268690865,0.32605,0.299194,0.0817871,-0.893005
1480098268713425,0.326111,0.299194,0.0817261,-0.893005
1480098268734481,0.32605,0.299255,0.0817871,-0.893005
1480098268757041,0.32605,0.299255,0.0817871,-0.893005
1480098268773585,0.326111,0.299194,0.0817261,-0.893005
1480098268794641,0.32605,0.299255,0.0817871,-0.893005
1480098268811188,0.326111,0.299194,0.0817261,-0.893005
1480098268833745,0.32605,0.299194,0.0817261,-0.893005
1480098268854801,0.32605,0.299194,0.0817871,-0.893005
1480098268870844,0.32605,0.299194,0.0817261,-0.893005
1480098268900923,0.32605,0.299194,0.0817261,-0.893005
1480098268915964,0.32605,0.299194,0.0817261,-0.893005
1480098268931004,0.326111,0.299194,0.0817261,-0.893005
1480098268953564,0.32605,0.299194,0.0817261,-0.893005
1480098268974625,0.32605,0.299194,0.0817261,-0.893005
1480098268991664,0.32605,0.299194,0.0817261,-0.893005
1480098269013723,0.32605,0.299194,0.0817261,-0.893005
1480098269034780,0.32605,0.299194,0.0817261,-0.893005
1480098269051324,0.32605,0.299194,0.0817261,-0.893005
1480098269073383,0.32605,0.299194,0.0817261,-0.893005
1480098269095943,0.326111,0.299194,0.0817261,-0.893005
1480098269110482,0.32605,0.299194,0.0817871,-0.893005
1480098269133542,0.32605,0.299194,0.0817261,-0.893005
1480098269156103,0.32605,0.299194,0.0817261,-0.893005
1480098269171143,0.32605,0.299255,0.0817871,-0.893005
1480098269193704,0.326111,0.299194,0.0817261,-0.893005
1480098269216262,0.32605,0.299194,0.0817261,-0.893005
1480098269231303,0.326111,0.299194,0.0817261,-0.893005
1480098269253361,0.326111,0.299194,0.0817261,-0.893005
1480098269276422,0.326111,0.299194,0.0817261,-0.893005
1480098269290461,0.326111,0.299194,0.0817261,-0.893005
1480098269313523,0.32605,0.299194,0.0817261,-0.893005
1480098269336081,0.32605,0.299194,0.0817261,-0.893066
1480098269357137,0.32605,0.299194,0.0817261,-0.893005
1480098269374183,0.32605,0.299194,0.0817261,-0.893005
1480098269396241,0.32605,0.299194,0.0817261,-0.893005
1480098269410782,0.326111,0.299194,0.0817261,-0.893005
1480098269433341,0.32605,0.299255,0.0817261,-0.893005
1480098269455899,0.326111,0.299194,0.0817261,-0.893005
1480098269470439,0.326111,0.299194,0.0817261,-0.893005
1480098269493502,0.32605,0.299255,0.0817871,-0.893005
1480098269523580,0.326111,0.299194,0.0817261,-0.893005
1480098269530599,0.326111,0.299194,0.0817261,-0.893005
1480098269553661,0.32605,0.299194,0.0817261,-0.893005
1480098269576220,0.326111,0.299194,0.0817261,-0.893005
1480098269590257,0.326111,0.299194,0.0817261,-0.893005
1480098269613318,0.326111,0.299194,0.0817261,-0.893005
1480098269636379,0.326111,0.299194,0.0817261,-0.893005
1480098269656935,0.326111,0.299194,0.0817261,-0.893005
1480098269673483,0.326111,0.299194,0.0817261,-0.893005
1480098269696540,0.326111,0.299194,0.0817261,-0.893005
1480098269717094,0.326111,0.299194,0.0817261,-0.893005
1480098269733639,0.326111,0.299194,0.0817261,-0.893005
1480098269756199,0.326111,0.299194,0.0817261,-0.893005
1480098269777254,0.326111,0.299194,0.0817261,-0.893005
1480098269801318,0.326111,0.299194,0.0817261,-0.893005
1480098269815857,0.326111,0.299194,0.0817261,-0.893005
1480098269836913,0.326111,0.299194,0.0817261,-0.893005
1480098269859473,0.326111,0.299194,0.0817261,-0.893005
1480098269876037,0.326111,0.299194,0.0817261,-0.893005
1480098269897092,0.326111,0.299194,0.0817261,-0.893005
1480098269913636,0.326111,0.299255,0.0817871,-0.893005
1480098269942212,0.326111,0.299255,0.0817871,-0.893005
1480098269957252,0.326111,0.299255,0.0817261,-0.893005
1480098269973295,0.326111,0.299255,0.0817261,-0.893005
1480098269996858,0.326172,0.299255,0.0817261,-0.893005
1480098270016912,0.326111,0.299255,0.0817261,-0.893005
1480098270033455,0.326111,0.299255,0.0817261,-0.893005
1480098270056017,0.326111,0.299194,0.0817261,-0.893005
1480098270079078,0.32605,0.299255,0.0817871,-0.893005
1480098270093615,0.326111,0.299255,0.0817871,-0.893005
1480098270116175,0.326111,0.299255,0.0817261,-0.893005
1480098270138735,0.32605,0.299255,0.0817871,-0.893005
1480098270154280,0.326111,0.299255,0.0817871,-0.893005
1480098270175834,0.326111,0.299255,0.0817871,-0.893005
1480098270198394,0.32605,0.299316,0.0817871,-0.893005
1480098270213434,0.326111,0.299255,0.0817871,-0.893005
1480098270235994,0.32605,0.299255,0.0817871,-0.893005
1480098270258553,0.32605,0.299255,0.0817871,-0.893005
1480098270272652,0.325989,0.299133,0.081543,-0.893066
1480098270296216,0.325989,0.299133,0.081604,-0.893066
1480098270326298,0.325989,0.299133,0.081543,-0.893066
1480098270332814,0.325989,0.299133,0.081543,-0.893066
1480098270355875,0.325989,0.299133,0.081604,-0.893066
1480098270378436,0.326294,0.299133,0.081604,-0.892944
1480098270392973,0.326294,0.299133,0.081604,-0.892944
1480098270416035,0.326294,0.299133,0.081665,-0.893005
1480098270445613,0.326294,0.299072,0.081604,-0.893005
1480098270454637,0.326294,0.299133,0.081665,-0.893005
1480098270476698,0.326294,0.299133,0.081604,-0.892944
1480098270498759,0.326355,0.299133,0.081604,-0.892944
1480098270512792,0.326294,0.299133,0.081604,-0.893005
1480098270541870,0.326294,0.299072,0.081604,-0.892944
1480098270558412,0.326294,0.299072,0.081604,-0.893005
1480098270579470,0.326294,0.299072,0.081665,-0.893005
1480098270596012,0.326294,0.299072,0.081604,-0.893005
1480098270619084,0.326294,0.299072,0.081604,-0.893005
1480098270639664,0.326294,0.299072,0.081604,-0.893005
1480098270656172,0.326355,0.299072,0.081604,-0.893005
1480098270678734,0.326294,0.299072,0.081604,-0.893005
1480098270699818,0.326355,0.299072,0.081604,-0.893005
1480098270715832,0.326294,0.299072,0.081604,-0.893005
1480098270738391,0.326294,0.299072,0.081604,-0.893005
1480098270759447,0.326294,0.299011,0.081604,-0.893005
1480098270766466,0.326294,0.299072,0.081604,-0.893005
1480098270790530,0.326294,0.299011,0.081604,-0.893005
1480098270804066,0.326355,0.299011,0.081604,-0.893005
1480098270826628,0.326294,0.299011,0.081604,-0.893005
1480098270841665,0.326294,0.299011,0.081604,-0.893005
1480098270871245,0.326294,0.299011,0.081604,-0.893005
1480098270886284,0.326294,0.299011,0.081604,-0.893005
1480098270901325,0.326294,0.299011,0.081604,-0.893005
1480098270940429,0.326294,0.299011,0.081604,-0.893005
1480098270946445,0.326294,0.29895,0.081604,-0.893005
1480098270961485,0.326355,0.29895,0.081543,-0.893005
1480098270984045,0.326355,0.29895,0.081543,-0.893005
1480098271006606,0.326355,0.29895,0.081543,-0.893005
1480098271021647,0.326355,0.29895,0.081543,-0.893005
1480098271043705,0.326355,0.29895,0.081543,-0.893005
1480098271066264,0.326355,0.29895,0.081543,-0.893005
1480098271081340,0.326355,0.29895,0.081543,-0.893005
1480098271103947,0.326355,0.29895,0.081543,-0.893005
1480098271126424,0.326416,0.29895,0.081543,-0.893005
1480098271144474,0.326355,0.29895,0.081543,-0.893005
1480098271164079,0.326355,0.29895,0.081543,-0.893005
1480098271186583,0.326416,0.29895,0.081543,-0.893005
1480098271201623,0.326355,0.29895,0.081543,-0.893005
1480098271224184,0.326416,0.29895,0.081543,-0.893005
1480098271246743,0.326355,0.29895,0.081543,-0.893005
1480098271261283,0.326355,0.29895,0.081543,-0.893005
1480098271283842,0.326416,0.29895,0.081543,-0.893005
1480098271307906,0.326355,0.29895,0.081543,-0.893005
1480098271321443,0.326416,0.29895,0.081543,-0.893005
1480098271344002,0.326416,0.298889,0.081543,-0.893005
1480098271369606,0.326416,0.29895,0.081543,-0.893005
1480098271383106,0.326416,0.298889,0.081543,-0.893005
1480098271404161,0.326355,0.298889,0.081543,-0.893005
1480098271426724,0.326355,0.29895,0.081543,-0.893005
1480098271442765,0.326416,0.298889,0.081543,-0.893005
1480098271463821,0.326355,0.298889,0.081543,-0.893005
1480098271486417,0.326416,0.298889,0.081543,-0.893005
1480098271502926,0.326416,0.298889,0.081543,-0.893005
1480098271523981,0.326416,0.29895,0.081543,-0.893005
1480098271546540,0.326416,0.298889,0.081543,-0.893005
1480098271563084,0.326416,0.298889,0.081543,-0.893005
1480098271584194,0.326416,0.298889,0.081543,-0.893005
1480098271606700,0.326416,0.298889,0.0814819,-0.893005
1480098271622743,0.326416,0.298889,0.081543,-0.893005
1480098271651320,0.326416,0.298889,0.0814819,-0.893005
1480098271666360,0.326416,0.298828,0.0814819,-0.893005
1480098271684409,0.326416,0.298889,0.081543,-0.893005
1480098271711479,0.326416,0.298889,0.0814819,-0.893005
1480098271726526,0.326416,0.298889,0.081543,-0.893005
1480098271743071,0.326355,0.298889,0.081543,-0.893066
1480098271765624,0.326416,0.298828,0.0814819,-0.893066
1480098271786679,0.326416,0.298828,0.0814819,-0.893005
1480098271804226,0.326416,0.298889,0.0814819,-0.893005
1480098271825282,0.326416,0.298828,0.0814819,-0.893005
1480098271846339,0.326416,0.298889,0.0814819,-0.893005
1480098271864888,0.326477,0.298828,0.0814819,-0.893005
1480098271883976,0.326416,0.298828,0.0814819,-0.893005
1480098271906535,0.326416,0.298889,0.0814819,-0.893005
1480098271932066,0.326477,0.298828,0.0814819,-0.893005
1480098271947106,0.326416,0.298828,0.0814819,-0.893066
1480098271966657,0.326416,0.298828,0.0814819,-0.893066
1480098271984705,0.326477,0.298828,0.0814819,-0.893005
1480098272003756,0.326416,0.298828,0.0814819,-0.893066
1480098272026820,0.326416,0.298828,0.0814819,-0.893066
1480098272051885,0.326416,0.298767,0.0814819,-0.893066
1480098272063918,0.326416,0.298828,0.0814819,-0.893066
1480098272086478,0.326416,0.298828,0.0814819,-0.893066
1480098272109037,0.326416,0.298828,0.0814819,-0.893066
1480098272124078,0.326416,0.298828,0.0814819,-0.893005
1480098272146636,0.326477,0.298828,0.0814819,-0.893005
1480098272177747,0.326416,0.298828,0.0814819,-0.893066
1480098272184237,0.326416,0.298828,0.0814819,-0.893066
1480098272206319,0.326416,0.298767,0.0814819,-0.893066
1480098272228856,0.326416,0.298767,0.0814819,-0.893066
1480098272243935,0.326416,0.298767,0.0814819,-0.893066
1480098272269477,0.326416,0.298767,0.0814819,-0.893066
1480098272297543,0.326416,0.298767,0.0814819,-0.893066
1480098272304061,0.326477,0.298767,0.0814819,-0.893066
1480098272329122,0.326416,0.298767,0.0814819,-0.893066
1480098272351180,0.326477,0.298767,0.0814819,-0.893066
1480098272364228,0.326416,0.298767,0.0814819,-0.893066
1480098272387778,0.326416,0.298767,0.0814819,-0.893066
1480098272408835,0.326477,0.298767,0.0814819,-0.893066
1480098272423911,0.326416,0.298767,0.0814819,-0.893066
1480098272446470,0.326416,0.298767,0.0814819,-0.893066
1480098272468994,0.326416,0.298767,0.0814819,-0.893066
1480098272487059,0.326416,0.298767,0.0814819,-0.893066
1480098272506593,0.326416,0.298767,0.0814819,-0.893066
1480098272529153,0.326416,0.298767,0.0814819,-0.893066
1480098272544194,0.326416,0.298767,0.0814819,-0.893066
1480098272566254,0.326416,0.298767,0.0814819,-0.893066
1480098272588812,0.326416,0.298767,0.0814819,-0.893066
1480098272606861,0.326416,0.298767,0.0814819,-0.893066
1480098272633932,0.326477,0.298767,0.0814819,-0.893066
1480098272648973,0.326416,0.298767,0.0814819,-0.893066
1480098272665517,0.326416,0.298767,0.0814819,-0.893066
1480098272694092,0.326477,0.298706,0.0814819,-0.893066
1480098272709133,0.326416,0.298706,0.0814819,-0.893066
1480098272725676,0.326416,0.298706,0.0814819,-0.893066
1480098272746231,0.326416,0.298767,0.0814819,-0.893066
1480098272768791,0.326416,0.298767,0.0814819,-0.893066
1480098272785336,0.326416,0.298767,0.0814819,-0.893066
1480098272806392,0.326416,0.298767,0.0814819,-0.893066
1480098272828951,0.326355,0.298767,0.0814819,-0.893066
1480098272845527,0.326416,0.298706,0.0814819,-0.893066
1480098272866551,0.326355,0.298767,0.0814819,-0.893066
1480098272889115,0.326416,0.298706,0.0814819,-0.893066
1480098272905658,0.326416,0.298706,0.0814819,-0.893066
1480098272926711,0.326416,0.298706,0.0814819,-0.893066
1480098272948770,0.326477,0.298706,0.0814209,-0.893066
1480098272967821,0.326416,0.298706,0.0814209,-0.893066
1480098273002954,0.326416,0.298706,0.0814209,-0.893066
1480098273008931,0.326477,0.298645,0.0814209,-0.893066
1480098273031491,0.326416,0.298706,0.0814209,-0.893066
1480098273046530,0.326477,0.298706,0.0814209,-0.893066
1480098273069112,0.326477,0.298706,0.0814209,-0.893066
1480098273087139,0.326477,0.298706,0.0814209,-0.893066
1480098273114210,0.326477,0.298645,0.0814209,-0.893066
1480098273128786,0.326477,0.298645,0.0814209,-0.893066
1480098273146796,0.326477,0.298645,0.0814209,-0.893066
1480098273166348,0.326477,0.298645,0.0814209,-0.893066
1480098273190413,0.326477,0.298645,0.0814209,-0.893066
1480098273220500,0.326477,0.298645,0.0814209,-0.893066
1480098273226509,0.326477,0.298645,0.0814209,-0.893066
1480098273249084,0.326477,0.298645,0.0814209,-0.893066
1480098273267116,0.326538,0.298645,0.0814209,-0.893066
1480098273286669,0.326538,0.298645,0.0814209,-0.893066
1480098273311736,0.326538,0.298645,0.0814209,-0.893066
1480098273326776,0.326538,0.298645,0.0813599,-0.893066
1480098273346328,0.326477,0.298645,0.0814209,-0.893066
1480098273368888,0.326477,0.298584,0.0813599,-0.893127
1480098273386936,0.326538,0.298584,0.0813599,-0.893066
1480098273409496,0.326477,0.298584,0.0814209,-0.893066
1480098273436568,0.326538,0.298584,0.0813599,-0.893066
1480098273447097,0.326538,0.298584,0.0813599,-0.893066
1480098273468152,0.326538,0.298584,0.0813599,-0.893066
1480098273488707,0.326538,0.298584,0.0813599,-0.893066
1480098273506755,0.326538,0.298584,0.0813599,-0.893066
1480098273527811,0.326538,0.298584,0.0813599,-0.893066
1480098273548865,0.326538,0.298584,0.0813599,-0.893066
1480098273579484,0.326538,0.298584,0.0813599,-0.893066
1480098273593987,0.326538,0.298584,0.0813599,-0.893066
1480098273616547,0.326538,0.298584,0.0813599,-0.893127
1480098273631587,0.326538,0.298584,0.0813599,-0.893127
1480098273648129,0.326538,0.298584,0.0813599,-0.893066
1480098273669186,0.326538,0.298584,0.0813599,-0.893127
1480098273691244,0.326538,0.298584,0.0813599,-0.893127
1480098273715308,0.326538,0.298523,0.0813599,-0.893127
1480098273736364,0.326538,0.298523,0.0813599,-0.893127
1480098273751404,0.326538,0.298523,0.0813599,-0.893127
1480098273767949,0.326538,0.298523,0.0813599,-0.893127
1480098273789008,0.326477,0.298523,0.0813599,-0.893127
1480098273811607,0.326538,0.298523,0.0813599,-0.893127
1480098273829617,0.326538,0.298523,0.0813599,-0.893127
1480098273849168,0.326538,0.298523,0.0813599,-0.893127
1480098273871729,0.326538,0.298523,0.0813599,-0.893127
1480098273889279,0.326477,0.298523,0.0813599,-0.893127
1480098273908827,0.326538,0.298523,0.0813599,-0.893127
1480098273931387,0.326538,0.298523,0.0813599,-0.893127
1480098273949436,0.326538,0.298523,0.0813599,-0.893127
1480098273969025,0.326538,0.298523,0.0813599,-0.893127
1480098273991548,0.326538,0.298523,0.0813599,-0.893127
1480098274009598,0.326538,0.298523,0.0813599,-0.893127
1480098274028646,0.326538,0.298462,0.0813599,-0.893127
1480098274051206,0.326538,0.298523,0.0813599,-0.893127
1480098274069254,0.326538,0.298523,0.0813599,-0.893127
1480098274090311,0.326538,0.298523,0.0813599,-0.893127
1480098274111367,0.326538,0.298523,0.0813599,-0.893127
1480098274129414,0.326538,0.298523,0.0813599,-0.893127
1480098274148966,0.326538,0.298462,0.0813599,-0.893127
1480098274171527,0.326538,0.298523,0.0813599,-0.893127
1480098274189073,0.326599,0.298462,0.0812988,-0.893127
1480098274209129,0.326538,0.298462,0.0813599,-0.893127
1480098274231186,0.326599,0.298462,0.0812988,-0.893127
1480098274249233,0.326599,0.298462,0.0812988,-0.893127
1480098274268785,0.326599,0.298462,0.0812988,-0.893127
1480098274291346,0.326599,0.298462,0.0812988,-0.893127
1480098274309397,0.326599,0.298462,0.0812988,-0.893127
1480098274328945,0.326599,0.298462,0.0812988,-0.893127
1480098274359026,0.326599,0.298462,0.0812988,-0.893127
1480098274369553,0.326599,0.298462,0.0812988,-0.893127
1480098274391612,0.326599,0.298462,0.0812988,-0.893127
1480098274411665,0.326599,0.298462,0.0812988,-0.893127
1480098274429212,0.326599,0.298523,0.0812988,-0.893127
1480098274448764,0.326599,0.298523,0.0812988,-0.893066
1480098274471324,0.326599,0.298523,0.0812988,-0.893066
1480098274489873,0.326599,0.298523,0.0812988,-0.893066
1480098274519452,0.32666,0.298523,0.0812988,-0.893066
1480098274531484,0.326599,0.298523,0.0812988,-0.893066
1480098274550034,0.326599,0.298523,0.0812988,-0.893066
1480098274570588,0.32666,0.298523,0.0812988,-0.893066
1480098274591643,0.326599,0.298523,0.0812988,-0.893066
1480098274609193,0.32666,0.298462,0.0812988,-0.893066
1480098274630247,0.32666,0.298462,0.0812988,-0.893066
1480098274651310,0.32666,0.298523,0.0812988,-0.893066
1480098274670354,0.32666,0.298462,0.0812988,-0.893066
1480098274690407,0.32666,0.298462,0.0812988,-0.893127
1480098274711463,0.326599,0.298462,0.0812988,-0.893127
1480098274729511,0.32666,0.298462,0.0812988,-0.893066
1480098274750567,0.326599,0.298462,0.0812988,-0.893066
1480098274771623,0.32666,0.298462,0.0812988,-0.893066
1480098274790174,0.32666,0.298523,0.0812988,-0.893066
1480098274825266,0.326599,0.298523,0.0812988,-0.893127
1480098274831282,0.326599,0.298462,0.0812988,-0.893127
1480098274849329,0.326599,0.298523,0.0812988,-0.893127
1480098274871889,0.326599,0.298523,0.0812988,-0.893127
1480098274891441,0.32666,0.298462,0.0812988,-0.893127
1480098274909992,0.326599,0.298462,0.0812988,-0.893127
1480098274932049,0.32666,0.298462,0.0812988,-0.893127
1480098274951623,0.32666,0.298462,0.0812988,-0.893066
1480098274970150,0.326599,0.298523,0.0812988,-0.893066
1480098274991708,0.32666,0.298462,0.0812988,-0.893066
1480098275011260,0.326599,0.298462,0.0812988,-0.893127
1480098275033819,0.326599,0.298462,0.0812988,-0.893066
1480098275051868,0.32666,0.298462,0.0812988,-0.893066
1480098275071420,0.326599,0.298462,0.0812988,-0.893127
1480098275101499,0.32666,0.298462,0.0812988,-0.893066
1480098275112028,0.32666,0.298523,0.0812988,-0.893066
1480098275133083,0.326599,0.298523,0.0812988,-0.893066
1480098275154140,0.32666,0.298523,0.0812988,-0.893066
1480098275171687,0.326599,0.298523,0.0812988,-0.893066
1480098275191238,0.326599,0.298523,0.0812988,-0.893066
1480098275213798,0.32666,0.298523,0.0812988,-0.893066
1480098275231846,0.326599,0.298523,0.0812988,-0.893066
1480098275251398,0.32666,0.298523,0.0812988,-0.893066
1480098275273959,0.32666,0.298523,0.0812988,-0.893066
1480098275292006,0.32666,0.298523,0.0812988,-0.893066
1480098275315082,0.32666,0.298462,0.0812988,-0.893066
1480098275334119,0.32666,0.298462,0.0812988,-0.893066
1480098275351666,0.32666,0.298462,0.0812988,-0.893066
1480098275381745,0.32666,0.298462,0.0812988,-0.893066
1480098275393777,0.326599,0.298462,0.0812988,-0.893066
1480098275411825,0.32666,0.298523,0.0812988,-0.893066
1480098275432881,0.32666,0.298462,0.0812988,-0.893066
1480098275453968,0.32666,0.298523,0.0812988,-0.893066
1480098275471986,0.32666,0.298523,0.0812988,-0.893066
1480098275494546,0.32666,0.298523,0.0812988,-0.893066
1480098275514097,0.32666,0.298523,0.0812988,-0.893066
1480098275539163,0.32666,0.298462,0.0812988,-0.893066
1480098275552700,0.32666,0.298523,0.0812988,-0.893066
1480098275573788,0.32666,0.298462,0.0812988,-0.893066
1480098275591804,0.32666,0.298462,0.0812988,-0.893066
1480098275612860,0.32666,0.298462,0.0812988,-0.893066
1480098275633941,0.32666,0.298462,0.0812988,-0.893066
1480098275656475,0.32666,0.298462,0.0812988,-0.893066
1480098275673019,0.32666,0.298462,0.0812988,-0.893066
1480098275694076,0.326721,0.298462,0.0812988,-0.893066
1480098275716635,0.32666,0.298462,0.0812988,-0.893066
1480098275740699,0.32666,0.298462,0.0812988,-0.893066
1480098275753734,0.326721,0.298462,0.0812988,-0.893066
1480098275771782,0.32666,0.298462,0.0812988,-0.893066
1480098275794342,0.32666,0.298462,0.0812988,-0.893066
1480098275813894,0.32666,0.298462,0.0812988,-0.893066
1480098275831942,0.32666,0.298523,0.0812988,-0.893066
1480098275854503,0.32666,0.298523,0.0812988,-0.893066
1480098275874054,0.32666,0.298523,0.0812988,-0.893066
1480098275891602,0.32666,0.298523,0.0812988,-0.893066
1480098275914662,0.32666,0.298523,0.0812988,-0.893066
1480098275933713,0.32666,0.298523,0.0812988,-0.893066
1480098275951761,0.32666,0.298523,0.0812988,-0.893066
1480098275974321,0.326721,0.298523,0.0812988,-0.893066
1480098275993873,0.32666,0.298523,0.0812988,-0.893066
1480098276011921,0.326721,0.298523,0.0812988,-0.893066
1480098276034481,0.32666,0.298523,0.0812988,-0.893066
1480098276054033,0.32666,0.298523,0.0812988,-0.893066
1480098276078097,0.326721,0.298523,0.0812988,-0.893066
1480098276094139,0.32666,0.298523,0.0812988,-0.893066
1480098276113692,0.32666,0.298523,0.0812988,-0.893066
1480098276131740,0.326721,0.298523,0.0812988,-0.893066
1480098276154300,0.32666,0.298523,0.0812988,-0.893066
1480098276173852,0.326721,0.298523,0.0812988,-0.893066
1480098276191899,0.32666,0.298523,0.0812988,-0.893066
1480098276214461,0.32666,0.298523,0.0812988,-0.893066
1480098276235516,0.326721,0.298462,0.0812988,-0.893066
1480098276252060,0.32666,0.298523,0.0812988,-0.893066
1480098276274620,0.32666,0.298523,0.0812988,-0.893066
1480098276294171,0.326721,0.298462,0.0812988,-0.893066
1480098276311720,0.32666,0.298523,0.0812988,-0.893066
1480098276334279,0.326721,0.298523,0.0812988,-0.893066
1480098276353869,0.32666,0.298523,0.0812988,-0.893066
1480098276371879,0.32666,0.298523,0.0812988,-0.893066
1480098276400455,0.32666,0.298523,0.0812988,-0.893066
1480098276415495,0.32666,0.298523,0.0812988,-0.893066
1480098276432038,0.32666,0.298523,0.0812988,-0.893066
1480098276455101,0.32666,0.298462,0.0812988,-0.893066
1480098276475153,0.326599,0.298523,0.0812988,-0.893066
1480098276491697,0.32666,0.298523,0.0812988,-0.893066
1480098276521779,0.32666,0.298523,0.0812988,-0.893066
1480098276535313,0.326599,0.298523,0.0812988,-0.893066
1480098276556408,0.32666,0.298523,0.0812988,-0.893066
1480098276574419,0.326599,0.298523,0.0812988,-0.893066
1480098276595474,0.326599,0.298523,0.0812988,-0.893066
1480098276616529,0.32666,0.298523,0.0812988,-0.893066
1480098276634576,0.326599,0.298523,0.0813599,-0.893066
1480098276655132,0.326599,0.298523,0.0812988,-0.893066
1480098276676190,0.326599,0.298523,0.0812988,-0.893066
1480098276695238,0.326599,0.298523,0.0813599,-0.893066
1480098276716795,0.326599,0.298523,0.0813599,-0.893066
1480098276739356,0.326538,0.298523,0.0813599,-0.893127
1480098276754395,0.326538,0.298828,0.0813599,-0.893005
1480098276776956,0.326538,0.298828,0.0813599,-0.893005
1480098276799516,0.326294,0.299011,0.0813599,-0.893066
1480098276814555,0.326294,0.299011,0.0813599,-0.893005
1480098276836614,0.32605,0.299194,0.0812988,-0.893066
1480098276857670,0.325989,0.299255,0.0812988,-0.893066
1480098276874214,0.32605,0.299316,0.0811768,-0.893005
1480098276896774,0.32605,0.299316,0.0812378,-0.893066
1480098276916326,0.32605,0.299316,0.0812378,-0.893005
1480098276934375,0.325928,0.299438,0.0810547,-0.893066
1480098276956935,0.325684,0.299683,0.0810547,-0.893066
1480098276976488,0.325684,0.299744,0.0810547,-0.893066
1480098276995037,0.325684,0.299683,0.0810547,-0.893066
1480098277017094,0.325623,0.299744,0.0810547,-0.893066
1480098277036646,0.325684,0.299744,0.0810547,-0.893066
1480098277054193,0.325684,0.299744,0.0810547,-0.893066
1480098277076253,0.325623,0.299805,0.0811157,-0.893066
1480098277096305,0.325684,0.299744,0.0811157,-0.893066
1480098277114353,0.325623,0.299805,0.0811157,-0.893066
1480098277136914,0.325623,0.299805,0.0811157,-0.893005
1480098277156466,0.325623,0.299805,0.0811157,-0.893005
1480098277174513,0.325562,0.299866,0.0811157,-0.893005
1480098277197073,0.325623,0.299866,0.0811157,-0.893005
1480098277216624,0.325623,0.299866,0.0811157,-0.893005
1480098277234171,0.325562,0.299927,0.0811768,-0.893005
1480098277256731,0.325562,0.299927,0.0811768,-0.893005
1480098277276286,0.325562,0.299927,0.0811768,-0.893005
1480098277294332,0.325562,0.299988,0.0811768,-0.893005
1480098277317432,0.325623,0.299988,0.0811768,-0.893005
1480098277336946,0.325562,0.299988,0.0811768,-0.893005
1480098277354492,0.325562,0.299988,0.0811768,-0.893005
1480098277377053,0.325562,0.299988,0.0811768,-0.893005
1480098277398107,0.325562,0.299927,0.0813599,-0.893005
1480098277414167,0.325623,0.299927,0.0813599,-0.892944
1480098277436710,0.325623,0.299988,0.0813599,-0.892944
1480098277457766,0.325623,0.299988,0.0813599,-0.892944
1480098277474312,0.325623,0.299988,0.0813599,-0.892944
1480098277501383,0.325562,0.299988,0.0814209,-0.892944
1480098277516923,0.325562,0.299988,0.0814209,-0.892944
1480098277534470,0.325562,0.299988,0.0814209,-0.892944
1480098277557030,0.325562,0.299988,0.0814209,-0.893005
1480098277577085,0.325562,0.299988,0.0814209,-0.893005
1480098277593127,0.3255,0.299988,0.0814209,-0.893005
1480098277616187,0.3255,0.299988,0.0814209,-0.893005
1480098277637244,0.3255,0.299988,0.0814209,-0.893005
1480098277652785,0.3255,0.299988,0.0814209,-0.893005
1480098277682363,0.3255,0.299988,0.0814209,-0.893005
1480098277698453,0.3255,0.299988,0.0814209,-0.893005
1480098277719508,0.325439,0.299988,0.0814209,-0.893005
1480098277736053,0.3255,0.299988,0.0814209,-0.893005
1480098277758613,0.3255,0.299988,0.0814209,-0.893005
1480098277779669,0.325439,0.299988,0.0814209,-0.893005
1480098277796214,0.3255,0.299988,0.0814209,-0.893005
1480098277818271,0.325439,0.300049,0.0814209,-0.893005
1480098277839327,0.325439,0.300049,0.0814209,-0.893005
1480098277855872,0.3255,0.299988,0.0814209,-0.893005
1480098277878432,0.325439,0.300049,0.0814819,-0.893005
1480098277899487,0.325439,0.300049,0.0814819,-0.893005
1480098277916031,0.325439,0.300049,0.0814819,-0.893005
1480098277939092,0.325378,0.300049,0.0814819,-0.893005
1480098277959648,0.325439,0.300049,0.0814819,-0.893005
1480098277976192,0.325439,0.300049,0.0814819,-0.893005
1480098277998251,0.325439,0.300049,0.0814819,-0.893005
1480098278019307,0.325439,0.299988,0.0814819,-0.893005
1480098278035851,0.325378,0.300049,0.0814819,-0.893005
1480098278058410,0.325378,0.300049,0.0814819,-0.893005
1480098278080468,0.325378,0.300049,0.0814819,-0.893005
1480098278096012,0.325378,0.30011,0.0814819,-0.893005
1480098278119072,0.325439,0.300049,0.0814819,-0.893005
1480098278139665,0.325378,0.30011,0.0814819,-0.893005
1480098278156169,0.325378,0.30011,0.0814819,-0.893005
1480098278184745,0.325378,0.300049,0.0814819,-0.893005
1480098278199787,0.325378,0.30011,0.0814819,-0.893005
1480098278215829,0.325378,0.30011,0.0814819,-0.893005
1480098278238388,0.325378,0.300049,0.0814819,-0.893005
1480098278259447,0.325378,0.300049,0.0814819,-0.893005
1480098278275991,0.325378,0.300049,0.0814819,-0.893005
1480098278298550,0.325378,0.300049,0.0814819,-0.893005
1480098278320135,0.325378,0.300049,0.0814819,-0.893005
1480098278336149,0.325439,0.300049,0.0814819,-0.893005
1480098278358709,0.325378,0.300049,0.0814819,-0.893005
1480098278379782,0.325378,0.300049,0.0814819,-0.893005
1480098278395807,0.325378,0.300049,0.0814819,-0.893005
1480098278418368,0.325378,0.300049,0.0814819,-0.893005
1480098278439423,0.325378,0.300049,0.0814819,-0.893005
1480098278455967,0.325378,0.300049,0.0814819,-0.893005
1480098278478527,0.325317,0.300049,0.0814819,-0.893005
1480098278499584,0.325378,0.300049,0.0814819,-0.893005
1480098278516128,0.325378,0.300049,0.0814819,-0.893005
1480098278538686,0.325378,0.300049,0.0814819,-0.893005
1480098278559744,0.325378,0.300049,0.0814819,-0.893005
1480098278576290,0.325317,0.300049,0.081543,-0.893005
1480098278598345,0.325317,0.300049,0.0814819,-0.893005
1480098278628427,0.325378,0.300049,0.0814819,-0.893005
1480098278635947,0.325317,0.300049,0.0814819,-0.893005
1480098278658506,0.325317,0.300049,0.0814819,-0.893005
1480098278681067,0.325317,0.300049,0.0814819,-0.893066
1480098278703626,0.325317,0.300049,0.0814819,-0.893066
1480098278718667,0.325317,0.299988,0.0814819,-0.893066
1480098278740725,0.325317,0.300049,0.081543,-0.893066
1480098278755264,0.325317,0.300049,0.0814819,-0.893066
1480098278778326,0.325317,0.300049,0.0814819,-0.893066
1480098278800887,0.325256,0.300049,0.081543,-0.893066
1480098278815425,0.325317,0.300049,0.0814819,-0.893066
1480098278838484,0.325256,0.300049,0.081543,-0.893066
1480098278861046,0.325317,0.300049,0.081543,-0.893005
1480098278875583,0.325317,0.300049,0.0814819,-0.893005
1480098278898677,0.325317,0.30011,0.081543,-0.893005
1480098278921216,0.325317,0.30011,0.081543,-0.893005
1480098278935241,0.325317,0.300049,0.081543,-0.893005
1480098278958804,0.325317,0.30011,0.081543,-0.893005
1480098278982392,0.325378,0.30011,0.081543,-0.893005
1480098278995403,0.325317,0.30011,0.081543,-0.893005
1480098279018479,0.325317,0.30011,0.081543,-0.893005
1480098279041025,0.325317,0.300049,0.081543,-0.893005
1480098279055561,0.325256,0.300049,0.081543,-0.893005
1480098279078623,0.325317,0.300049,0.081543,-0.893066
1480098279101184,0.325317,0.300049,0.081543,-0.893005
1480098279123744,0.325256,0.30011,0.081543,-0.893066
1480098279145803,0.325256,0.300049,0.081543,-0.893066
1480098279160843,0.325256,0.300049,0.081543,-0.893066
1480098279181898,0.325256,0.30011,0.081543,-0.893066
1480098279205961,0.325256,0.30011,0.081543,-0.893005
1480098279221010,0.325256,0.30011,0.081543,-0.893005
1480098279242087,0.325256,0.30011,0.081543,-0.893005
1480098279258602,0.325256,0.30011,0.081543,-0.893005
1480098279281163,0.325256,0.30011,0.081543,-0.893005
1480098279302220,0.325256,0.30011,0.081543,-0.893005
1480098279318261,0.325256,0.30011,0.081543,-0.893005
1480098279340821,0.325256,0.30011,0.081543,-0.893005
1480098279361885,0.325256,0.30011,0.081543,-0.893066
1480098279378422,0.325195,0.30011,0.081543,-0.893066
1480098279400981,0.325195,0.30011,0.081604,-0.893066
1480098279422038,0.325195,0.30011,0.081543,-0.893066
1480098279438582,0.325195,0.300171,0.081604,-0.893005
1480098279461153,0.325195,0.300171,0.081604,-0.893005
1480098279482197,0.325195,0.300171,0.081604,-0.893005
1480098279498239,0.325195,0.300171,0.081604,-0.893066
1480098279520800,0.325134,0.300232,0.0814209,-0.893066
1480098279541863,0.32489,0.300415,0.0814209,-0.893066
1480098279558399,0.32489,0.300476,0.0814209,-0.893066
1480098279580960,0.324951,0.300415,0.0814209,-0.893066
1480098279603519,0.324646,0.300598,0.0813599,-0.893066
1480098279618559,0.324707,0.300598,0.0813599,-0.893066
1480098279641119,0.324707,0.300598,0.0813599,-0.893066
1480098279663678,0.324646,0.300659,0.0814209,-0.893066
1480098279678217,0.324707,0.300598,0.0813599,-0.893066
1480098279701280,0.324646,0.300659,0.0814209,-0.893066
1480098279723338,0.324646,0.300659,0.0814209,-0.893066
1480098279737878,0.324646,0.300659,0.0814209,-0.893066
1480098279760938,0.324646,0.300659,0.0814209,-0.893066
1480098279789513,0.324646,0.300659,0.0814209,-0.893066
1480098279798037,0.324646,0.300659,0.0814209,-0.893066
1480098279821098,0.324585,0.30072,0.0814209,-0.893066
1480098279843658,0.324646,0.30072,0.0814209,-0.893066
1480098279857696,0.324646,0.30072,0.0814209,-0.893066
1480098279881257,0.324585,0.300781,0.0814209,-0.893066
1480098279903819,0.324646,0.30072,0.0814209,-0.893066
1480098279917855,0.324585,0.300781,0.0814819,-0.893066
1480098279942423,0.324585,0.300781,0.0814819,-0.893066
1480098279963477,0.324585,0.300842,0.0814819,-0.893005
1480098279978016,0.324585,0.300842,0.0814819,-0.893005
1480098280001078,0.324585,0.300842,0.0814819,-0.893005
1480098280023136,0.324585,0.300903,0.0814819,-0.893005
1480098280037673,0.324524,0.300903,0.081543,-0.893005
1480098280061236,0.324585,0.300903,0.0814819,-0.893005
1480098280083295,0.324524,0.300903,0.081543,-0.893005
1480098280104351,0.324524,0.300964,0.081543,-0.893005
1480098280128415,0.324524,0.300964,0.081543,-0.893005
1480098280143456,0.324524,0.300964,0.081543,-0.893005
1480098280164511,0.324524,0.301025,0.081543,-0.893005
1480098280181055,0.324524,0.301025,0.081543,-0.893005
1480098280203615,0.324463,0.301025,0.081604,-0.893005
1480098280224673,0.324463,0.301025,0.081604,-0.893005
1480098280241215,0.324463,0.301025,0.081604,-0.893005
1480098280263274,0.324463,0.301086,0.081604,-0.893005
1480098280284330,0.324463,0.301025,0.081604,-0.893005
1480098280300874,0.324402,0.301086,0.081604,-0.893005
1480098280323434,0.324402,0.301086,0.081604,-0.893005
1480098280344505,0.324402,0.301086,0.081604,-0.893005
1480098280361035,0.324402,0.301147,0.081665,-0.893005
1480098280383594,0.324402,0.301147,0.081665,-0.893005
1480098280404650,0.324402,0.301147,0.081665,-0.893005
1480098280421194,0.324341,0.301208,0.081665,-0.893005
1480098280443754,0.324402,0.301208,0.081665,-0.893005
1480098280464811,0.324341,0.301208,0.081665,-0.892944
1480098280480852,0.324341,0.301208,0.0817261,-0.892944
1480098280503430,0.324341,0.30127,0.0817261,-0.892944
1480098280525973,0.324341,0.30127,0.0817261,-0.892944
1480098280541013,0.324341,0.30127,0.0817261,-0.892944
1480098280563573,0.324341,0.301331,0.0817261,-0.892944
1480098280586132,0.32428,0.301331,0.0817261,-0.892944
1480098280601673,0.324341,0.301331,0.0817261,-0.892944
1480098280624245,0.32428,0.301392,0.0817871,-0.892944
1480098280645795,0.324341,0.301392,0.0817871,-0.892944
1480098280660831,0.324341,0.301392,0.0817871,-0.892883
1480098280683391,0.324219,0.301331,0.0819702,-0.892944
1480098280705951,0.324219,0.301331,0.0819702,-0.892944
1480098280720490,0.324158,0.301331,0.0819702,-0.892944
1480098280743552,0.32428,0.301331,0.0820923,-0.892944
1480098280766112,0.324585,0.301208,0.0821533,-0.892883
1480098280780149,0.324585,0.301086,0.0822754,-0.892883
1480098280803727,0.324585,0.301086,0.0822754,-0.892883
1480098280826272,0.324585,0.301086,0.0822754,-0.892883
1480098280840309,0.324524,0.301147,0.0822754,-0.892883
1480098280863370,0.324524,0.301147,0.0822754,-0.892883
1480098280885929,0.324585,0.301086,0.0822754,-0.892883
1480098280900468,0.324524,0.301147,0.0822754,-0.892883
1480098280923530,0.324524,0.301086,0.0822754,-0.892883
1480098280946091,0.324524,0.301147,0.0822754,-0.892883
1480098280960127,0.324524,0.301147,0.0822754,-0.892883
1480098280983689,0.324524,0.301147,0.0822754,-0.892883
1480098281005749,0.324524,0.301147,0.0822754,-0.892883
1480098281026805,0.324524,0.301147,0.0822754,-0.892883
1480098281043349,0.324524,0.301086,0.0822754,-0.892883
1480098281065908,0.324463,0.301086,0.0822754,-0.892883
1480098281087466,0.324524,0.301086,0.0822754,-0.892883
1480098281103508,0.324524,0.301086,0.0822754,-0.892883
1480098281126071,0.324463,0.301086,0.0822754,-0.892883
1480098281147132,0.324524,0.301086,0.0822754,-0.892883
1480098281163669,0.324463,0.301086,0.0822754,-0.892883
1480098281185727,0.324463,0.301147,0.0822754,-0.892883
1480098281207285,0.324524,0.301147,0.0822754,-0.892883
1480098281223328,0.324524,0.301025,0.0824585,-0.892883
1480098281245888,0.324707,0.300842,0.0823975,-0.892883
1480098281274463,0.324707,0.300781,0.0823975,-0.892944
1480098281289504,0.324646,0.300781,0.0823975,-0.892944
1480098281306048,0.324707,0.30072,0.0823975,-0.892944
1480098281327104,0.324646,0.300781,0.0823975,-0.892944
1480098281343648,0.324585,0.300781,0.0824585,-0.892944
1480098281366207,0.324585,0.300781,0.0824585,-0.892944
1480098281387262,0.324585,0.300781,0.0824585,-0.892944
1480098281403306,0.324646,0.300842,0.0824585,-0.892944
1480098281425866,0.324646,0.300903,0.0822754,-0.892883
1480098281446922,0.324646,0.300964,0.0823364,-0.892883
1480098281463465,0.324707,0.300964,0.0822754,-0.892883
1480098281486027,0.324768,0.300964,0.0824585,-0.892822
1480098281508587,0.324768,0.300781,0.0825195,-0.892883
1480098281523628,0.324951,0.300415,0.0825195,-0.892944
1480098281546193,0.324951,0.300232,0.0825806,-0.893005
1480098281568244,0.325012,0.299866,0.0826416,-0.893066
1480098281583286,0.325012,0.299866,0.0826416,-0.893127
1480098281605845,0.324951,0.299866,0.0826416,-0.893127
1480098281628406,0.324951,0.299805,0.0826416,-0.893127
1480098281642950,0.324951,0.299805,0.0826416,-0.893127
1480098281666005,0.324951,0.299805,0.0826416,-0.893127
1480098281688565,0.324951,0.299744,0.0826416,-0.893188
1480098281702603,0.32489,0.299805,0.0826416,-0.893188
1480098281726190,0.32489,0.299805,0.0826416,-0.893188
1480098281748223,0.324829,0.299866,0.0825806,-0.893188
1480098281762792,0.324646,0.300171,0.0827026,-0.893127
1480098281785824,0.324524,0.300354,0.0826416,-0.893127
1480098281809389,0.324341,0.300659,0.0825806,-0.893066
1480098281822923,0.324158,0.301025,0.0825806,-0.893066
1480098281845983,0.324158,0.301208,0.0823975,-0.893005
1480098281868544,0.323975,0.301514,0.0823975,-0.892944
1480098281883081,0.323975,0.301758,0.0822754,-0.892883
1480098281913663,0.323853,0.30188,0.0820923,-0.892883
1480098281928704,0.323669,0.302185,0.0819702,-0.892883
1480098281949758,0.323608,0.302368,0.0817871,-0.892822
1480098281966806,0.323425,0.302551,0.0817261,-0.892883
1480098281988362,0.322998,0.302795,0.081665,-0.892944
1480098282009443,0.322937,0.302917,0.0814819,-0.892944
1480098282025964,0.322754,0.303162,0.0814819,-0.892883
1480098282048523,0.322754,0.303406,0.0814209,-0.892822
1480098282069577,0.322815,0.303406,0.0813599,-0.892822
1480098282086123,0.322449,0.303589,0.0814209,-0.892883
1480098282108686,0.322449,0.303589,0.0814209,-0.892883
1480098282129737,0.322449,0.303589,0.0814209,-0.892883
1480098282145782,0.322388,0.303589,0.0814209,-0.892883
1480098282168342,0.322571,0.30365,0.0814209,-0.892822
1480098282189401,0.322388,0.303833,0.0814209,-0.892822
1480098282211957,0.322205,0.304077,0.0814209,-0.892822
1480098282228502,0.322144,0.30426,0.0812988,-0.892761
1480098282249054,0.321838,0.304504,0.0812378,-0.892822
1480098282266102,0.321838,0.304749,0.0811768,-0.892761
1480098282288660,0.321899,0.304932,0.0810547,-0.892639
1480098282309716,0.321899,0.304993,0.0811157,-0.892639
1480098282325759,0.321899,0.304993,0.0810547,-0.892639
1480098282354336,0.321777,0.305176,0.0810547,-0.892578
1480098282369376,0.321777,0.30542,0.0811157,-0.892517
1480098282385919,0.321838,0.305603,0.0810547,-0.892456
1480098282408482,0.321838,0.305603,0.0810547,-0.892456
1480098282431039,0.321838,0.305603,0.0810547,-0.892456
1480098282446080,0.321838,0.305603,0.0810547,-0.892456
1480098282468639,0.321594,0.305847,0.0811157,-0.892456
1480098282491199,0.321655,0.305847,0.0811157,-0.892456
1480098282512258,0.321594,0.305847,0.0811157,-0.892456
1480098282528299,0.321594,0.305908,0.0811157,-0.892456
1480098282550859,0.321594,0.30603,0.0809937,-0.892395
1480098282565396,0.32135,0.306335,0.0810547,-0.892395
1480098282588959,0.32135,0.306335,0.0810547,-0.892395
1480098282611017,0.321411,0.306396,0.0809326,-0.892334
1480098282625557,0.32135,0.306458,0.0809937,-0.892334
1480098282648619,0.32135,0.306641,0.0809326,-0.892273
1480098282671177,0.321167,0.306946,0.0808716,-0.892212
1480098282685216,0.320862,0.307251,0.0809326,-0.892273
1480098282708780,0.320923,0.307251,0.0809326,-0.892212
1480098282736852,0.320862,0.307251,0.0809326,-0.892212
1480098282745376,0.320862,0.307251,0.0809326,-0.892212
1480098282768438,0.320984,0.307373,0.0808716,-0.892151
1480098282790998,0.320923,0.307373,0.0808716,-0.892151
1480098282805535,0.320923,0.307373,0.0808716,-0.892151
1480098282828613,0.320679,0.307495,0.0808105,-0.892212
1480098282851158,0.320374,0.307739,0.0808716,-0.892273
1480098282865195,0.320435,0.307739,0.0808105,-0.892273
1480098282888758,0.320435,0.3078,0.0808716,-0.892212
1480098282910815,0.320435,0.3078,0.0808716,-0.892212
1480098282939391,0.320435,0.3078,0.0808716,-0.892212
1480098282948417,0.320374,0.307861,0.0808716,-0.892212
1480098282970975,0.320374,0.307861,0.0808716,-0.892212
1480098282999552,0.320374,0.307861,0.0808716,-0.892212
1480098283008577,0.320374,0.307861,0.0808716,-0.892212
1480098283031136,0.320374,0.307861,0.0808716,-0.892212
1480098283052190,0.320374,0.307922,0.0808716,-0.892212
1480098283068235,0.320313,0.307922,0.0809326,-0.892212
1480098283090796,0.320374,0.307922,0.0809326,-0.892212
1480098283111849,0.320313,0.307983,0.0809326,-0.892212
1480098283128394,0.320313,0.307983,0.0809326,-0.892151
1480098283150956,0.320374,0.307983,0.0809326,-0.892151
1480098283172009,0.320313,0.308044,0.0809937,-0.892151
1480098283188555,0.320313,0.308044,0.0809937,-0.892151
1480098283211113,0.320313,0.308105,0.0809937,-0.892151
1480098283233675,0.320313,0.307983,0.0811157,-0.892212
1480098283248717,0.320618,0.307861,0.0810547,-0.89209
1480098283271273,0.320557,0.307922,0.0811157,-0.89209
1480098283292330,0.320557,0.307922,0.0811157,-0.89209
1480098283308374,0.320618,0.307922,0.0811157,-0.89209
1480098283330934,0.320557,0.307922,0.0811157,-0.89209
1480098283351990,0.320557,0.307922,0.0811157,-0.89209
1480098283368533,0.320801,0.307861,0.0812378,-0.892029
1480098283391094,0.32074,0.307922,0.0812378,-0.892029
1480098283421172,0.320923,0.307739,0.0812988,-0.892029
1480098283428692,0.320923,0.307678,0.0814819,-0.892029
1480098283450751,0.321045,0.307495,0.081543,-0.892029
1480098283473311,0.321411,0.307251,0.081604,-0.891968
1480098283494367,0.321533,0.307007,0.0817871,-0.891968
1480098283510912,0.321655,0.306702,0.0818481,-0.89209
1480098283533973,0.321716,0.306458,0.0819702,-0.892151
1480098283548011,0.321655,0.306458,0.0820313,-0.892151
1480098283571071,0.321655,0.306458,0.0820313,-0.892151
1480098283593632,0.321655,0.306396,0.0817871,-0.892212
1480098283608172,0.321777,0.306274,0.0813599,-0.892212
1480098283631234,0.322144,0.305908,0.0806274,-0.892273
1480098283653289,0.322266,0.30542,0.079834,-0.892456
1480098283667828,0.321838,0.305786,0.0783691,-0.892639
1480098283691394,0.321228,0.305725,0.0791626,-0.892822
1480098283713450,0.322815,0.304016,0.079834,-0.892761
1480098283736043,0.323059,0.303589,0.0797729,-0.892822
1480098283751051,0.323792,0.304199,0.0795288,-0.892334
1480098283773611,0.324463,0.304993,0.0789185,-0.891907
1480098283802186,0.324463,0.305603,0.0787964,-0.891724
1480098283811210,0.324768,0.30603,0.0787964,-0.891479
1480098283833270,0.325317,0.305847,0.0783691,-0.891357
1480098283854325,0.325378,0.305908,0.0778809,-0.891357
1480098283870870,0.325256,0.306335,0.0778198,-0.891235
1480098283893430,0.325378,0.306885,0.0777588,-0.891052
1480098283914522,0.325378,0.307495,0.0780029,-0.890808
1480098283931029,0.325439,0.307861,0.0784302,-0.890625
1480098283953588,0.325439,0.3078,0.0784912,-0.890625
1480098283974648,0.324768,0.308167,0.0785522,-0.890747
1480098283990689,0.324158,0.308411,0.0788574,-0.890808
1480098284013249,0.324036,0.308472,0.0792236,-0.890808
1480098284034341,0.324707,0.308228,0.079834,-0.890625
1480098284050849,0.324768,0.308228,0.079834,-0.890625
1480098284073409,0.32428,0.308655,0.0801392,-0.890564
1480098284094464,0.324097,0.30896,0.0808105,-0.890503
1480098284111008,0.324097,0.308655,0.0811157,-0.890564
1480098284133567,0.324219,0.30835,0.081604,-0.890564
1480098284154623,0.324524,0.308533,0.0821533,-0.890381
1480098284171167,0.324341,0.308838,0.0825195,-0.890259
1480098284193225,0.324158,0.308838,0.0831299,-0.89032
1480098284214283,0.324463,0.308533,0.0834351,-0.890259
1480098284230826,0.324524,0.308289,0.0839233,-0.890259
1480098284253388,0.324219,0.30835,0.0836792,-0.890381
1480098284274441,0.323242,0.308716,0.0837402,-0.890625
1480098284290987,0.322449,0.308655,0.0837402,-0.89093
1480098284313547,0.322571,0.308472,0.0838623,-0.89093
1480098284336106,0.323669,0.30835,0.0842285,-0.890564
1480098284351147,0.324402,0.308228,0.0842896,-0.89032
1480098284373205,0.324158,0.307983,0.0841675,-0.890503
1480098284395767,0.323914,0.307617,0.0842896,-0.890686
1480098284410806,0.323547,0.307617,0.0847168,-0.890808
1480098284433366,0.323669,0.307556,0.0849609,-0.890747
1480098284455924,0.323792,0.307556,0.085022,-0.890686
1480098284470463,0.323792,0.307556,0.085022,-0.890686
1480098284493525,0.323853,0.307556,0.085022,-0.890686
1480098284516084,0.323669,0.307312,0.085022,-0.890808
1480098284530123,0.323669,0.307068,0.085083,-0.89093
1480098284553684,0.323792,0.306824,0.085083,-0.89093
1480098284575744,0.323853,0.306763,0.0852661,-0.89093
1480098284590281,0.324219,0.30658,0.0853271,-0.890808
1480098284614847,0.324219,0.30658,0.0853271,-0.890869
1480098284635906,0.323914,0.30658,0.0853271,-0.890991
1480098284650443,0.323547,0.306519,0.085144,-0.891113
1480098284673507,0.323242,0.306519,0.085022,-0.891235
1480098284696064,0.323242,0.306519,0.085022,-0.891235
1480098284710101,0.323669,0.306396,0.0849609,-0.891174
1480098284733663,0.323853,0.306335,0.085022,-0.891113
1480098284756223,0.323853,0.306335,0.085022,-0.891113
1480098284776778,0.323853,0.306335,0.085022,-0.891113
1480098284793322,0.323853,0.306335,0.085022,-0.891113
1480098284815883,0.323853,0.306335,0.085022,-0.891113
1480098284836938,0.323914,0.306519,0.0852051,-0.890991
1480098284853483,0.323914,0.306519,0.0852051,-0.890991
1480098284883562,0.323914,0.306519,0.0852051,-0.890991
1480098284897099,0.323914,0.306519,0.0852051,-0.890991
1480098284913643,0.323853,0.306519,0.085144,-0.891052
1480098284935700,0.323792,0.306396,0.085083,-0.891113
1480098284957258,0.32373,0.306458,0.085083,-0.891113
1480098284973301,0.324036,0.306335,0.085144,-0.890991
1480098284995862,0.324219,0.306213,0.0852661,-0.890991
1480098285016917,0.32428,0.306213,0.0854492,-0.89093
1480098285033460,0.324524,0.305969,0.0855103,-0.89093
1480098285056021,0.324524,0.305908,0.0855103,-0.89093
1480098285077077,0.324524,0.305908,0.0855103,-0.89093
1480098285093621,0.324463,0.305725,0.0853882,-0.891052
1480098285116180,0.32428,0.305664,0.0855103,-0.891113
1480098285137237,0.32428,0.305664,0.0854492,-0.891113
1480098285153279,0.324524,0.305542,0.0855713,-0.891113
1480098285176344,0.324707,0.305542,0.0857544,-0.890991
1480098285196896,0.324707,0.305481,0.0856934,-0.890991
1480098285213442,0.324707,0.305481,0.0856934,-0.890991
1480098285235999,0.324707,0.305481,0.0856934,-0.890991
1480098285257056,0.324768,0.305481,0.0856934,-0.890991
1480098285273601,0.324707,0.305481,0.0857544,-0.890991
1480098285296159,0.325073,0.305481,0.0856323,-0.89093
1480098285318219,0.325134,0.30542,0.0856323,-0.890869
1480098285333259,0.32489,0.30542,0.0856323,-0.890991
1480098285355818,0.324707,0.305237,0.0855713,-0.891113
1480098285378378,0.324707,0.305237,0.0855713,-0.891113
1480098285392918,0.324646,0.305298,0.0855713,-0.891113
1480098285415978,0.324951,0.305237,0.0855713,-0.891052
1480098285438569,0.324951,0.305237,0.0855713,-0.891052
1480098285452577,0.325012,0.305176,0.0855103,-0.890991
1480098285476137,0.32489,0.305115,0.0854492,-0.891113
1480098285498697,0.32489,0.305115,0.0854492,-0.891113
1480098285512736,0.32489,0.305115,0.0854492,-0.891113
1480098285536799,0.32489,0.305176,0.0854492,-0.891052
1480098285558357,0.32489,0.305176,0.0855103,-0.891052
1480098285572896,0.32489,0.305176,0.0854492,-0.891052
1480098285595957,0.32489,0.305176,0.0854492,-0.891052
1480098285618517,0.32489,0.305176,0.0854492,-0.891052
1480098285632554,0.32489,0.305176,0.0854492,-0.891052
1480098285656117,0.324829,0.305176,0.0855103,-0.891113
1480098285678676,0.32489,0.305115,0.0854492,-0.891113
1480098285699231,0.32489,0.305115,0.0854492,-0.891113
1480098285715776,0.324829,0.305176,0.0855103,-0.891113
1480098285738336,0.32489,0.305176,0.0854492,-0.891113
1480098285759430,0.32489,0.305176,0.0854492,-0.891113
1480098285775936,0.32489,0.305176,0.0854492,-0.891113
1480098285798500,0.32489,0.305115,0.0854492,-0.891113
1480098285819551,0.32489,0.305176,0.0854492,-0.891052
1480098285836135,0.325073,0.304932,0.0855103,-0.891113
1480098285866180,0.325073,0.304932,0.0854492,-0.891113
1480098285887237,0.325073,0.304932,0.0854492,-0.891113
1480098285895754,0.325073,0.304932,0.0854492,-0.891113
1480098285925835,0.325012,0.304932,0.0855103,-0.891113
1480098285939370,0.325012,0.304871,0.0855103,-0.891113
1480098285961930,0.325012,0.304871,0.0854492,-0.891113
1480098285978475,0.325012,0.304932,0.0855103,-0.891113
1480098285999531,0.325012,0.304932,0.0855103,-0.891113
1480098286016074,0.325073,0.304932,0.0854492,-0.891113
1480098286038633,0.325012,0.304932,0.0855103,-0.891113
1480098286059724,0.325012,0.304932,0.0855103,-0.891113
1480098286075733,0.325134,0.304871,0.0855713,-0.891113
1480098286098298,0.325134,0.30481,0.0855713,-0.891113
1480098286119353,0.325134,0.30481,0.0855103,-0.891113
1480098286135913,0.325134,0.30481,0.0855103,-0.891113
1480098286158496,0.325134,0.30481,0.0855103,-0.891113
1480098286179549,0.325134,0.304749,0.0855103,-0.891113
1480098286196057,0.325134,0.304749,0.0855103,-0.891113
1480098286218621,0.325134,0.304749,0.0855103,-0.891113
1480098286241178,0.325134,0.304688,0.0855103,-0.891113
1480098286255716,0.325134,0.304749,0.0855103,-0.891113
1480098286278275,0.325134,0.304688,0.0855103,-0.891174
1480098286300843,0.325134,0.304688,0.0855103,-0.891174
1480098286315374,0.325134,0.304688,0.0855103,-0.891174
1480098286338436,0.325134,0.304626,0.0855103,-0.891174
1480098286360996,0.325134,0.304626,0.0855103,-0.891174
1480098286375549,0.325134,0.304626,0.0855103,-0.891174
1480098286398598,0.325134,0.304626,0.0855103,-0.891174
1480098286421168,0.325073,0.304626,0.0855103,-0.891174
1480098286435194,0.325134,0.304626,0.0854492,-0.891174
1480098286458255,0.325134,0.304626,0.0855103,-0.891174
1480098286480814,0.325073,0.304565,0.0855103,-0.891174
1480098286495386,0.325134,0.304565,0.0854492,-0.891174
1480098286518415,0.325073,0.304565,0.0855103,-0.891235
1480098286540976,0.325073,0.304565,0.0854492,-0.891235
1480098286555518,0.325073,0.304565,0.0854492,-0.891235
1480098286578575,0.325073,0.304565,0.0855103,-0.891235
1480098286601648,0.325073,0.304565,0.0854492,-0.891235
1480098286615173,0.325073,0.304504,0.0854492,-0.891235
1480098286638234,0.325073,0.304504,0.0854492,-0.891235
1480098286660792,0.325073,0.304443,0.0854492,-0.891235
1480098286681850,0.325073,0.304443,0.0854492,-0.891235
1480098286698393,0.325073,0.304443,0.0854492,-0.891296
1480098286720954,0.325073,0.304443,0.0854492,-0.891296
1480098286742009,0.325012,0.304443,0.0854492,-0.891296
1480098286758553,0.325073,0.304443,0.0854492,-0.891296
1480098286781112,0.325073,0.304443,0.0854492,-0.891296
1480098286802670,0.325012,0.304443,0.0854492,-0.891296
1480098286818211,0.325073,0.304382,0.0854492,-0.891296
1480098286840773,0.325012,0.304382,0.0854492,-0.891296
1480098286861828,0.325012,0.304382,0.0854492,-0.891296
1480098286878375,0.325073,0.304382,0.0854492,-0.891296
1480098286900934,0.325012,0.304382,0.0854492,-0.891296
1480098286922008,0.325073,0.304382,0.0854492,-0.891296
1480098286938533,0.325073,0.304382,0.0854492,-0.891296
1480098286961092,0.325012,0.304382,0.0854492,-0.891296
1480098286982148,0.325012,0.304321,0.0853882,-0.891296
1480098286998691,0.325012,0.304321,0.0854492,-0.891357
1480098287020750,0.325012,0.304321,0.0853882,-0.891357
1480098287041806,0.325073,0.30426,0.0853882,-0.891357
1480098287058351,0.325012,0.30426,0.0853882,-0.891357
1480098287080911,0.325073,0.30426,0.0853882,-0.891357
1480098287101966,0.325073,0.30426,0.0853882,-0.891357
1480098287118511,0.325012,0.30426,0.0853882,-0.891357
1480098287141580,0.325073,0.30426,0.0853882,-0.891357
1480098287163631,0.325012,0.30426,0.0853882,-0.891357
1480098287178671,0.325012,0.30426,0.0853882,-0.891357
1480098287200730,0.325012,0.304199,0.0853882,-0.891357
1480098287223290,0.324951,0.30426,0.0853882,-0.891357
1480098287238329,0.325012,0.30426,0.0853882,-0.891357
1480098287260890,0.325012,0.30426,0.0853882,-0.891357
1480098287283450,0.324951,0.30426,0.0854492,-0.891357
1480098287298490,0.324951,0.304199,0.0853882,-0.891357
1480098287321050,0.324951,0.304199,0.0853882,-0.891418
1480098287343608,0.324951,0.304199,0.0853882,-0.891418
1480098287357647,0.324951,0.304199,0.0853882,-0.891418
1480098287380708,0.324951,0.304199,0.0853882,-0.891418
1480098287403268,0.324951,0.304199,0.0853882,-0.891418
1480098287417807,0.324951,0.304138,0.0853882,-0.891418
1480098287440868,0.32489,0.304199,0.0854492,-0.891418
1480098287463428,0.324951,0.304199,0.0853882,-0.891418
1480098287484485,0.324951,0.304199,0.0854492,-0.891418
1480098287501028,0.32489,0.30426,0.0854492,-0.891418
1480098287523593,0.324951,0.30426,0.0853882,-0.891357
1480098287537625,0.324951,0.30426,0.0854492,-0.891357
1480098287561188,0.324951,0.30426,0.0854492,-0.891357
1480098287583248,0.324951,0.30426,0.0853882,-0.891357
1480098287604302,0.324951,0.30426,0.0854492,-0.891418
1480098287620846,0.324951,0.304199,0.0853882,-0.891418
1480098287643406,0.324951,0.304199,0.0853882,-0.891418
1480098287664462,0.32489,0.304199,0.0853882,-0.891418
1480098287681006,0.324951,0.304138,0.0853882,-0.891418
1480098287703567,0.324951,0.304138,0.0853882,-0.891418
1480098287724624,0.324951,0.304138,0.0853882,-0.891418
1480098287740666,0.324951,0.304138,0.0853882,-0.891418
1480098287763726,0.324951,0.304138,0.0853882,-0.891418
1480098287784280,0.324951,0.304138,0.0853882,-0.891418
1480098287800825,0.324951,0.304138,0.0853882,-0.891418
1480098287823388,0.324951,0.304199,0.0853882,-0.891418
1480098287844440,0.324951,0.304138,0.0853882,-0.891418
1480098287860985,0.324951,0.304199,0.0853882,-0.891418
1480098287883552,0.324951,0.304199,0.0853882,-0.891418
1480098287904604,0.324951,0.304138,0.0853882,-0.891418
1480098287920644,0.324951,0.304199,0.0853882,-0.891418
1480098287950723,0.324951,0.304199,0.0853882,-0.891357
1480098287964259,0.324951,0.304199,0.0853882,-0.891357
1480098287980805,0.324951,0.304199,0.0853882,-0.891418
1480098288003364,0.325012,0.304199,0.0853882,-0.891357
1480098288024420,0.324951,0.304199,0.0853882,-0.891418
1480098288041465,0.324951,0.304199,0.0853882,-0.891418
1480098288063523,0.324951,0.304138,0.0853882,-0.891418
1480098288084580,0.32489,0.304138,0.0853882,-0.891418
1480098288100121,0.324951,0.304199,0.0853882,-0.891418
1480098288123686,0.324951,0.304199,0.0853882,-0.891418
1480098288145742,0.324951,0.304199,0.0853882,-0.891418
1480098288160782,0.324951,0.304199,0.0853882,-0.891418
1480098288183342,0.324951,0.304199,0.0853882,-0.891418
1480098288205903,0.324951,0.304199,0.0853882,-0.891418
1480098288220942,0.324951,0.304138,0.0853882,-0.891418
1480098288243502,0.324951,0.304138,0.0853882,-0.891418
1480098288266063,0.324951,0.304138,0.0853882,-0.891418
1480098288280099,0.324951,0.304138,0.0853882,-0.891418
1480098288303663,0.32489,0.304138,0.0853882,-0.891418
1480098288326222,0.32489,0.304138,0.0853882,-0.891418
1480098288340259,0.32489,0.304138,0.0853882,-0.891418
1480098288363321,0.32489,0.304138,0.0853882,-0.891418
1480098288385881,0.32489,0.304138,0.0853882,-0.891418
1480098288400420,0.32489,0.304138,0.0853882,-0.891418
1480098288423482,0.32489,0.304138,0.0853882,-0.891418
1480098288446040,0.32489,0.304077,0.0853882,-0.891418
1480098288460078,0.32489,0.304077,0.0853882,-0.891479
1480098288491163,0.32489,0.304138,0.0853882,-0.891479
1480098288506200,0.32489,0.304077,0.0853882,-0.891479
1480098288520239,0.32489,0.304138,0.0854492,-0.891479
1480098288543300,0.32489,0.304138,0.0853882,-0.891418
1480098288565864,0.32489,0.304138,0.0853882,-0.891418
1480098288580398,0.32489,0.304138,0.0853882,-0.891418
1480098288603460,0.32489,0.304077,0.0853882,-0.891418
1480098288626019,0.32489,0.304138,0.0853882,-0.891418
1480098288647075,0.32489,0.304077,0.0853882,-0.891479
1480098288663619,0.32489,0.304077,0.0853882,-0.891479
1480098288686180,0.32489,0.304077,0.0853882,-0.891479
1480098288707235,0.32489,0.304077,0.0853882,-0.891479
1480098288723281,0.32489,0.304077,0.0853882,-0.891479
1480098288745838,0.32489,0.304077,0.0853882,-0.891479
1480098288766894,0.324951,0.304016,0.0853882,-0.891479
1480098288783438,0.32489,0.304016,0.0853882,-0.891479
1480098288805999,0.32489,0.304016,0.0853882,-0.891479
1480098288827054,0.32489,0.304016,0.0853882,-0.891479
1480098288843601,0.32489,0.304016,0.0853882,-0.891479
1480098288867662,0.324951,0.304016,0.0853271,-0.891479
1480098288886712,0.32489,0.304016,0.0853271,-0.891479
1480098288903257,0.32489,0.304016,0.0853882,-0.891479
1480098288925817,0.324951,0.303955,0.0853271,-0.891479
1480098288946872,0.32489,0.303955,0.0853271,-0.891479
1480098288963418,0.324951,0.304016,0.0853271,-0.891479
1480098288985977,0.325195,0.303772,0.0853271,-0.891418
1480098289007033,0.325256,0.30365,0.0855103,-0.891479
1480098289023588,0.3255,0.303589,0.0855103,-0.891357
1480098289046136,0.3255,0.303589,0.0855103,-0.891418
1480098289068196,0.325439,0.303589,0.0855103,-0.891418
1480098289084238,0.3255,0.303589,0.0855103,-0.891418
1480098289106297,0.325439,0.303528,0.0855103,-0.891418
1480098289128356,0.325439,0.303589,0.0855103,-0.891418
1480098289143398,0.3255,0.303528,0.0855103,-0.891418
1480098289165956,0.325439,0.303589,0.0855103,-0.891418
1480098289188517,0.3255,0.303528,0.0855103,-0.891418
1480098289202552,0.325562,0.303528,0.0854492,-0.891418
1480098289225614,0.3255,0.303528,0.0854492,-0.891418
1480098289248675,0.325562,0.303528,0.0854492,-0.891418
1480098289262713,0.325562,0.303528,0.0854492,-0.891418
1480098289285790,0.325562,0.303467,0.0854492,-0.891418
1480098289308336,0.325562,0.303467,0.0854492,-0.891418
1480098289322874,0.325562,0.303467,0.0854492,-0.891418
1480098289345935,0.325562,0.303467,0.0854492,-0.891418
1480098289368494,0.325623,0.303467,0.0853882,-0.891418
1480098289382534,0.325378,0.303711,0.0854492,-0.891418
1480098289406094,0.325439,0.303711,0.0854492,-0.891418
1480098289429155,0.325378,0.30365,0.0854492,-0.891418
1480098289442691,0.325378,0.303711,0.0854492,-0.891418
1480098289473277,0.325439,0.30365,0.0853882,-0.891418
1480098289488313,0.325439,0.30365,0.0853882,-0.891418
1480098289509372,0.325439,0.30365,0.0854492,-0.891418
1480098289525913,0.325439,0.30365,0.0853882,-0.891418
1480098289548473,0.325439,0.30365,0.0853882,-0.891418
1480098289569528,0.325439,0.30365,0.0853882,-0.891418
1480098289586072,0.325439,0.303589,0.0853882,-0.891418
1480098289615651,0.325439,0.30365,0.0853882,-0.891418
1480098289629688,0.325439,0.30365,0.0853882,-0.891418
1480098289645732,0.325439,0.30365,0.0853882,-0.891418
1480098289668292,0.325439,0.30365,0.0853882,-0.891418
1480098289689348,0.3255,0.303589,0.0853882,-0.891418
1480098289705892,0.325439,0.30365,0.0853882,-0.891418
1480098289728452,0.325439,0.30365,0.0853882,-0.891418
1480098289749507,0.3255,0.30365,0.0853882,-0.891357
1480098289766552,0.325439,0.303711,0.0853882,-0.891357
1480098289788612,0.3255,0.303711,0.0853882,-0.891357
1480098289810671,0.3255,0.303711,0.0853882,-0.891357
1480098289825710,0.3255,0.303711,0.0853882,-0.891357
1480098289848271,0.325562,0.303711,0.0853882,-0.891357
1480098289869326,0.325256,0.303711,0.0854492,-0.891418
1480098289885870,0.325317,0.303711,0.0854492,-0.891418
1480098289908430,0.325317,0.303711,0.0854492,-0.891418
1480098289929486,0.325317,0.303772,0.0854492,-0.891418
1480098289946030,0.325378,0.303711,0.0854492,-0.891418
1480098289968590,0.325378,0.303772,0.0854492,-0.891418
1480098289989647,0.325378,0.303772,0.0854492,-0.891418
1480098290006193,0.325378,0.303711,0.0853882,-0.891357
1480098290028250,0.325378,0.303711,0.0853882,-0.891418
1480098290050809,0.325623,0.303528,0.0854492,-0.891357
1480098290065854,0.325623,0.303528,0.0853882,-0.891357
1480098290088410,0.325623,0.303467,0.0853882,-0.891418
1480098290110969,0.325623,0.303528,0.0853882,-0.891357
1480098290126009,0.325378,0.303589,0.0854492,-0.891479
1480098290148569,0.325012,0.303772,0.0853882,-0.891541
1480098290170628,0.325012,0.303772,0.0853882,-0.891541
1480098290185166,0.325073,0.303772,0.0853882,-0.891479
1480098290208228,0.325073,0.303772,0.0853271,-0.891479
1480098290230788,0.325134,0.303711,0.0853271,-0.891479
1480098290245327,0.325134,0.303772,0.0853271,-0.891479
1480098290268388,0.325134,0.303711,0.0853271,-0.891479
1480098290290948,0.325073,0.303711,0.0853271,-0.891541
1480098290305487,0.325012,0.303894,0.0853271,-0.891479
1480098290328548,0.324829,0.304016,0.0852661,-0.891479
1480098290358628,0.324524,0.304199,0.0852051,-0.891602
1480098290365145,0.324585,0.304199,0.0852051,-0.891541
1480098290388206,0.324646,0.304199,0.085144,-0.891541
1480098290410766,0.324646,0.304199,0.085144,-0.891541
1480098290425305,0.324707,0.303955,0.085144,-0.891602
1480098290454382,0.324646,0.303711,0.0852051,-0.891663
1480098290470926,0.32428,0.303711,0.0853882,-0.891846
1480098290484964,0.324158,0.303589,0.0853882,-0.891907
1480098290508526,0.324158,0.303528,0.0853882,-0.891907
1480098290531086,0.324097,0.303528,0.0853882,-0.891907
1480098290552142,0.324158,0.303528,0.0853882,-0.891907
1480098290568686,0.323853,0.303589,0.0853882,-0.891968
1480098290590746,0.323669,0.303711,0.0853882,-0.892029
1480098290611800,0.323547,0.303772,0.0853882,-0.892029
1480098290628345,0.323547,0.303833,0.0853882,-0.892029
1480098290650905,0.323608,0.303772,0.0853882,-0.892029
1480098290671961,0.323608,0.303772,0.0853271,-0.892029
1480098290688505,0.323303,0.303833,0.0853271,-0.89209
1480098290711065,0.32312,0.303772,0.0852051,-0.892212
1480098290732120,0.32312,0.303833,0.0852051,-0.892212
1480098290748164,0.32312,0.303833,0.0852051,-0.892212
1480098290770724,0.323181,0.303833,0.0852051,-0.892212
1480098290793284,0.32312,0.303833,0.0852051,-0.892212
1480098290808324,0.323486,0.30365,0.0852051,-0.892151
1480098290830884,0.323853,0.303406,0.0852661,-0.89209
1480098290851941,0.324158,0.303162,0.0853882,-0.892029
1480098290868485,0.324524,0.302795,0.0853882,-0.892029
1480098290891045,0.324524,0.302795,0.0853882,-0.892029
1480098290912099,0.324524,0.302795,0.0853882,-0.892029
1480098290927640,0.324585,0.302795,0.0853882,-0.892029
1480098290950703,0.324524,0.302795,0.0853882,-0.892029
1480098290973264,0.324585,0.302734,0.0853271,-0.892029
1480098290988806,0.324646,0.302734,0.0853271,-0.892029
1480098291010862,0.324524,0.302856,0.0852661,-0.892029
1480098291033422,0.324585,0.302856,0.0852661,-0.891968
1480098291048462,0.324585,0.302856,0.0852661,-0.891968
1480098291071022,0.324707,0.302673,0.0852661,-0.892029
1480098291093587,0.324768,0.302673,0.0852051,-0.892029
1480098291107620,0.324768,0.302673,0.0852051,-0.892029
1480098291130681,0.324829,0.302368,0.0852051,-0.89209
1480098291153242,0.324829,0.302307,0.0852051,-0.89209
1480098291167779,0.324768,0.302307,0.0852051,-0.89209
1480098291190843,0.324829,0.302307,0.0852051,-0.89209
1480098291213401,0.324829,0.302307,0.0852051,-0.89209
1480098291227940,0.324646,0.302368,0.085144,-0.892151
1480098291251033,0.324707,0.302429,0.0849609,-0.892151
1480098291273561,0.324707,0.302429,0.085022,-0.892151
1480098291287599,0.324707,0.302429,0.0849609,-0.892151
1480098291310661,0.324768,0.302429,0.0849609,-0.89209
1480098291333221,0.324768,0.302429,0.0849609,-0.89209
1480098291347763,0.324768,0.302429,0.0849609,-0.89209
1480098291370819,0.324829,0.302429,0.0849609,-0.89209
1480098291393380,0.324768,0.302429,0.0849609,-0.89209
1480098291414436,0.324829,0.302368,0.0848999,-0.89209
1480098291431482,0.324829,0.302368,0.0848999,-0.89209
1480098291453541,0.324829,0.302368,0.0848999,-0.89209
1480098291474596,0.32489,0.302307,0.0848999,-0.89209
1480098291491139,0.324829,0.302307,0.0848999,-0.89209
1480098291513198,0.32489,0.302307,0.0848999,-0.89209
1480098291534254,0.32489,0.302307,0.0848999,-0.89209
1480098291550799,0.32489,0.302307,0.0848999,-0.89209
1480098291573360,0.324951,0.302307,0.0848389,-0.89209
1480098291594415,0.324951,0.302307,0.0848389,-0.89209
1480098291610958,0.324951,0.302307,0.0848389,-0.89209
1480098291633519,0.325012,0.302246,0.0848389,-0.89209
1480098291662102,0.325012,0.302246,0.0848389,-0.89209
1480098291671117,0.325012,0.302246,0.0848389,-0.89209
1480098291693679,0.325073,0.302246,0.0847778,-0.89209
1480098291714232,0.325073,0.302246,0.0847778,-0.89209
1480098291730778,0.325073,0.302246,0.0847778,-0.89209
1480098291753339,0.325073,0.302246,0.0847778,-0.89209
1480098291774393,0.325073,0.302246,0.0847778,-0.89209
1480098291790938,0.325134,0.302185,0.0847778,-0.89209
1480098291813528,0.325134,0.302185,0.0847778,-0.89209
1480098291819011,0.325134,0.302185,0.0847778,-0.89209
1480098291841573,0.325195,0.302185,0.0847168,-0.89209
1480098291864132,0.325195,0.302185,0.0847168,-0.89209
1480098291878676,0.325256,0.302185,0.0847168,-0.892029
1480098291901231,0.325195,0.302185,0.0847168,-0.892029
1480098291916270,0.325256,0.302185,0.0847168,-0.892029
1480098291940335,0.325256,0.302124,0.0846558,-0.892029
1480098291961390,0.325256,0.302124,0.0846558,-0.892029
1480098291976439,0.325256,0.302124,0.0846558,-0.892029
1480098291998989,0.325317,0.302124,0.0846558,-0.892029
1480098292021049,0.325256,0.302124,0.0847168,-0.892029
1480098292036089,0.325256,0.302124,0.0846558,-0.892029
1480098292058648,0.325562,0.302246,0.0845947,-0.891907
1480098292081210,0.325562,0.302246,0.0845947,-0.891907
1480098292096249,0.325562,0.302063,0.0844727,-0.891968
1480098292118809,0.325256,0.302002,0.0844727,-0.89209
1480098292141369,0.325256,0.302002,0.0844727,-0.89209
1480098292156410,0.325623,0.301941,0.0844116,-0.892029
1480098292178969,0.325623,0.301941,0.0844116,-0.892029
1480098292201028,0.325623,0.30188,0.0844116,-0.892029
1480098292217572,0.325684,0.30188,0.0844116,-0.892029
1480098292238628,0.325623,0.30188,0.0844116,-0.892029
1480098292261188,0.325684,0.30188,0.0844116,-0.892029
1480098292277731,0.325684,0.30188,0.0844116,-0.892029
1480098292298802,0.325684,0.30188,0.0844116,-0.892029
1480098292321347,0.325684,0.301819,0.0843506,-0.892029
1480098292337893,0.325378,0.301941,0.0844116,-0.89209
1480098292358947,0.325256,0.301941,0.0843506,-0.892151
1480098292389533,0.325256,0.301941,0.0843506,-0.892151
1480098292397551,0.325256,0.302002,0.0843506,-0.892151
1480098292418607,0.325317,0.301941,0.0843506,-0.892151
1480098292441168,0.325317,0.301941,0.0843506,-0.892151
1480098292457711,0.325195,0.30188,0.0842285,-0.892212
1480098292478767,0.325195,0.30188,0.0842285,-0.892212
1480098292501327,0.325195,0.30188,0.0842285,-0.892212
1480098292517871,0.325256,0.30188,0.0842285,-0.892212
1480098292538927,0.325256,0.301819,0.0841675,-0.892212
1480098292561485,0.325256,0.30188,0.0841675,-0.892212
1480098292577530,0.325195,0.301819,0.0841064,-0.892273
1480098292598586,0.325195,0.301819,0.0841064,-0.892212
1480098292621145,0.325195,0.301819,0.0841064,-0.892212
1480098292637689,0.325256,0.301819,0.0841064,-0.892212
1480098292658773,0.325256,0.301758,0.0841064,-0.892212
1480098292681305,0.325256,0.301758,0.0841064,-0.892212
1480098292699353,0.325317,0.301758,0.0840454,-0.892212
1480098292718904,0.325256,0.301758,0.0841064,-0.892212
1480098292741464,0.325317,0.301758,0.0840454,-0.892212
1480098292759012,0.325317,0.301758,0.0840454,-0.892212
1480098292778563,0.325378,0.301758,0.0840454,-0.892212
1480098292801123,0.325378,0.301697,0.0840454,-0.892212
1480098292819172,0.325378,0.301697,0.0840454,-0.892212
1480098292838724,0.325378,0.301758,0.0840454,-0.892212
1480098292861284,0.325439,0.301697,0.0840454,-0.892212
1480098292883844,0.325439,0.301758,0.0840454,-0.892212
1480098292898883,0.325439,0.301697,0.0839844,-0.892212
1480098292921443,0.3255,0.301697,0.0839844,-0.892212
1480098292943517,0.325256,0.301697,0.0839844,-0.892273
1480098292958542,0.325256,0.301697,0.0839844,-0.892273
1480098292981102,0.325317,0.301697,0.0841675,-0.892212
1480098293003664,0.325562,0.301697,0.0841675,-0.892151
1480098293018703,0.325623,0.301697,0.0841675,-0.892151
1480098293041265,0.325623,0.301636,0.0841675,-0.892151
1480098293063822,0.3255,0.301453,0.0840454,-0.892273
1480098293081869,0.3255,0.301453,0.0840454,-0.892273
1480098293101422,0.3255,0.301453,0.0840454,-0.892273
1480098293123484,0.325745,0.301453,0.0841064,-0.892151
1480098293139022,0.325867,0.301453,0.0841675,-0.892151
1480098293161080,0.325806,0.301392,0.0841675,-0.892151
1480098293183640,0.325867,0.301331,0.0841675,-0.892151
1480098293198681,0.325623,0.301331,0.0841675,-0.892212
1480098293221241,0.325623,0.301331,0.0841675,-0.892273
1480098293252324,0.325623,0.301331,0.0841675,-0.892273
1480098293258840,0.325623,0.301331,0.0841675,-0.892273
1480098293281400,0.325623,0.301331,0.0841675,-0.892212
1480098293303972,0.325684,0.301331,0.0841675,-0.892212
1480098293318499,0.325684,0.301331,0.0841675,-0.892212
1480098293341060,0.325745,0.30127,0.0841675,-0.892212
1480098293363620,0.325684,0.301331,0.0841675,-0.892212
1480098293378661,0.325745,0.301331,0.0841675,-0.892212
1480098293408739,0.325745,0.30127,0.0841064,-0.892212
1480098293423779,0.325745,0.301331,0.0841675,-0.892212
1480098293438820,0.325745,0.301331,0.0841064,-0.892212
1480098293461379,0.325745,0.301331,0.0841064,-0.892212
1480098293483941,0.325806,0.301331,0.0841064,-0.892212
1480098293499982,0.325867,0.301331,0.0841064,-0.892151
1480098293521039,0.325806,0.30127,0.0841064,-0.892212
1480098293543598,0.325806,0.301331,0.0841064,-0.892212
1480098293560142,0.325867,0.30127,0.0841064,-0.892151
1480098293581198,0.325867,0.30127,0.0841064,-0.892212
1480098293603758,0.325867,0.30127,0.0840454,-0.892212
1480098293620302,0.325867,0.30127,0.0840454,-0.892151
1480098293641358,0.325867,0.30127,0.0840454,-0.892212
1480098293663918,0.325928,0.301208,0.0840454,-0.892212
1480098293680467,0.325928,0.301208,0.0840454,-0.892212
1480098293701518,0.325928,0.301208,0.0840454,-0.892212
1480098293723580,0.325928,0.301147,0.0839844,-0.892212
1480098293740121,0.325928,0.301208,0.0840454,-0.892212
1480098293761176,0.325928,0.301147,0.0839844,-0.892212
1480098293783736,0.325989,0.301147,0.0839844,-0.892151
1480098293806296,0.325989,0.301208,0.0839844,-0.892151
1480098293821338,0.32605,0.301147,0.0839844,-0.892151
1480098293843897,0.32605,0.301147,0.0839844,-0.892151
1480098293861944,0.32605,0.301208,0.0839844,-0.892151
1480098293881496,0.32605,0.301147,0.0839844,-0.892151
1480098293903556,0.32605,0.301208,0.0839844,-0.892151
1480098293921604,0.32605,0.301208,0.0839844,-0.892151
1480098293941155,0.326111,0.301147,0.0839844,-0.892151
1480098293963719,0.32605,0.301147,0.0839844,-0.892151
1480098293981781,0.326111,0.301086,0.0839233,-0.892151
1480098294001315,0.326111,0.301086,0.0839233,-0.892151
1480098294023876,0.326111,0.301086,0.0839233,-0.892151
1480098294041422,0.326172,0.301086,0.0839233,-0.892151
1480098294063983,0.325806,0.301208,0.0839233,-0.892273
1480098294084035,0.325806,0.301208,0.0839233,-0.892273
1480098294101583,0.325867,0.301147,0.0838623,-0.892273
1480098294121135,0.325806,0.301147,0.0839233,-0.892273
1480098294143703,0.325806,0.301147,0.0838623,-0.892273
1480098294161743,0.325867,0.301147,0.0838623,-0.892273
1480098294181295,0.325867,0.301147,0.0838623,-0.892212
1480098294203854,0.325928,0.301147,0.0838623,-0.892212
1480098294221903,0.325928,0.301208,0.0838623,-0.892212
1480098294241454,0.325867,0.301208,0.0838623,-0.892212
1480098294263516,0.325928,0.301208,0.0838623,-0.892212
1480098294281561,0.325928,0.301208,0.0838623,-0.892212
1480098294301113,0.325928,0.301208,0.0838623,-0.892212
1480098294323673,0.325928,0.301208,0.0838623,-0.892212
1480098294346234,0.325928,0.301208,0.0838623,-0.892212
1480098294361273,0.325989,0.301147,0.0838013,-0.892212
1480098294383832,0.325989,0.301147,0.0838013,-0.892212
1480098294406393,0.325989,0.301147,0.0838013,-0.892212
1480098294422936,0.32605,0.301147,0.0838013,-0.892212
1480098294443992,0.325989,0.301147,0.0838013,-0.892212
1480098294466051,0.325989,0.301147,0.0838013,-0.892212
1480098294482596,0.32605,0.301147,0.0838013,-0.892212
1480098294503652,0.325989,0.301147,0.0838013,-0.892212
1480098294526213,0.32605,0.301086,0.0838013,-0.892212
1480098294546264,0.32605,0.301086,0.0838013,-0.892212
1480098294563812,0.32605,0.301147,0.0838013,-0.892212
1480098294586372,0.326111,0.301086,0.0838013,-0.892212
1480098294602414,0.32605,0.301086,0.0838013,-0.892212
1480098294623971,0.325928,0.301208,0.0837402,-0.892212
1480098294646031,0.325867,0.301208,0.0837402,-0.892212
1480098294662575,0.325562,0.301392,0.0836792,-0.892273
1480098294683630,0.325317,0.301514,0.0834351,-0.892334
1480098294706193,0.325195,0.301758,0.0831909,-0.892334
1480098294724238,0.324707,0.302063,0.0830688,-0.892456
1480098294743791,0.324463,0.302246,0.0828857,-0.892517
1480098294766350,0.324158,0.302551,0.0827637,-0.892517
1480098294784407,0.324097,0.302795,0.0826416,-0.892456
1480098294803950,0.324097,0.302795,0.0826416,-0.892456
1480098294826008,0.324097,0.302856,0.0826416,-0.892395
1480098294844056,0.324158,0.302795,0.0826416,-0.892395
1480098294863609,0.324219,0.302856,0.0826416,-0.892395
1480098294889180,0.324158,0.302856,0.0826416,-0.892395
1480098294904219,0.324219,0.302795,0.0826416,-0.892395
1480098294923768,0.324158,0.302795,0.0826416,-0.892395
1480098294946329,0.324158,0.302795,0.0826416,-0.892395
1480098294964376,0.324219,0.302734,0.0826416,-0.892395
1480098294983928,0.323914,0.302979,0.0825195,-0.892456
1480098295006488,0.323792,0.30304,0.0822144,-0.892517
1480098295024037,0.323608,0.303162,0.0820313,-0.892517
1480098295045091,0.323608,0.303223,0.0820923,-0.892517
1480098295066147,0.323669,0.303223,0.0820313,-0.892517
1480098295084207,0.323669,0.303223,0.0820313,-0.892517
1480098295103750,0.323853,0.303284,0.0821533,-0.892395
1480098295126307,0.323853,0.303284,0.0821533,-0.892395
1480098295144355,0.323853,0.303284,0.0821533,-0.892395
1480098295163907,0.323853,0.303284,0.0821533,-0.892395
1480098295186467,0.323853,0.303284,0.0821533,-0.892395
1480098295211535,0.323853,0.303284,0.0821533,-0.892395
1480098295223566,0.323914,0.303284,0.0821533,-0.892395
1480098295246126,0.323853,0.303284,0.0821533,-0.892395
1480098295264174,0.323914,0.303284,0.0821533,-0.892395
1480098295283726,0.323914,0.303284,0.0821533,-0.892395
1480098295306286,0.323914,0.303284,0.0821533,-0.892395
1480098295324334,0.323914,0.303223,0.0820923,-0.892395
1480098295343886,0.323975,0.303223,0.0820923,-0.892395
1480098295366446,0.323914,0.303223,0.0820923,-0.892395
1480098295383992,0.323975,0.303223,0.0820923,-0.892395
1480098295405050,0.323975,0.303223,0.0820923,-0.892395
1480098295426105,0.323914,0.303223,0.0820923,-0.892395
1480098295444153,0.323975,0.303223,0.0820923,-0.892395
1480098295465209,0.323975,0.303223,0.0820923,-0.892395
1480098295486265,0.323975,0.303284,0.0820923,-0.892395
1480098295504314,0.324036,0.303284,0.0820923,-0.892395
1480098295525375,0.323975,0.303284,0.0820923,-0.892395
1480098295546926,0.323975,0.303284,0.0820923,-0.892395
1480098295563973,0.323975,0.303284,0.0820923,-0.892395
1480098295585028,0.323975,0.303284,0.0820923,-0.892395
1480098295606084,0.324036,0.303284,0.0820923,-0.892395
1480098295624132,0.324036,0.303284,0.0820923,-0.892395
1480098295645188,0.324036,0.303284,0.0820923,-0.892395
1480098295666244,0.324036,0.303223,0.0820923,-0.892395
1480098295684291,0.324036,0.303223,0.0820923,-0.892395
1480098295708355,0.324036,0.303223,0.0820923,-0.892334
1480098295726403,0.324097,0.303223,0.0820923,-0.892334
1480098295743951,0.324036,0.303284,0.0820923,-0.892334
1480098295766510,0.324097,0.303223,0.0820923,-0.892334
1480098295786062,0.324036,0.303223,0.0820923,-0.892334
1480098295808623,0.324036,0.303284,0.0820923,-0.892334
1480098295826670,0.324097,0.303223,0.0820313,-0.892334
1480098295846223,0.324036,0.303284,0.0820923,-0.892334
1480098295868783,0.324097,0.303284,0.0820923,-0.892334
1480098295886830,0.324097,0.303284,0.0820313,-0.892334
1480098295906383,0.324097,0.303284,0.0820923,-0.892334
1480098295928942,0.324158,0.303284,0.0820313,-0.892334
1480098295946489,0.324158,0.303284,0.0820313,-0.892334
1480098295966040,0.324158,0.303284,0.0820313,-0.892334
1480098295988601,0.324158,0.303223,0.0820313,-0.892334
1480098296006648,0.324097,0.303284,0.0820313,-0.892334
1480098296026200,0.324097,0.303284,0.0820313,-0.892334
1480098296049764,0.324158,0.303223,0.0820313,-0.892334
1480098296066811,0.324097,0.303284,0.0820313,-0.892334
1480098296086362,0.324158,0.303284,0.0820313,-0.892334
1480098296108920,0.324158,0.303284,0.0820313,-0.892334
1480098296126468,0.324158,0.303284,0.0820313,-0.892334
1480098296146019,0.324158,0.303223,0.0820313,-0.892334
1480098296168617,0.324158,0.303284,0.0820313,-0.892334
1480098296191139,0.324158,0.303284,0.0820313,-0.892334
1480098296206182,0.324158,0.303284,0.0820313,-0.892334
1480098296228740,0.324158,0.303284,0.0820313,-0.892334
1480098296246787,0.324158,0.303284,0.0820313,-0.892334
1480098296273859,0.324219,0.303284,0.0820313,-0.892273
1480098296288901,0.324158,0.303284,0.0820313,-0.892273
1480098296306446,0.324219,0.303284,0.0820313,-0.892273
1480098296329007,0.324219,0.303284,0.0820313,-0.892273
1480098296348558,0.324158,0.303284,0.0820313,-0.892273
1480098296366606,0.324219,0.303284,0.0820313,-0.892273
1480098296387663,0.324158,0.303284,0.0820313,-0.892334
1480098296408718,0.324158,0.303284,0.0820313,-0.892334
1480098296426767,0.324219,0.303284,0.0820313,-0.892334
1480098296447822,0.324158,0.303284,0.0820313,-0.892334
1480098296468878,0.324219,0.303284,0.0820313,-0.892273
1480098296486425,0.324219,0.303284,0.0820313,-0.892273
1480098296507481,0.324219,0.303284,0.0820313,-0.892273
1480098296528540,0.324219,0.303284,0.0820313,-0.892273
1480098296546585,0.324219,0.303284,0.0820313,-0.892273
1480098296567641,0.324219,0.303284,0.0820313,-0.892273
1480098296588696,0.32428,0.303284,0.0820313,-0.892273
1480098296606744,0.324219,0.303284,0.0820313,-0.892273
1480098296627800,0.324219,0.303223,0.0820313,-0.892273
1480098296648856,0.324219,0.303223,0.0820313,-0.892273
1480098296666904,0.324219,0.303284,0.0820313,-0.892273
1480098296688964,0.32428,0.303223,0.0819702,-0.892273
1480098296708516,0.32428,0.303223,0.0819702,-0.892273
1480098296726564,0.32428,0.303284,0.0820313,-0.892273
1480098296749124,0.32428,0.303223,0.0819702,-0.892273
1480098296768676,0.32428,0.303223,0.0819702,-0.892273
1480098296786723,0.32428,0.303223,0.0819702,-0.892273
1480098296809283,0.32428,0.303223,0.0819702,-0.892273
1480098296828836,0.32428,0.303223,0.0819702,-0.892273
1480098296846884,0.32428,0.303223,0.0819702,-0.892273
1480098296868942,0.32428,0.303223,0.0819702,-0.892273
1480098296891503,0.32428,0.303223,0.0819702,-0.892273
1480098296906542,0.324341,0.303223,0.0819702,-0.892273
1480098296929103,0.324341,0.303223,0.0819702,-0.892273
1480098296948654,0.324341,0.303223,0.0819702,-0.892273
1480098296966702,0.324341,0.303223,0.0819702,-0.892273
1480098296989262,0.324341,0.303223,0.0819702,-0.892273
1480098297016334,0.324402,0.303223,0.0819702,-0.892273
1480098297026863,0.324341,0.303223,0.0819702,-0.892273
1480098297048921,0.324341,0.303223,0.0819702,-0.892273
1480098297068974,0.324402,0.303223,0.0819092,-0.892273
1480098297086521,0.324402,0.303223,0.0819702,-0.892273
1480098297109081,0.324402,0.303223,0.0819702,-0.892273
1480098297136152,0.324463,0.303223,0.0819092,-0.892212
1480098297146683,0.324402,0.303284,0.0819702,-0.892212
1480098297169241,0.324463,0.303223,0.0819092,-0.892212
1480098297188792,0.324463,0.303284,0.0819092,-0.892212
1480098297206841,0.324463,0.303284,0.0819092,-0.892212
1480098297229400,0.324524,0.303223,0.0819092,-0.892212
1480098297248954,0.324463,0.303223,0.0819092,-0.892212
1480098297266500,0.324463,0.303223,0.0819092,-0.892212
1480098297289060,0.324524,0.303223,0.0819092,-0.892212
1480098297310117,0.324524,0.303284,0.0819092,-0.892212
1480098297331171,0.324524,0.303284,0.0819092,-0.892212
1480098297349721,0.324524,0.303284,0.0819092,-0.892212
1480098297370275,0.324524,0.303284,0.0819092,-0.892212
1480098297391332,0.324585,0.303284,0.0819092,-0.892212
1480098297409380,0.324585,0.303284,0.0819092,-0.892212
1480098297430440,0.324585,0.303284,0.0819092,-0.892212
1480098297451491,0.324585,0.303223,0.0818481,-0.892212
1480098297469038,0.324524,0.303284,0.0819092,-0.892212
1480098297490094,0.324585,0.303223,0.0818481,-0.892212
1480098297512654,0.324585,0.303223,0.0818481,-0.892212
1480098297529198,0.324585,0.303284,0.0819092,-0.892151
1480098297550254,0.324646,0.303223,0.0818481,-0.892151
1480098297571311,0.324646,0.303223,0.0818481,-0.892151
1480098297589359,0.324646,0.303223,0.0818481,-0.892151
1480098297611417,0.324646,0.303223,0.0818481,-0.892151
1480098297630969,0.324646,0.303223,0.0818481,-0.892212
1480098297649017,0.324646,0.303223,0.0818481,-0.892212
1480098297671577,0.324646,0.303162,0.0818481,-0.892212
1480098297691131,0.324646,0.303162,0.0818481,-0.892212
1480098297709177,0.324646,0.303162,0.0818481,-0.892212
1480098297731737,0.324646,0.303162,0.0818481,-0.892212
1480098297751289,0.324646,0.303162,0.0818481,-0.892212
1480098297769337,0.324646,0.303162,0.0817871,-0.892212
1480098297798916,0.324646,0.303162,0.0818481,-0.892212
1480098297811448,0.324646,0.303162,0.0818481,-0.892151
1480098297828997,0.324707,0.303162,0.0817871,-0.892151
1480098297851556,0.324707,0.303162,0.0817871,-0.892212
1480098297871108,0.324707,0.303162,0.0817871,-0.892151
1480098297889159,0.324707,0.303162,0.0817871,-0.892212
1480098297911716,0.324707,0.303162,0.0817871,-0.892212
1480098297931269,0.324707,0.303162,0.0817871,-0.892212
1480098297949316,0.324707,0.303162,0.0817871,-0.892212
1480098297971876,0.324707,0.303162,0.0817871,-0.892212
1480098297991427,0.324707,0.303162,0.0817871,-0.892151
1480098298008974,0.324707,0.303162,0.0817871,-0.892151
1480098298031538,0.324768,0.303162,0.0817871,-0.892151
1480098298051086,0.324768,0.303162,0.0817871,-0.892151
1480098298069134,0.324707,0.303162,0.0817871,-0.892212
1480098298091699,0.324768,0.303101,0.0817871,-0.892151
1480098298111246,0.324585,0.303223,0.0817261,-0.892212
1480098298129294,0.324402,0.303223,0.081665,-0.892273
1480098298151855,0.324463,0.303223,0.081604,-0.892273
1480098298171411,0.324402,0.303223,0.081665,-0.892273
1480098298188954,0.324463,0.303223,0.081604,-0.892273
1480098298219035,0.324463,0.303162,0.081604,-0.892273
1480098298232568,0.324463,0.303223,0.081604,-0.892273
1480098298249113,0.324463,0.303162,0.081604,-0.892273
1480098298271673,0.324463,0.303162,0.081604,-0.892273
1480098298292728,0.324463,0.303162,0.081604,-0.892273
1480098298309272,0.324524,0.303162,0.081604,-0.892273
1480098298331832,0.324463,0.303162,0.081604,-0.892273
1480098298352889,0.324524,0.303162,0.081604,-0.892273
1480098298368932,0.324524,0.303162,0.081604,-0.892273
1480098298391492,0.324524,0.303162,0.081604,-0.892273
1480098298412548,0.324524,0.303162,0.081604,-0.892273
1480098298429092,0.324524,0.303162,0.081604,-0.892273
1480098298451651,0.324524,0.303162,0.081604,-0.892273
1480098298472707,0.324585,0.303162,0.081604,-0.892273
1480098298489251,0.324524,0.303162,0.081604,-0.892273
1480098298512313,0.324585,0.303162,0.081543,-0.892273
1480098298532868,0.324585,0.303101,0.081543,-0.892273
1480098298549411,0.324585,0.303162,0.081543,-0.892273
1480098298571474,0.324646,0.303101,0.081543,-0.892212
1480098298594031,0.324646,0.303101,0.081543,-0.892273
1480098298614585,0.324585,0.303101,0.081543,-0.892273
1480098298630628,0.324646,0.303101,0.081543,-0.892273
1480098298653689,0.324585,0.303101,0.081543,-0.892273
1480098298674243,0.324585,0.303101,0.081543,-0.892273
1480098298690789,0.324646,0.30304,0.081543,-0.892273
1480098298713347,0.324585,0.30304,0.081543,-0.892273
1480098298734405,0.324585,0.303101,0.081543,-0.892273
1480098298750948,0.324585,0.30304,0.081543,-0.892273
1480098298773508,0.324524,0.303284,0.0814819,-0.892212
1480098298794563,0.324585,0.303406,0.0812988,-0.892212
1480098298810606,0.324402,0.303589,0.0812378,-0.892212
1480098298833167,0.324402,0.30365,0.0812378,-0.892151
1480098298854726,0.324402,0.303711,0.0810547,-0.892151
1480098298870767,0.32428,0.303955,0.0809937,-0.892151
1480098298893326,0.32428,0.303955,0.0809937,-0.892151
1480098298914381,0.32428,0.303955,0.0809937,-0.892151
1480098298930927,0.32428,0.303955,0.0809937,-0.892151
1480098298953488,0.32428,0.303955,0.0809937,-0.892151
1480098298974549,0.32428,0.303955,0.0809937,-0.892151
1480098298991087,0.324219,0.304138,0.0809937,-0.89209
1480098299013144,0.324402,0.30426,0.0808105,-0.892029
1480098299034200,0.324341,0.304321,0.0808105,-0.892029
1480098299050745,0.324341,0.304321,0.0808105,-0.892029
1480098299079320,0.324402,0.30426,0.0808105,-0.892029
1480098299095865,0.324219,0.304565,0.0807495,-0.891968
1480098299110907,0.324219,0.304565,0.0807495,-0.891968
1480098299133465,0.324219,0.304565,0.0807495,-0.891968
1480098299162040,0.324219,0.304565,0.0807495,-0.891968
1480098299171066,0.32428,0.304565,0.0807495,-0.891968
1480098299193125,0.324219,0.304626,0.0807495,-0.891968
1480098299214681,0.324219,0.304626,0.0807495,-0.891968
1480098299230724,0.32428,0.304626,0.0807495,-0.891968
1480098299253284,0.32428,0.304626,0.0807495,-0.891968
1480098299274339,0.32428,0.304626,0.0807495,-0.891968
1480098299290883,0.324219,0.304626,0.0807495,-0.891968
1480098299313447,0.324219,0.304626,0.0807495,-0.891968
1480098299334500,0.32428,0.304626,0.0807495,-0.891968
1480098299350543,0.32428,0.304626,0.0807495,-0.891907
1480098299373102,0.32428,0.304688,0.0807495,-0.891907
1480098299394158,0.324341,0.304626,0.0807495,-0.891907
1480098299410702,0.32428,0.304688,0.0807495,-0.891907
1480098299433262,0.324341,0.304688,0.0807495,-0.891907
1480098299454318,0.324585,0.304565,0.0808105,-0.891846
1480098299470862,0.324768,0.304565,0.0809326,-0.891724
1480098299493423,0.325012,0.304321,0.0809937,-0.891724
1480098299515982,0.325012,0.304138,0.0810547,-0.891785
1480098299531022,0.324951,0.303955,0.0811157,-0.891846
1480098299553082,0.325256,0.30365,0.0811157,-0.891846
1480098299575640,0.3255,0.303528,0.0812378,-0.891846
1480098299590680,0.325806,0.303284,0.0812988,-0.891785
1480098299613240,0.32605,0.302979,0.0813599,-0.891785
1480098299635801,0.326233,0.302856,0.081543,-0.891724
1480098299650340,0.326416,0.302612,0.081604,-0.891785
1480098299673402,0.326416,0.302612,0.081604,-0.891785
1480098299696462,0.326355,0.302612,0.081604,-0.891785
1480098299709999,0.326416,0.302612,0.081604,-0.891785
1480098299733560,0.326355,0.302612,0.081604,-0.891785
1480098299756122,0.326416,0.302612,0.081604,-0.891785
1480098299770158,0.326416,0.302612,0.081604,-0.891785
1480098299799236,0.326416,0.302612,0.081604,-0.891785
1480098299815779,0.326416,0.302612,0.081604,-0.891785
1480098299830318,0.326416,0.302612,0.081604,-0.891785
1480098299853380,0.326355,0.302612,0.081604,-0.891785
1480098299875940,0.326416,0.302612,0.081604,-0.891785
1480098299889977,0.326416,0.302612,0.081604,-0.891785
1480098299913540,0.326172,0.302612,0.081604,-0.891846
1480098299935598,0.32605,0.302551,0.0814819,-0.891968
1480098299950137,0.325684,0.302612,0.081543,-0.892029
1480098299973700,0.325684,0.302612,0.081543,-0.892029
1480098300003278,0.325745,0.302612,0.081543,-0.892029
1480098300016814,0.325745,0.302612,0.081543,-0.892029
1480098300033359,0.325806,0.302612,0.081543,-0.891968
1480098300055922,0.325745,0.302612,0.081543,-0.892029
1480098300078479,0.325745,0.302612,0.081543,-0.891968
1480098300093517,0.325745,0.302612,0.081543,-0.892029
1480098300115576,0.325745,0.302612,0.081543,-0.892029
1480098300137135,0.325745,0.302612,0.081543,-0.892029
1480098300154180,0.325745,0.302612,0.081543,-0.892029
1480098300175736,0.325745,0.302612,0.081543,-0.892029
1480098300196793,0.325745,0.302612,0.081543,-0.892029
1480098300213336,0.325745,0.302612,0.081543,-0.892029
1480098300235897,0.325745,0.302612,0.081543,-0.892029
1480098300256954,0.325806,0.302612,0.081543,-0.891968
1480098300273499,0.325745,0.302612,0.081543,-0.891968
1480098300295556,0.325745,0.302612,0.081543,-0.891968
1480098300316611,0.325745,0.302612,0.081543,-0.891968
1480098300333156,0.325745,0.302673,0.081543,-0.891968
1480098300355715,0.325745,0.302673,0.081543,-0.891968
1480098300376771,0.325745,0.302673,0.081543,-0.891968
1480098300393318,0.325745,0.302673,0.081543,-0.891968
1480098300415875,0.325745,0.302673,0.081543,-0.891968
1480098300436932,0.325745,0.302673,0.081604,-0.891968
1480098300453476,0.325745,0.302673,0.081543,-0.891968
1480098300476035,0.325745,0.302673,0.081543,-0.891968
1480098300498094,0.325745,0.302734,0.081604,-0.891968
1480098300513134,0.325745,0.302734,0.081543,-0.891968
1480098300535695,0.325745,0.302734,0.081543,-0.891968
1480098300558254,0.325745,0.302734,0.081604,-0.891968
1480098300573295,0.325745,0.302734,0.081604,-0.891968
1480098300595854,0.325684,0.302734,0.081604,-0.891968
1480098300625934,0.325684,0.302734,0.081604,-0.891968
1480098300632451,0.325684,0.302734,0.081604,-0.891968
1480098300656015,0.325684,0.302734,0.081604,-0.891968
1480098300678073,0.325745,0.302734,0.081604,-0.891968
1480098300692612,0.325745,0.302734,0.081604,-0.891968
1480098300715675,0.325684,0.302734,0.081604,-0.891968
1480098300738234,0.325684,0.302673,0.081604,-0.891968
1480098300752772,0.325684,0.302734,0.081604,-0.892029
1480098300775833,0.325684,0.302734,0.081604,-0.892029
1480098300798392,0.325684,0.302673,0.081604,-0.892029
1480098300812430,0.325623,0.302673,0.081604,-0.892029
1480098300835993,0.325684,0.302673,0.081604,-0.892029
1480098300858051,0.325684,0.302673,0.081604,-0.892029
1480098300872590,0.325623,0.302734,0.081604,-0.892029
1480098300895653,0.325684,0.302673,0.081604,-0.891968
1480098300918212,0.325684,0.302673,0.081604,-0.892029
1480098300932749,0.325684,0.302734,0.081604,-0.892029
1480098300956312,0.325684,0.302673,0.081604,-0.892029
1480098300978403,0.325623,0.302673,0.081604,-0.892029
1480098300999454,0.325623,0.302673,0.081604,-0.892029
1480098301015972,0.325439,0.302795,0.0814819,-0.892029
1480098301038531,0.32489,0.303223,0.0814209,-0.89209
1480098301059587,0.324524,0.303589,0.0812378,-0.892151
1480098301076132,0.324097,0.303955,0.0810547,-0.892212
1480098301098190,0.323914,0.304443,0.0809326,-0.892151
1480098301119246,0.323853,0.30481,0.0807495,-0.892029
1480098301135791,0.323608,0.305237,0.0806274,-0.891968
1480098301158352,0.323547,0.305542,0.0804443,-0.891907
1480098301179405,0.323547,0.305725,0.0803833,-0.891846
1480098301195949,0.323486,0.305725,0.0803833,-0.891846
1480098301218510,0.323547,0.305725,0.0803833,-0.891846
1480098301239069,0.32312,0.305847,0.0803833,-0.891968
1480098301255609,0.322815,0.306274,0.0803833,-0.891907
1480098301278670,0.322693,0.30658,0.0801392,-0.891846
1480098301299225,0.322327,0.306946,0.079895,-0.891907
1480098301315768,0.32196,0.307373,0.0797119,-0.891907
1480098301338330,0.321716,0.307739,0.0794678,-0.891907
1480098301359384,0.321167,0.308228,0.0792847,-0.891968
1480098301375930,0.320984,0.308533,0.0790405,-0.891907
1480098301398489,0.320923,0.308899,0.0788574,-0.891846
1480098301420548,0.320679,0.309326,0.0787964,-0.891785
1480098301436098,0.320679,0.309753,0.0786743,-0.891663
1480098301458148,0.320435,0.310181,0.0786133,-0.891602
1480098301480710,0.320129,0.310669,0.0787354,-0.891541
1480098301495748,0.320007,0.311096,0.0787354,-0.891418
1480098301518309,0.31958,0.311707,0.0787354,-0.891357
1480098301548391,0.319397,0.3125,0.0785522,-0.891174
1480098301555406,0.319275,0.313293,0.0783691,-0.89093
1480098301578468,0.318726,0.314087,0.0782471,-0.890869
1480098301602030,0.31842,0.314758,0.0778809,-0.890747
1480098301615065,0.318298,0.315491,0.0775146,-0.890564
1480098301638126,0.317993,0.316284,0.0772705,-0.890442
1480098301660687,0.31781,0.316833,0.0769043,-0.89032
1480098301675225,0.317322,0.317505,0.0767822,-0.890259
1480098301698788,0.317078,0.318115,0.0768433,-0.890137
1480098301720847,0.317139,0.318542,0.0769043,-0.889954
1480098301734884,0.316956,0.319153,0.0770264,-0.889832
1480098301758446,0.316956,0.319519,0.0770874,-0.889648
1480098301781006,0.316833,0.319885,0.0773926,-0.889587
1480098301795043,0.316467,0.320313,0.0776978,-0.889526
1480098301818105,0.316162,0.320618,0.0777588,-0.889526
1480098301840665,0.315552,0.321045,0.0779419,-0.889526
1480098301861720,0.315186,0.321411,0.0780029,-0.889526
1480098301878264,0.315247,0.321472,0.0780029,-0.889526
1480098301900825,0.315369,0.321411,0.0784302,-0.889465
1480098301921880,0.315979,0.321289,0.0789795,-0.889221
1480098301938425,0.316406,0.321045,0.0796509,-0.889099
1480098301960987,0.316284,0.320862,0.0802612,-0.88916
1480098301982040,0.316833,0.320374,0.0808105,-0.889099
1480098301998083,0.317749,0.319885,0.0814819,-0.888855
1480098302020644,0.31842,0.319458,0.0820923,-0.888733
1480098302041699,0.318481,0.31897,0.0820313,-0.888855
1480098302058243,0.317749,0.318787,0.0817871,-0.889221
1480098302080804,0.317627,0.318604,0.081604,-0.889343
1480098302101872,0.317871,0.318298,0.0814819,-0.889404
1480098302118404,0.31842,0.318176,0.081543,-0.889221
1480098302140963,0.319458,0.317871,0.0817261,-0.888977
1480098302162034,0.320007,0.317749,0.0820923,-0.888794
1480098302178062,0.319946,0.31781,0.0820923,-0.888794
1480098302200623,0.319153,0.318054,0.0820923,-0.888977
1480098302222180,0.318359,0.318604,0.0819702,-0.889099
1480098302238225,0.317932,0.319153,0.081665,-0.889038
1480098302260782,0.317322,0.319641,0.0811768,-0.88916
1480098302281838,0.316284,0.32019,0.0806885,-0.889343
1480098302298382,0.315796,0.320496,0.0802002,-0.889465
1480098302320943,0.315491,0.32074,0.0797729,-0.889465
1480098302341999,0.315247,0.321106,0.0795288,-0.889526
1480098302358041,0.315247,0.321045,0.0794678,-0.889526
1480098302380600,0.315247,0.321106,0.0794678,-0.889526
1480098302403161,0.315247,0.321106,0.0794678,-0.889526
1480098302425722,0.315186,0.320862,0.0792236,-0.889648
1480098302440762,0.315125,0.320862,0.0792236,-0.889648
1480098302463320,0.315002,0.32074,0.0789185,-0.889771
1480098302477860,0.314819,0.320618,0.0786133,-0.889893
1480098302500921,0.314758,0.320679,0.0783081,-0.889954
1480098302523514,0.31488,0.320679,0.0778198,-0.889893
1480098302537519,0.314697,0.320862,0.0775757,-0.889954
1480098302561083,0.314636,0.320923,0.0772705,-0.889954
1480098302583139,0.315125,0.320862,0.0770874,-0.889832
1480098302597677,0.315552,0.320923,0.0773315,-0.889648
1480098302620743,0.316162,0.320679,0.0775146,-0.889465
1480098302643300,0.316833,0.320374,0.0776978,-0.889343
1480098302658341,0.317261,0.320251,0.0779419,-0.889221
1480098302680911,0.317688,0.319824,0.0778809,-0.889221
1480098302703475,0.318054,0.319458,0.0778809,-0.889221
1480098302726533,0.318604,0.319092,0.0778198,-0.88916
1480098302741573,0.319336,0.318665,0.0776367,-0.889099
1480098302763130,0.319763,0.318359,0.0775146,-0.889038
1480098302777669,0.320251,0.317993,0.0772705,-0.889038
1480098302800730,0.320679,0.317627,0.0770874,-0.889038
1480098302823290,0.321167,0.317383,0.0771484,-0.888916
1480098302844345,0.321899,0.316956,0.0770874,-0.888794
1480098302860890,0.322388,0.31665,0.0770874,-0.888733
1480098302883450,0.322693,0.316284,0.0770264,-0.888794
1480098302904506,0.322998,0.315857,0.0768433,-0.888794
1480098302920549,0.322998,0.315857,0.0769043,-0.888794
1480098302943108,0.322998,0.315857,0.0769043,-0.888794
1480098302964164,0.322998,0.315857,0.0769043,-0.888855
1480098302980709,0.322937,0.315918,0.0769043,-0.888855
1480098303003269,0.322998,0.315857,0.0769043,-0.888794
1480098303024324,0.322998,0.315857,0.0768433,-0.888794
1480098303040872,0.322815,0.315918,0.0767822,-0.888855
1480098303063429,0.322693,0.315796,0.0766602,-0.888977
1480098303084484,0.322388,0.315796,0.0765991,-0.889099
1480098303100527,0.322388,0.315857,0.0765991,-0.889038
1480098303123087,0.322449,0.315857,0.0765991,-0.889038
1480098303144143,0.322388,0.315857,0.0765991,-0.889038
1480098303160687,0.322449,0.315857,0.0765991,-0.889038
1480098303183247,0.322449,0.315857,0.0765991,-0.889038
1480098303204303,0.322205,0.315857,0.0766602,-0.88916
1480098303220853,0.322083,0.315735,0.0764771,-0.889221
1480098303243407,0.322083,0.315674,0.0764771,-0.889221
1480098303264463,0.322021,0.315735,0.0765381,-0.889282
1480098303281007,0.322083,0.315674,0.0764771,-0.889221
1480098303303580,0.322083,0.315735,0.0764771,-0.889221
1480098303325632,0.321899,0.315674,0.076416,-0.889343
1480098303340668,0.321838,0.315613,0.0762939,-0.889404
1480098303363226,0.321777,0.315613,0.0762939,-0.889404
1480098303385786,0.321838,0.315613,0.0762939,-0.889404
1480098303408346,0.321838,0.315613,0.0762939,-0.889404
1480098303423386,0.321838,0.315613,0.0762939,-0.889404
1480098303445948,0.321838,0.315613,0.0762939,-0.889343
1480098303459983,0.321838,0.315674,0.0762939,-0.889343
1480098303483045,0.321838,0.315674,0.0762939,-0.889343
1480098303505605,0.321899,0.315674,0.0762939,-0.889343
1480098303520145,0.321838,0.315674,0.0762939,-0.889343
1480098303543205,0.321899,0.315613,0.0762939,-0.889343
1480098303565764,0.321899,0.315613,0.0762939,-0.889343
1480098303580303,0.321838,0.315613,0.0762939,-0.889404
1480098303603365,0.321899,0.315613,0.0762939,-0.889404
1480098303625925,0.321838,0.315613,0.0762939,-0.889404
1480098303639962,0.321838,0.315613,0.0762939,-0.889404
1480098303663534,0.321838,0.315552,0.0762939,-0.889404
1480098303685583,0.321777,0.315613,0.0762939,-0.889404
1480098303707142,0.321838,0.315552,0.0762939,-0.889404
1480098303723183,0.321838,0.315613,0.0762939,-0.889404
1480098303745743,0.321838,0.315613,0.0762939,-0.889404
1480098303766800,0.321899,0.315613,0.0762939,-0.889343
1480098303783344,0.321838,0.315613,0.0762939,-0.889343
1480098303805903,0.322083,0.315491,0.076416,-0.889343
1480098303826959,0.322449,0.315247,0.076416,-0.889282
1480098303843503,0.322449,0.315247,0.0764771,-0.889282
1480098303865561,0.322449,0.315186,0.076416,-0.889282
1480098303887122,0.322449,0.315186,0.076416,-0.889282
1480098303903162,0.322388,0.315186,0.076416,-0.889282
1480098303925722,0.322449,0.315186,0.076416,-0.889343
1480098303946778,0.322449,0.315186,0.076416,-0.889343
1480098303963322,0.322388,0.315125,0.076416,-0.889343
1480098303985884,0.322754,0.314941,0.076416,-0.889282
1480098304006938,0.322754,0.314941,0.0764771,-0.889282
1480098304023482,0.322754,0.314941,0.076416,-0.889282
1480098304046042,0.322754,0.314941,0.076416,-0.889282
1480098304067098,0.322693,0.314941,0.076416,-0.889282
1480098304083141,0.322754,0.314941,0.076416,-0.889282
1480098304105701,0.322693,0.314941,0.076416,-0.889282
1480098304126756,0.322876,0.314758,0.0765381,-0.889282
1480098304143301,0.323303,0.314392,0.0765381,-0.889282
1480098304165862,0.323547,0.314087,0.0765991,-0.889282
1480098304186917,0.32373,0.313721,0.0765991,-0.889343
1480098304203461,0.323792,0.313354,0.0765991,-0.889465
1480098304226021,0.323425,0.313171,0.0767212,-0.889648
1480098304248079,0.323425,0.313171,0.0767212,-0.889648
1480098304263119,0.323425,0.313171,0.0767212,-0.889648
1480098304285681,0.323364,0.313171,0.0767212,-0.889648
1480098304308239,0.323425,0.31311,0.0767212,-0.889648
1480098304323280,0.323425,0.313171,0.0767212,-0.889648
1480098304345839,0.323425,0.313171,0.0767212,-0.889648
1480098304368399,0.323425,0.313171,0.0767212,-0.889648
1480098304382437,0.323425,0.313171,0.0767212,-0.889648
1480098304407004,0.323792,0.312988,0.0769043,-0.889526
1480098304428058,0.324158,0.312622,0.0772095,-0.889526
1480098304442597,0.324524,0.312378,0.0774536,-0.889465
1480098304465658,0.325134,0.311951,0.0775757,-0.889343
1480098304488218,0.325684,0.311462,0.0777588,-0.889282
1480098304502757,0.326416,0.310852,0.078186,-0.889221
1480098304525818,0.327576,0.31012,0.0784302,-0.889038
1480098304555898,0.328552,0.30957,0.0787354,-0.888855
1480098304562917,0.329773,0.30896,0.0790405,-0.88855
1480098304585978,0.331055,0.308105,0.0795288,-0.888367
1480098304608037,0.331909,0.307251,0.0800781,-0.888245
1480098304622575,0.332825,0.306274,0.0803223,-0.888245
1480098304645638,0.333496,0.305481,0.0805054,-0.888245
1480098304668196,0.33429,0.304871,0.0808105,-0.888123
1480098304682735,0.335022,0.304199,0.0808105,-0.888123
1480098304705797,0.335144,0.303772,0.0807495,-0.888184
1480098304727855,0.335266,0.303528,0.0805664,-0.888245
1480098304749415,0.335754,0.303345,0.0805054,-0.888123
1480098304765959,0.33606,0.30304,0.0805664,-0.888123
1480098304788516,0.336426,0.302734,0.0805664,-0.888062
1480098304809572,0.336426,0.302734,0.0805054,-0.888123
1480098304825617,0.336365,0.302673,0.0805664,-0.888123
1480098304848175,0.336609,0.302307,0.0805054,-0.888184
1480098304869231,0.336731,0.302124,0.0808716,-0.888184
1480098304886778,0.336182,0.302124,0.0809326,-0.888367
1480098304908335,0.335205,0.30249,0.0804443,-0.888672
1480098304929391,0.334106,0.303345,0.0800781,-0.888794
1480098304945935,0.333435,0.303894,0.0797729,-0.888855
1480098304968495,0.333069,0.304138,0.0796509,-0.888977
1480098304989552,0.333008,0.304382,0.0799561,-0.888855
1480098305006097,0.333374,0.304321,0.0802002,-0.888733
1480098305028154,0.333557,0.30426,0.0805054,-0.888672
1480098305049210,0.33374,0.303955,0.0809937,-0.888611
1480098305065754,0.333984,0.303223,0.081543,-0.888733
1480098305088314,0.333862,0.302673,0.0822754,-0.888916
1480098305109370,0.333801,0.302124,0.0829468,-0.889038
1480098305125914,0.333496,0.301819,0.083374,-0.889221
1480098305148475,0.332581,0.302063,0.0834961,-0.889465
1480098305169530,0.331665,0.302429,0.083252,-0.889709
1480098305185573,0.330627,0.303162,0.0830078,-0.889893
1480098305208134,0.329895,0.303955,0.0828857,-0.889893
1480098305230694,0.330017,0.304626,0.0827637,-0.889648
1480098305245734,0.329956,0.305298,0.0827026,-0.889465
1480098305268293,0.329773,0.305664,0.0827026,-0.889343
1480098305290852,0.32959,0.305725,0.0827637,-0.889404
1480098305311908,0.329468,0.305603,0.0829468,-0.889465
1480098305328453,0.329956,0.305115,0.0831299,-0.889465
1480098305351012,0.330261,0.304626,0.0834961,-0.889465
1480098305365050,0.3302,0.304321,0.0838623,-0.889587
1480098305388111,0.3302,0.30426,0.0838623,-0.889587
1480098305410671,0.329285,0.304443,0.0836792,-0.889893
1480098305425213,0.328369,0.304688,0.0831909,-0.890198
1480098305448271,0.32782,0.304932,0.0824585,-0.890381
1480098305470832,0.327393,0.305298,0.0817871,-0.890442
1480098305484868,0.327698,0.305664,0.0811768,-0.890259
1480098305508431,0.32782,0.306152,0.0806885,-0.890137
1480098305530491,0.327698,0.30658,0.0803223,-0.890076
1480098305545029,0.327881,0.306702,0.0799561,-0.890015
1480098305568090,0.327881,0.306641,0.079834,-0.890015
1480098305591151,0.328003,0.306458,0.079895,-0.890015
1480098305605189,0.32843,0.30603,0.0800781,-0.889954
1480098305628250,0.328857,0.305664,0.0805054,-0.889893
1480098305650810,0.329346,0.305237,0.0808105,-0.889832
1480098305665850,0.329529,0.304871,0.0810547,-0.889893
1480098305688410,0.329102,0.304626,0.0811768,-0.890137
1480098305710970,0.329102,0.304565,0.0811768,-0.890137
1480098305732026,0.329041,0.304565,0.0811768,-0.890137
1480098305748576,0.328918,0.304749,0.0810547,-0.890137
1480098305770629,0.328796,0.304871,0.0807495,-0.890198
1480098305791684,0.328369,0.305115,0.0805054,-0.890259
1480098305808230,0.328003,0.305298,0.0802002,-0.890381
1480098305830789,0.32782,0.305298,0.079895,-0.890503
1480098305851844,0.327698,0.30542,0.0797119,-0.890503
1480098305868388,0.327759,0.30542,0.0797119,-0.890503
1480098305890949,0.327759,0.30542,0.0797119,-0.890503
1480098305912004,0.327576,0.305298,0.0797119,-0.890625
1480098305928553,0.327576,0.305237,0.0796509,-0.890625
1480098305950607,0.327576,0.305237,0.0796509,-0.890625
1480098305971663,0.327759,0.305054,0.0796509,-0.890625
1480098305988708,0.32782,0.304993,0.0796509,-0.890625
1480098306010768,0.327759,0.304993,0.0796509,-0.890625
1480098306033328,0.327759,0.304932,0.0796509,-0.890625
1480098306048367,0.327881,0.305054,0.0796509,-0.890564
1480098306070930,0.328003,0.305298,0.0797119,-0.890442
1480098306091983,0.328064,0.305359,0.0796509,-0.890381
1480098306108527,0.327881,0.305603,0.0795898,-0.890381
1480098306130586,0.327637,0.305847,0.0794067,-0.890381
1480098306153146,0.327332,0.306091,0.0792847,-0.890442
1480098306168186,0.327087,0.306519,0.0791626,-0.890381
1480098306190746,0.326965,0.306824,0.0789185,-0.890381
1480098306213306,0.326721,0.30719,0.0787964,-0.89032
1480098306228847,0.326416,0.307617,0.0787354,-0.89032
1480098306250906,0.326355,0.307922,0.0785522,-0.890259
1480098306273466,0.326111,0.308228,0.0784912,-0.890259
1480098306287503,0.325928,0.308594,0.0784912,-0.890137
1480098306311067,0.32605,0.308838,0.0784302,-0.890015
1480098306333124,0.325989,0.309265,0.0784912,-0.889893
1480098306347664,0.325928,0.309631,0.0785522,-0.889771
1480098306370725,0.325928,0.309875,0.0784302,-0.889709
1480098306393284,0.325623,0.310364,0.0784912,-0.889648
1480098306407823,0.325562,0.310669,0.0783691,-0.889587
1480098306430886,0.325378,0.311035,0.0784302,-0.889526
1480098306453445,0.325073,0.311462,0.0783691,-0.889465
1480098306467482,0.324951,0.311768,0.0782471,-0.889404
1480098306490543,0.324585,0.312378,0.0783081,-0.889343
1480098306513103,0.32428,0.313049,0.0782471,-0.889221
1480098306527643,0.323853,0.313782,0.078064,-0.88916
1480098306550706,0.323303,0.314636,0.0780029,-0.889038
1480098306573264,0.322998,0.315491,0.0776978,-0.888916
1480098306594319,0.32251,0.316467,0.0773926,-0.888733
1480098306610863,0.321899,0.317627,0.0770874,-0.88855
1480098306633423,0.321411,0.318604,0.0767212,-0.888428
1480098306654480,0.320801,0.319763,0.076416,-0.888245
1480098306670522,0.320374,0.320801,0.0761108,-0.888062
1480098306693082,0.320007,0.321655,0.0758057,-0.887939
1480098306714138,0.319458,0.32251,0.0756226,-0.887817
1480098306730682,0.319336,0.323059,0.0753174,-0.887695
1480098306753242,0.318909,0.323669,0.0751953,-0.887634
1480098306774298,0.318481,0.324097,0.0751343,-0.887634
1480098306790842,0.318298,0.32428,0.0748901,-0.887634
1480098306813402,0.317993,0.324463,0.0748291,-0.887695
1480098306834458,0.317871,0.324341,0.0748291,-0.887756
1480098306850501,0.317627,0.323975,0.074646,-0.888062
1480098306873064,0.317017,0.323486,0.0739746,-0.888489
1480098306894117,0.315613,0.324707,0.0740356,-0.888489
1480098306910660,0.31427,0.325317,0.0740967,-0.888794
1480098306933220,0.314941,0.325317,0.0743408,-0.888489
1480098306954277,0.317505,0.325623,0.0749512,-0.887451
1480098306970821,0.319275,0.325317,0.0753174,-0.886902
1480098306993381,0.319458,0.324829,0.0753174,-0.887024
1480098307015940,0.318481,0.324463,0.0748901,-0.887512
1480098307030982,0.317322,0.324341,0.0748901,-0.888
1480098307053543,0.317017,0.32428,0.0751343,-0.888062
1480098307074095,0.317688,0.324158,0.0754395,-0.887878
1480098307090639,0.318787,0.324097,0.0758667,-0.887451
1480098307113200,0.319641,0.323853,0.0760498,-0.887268
1480098307135759,0.319641,0.323853,0.0760498,-0.887207
1480098307150801,0.319092,0.32373,0.0759888,-0.887512
1480098307173361,0.318787,0.323486,0.0760498,-0.887695
1480098307195921,0.318848,0.323364,0.0762939,-0.887695
1480098307209957,0.319458,0.32312,0.0762939,-0.887512
1480098307233018,0.320129,0.322876,0.0762329,-0.88739
1480098307255579,0.320129,0.322876,0.0762329,-0.88739
1480098307270117,0.320068,0.322632,0.0761108,-0.887512
1480098307293178,0.320007,0.322571,0.0761108,-0.887573
1480098307315739,0.320007,0.322571,0.0761108,-0.887573
1480098307330278,0.320007,0.32251,0.0760498,-0.887573
1480098307353339,0.320007,0.32251,0.0761108,-0.887573
1480098307375899,0.320007,0.32251,0.0761108,-0.887573
1480098307389935,0.320068,0.32251,0.0760498,-0.887573
1480098307413508,0.320007,0.322571,0.0761108,-0.887573
1480098307436060,0.320435,0.322388,0.0761719,-0.887512
1480098307450108,0.320679,0.322144,0.0762329,-0.887451
1480098307473156,0.320862,0.32196,0.076355,-0.887451
1480098307495717,0.321106,0.321594,0.0762329,-0.887512
1480098307510256,0.321228,0.321289,0.0762939,-0.887573
1480098307533316,0.321472,0.320923,0.0762939,-0.887573
1480098307555876,0.32196,0.320557,0.0762329,-0.887573
1480098307576932,0.321899,0.320557,0.0762329,-0.887573
1480098307592975,0.321899,0.320557,0.0762329,-0.887573
1480098307615535,0.321899,0.320557,0.0762329,-0.887634
1480098307636591,0.321838,0.320557,0.0762329,-0.887634
1480098307653135,0.322144,0.320374,0.0761719,-0.887573
1480098307675695,0.322388,0.32019,0.0761719,-0.887573
1480098307696751,0.322571,0.320129,0.0762329,-0.887512
1480098307713295,0.322937,0.319824,0.0762329,-0.887451
1480098307735855,0.322937,0.319641,0.076416,-0.887512
1480098307756911,0.322998,0.319641,0.076416,-0.887512
1480098307773455,0.322998,0.31958,0.076416,-0.887512
1480098307795515,0.322937,0.31958,0.076416,-0.887512
1480098307817072,0.322998,0.31958,0.076416,-0.887573
1480098307833114,0.322937,0.31958,0.076416,-0.887573
1480098307855674,0.322937,0.319519,0.076416,-0.887573
1480098307876730,0.322998,0.319519,0.076355,-0.887573
1480098307893274,0.322754,0.319641,0.076355,-0.887634
1480098307915835,0.322754,0.319641,0.076355,-0.887634
1480098307936898,0.322754,0.319641,0.0762939,-0.887634
1480098307953435,0.322754,0.319641,0.076355,-0.887634
1480098307975493,0.322754,0.319641,0.076355,-0.887634
1480098307998054,0.322754,0.319641,0.076355,-0.887634
1480098308013092,0.322693,0.319641,0.076355,-0.887634
1480098308035653,0.322693,0.319641,0.076355,-0.887634
1480098308058214,0.322693,0.319641,0.076355,-0.887634
1480098308073261,0.322693,0.319641,0.076355,-0.887634
1480098308095813,0.322754,0.31958,0.0762939,-0.887634
1480098308118373,0.322693,0.319641,0.076355,-0.887634
1480098308132411,0.322754,0.319641,0.0762939,-0.887634
1480098308163492,0.322693,0.319641,0.076355,-0.887634
1480098308178534,0.322693,0.319641,0.076355,-0.887634
1480098308192571,0.322693,0.319641,0.076355,-0.887634
1480098308215631,0.322693,0.319641,0.076355,-0.887634
1480098308238191,0.322693,0.319641,0.076355,-0.887634
1480098308252732,0.322693,0.319641,0.076355,-0.887634
1480098308275792,0.322571,0.319519,0.076416,-0.887695
1480098308298352,0.322632,0.319275,0.0764771,-0.887756
1480098308312389,0.322815,0.319031,0.0765381,-0.887756
1480098308335955,0.322876,0.31897,0.0767212,-0.887756
1480098308358010,0.32312,0.318726,0.0768433,-0.887756
1480098308372550,0.323181,0.31842,0.0769653,-0.887817
1480098308395610,0.323181,0.318298,0.0770264,-0.887878
1480098308418171,0.323242,0.317932,0.0770264,-0.887939
1480098308432712,0.323242,0.317749,0.0771484,-0.888062
1480098308455770,0.323486,0.317444,0.0772705,-0.888062
1480098308478330,0.323914,0.317078,0.0773315,-0.888
1480098308492367,0.324341,0.316833,0.0773926,-0.887939
1480098308515930,0.324768,0.316528,0.0773315,-0.887878
1480098308537988,0.325012,0.316406,0.0773926,-0.887878
1480098308559546,0.324951,0.316406,0.0773926,-0.887878
1480098308575589,0.324951,0.316406,0.0773926,-0.887878
1480098308598149,0.32489,0.316406,0.0773926,-0.887878
1480098308619206,0.32489,0.316345,0.0773926,-0.887878
1480098308635749,0.324951,0.316345,0.0773926,-0.887878
1480098308658309,0.324951,0.316345,0.0773926,-0.887878
1480098308679365,0.324768,0.316284,0.0772095,-0.888
1480098308695909,0.324402,0.316284,0.0771484,-0.888123
1480098308718469,0.324402,0.316345,0.0771484,-0.888123
1480098308739524,0.324402,0.316345,0.0771484,-0.888123
1480098308755567,0.324402,0.316345,0.0771484,-0.888123
1480098308778127,0.324402,0.316345,0.0771484,-0.888123
1480098308799183,0.324463,0.316345,0.0771484,-0.888123
1480098308815728,0.324097,0.316406,0.0772705,-0.888184
1480098308838288,0.324097,0.316406,0.0772705,-0.888184
1480098308859344,0.324097,0.316406,0.0772095,-0.888184
1480098308877392,0.324097,0.316345,0.0774536,-0.888184
1480098308898447,0.324097,0.316345,0.0774536,-0.888184
1480098308919503,0.324097,0.316284,0.0774536,-0.888184
1480098308935547,0.324097,0.316284,0.0774536,-0.888245
1480098308958107,0.324097,0.316284,0.0774536,-0.888245
1480098308979163,0.324036,0.316284,0.0774536,-0.888245
1480098308995709,0.324036,0.316284,0.0774536,-0.888245
1480098309018266,0.324036,0.316223,0.0774536,-0.888245
1480098309040827,0.324036,0.316223,0.0774536,-0.888245
1480098309055866,0.324036,0.316223,0.0774536,-0.888245
1480098309078427,0.324036,0.316223,0.0774536,-0.888245
1480098309100987,0.323975,0.316284,0.0774536,-0.888245
1480098309115024,0.324036,0.316223,0.0774536,-0.888245
1480098309144101,0.323975,0.316284,0.0774536,-0.888245
1480098309160646,0.324036,0.316284,0.0774536,-0.888245
1480098309175184,0.324036,0.316284,0.0774536,-0.888245
1480098309205766,0.324036,0.316284,0.0774536,-0.888245
1480098309220809,0.324036,0.316223,0.0774536,-0.888245
1480098309235346,0.324036,0.316223,0.0774536,-0.888245
1480098309258405,0.323975,0.316223,0.0774536,-0.888306
1480098309280971,0.323975,0.316162,0.0774536,-0.888306
1480098309295002,0.324158,0.316101,0.0775757,-0.888245
1480098309318063,0.324341,0.31604,0.0776978,-0.888184
1480098309357167,0.324341,0.31604,0.0776978,-0.888184
1480098309361714,0.324341,0.31604,0.0776978,-0.888184
1480098309378223,0.324341,0.31604,0.0776978,-0.888184
1480098309401285,0.324341,0.31604,0.0776978,-0.888184
1480098309421839,0.32428,0.31604,0.0776978,-0.888245
1480098309438384,0.324341,0.315979,0.0776367,-0.888245
1480098309460943,0.324341,0.315979,0.0776367,-0.888245
1480098309481999,0.324341,0.315979,0.0776367,-0.888245
1480098309499045,0.324341,0.315918,0.0776367,-0.888245
1480098309520602,0.32428,0.315918,0.0776367,-0.888245
1480098309541658,0.32428,0.315918,0.0776367,-0.888245
1480098309558202,0.324036,0.315979,0.0774536,-0.888367
1480098309580762,0.322876,0.316406,0.0770874,-0.888672
1480098309601818,0.32196,0.316345,0.0765381,-0.889038
1480098309618864,0.320679,0.316284,0.074585,-0.889709
1480098309640922,0.318604,0.315857,0.0726318,-0.890747
1480098309661980,0.317566,0.315186,0.0724487,-0.891418
1480098309678022,0.317749,0.314026,0.0726318,-0.891724
1480098309700581,0.318359,0.313477,0.0725098,-0.891724
1480098309721637,0.318359,0.313416,0.0725098,-0.891724
1480098309745701,0.318237,0.313049,0.0726929,-0.891846
1480098309760740,0.318481,0.312439,0.0728149,-0.892029
1480098309781797,0.318909,0.311829,0.0731812,-0.892029
1480098309798340,0.318787,0.31134,0.0737915,-0.892212
1480098309820900,0.318604,0.311035,0.0740356,-0.892334
1480098309841956,0.318542,0.311462,0.0739746,-0.892212
1480098309857999,0.318787,0.312317,0.0741577,-0.891846
1480098309880559,0.319824,0.313049,0.0749512,-0.891113
1480098309903119,0.320801,0.313416,0.0758057,-0.890564
1480098309917658,0.321289,0.31311,0.0758057,-0.890503
1480098309940719,0.321045,0.313477,0.076355,-0.890442
1480098309963279,0.320984,0.313538,0.076355,-0.890381
1480098309978319,0.32135,0.313232,0.0762329,-0.890381
1480098310000881,0.32196,0.313416,0.0769043,-0.890076
1480098310023439,0.322693,0.313354,0.0770264,-0.889832
1480098310045999,0.322693,0.313293,0.0770264,-0.889832
1480098310061039,0.322632,0.313354,0.0770264,-0.889832
1480098310083099,0.322876,0.313171,0.0771484,-0.889771
1480098310097640,0.323059,0.31311,0.0772095,-0.889771
1480098310120697,0.323059,0.31311,0.0772095,-0.889771
1480098310143259,0.323059,0.31311,0.0771484,-0.889771
1480098310157797,0.323059,0.31311,0.0771484,-0.889771
1480098310180858,0.323181,0.313049,0.0773315,-0.889709
1480098310203422,0.323669,0.312866,0.0773926,-0.889587
1480098310217455,0.32373,0.312805,0.0775757,-0.889587
1480098310240517,0.32373,0.312805,0.0775757,-0.889587
1480098310263077,0.32373,0.312805,0.0775757,-0.889587
1480098310277619,0.323669,0.312805,0.0775757,-0.889587
1480098310300677,0.323669,0.312744,0.0775757,-0.889587
1480098310323237,0.323669,0.312744,0.0775757,-0.889587
1480098310337275,0.323669,0.312744,0.0775757,-0.889648
1480098310360838,0.323669,0.312683,0.0775757,-0.889648
1480098310383396,0.323669,0.312683,0.0775757,-0.889648
1480098310404453,0.323669,0.312683,0.0775757,-0.889648
1480098310421498,0.32373,0.312683,0.0775146,-0.889648
1480098310443055,0.323669,0.312683,0.0775757,-0.889648
1480098310464113,0.32373,0.312683,0.0775146,-0.889648
1480098310481658,0.32373,0.312683,0.0775146,-0.889587
1480098310503216,0.323669,0.312744,0.0775757,-0.889587
1480098310524271,0.32373,0.312744,0.0775757,-0.889587
1480098310540816,0.32373,0.312744,0.0775757,-0.889587
1480098310563375,0.323669,0.312561,0.0775146,-0.889648
1480098310584431,0.323669,0.312317,0.0774536,-0.889771
1480098310600975,0.323547,0.312134,0.0775757,-0.889893
1480098310623034,0.32373,0.311829,0.0776367,-0.889893
1480098310644090,0.323975,0.311462,0.0776367,-0.889954
1480098310660636,0.324097,0.311218,0.0777588,-0.889954
1480098310683194,0.324097,0.311218,0.0777588,-0.889954
1480098310704250,0.324097,0.311218,0.0777588,-0.890015
1480098310721295,0.324097,0.311218,0.0777588,-0.890015
1480098310743354,0.324158,0.311157,0.0777588,-0.890015
1480098310764414,0.324097,0.311157,0.0777588,-0.890015
1480098310780953,0.324097,0.311157,0.0777588,-0.890015
1480098310803014,0.324158,0.311157,0.0777588,-0.890015
1480098310824069,0.324097,0.311157,0.0777588,-0.890015
1480098310840614,0.324097,0.311157,0.0777588,-0.890015
1480098310863173,0.324097,0.311096,0.0777588,-0.890015
1480098310884230,0.324097,0.311096,0.0777588,-0.890015
1480098310900772,0.324158,0.311096,0.0776978,-0.890015
1480098310923333,0.324097,0.311096,0.0777588,-0.890015
1480098310945892,0.324158,0.311096,0.0777588,-0.890015
1480098310960933,0.324158,0.311096,0.0776978,-0.890015
1480098310983493,0.324158,0.311157,0.0777588,-0.890015
1480098311013072,0.324158,0.311157,0.0776978,-0.890015
1480098311020591,0.324158,0.311157,0.0776978,-0.890015
1480098311043152,0.324158,0.311157,0.0777588,-0.890015
1480098311065711,0.324219,0.311157,0.0776978,-0.889954
1480098311080251,0.324158,0.311157,0.0777588,-0.889954
1480098311103312,0.324158,0.311157,0.0777588,-0.889954
1480098311125872,0.324219,0.311157,0.0776978,-0.889954
1480098311139910,0.324158,0.311157,0.0777588,-0.890015
1480098311163486,0.324158,0.311157,0.0776978,-0.889954
1480098311185532,0.324219,0.311096,0.0776978,-0.890015
1480098311200069,0.324158,0.311096,0.0776978,-0.890015
1480098311223130,0.324158,0.311096,0.0776978,-0.890015
1480098311245690,0.324158,0.311096,0.0776978,-0.890015
1480098311260229,0.324158,0.311096,0.0776978,-0.890015
1480098311284294,0.324219,0.311096,0.0776978,-0.890015
1480098311305850,0.324158,0.311096,0.0776978,-0.890015
1480098311319888,0.324219,0.311096,0.0776978,-0.890015
1480098311343450,0.324219,0.311035,0.0776978,-0.890015
1480098311365509,0.324219,0.311035,0.0776978,-0.890015
1480098311386568,0.324219,0.311035,0.0776978,-0.890015
1480098311403110,0.324219,0.311035,0.0776978,-0.890015
1480098311425670,0.324158,0.311035,0.0776978,-0.890015
1480098311446724,0.324219,0.311035,0.0776978,-0.890015
1480098311463268,0.324158,0.311035,0.0776978,-0.890015
1480098311486831,0.324219,0.311035,0.0776978,-0.890015
1480098311506885,0.324219,0.311035,0.0776978,-0.890015
1480098311523428,0.324219,0.311096,0.0776978,-0.890015
1480098311545988,0.324219,0.311035,0.0776978,-0.890015
1480098311566543,0.324219,0.311035,0.0776978,-0.890015
