timestamp,x,y,z
1480526550639275,1.25,-0.3125,-0.1875
1480526550659330,0.375,-0.3125,-0.1875
1480526550675875,-0.875,-0.5,-0.1875
1480526550698432,-0.125,-0.3125,-0.25
1480526550720993,0.0625,-0.3125,0.125
1480526550736032,0.1875,-0.125,0.125
1480526550759094,-0.375,0.125,0.1875
1480526550779649,-1.1875,0.125,0.375
1480526550795690,-1.25,0.625,0.4375
1480526550825773,-1.8125,0.75,0.625
1480526550841814,-1.75,0.8125,0.6875
1480526550863371,-0.6875,1.0625,0.8125
1480526550878412,-1,0.875,0.875
1480526550900971,-1.25,0.8125,0.9375
1480526550916115,-1,0.6875,0.8125
1480526550938571,-0.625,0.5625,0.8125
1480526550960630,-0.3125,0.5,0.75
1480526550975169,-0.625,0.375,0.625
1480526550998229,-1,0.375,0.5625
1480526551020790,-0.8125,0.375,0.5625
1480526551035328,-1,0.375,0.5
1480526551058892,-0.875,0.3125,0.4375
1480526551080949,-0.4375,0.125,0.375
1480526551103510,-0.5625,0,0.375
1480526551118550,-0.5625,-0.0625,0.3125
1480526551140608,0,-0.125,0.375
1480526551155147,0.5625,-0.125,0.8125
1480526551178209,0.6875,-0.0625,1
1480526551207299,0.375,0,0.6875
1480526551216812,0.875,0.125,0.4375
1480526551238869,0.6875,0.3125,0.1875
1480526551261430,-0.25,0.1875,0
1480526551276470,-0.1875,0.3125,-0.3125
1480526551298528,-0.25,0.125,0.0625
1480526551320587,0,0.25,0.0625
1480526551344149,-0.375,0.1875,0.375
1480526551358187,-0.4375,0.3125,0.25
1480526551381249,-0.3125,0.3125,0.1875
1480526551401803,-0.25,0.375,0.25
1480526551425869,-0.8125,0.125,0.25
1480526551448427,0.3125,0.125,0.375
1480526551461963,0.4375,0,0.3125
1480526551486028,0.0625,-0.125,0.3125
1480526551500566,0.1875,-0.125,0.1875
1480526551523125,0,-0.3125,0
1480526551538667,0.0625,-0.25,-0.0625
1480526551561227,-0.0625,-0.25,0.0625
1480526551589301,0,-0.25,-0.0625
1480526551598325,-0.125,-0.25,-0.25
1480526551620885,-0.125,-0.1875,-0.0625
1480526551641944,0.125,-0.125,-0.1875
1480526551666508,0,-0.3125,-0.25
1480526551681047,0,-0.3125,-0.3125
1480526551702102,0.25,-0.375,-0.3125
1480526551719648,0.25,-0.1875,-0.25
1480526551740705,0.125,-0.125,-0.125
1480526551761760,0.0625,0,0.1875
1480526551778304,0.625,0.0625,0.0625
1480526551801366,1.25,0.1875,-0.3125
1480526551823927,0.25,0,-0.5625
1480526551838464,0.0625,-0.1875,-1
1480526551861024,0.25,-0.375,-1.125
1480526551883083,0.375,-0.6875,-0.8125
1480526551898123,1.4375,-0.5625,-0.625
1480526551920684,1.5,-0.5625,-0.3125
1480526551950763,1.125,-0.5,-0.1875
1480526551957783,0.6875,-0.25,-0.375
1480526551980844,0,-0.125,-0.25
1480526552009420,-0.5,-0.125,-0.3125
1480526552017441,0.6875,-0.0625,-0.25
1480526552041505,0.875,-0.125,-0.1875
1480526552070582,0.1875,-0.1875,-0.1875
1480526552085120,-0.0625,-0.25,-0.3125
1480526552108182,0.125,-0.25,-0.3125
1480526552123222,0.3125,-0.1875,-0.3125
1480526552138262,0.3125,-0.125,-0.25
1480526552160822,0.3125,-0.125,-0.3125
1480526552183382,-0.1875,0,-0.375
1480526552197419,-0.125,0.0625,-0.4375
1480526552220982,-0.3125,0.0625,-0.25
1480526552243041,0.125,-0.0625,-0.25
1480526552257579,0.5,-0.0625,-0.3125
1480526552280642,0.625,-0.1875,-0.25
1480526552303201,0.3125,-0.3125,-0.3125
1480526552333280,0,-0.375,-0.25
1480526552340802,0.5,-0.3125,0
1480526552363361,0.375,0,0.25
1480526552384416,-0.0625,0,0.375
1480526552400961,0.75,0,0.25
1480526552431542,0.6875,0.125,-0.1875
1480526552444576,-0.3125,-0.125,-0.25
1480526552460622,-0.4375,-0.25,-0.6875
1480526552483681,-0.375,-0.5625,-0.3125
1480526552504236,0.375,-0.4375,-0.3125
1480526552520780,0.4375,-0.375,0.1875
1480526552543340,-0.4375,-0.1875,0.3125
1480526552564395,-0.5625,-0.125,0.1875
1480526552580940,0.0625,0.25,0.3125
1480526552603500,-0.5,0.3125,0.125
1480526552626561,-0.8125,-0.125,0.1875
1480526552641099,0.625,-0.125,0.0625
1480526552663158,0.25,-0.125,0.0625
1480526552684214,0.125,-0.25,-0.0625
1480526552700758,0.0625,-0.25,-0.125
1480526552723318,-0.1875,-0.3125,-0.0625
1480526552745879,0.0625,-0.125,-0.25
1480526552768438,0.25,-0.125,-0.0625
1480526552783479,0.25,-0.125,-0.1875
1480526552806038,0,-0.125,-0.125
1480526552820577,0,-0.0625,-0.125
1480526552843137,0.3125,-0.0625,-0.0625
1480526552865697,0.375,-0.125,-0.0625
1480526552880246,0.625,-0.125,-0.125
1480526552903297,0.75,-0.25,-0.25
1480526552925858,0.4375,-0.25,-0.3125
1480526552948418,0.1875,-0.25,-0.4375
1480526552963461,0,-0.3125,-0.375
1480526552986017,-0.0625,-0.25,-0.4375
1480526553000054,-0.0625,-0.1875,-0.1875
1480526553023117,0.1875,0.125,0.0625
1480526553045675,0.125,0.1875,0.5
1480526553060214,0.625,0.125,0.3125
1480526553084780,0.9375,0.1875,-0.125
1480526553122379,0.1875,-0.0625,-0.25
1480526553126901,0,-0.3125,-0.6875
1480526553143436,-0.3125,-0.6875,-0.6875
1480526553165995,0.1875,-0.75,-0.3125
1480526553180035,0.9375,-0.625,-0.0625
1480526553203094,0.625,-0.4375,0.25
1480526553225654,-0.125,-0.3125,0.125
1480526553263755,-0.3125,-0.125,0.1875
1480526553266262,0,0.125,0.0625
1480526553286316,-0.6875,-0.0625,0.0625
1480526553306870,0.0625,-0.125,0.0625
1480526553323916,0.1875,-0.375,0.0625
1480526553345976,0.125,-0.3125,0.125
1480526553367030,0.25,-0.3125,0
1480526553390092,-0.0625,-0.4375,0.0625
1480526553405634,0.25,-0.3125,-0.125
1480526553428193,0.5625,-0.125,-0.1875
1480526553443234,0.1875,-0.0625,-0.3125
1480526553466295,-0.25,-0.125,-0.3125
1480526553486849,-0.25,-0.125,-0.25
1480526553503396,0.25,-0.125,-0.0625
1480526553525953,0.6875,-0.0625,0
1480526553547010,0.625,-0.125,-0.125
1480526553563553,0.4375,-0.3125,-0.125
1480526553585612,0.375,-0.375,-0.1875
1480526553606668,0.5625,-0.25,-0.3125
1480526553623212,0.125,-0.3125,-0.25
1480526553645774,-0.0625,-0.25,-0.25
1480526553668833,0.375,-0.3125,-0.1875
1480526553683372,0.375,-0.25,-0.125
1480526553706434,0.375,-0.25,-0.125
1480526553728493,0.4375,-0.1875,-0.1875
1480526553742529,0.1875,-0.3125,-0.1875
1480526553773110,0.1875,-0.375,-0.25
1480526553788150,0.75,-0.375,-0.3125
1480526553802689,0.5625,-0.375,-0.375
1480526553825751,0.1875,-0.4375,-0.375
1480526553848312,0.1875,-0.4375,-0.4375
1480526553862850,-0.0625,-0.375,-0.375
1480526553885910,0.0625,-0.4375,-0.3125
1480526553908471,0.375,-0.375,-0.1875
1480526553931532,1.0625,-0.1875,0.0625
1480526553946072,0.875,-0.125,0.375
1480526553968129,0.5625,-0.25,0.0625
1480526553982668,1.5,-0.125,-0.4375
1480526554013253,0.0625,-0.1875,-0.4375
1480526554028289,-0.6875,-0.5625,-0.8125
1480526554042828,0.1875,-0.6875,-0.75
1480526554065890,0.625,-0.6875,-0.25
1480526554088462,0.75,-0.625,-0.1875
1480526554102487,0.1875,-0.375,0.0625
1480526554126051,-0.4375,-0.25,0.0625
1480526554148108,-0.3125,-0.25,-0.0625
1480526554162647,0.375,-0.125,0.0625
1480526554185707,-0.625,-0.1875,-0.125
1480526554208271,0.0625,-0.1875,0.0625
1480526554229324,0.6875,-0.1875,0.125
1480526554245869,0.1875,-0.3125,0.125
1480526554268428,0.375,-0.25,0
1480526554289484,0,-0.25,0
1480526554308034,-0.125,-0.1875,-0.0625
1480526554328087,0.3125,-0.125,0
1480526554349143,0.375,0.125,0
1480526554366189,-0.0625,0,-0.125
1480526554388247,-0.3125,0.1875,0.0625
1480526554409304,0.3125,0.1875,0.125
1480526554426348,1,0.0625,0.0625
1480526554448757,1.3125,0,-0.0625
1480526554478488,1.5625,-0.1875,-0.125
1480526554486006,1.9375,-0.25,-0.3125
1480526554508569,2.5,-0.1875,-0.625
1480526554529122,2.75,-0.1875,-0.75
1480526554545666,2.5,-0.0625,-0.75
1480526554568225,2.125,0.125,-0.6875
1480526554589281,1.5625,0.25,-0.5625
1480526554613347,1.25,0.5,-0.5625
1480526554628387,1.1875,0.5,-0.375
1480526554650947,1.125,0.375,-0.1875
1480526554673507,1,0.25,-0.125
1480526554688545,1.0625,0.3125,0
1480526554711106,0.875,0.1875,0.3125
1480526554725646,0.8125,0.0625,0.375
1480526554748422,0.875,-0.0625,0.3125
1480526554770764,1.0625,-0.0625,0.1875
1480526554785303,-0.375,-0.25,0.25
1480526554814380,-0.5625,-0.375,0
1480526554831927,-0.625,-0.5625,0
1480526554844962,-0.8125,-0.5625,0.25
1480526554868524,-0.625,-0.4375,0.5
1480526554890584,-0.5,-0.25,0.6875
1480526554905123,-0.6875,-0.25,0.6875
1480526554928183,-0.875,-0.125,0.5625
1480526554951244,-1.0625,-0.0625,0.5625
1480526554965282,-1,-0.25,0.3125
1480526554988344,0.125,-0.125,0.25
1480526555010905,-0.125,-0.25,0.125
1480526555024943,-0.3125,-0.1875,0.0625
1480526555049004,-0.1875,-0.125,0
1480526555071063,-0.375,-0.125,-0.1875
1480526555100641,-0.125,-0.125,-0.3125
1480526555108165,0,0,-0.3125
1480526555131724,-0.125,0.125,-0.3125
1480526555152279,-0.625,0.0625,-0.25
1480526555168824,-0.5625,0.0625,-0.25
1480526555173837,0,0.125,-0.1875
1480526555196396,0.25,-0.0625,-0.0625
1480526555213944,0.1875,-0.125,-0.0625
1480526555233495,0,-0.125,0.0625
1480526555256055,0.0625,-0.1875,0.0625
1480526555278615,0.375,-0.125,0
1480526555301176,0.375,-0.1875,-0.1875
1480526555316215,0.0625,-0.25,-0.25
1480526555347801,0.125,-0.3125,-0.3125
1480526555353815,0.1875,-0.375,-0.3125
1480526555383895,0.25,-0.3125,-0.1875
1480526555415834,0.0625,-0.3125,-0.1875
1480526555417985,0.25,-0.125,0.0625
1480526555436034,0.3125,0,0.5
1480526555458594,0.3125,0.0625,0.5625
1480526555473634,0.75,0.125,0.3125
1480526555503713,0.875,0.25,-0.1875
1480526555518754,-0.1875,0.0625,-0.25
1480526555533794,-0.1875,-0.125,-0.625
1480526555556354,0.375,-0.375,-0.625
1480526555579923,0.5,-0.5,-0.3125
1480526555593453,0.625,-0.5,-0.0625
1480526555616014,0,-0.375,0.1875
1480526555647598,0.125,-0.125,0.25
1480526555653613,-0.4375,0.125,0.0625
1480526555676172,-0.1875,0.25,0.125
1480526555698732,-0.75,0.1875,0.0625
1480526555729815,-0.4375,-0.125,0.125
1480526555736332,0.75,-0.125,0.0625
1480526555767415,0.125,-0.25,0.125
1480526555780951,-0.0625,-0.25,0.0625
1480526555795991,0.0625,-0.25,-0.125
1480526555821560,-0.25,-0.25,-0.1875
1480526555833591,0.125,-0.0625,-0.0625
1480526555856151,0.3125,-0.0625,-0.0625
1480526555878712,0.0625,0.0625,-0.1875
1480526555895255,-0.5,0.0625,-0.125
1480526555923832,-0.375,0.0625,0
1480526555938871,0,0.0625,0
1480526555953912,0.125,0.125,0.0625
1480526555975971,0.125,-0.0625,0
1480526555998531,-0.0625,0,0
1480526556015075,0,-0.125,0
1480526556036130,0.0625,-0.125,-0.125
1480526556058691,-0.3125,-0.125,-0.1875
1480526556075234,-0.4375,-0.1875,-0.0625
1480526556096290,-0.125,-0.125,-0.125
1480526556118850,-0.1875,0,-0.125
1480526556134893,-0.375,0,0.125
1480526556163970,-0.25,0,0.375
1480526556178509,0.25,0.1875,0.5
1480526556195053,0.4375,0.125,0.1875
1480526556216110,0.8125,0.1875,-0.125
1480526556238669,-0.1875,0.0625,-0.4375
1480526556255213,-0.4375,-0.25,-0.625
1480526556276269,-0.125,-0.25,-0.8125
1480526556298830,-0.1875,-0.4375,-0.375
1480526556314872,0.125,-0.3125,-0.1875
1480526556339939,-0.0625,-0.1875,0.1875
1480526556358490,-0.1875,0.0625,0.3125
1480526556375035,-0.625,0.125,0.1875
1480526556396087,-0.25,0.3125,0
1480526556421656,-0.8125,0.1875,0
1480526556435192,-0.875,-0.25,0
1480526556456247,0.875,-0.125,-0.0625
1480526556478808,0.625,-0.125,0
1480526556495352,0.125,-0.25,-0.1875
1480526556523928,0.0625,-0.3125,-0.1875
1480526556538466,-0.125,-0.25,-0.1875
1480526556556515,0.3125,-0.1875,-0.1875
1480526556576567,0.8125,0,-0.1875
1480526556598626,0.1875,0,-0.25
1480526556616674,-0.5625,-0.0625,-0.25
1480526556636226,-0.125,-0.0625,-0.0625
1480526556658788,0.375,0,-0.125
1480526556676835,0.3125,-0.1875,-0.25
1480526556696386,0.5,-0.3125,-0.1875
1480526556721453,0.625,-0.5625,-0.3125
1480526556741006,0.8125,-0.5,-0.3125
1480526556757549,1.0625,-0.5,-0.4375
1480526556786126,0.5,-0.5,-0.4375
1480526556801165,-0.125,-0.625,-0.4375
1480526556823725,-0.0625,-0.5,-0.25
1480526556838765,0.375,-0.3125,-0.1875
1480526556862829,1.25,-0.125,0.125
1480526556876366,0.625,-0.1875,0.0625
1480526556907450,0.5625,-0.25,-0.1875
1480526556920984,1,-0.0625,-0.625
1480526556939032,0.0625,-0.4375,-0.5625
1480526556974127,0.4375,-0.5,-0.875
1480526556984153,0.8125,-0.6875,-0.5625
1480526557013731,0.9375,-0.625,-0.375
1480526557018744,1.1875,-0.5625,-0.4375
1480526557043811,0.875,-0.5,-0.1875
1480526557056344,0.5625,-0.4375,-0.375
1480526557078403,0.375,-0.3125,-0.4375
1480526557103971,0.25,-0.3125,-0.3125
1480526557117507,0.5,-0.4375,-0.4375
1480526557141570,1.5625,-0.3125,-0.375
1480526557161123,0.9375,-0.4375,-0.3125
1480526557177667,0.75,-0.3125,-0.375
1480526557198723,0.875,-0.375,-0.4375
1480526557221282,0.4375,-0.375,-0.4375
1480526557245347,0.6875,-0.25,-0.5
1480526557258882,0.875,-0.1875,-0.5
1480526557280942,0.5,-0.0625,-0.5
1480526557297486,-0.0625,-0.125,-0.5625
1480526557318541,0.0625,0.0625,-0.375
1480526557341104,0.375,0,-0.3125
1480526557359150,0.375,0.125,-0.1875
1480526557378701,0.3125,0.0625,-0.1875
1480526557401261,0,0.0625,-0.1875
1480526557417820,0,-0.0625,-0.0625
1480526557438861,0.625,-0.0625,0.0625
1480526557463928,0.375,-0.0625,0
1480526557484985,0.75,0,0.3125
1480526557498520,0.0625,0.0625,0.3125
1480526557521080,0.25,0,0.1875
1480526557539128,0.6875,0.25,0
1480526557558679,-0.875,-0.0625,0
1480526557581365,-0.1875,0,-0.1875
1480526557599288,0.0625,0,0.0625
1480526557618847,-0.3125,-0.0625,0.1875
1480526557641400,-0.5,0.0625,0.1875
1480526557659448,-0.375,0.1875,0.4375
1480526557678499,-0.6875,0.1875,0.25
1480526557701059,-0.25,0.375,0.3125
1480526557719107,-1.0625,0.25,0.1875
1480526557738659,-1,0.25,0.1875
1480526557768739,0.125,0.25,0.125
1480526557779267,-0.375,0.125,0.25
1480526557798819,-0.25,0.125,0
1480526557821379,-0.125,0.1875,0.125
1480526557838926,-0.375,0.0625,0.0625
1480526557858478,-0.1875,0.125,0.0625
1480526557881039,0,0.125,0.0625
1480526557912622,-0.0625,0.1875,-0.0625
1480526557918637,-0.5625,0.1875,-0.125
1480526557941198,-0.375,0.125,0
1480526557959245,-0.1875,0.125,-0.0625
1480526557978815,0.25,0,0
1480526558002361,0.125,-0.0625,-0.0625
1480526558018904,0,-0.125,0.0625
1480526558038456,0.4375,-0.0625,0.125
1480526558061017,0.4375,0,0.1875
1480526558079065,0.625,0.1875,0.3125
1480526558107644,0.375,0,0.3125
1480526558121176,1,0,0.125
1480526558139226,1,0.0625,-0.125
1480526558160280,0.0625,-0.3125,-0.125
1480526558181336,0.375,-0.5,-0.375
1480526558198883,0.1875,-0.5625,-0.4375
1480526558221443,0.125,-0.4375,-0.25
1480526558248516,0.0625,-0.375,-0.1875
1480526558263555,0,-0.125,0
1480526558280100,-0.5625,0.0625,-0.1875
1480526558301155,-0.4375,0.375,0.0625
1480526558323716,-0.75,0.25,0
1480526558340260,-0.5,0.125,0
1480526558361316,0.5,0.0625,-0.1875
1480526558384878,-0.1875,-0.0625,-0.1875
1480526558399918,-0.25,-0.3125,-0.125
1480526558420973,0.3125,-0.4375,-0.3125
1480526558443533,0.6875,-0.6875,-0.125
1480526558461582,1.9375,-0.875,0.1875
1480526558481133,2.3125,-0.9375,-0.1875
1480526558503694,2.5,-1.9375,-0.3125
1480526558527759,3.3125,-2.625,0.125
1480526558541294,5.875,-3,0.875
1480526558571374,7.3125,-3.75,-0.125
1480526558581402,7.3125,-4.5625,-2.375
1480526558600953,11.125,-4.9375,-6.1875
1480526558623513,11.9375,-5.75,-8.5625
1480526558641561,9.5625,-6.25,-7.5625
1480526558661113,6.125,-5.5625,-5.875
1480526558683674,4.4375,-5,-5.125
1480526558702222,8.125,-3.5625,-4.25
1480526558721273,8.875,-3.0625,-3.3125
1480526558743832,8.875,-2.8125,-3.9375
1480526558767896,2.9375,-1.3125,-2.0625
1480526558783939,1.4375,-1.3125,-2.4375
1480526558803491,-0.375,-1.3125,-2
1480526558821539,0.8125,-1.3125,-2.6875
1480526558848611,2.6875,-1.25,-2.4375
1480526558880698,3.5625,-1.375,-1.4375
1480526558883203,2.125,-1.9375,-1.4375
1480526558901251,1.125,-2.75,-0.75
1480526558923815,2.0625,-1.375,1.625
1480526558941358,2.9375,-0.125,1.875
1480526558963918,0.8125,-0.25,3.3125
1480526558986979,1.375,0.125,4.0625
1480526559001518,-0.625,0.9375,3.5625
1480526559021070,-2.8125,2.125,2.8125
1480526559052655,-6.375,3.1875,3.75
1480526559061678,-6.3125,3.4375,4.0625
1480526559084238,-3.75,4.125,3.375
1480526559111310,-3.0625,4.5,2.9375
1480526559121337,-4.625,3.9375,2.75
1480526559158936,-5.1875,3.3125,2.8125
1480526559163448,-3.0625,2.6875,2.375
1480526559189018,-0.5625,2.3125,2.25
1480526559202552,0.5625,1.625,2.3125
1480526559231129,-0.5625,1.0625,1.875
1480526559241656,-0.8125,0.625,1.5
1480526559262714,-0.5625,0.4375,1.1875
1480526559283768,-0.1875,0.125,0.6875
1480526559301816,-0.9375,0.0625,0.3125
1480526559322371,-0.8125,0,0.3125
1480526559343427,-0.75,-0.25,0.4375
1480526559369497,0.75,-0.375,0.1875
1480526559388548,1.375,-0.375,-0.1875
1480526559403587,0.5,-0.5625,-0.25
1480526559427652,0.6875,-0.8125,-0.8125
1480526559444195,0.375,-1.0625,-1
1480526559466755,0.75,-1.1875,-0.8125
1480526559482296,1.5625,-1.25,-0.4375
1480526559511374,2.25,-1.5625,-0.625
1480526559531428,2.9375,-1.5,-0.5
1480526559541454,3.125,-1.25,-1
1480526559564014,1.875,-1.1875,-0.6875
1480526559583598,3,-1.625,-0.875
1480526559602116,4.3125,-1.6875,-1
1480526559628686,5.0625,-1.5,-0.5
1480526559651250,2.6875,-1.5625,-0.375
1480526559661775,1.125,-1.125,-0.25
1480526559683833,0.9375,-0.625,-0.0625
1480526559704889,0.1875,0,0.125
1480526559721433,-0.875,0.375,0.1875
1480526559743993,-2.25,0.5625,0.5
1480526559763545,-3,0.625,0.375
1480526559786105,-2.875,0.5,0.25
1480526559818692,-2.0625,0.1875,0.1875
1480526559823705,-1.6875,0.125,0.1875
1480526559846265,-1.375,-0.0625,0
1480526559868827,-0.4375,-0.1875,0.125
1480526559883865,-0.5625,-0.3125,0
1480526559905923,-1.3125,-0.5625,-0.25
1480526559923972,-1.375,-0.5,-0.3125
1480526559943523,-0.9375,-0.5,-0.4375
1480526559966085,0.625,-0.5625,-0.125
1480526559984131,1.4375,-0.9375,0.0625
1480526560005187,2.25,-1.25,0.25
1480526560026243,3.5,-1.6875,0.0625
1480526560044291,5.5625,-1.8125,-0.4375
1480526560065348,4.875,-1.875,-0.1875
1480526560087417,3.25,-2.1875,-0.125
1480526560103950,4.375,-2.4375,-0.125
1480526560131023,6.0625,-2.4375,0.25
1480526560146063,6.25,-2.3125,0.125
1480526560164111,4.9375,-2.25,0.4375
1480526560185167,3.375,-2.1875,0.375
1480526560207728,2.3125,-1.8125,0.375
1480526560228782,1.0625,-0.9375,0.375
1480526560244825,-0.5625,-0.375,0.3125
1480526560266383,-0.6875,0.4375,0.5625
1480526560283930,-2.25,0.9375,0.5
1480526560306490,-3.6875,1.0625,0.625
1480526560326042,-3.375,1.4375,0.5625
1480526560344089,-3.5625,1.5625,0.3125
1480526560367151,-3.3125,1.3125,0.3125
1480526560386201,-2.3125,1.1875,0.25
1480526560404249,-1.8125,1.125,0.125
1480526560426809,-2,1,-0.1875
1480526560446362,-3.0625,1.0625,-0.25
1480526560471428,-2.3125,1.25,-0.1875
1480526560486468,-1.8125,1.5625,-0.1875
1480526560513539,-2.3125,1.4375,-0.0625
1480526560524069,-1.375,1.125,0.25
1480526560546628,-0.1875,0.8125,-0.125
1480526560566180,0.0625,0.5,0
1480526560584228,0.6875,-0.0625,-0.0625
1480526560606790,0.875,-0.4375,0.0625
1480526560626340,1.25,-0.4375,0.0625
1480526560644388,2.1875,-0.3125,0.25
1480526560682991,1.9375,-0.5,0.0625
1480526560687504,1.625,-0.4375,0
1480526560708558,0.9375,-0.5,0.0625
1480526560726608,0.3125,-0.4375,-0.25
1480526560747663,-0.1875,-0.375,-0.25
1480526560764210,-0.4375,-0.4375,0
1480526560792784,-0.1875,-0.25,-0.0625
1480526560813840,-0.5,0,0.3125
1480526560823865,-1.25,0.0625,0
1480526560853945,-1.0625,0.1875,0.1875
1480526560865977,-0.9375,0.4375,0
1480526560884027,-1.5625,0.4375,-0.125
1480526560906586,-1.25,0.5,-0.125
1480526560929146,-1.75,0.625,-0.0625
1480526560944185,-2.0625,0.875,0.0625
1480526560966745,-2.25,1,-0.25
1480526560989305,-1.9375,0.9375,0
1480526561004346,-1.875,0.8125,-0.0625
1480526561033923,-1.5,0.75,0
1480526561054981,-1.5,0.5,-0.25
1480526561064005,-1.25,0.3125,0
1480526561086565,-0.4375,0.1875,-0.3125
1480526561107620,0.0625,-0.0625,-0.0625
1480526561124167,0.25,-0.25,-0.0625
1480526561146725,0.75,-0.4375,0
1480526561167781,0.875,-0.5,-0.1875
1480526561183823,0.9375,-0.5625,-0.125
1480526561206384,1,-0.5,-0.1875
1480526561227439,0.5625,-0.5,-0.0625
1480526561248495,0.4375,-0.3125,0.125
1480526561266548,0.5,-0.125,0.1875
1480526561289105,1.1875,-0.125,0.0625
1480526561308654,1.3125,0,-0.25
1480526561326704,0.4375,-0.0625,-0.3125
1480526561349263,-0.5625,-0.25,-0.5
1480526561368815,-0.75,-0.4375,-0.125
1480526561386362,-0.0625,-0.25,-0.0625
1480526561408923,0.375,-0.125,0
1480526561428473,-0.5,-0.0625,0.0625
1480526561446522,-1,0.125,0.0625
1480526561476601,-0.5,0.375,0.0625
1480526561490138,-0.9375,0.375,0.1875
1480526561506684,-0.875,0.1875,0
1480526561529242,0.4375,0.1875,0
1480526561548794,-0.5,0.125,0
1480526561566342,-1.125,0.0625,0
1480526561588900,-0.0625,-0.0625,-0.1875
1480526561609957,-0.1875,-0.0625,-0.25
1480526561626501,-0.375,-0.1875,-0.125
1480526561649061,-0.125,-0.125,-0.1875
1480526561668612,0.1875,-0.0625,-0.25
1480526561694180,0.1875,-0.0625,-0.1875
1480526561709220,-0.1875,-0.0625,-0.25
1480526561728772,-0.4375,0.0625,0
1480526561753839,-0.1875,0.0625,-0.125
1480526561768879,-0.125,0.1875,-0.0625
1480526561788430,-0.1875,0.0625,-0.1875
1480526561805978,-0.0625,-0.125,-0.3125
1480526561829040,-0.4375,-0.1875,-0.25
1480526561848592,-0.6875,-0.0625,-0.1875
1480526561873158,-0.25,0,0
1480526561903738,-0.1875,0.25,0.1875
1480526561909252,-0.625,0.375,0.1875
1480526561925797,-0.0625,0.5,-0.1875
1480526561948356,-0.75,0.8125,-0.625
1480526561970916,-3.125,1,-0.75
1480526561985956,-4.375,1.125,-0.8125
1480526562008015,-4,1.25,-0.4375
1480526562029573,-3.375,1.6875,-0.3125
1480526562045616,-3.6875,1.6875,-0.1875
1480526562082714,-3.75,1.5,-0.0625
1480526562089733,-3.5,1.3125,-0.125
1480526562105775,-2.375,1.4375,-0.25
1480526562128335,-2.375,1,-0.1875
1480526562149391,-1.75,0.625,-0.1875
1480526562165935,0.375,0.1875,-0.25
1480526562188495,0.3125,0,-0.25
1480526562210554,0.0625,-0.0625,-0.125
1480526562225594,-0.0625,-0.25,-0.1875
1480526562248154,0,-0.375,-0.125
1480526562270714,0.375,-0.125,-0.3125
1480526562285252,0.0625,-0.0625,-0.1875
1480526562308816,-0.1875,-0.0625,-0.0625
1480526562331877,-0.3125,0,-0.0625
1480526562344912,-0.25,0.125,0
1480526562368474,0.125,0.0625,0.125
1480526562390532,0,0,0.0625
1480526562413094,0.1875,-0.0625,0.25
1480526562430640,0.3125,-0.0625,0.125
1480526562450693,0.125,-0.25,0.1875
1480526562465232,0.4375,-0.25,-0.0625
1480526562488292,0.25,-0.1875,-0.0625
1480526562510852,0,-0.125,-0.0625
1480526562524890,-0.3125,-0.1875,-0.0625
1480526562547951,0.125,-0.125,0.125
1480526562570511,0.375,0.125,0.375
1480526562585050,0.4375,0,0.3125
1480526562608112,1.125,-0.0625,0
1480526562631674,0.875,0.0625,-0.25
1480526562653237,-0.0625,-0.25,-0.4375
1480526562668272,-0.125,-0.5,-0.5625
1480526562690831,0.1875,-0.5625,-0.3125
1480526562719407,0.625,-0.5,-0.125
1480526562728432,0.25,-0.5,0.1875
1480526562751493,0.125,-0.3125,0.25
1480526562771546,0.25,-0.25,0.125
1480526562788090,0.625,-0.0625,0
1480526562810650,0.375,0,-0.125
1480526562831711,-0.0625,-0.375,-0.0625
1480526562848250,0.875,-0.3125,-0.1875
1480526562871312,0.5625,-0.3125,-0.0625
1480526562891867,0.4375,-0.25,-0.1875
1480526562908410,0.25,-0.125,-0.3125
1480526562931472,-0.0625,-0.1875,-0.25
1480526562952026,0.125,-0.0625,-0.3125
1480526562975589,0.75,0.0625,-0.3125
1480526562990629,0.375,0,-0.4375
1480526563011687,-0.125,0,-0.375
1480526563028229,0.0625,-0.125,-0.25
1480526563051290,0.4375,-0.125,-0.1875
1480526563079365,0.6875,-0.1875,-0.1875
1480526563088389,1,-0.25,-0.1875
1480526563110949,0.875,-0.3125,-0.1875
1480526563139023,0.6875,-0.4375,-0.25
1480526563148048,0.6875,-0.5,-0.375
1480526563170608,0.5625,-0.625,-0.25
1480526563193669,0.6875,-0.5,-0.25
1480526563208711,1.0625,-0.3125,-0.1875
1480526563231770,0.9375,-0.375,-0.375
1480526563253328,0.5,-0.4375,-0.375
1480526563275386,0.75,-0.4375,-0.4375
1480526563290928,0.3125,-0.5,-0.375
1480526563312987,0.5,-0.4375,-0.3125
1480526563327525,0.6875,-0.375,-0.125
1480526563352090,0.6875,-0.1875,0
1480526563373148,0.5,-0.0625,0.25
1480526563387686,0.5,0.0625,-0.125
1480526563418266,0.625,0.25,-0.4375
1480526563433307,-1.0625,-0.125,-0.3125
1480526563447845,-0.5625,-0.1875,-0.5
1480526563470906,0.0625,-0.125,-0.125
1480526563493467,0.4375,-0.25,0.0625
1480526563522042,0.25,-0.125,0.125
1480526563531567,-0.5,-0.125,0.125
1480526563560646,-1.0625,-0.1875,0.0625
1480526563567664,-0.625,-0.0625,-0.1875
1480526563590726,-0.625,0,0
1480526563613287,-0.75,-0.0625,0
1480526563627825,0.4375,0,0.1875
1480526563650885,-0.25,0.0625,0.3125
1480526563673448,-0.875,0,0.3125
1480526563695504,-0.625,0.125,0.25
1480526563711547,-0.625,0.1875,0.1875
1480526563733104,-0.875,0.25,0.1875
1480526563754159,-0.375,0.25,0.25
1480526563770704,-0.375,0.1875,0.25
1480526563801285,-0.625,0.125,0.0625
1480526563814320,-0.5625,0.125,0.0625
1480526563831365,-0.0625,0.125,-0.1875
1480526563853424,0.3125,-0.125,-0.0625
1480526563874479,0.4375,-0.1875,0
1480526563892026,0.4375,-0.125,0.0625
1480526563913083,0.4375,-0.125,0.0625
1480526563934138,0.6875,0.0625,0.0625
1480526563950682,0.875,0.1875,0
1480526563973744,0.25,0,0
1480526563994298,0,0.0625,-0.125
1480526564010843,0,0.0625,-0.1875
1480526564033904,0.125,-0.0625,-0.25
1480526564054458,0.875,0,-0.0625
1480526564078021,0.6875,0,-0.0625
1480526564093061,0.6875,0,0.25
1480526564115621,0.5625,0,0
1480526564131664,1.3125,0.1875,-0.1875
1480526564153222,0.5,0.3125,-0.4375
1480526564176784,-0.8125,-0.0625,-0.4375
1480526564190822,0,-0.125,-0.625
1480526564213381,-0.0625,-0.1875,-0.125
1480526564235440,0.1875,-0.25,-0.1875
1480526564250983,0,-0.25,0.0625
1480526564288080,-0.375,-0.25,0.125
1480526564296101,-0.5,-0.125,-0.125
1480526564318160,0,0.0625,-0.125
1480526564333200,-0.875,-0.0625,-0.1875
1480526564355761,-0.6875,-0.0625,-0.0625
1480526564370298,0.1875,0.0625,0.0625
1480526564393360,-0.3125,0,0.0625
1480526564423941,-0.0625,0.0625,0
1480526564430960,-0.1875,-0.0625,-0.0625
1480526564453019,-0.625,0.0625,0.0625
1480526564475579,-0.5625,0.1875,-0.0625
1480526564490117,-0.4375,0.3125,-0.0625
1480526564513179,-0.625,0.375,0
1480526564535739,-1,0.375,0
1480526564549777,-1.0625,0.3125,0
1480526564573341,-0.625,0.3125,0
1480526564596400,-0.5,0.375,0.125
1480526564616955,-0.375,0.25,0.0625
1480526564633498,-0.5,0.1875,0
1480526564655558,-0.4375,0.1875,-0.0625
1480526564676613,-0.5,0.1875,-0.125
1480526564700678,-0.875,0.1875,-0.1875
1480526564715718,-1.0625,0.0625,-0.125
1480526564738278,-0.75,0.1875,0.125
1480526564753820,-0.125,0.375,0.3125
1480526564775878,0.25,0.4375,0.4375
1480526564804453,0.3125,0.25,0.25
1480526564813478,1.0625,0.1875,-0.1875
1480526564835536,0.25,0.0625,-0.125
1480526564856594,-0.4375,-0.1875,-0.4375
1480526564873138,-0.25,-0.3125,-0.3125
1480526564895696,0.3125,-0.375,0.1875
1480526564926278,0.375,-0.25,0.25
1480526564933296,-0.0625,-0.25,0.3125
1480526564955859,-0.4375,-0.125,0.1875
1480526564978417,-0.4375,-0.0625,0.0625
1480526564993457,0.125,0,0.1875
1480526565015518,-0.5,-0.25,0.0625
1480526565036571,0.5625,-0.25,0.125
1480526565054619,0.8125,-0.125,0.0625
1480526565081691,0.0625,-0.25,0.0625
1480526565098235,0.0625,-0.1875,-0.0625
1480526565113276,-0.3125,-0.125,-0.125
1480526565135835,-0.4375,-0.0625,-0.0625
1480526565158395,-0.25,0.0625,-0.25
1480526565173438,-0.1875,0.1875,-0.125
1480526565195493,-0.4375,0.25,-0.1875
1480526565219056,-0.625,0.375,-0.125
1480526565232592,-0.5,0.4375,0
1480526565255655,-0.5,0.4375,0
1480526565284230,-0.125,0.375,-0.125
1480526565292753,-0.1875,0.1875,-0.125
1480526565329350,-0.5,0.125,-0.25
1480526565338374,-0.625,0,-0.1875
1480526565360934,0.0625,0,-0.125
1480526565375472,0,0,0.0625
1480526565398033,0.4375,0.125,0.1875
1480526565412571,0.5,0,0.0625
1480526565437137,1.375,0,-0.375
1480526565465713,0.5625,0,-0.4375
1480526565472733,-0.4375,-0.25,-0.5
1480526565495793,-0.25,-0.375,-0.5
1480526565518353,0.3125,-0.25,0
1480526565539409,0.4375,-0.125,0
1480526565556456,-0.25,-0.125,0.25
1480526565578011,-0.9375,-0.0625,0.1875
1480526565608095,-0.4375,0.0625,0.25
1480526565615612,-0.3125,0.3125,0.3125
1480526565638171,-0.625,0,0.25
1480526565659729,0.25,-0.0625,0.125
1480526565677275,0.4375,-0.125,0.125
1480526565698332,0.0625,-0.125,0.125
1480526565719387,-0.1875,-0.125,0.125
1480526565742950,-0.5,-0.1875,0.125
1480526565757990,-0.25,-0.0625,0.0625
1480526565779046,0.25,0.125,0.125
1480526565795590,-0.0625,0.125,0
1480526565818158,-0.5625,0.1875,0
1480526565839715,-0.625,0.25,0.0625
1480526565855752,-0.25,0.25,0.0625
1480526565878310,0,0.1875,0.0625
1480526565899366,0.0625,0.25,0
1480526565916412,-0.1875,0.0625,-0.0625
1480526565944486,-0.1875,0.0625,-0.0625
1480526565959526,0,0.125,-0.125
1480526565976575,0,0.125,-0.0625
1480526565998128,0,0.25,0.1875
1480526566020689,0.4375,0.3125,0.0625
1480526566035728,1.125,0.125,-0.125
1480526566058289,0.9375,0.1875,-0.5625
1480526566086872,-0.25,-0.25,-0.375
1480526566095889,-0.125,-0.375,-0.6875
1480526566117947,0.1875,-0.375,-0.375
1480526566140508,0.4375,-0.3125,-0.0625
1480526566155550,0,-0.375,0.0625
1480526566178108,-0.5625,-0.1875,0.25
1480526566201170,-0.5,-0.0625,0.1875
1480526566215217,0.125,0.1875,0.25
1480526566238268,-0.75,0.125,-0.0625
1480526566261329,-0.3125,0.0625,0.125
1480526566274865,0.25,-0.125,-0.0625
1480526566304444,-0.4375,-0.125,-0.0625
1480526566320486,-0.1875,-0.0625,-0.125
1480526566335025,-0.4375,0,-0.1875
1480526566365606,-0.5625,0,-0.1875
1480526566380648,-0.4375,0.3125,-0.0625
1480526566401702,-0.1875,0.4375,0
1480526566418248,-0.625,0.4375,-0.125
1480526566440808,-1,0.5,-0.0625
1480526566455346,-0.9375,0.5,-0.0625
1480526566478407,-0.625,0.5,-0.0625
1480526566500465,-0.5,0.4375,-0.125
1480526566522022,-0.5625,0.3125,-0.25
1480526566538566,-0.5,0.3125,-0.0625
1480526566560625,-0.625,0.0625,-0.0625
1480526566583687,-0.1875,0,0
1480526566598726,-0.1875,-0.0625,0
1480526566620785,0.3125,-0.0625,0.3125
1480526566643346,0.8125,-0.125,0
1480526566658386,1.5,-0.1875,-0.125
1480526566686961,0.875,-0.3125,-0.4375
1480526566701500,0.25,-0.5,-0.6875
1480526566718043,0.0625,-0.5625,-0.625
1480526566746620,0.0625,-0.625,-0.1875
1480526566761665,0.4375,-0.375,0
1480526566778204,0.375,-0.25,0.1875
1480526566800765,0.0625,-0.125,0.1875
1480526566821820,0,0,0.125
1480526566838365,-0.25,0.125,0.0625
1480526566860423,-0.3125,-0.0625,0.125
1480526566881991,1.0625,0,-0.0625
1480526566898023,0.625,-0.1875,-0.125
1480526566921084,-0.125,-0.25,-0.1875
1480526566941638,-0.25,-0.25,-0.25
1480526566965702,0,-0.1875,-0.0625
1480526566980745,0.375,0,-0.125
1480526567003303,0.25,0.125,-0.1875
1480526567025867,-0.0625,0.25,-0.1875
1480526567040903,-0.6875,0.25,-0.1875
1480526567062961,-0.375,0.3125,-0.125
1480526567079506,-0.25,0.25,-0.125
1480526567100562,-0.0625,0.125,-0.0625
1480526567131644,0.125,0.1875,-0.125
1480526567137660,0.0625,0,-0.1875
1480526567161223,-0.0625,0.0625,-0.3125
1480526567183281,-0.25,0,-0.3125
1480526567197320,-0.375,-0.0625,-0.25
1480526567221383,-0.1875,-0.0625,-0.125
1480526567243442,0.4375,0.3125,0.1875
1480526567257479,0.25,0.1875,0
1480526567280541,0.0625,0.125,-0.1875
1480526567303601,-0.125,0.4375,-0.5625
1480526567317643,-1.0625,0.1875,-0.1875
1480526567340700,-1.0625,-0.0625,-0.5625
1480526567378300,-0.625,-0.0625,-0.4375
1480526567380806,-0.0625,0.0625,-0.0625
1480526567414938,-0.625,-0.25,0.125
1480526567422921,-0.6875,-0.1875,0.0625
1480526567437457,-0.375,-0.125,-0.0625
1480526567460519,0.5,0,-0.0625
1480526567483080,-0.3125,-0.125,-0.1875
1480526567504134,-0.0625,-0.25,-0.125
1480526567520679,0.6875,-0.125,-0.25
1480526567543740,0,-0.25,-0.1875
1480526567564296,-0.0625,-0.125,-0.375
1480526567588359,-0.1875,-0.0625,-0.1875
1480526567603414,-0.375,-0.125,-0.3125
1480526567631473,-0.125,0.0625,-0.3125
1480526567640498,0.3125,0.25,-0.25
1480526567663058,0,0.125,-0.3125
1480526567701158,-0.25,0.125,-0.1875
1480526567703665,-0.25,0.1875,-0.0625
1480526567731740,-0.0625,0.25,0.0625
1480526567751794,0.1875,0.1875,-0.0625
1480526567766833,-0.0625,0.1875,0.0625
1480526567783378,-0.125,0.25,0
1480526567804437,0.6875,0.0625,0.25
1480526567820977,0.375,0,0
1480526567844039,0.875,-0.125,0.1875
1480526567864091,0.5,0,0.4375
1480526567880637,0.3125,-0.0625,0.25
1480526567903698,0.625,-0.1875,0.1875
1480526567931772,1.375,0.0625,-0.4375
1480526567940796,-0.5,-0.25,-0.125
1480526567963356,-0.4375,-0.1875,-0.25
1480526567985916,-0.0625,-0.25,0
1480526568006470,0.0625,0,0.25
1480526568023016,0.0625,0.0625,0.3125
1480526568045575,-0.25,0.1875,0.4375
1480526568066630,-0.625,0.25,0.3125
1480526568083174,-0.5,0.5625,0.5
1480526568105738,-1.125,0.375,0.375
1480526568120274,0,0.5,0.4375
1480526568143335,0.1875,0.5,0.5
1480526568171911,-0.75,0.3125,0.4375
1480526568179932,-0.375,0.3125,0.375
1480526568202995,-0.25,0.1875,0.5
1480526568225554,-0.4375,0.3125,0.3125
1480526568240092,-0.125,0.3125,0.4375
1480526568269170,0.125,0.1875,0.375
1480526568285713,-0.3125,0.1875,0.3125
1480526568300252,-0.5,0.1875,0.375
1480526568331838,-0.3125,0.1875,0.375
1480526568345874,-0.125,0.25,0.375
1480526568359911,-0.125,0.25,0.3125
1480526568389491,-0.5,0.25,0.3125
1480526568413053,-0.5625,0.1875,0.4375
1480526568426588,-0.25,0.0625,0.3125
1480526568443132,0,0.25,0.3125
1480526568465697,-0.3125,0.3125,0.5625
1480526568486752,-0.125,0.125,0.5625
1480526568503297,1.25,0.375,0.3125
1480526568525858,1.875,-0.0625,0.0625
1480526568546914,-1.0625,-0.1875,0
1480526568562956,-0.75,-0.125,-0.0625
1480526568585516,-1,-0.3125,0.1875
1480526568606572,0.1875,-0.3125,0.125
1480526568623116,0.375,-0.1875,0.375
1480526568646178,-0.3125,-0.1875,0.4375
1480526568666734,-0.6875,-0.25,0.375
1480526568690796,0.3125,0.0625,0.375
1480526568705837,-0.25,0,0.25
1480526568726892,-0.375,-0.1875,0.25
1480526568743436,0.5625,-0.1875,0.25
1480526568765494,-0.25,-0.0625,0.25
1480526568787553,-0.25,-0.0625,0.25
1480526568803095,0.1875,-0.0625,0.1875
1480526568825655,0.125,-0.125,0.125
1480526568846711,0,0,0.125
1480526568863254,0.3125,0.0625,0.125
1480526568885816,0.375,0,0
1480526568908375,-0.1875,0.125,0.125
1480526568923414,-0.25,0.125,0.125
1480526568945474,0.0625,0.125,0.1875
1480526568969036,0.3125,0.0625,0.1875
1480526568991094,0.25,0,0
1480526569013153,0.0625,-0.125,0.125
1480526569028193,0.0625,-0.1875,0
1480526569042732,0.125,-0.125,0.125
1480526569080332,0.1875,-0.1875,0.125
1480526569089873,0.3125,-0.0625,0.375
1480526569102390,0.625,-0.125,0.3125
1480526569125954,1.0625,-0.0625,0.125
1480526569148013,0.6875,0.0625,-0.25
1480526569162552,-0.25,-0.25,-0.25
1480526569185612,-0.3125,-0.3125,-0.5
1480526569208172,-0.25,-0.5,-0.125
1480526569222713,0.3125,-0.3125,-0.0625
1480526569245772,0.0625,-0.4375,0.25
1480526569268332,-0.0625,-0.25,0.3125
1480526569282369,0,-0.1875,0.125
1480526569305934,0.3125,0.0625,0.125
1480526569327991,-0.5,0.125,0.125
1480526569350552,-0.625,-0.125,0.1875
1480526569365590,0.9375,0,0.125
1480526569388151,-0.25,-0.0625,0.125
1480526569416726,-0.375,-0.0625,0
1480526569425751,-0.25,-0.125,0
1480526569449313,-0.25,-0.125,0.0625
1480526569469367,0,-0.125,0.125
1480526569485411,0.1875,0.0625,0.125
1480526569507970,0.25,0.0625,0
1480526569532039,-0.25,0.0625,0.25
1480526569545570,-0.5625,0.0625,0.1875
1480526569568130,-0.25,0.0625,0.3125
1480526569590689,0.3125,0.1875,0.3125
1480526569605740,0.1875,0,0.3125
1480526569628290,-0.0625,-0.0625,0.25
1480526569656868,0,-0.125,0.125
1480526569665890,-0.25,-0.1875,0
1480526569695468,-0.25,-0.125,0.0625
1480526569709506,-0.4375,-0.125,0.0625
1480526569733068,-0.3125,-0.0625,0.3125
1480526569748109,0.125,0,0.375
1480526569776684,0.5,0.1875,0.625
1480526569786209,0.3125,0,0.25
1480526569808268,0.875,0.125,0
1480526569831329,0.0625,0.125,-0.1875
1480526569845868,-0.875,-0.25,-0.3125
1480526569867927,-0.25,-0.4375,-0.3125
1480526569890487,0.5,-0.3125,0.125
1480526569906028,0.5,-0.1875,0.1875
1480526569928588,-0.25,-0.1875,0.3125
1480526569950647,-0.5,-0.1875,0.3125
1480526569965187,-0.25,-0.125,0.1875
1480526569988247,0.5625,0.125,0.1875
1480526570010810,-0.3125,0.0625,0.1875
1480526570024845,-0.0625,-0.0625,0.125
1480526570047905,0.625,0,0.25
1480526570077985,-0.0625,-0.0625,0.25
1480526570085005,0.25,-0.0625,0.0625
1480526570108066,0.1875,-0.0625,0
1480526570130626,-0.25,-0.125,0.0625
1480526570146167,-0.125,-0.125,0.125
1480526570168225,0.625,0,0.125
1480526570190786,0.375,0,0.125
1480526570220867,0.125,0,0.0625
1480526570228386,0,0,0.25
1480526570250444,0.125,0,0.25
1480526570264984,0.375,-0.0625,0.25
1480526570288044,0.5625,-0.125,0.25
1480526570311106,0.5,-0.1875,0.125
1480526570331662,0.0625,-0.25,0.125
1480526570361741,0.125,-0.25,0.0625
1480526570370765,0.3125,-0.25,0.0625
1480526570391820,0.4375,-0.125,0.125
1480526570408364,0.3125,-0.125,0.125
1480526570430924,0.3125,-0.125,0.1875
1480526570451980,0.3125,-0.125,0.0625
1480526570468023,0.25,-0.125,0.0625
1480526570490583,0.25,0,0.125
1480526570511639,0.375,-0.0625,0.125
1480526570528183,0.1875,0,-0.0625
1480526570550745,0.375,-0.0625,0
1480526570571801,0.25,-0.125,-0.0625
1480526570595863,-0.125,-0.1875,0.0625
1480526570610904,0.0625,-0.1875,0.25
1480526570632962,0.625,0,0.5
1480526570648627,0.625,0.0625,0.4375
1480526570670563,1,0.0625,0.25
1480526570699137,1.3125,0.1875,-0.125
1480526570708163,-0.25,-0.125,-0.125
1480526570738245,-0.4375,-0.3125,-0.5625
1480526570752280,0.25,-0.5,-0.25
1480526570768323,0.875,-0.5,0.125
1480526570791383,0.875,-0.4375,0.1875
1480526570812942,0.125,-0.4375,0.25
1480526570827980,0,-0.25,0.3125
1480526570850540,0.375,-0.25,0.0625
1480526570873100,1,-0.125,0.0625
1480526570888142,0.1875,-0.25,0
1480526570910701,0.5,-0.5,0.125
1480526570933261,1.0625,-0.4375,0.125
1480526570955822,0.5625,-0.5625,0
1480526570970861,0.875,-0.4375,-0.125
1480526570992920,0.6875,-0.5,-0.1875
1480526571015479,0.375,-0.5,-0.25
1480526571031522,0.75,-0.5,-0.1875
1480526571053080,1.125,-0.3125,-0.3125
1480526571067618,0.6875,-0.25,-0.1875
1480526571090679,0.25,-0.3125,-0.3125
1480526571119757,0.375,-0.3125,-0.125
1480526571128781,0.8125,-0.3125,-0.125
1480526571150839,0.875,-0.3125,-0.125
1480526571172898,0.5625,-0.3125,-0.0625
1480526571187437,0.5,-0.4375,-0.0625
1480526571210498,0.625,-0.375,-0.0625
1480526571233058,0.6875,-0.375,-0.0625
1480526571247598,0.5,-0.375,-0.0625
1480526571270662,0.1875,-0.25,-0.0625
1480526571293219,0.5,-0.1875,-0.125
1480526571314275,0.5625,-0.1875,0.0625
1480526571331821,0.1875,-0.125,-0.125
1480526571352877,0.25,-0.3125,-0.125
1480526571374434,0.1875,-0.375,-0.125
1480526571390477,0.25,-0.375,-0.125
1480526571414040,0.5625,-0.375,0.0625
1480526571434092,0.4375,-0.375,0.125
1480526571450638,1.25,-0.0625,0.375
1480526571473197,0.625,-0.125,0.25
1480526571494253,0.9375,-0.0625,0
1480526571510799,0.9375,0.125,-0.3125
1480526571534360,-0.9375,-0.3125,-0.125
1480526571553917,-0.0625,-0.3125,-0.3125
1480526571577975,0.9375,-0.3125,-0.0625
1480526571601037,0.6875,-0.3125,0.125
1480526571614071,0.375,-0.1875,0.125
1480526571636632,0.0625,-0.1875,0.125
1480526571653176,0,-0.1875,0.0625
1480526571683256,0.375,0.0625,0
1480526571690792,-0.125,0.0625,0.1875
1480526571713344,-0.375,-0.125,0.25
1480526571743416,1.125,0.1875,0.3125
1480526571750434,0.125,0.125,0.3125
1480526571772994,-0.25,0.1875,0.3125
1480526571795554,-0.25,0.25,0.25
1480526571810597,-0.375,0.25,0.3125
1480526571833154,-0.375,0.3125,0.3125
1480526571855716,0,0.5,0.3125
1480526571870253,-0.25,0.6875,0.4375
1480526571893314,-0.8125,0.6875,0.4375
1480526571915875,-0.8125,0.5625,0.5625
1480526571930915,-0.4375,0.6875,0.5
1480526571953474,-0.25,0.5625,0.5
1480526571992077,-0.4375,0.4375,0.5
1480526571996589,-0.4375,0.375,0.625
1480526572019150,-0.3125,0.375,0.5625
1480526572035693,0,0.25,0.5625
1480526572050733,-0.0625,0.25,0.5
1480526572073295,-0.375,0.0625,0.3125
1480526572096354,-0.4375,0.125,0.1875
1480526572109891,-0.4375,0,0.25
1480526572132952,-0.4375,-0.125,0.125
1480526572155513,-0.0625,0,0.1875
1480526572170050,0,0.0625,0.375
1480526572193112,0.3125,0.1875,0.625
1480526572215672,0,0.1875,0.5
1480526572236728,-0.125,0.125,0.4375
1480526572253271,0.625,0.375,0.125
1480526572275832,-0.375,0.125,0.25
1480526572296888,-0.6875,0.125,-0.125
1480526572312931,-0.5,-0.0625,0.0625
1480526572335993,-0.375,-0.0625,0.3125
1480526572364066,-0.375,-0.1875,0.375
1480526572373592,-0.25,-0.0625,0.375
1480526572395651,-0.125,0,0.5
1480526572416706,0.0625,0.0625,0.3125
1480526572433250,-0.5625,0.1875,0.375
1480526572455812,-1.1875,-0.0625,0.3125
1480526572485891,0.3125,0.125,0.5
1480526572492909,0.125,0.125,0.375
1480526572515470,-0.5,-0.0625,0.375
1480526572536525,-0.25,-0.0625,0.25
1480526572553073,-0.0625,-0.125,0.3125
1480526572576131,0,0.0625,0.3125
1480526572596685,0,0,0.3125
1480526572613230,0.25,0.0625,0.3125
1480526572643310,0.125,0.125,0.25
1480526572656846,-0.25,0.0625,0.375
1480526572680911,-1.0625,0.5625,0.0625
1480526572695448,3.4375,0.5625,1.0625
1480526572725528,-0.5625,0.375,0.3125
1480526572733049,-0.5625,0.3125,0.3125
1480526572755610,-0.0625,0.1875,0.75
1480526572778168,0.8125,0.1875,0.125
1480526572792708,0.375,0.0625,0.1875
1480526572815769,-0.125,-0.1875,0.125
1480526572838329,-0.25,-0.1875,0.1875
1480526572852867,-0.1875,-0.1875,0.25
1480526572876431,0.375,-0.125,-0.0625
1480526572897987,0.625,0,0.3125
1480526572912526,0.1875,0,0.1875
1480526572935587,0.1875,0,0
1480526572958648,0.6875,0.0625,-0.3125
1480526572973187,-0.125,-0.0625,-0.1875
1480526573003267,-0.25,-0.0625,-0.625
1480526573018307,-0.5,-0.375,-0.375
1480526573032344,-0.0625,-0.5,-0.25
1480526573055908,0.25,-0.625,-0.125
1480526573077966,0.1875,-0.4375,0
1480526573092505,-0.1875,-0.3125,0
1480526573129101,-0.125,-0.1875,-0.1875
1480526573138128,0.1875,-0.0625,-0.1875
1480526573160686,-1.0625,-0.125,-0.125
1480526573175725,-0.375,-0.125,-0.125
1480526573198787,0.625,-0.0625,-0.0625
1480526573219842,-0.1875,-0.3125,-0.125
1480526573235885,-0.1875,-0.25,-0.25
1480526573265464,-0.25,-0.375,-0.1875
1480526573279000,-0.25,-0.4375,-0.1875
1480526573295545,0.25,-0.1875,-0.3125
1480526573318104,0.375,-0.0625,-0.125
1480526573339161,0,-0.0625,-0.1875
1480526573355706,-0.5,0.0625,-0.125
1480526573378265,-0.125,0.0625,-0.1875
1480526573399320,0.25,0.125,-0.0625
1480526573415865,0.0625,0,-0.0625
1480526573452462,0.0625,-0.25,-0.3125
1480526573458980,0.25,-0.3125,-0.375
1480526573475523,0.375,-0.25,-0.375
1480526573498082,0.0625,-0.3125,-0.3125
1480526573519138,0.125,-0.3125,-0.0625
1480526573535683,0.1875,-0.1875,0
1480526573558243,0.875,0.0625,0.25
1480526573579300,0.8125,0,-0.0625
1480526573595844,0.75,0.0625,-0.4375
1480526573632942,0.125,0.0625,-0.5625
1480526573646478,-0.3125,-0.25,-0.625
1480526573655503,0,-0.375,-0.8125
1480526573678566,0.0625,-0.4375,-0.4375
1480526573700622,0.375,-0.375,-0.375
1480526573715662,0.25,-0.5,-0.0625
1480526573738225,0.1875,-0.3125,-0.1875
1480526573760782,-0.25,-0.375,-0.25
1480526573774819,0.4375,-0.0625,-0.25
1480526573798382,-0.25,-0.125,-0.1875
1480526573835480,-0.1875,-0.3125,-0.125
1480526573837989,1,-0.1875,-0.25
1480526573858041,0.1875,-0.375,-0.25
1480526573880601,0.0625,-0.375,-0.5
1480526573903162,0,-0.4375,-0.3125
1480526573933240,-0.125,-0.4375,-0.4375
1480526573940761,0.25,-0.25,-0.3125
1480526573962819,0.6875,-0.1875,-0.3125
1480526573978360,0.375,-0.25,-0.375
1480526574000420,-0.0625,-0.25,-0.25
1480526574014958,0.125,-0.25,-0.25
1480526574038021,0.5,-0.125,-0.3125
1480526574068099,0.625,-0.1875,-0.375
1480526574075619,0.25,-0.3125,-0.4375
1480526574098179,0.4375,-0.5,-0.5
1480526574120740,0.75,-0.4375,-0.5
1480526574141795,0.5,-0.625,-0.5625
1480526574165859,0.625,-0.625,-0.4375
1480526574180900,0.75,-0.5625,-0.4375
1480526574202958,1,-0.375,-0.1875
1480526574217998,1.0625,-0.4375,-0.25
1480526574240558,1.375,-0.375,-0.4375
1480526574261613,1.125,-0.25,-0.875
1480526574277657,-0.0625,-0.5,-0.75
1480526574300723,-0.0625,-0.625,-0.9375
1480526574321775,0.5625,-0.6875,-0.75
1480526574338318,0.875,-0.5625,-0.4375
1480526574360377,0.625,-0.5625,-0.375
1480526574381934,0.3125,-0.5625,-0.25
1480526574397977,0.1875,-0.4375,-0.375
1480526574420537,0.6875,-0.1875,-0.4375
1480526574441592,0.1875,-0.3125,-0.4375
1480526574458137,-0.125,-0.5,-0.25
1480526574481198,1.1875,-0.3125,-0.375
1480526574502254,0.75,-0.375,-0.375
1480526574518311,0,-0.375,-0.4375
1480526574541358,0.125,-0.4375,-0.5
1480526574563432,0,-0.4375,-0.3125
1480526574583972,0.5,-0.4375,-0.375
1480526574600516,1.0625,-0.25,-0.4375
1480526574623577,0.625,-0.25,-0.5
1480526574638115,-0.1875,-0.25,-0.4375
1480526574660676,0.125,-0.25,-0.3125
1480526574683236,0.3125,-0.25,-0.3125
1480526574697273,0.75,-0.1875,-0.3125
1480526574720837,0.625,-0.25,-0.3125
1480526574742894,0.0625,-0.3125,-0.375
1480526574757938,0.3125,-0.5,-0.5
1480526574780495,0.5625,-0.5,-0.375
1480526574803056,0.75,-0.375,-0.3125
1480526574825617,0.1875,-0.4375,-0.3125
1480526574840654,1.25,-0.375,0
1480526574863738,1.125,-0.375,0
1480526574877251,0.875,-0.4375,-0.375
1480526574900814,1.1875,-0.1875,-0.625
1480526574931396,-0.8125,-0.4375,-0.4375
1480526574944431,-0.125,-0.3125,-0.5625
1480526574960474,1,-0.1875,-0.375
1480526574983034,0.5,-0.25,-0.25
1480526575005594,-0.0625,-0.125,-0.1875
1480526575020636,-0.375,-0.125,0.125
1480526575050713,-0.125,-0.125,-0.1875
1480526575064250,0.625,0.125,-0.125
1480526575080795,-0.5,-0.0625,-0.375
1480526575103356,-0.4375,-0.125,-0.125
1480526575125413,0.5625,-0.1875,0.25
1480526575140953,-0.0625,-0.4375,-0.125
1480526575163011,2.3125,0.0625,0.1875
1480526575184068,-0.375,-0.25,-0.125
1480526575200612,-1.6875,-0.3125,-0.0625
1480526575223172,0,0.0625,0
1480526575244228,0.875,0.0625,-0.3125
1480526575260774,-0.1875,0,-0.1875
1480526575283332,-0.8125,0.0625,-0.25
1480526575311407,-0.5,0,-0.125
1480526575320432,0,-0.0625,0
1480526575342991,0.5,-0.0625,-0.0625
1480526575364046,0.4375,0,-0.125
1480526575388611,-0.0625,-0.0625,-0.25
1480526575403151,-0.25,-0.125,-0.25
1480526575424208,-0.0625,-0.1875,-0.1875
1480526575440750,-0.0625,-0.25,-0.1875
1480526575463310,0.375,-0.1875,0.0625
1480526575484366,0.75,-0.125,0.0625
1480526575500409,0.3125,-0.25,-0.125
1480526575522969,1.25,-0.0625,-0.5625
1480526575545530,-0.375,-0.3125,-0.5
1480526575560571,-0.8125,-0.375,-0.625
1480526575583130,0.0625,-0.375,-0.5
1480526575605689,0.375,-0.375,-0.125
1480526575620731,0.3125,-0.25,-0.25
1480526575643289,-0.1875,-0.3125,0
1480526575671865,-0.3125,-0.1875,-0.0625
1480526575679893,0.3125,-0.125,-0.375
1480526575702948,0.0625,-0.0625,-0.1875
1480526575725512,-1.0625,-0.3125,-0.25
1480526575740046,0.6875,-0.125,-0.0625
1480526575763108,0.4375,-0.125,-0.125
1480526575785668,-0.125,-0.25,-0.1875
1480526575800207,0.125,-0.0625,-0.25
1480526575823268,-0.1875,-0.3125,-0.125
1480526575845829,0,-0.125,-0.1875
1480526575866884,0.25,-0.0625,-0.125
1480526575882927,0.3125,0,-0.25
1480526575888443,-0.0625,0.0625,-0.125
1480526575911001,-0.4375,0.0625,-0.0625
1480526575927545,-0.0625,0.0625,-0.0625
1480526575948604,0.4375,0.0625,-0.125
1480526575982191,0.25,-0.0625,-0.1875
1480526575987706,-0.0625,-0.125,-0.1875
1480526576008260,-0.1875,-0.3125,-0.125
1480526576031327,0.3125,-0.125,-0.0625
1480526576048868,0.5625,-0.125,0
1480526576084964,1,0.125,0.1875
1480526576090980,0.125,-0.1875,0
1480526576113540,1,0,-0.25
1480526576128580,0.375,0.0625,-0.375
1480526576151140,-0.6875,-0.125,-0.4375
1480526576168700,0.25,-0.1875,-0.4375
1480526576188239,0.375,-0.1875,0
1480526576210798,0.4375,0,-0.0625
1480526576233358,-0.0625,-0.1875,0.1875
1480526576251908,-0.0625,-0.0625,0.0625
1480526576270961,0,0,-0.0625
1480526576293519,0.6875,0.25,-0.1875
1480526576310063,-0.5,-0.125,-0.1875
1480526576331119,-0.3125,-0.125,0
1480526576353681,0.875,0.0625,-0.0625
1480526576370223,-0.125,0,0.0625
1480526576392281,-0.0625,-0.0625,-0.125
1480526576413337,0.0625,0,-0.25
1480526576428377,-0.25,-0.0625,-0.1875
1480526576450937,-0.1875,-0.125,-0.1875
1480526576473497,0.1875,0,-0.25
1480526576488537,0,-0.0625,-0.25
1480526576511098,-0.5,0,-0.125
1480526576533657,-0.375,0,-0.1875
1480526576548698,0,-0.125,-0.125
1480526576571259,0.1875,0,-0.125
1480526576593316,0.0625,-0.0625,-0.1875
1480526576611364,-0.1875,-0.125,-0.1875
1480526576632420,-0.5,-0.25,-0.1875
1480526576653476,0,-0.1875,-0.1875
1480526576668520,0.1875,-0.1875,-0.0625
1480526576698596,0.1875,0,0.125
1480526576713642,0.25,-0.125,-0.0625
1480526576728677,1,-0.0625,-0.1875
1480526576751252,0.3125,0.0625,-0.4375
1480526576773296,-0.5,-0.125,-0.6875
1480526576788335,-0.6875,-0.375,-0.5
1480526576810895,0,-0.4375,-0.3125
1480526576833455,0.25,-0.25,-0.125
1480526576850634,-0.1875,-0.375,0.0625
1480526576871057,-0.0625,-0.25,0.125
1480526576893615,0.1875,-0.1875,-0.125
1480526576916418,0.4375,0,-0.125
1480526576931215,-0.75,-0.125,-0.0625
1480526576956283,-0.5,-0.1875,-0.125
1480526576969818,0.75,-0.0625,-0.0625
1480526576993882,-0.3125,-0.1875,-0.0625
1480526577021456,-0.375,-0.1875,-0.25
1480526577029978,-0.25,-0.1875,-0.1875
1480526577054043,-0.4375,-0.3125,-0.1875
1480526577073594,-0.0625,-0.125,-0.1875
1480526577090139,0.1875,0,-0.125
1480526577111193,0.1875,0,-0.3125
1480526577133252,-0.1875,0,-0.1875
1480526577155813,-0.25,-0.125,-0.125
1480526577170852,-0.1875,0.125,-0.0625
1480526577193413,0,-0.0625,-0.125
1480526577209957,0.25,-0.125,-0.125
1480526577231014,0.1875,-0.125,-0.1875
1480526577253573,0.1875,-0.3125,-0.25
1480526577270117,0.125,-0.375,-0.4375
1480526577298693,0.3125,-0.3125,-0.375
1480526577313733,-0.0625,-0.3125,-0.3125
1480526577332282,-0.1875,-0.1875,-0.125
1480526577350831,0.3125,-0.125,0.0625
1480526577373391,0.5,0,0.3125
1480526577389936,0.75,0.125,0.1875
1480526577410991,1.125,0.1875,-0.375
1480526577433551,-0.0625,0.0625,-0.4375
1480526577451599,-0.6875,0,-0.6875
1480526577471152,-0.25,-0.375,-0.625
1480526577493711,0.125,-0.3125,-0.25
1480526577511258,0.5,-0.375,0
1480526577530810,0.1875,-0.375,0.125
1480526577553370,0.25,-0.25,0.125
1480526577571920,0.1875,-0.25,0
1480526577590970,0.4375,0,-0.125
1480526577624059,0,0,-0.1875
1480526577637595,0,-0.1875,-0.0625
1480526577651130,0.5625,-0.125,-0.1875
1480526577676698,-0.125,-0.25,-0.125
1480526577695748,0.1875,-0.25,-0.3125
1480526577719813,0.375,-0.3125,-0.375
1480526577733348,0.0625,-0.375,-0.375
1480526577755909,0.125,-0.3125,-0.25
1480526577770950,0.8125,-0.125,-0.125
1480526577793508,0.75,-0.125,-0.3125
1480526577819579,0.375,-0.125,-0.3125
1480526577831109,0,-0.25,-0.3125
1480526577853671,0.1875,-0.3125,-0.375
1480526577875734,0.8125,-0.5,-0.375
1480526577890767,0.9375,-0.5,-0.4375
1480526577916337,0.5625,-0.75,-0.5
1480526577935888,0.6875,-0.625,-0.4375
1480526577953938,1,-0.6875,-0.4375
1480526577973488,0.9375,-0.5625,-0.4375
1480526577999056,0.75,-0.5625,-0.4375
1480526578020113,0.5,-0.5,-0.375
1480526578033647,0.375,-0.5,-0.375
1480526578058719,0.5625,-0.4375,-0.3125
1480526578072250,0.6875,-0.4375,-0.25
1480526578100826,0.5625,-0.5,-0.3125
1480526578116122,0.5,-0.5,-0.375
1480526578133914,0.4375,-0.3125,-0.3125
1480526578160986,0.5,-0.4375,-0.3125
1480526578176026,0.75,-0.3125,-0.4375
1480526578194074,0.625,-0.375,-0.375
1480526578213627,0.375,-0.3125,-0.3125
1480526578236186,0.3125,-0.4375,-0.3125
1480526578252730,0.375,-0.375,-0.1875
1480526578273284,1.125,-0.3125,-0.0625
1480526578295845,1.5625,-0.25,0.1875
1480526578312390,1,-0.5625,-0.3125
1480526578333445,1.8125,-0.4375,-0.8125
1480526578356005,0.3125,-0.625,-0.75
1480526578374053,-0.1875,-0.9375,-0.875
1480526578393605,1.125,-0.8125,-0.8125
1480526578417670,1.25,-0.9375,-0.3125
1480526578441231,1.25,-0.75,-0.375
1480526578453766,1.0625,-0.6875,-0.125
1480526578475823,0.5625,-0.5625,-0.25
1480526578493873,0.5,-0.5625,-0.4375
1480526578513425,1.3125,-0.3125,-0.4375
1480526578535984,0.125,-0.5,-0.375
1480526578554035,0.1875,-0.5625,-0.25
1480526578581107,1.1875,-0.375,-0.25
1480526578596144,0.0625,-0.1875,-0.25
1480526578614192,0,-0.0625,-0.1875
1480526578641264,-0.125,-0.1875,-0.3125
1480526578657307,0.125,0,-0.1875
1480526578681371,0.3125,0.0625,-0.3125
1480526578693402,0.25,0,-0.125
1480526578726490,-0.0625,0.0625,-0.125
1480526578734011,0.0625,0,-0.1875
1480526578753563,0.125,0.0625,-0.1875
1480526578783643,0.125,0,-0.1875
1480526578793669,0.1875,0,-0.0625
1480526578813739,0.3125,0,-0.125
1480526578835781,0.0625,0,-0.0625
1480526578854331,0.1875,0.0625,0
1480526578873381,0.375,0.125,0.0625
1480526578895941,0.1875,0.1875,0
1480526578913990,0.1875,0.125,0
1480526578933541,0.25,0.0625,-0.0625
1480526578963621,0,0.1875,-0.0625
1480526578974149,-0.375,0.125,-0.125
1480526578994704,-0.4375,0.0625,-0.125
1480526579023280,0,0.125,0.0625
1480526579033807,0.125,0.0625,0.125
1480526579070908,0.5625,0.25,0.375
1480526579077424,0.3125,0.25,0.375
1480526579099985,-0.125,0.0625,0
1480526579115024,0.8125,0.375,-0.3125
1480526579136080,-0.8125,0.1875,-0.25
1480526579166661,-0.8125,0,-0.375
1480526579175187,0.125,0,-0.25
1480526579204762,0.125,-0.125,0.125
1480526579218299,-0.1875,-0.0625,0.125
1480526579240859,-0.25,0.0625,0.1875
1480526579255899,-0.3125,0.125,0.3125
1480526579278458,-0.375,0.125,0.0625
1480526579295003,-0.3125,0.375,0.1875
1480526579316058,-1.4375,0.25,0.125
1480526579349146,-0.3125,0.25,0.1875
1480526579356667,0.0625,0.375,0.1875
1480526579376218,-0.375,0.25,0.1875
1480526579398277,-0.375,0.3125,0.0625
1480526579416326,-0.25,0.25,-0.0625
1480526579435877,-0.625,0.1875,-0.0625
1480526579458438,-0.3125,0.3125,0.0625
1480526579476486,-0.0625,0.375,-0.0625
1480526579496038,-0.625,0.4375,-0.0625
1480526579520104,-0.8125,0.3125,0
1480526579536647,-0.625,0.3125,0.0625
1480526579556198,-0.1875,0.375,-0.0625
1480526579581264,-0.3125,0.125,0.0625
1480526579596304,-0.125,0.0625,0
1480526579615856,0,0.125,-0.0625
1480526579641424,0.0625,0,-0.0625
1480526579660976,0.1875,0,-0.0625
1480526579676016,0.1875,0,-0.25
1480526579698576,0,-0.0625,-0.1875
1480526579716625,-0.3125,-0.125,-0.25
1480526579736177,-0.25,0,-0.125
1480526579758738,-0.125,-0.0625,0.0625
1480526579776283,0.3125,0.0625,0.3125
1480526579803858,0.375,0.125,0.25
1480526579825915,0.4375,0.1875,0.0625
1480526579836443,0.375,0.3125,-0.5
1480526579859011,-0.75,0.0625,-0.375
1480526579878555,-0.5,-0.0625,-0.625
1480526579897108,-0.0625,-0.25,-0.375
1480526579917659,-0.0625,-0.25,-0.125
1480526579939718,0.125,-0.3125,0.0625
1480526579969296,0.125,-0.0625,0.1875
1480526579977318,0,-0.0625,0.125
1480526580001382,-0.3125,0,-0.125
1480526580016421,-0.0625,0.0625,0
1480526580037480,-1.3125,0,0
1480526580066054,-0.375,-0.125,0.0625
1480526580082597,0.75,0,0
1480526580097637,-0.25,-0.125,0
1480526580118694,-0.1875,0,-0.125
1480526580137244,-0.25,-0.125,0
1480526580157297,-0.25,-0.0625,-0.0625
1480526580182016,0.25,0.0625,0.0625
1480526580196401,0.1875,0.125,0
1480526580218961,-0.3125,0.125,0.0625
1480526580238512,-0.5,0.1875,0
1480526580256560,-0.25,0.125,0
1480526580279121,0,0.1875,0
1480526580298672,0.3125,0.125,-0.0625
1480526580316219,0.1875,-0.0625,-0.125
1480526580353821,0.125,-0.125,-0.1875
1480526580358332,0,-0.125,-0.125
1480526580382395,0.0625,-0.0625,-0.0625
1480526580398939,0.0625,0,0
1480526580418491,0.5625,0.125,0.3125
1480526580436541,0.5625,0.1875,0.1875
1480526580459099,0.4375,0.0625,0
1480526580495696,0.625,0.125,-0.4375
1480526580497702,-0.125,-0.0625,-0.4375
1480526580526279,-0.25,-0.3125,-0.625
1480526580538310,-0.0625,-0.375,-0.4375
1480526580568390,0.375,-0.25,-0.0625
1480526580578918,0.375,-0.25,0
1480526580598470,0.1875,-0.1875,0.125
1480526580616518,0.3125,-0.125,0.0625
1480526580639078,0.0625,0.0625,-0.0625
1480526580660134,0.125,0.1875,0.0625
1480526580676177,-0.625,-0.0625,-0.0625
1480526580698736,0.5625,-0.0625,0
1480526580718288,0.5,-0.0625,-0.1875
1480526580740848,-0.25,-0.125,-0.125
1480526580758897,-0.125,-0.0625,-0.1875
1480526580778448,-0.0625,-0.125,-0.1875
1480526580801008,-0.125,-0.125,-0.0625
1480526580819058,0.375,0,-0.125
1480526580838609,0.3125,0.1875,-0.0625
1480526580861169,-0.0625,0.0625,-0.0625
1480526580878715,-0.375,0.0625,-0.125
1480526580900774,-0.125,0.0625,-0.0625
1480526580920829,0.25,0.0625,0
1480526580938875,0.3125,-0.125,0
1480526580959932,0,-0.125,-0.1875
1480526580980989,0.0625,-0.25,-0.1875
1480526581011568,0.0625,-0.1875,-0.1875
1480526581020092,0.0625,-0.1875,-0.25
1480526581041147,0,-0.1875,0
1480526581058694,0.0625,-0.125,0.125
1480526581079750,0.375,0.125,0.375
1480526581100807,0.4375,0.125,0.1875
1480526581118855,0.875,0.0625,-0.125
1480526581140411,0.625,0.0625,-0.5
1480526581160966,-0.5625,0,-0.4375
1480526581179015,-0.5,-0.1875,-0.625
1480526581201574,-0.125,-0.4375,-0.4375
1480526581221126,0.5,-0.25,-0.0625
1480526581244689,0.4375,-0.1875,0.0625
1480526581261233,-0.1875,-0.1875,0.25
1480526581280786,-0.3125,-0.1875,0.125
1480526581298832,0.375,0.125,0.0625
1480526581321393,0.0625,0.1875,-0.0625
1480526581340945,-0.8125,-0.125,-0.0625
1480526581358994,0.375,-0.125,-0.0625
1480526581396091,0.3125,-0.25,-0.0625
1480526581401105,0.125,-0.25,-0.125
1480526581418651,0.125,-0.1875,-0.125
1480526581441211,-0.1875,-0.25,-0.0625
1480526581460763,-0.125,-0.0625,-0.1875
1480526581478812,0.4375,0,-0.125
1480526581501874,0.375,0.0625,-0.125
1480526581522427,0.125,0.125,-0.125
1480526581538971,0,0,-0.1875
1480526581569051,0.25,0,-0.125
1480526581581085,0.375,-0.125,-0.1875
1480526581599132,0.4375,-0.1875,-0.25
1480526581628711,0.4375,-0.3125,-0.25
1480526581641244,0.4375,-0.3125,-0.25
1480526581666310,0.375,-0.375,-0.375
1480526581681350,0.5,-0.4375,-0.4375
1480526581700903,0.4375,-0.4375,-0.375
1480526581718950,0.375,-0.3125,-0.375
1480526581741510,0.5,-0.3125,-0.1875
1480526581761062,0.625,-0.375,-0.125
1480526581778613,1.375,-0.25,-0.0625
1480526581808690,1,-0.4375,-0.25
1480526581822727,1.375,-0.3125,-0.6875
1480526581844785,0.375,-0.3125,-0.75
1480526581867346,-0.1875,-0.625,-0.9375
1480526581882384,0.375,-0.625,-0.875
1480526581903443,0.9375,-0.6875,-0.4375
1480526581921489,1.0625,-0.5625,-0.25
1480526581942545,0.625,-0.5625,-0.0625
1480526581959089,0.75,-0.4375,-0.0625
1480526581981148,0.5,-0.375,-0.3125
1480526582008722,0.5,-0.1875,-0.375
1480526582018748,-0.4375,-0.375,-0.375
1480526582041308,0.625,-0.3125,-0.1875
1480526582062364,1.0625,-0.375,-0.25
1480526582078909,0.375,-0.3125,-0.125
1480526582102473,0.25,-0.375,-0.3125
1480526582122525,0.0625,-0.375,-0.25
1480526582139569,0.375,-0.375,-0.25
1480526582161627,0.8125,-0.1875,-0.25
1480526582183686,0.625,-0.0625,-0.3125
1480526582203740,0,-0.125,-0.375
1480526582228806,0.0625,-0.125,-0.25
1480526582244348,0.375,-0.125,-0.1875
1480526582263398,0.5625,-0.1875,-0.1875
1480526582287463,0.375,-0.1875,-0.25
1480526582304009,0.5625,-0.3125,-0.1875
1480526582331079,0.75,-0.375,-0.3125
1480526582341612,0.75,-0.375,-0.3125
1480526582363665,0.75,-0.4375,-0.375
1480526582383718,0.4375,-0.5,-0.4375
1480526582401265,0.4375,-0.5625,-0.375
1480526582423825,0.75,-0.4375,-0.25
1480526582443377,1.375,-0.375,-0.3125
1480526582465937,1.5,-0.3125,-0.0625
1480526582483985,0.4375,-0.5,-0.3125
1480526582505543,1.4375,-0.25,-0.5625
1480526582521585,0.1875,-0.1875,-0.4375
1480526582543644,-0.4375,-0.4375,-0.5
1480526582570716,0.75,-0.25,-0.5
1480526582581244,0.6875,-0.1875,-0.125
1480526582603302,-0.375,0.1875,0.1875
1480526582624358,-0.375,0.0625,0.3125
1480526582647921,-0.5625,0.125,0.25
1480526582670482,-0.4375,0.25,0.125
1480526582684017,-0.625,0.375,0.3125
1480526582700561,-1.1875,0.125,0.1875
1480526582723122,0,0.1875,0.3125
1480526582744178,-0.375,0.1875,0.25
1480526582761222,-0.5,0.1875,0.3125
1480526582782780,-0.375,0.25,0.1875
1480526582811857,-0.75,0.25,0.25
1480526582820381,-0.625,0.3125,0.25
1480526582842940,-0.1875,0.3125,0.25
1480526582863996,-0.4375,0.375,0.1875
1480526582880541,-1,0.3125,0.3125
1480526582903102,-0.5625,0.375,0.1875
1480526582924156,-0.25,0.3125,0.1875
1480526582948221,-0.3125,0.25,0.125
1480526582963260,-0.25,0.1875,0.125
1480526582984316,-0.3125,0.0625,0.0625
1480526583000359,-0.375,0.0625,0.0625
1480526583022919,-0.1875,0.125,0.1875
1480526583043975,-0.125,0.0625,0.1875
1480526583060519,0.125,0.125,0.4375
1480526583083581,0.375,0.375,0.4375
1480526583105638,-0.25,0.1875,0.1875
1480526583120679,0.3125,0.375,-0.0625
1480526583143239,-0.8125,0.3125,-0.125
1480526583165799,-1.1875,0.125,0
1480526583180839,-0.375,0.1875,-0.0625
1480526583203401,-0.5625,0.1875,0.3125
1480526583225457,-0.4375,0.375,0.375
1480526583239996,-0.625,0.3125,0.5
1480526583263057,-1,0.375,0.375
1480526583293144,-0.9375,0.375,0.25
1480526583299655,-0.875,0.5625,0.25
1480526583323218,-1.5625,0.1875,0.25
1480526583345779,-0.25,0.25,0.3125
1480526583360316,-0.3125,0.1875,0.25
1480526583382876,-0.625,0.25,0.25
1480526583405938,-0.375,0.3125,0.0625
1480526583419976,-0.6875,0.1875,0.1875
1480526583443036,-0.875,0.3125,0.1875
1480526583473117,-0.3125,0.375,0.1875
1480526583480136,-0.25,0.5,0.125
1480526583503197,-0.9375,0.4375,0.1875
1480526583525757,-1,0.5,0.25
1480526583539793,-0.6875,0.5,0.1875
1480526583562854,-0.3125,0.5625,0.1875
1480526583585415,-0.25,0.375,0.25
1480526583606471,-0.6875,0.4375,0.25
1480526583623016,-0.9375,0.25,0.25
1480526583645575,-0.625,0.375,0.375
1480526583674151,-0.6875,0.4375,0.5
1480526583682674,-0.5,0.5,0.625
1480526583711751,-0.5,0.4375,0.375
1480526583726791,0.0625,0.4375,0.125
1480526583743335,-0.75,0.375,0.0625
1480526583765394,-1.5,0.0625,-0.125
1480526583786452,-1.125,0,-0.125
1480526583803001,-0.6875,0,0.25
1480526583825554,-0.5,0.0625,0.25
1480526583846610,-0.875,0.1875,0.5625
1480526583863154,-0.9375,0.25,0.375
1480526583885714,-0.8125,0.25,0.3125
1480526583908273,-0.4375,0.625,0.25
1480526583922813,-1.625,0.3125,0.25
1480526583945373,-0.875,0.3125,0.3125
1480526583966429,-0.0625,0.3125,0.125
1480526583982973,-0.875,0.25,0.125
1480526584005534,-0.875,0.3125,0.125
1480526584026588,-0.875,0.1875,0.1875
1480526584050653,-0.875,0.1875,0.25
1480526584066194,-0.25,0.3125,0.1875
1480526584088253,-0.1875,0.4375,0.25
1480526584102793,-0.9375,0.375,0.1875
1480526584125351,-1.1875,0.4375,0.25
1480526584147911,-0.625,0.375,0.25
1480526584162951,-0.25,0.4375,0.1875
1480526584185512,-0.3125,0.25,0.0625
1480526584208072,-0.625,0.125,0.125
1480526584229127,-0.625,0.125,0.125
1480526584245672,-0.5625,0.1875,0.1875
1480526584275752,-0.5,0.1875,0.25
1480526584282268,-0.4375,0.375,0.625
1480526584305330,-0.375,0.375,0.5
1480526584333906,0.1875,0.375,0.25
1480526584342429,0.1875,0.5,-0.125
1480526584365490,-1,0.25,-0.125
1480526584388050,-1.1875,0,-0.25
1480526584402590,-0.9375,-0.1875,0
1480526584425650,-0.25,-0.0625,0.125
1480526584448351,-0.375,0.0625,0.4375
1480526584471773,-0.375,0.0625,0.5
1480526584485812,-0.625,0.125,0.375
1480526584508872,-0.3125,0.3125,0.1875
1480526584522408,-0.875,0.4375,0.25
1480526584560509,-1.3125,0.125,0.3125
1480526584582178,0.125,0.1875,0.1875
1480526584589086,-0.375,0.1875,0.125
1480526584606131,-0.875,0.0625,0.0625
1480526584628192,-0.5,0.0625,0
1480526584649245,-0.75,0,0.1875
1480526584665789,-0.5,0.125,0.1875
1480526584687847,-0.0625,0.3125,0.1875
1480526584710408,-0.1875,0.3125,0.0625
1480526584731463,-0.6875,0.3125,0.0625
1480526584748008,-0.875,0.3125,0.1875
1480526584769064,-0.25,0.375,0.1875
1480526584800648,-0.3125,0.3125,0.1875
1480526584808168,-0.375,0.125,0.125
1480526584830226,-0.375,0.0625,0.1875
1480526584845768,-0.3125,0,0.125
1480526584868328,-0.1875,0.0625,0.0625
1480526584897906,-0.1875,0.0625,0.0625
1480526584905426,-0.3125,0.0625,0
1480526584935507,-0.25,0.125,0
1480526584956562,-0.25,0.0625,-0.0625
1480526584965586,-0.375,0,0.0625
1480526584988146,-0.4375,0,0.125
1480526585010706,-0.1875,0,0.375
1480526585025746,0.125,0.125,0.4375
1480526585048307,0.5,0,0.125
1480526585070365,1.125,0.1875,-0.5
1480526585085407,-0.3125,0,-0.4375
1480526585107966,-0.875,-0.375,-0.6875
1480526585132028,-0.3125,-0.5,-0.625
1480526585145064,0.125,-0.5625,-0.125
1480526585168627,0.8125,-0.5625,0.0625
1480526585190183,0.6875,-0.5,0.1875
1480526585213245,0.125,-0.4375,0.1875
1480526585227784,-0.125,-0.3125,-0.0625
1480526585250344,0.375,-0.125,0
1480526585272904,-0.4375,-0.25,-0.0625
1480526585287943,-0.3125,-0.25,0.0625
1480526585310504,0.625,-0.125,-0.125
1480526585332061,-0.375,-0.375,-0.0625
1480526585348104,-0.125,-0.3125,-0.0625
1480526585370664,-0.125,-0.1875,-0.125
1480526585384702,-0.4375,-0.3125,0
1480526585408766,0.1875,-0.125,0
1480526585431325,0.5,0.125,0.0625
1480526585445363,-0.3125,0.125,-0.0625
1480526585467922,-0.75,0.125,-0.0625
1480526585490483,-0.3125,0.0625,0
1480526585513043,-0.0625,0.125,0.125
1480526585528083,-0.125,0,0
1480526585550642,-0.125,-0.1875,0
1480526585571699,0,-0.1875,-0.125
1480526585588243,0.375,-0.25,0.0625
1480526585611304,0.375,-0.3125,-0.125
1480526585631357,0.1875,-0.375,-0.125
1480526585648639,0.0625,-0.1875,-0.0625
1480526585670461,0.3125,-0.1875,0
1480526585691531,0.1875,-0.125,-0.1875
1480526585708061,0.125,-0.375,-0.3125
1480526585731624,0.3125,-0.3125,-0.3125
1480526585753181,0.25,-0.3125,-0.1875
1480526585768221,0,-0.375,-0.4375
1480526585790280,0.3125,-0.5,-0.4375
1480526585811837,0.4375,-0.5,-0.375
1480526585827880,0.125,-0.4375,-0.25
1480526585851443,-0.1875,-0.125,-0.125
1480526585871495,-0.3125,-0.125,0
1480526585895560,0.8125,0.125,0.3125
1480526585910604,0.5625,0.1875,0.3125
1480526585931656,0,0,-0.125
1480526585948205,0.8125,0.25,-0.3125
1480526585970761,-1,0,-0.125
1480526586000841,-0.625,-0.1875,-0.1875
1480526586009363,0.5625,0.125,-0.0625
1480526586031422,0,0,0.3125
1480526586052980,-0.25,0.1875,0.1875
1480526586068019,-0.125,0.25,0.375
1480526586090579,-0.6875,0.375,0.3125
1480526586113155,-0.75,0.5,0.0625
1480526586127176,-0.5625,0.5625,0.125
1480526586150738,-1.5625,0.3125,0.0625
1480526586172797,-0.25,0.3125,0.1875
1480526586188840,-0.1875,0.4375,0.1875
1480526586210398,-0.8125,0.1875,0.1875
1480526586232957,-0.375,0.1875,0.0625
1480526586255518,-0.5,0.125,0.125
1480526586278077,-0.5625,0.125,0.125
1480526586293117,0.125,0.25,0.0625
1480526586307155,-0.1875,0.375,0.125
1480526586331721,-0.6875,0.375,0.1875
1480526586352777,-0.625,0.4375,0.25
1480526586367315,-0.6875,0.5,0.1875
1480526586390376,-0.75,0.5,0.125
1480526586420457,-0.5,0.375,0.25
1480526586427475,-0.5,0.3125,0.1875
1480526586450538,-0.5,0.4375,0.1875
1480526586473096,-0.4375,0.375,0.0625
1480526586494152,-0.125,0.3125,0.0625
1480526586518218,-0.1875,0.3125,0.125
1480526586533257,-0.6875,0.4375,0
1480526586555816,-0.875,0.1875,0.125
1480526586570355,-0.25,0.3125,0.1875
1480526586592915,0.25,0.3125,0.3125
1480526586621493,0.5,0.4375,0.5
1480526586632520,-0.6875,0.1875,0.125
1480526586659091,0.4375,0.3125,-0.0625
1480526586674130,-0.1875,0.375,-0.3125
1480526586691176,-1.5625,-0.0625,-0.1875
1480526586713251,-0.125,0.125,-0.1875
1480526586735796,0.0625,0.125,0.125
1480526586750333,-0.25,0.25,0.3125
1480526586772903,-0.3125,0.375,0.375
1480526586795454,-0.8125,0.375,0.4375
1480526586810495,-0.75,0.25,0.1875
1480526586833053,0,0.5625,0.1875
1480526586854616,-1.25,0.375,0.125
1480526586870653,-0.9375,0.1875,0.125
1480526586893716,0.1875,0.25,0.25
1480526586916051,-0.1875,0.1875,0.125
1480526586937833,-0.125,0.25,0.125
1480526586952872,-0.625,0.125,0.1875
1480526586975433,-0.9375,0.125,0.125
1480526586989971,-0.125,0.375,0.125
1480526587013033,0.1875,0.5,0.1875
1480526587035593,-0.625,0.4375,0.125
1480526587050131,-1.0625,0.4375,0.1875
1480526587073193,-0.4375,0.3125,0.1875
1480526587095752,0,0.375,0.25
1480526587110291,-0.1875,0.375,0.125
1480526587133854,-0.6875,0.3125,0.0625
1480526587155411,-0.625,0.125,0.125
1480526587177971,-0.25,0.1875,0.125
1480526587193012,-0.1875,0.1875,0.25
1480526587215572,-0.4375,0.1875,0.1875
1480526587229608,0.3125,0.375,0.5625
1480526587253171,-0.0625,0.25,0.3125
1480526587283251,0.5,0.375,0.0625
1480526587296787,-0.25,0.375,-0.25
1480526587313332,-1.625,0.0625,0
1480526587335392,-0.125,0.1875,-0.25
1480526587349928,0.125,0.25,0.125
1480526587372990,-0.1875,0.25,0.1875
1480526587403070,-0.5,0.3125,0.25
1480526587416606,-0.6875,0.375,0.4375
1480526587433150,-0.75,0.4375,0.25
1480526587455710,-0.3125,0.5625,0.1875
1480526587476766,-0.9375,0.4375,0.0625
1480526587492809,-1.25,0.125,0.1875
1480526587521384,0.375,0.375,0.3125
1480526587536425,-0.375,0.375,0.3125
1480526587566504,-0.75,0.3125,0.1875
1480526587575530,-0.5,0.3125,0.25
1480526587598590,-0.625,0.3125,0.1875
1480526587613130,-0.4375,0.4375,0.3125
1480526587635689,0,0.4375,0.0625
1480526587664265,-0.375,0.4375,0.1875
1480526587673289,-0.75,0.5,0.375
1480526587695353,-0.75,0.375,0.25
1480526587716904,-0.3125,0.4375,0.1875
1480526587733450,-0.3125,0.375,0.1875
1480526587755509,-0.5,0.3125,0.25
1480526587776563,-0.375,0.4375,0.375
1480526587793108,-0.625,0.3125,0.125
1480526587815668,0.375,0.4375,0.625
1480526587838227,0,0.375,0.5
1480526587852767,0.6875,0.5,0.1875
1480526587875327,-0.125,0.5625,-0.125
1480526587897886,-1,0.3125,0.1875
1480526587912926,0.4375,0.125,-0.1875
1480526587943006,-0.25,0.25,0.25
1480526587958047,-0.75,0.25,0.5
1480526587973086,-0.9375,0.3125,0.375
1480526587995647,-0.5,0.5,0.5
1480526588018208,-1.1875,0.5,0.3125
1480526588032243,-1,0.5,0.25
1480526588055305,-1.25,0.5625,0.3125
1480526588077865,-1.25,0.3125,0.375
1480526588092403,0.5,0.5625,0.4375
1480526588115465,-0.625,0.5,0.4375
1480526588138025,-1.1875,0.5,0.375
1480526588152565,-0.8125,0.625,0.375
1480526588183145,-0.8125,0.625,0.4375
1480526588198185,-0.875,0.75,0.3125
1480526588220746,-0.6875,0.875,0.375
1480526588235797,-0.875,0.8125,0.4375
1480526588257845,-1.25,0.75,0.5625
1480526588272382,-0.9375,0.875,0.5625
1480526588295444,-0.6875,0.75,0.5625
1480526588325524,-0.6875,0.6875,0.5
1480526588332543,-0.9375,0.5625,0.5
1480526588355604,-1.1875,0.5625,0.5625
1480526588378163,-0.875,0.4375,0.5625
1480526588406743,-0.125,0.5625,0.75
1480526588415763,-0.3125,0.5,0.6875
1480526588445342,-0.4375,0.375,0.4375
1480526588458878,-0.0625,0.5,-0.125
1480526588475422,-1.5,0.0625,0.0625
1480526588498483,-0.875,0.25,-0.0625
1480526588519040,-0.4375,0.1875,0.0625
1480526588535084,-0.75,0.0625,0.3125
1480526588565662,-0.625,0.25,0.4375
1480526588579199,-0.8125,0.3125,0.4375
1480526588595743,-0.875,0.375,0.4375
1480526588617801,-0.75,0.4375,0.0625
1480526588638857,-0.6875,0.5625,0.1875
1480526588655401,-1.4375,0.3125,0.25
1480526588677961,0,0.4375,0.3125
1480526588699016,-0.3125,0.375,0.25
1480526588715562,-1,0.3125,0.1875
1480526588738623,-0.5,0.4375,0.3125
1480526588759177,-1,0.375,0.25
1480526588783241,-0.9375,0.3125,0.125
1480526588805300,-0.125,0.5625,0.1875
1480526588820339,-0.1875,0.625,0.1875
1480526588835881,-1.1875,0.5625,0.3125
1480526588857940,-1.1875,0.4375,0.3125
1480526588886516,-0.125,0.5,0.375
1480526588895540,0.1875,0.5,0.1875
1480526588918100,-0.5,0.375,0.125
1480526588940659,-1.0625,0.375,0
1480526588954697,-1.125,0.3125,0
1480526588977758,-0.25,0.375,0.3125
1480526589000820,-0.0625,0.4375,0.1875
1480526589014858,-0.125,0.5625,0.75
1480526589037918,-0.4375,0.4375,0.4375
1480526589068000,0.25,0.375,0.125
1480526589075023,0.6875,0.6875,-0.25
1480526589098078,-1.4375,0.25,-0.3125
1480526589121140,-1.25,0.25,-0.375
1480526589134676,0,-0.375,-0.125
1480526589158740,0.625,-0.125,0.0625
1480526589180799,0.375,-0.0625,0.25
1480526589194836,-0.4375,0.0625,0.1875
1480526589217899,-0.5625,-0.0625,0.25
1480526589240457,0.3125,0.1875,-0.1875
1480526589254996,0.125,0.25,0.0625
1480526589278057,-1.25,-0.0625,0
1480526589300617,0.25,-0.125,0.125
1480526589322174,0.4375,0.125,0.125
1480526589338217,-0.5,0,0.1875
1480526589360276,-0.375,0.0625,-0.1875
1480526589381334,-0.75,-0.0625,0.125
1480526589397876,-0.125,0.125,0
1480526589420437,0.5,0.125,0
1480526589441492,0.0625,0.1875,-0.0625
1480526589458538,-0.75,0.0625,0
1480526589480597,-0.4375,0.1875,0.125
1480526589503155,0,0.1875,0.1875
1480526589518199,0.25,0.1875,0
1480526589540756,0.0625,0.0625,0
1480526589561813,-0.25,0.0625,0.0625
1480526589577855,-0.375,-0.0625,0
1480526589607935,0,-0.125,-0.125
1480526589622975,0.3125,-0.125,-0.0625
1480526589638515,0.125,0,0
1480526589660575,-0.25,-0.0625,-0.0625
1480526589682132,-0.3125,-0.125,0
1480526589698175,0,0,-0.125
1480526589720735,0.4375,0.1875,0.1875
1480526589749310,-0.1875,0.1875,-0.0625
1480526589757833,-0.375,0,0.125
1480526589788415,0.125,0,-0.1875
1480526589802954,0.0625,0.125,0.0625
1480526589817995,0.125,0.125,-0.125
1480526589840553,-0.25,-0.0625,-0.25
1480526589863114,-0.3125,-0.0625,-0.1875
1480526589878153,-0.125,-0.0625,-0.3125
1480526589900714,0,0.0625,0
1480526589922772,-0.125,0.0625,0.1875
1480526589937312,-0.0625,0.1875,0.3125
1480526589960373,0.25,0.0625,0.375
1480526589990452,1.875,0.3125,-0.0625
1480526589997471,0.3125,0.3125,-0.4375
1480526590020532,-1,-0.1875,-0.5625
1480526590043092,0.0625,-0.1875,-0.6875
1480526590057633,0.1875,-0.1875,-0.125
1480526590081513,0.0625,-0.25,-0.125
1480526590103254,-0.1875,-0.125,0.25
1480526590117290,0.25,-0.0625,0.25
1480526590140351,-0.1875,0.1875,0.1875
1480526590163412,-0.125,0.125,0.0625
1480526590177450,0.0625,0.25,0
1480526590208031,-0.875,0.125,0
1480526590236106,-0.125,0,0.1875
1480526590247136,0.5,0,0.0625
1480526590260671,-0.375,-0.0625,0
1480526590283232,-0.1875,0.125,-0.1875
1480526590304286,-0.5625,-0.0625,-0.0625
1480526590320330,-0.5625,0.0625,0.1875
1480526590342890,0.0625,0.3125,-0.0625
1480526590365450,-0.4375,0.25,-0.125
1480526590380490,-0.3125,0.25,0.125
1480526590403050,-0.375,0.375,-0.0625
1480526590424106,-0.9375,0.125,0.125
1480526590448672,-0.4375,0.0625,-0.125
1480526590463210,0.1875,-0.0625,0
1480526590484266,-0.0625,0.0625,0
1480526590506325,-0.25,-0.1875,-0.0625
1480526590522868,-0.25,-0.25,-0.125
1480526590543925,0.25,-0.0625,-0.0625
1480526590560469,0.1875,0,0
1480526590583028,-0.3125,-0.125,-0.0625
1480526590604084,-0.25,-0.1875,-0.0625
1480526590628149,-0.125,-0.0625,-0.0625
1480526590650709,0,-0.125,-0.0625
1480526590664244,0.0625,-0.0625,0.0625
1480526590680789,-0.125,-0.125,-0.1875
1480526590703850,-0.5625,-0.25,-0.3125
1480526590725407,0.5,-0.1875,0.0625
1480526590740447,0.125,0,-0.25
1480526590763007,-0.9375,-0.125,0
1480526590785568,-0.125,-0.1875,0.0625
1480526590800608,0.625,0,0.375
1480526590831189,0.5625,0.25,0.4375
1480526590853248,-0.1875,0,0.125
1480526590866784,1,0,-0.1875
1480526590882826,0.4375,0.0625,-0.5
1480526590905386,-0.75,-0.125,-0.375
1480526590919924,-0.375,-0.5,-0.625
1480526590942987,0.125,-0.4375,0
1480526590965547,0.4375,-0.0625,0.125
1480526590980095,-0.125,-0.3125,0.125
1480526591010667,0,-0.125,0.5
1480526591025707,0.1875,0.0625,0.125
1480526591039744,-0.375,-0.0625,-0.1875
1480526591063306,0.1875,0.0625,0.25
1480526591085367,-0.6875,-0.0625,-0.25
1480526591099904,-0.1875,-0.25,0.1875
1480526591123466,0.8125,-0.1875,-0.125
1480526591145526,0.125,-0.25,0.0625
1480526591168586,0.1875,-0.0625,-0.1875
1480526591183125,-0.6875,-0.3125,-0.0625
1480526591205684,-0.1875,-0.0625,0
1480526591227241,0.875,0.125,0
1480526591242784,0.0625,0.125,-0.0625
1480526591265344,-0.5,-0.125,0
1480526591286400,0.0625,0.125,0.0625
1480526591302943,-0.0625,-0.0625,0
1480526591325503,0.125,-0.1875,-0.1875
1480526591346560,0.75,-0.3125,0.125
1480526591363103,0.125,-0.3125,-0.375
1480526591385664,-0.625,-0.5625,0
1480526591406720,1.1875,-0.3125,0
1480526591422762,0.375,-0.25,-0.125
1480526591445324,-0.3125,-0.3125,0
1480526591466378,0,-0.3125,-0.125
1480526591482922,0.5,-0.1875,0.0625
1480526591505482,0.3125,-0.0625,-0.1875
1480526591526539,-0.125,-0.375,-0.1875
1480526591550602,0.375,-0.375,-0.25
1480526591565642,0.5625,-0.125,-0.25
1480526591586698,-0.0625,-0.3125,-0.3125
1480526591602741,0.375,-0.5625,-0.4375
1480526591625301,0.3125,-0.375,-0.25
1480526591663404,0.125,-0.375,-0.125
1480526591665909,0.0625,-0.375,0.125
1480526591685461,1.5,-0.0625,0.5
1480526591708021,0.625,-0.3125,-0.3125
1480526591729076,1.3125,-0.375,-0.0625
1480526591746123,1.25,-0.375,-0.8125
1480526591768183,-0.5625,-0.8125,-0.625
1480526591783222,0.6875,-1,-0.9375
1480526591805781,0.9375,-1.125,-0.4375
1480526591835359,1.25,-0.6875,-0.0625
1480526591842378,0.75,-0.6875,0.1875
1480526591872960,0.1875,-0.5625,0.3125
1480526591894015,0.6875,-0.375,0.25
1480526591902539,0.6875,0.0625,-0.0625
1480526591925599,-0.625,-0.1875,0
1480526591948663,-1.125,-0.375,-0.1875
1480526591978240,1.1875,-0.125,0.125
1480526591985761,0.9375,-0.1875,-0.1875
1480526592015453,-0.3125,-0.5,0.0625
1480526592022358,0.625,-0.4375,0
1480526592045419,0.25,-0.25,-0.125
1480526592075498,0.5,-0.1875,0.125
1480526592084022,0.875,0,-0.125
1480526592105578,-0.3125,-0.125,-0.0625
1480526592127637,-0.25,-0.1875,-0.0625
1480526592149195,0.25,-0.0625,0.1875
1480526592173260,0.3125,-0.0625,0.125
1480526592187797,-0.0625,-0.3125,-0.0625
1480526592208853,0.0625,-0.375,0
1480526592225398,0.875,-0.375,-0.0625
1480526592248165,0.3125,-0.375,-0.125
1480526592269515,-0.0625,-0.5,-0.0625
1480526592285558,0.3125,-0.3125,-0.125
1480526592308117,0.75,-0.125,0.0625
1480526592329173,-0.125,-0.125,-0.1875
1480526592353238,-0.125,-0.25,-0.125
1480526592367776,0.4375,-0.125,-0.25
1480526592388851,0.3125,-0.25,-0.25
1480526592405376,-0.1875,-0.3125,-0.3125
1480526592427936,0.125,-0.375,-0.3125
1480526592448992,0.125,-0.4375,-0.1875
1480526592465536,1.0625,-0.25,0
1480526592488096,1.5,-0.0625,0.25
1480526592509152,0,-0.375,-0.125
1480526592525696,0.625,-0.0625,-0.4375
1480526592554775,-0.0625,-0.125,-0.5
1480526592568811,-0.5625,-0.375,-0.3125
1480526592585355,0.5,-0.25,-0.4375
1480526592607916,0.125,-0.4375,-0.25
1480526592630474,0.3125,-0.3125,0.125
1480526592645515,0.5625,-0.0625,0.1875
1480526592668074,-0.125,-0.25,0.1875
1480526592690635,-0.125,-0.1875,0.0625
1480526592705675,0.5625,0.125,0.0625
1480526592728235,-0.9375,-0.125,0
1480526592750295,-0.5,-0.1875,0.0625
1480526592771349,0.6875,-0.1875,-0.125
1480526592787894,0.0625,-0.1875,-0.125
1480526592810454,0.375,-0.125,-0.125
1480526592824992,-0.125,-0.3125,0
1480526592848054,-0.375,-0.25,-0.0625
1480526592878134,0.4375,-0.0625,0
1480526592884654,0.9375,0.0625,0.125
1480526592908214,-0.1875,0,-0.0625
1480526592937792,-0.9375,0,0
1480526592944811,-0.125,0,0
1480526592967874,0.6875,0.0625,0.0625
1480526592990432,0.25,-0.0625,0.0625
1480526593004972,-0.25,-0.3125,-0.0625
1480526593028032,0.3125,-0.3125,0.0625
1480526593050592,0.8125,-0.1875,-0.1875
1480526593073152,0,-0.1875,-0.0625
1480526593088192,-0.5,-0.25,-0.0625
1480526593110752,-0.1875,-0.1875,0.125
1480526593131307,0.1875,0,0.1875
1480526593153867,1,0.1875,0.25
1480526593185952,-0.3125,-0.0625,0.0625
1480526593191467,0.375,0.1875,-0.25
1480526593208011,0.125,0.1875,-0.375
1480526593230571,-1.3125,-0.125,-0.25
1480526593251628,-0.0625,-0.125,-0.375
1480526593268172,0.0625,-0.125,-0.0625
1480526593290230,-0.0625,0,0.25
1480526593311286,0.125,0.125,0.3125
1480526593327829,-0.5625,0.0625,0.1875
1480526593350390,-0.5625,0.125,0
1480526593371445,0.25,0.3125,0.0625
1480526593387991,-1,0.1875,0
1480526593410550,-0.9375,-0.0625,0.125
1480526593431605,0.5,0.125,0.0625
1480526593456171,-0.0625,0.0625,0.0625
1480526593472214,-0.1875,0.1875,0
1480526593492769,-0.625,0.0625,-0.0625
1480526593507808,-0.625,-0.0625,-0.0625
1480526593531371,0.25,0.25,0
1480526593552929,0.0625,0.1875,0.0625
1480526593575490,-0.8125,0.125,0
1480526593598048,-0.625,0.3125,0.0625
1480526593613090,-0.25,0.1875,0.0625
1480526593628128,-0.0625,0.1875,0.125
1480526593650688,-0.125,0.125,0.125
1480526593672747,-0.5,-0.1875,0
1480526593694807,0,-0.1875,0.125
1480526593711351,0.125,0,0.1875
1480526593733409,0.0625,0.0625,0.3125
1480526593747446,0,0.0625,0.25
1480526593778027,-0.0625,-0.0625,0.1875
1480526593799083,1.125,0.375,-0.125
1480526593807105,-0.875,0.125,-0.25
1480526593837686,-1.375,-0.0625,-0.1875
1480526593852727,0.3125,0.125,-0.1875
1480526593867265,0.125,0.0625,0.125
1480526593890326,-0.3125,-0.0625,0
1480526593912886,-0.125,0.125,0.125
1480526593927425,-0.4375,0.125,0.125
1480526593950486,-0.4375,0.1875,0
1480526593979062,-0.125,0.3125,0
1480526593994102,-1.25,0,-0.0625
1480526594010647,-0.0625,0,0.1875
1480526594033207,0.75,0,-0.0625
1480526594054262,-0.3125,0.0625,0
1480526594070309,-0.5,0,-0.0625
1480526594092864,-0.5,-0.0625,0.125
1480526594113921,-0.3125,0.0625,0.125
1480526594131468,0.125,0.1875,0.0625
1480526594153025,0.0625,0.125,0
1480526594174080,-0.5625,0.1875,-0.0625
1480526594190624,-0.75,0.1875,0.0625
1480526594220705,-0.1875,0.125,0.0625
1480526594234242,0.125,0.0625,0
1480526594250785,0.0625,0.0625,0
1480526594272843,-0.1875,0.0625,0.0625
1480526594293899,0,0.0625,0.25
1480526594310443,-0.0625,0.0625,0.1875
1480526594333003,0.5,0.375,0.5625
1480526594354059,0.25,0.25,0.5
1480526594370603,0.3125,0.3125,0.25
1480526594393163,0.5,0.4375,-0.25
1480526594414722,-0.875,0.125,-0.1875
1480526594432768,-0.4375,0.1875,-0.25
1480526594452822,-0.3125,-0.0625,-0.125
1480526594473878,-0.125,0,0.125
1480526594496438,0.0625,0.125,0.3125
1480526594512983,-0.0625,0.125,0.25
1480526594535542,-0.5625,0.25,0.3125
1480526594550583,-0.375,0.4375,0.125
1480526594573141,-0.8125,0.4375,0.25
1480526594595202,-1.1875,0.375,0.3125
1480526594617762,0.0625,0.4375,0.5
1480526594632801,-0.4375,0.5625,0.375
1480526594655361,-0.8125,0.5625,0.3125
1480526594670401,0,1.1875,-0.25
1480526594692961,1.125,0.0625,0.75
1480526594715521,-2.375,0.375,0.1875
1480526594736578,-0.625,0.6875,0.1875
1480526594753121,-1,0.3125,0.5
1480526594775681,-0.875,0.3125,-0.125
1480526594789718,-0.875,0.3125,0.125
1480526594812780,-0.875,-0.125,0.25
1480526594835339,-0.4375,0.125,0.1875
1480526594849878,-0.1875,0.0625,0.0625
1480526594880460,-0.625,-0.0625,0.0625
1480526594895499,-0.625,0.0625,-0.0625
1480526594909537,-0.5625,0,0.0625
1480526594933100,-0.75,0.125,0
1480526594955660,-1.0625,-0.0625,0.125
1480526594970704,-0.5,0.0625,0.1875
1480526594992758,0.1875,0.1875,0.625
1480526595015318,-0.1875,0.1875,0.3125
1480526595036374,0.5625,0.0625,0.0625
1480526595053419,-0.0625,0.1875,-0.25
1480526595075478,-1,-0.0625,-0.3125
1480526595097035,-0.8125,-0.0625,-0.5
1480526595120598,-0.6875,-0.1875,-0.0625
1480526595135640,-0.1875,-0.0625,-0.125
1480526595156694,-0.125,-0.125,0.3125
1480526595172738,-0.125,0.0625,0.3125
1480526595195298,-0.3125,0,0.25
1480526595216353,0.25,0.0625,-0.125
1480526595234403,-0.5,0.0625,0
1480526595255457,-0.9375,-0.1875,0.0625
1480526595276514,0.625,-0.125,0
1480526595293057,-0.125,-0.125,0
1480526595315752,-0.375,-0.0625,-0.0625
1480526595338177,-0.3125,-0.125,-0.0625
1480526595353720,-0.625,-0.0625,-0.0625
1480526595375275,-0.375,0,-0.0625
1480526595396332,0.25,0.1875,-0.0625
1480526595412876,0.1875,0.25,-0.0625
1480526595450477,-0.5,0.0625,-0.125
1480526595458011,-0.4375,0.0625,-0.0625
1480526595473036,-0.1875,0.125,0
1480526595495597,0.125,0.125,-0.0625
1480526595518157,0,0,-0.125
1480526595532695,-0.0625,-0.125,-0.1875
1480526595555756,-0.0625,-0.125,-0.125
1480526595577815,-0.125,-0.0625,-0.0625
1480526595592353,0.0625,0,-0.125
1480526595615414,0.0625,-0.0625,-0.0625
1480526595637974,0,-0.125,-0.125
1480526595652513,-0.0625,0.0625,-0.0625
1480526595675575,-0.125,-0.0625,-0.0625
1480526595698134,-0.0625,-0.0625,-0.0625
1480526595712172,-0.125,-0.125,-0.0625
1480526595735735,0,-0.0625,-0.0625
1480526595757793,-0.1875,0,0
1480526595772332,-0.1875,0,-0.125
1480526595795393,0.0625,0.0625,-0.125
1480526595823969,0.125,0,-0.125
1480526595832492,-0.125,0,-0.1875
1480526595855554,-0.5,0,-0.0625
1480526595884130,-0.3125,-0.0625,-0.0625
1480526595892150,-0.4375,-0.0625,0.0625
1480526595915713,0.1875,0.0625,0.25
1480526595937773,0.1875,0.1875,0.4375
1480526595958827,0.125,-0.0625,0.125
1480526595975372,1.1875,0.1875,-0.25
1480526595997931,-0.25,0,-0.375
1480526596018988,-1.125,-0.3125,-0.5
1480526596035533,-0.25,-0.25,-0.5
1480526596058593,-0.0625,-0.4375,0
1480526596079148,0.5,-0.1875,0.0625
1480526596095692,0,-0.3125,0.4375
1480526596125271,-0.375,-0.125,0.3125
1480526596138808,-0.125,0.0625,0.1875
1480526596162870,0.3125,0.1875,-0.125
1480526596178412,-0.5,0.25,-0.0625
1480526596198968,-1.375,-0.1875,0
1480526596215510,0.5,-0.125,0.0625
1480526596238071,0.5625,0,0.0625
1480526596266649,-0.375,-0.0625,-0.0625
1480526596275671,-0.3125,-0.125,-0.0625
1480526596298732,-0.5625,-0.125,-0.0625
1480526596318785,-0.1875,0.0625,-0.125
1480526596335329,0.25,0.1875,0
1480526596357903,0,0.1875,0
1480526596380451,-0.4375,0.125,0
1480526596401505,-0.25,0.0625,0
1480526596418050,-0.0625,0.0625,-0.0625
1480526596440609,0.0625,0,-0.125
1480526596455650,0.125,-0.1875,-0.125
1480526596478209,0.125,-0.25,-0.0625
1480526596506285,0.125,-0.1875,-0.125
1480526596515937,0.0625,-0.1875,-0.0625
1480526596537868,0.25,-0.1875,0
1480526596560428,0.25,-0.0625,-0.0625
1480526596582487,0.0625,-0.0625,-0.125
1480526596598028,-0.125,-0.125,-0.1875
1480526596620588,0.0625,-0.0625,-0.1875
1480526596625601,0.1875,-0.125,-0.25
1480526596642145,0,-0.1875,-0.125
1480526596663201,0,-0.25,-0.3125
1480526596685762,0.5,-0.125,-0.3125
1480526596702305,0.3125,-0.0625,-0.3125
1480526596723361,-0.0625,-0.1875,-0.3125
1480526596745923,-0.3125,-0.1875,-0.25
1480526596762466,-0.0625,-0.25,-0.0625
1480526596786028,0.6875,-0.0625,0.125
1480526596806082,0.875,0,0.3125
1480526596822127,0.3125,-0.3125,-0.125
1480526596843180,0.8125,-0.1875,-0.5
1480526596865741,-0.3125,-0.1875,-0.5625
1480526596883794,-0.5625,-0.5,-0.5625
1480526596903341,0.25,-0.5,-0.5625
1480526596927405,0.3125,-0.5,0
1480526596942444,0.625,-0.375,0.0625
1480526596963500,0.3125,-0.3125,0.125
1480526596993581,0,-0.1875,0.1875
1480526597003608,-0.1875,-0.125,-0.125
1480526597023161,0.375,-0.125,-0.1875
1480526597045719,-0.625,-0.1875,-0.1875
1480526597063767,-0.4375,-0.375,-0.0625
1480526597083319,1.25,-0.125,0
1480526597107383,0.5,-0.1875,-0.0625
1480526597132450,0,-0.3125,-0.1875
1480526597143480,-0.1875,-0.25,-0.125
1480526597168547,-0.125,-0.25,-0.0625
1480526597188601,0.375,-0.0625,-0.0625
1480526597203140,0.5625,0.125,0
1480526597225698,-0.25,0.0625,-0.0625
1480526597248758,-0.5,0.0625,-0.0625
1480526597278839,0.0625,-0.125,0
1480526597288867,0.5625,-0.0625,-0.0625
1480526597320952,0.375,-0.1875,-0.1875
1480526597323462,0.3125,-0.25,-0.1875
1480526597346018,0.4375,-0.25,-0.125
1480526597385123,0.5625,-0.25,-0.0625
1480526597388131,0.5625,-0.1875,-0.0625
1480526597405677,0.3125,-0.0625,-0.125
1480526597428236,0.3125,-0.25,-0.125
1480526597443276,0.125,-0.1875,-0.1875
1480526597465837,0.25,-0.1875,-0.1875
1480526597488397,0.25,-0.125,-0.25
1480526597503437,0.125,-0.1875,-0.3125
1480526597525996,-0.0625,-0.25,-0.3125
1480526597548556,0.0625,-0.25,-0.3125
1480526597563596,0.375,-0.1875,-0.25
1480526597585656,0.4375,-0.1875,-0.125
1480526597608215,0.375,-0.1875,0.0625
1480526597623255,1.125,0.0625,0.25
1480526597645816,0,-0.0625,-0.125
1480526597668376,0.375,0.0625,-0.25
1480526597690935,-0.0625,0,-0.625
1480526597705975,-1.25,-0.1875,-0.25
1480526597730063,0.0625,-0.1875,-0.375
1480526597743074,0.25,-0.25,-0.0625
1480526597767138,0,-0.1875,0.0625
1480526597788194,0.375,-0.125,0.0625
1480526597803237,-0.125,-0.0625,0.125
1480526597825794,-0.5,-0.1875,-0.0625
1480526597856375,0.125,0.0625,-0.0625
1480526597873922,-0.3125,0,-0.0625
1480526597893475,-0.4375,-0.125,0.0625
1480526597908513,0.8125,-0.0625,0.0625
1480526597925057,0.0625,-0.125,0
1480526597946115,0.1875,-0.125,0
1480526597968173,0.25,-0.125,-0.125
1480526597986222,-0.1875,-0.1875,-0.0625
1480526598007277,0.0625,0.0625,0
1480526598028333,0.4375,0.125,0.0625
1480526598044877,-0.1875,0.125,-0.0625
1480526598065933,-0.25,0.0625,0
1480526598088494,0,0.0625,-0.125
1480526598105037,0.125,0.0625,-0.125
1480526598125591,0.125,-0.0625,-0.0625
1480526598148653,0.0625,-0.125,-0.125
1480526598166702,0.3125,-0.125,-0.0625
1480526598193271,0.5625,-0.0625,0
1480526598219342,0.375,-0.1875,-0.125
1480526598224856,-0.125,-0.1875,-0.1875
1480526598247417,0.0625,0,-0.1875
1480526598275991,0,-0.125,-0.3125
1480526598286531,-0.3125,-0.25,-0.3125
1480526598313091,0.125,-0.1875,-0.1875
1480526598328130,0.375,-0.3125,-0.125
1480526598346179,1.1875,-0.1875,0.0625
1480526598365730,0.8125,-0.1875,0.0625
1480526598388292,0.3125,-0.25,-0.3125
1480526598406338,1.0625,0,-0.5
1480526598425890,-0.5,-0.125,-0.375
1480526598448951,-0.4375,-0.3125,-0.3125
1480526598466498,0.75,-0.1875,-0.3125
1480526598486051,0.4375,-0.3125,0
1480526598508109,0.5,-0.125,0
1480526598526157,0.5,-0.25,0.125
1480526598545710,-0.1875,-0.1875,-0.0625
1480526598568270,-0.125,-0.25,-0.1875
1480526598586318,0.5625,0.125,-0.125
1480526598605869,-0.6875,-0.0625,-0.1875
1480526598629933,-0.125,-0.125,0.125
1480526598650990,0.8125,0,0
1480526598666030,0,-0.0625,-0.0625
1480526598688594,-0.0625,0,-0.0625
1480526598710647,-0.1875,-0.1875,-0.125
1480526598725687,0.0625,-0.0625,0
1480526598749251,0.5,0.125,0.0625
1480526598770809,0.25,-0.0625,0.0625
1480526598785849,-0.3125,0.0625,0
1480526598808407,-0.4375,0,0
1480526598833977,-0.125,-0.125,0.0625
1480526598846009,0.25,0.0625,-0.0625
1480526598868568,-0.125,-0.125,0
1480526598890626,-0.1875,-0.1875,0
1480526598907170,0,-0.125,0.0625
1480526598928227,0.3125,-0.125,0.125
1480526598950787,0.375,-0.0625,0.1875
1480526598967331,0.625,0.0625,0.3125
1480526598988387,-0.3125,-0.125,0.0625
1480526599010947,0.625,0.125,-0.25
1480526599027491,-0.3125,0.125,-0.4375
1480526599048548,-1.25,-0.1875,-0.3125
1480526599088152,0.125,0.0625,-0.3125
1480526599090157,0.125,-0.125,-0.0625
1480526599109710,0.1875,-0.125,0.0625
1480526599131266,-0.0625,0,0.125
1480526599148813,-0.5,0,0.0625
1480526599175885,-0.5,-0.0625,-0.125
1480526599190926,0.375,0.125,-0.125
1480526599214989,-0.625,0,-0.125
1480526599228525,-0.75,-0.25,0
1480526599250584,0.8125,-0.0625,0.125
1480526599268636,0.0625,-0.125,0.0625
1480526599288185,-0.125,0.0625,-0.125
1480526599318278,-0.3125,-0.125,-0.0625
1480526599328793,-0.375,-0.125,0
1480526599348344,0.125,0.0625,-0.0625
1480526599370904,0.625,0.125,-0.0625
1480526599388952,-0.125,0.125,-0.125
1480526599408503,-0.75,0,0.0625
1480526599433571,-0.25,0.0625,0
1480526599454630,0.1875,0.0625,-0.0625
1480526599468164,0.125,0.0625,-0.125
1480526599498243,-0.4375,0,0.0625
1480526599522306,-0.0625,0.0625,0.125
1480526599535844,0.125,-0.125,0.0625
1480526599550883,0.875,0.125,0.25
1480526599568932,-0.0625,-0.0625,0.1875
1480526599596002,0.375,-0.0625,0
1480526599611042,0.75,0.1875,-0.4375
1480526599634608,-1.3125,-0.0625,-0.3125
1480526599648143,-0.375,-0.125,-0.375
1480526599670703,0.1875,-0.125,0
1480526599702287,0.0625,-0.375,0
1480526599708302,-0.3125,-0.25,0.0625
1480526599738382,-0.5,-0.0625,0.375
1480526599749411,-0.25,-0.0625,0
1480526599771469,0.375,0.0625,-0.25
1480526599791024,0.4375,0.0625,-0.0625
1480526599815586,-1,-0.1875,-0.1875
1480526599835642,0.5,-0.25,0
1480526599850683,0.6875,-0.125,0.0625
1480526599884272,-0.1875,0,0
1480526599889784,-0.3125,0,-0.25
1480526599918361,-0.5625,-0.0625,-0.0625
1480526599928889,-0.3125,0.0625,0
1480526599949944,0.625,0.25,-0.125
1480526599971000,0.25,0.125,-0.125
1480526599988547,-0.5625,0,-0.125
1480526600010606,-0.5625,0.125,0.125
1480526600031160,0.1875,0.0625,-0.125
1480526600049045,0.5,0.0625,-0.25
1480526600069763,-0.125,0,-0.125
1480526600098339,-0.5,-0.125,0
1480526600108869,-0.125,0,0.0625
1480526600130926,0.25,-0.125,0.0625
1480526600150979,0.875,0.1875,0.3125
1480526600173539,0,0,0.25
1480526600198606,0,-0.0625,-0.1875
1480526600210637,0.5,0.125,-0.4375
1480526600233199,-1.25,-0.125,-0.25
1480526600251245,-0.625,-0.125,-0.4375
1480526600270797,-0.3125,-0.25,-0.1875
1480526600293358,-0.375,-0.125,0
1480526600311405,-0.625,-0.0625,0.25
1480526600330957,-0.4375,0,0.1875
1480526600353518,-0.3125,0.0625,0.0625
1480526600371065,-0.6875,0,-0.25
1480526600390616,-0.1875,0.1875,0
1480526600413177,-1.1875,-0.125,0.125
1480526600431725,-0.0625,-0.125,0.1875
1480526600450777,0.5,-0.0625,0.1875
1480526600473336,-0.625,-0.0625,0.125
1480526600495896,-0.5625,0.0625,-0.125
1480526600512442,-0.5625,-0.0625,0
1480526600541016,-0.4375,0,0
1480526600551045,0.3125,0.125,0.0625
1480526600571096,0.25,0.25,0
1480526600593166,-0.875,0.0625,-0.1875
1480526600611204,-0.8125,0.125,0.0625
1480526600631257,-0.1875,0.125,0
1480526600653317,0.1875,0.1875,-0.0625
1480526600671363,-0.0625,0.0625,-0.0625
1480526600690915,-0.4375,0,-0.125
1480526600713475,-0.25,-0.125,0.0625
1480526600732024,0.3125,0.0625,0.0625
1480526600753583,0.5,0.0625,0.0625
1480526600773134,-0.0625,-0.125,-0.125
1480526600791182,-0.5,-0.125,-0.1875
1480526600812238,-0.1875,-0.125,-0.0625
1480526600833293,0.0625,0,-0.0625
1480526600851342,-0.0625,0,-0.125
1480526600886937,-0.125,0,0
1480526600893454,-0.3125,0.0625,0
1480526600911502,-0.125,0.0625,-0.0625
1480526600932558,-0.4375,0.125,-0.1875
1480526600953117,-0.4375,0,-0.0625
1480526600971163,-0.75,0,0.0625
1480526600992216,-0.125,0,0.125
1480526601013273,0.125,0,0.125
1480526601032325,0.75,0.25,0.5
1480526601052377,-0.3125,-0.0625,0.1875
1480526601073434,0.5,0.0625,-0.0625
1480526601090980,0.625,0.375,-0.5625
1480526601118553,-1.625,-0.125,-0.3125
1480526601133091,-0.375,-0.0625,-0.5
1480526601163171,0,-0.125,0.0625
1480526601173699,0.125,0.0625,0.1875
1480526601193251,-0.1875,0,0.375
1480526601211300,-0.75,0.0625,0.3125
1480526601233859,-0.5625,0.1875,0.125
1480526601260932,-0.3125,0.1875,0
1480526601271460,-0.0625,0.25,-0.0625
1480526601293518,-0.75,0.125,0.1875
1480526601313578,-1.0625,-0.125,0.25
1480526601332121,0.5625,0.125,0.3125
1480526601353679,-0.25,0.1875,0.1875
1480526601373231,-0.6875,0.1875,0.0625
1480526601398798,-0.9375,0.25,0
1480526601413838,-1.0625,0.0625,0.0625
1480526601434894,-0.1875,0.125,0.1875
1480526601451439,0.3125,0.3125,0.1875
1480526601481519,-0.375,0.25,0.25
1480526601500569,-0.875,0.25,0.1875
1480526601511097,-0.375,0.1875,0.25
1480526601541177,-0.125,0.1875,0.0625
1480526601553212,-0.25,0.1875,0.0625
1480526601571758,-0.5,0.1875,0.125
1480526601593820,-0.375,0.125,0.125
1480526601613375,-0.1875,0.1875,0.0625
1480526601631918,-0.0625,0.125,0.125
1480526601653977,-0.125,0.25,0.125
1480526601682553,-0.375,0.1875,0.25
1480526601695587,-0.4375,0.25,0.1875
1480526601714137,-0.375,0.3125,0
1480526601733190,-0.6875,0.25,0.0625
1480526601755748,-0.8125,0.0625,0
1480526601773796,-0.5,0.125,-0.125
1480526601794851,-0.125,0.0625,0
1480526601818916,-0.1875,0,-0.0625
1480526601833956,-0.375,0,0
1480526601862030,0.0625,0,0.25
1480526601892612,0.5,0.375,0.3125
1480526601895119,-0.375,0.0625,0.0625
1480526601914670,0.875,0.3125,-0.25
1480526601935726,-0.3125,0.4375,-0.3125
1480526601954276,-1.4375,0.0625,-0.4375
1480526601974831,-0.3125,0,-0.5625
1480526601995886,-0.0625,-0.125,-0.125
1480526602013935,0.125,0,0
1480526602034990,-0.375,0,0.3125
1480526602055546,-0.375,0.0625,0.25
1480526602073593,-0.3125,0.1875,0.125
1480526602096152,-0.125,0.1875,-0.0625
1480526602115706,-0.1875,0.25,0.0625
1480526602133753,-1.375,0.0625,0.1875
1480526602163834,-0.625,-0.0625,0.1875
1480526602175867,0.625,0.125,0.1875
1480526602201433,-0.5,0.0625,0.125
1480526602216476,-0.9375,0.0625,-0.0625
1480526602236026,-0.625,0.0625,-0.0625
1480526602253572,-0.375,0.125,0.0625
1480526602276132,0.1875,0.3125,0.0625
1480526602295684,0.25,0.3125,0.125
1480526602318244,-0.6875,0.1875,0.125
1480526602336292,-0.875,0.25,0.0625
1480526602355844,-0.375,0.25,0.1875
1480526602373893,-0.1875,0.1875,0.0625
1480526602395952,-0.0625,0.1875,0.0625
1480526602416004,-0.125,0.0625,0.0625
1480526602438062,-0.25,0.0625,0
1480526602456110,-0.1875,0,0.125
1480526602492708,-0.0625,0.0625,0.0625
1480526602495215,0,0,0.0625
1480526602516272,-0.25,-0.0625,0.125
1480526602543343,-0.0625,0,-0.125
1480526602553875,-0.3125,0,-0.125
1480526602576432,-0.0625,-0.0625,-0.25
1480526602595983,0.125,0,-0.125
1480526602614031,-0.1875,-0.0625,-0.25
1480526602636089,-0.125,-0.0625,-0.25
1480526602655641,-0.1875,0.0625,-0.25
1480526602673689,-0.625,0,-0.0625
1480526602696249,-0.375,0.125,0
1480526602717305,-0.25,0.1875,0
1480526602733849,0.375,0.25,0.25
1480526602756911,0.5625,0.4375,0.3125
1480526602777465,0.125,0.1875,0.0625
1480526602793508,1,0.3125,-0.1875
1480526602816572,-0.3125,0.125,-0.375
1480526602837123,-0.875,-0.0625,-0.3125
1480526602853668,0.3125,0,-0.375
1480526602876229,-0.0625,-0.125,0
1480526602898789,-0.375,-0.0625,0.1875
1480526602913829,-0.75,0,0.375
1480526602936389,-0.25,0.1875,0.4375
1480526602957444,0.0625,0.25,0.1875
1480526602973988,-0.125,0.125,-0.1875
1480526602996047,-0.1875,0.25,0.125
1480526603017604,-1.3125,0,0.25
1480526603034147,-0.1875,-0.125,0.1875
1480526603056207,0.875,0.1875,0.1875
1480526603079269,-0.375,0.0625,0.1875
1480526603101326,-0.875,0.1875,0.125
1480526603116371,-0.75,0.0625,0
1480526603138927,-0.5,0.1875,0
1480526603158478,0.1875,0.1875,0.0625
1480526603176025,0.125,0.1875,0.125
1480526603203098,-0.625,0.0625,0.125
1480526603218138,-0.4375,0.125,0.125
1480526603236185,0,0.125,0.0625
1480526603258746,-0.0625,0.125,0
1480526603278297,0,0.0625,0
1480526603295342,0,-0.0625,0
1480526603326425,-0.0625,0.0625,0
1480526603338457,0.0625,0.125,0
1480526603355508,0.0625,0.0625,0
1480526603378063,0.125,0.0625,-0.0625
1480526603399121,0.125,0.1875,-0.0625
1480526603415663,-0.1875,0.125,-0.0625
1480526603445743,-0.25,0.1875,-0.0625
1480526603458778,-0.1875,0.125,-0.125
1480526603482844,0.0625,0.0625,0
1480526603498383,0.125,0.0625,-0.125
1480526603526458,0,0,-0.1875
1480526603535482,-0.0625,0,-0.1875
1480526603565564,-0.125,0.0625,-0.1875
1480526603580603,-0.5,0,-0.0625
1480526603595641,-0.1875,0,0.0625
1480526603617700,0.0625,0.125,0.1875
1480526603638756,0.4375,0.4375,0.4375
1480526603655802,-0.3125,0.25,0.25
1480526603685380,0.125,0.1875,0
1480526603707940,0.6875,0.25,-0.4375
1480526603722480,-0.9375,0,-0.25
1480526603738021,-0.625,-0.125,-0.4375
1480526603766596,-0.0625,-0.125,-0.125
1480526603775620,-0.0625,-0.125,0.0625
1480526603797682,-0.125,-0.0625,0.3125
1480526603835780,-0.3125,0.125,0.25
1480526603838288,-0.5625,0.125,0.3125
1480526603857842,-0.4375,0.125,0.0625
1480526603878895,-0.1875,0.1875,-0.125
1480526603895439,-0.5625,0.0625,0.125
1480526603917999,-0.9375,-0.125,0.0625
1480526603939055,0.625,-0.125,0.125
1480526603955599,0.125,0,0.125
1480526603977658,-0.5,0.125,0.0625
1480526604000719,-0.75,0.125,-0.0625
1480526604015349,-0.75,0.125,0.125
1480526604037818,-0.375,0.25,0.0625
1480526604060378,0.25,0.3125,0.0625
1480526604075418,-0.1875,0.1875,0.1875
1480526604097978,-0.625,0.1875,0
1480526604120540,-0.375,0.1875,0.125
1480526604135077,-0.125,0.125,0
1480526604158138,0,0.125,0
1480526604180197,-0.125,0.125,-0.0625
1480526604194735,-0.3125,0.0625,0
1480526604217796,-0.25,0.125,0
1480526604240858,-0.125,0.125,0.0625
1480526604254907,0,0.125,0
1480526604277957,-0.25,0.0625,0.0625
1480526604300516,-0.125,0.0625,0
1480526604314555,-0.1875,0.0625,-0.0625
1480526604338116,-0.375,0,0
1480526604360175,-0.1875,0,0
1480526604382737,-0.125,0,0.0625
1480526604397775,-0.125,0.0625,-0.125
1480526604420335,-0.375,0.0625,-0.125
1480526604434874,-0.3125,0.0625,-0.125
1480526604457935,-0.375,0.125,-0.0625
1480526604480495,-0.4375,0.0625,-0.0625
1480526604501551,-0.375,0.0625,0.0625
1480526604518096,0.0625,0.1875,0.25
1480526604541157,0.0625,0.3125,0.4375
1480526604561711,-0.375,0.1875,0.0625
1480526604577754,0.75,0.25,-0.125
1480526604600314,-0.125,0.25,-0.375
1480526604621871,-0.9375,-0.0625,-0.25
1480526604637915,-0.0625,-0.125,-0.4375
1480526604660475,-0.0625,-0.1875,0
1480526604681530,-0.0625,-0.0625,0.125
1480526604699077,-0.125,0,0.25
1480526604720637,-0.3125,0,0.3125
1480526604741689,-0.5,0.1875,0.3125
1480526604757733,-0.4375,0.125,0
1480526604780293,-0.0625,0.25,-0.0625
1480526604801349,-0.9375,0.0625,0.0625
1480526604817893,-0.5625,-0.125,0.125
1480526604840453,0.5625,0.0625,0.0625
1480526604861509,-0.3125,0,0.0625
1480526604878053,-0.5625,0.0625,0
1480526604900613,-0.8125,0.0625,0
1480526604921669,-0.875,0.125,0.0625
1480526604945232,-0.0625,0.25,0.125
1480526604960271,-0.125,0.375,0.0625
1480526604982832,-0.625,0.3125,0.125
1480526604998373,-0.6875,0.3125,0.125
1480526605020431,-0.125,0.1875,0.0625
1480526605042991,-0.3125,0.1875,-0.0625
1480526605058533,-0.375,0.0625,0.0625
1480526605080592,-0.375,0.0625,0
1480526605102650,-0.625,0.0625,0
1480526605123706,-0.625,0.0625,0.0625
1480526605147772,-0.75,0.125,0.1875
1480526605162810,-0.6875,0.0625,0.125
1480526605177349,-0.375,0.25,0.125
1480526605200410,-0.5,0.3125,0.1875
1480526605222971,-0.75,0.125,0.0625
1480526605237007,-0.625,0.3125,0
1480526605260571,-0.4375,0.125,0.0625
1480526605282630,-0.1875,0.1875,0.0625
1480526605297168,-0.375,0.125,0
1480526605320730,-0.4375,0.125,0.0625
1480526605342789,-0.5625,0.125,0.0625
1480526605357328,-0.5,0.0625,0.1875
1480526605380390,-0.3125,0.125,0.25
1480526605402949,0.5,0.1875,0.3125
1480526605417989,0,0.125,0.25
1480526605440549,0.125,0,-0.125
1480526605462608,0.4375,0,-0.4375
1480526605484165,-0.8125,-0.25,-0.375
1480526605500207,-0.5625,-0.25,-0.5
1480526605522768,-0.375,-0.4375,-0.25
1480526605543824,-0.625,-0.3125,0.0625
1480526605560368,-0.125,-0.25,0.125
1480526605582931,-0.125,-0.125,0.25
1480526605612005,-0.5,0,0.25
1480526605621029,-0.4375,0.0625,0.0625
1480526605643089,-0.125,0.125,0
1480526605664144,-0.625,0.0625,0.0625
1480526605680188,-0.75,-0.125,0.0625
1480526605702748,1.0625,0,0.1875
1480526605723802,0.5,-0.1875,0.0625
1480526605740347,-0.0625,-0.1875,-0.0625
1480526605770426,0.125,-0.125,-0.1875
1480526605783962,-0.125,-0.1875,-0.1875
1480526605801008,0.125,-0.125,-0.125
1480526605823067,0.6875,-0.125,-0.1875
1480526605844122,0.625,-0.125,-0.1875
1480526605859664,0.0625,-0.1875,-0.125
1480526605884229,0.0625,-0.0625,-0.3125
1480526605905285,0.3125,-0.125,-0.3125
1480526605927846,0.4375,-0.1875,-0.5
1480526605942885,0.3125,-0.25,-0.375
1480526605965447,0.3125,-0.375,-0.375
1480526605980487,0.625,-0.3125,-0.3125
1480526606003548,0.75,-0.3125,-0.375
1480526606025611,0.75,-0.3125,-0.375
1480526606039642,0.25,-0.375,-0.3125
1480526606062706,0.375,-0.5,-0.4375
1480526606092784,0.6875,-0.5,-0.5
1480526606099802,1,-0.5,-0.4375
1480526606122864,0.9375,-0.625,-0.5
1480526606145425,0.5,-0.625,-0.4375
1480526606159963,0.3125,-0.5625,-0.4375
1480526606183030,0.4375,-0.5625,-0.3125
1480526606205584,0.6875,-0.4375,-0.0625
1480526606220122,0.6875,-0.3125,-0.125
1480526606242684,1,-0.125,0.1875
1480526606265244,-0.125,-0.3125,-0.0625
1480526606280284,0.5,-0.25,-0.375
1480526606302842,0.5,-0.25,-0.625
1480526606325402,-0.625,-0.625,-0.3125
1480526606339942,0.75,-0.5625,-0.4375
1480526606363003,1.1875,-0.625,-0.3125
1480526606393083,0.4375,-0.5625,-0.125
1480526606406619,0.3125,-0.5,0
1480526606423665,0.25,-0.4375,0.0625
1480526606445222,0.25,-0.375,0.0625
1480526606466277,0.625,-0.3125,-0.1875
1480526606482825,0.625,-0.25,-0.0625
1480526606505382,-0.75,-0.5625,-0.1875
1480526606526437,0.375,-0.5625,0
1480526606542982,1.5,-0.3125,-0.125
1480526606573062,0.375,-0.3125,-0.0625
1480526606586599,0.25,-0.375,-0.0625
1480526606603141,0.0625,-0.3125,0
1480526606625201,0.25,-0.125,-0.125
1480526606646758,1,0,-0.0625
1480526606662800,0.6875,0.0625,-0.1875
1480526606685365,-0.25,-0.1875,-0.25
1480526606707920,-0.0625,-0.25,-0.1875
1480526606722960,0.3125,-0.1875,-0.1875
1480526606753552,0.5625,-0.1875,-0.1875
1480526606766576,0.625,-0.375,-0.25
1480526606783517,0.5625,-0.375,-0.125
1480526606813200,0.6875,-0.3125,-0.0625
1480526606826234,0.875,-0.1875,-0.0625
1480526606850299,0.875,-0.3125,-0.0625
1480526606865344,0.75,-0.25,-0.25
1480526606887899,0.75,-0.125,-0.1875
1480526606902939,0.5,-0.1875,-0.3125
1480526606926000,1,-0.125,-0.1875
1480526606949102,2,-0.25,-0.0625
1480526606962598,0.375,-0.1875,-0.1875
1480526606985164,0.9375,-0.125,0.0625
1480526607007723,0.5625,-0.1875,-0.0625
1480526607031285,0.875,-0.1875,-0.5
1480526607045323,1.0625,0.0625,-0.6875
1480526607067883,-0.6875,-0.375,-0.625
1480526607090442,-0.125,-0.4375,-0.625
1480526607105483,1.1875,-0.3125,-0.625
1480526607128043,0.75,-0.4375,-0.25
1480526607149099,0.9375,-0.3125,-0.3125
1480526607165642,0.25,-0.5,-0.1875
1480526607187702,0,-0.375,-0.1875
1480526607202239,0.4375,-0.3125,-0.375
1480526607225318,0.875,-0.125,-0.25
1480526607247862,-0.5625,-0.4375,-0.25
1480526607262400,0.1875,-0.3125,-0.0625
1480526607285461,0.875,-0.25,-0.125
1480526607308021,0.1875,-0.3125,-0.125
1480526607331586,0.5625,-0.3125,-0.125
1480526607345120,0.3125,-0.375,-0.125
1480526607368182,0.25,-0.3125,-0.1875
1480526607388736,0.625,-0.25,-0.125
1480526607405280,0.9375,-0.125,-0.125
1480526607427840,0.1875,-0.0625,-0.125
1480526607448897,-0.125,-0.0625,-0.125
1480526607471456,0.0625,-0.25,-0.125
1480526607488000,0.25,-0.125,-0.0625
1480526607509056,0.125,-0.125,-0.125
1480526607525600,0.4375,-0.3125,0
1480526607547660,0.4375,-0.3125,-0.125
1480526607568714,0.9375,-0.1875,0.125
1480526607585259,0.9375,-0.25,0.125
1480526607607820,0.5,-0.3125,-0.1875
1480526607629877,1.3125,-0.0625,-0.375
1480526607645921,-0.5625,-0.375,-0.5
1480526607673994,-0.3125,-0.4375,-0.3125
1480526607689034,1.25,-0.3125,-0.375
1480526607705578,0.8125,-0.3125,-0.125
1480526607727638,0.5,-0.1875,0
1480526607749196,0.25,-0.1875,-0.0625
1480526607765238,-0.25,-0.25,-0.0625
1480526607787798,0.0625,-0.125,-0.25
1480526607817878,0.8125,0,-0.125
1480526607825398,-0.625,-0.25,-0.25
1480526607847962,-0.25,-0.375,-0.0625
1480526607870518,1.1875,0,-0.0625
1480526607891573,0.4375,-0.25,0
1480526607908118,0.3125,-0.125,-0.125
1480526607931181,0.0625,-0.3125,-0.1875
1480526607945219,0.0625,-0.125,-0.0625
1480526607967776,0.6875,-0.0625,-0.0625
1480526607990336,0.5,-0.125,-0.25
1480526608004875,-0.1875,-0.0625,-0.125
1480526608035457,-0.125,-0.1875,-0.0625
1480526608050498,0.4375,-0.1875,-0.0625
1480526608065036,0.375,-0.3125,-0.0625
1480526608095115,0.75,-0.25,0.125
1480526608110155,0.375,-0.25,0.125
1480526608124694,0.75,-0.0625,0.375
1480526608148257,0.5625,-0.1875,-0.125
1480526608170326,1.4375,0.0625,-0.3125
1480526608191371,-0.3125,0,-0.75
1480526608207915,-1.3125,-0.4375,-0.375
1480526608236490,0.6875,-0.1875,-0.4375
1480526608244514,1,-0.375,0
1480526608268576,0.75,-0.3125,-0.0625
1480526608290134,0.375,-0.1875,-0.0625
1480526608312695,-0.5,-0.25,0
1480526608327734,-0.25,-0.25,-0.0625
1480526608350400,0.8125,-0.0625,-0.25
1480526608371350,-0.125,-0.0625,-0.125
1480526608387894,-0.625,-0.375,-0.0625
1480526608410454,0.875,-0.25,0
1480526608432512,0.4375,-0.25,0.0625
1480526608448054,0.125,-0.25,-0.1875
1480526608470112,0,-0.375,-0.125
1480526608491168,-0.25,-0.375,-0.0625
1480526608507712,0.4375,-0.0625,-0.1875
1480526608531276,0.75,0.0625,-0.1875
1480526608551331,0.125,0.0625,-0.3125
1480526608567872,-0.375,-0.0625,-0.125
1480526608590433,-0.125,-0.125,-0.1875
1480526608611490,0.1875,-0.1875,-0.25
1480526608628033,0.5,-0.3125,0
1480526608657611,0.3125,-0.25,0
1480526608671147,0.875,-0.125,0.3125
1480526608687692,0.5625,-0.3125,0.0625
1480526608710251,1.4375,0,-0.25
1480526608732811,0.8125,0.125,-0.5625
1480526608747851,-1.125,-0.375,-0.4375
1480526608770411,0.1875,-0.3125,-0.5
1480526608792971,0.6875,-0.4375,-0.1875
1480526608808012,0.8125,-0.25,0.0625
1480526608831576,0.4375,-0.25,0.125
1480526608852631,-0.25,-0.1875,0.0625
1480526608867169,-0.1875,-0.125,-0.125
1480526608890230,0.3125,-0.0625,-0.375
1480526608912790,0.3125,-0.0625,-0.0625
1480526608927830,-0.8125,-0.375,-0.0625
1480526608950390,0.5625,-0.375,0.0625
1480526608972950,0.5625,-0.3125,0
1480526608994006,0.25,-0.25,-0.125
1480526609010550,-0.0625,-0.3125,-0.25
1480526609032608,-0.3125,-0.375,-0.1875
1480526609047150,0.3125,-0.25,-0.25
1480526609070208,0.875,0.0625,-0.1875
1480526609098786,0.25,-0.125,-0.1875
1480526609107307,-0.125,-0.1875,-0.125
1480526609131371,-0.0625,-0.125,-0.125
1480526609152929,0.5,-0.125,-0.1875
1480526609166966,0.4375,-0.125,-0.25
1480526609190528,-0.125,-0.375,-0.25
1480526609213089,0.0625,-0.25,0
1480526609233644,0.6875,-0.3125,0
1480526609250188,1.1875,0,0.25
1480526609272747,0.4375,-0.3125,-0.1875
1480526609293803,1.75,0,-0.5
1480526609310849,0.0625,-0.125,-0.5
1480526609332907,-1.1875,-0.25,-0.5625
1480526609353963,0.0625,-0.1875,-0.375
1480526609378027,0.4375,-0.1875,0.0625
1480526609392566,0.625,0,0.125
1480526609414124,-0.4375,0,0.25
1480526609431169,-0.5625,0.0625,0.0625
1480526609460246,-0.4375,0,0
1480526609473782,0.5,0.0625,-0.125
1480526609490326,-0.125,0.125,0
1480526609513388,-1.375,-0.375,0.1875
1480526609535447,0.5,-0.0625,0.25
1480526609550486,0.25,0.0625,0.1875
1480526609573046,-0.1875,0.0625,0
1480526609594102,-0.6875,-0.125,-0.125
1480526609610146,-0.875,-0.125,0
1480526609633708,0.125,0,0.0625
1480526609661284,0.875,0.125,0.0625
1480526609670305,0.0625,0.0625,0.0625
1480526609700384,-0.75,0.0625,0.125
1480526609715427,-0.375,0,0.125
1480526609731469,0.4375,0.1875,0.0625
1480526609759052,0.4375,0.1875,0.0625
1480526609775584,-0.375,-0.0625,0.0625
1480526609789622,-0.3125,0,0.0625
1480526609812684,0.125,0,0.0625
1480526609836246,0.375,0,0.0625
1480526609865324,0.25,0,0.125
1480526609872843,-0.0625,-0.0625,-0.0625
1480526609895403,-0.125,-0.0625,0
1480526609909441,0.0625,-0.0625,-0.0625
1480526609939020,0.1875,-0.0625,0
1480526609955576,0.125,0,-0.125
1480526609976619,0.0625,0,-0.0625
1480526609992663,0.125,0,-0.1875
1480526610015821,-0.0625,0,-0.125
1480526610037783,-0.375,-0.1875,-0.0625
1480526610052822,0.25,0,0
1480526610091425,-0.0625,-0.0625,0.0625
1480526610103958,0.375,0.1875,0.5
1480526610112983,-0.1875,-0.0625,0.0625
1480526610135543,1.25,0.125,-0.125
1480526610149582,0.25,0.3125,-0.5625
1480526610187681,-2,-0.25,-0.375
1480526610195201,-0.1875,-0.125,-0.5
1480526610225281,0.3125,-0.4375,0.1875
1480526610232801,0.5625,0,0.25
1480526610255363,-0.25,-0.125,0.4375
1480526610283943,-0.8125,-0.0625,0.375
1480526610292970,-0.6875,0.125,0.125
1480526610315762,-0.0625,0.0625,-0.125
1480526610336577,0.6875,0.125,-0.0625
1480526610360139,-0.8125,-0.0625,0.125
1480526610375181,-0.8125,-0.3125,0.3125
1480526610396236,0.75,0.0625,0.1875
1480526610420301,0.25,0.125,0.0625
1480526610435340,-0.625,0,-0.1875
1480526610456396,-1,0,-0.125
1480526610472940,-0.625,-0.0625,0.0625
1480526610501515,0.625,0.0625,0.0625
1480526610516558,0.5,0.0625,0.0625
1480526610532598,-0.4375,0.0625,0
1480526610555159,-0.5625,0,0.0625
1480526610576227,-0.1875,0.0625,0
1480526610592759,0.25,0,-0.125
1480526610615321,0.125,0.0625,-0.125
1480526610638380,-0.1875,0,0
1480526610660439,-0.25,-0.0625,0
1480526610675479,0.25,0,0
1480526610698040,0.5625,0.0625,0
1480526610713080,0.4375,0.0625,0.125
1480526610741153,0,0.0625,0.0625
1480526610765217,0,0.0625,0
1480526610772236,0.3125,0.0625,-0.125
1480526610795297,0.3125,0.1875,-0.1875
1480526610817857,-0.1875,0.125,-0.125
1480526610832897,-0.375,0,-0.0625
1480526610855457,0.3125,0.1875,0.1875
1480526610878017,0.4375,0.125,0.25
1480526610899073,0.625,0.375,0.5
1480526610915681,-0.4375,0.125,0.1875
1480526610937676,0.6875,0.25,-0.0625
1480526610952216,0.5625,0.375,-0.625
1480526610975277,-1.4375,-0.125,-0.4375
1480526610997838,-0.25,-0.125,-0.625
1480526611012375,0.1875,-0.375,0.0625
1480526611041452,0.5625,-0.0625,0.25
1480526611058000,0.3125,-0.0625,0.3125
1480526611072034,-0.3125,0,0.25
1480526611095095,-0.125,0.0625,0.125
1480526611117655,-0.125,0.0625,-0.125
1480526611155756,-0.0625,0,-0.0625
1480526611158262,-0.75,-0.125,0.1875
1480526611177815,-0.4375,-0.3125,0.1875
1480526611198871,0.875,-0.125,0.1875
1480526611215416,0.25,-0.0625,0
1480526611237975,-0.1875,-0.0625,-0.1875
1480526611259030,-0.4375,-0.125,-0.125
1480526611283596,-0.25,-0.25,-0.25
1480526611297634,0.375,0.0625,-0.125
1480526611320194,0.625,0.125,-0.0625
1480526611335233,-0.3125,0.0625,-0.0625
1480526611357794,-0.125,0,0.0625
1480526611378850,0.4375,0.0625,0
1480526611395393,0.5625,-0.0625,-0.125
1480526611425473,0.25,-0.1875,-0.1875
1480526611439012,0.125,-0.3125,-0.125
1480526611455554,0.25,-0.1875,-0.125
1480526611477613,0.5,-0.125,-0.0625
1480526611498668,0.6875,-0.0625,0
1480526611515212,0.4375,-0.125,-0.125
1480526611537774,0,-0.0625,-0.125
1480526611558828,0.125,-0.125,-0.125
1480526611575372,0.25,-0.0625,-0.125
1480526611597933,0.375,-0.0625,-0.25
1480526611620493,0.125,-0.0625,-0.25
1480526611641548,0.0625,0,-0.25
1480526611658097,0,-0.0625,-0.1875
1480526611680151,0.1875,-0.1875,-0.25
1480526611694690,0.5625,-0.125,-0.125
1480526611717751,0.1875,-0.1875,-0.0625
1480526611740311,0.9375,0.0625,0.25
1480526611754850,0.4375,0,0.0625
1480526611777911,0.5625,-0.125,-0.0625
1480526611807992,1,0.25,-0.5625
1480526611815271,-1.4375,-0.25,-0.25
1480526611838071,-0.375,-0.125,-0.4375
1480526611860129,0.1875,-0.0625,-0.25
1480526611874669,0,-0.0625,0.125
1480526611897732,0.25,0.1875,0.125
1480526611920291,-0.4375,-0.0625,0.3125
1480526611935329,-0.5625,0.125,0.0625
1480526611957890,-0.0625,0.0625,-0.0625
1480526611980450,0.0625,0.0625,-0.1875
1480526611994487,-0.3125,0.125,0.0625
1480526612024065,-0.9375,-0.1875,0.1875
1480526612040610,0.5,0,0.25
1480526612054647,0.4375,0.1875,0.1875
1480526612085229,-0.375,0.0625,0
1480526612100268,-0.8125,0,0
1480526612128844,-0.6875,0.0625,0
1480526612138370,0.1875,0,0.0625
1480526612160429,0.5625,0.25,0.125
1480526612181488,0.125,0.1875,0
1480526612198028,-0.5,0.125,0.125
1480526612220593,-0.3125,0.1875,0.1875
1480526612241143,0,0.1875,0.0625
1480526612257688,0.25,0.125,0
1480526612280250,-0.125,0.0625,0
1480526612302808,-0.375,-0.0625,0
1480526612341912,0,-0.0625,0
1480526612346424,0.4375,0,0.0625
1480526612361463,0.3125,-0.0625,0
1480526612378007,-0.1875,-0.125,-0.0625
1480526612400567,-0.125,0,0.0625
1480526612421122,0.25,0.0625,-0.0625
1480526612437666,0.125,-0.0625,-0.125
1480526612460226,-0.125,0,-0.1875
1480526612481285,-0.3125,0.0625,-0.0625
1480526612497827,-0.1875,0.0625,-0.0625
1480526612520386,-0.0625,0,-0.125
1480526612542946,0.25,0.0625,0.1875
1480526612557986,-0.0625,-0.125,0.0625
1480526612580548,0.8125,0.25,0.5
1480526612610125,0,-0.0625,0.125
1480526612617644,0.625,0.125,-0.125
1480526612640206,0.4375,0.3125,-0.5625
1480526612662766,-1.8125,-0.125,-0.25
1480526612677304,0.0625,-0.0625,-0.4375
1480526612700365,0.5625,-0.125,-0.0625
1480526612722925,0.4375,0,0.1875
1480526612736962,0.125,0.0625,0.25
1480526612760525,-0.6875,0.0625,0.3125
1480526612783085,-0.3125,0.25,0.125
1480526612797126,0.125,0.1875,0
1480526612820184,0.25,0.25,-0.125
1480526612842744,-0.9375,0.0625,0.1875
1480526612857282,-0.9375,-0.1875,0.3125
1480526612880344,1.0625,0,0.125
1480526612902903,0.375,0.0625,0.0625
1480526612916941,-0.375,0,0.0625
1480526612940504,-0.3125,-0.125,0
1480526612963064,-0.0625,-0.125,-0.0625
1480526612977102,0.4375,0,-0.125
1480526613000162,0.4375,0,-0.0625
1480526613022722,-0.0625,0.0625,0
1480526613043778,-0.375,0.125,0.125
1480526613060323,0,0.0625,0.125
1480526613083384,0.3125,0.125,0
1480526613103938,0.1875,0.125,0
1480526613120482,0,0,-0.0625
1480526613143042,0.125,0,-0.0625
1480526613164098,0.0625,-0.0625,-0.0625
1480526613180141,0.0625,-0.0625,0
1480526613202701,0.1875,0,0.0625
1480526613224258,0.125,0.0625,0
1480526613240301,-0.0625,0.125,-0.0625
1480526613262861,-0.125,0.0625,0
1480526613283917,0.0625,-0.0625,-0.0625
1480526613300461,0.3125,0.0625,-0.1875
1480526613329037,0.125,0.0625,-0.1875
1480526613344077,-0.1875,0.0625,-0.0625
1480526613366136,-0.4375,-0.125,0
1480526613382680,0.1875,0,0.1875
1480526613411271,0.3125,0,0.0625
1480526613420280,0.625,0.25,0.5
1480526613443843,-0.375,-0.0625,0.125
1480526613471415,0.6875,0.1875,-0.0625
1480526613480441,0.4375,0.3125,-0.4375
1480526613509015,-1.5,-0.1875,-0.25
1480526613525058,0.0625,-0.0625,-0.4375
1480526613540098,0.3125,-0.125,0
1480526613562658,0.0625,-0.0625,0.25
1480526613585218,0.25,0.0625,0.25
1480526613600258,-0.5,0.0625,0.375
1480526613622818,-0.4375,0.125,0.1875
1480526613645379,-0.0625,0.0625,0.0625
1480526613659419,0.1875,0.125,-0.125
1480526613682979,-0.875,-0.0625,0.125
1480526613706040,-0.8125,-0.375,0.1875
1480526613719576,1.375,0,0.25
1480526613757678,0.5,0,0.125
1480526613765197,-0.25,0.0625,-0.0625
1480526613779736,-0.75,-0.0625,-0.125
1480526613802797,-0.5625,0.0625,-0.0625
1480526613825357,0.4375,0.25,0
1480526613839896,0.5,0.25,-0.0625
1480526613862957,-0.5625,0.1875,-0.0625
1480526613885517,-0.75,0.125,0.0625
1480526613899555,0.0625,0,0
1480526613923119,0.625,0.0625,-0.25
1480526613945176,0.375,-0.125,-0.1875
1480526613966232,-0.125,-0.125,-0.1875
1480526613983278,-0.1875,-0.1875,-0.0625
1480526614005837,0.25,0,-0.125
1480526614026391,0.6875,-0.0625,-0.0625
1480526614042936,0.25,-0.125,0
1480526614064995,-0.1875,-0.125,-0.0625
1480526614087053,-0.3125,-0.0625,-0.125
1480526614102595,0.1875,-0.0625,-0.1875
1480526614125154,0.25,-0.0625,-0.1875
1480526614146212,0,-0.0625,-0.125
1480526614162755,-0.25,0,-0.1875
1480526614185316,0,0.0625,-0.0625
1480526614206371,-0.1875,-0.0625,-0.125
1480526614222916,0.1875,0,0.0625
1480526614245475,0,0,0.0625
1480526614268034,0.5,0.0625,0.375
1480526614282575,0.3125,0,0.3125
1480526614305635,0.5,0,-0.0625
1480526614326189,1.25,0.375,-0.3125
1480526614350253,-1.6875,-0.125,-0.3125
1480526614379333,-0.6875,-0.25,-0.5
1480526614386350,0.9375,-0.0625,-0.25
1480526614402893,-0.1875,-0.125,0.1875
1480526614425453,0.125,0.125,0.125
1480526614448015,-0.375,0.0625,0.25
1480526614463054,-0.75,0.125,0.25
1480526614485113,-0.0625,0.25,0.0625
1480526614507672,0.25,0.0625,-0.1875
1480526614522713,-0.375,0.0625,0.0625
1480526614545272,-1.4375,-0.25,0.25
1480526614567833,0.75,0,0.4375
1480526614588888,1.0625,0.0625,0.1875
1480526614605433,-0.25,0.1875,0.125
1480526614627992,-0.6875,0.125,0
1480526614643032,-0.75,0,0.0625
1480526614665592,0.0625,0.125,0
1480526614688153,0.6875,0.25,0
1480526614702189,-0.125,0.25,0
1480526614733774,-0.6875,0.125,0.0625
1480526614753827,-0.375,0.1875,0.125
1480526614762350,0.25,0.25,0
1480526614785411,0.375,0.25,0
1480526614807971,0,0.125,0
1480526614822008,-0.375,0.125,0
1480526614845070,-0.1875,0.0625,0.125
1480526614867630,0.5625,0.3125,0.0625
1480526614888685,3.0625,0.5625,0.8125
1480526614905229,-0.5625,-0.0625,-0.125
1480526614936814,-1.0625,0.1875,0
1480526614948848,-0.125,-0.125,0.4375
1480526614965390,-0.1875,-0.1875,-0.1875
1480526614987449,0.6875,0.125,-0.0625
1480526615009005,0.0625,-0.125,-0.0625
1480526615026050,-0.875,-0.25,-0.0625
1480526615047609,-0.5,0,-0.125
1480526615076188,0.5,-0.125,0.125
1480526615085209,0.625,0.0625,0.25
1480526615108269,0.4375,0.25,0.5
1480526615136344,-0.5625,0.0625,0.1875
1480526615152888,0.75,0.25,-0.0625
1480526615168429,-0.25,0.3125,-0.3125
1480526615188984,-0.875,-0.0625,-0.25
1480526615205528,0.0625,0.0625,-0.4375
1480526615227588,-0.375,-0.1875,0.125
1480526615248646,0.1875,-0.0625,0.125
1480526615265190,0.375,-0.125,0.25
1480526615287748,-0.125,0.125,0.3125
1480526615316324,-0.75,0.0625,0.0625
1480526615325348,-0.5625,0,-0.125
1480526615348410,0.3125,0.3125,-0.125
1480526615368963,-0.9375,0.125,0
1480526615391523,-0.3125,-0.125,0.1875
1480526615414087,0.6875,0.1875,0.125
1480526615430127,0.0625,0.0625,0.0625
1480526615445167,-0.1875,0.1875,0
1480526615467726,-0.4375,0.1875,-0.125
1480526615490286,-0.5,0.0625,-0.125
1480526615505326,0.25,0.25,0
1480526615527886,0.125,0.25,0.125
1480526615550446,-0.625,0.0625,0.0625
1480526615564483,-0.5625,0.125,0.125
1480526615588046,0,0.1875,0.125
1480526615610104,0.1875,0.0625,0
1480526615624643,-0.0625,0,0.0625
1480526615647705,0,0.0625,0
1480526615670265,0,0.125,0.0625
1480526615684804,0.125,0.0625,0.1875
1480526615709369,0.1875,0,0.125
1480526615737944,-0.125,0,0.125
1480526615744462,-0.0625,0,0
1480526615768024,-0.0625,0.125,0
1480526615790083,-0.25,0.0625,0.0625
1480526615804622,-0.25,0,0
1480526615827683,-0.125,0,0
1480526615850245,-0.125,0.0625,-0.0625
1480526615871299,-0.25,0,0
1480526615887844,-0.5,0.0625,0
1480526615910403,-0.5625,0.0625,0.1875
1480526615931459,-0.25,0.0625,0.3125
1480526615948006,0.3125,0.25,0.5625
1480526615970563,-0.0625,0.25,0.375
1480526615991118,0.625,0.1875,0.1875
1480526616007662,0.6875,0.25,-0.3125
1480526616036238,-0.875,-0.125,-0.25
1480526616051279,-0.1875,-0.25,-0.375
1480526616067321,0.25,-0.25,-0.3125
1480526616090383,0,-0.1875,0.0625
1480526616110937,0.0625,0,0.1875
1480526616127982,-0.4375,0.125,0.3125
1480526616150041,-0.4375,0.25,0.25
1480526616171096,-0.1875,0.3125,0.0625
1480526616187640,-0.25,0.25,-0.125
1480526616210208,-0.8125,0.0625,0.125
1480526616231256,-1.1875,-0.0625,0.125
1480526616247805,0.875,-0.0625,0.25
1480526616270362,0.5625,0,0.0625
1480526616292920,-0.6875,-0.125,0.0625
1480526616313977,-0.6875,-0.0625,0
1480526616331022,-0.5,-0.125,-0.0625
1480526616352580,-0.125,0,-0.0625
1480526616367620,0.1875,0,0
1480526616397700,-0.0625,0,0.0625
1480526616420259,-0.4375,-0.125,0.0625
1480526616429284,-0.0625,-0.125,0.0625
1480526616450340,0.3125,-0.1875,0
1480526616472900,0.0625,-0.25,-0.1875
1480526616486937,0.375,-0.25,-0.125
1480526616509998,0.625,-0.25,0
1480526616532559,0.125,-0.25,0
1480526616547097,0.0625,-0.25,-0.1875
1480526616570158,4.5,0.125,1
1480526616592718,-0.375,0,-0.3125
1480526616607258,-0.625,0.0625,-0.1875
1480526616630319,-0.3125,-0.1875,0.375
1480526616652878,0.25,-0.375,-0.4375
1480526616666915,0.6875,0,-0.125
1480526616695993,0.3125,-0.375,-0.25
1480526616714042,-0.125,-0.375,-0.3125
1480526616727076,0.0625,-0.3125,-0.4375
1480526616750137,0.5625,-0.4375,-0.375
1480526616772697,0.3125,-0.5,-0.4375
1480526616793753,0,-0.5,-0.3125
1480526616810298,0.6875,-0.375,-0.0625
1480526616838872,0.75,-0.3125,0.0625
1480526616853913,1.125,-0.5,-0.1875
1480526616870959,1.875,-0.4375,-0.4375
1480526616893017,0.0625,-0.6875,-0.75
1480526616915079,0,-0.75,-0.6875
