timestamp,roll,pitch,yaw
1480526550639275,-1.18166,0.00689378,0.262957
1480526550659330,-1.18166,0.00689378,0.262957
1480526550675875,-1.18168,0.00679331,0.263027
1480526550698432,-1.18168,0.00679331,0.263027
1480526550720993,-1.18168,0.00679331,0.263027
1480526550736032,-1.18165,0.00680188,0.263014
1480526550759094,-1.18165,0.00680188,0.263014
1480526550779649,-1.18237,0.00699567,0.262946
1480526550795690,-1.18306,0.00728983,0.262809
1480526550825773,-1.18374,0.00775188,0.262706
1480526550841814,-1.1843,0.00802383,0.262574
1480526550863371,-1.18466,0.00848294,0.262293
1480526550878412,-1.18466,0.00848294,0.262293
1480526550900971,-1.18485,0.00899603,0.262109
1480526550916115,-1.1849,0.00888721,0.262192
1480526550938571,-1.18485,0.00899603,0.262109
1480526550960630,-1.18502,0.00900957,0.262117
1480526550975169,-1.18502,0.00900957,0.262117
1480526550998229,-1.18504,0.00890922,0.262187
1480526551020790,-1.18518,0.00902311,0.262125
1480526551035328,-1.18515,0.00903157,0.262112
1480526551058892,-1.18515,0.00903157,0.262112
1480526551080949,-1.18515,0.00903157,0.262112
1480526551103510,-1.18532,0.00904511,0.26212
1480526551118550,-1.18532,0.00904511,0.26212
1480526551140608,-1.1853,0.00914545,0.26205
1480526551155147,-1.1853,0.00914545,0.26205
1480526551178209,-1.18526,0.00954914,0.262223
1480526551207299,-1.18524,0.00962523,0.262314
1480526551216812,-1.18541,0.0096388,0.262322
1480526551238869,-1.18538,0.00973914,0.262252
1480526551261430,-1.18538,0.00973914,0.262252
1480526551276470,-1.18552,0.00976114,0.262247
1480526551298528,-1.18552,0.00976114,0.262247
1480526551320587,-1.18552,0.00976114,0.262247
1480526551344149,-1.18552,0.00976114,0.262247
1480526551358187,-1.18566,0.00987504,0.262185
1480526551381249,-1.18564,0.00988346,0.262172
1480526551401803,-1.18564,0.00995114,0.262276
1480526551425869,-1.18564,0.00995114,0.262276
1480526551448427,-1.18581,0.00996472,0.262284
1480526551461963,-1.18578,0.010065,0.262215
1480526551486028,-1.18578,0.010065,0.262215
1480526551500566,-1.18592,0.010087,0.26221
1480526551523125,-1.18593,0.0101547,0.262314
1480526551538667,-1.18592,0.010087,0.26221
1480526551561227,-1.18593,0.0101547,0.262314
1480526551589301,-1.18604,0.010277,0.262239
1480526551598325,-1.18604,0.010277,0.262239
1480526551620885,-1.18621,0.0102906,0.262247
1480526551641944,-1.18621,0.0102906,0.262247
1480526551666508,-1.18618,0.010299,0.262234
1480526551681047,-1.18632,0.0104129,0.262172
1480526551702102,-1.18632,0.0104129,0.262172
1480526551719648,-1.18633,0.0104806,0.262276
1480526551740705,-1.18649,0.0104942,0.262284
1480526551761760,-1.18646,0.0105026,0.262271
1480526551778304,-1.18646,0.0105026,0.262271
1480526551801366,-1.18647,0.0105268,0.262111
1480526551823927,-1.18642,0.0106355,0.262028
1480526551838464,-1.18642,0.0107032,0.262132
1480526551861024,-1.18632,0.0103452,0.262068
1480526551883083,-1.18648,0.0103588,0.262076
1480526551898123,-1.18619,0.0103909,0.262177
1480526551920684,-1.18574,0.0103092,0.26234
1480526551950763,-1.18563,0.0101868,0.262414
1480526551957783,-1.18563,0.0101868,0.262414
1480526551980844,-1.18577,0.0102765,0.262513
1480526552009420,-1.18577,0.0102765,0.262513
1480526552017441,-1.18575,0.0103769,0.262444
1480526552041505,-1.18591,0.0103905,0.262452
1480526552070582,-1.18591,0.0103905,0.262452
1480526552085120,-1.18591,0.0103905,0.262452
1480526552108182,-1.18591,0.0103905,0.262452
1480526552123222,-1.18605,0.0104125,0.262447
1480526552138262,-1.18605,0.0104125,0.262447
1480526552160822,-1.18605,0.0104125,0.262447
1480526552183382,-1.18605,0.0104125,0.262447
1480526552197419,-1.18621,0.0104261,0.262455
1480526552220982,-1.18619,0.0104345,0.262442
1480526552243041,-1.18619,0.0104345,0.262442
1480526552257579,-1.18619,0.0104345,0.262442
1480526552280642,-1.18617,0.0105348,0.262372
1480526552303201,-1.18617,0.0106025,0.262476
1480526552333280,-1.18617,0.0106025,0.262476
1480526552340802,-1.18617,0.0106025,0.262476
1480526552363361,-1.18633,0.0106161,0.262484
1480526552384416,-1.18631,0.0106245,0.262471
1480526552400961,-1.18631,0.0106245,0.262471
1480526552431542,-1.18647,0.0106381,0.262479
1480526552444576,-1.18647,0.0106381,0.262479
1480526552460622,-1.18645,0.0107384,0.262409
1480526552483681,-1.18645,0.0107384,0.262409
1480526552504236,-1.18645,0.0107384,0.262409
1480526552520780,-1.18661,0.010752,0.262417
1480526552543340,-1.18659,0.0107604,0.262404
1480526552564395,-1.18675,0.010774,0.262412
1480526552580940,-1.18675,0.010774,0.262412
1480526552603500,-1.18675,0.0108417,0.262516
1480526552626561,-1.18671,0.0109504,0.262433
1480526552641099,-1.18671,0.0109504,0.262433
1480526552663158,-1.18687,0.010964,0.262441
1480526552684214,-1.18687,0.010964,0.262441
1480526552700758,-1.18687,0.010964,0.262441
1480526552723318,-1.18703,0.0109776,0.26245
1480526552745879,-1.18701,0.010986,0.262436
1480526552768438,-1.18699,0.011154,0.26247
1480526552783479,-1.18715,0.0111677,0.262479
1480526552806038,-1.18715,0.0110999,0.262375
1480526552820577,-1.18715,0.0110999,0.262375
1480526552843137,-1.18715,0.0111677,0.262479
1480526552865697,-1.18713,0.011176,0.262465
1480526552880246,-1.18713,0.011176,0.262465
1480526552903297,-1.18729,0.0111897,0.262473
1480526552925858,-1.18729,0.0111897,0.262473
1480526552948418,-1.18743,0.0112117,0.262468
1480526552963461,-1.18743,0.0112117,0.262468
1480526552986017,-1.18743,0.0112117,0.262468
1480526553000054,-1.18757,0.0113255,0.262407
1480526553023117,-1.18757,0.0113255,0.262407
1480526553045675,-1.18757,0.0113255,0.262407
1480526553060214,-1.18771,0.0113475,0.262402
1480526553084780,-1.18771,0.0114153,0.262506
1480526553122379,-1.18771,0.0114153,0.262506
1480526553126901,-1.18771,0.0114153,0.262506
1480526553143436,-1.18771,0.0114153,0.262506
1480526553165995,-1.18769,0.0115156,0.262436
1480526553180035,-1.18769,0.0115156,0.262436
1480526553203094,-1.18769,0.0115156,0.262436
1480526553225654,-1.18783,0.0115376,0.262431
1480526553263755,-1.18783,0.0115376,0.262431
1480526553266262,-1.18783,0.0115376,0.262431
1480526553286316,-1.18783,0.0115376,0.262431
1480526553306870,-1.18799,0.0115512,0.262439
1480526553323916,-1.18799,0.0115512,0.262439
1480526553345976,-1.18797,0.0115596,0.262426
1480526553367030,-1.18813,0.0115732,0.262434
1480526553390092,-1.18811,0.0116734,0.262364
1480526553405634,-1.18825,0.0117632,0.262463
1480526553428193,-1.18825,0.0117632,0.262463
1480526553443234,-1.18825,0.0116954,0.262359
1480526553466295,-1.18842,0.0117769,0.262471
1480526553486849,-1.18842,0.0117769,0.262471
1480526553503396,-1.18839,0.0117852,0.262457
1480526553525953,-1.18839,0.0117852,0.262457
1480526553547010,-1.18855,0.0117989,0.262466
1480526553563553,-1.18853,0.0118991,0.262396
1480526553585612,-1.18853,0.0118991,0.262396
1480526553606668,-1.18853,0.0118991,0.262396
1480526553623212,-1.18867,0.0119211,0.262391
1480526553645774,-1.18867,0.0119211,0.262391
1480526553668833,-1.18867,0.0119211,0.262391
1480526553683372,-1.18867,0.0119211,0.262391
1480526553706434,-1.18867,0.0119889,0.262494
1480526553728493,-1.18867,0.0119889,0.262494
1480526553742529,-1.18865,0.0120891,0.262425
1480526553773110,-1.18865,0.0120891,0.262425
1480526553788150,-1.18882,0.0121028,0.262433
1480526553802689,-1.18882,0.0121028,0.262433
1480526553825751,-1.18882,0.0121028,0.262433
1480526553848312,-1.18882,0.0121028,0.262433
1480526553862850,-1.18879,0.0121111,0.262419
1480526553885910,-1.18896,0.0121248,0.262428
1480526553908471,-1.18879,0.0121111,0.262419
1480526553931532,-1.18852,0.012135,0.262534
1480526553946072,-1.18866,0.012157,0.262528
1480526553968129,-1.18866,0.012157,0.262528
1480526553982668,-1.18808,0.0120095,0.262432
1480526554013253,-1.18808,0.0120095,0.262432
1480526554028289,-1.18808,0.0120095,0.262432
1480526554042828,-1.18808,0.0120095,0.262432
1480526554065890,-1.18808,0.0120095,0.262432
1480526554088462,-1.18808,0.0120095,0.262432
1480526554102487,-1.18822,0.0120994,0.262531
1480526554126051,-1.18822,0.0120994,0.262531
1480526554148108,-1.18821,0.0120315,0.262427
1480526554162647,-1.18822,0.0120994,0.262531
1480526554185707,-1.1882,0.0121996,0.262461
1480526554208271,-1.1882,0.0121996,0.262461
1480526554229324,-1.1882,0.0121996,0.262461
1480526554245869,-1.18822,0.0120994,0.262531
1480526554268428,-1.18838,0.012113,0.262539
1480526554289484,-1.18836,0.0122132,0.262469
1480526554308034,-1.18838,0.012113,0.262539
1480526554328087,-1.18836,0.0121213,0.262525
1480526554349143,-1.1885,0.0122352,0.262464
1480526554366189,-1.1885,0.0122352,0.262464
1480526554388247,-1.1885,0.0122352,0.262464
1480526554409304,-1.1885,0.0122352,0.262464
1480526554426348,-1.18832,0.0124815,0.262433
1480526554448757,-1.18772,0.0124103,0.262427
1480526554478488,-1.18714,0.0123307,0.262435
1480526554486006,-1.18656,0.0121591,0.262499
1480526554508569,-1.18601,0.0120035,0.262415
1480526554529122,-1.18513,0.0117963,0.262476
1480526554545666,-1.18426,0.0114455,0.262343
1480526554568225,-1.18398,0.0113339,0.262249
1480526554589281,-1.18369,0.0113228,0.262085
1480526554613347,-1.18322,0.0111629,0.261706
1480526554628387,-1.18262,0.0111165,0.261539
1480526554650947,-1.18232,0.0111731,0.26148
1480526554673507,-1.18214,0.0112846,0.261242
1480526554688545,-1.18168,0.0113277,0.261175
1480526554711106,-1.18168,0.0113277,0.261175
1480526554725646,-1.18166,0.011336,0.261162
1480526554748422,-1.18182,0.0113496,0.26117
1480526554770764,-1.1812,0.0114466,0.261199
1480526554785303,-1.1812,0.0114466,0.261199
1480526554814380,-1.18136,0.0114602,0.261207
1480526554831927,-1.18136,0.0114602,0.261207
1480526554844962,-1.18136,0.0114602,0.261207
1480526554868524,-1.18136,0.0114602,0.261207
1480526554890584,-1.18136,0.0114602,0.261207
1480526554905123,-1.18148,0.0115826,0.261132
1480526554928183,-1.18148,0.0115826,0.261132
1480526554951244,-1.18177,0.0118535,0.261273
1480526554965282,-1.18191,0.0118754,0.261268
1480526554988344,-1.18191,0.0118754,0.261268
1480526555010905,-1.18191,0.0118754,0.261268
1480526555024943,-1.18191,0.0118754,0.261268
1480526555049004,-1.18205,0.0119894,0.261207
1480526555071063,-1.18202,0.0119977,0.261194
1480526555100641,-1.18203,0.0120652,0.261298
1480526555108165,-1.18219,0.0120788,0.261306
1480526555131724,-1.18216,0.0120871,0.261293
1480526555152279,-1.18231,0.0122011,0.261231
1480526555168824,-1.18233,0.0121007,0.261301
1480526555173837,-1.18233,0.0121007,0.261301
1480526555196396,-1.18231,0.0122011,0.261231
1480526555213944,-1.18231,0.0122011,0.261231
1480526555233495,-1.18247,0.0122147,0.261239
1480526555256055,-1.18244,0.012223,0.261226
1480526555278615,-1.18244,0.012223,0.261226
1480526555301176,-1.18261,0.0122366,0.261234
1480526555316215,-1.18261,0.0122366,0.261234
1480526555347801,-1.18261,0.0122366,0.261234
1480526555353815,-1.18258,0.0122449,0.261221
1480526555383895,-1.18258,0.0123124,0.261325
1480526555415834,-1.18275,0.012326,0.261333
1480526555417985,-1.18273,0.0124265,0.261263
1480526555436034,-1.18273,0.0124265,0.261263
1480526555458594,-1.18273,0.0124265,0.261263
1480526555473634,-1.18286,0.0124483,0.261258
1480526555503713,-1.18286,0.0124483,0.261258
1480526555518754,-1.18303,0.0124619,0.261266
1480526555533794,-1.18303,0.0124619,0.261266
1480526555556354,-1.18303,0.0124619,0.261266
1480526555579923,-1.18303,0.0124619,0.261266
1480526555593453,-1.18298,0.0125706,0.261183
1480526555616014,-1.18314,0.0125842,0.261191
1480526555647598,-1.18314,0.0125842,0.261191
1480526555653613,-1.18328,0.0126061,0.261186
1480526555676172,-1.18328,0.0126737,0.26129
1480526555698732,-1.18328,0.0126737,0.26129
1480526555729815,-1.18328,0.0126737,0.26129
1480526555736332,-1.18345,0.0126873,0.261298
1480526555767415,-1.18345,0.0126873,0.261298
1480526555780951,-1.18342,0.0126955,0.261285
1480526555795991,-1.18342,0.0126955,0.261285
1480526555821560,-1.18359,0.0127091,0.261293
1480526555833591,-1.18356,0.0128095,0.261223
1480526555856151,-1.18356,0.0128095,0.261223
1480526555878712,-1.18359,0.0127091,0.261293
1480526555895255,-1.18373,0.0128232,0.261231
1480526555923832,-1.1837,0.0128314,0.261218
1480526555938871,-1.1837,0.0128314,0.261218
1480526555953912,-1.1837,0.0128314,0.261218
1480526555975971,-1.1837,0.0128314,0.261218
1480526555998531,-1.18387,0.012845,0.261226
1480526556015075,-1.18387,0.012845,0.261226
1480526556036130,-1.18384,0.0128533,0.261213
1480526556058691,-1.184,0.0128669,0.261221
1480526556075234,-1.18399,0.0130349,0.261255
1480526556096290,-1.18399,0.0130349,0.261255
1480526556118850,-1.18399,0.0130349,0.261255
1480526556134893,-1.18412,0.0130567,0.26125
1480526556163970,-1.1841,0.0131571,0.26118
1480526556178509,-1.1841,0.0131571,0.26118
1480526556195053,-1.18427,0.0131708,0.261188
1480526556216110,-1.18424,0.0132466,0.261279
1480526556238669,-1.18424,0.0132466,0.261279
1480526556255213,-1.18441,0.0132603,0.261287
1480526556276269,-1.18441,0.0132603,0.261287
1480526556298830,-1.18439,0.0133606,0.261217
1480526556314872,-1.18439,0.0133606,0.261217
1480526556339939,-1.18452,0.0133825,0.261212
1480526556358490,-1.18452,0.0133825,0.261212
1480526556375035,-1.18469,0.0133961,0.26122
1480526556396087,-1.18464,0.0135723,0.261241
1480526556421656,-1.18467,0.0135641,0.261254
1480526556435192,-1.18464,0.0135723,0.261241
1480526556456247,-1.18481,0.013586,0.261249
1480526556478808,-1.18481,0.013586,0.261249
1480526556495352,-1.18481,0.013586,0.261249
1480526556523928,-1.18481,0.013586,0.261249
1480526556538466,-1.18495,0.0136078,0.261244
1480526556556515,-1.18495,0.0136078,0.261244
1480526556576567,-1.18511,0.0136215,0.261252
1480526556598626,-1.18506,0.01373,0.261169
1480526556616674,-1.18523,0.0137437,0.261177
1480526556636226,-1.18523,0.0137437,0.261177
1480526556658788,-1.18523,0.0137437,0.261177
1480526556676835,-1.18523,0.0138114,0.261281
1480526556696386,-1.1852,0.0138196,0.261268
1480526556721453,-1.18535,0.0139335,0.261206
1480526556741006,-1.18535,0.0139335,0.261206
1480526556757549,-1.1852,0.0138196,0.261268
1480526556786126,-1.18537,0.0139009,0.26138
1480526556801165,-1.18535,0.0140012,0.26131
1480526556823725,-1.18537,0.0139009,0.26138
1480526556838765,-1.18535,0.0140012,0.26131
1480526556862829,-1.18519,0.0141474,0.26135
1480526556876366,-1.18517,0.0141556,0.261336
1480526556907450,-1.18517,0.0141556,0.261336
1480526556920984,-1.18505,0.0139657,0.261307
1480526556939032,-1.18519,0.0140797,0.261246
1480526556974127,-1.18519,0.0140797,0.261246
1480526556984153,-1.18519,0.0140797,0.261246
1480526557013731,-1.18519,0.0141474,0.26135
1480526557018744,-1.18505,0.0140334,0.261411
1480526557043811,-1.18505,0.0140334,0.261411
1480526557056344,-1.18507,0.0139331,0.261481
1480526557078403,-1.18505,0.0140334,0.261411
1480526557103971,-1.18505,0.0140334,0.261411
1480526557117507,-1.18505,0.0140334,0.261411
1480526557141570,-1.1845,0.0138538,0.261489
1480526557161123,-1.1845,0.0138538,0.261489
1480526557177667,-1.1845,0.0138538,0.261489
1480526557198723,-1.1845,0.0138538,0.261489
1480526557221282,-1.18463,0.0138757,0.261484
1480526557245347,-1.18463,0.0138757,0.261484
1480526557258882,-1.18463,0.0138757,0.261484
1480526557280942,-1.18463,0.0138757,0.261484
1480526557297486,-1.18465,0.0137753,0.261553
1480526557318541,-1.1848,0.0138894,0.261492
1480526557341104,-1.1848,0.0138894,0.261492
1480526557359150,-1.18463,0.0138757,0.261484
1480526557378701,-1.18463,0.0138757,0.261484
1480526557401261,-1.1848,0.0138894,0.261492
1480526557417820,-1.18463,0.0138757,0.261484
1480526557438861,-1.18463,0.0138757,0.261484
1480526557463928,-1.18465,0.0137753,0.261553
1480526557484985,-1.1848,0.0138894,0.261492
1480526557498520,-1.1848,0.0138894,0.261492
1480526557521080,-1.1848,0.0138894,0.261492
1480526557539128,-1.1848,0.0138894,0.261492
1480526557558679,-1.18477,0.0138975,0.261478
1480526557581365,-1.18477,0.0138975,0.261478
1480526557599288,-1.18477,0.0138975,0.261478
1480526557618847,-1.1848,0.0138894,0.261492
1480526557641400,-1.18477,0.0138975,0.261478
1480526557659448,-1.18477,0.0138975,0.261478
1480526557678499,-1.18493,0.0139112,0.261486
1480526557701059,-1.18493,0.0139112,0.261486
1480526557719107,-1.18549,0.0140908,0.261409
1480526557738659,-1.18549,0.0140908,0.261409
1480526557768739,-1.18535,0.0140689,0.261414
1480526557779267,-1.18549,0.0140908,0.261409
1480526557798819,-1.18549,0.0140908,0.261409
1480526557821379,-1.18549,0.0140908,0.261409
1480526557838926,-1.18549,0.0140908,0.261409
1480526557858478,-1.18549,0.0140908,0.261409
1480526557881039,-1.18549,0.0140908,0.261409
1480526557912622,-1.18563,0.0142048,0.261347
1480526557918637,-1.18547,0.0141911,0.261339
1480526557941198,-1.18564,0.0142725,0.261451
1480526557959245,-1.18561,0.0142807,0.261438
1480526557978815,-1.18561,0.0142807,0.261438
1480526558002361,-1.18561,0.0142807,0.261438
1480526558018904,-1.18577,0.0142944,0.261446
1480526558038456,-1.18577,0.0142944,0.261446
1480526558061017,-1.18577,0.0142944,0.261446
1480526558079065,-1.18577,0.0142944,0.261446
1480526558107644,-1.18577,0.0142944,0.261446
1480526558121176,-1.18557,0.014549,0.261402
1480526558139226,-1.18511,0.014592,0.261336
1480526558160280,-1.18511,0.014592,0.261336
1480526558181336,-1.18511,0.014592,0.261336
1480526558198883,-1.18511,0.014592,0.261336
1480526558221443,-1.18512,0.0146597,0.26144
1480526558248516,-1.18514,0.0145838,0.261349
1480526558263555,-1.18528,0.0146057,0.261344
1480526558280100,-1.18528,0.0146057,0.261344
1480526558301155,-1.18528,0.0146734,0.261447
1480526558323716,-1.18528,0.0146057,0.261344
1480526558340260,-1.18528,0.0146734,0.261447
1480526558361316,-1.18526,0.0147737,0.261378
1480526558384878,-1.18526,0.0147737,0.261378
1480526558399918,-1.18528,0.0146734,0.261447
1480526558420973,-1.18524,0.0147819,0.261365
1480526558443533,-1.1854,0.0147956,0.261373
1480526558461582,-1.18469,0.0147376,0.261651
1480526558481133,-1.18386,0.0145573,0.262003
1480526558503694,-1.18299,0.0146204,0.262482
1480526558527759,-1.18193,0.0143724,0.263457
1480526558541294,-1.17949,0.0141337,0.264449
1480526558571374,-1.17684,0.0138067,0.26564
1480526558581402,-1.17443,0.0126263,0.266822
1480526558600953,-1.17062,0.0103811,0.267546
1480526558623513,-1.16641,0.00684454,0.268193
1480526558641561,-1.16303,0.00306306,0.269213
1480526558661113,-1.16112,0.000373594,0.270219
1480526558683674,-1.15963,-0.00213124,0.270994
1480526558702222,-1.1571,-0.0038401,0.271585
1480526558721273,-1.15455,-0.00518961,0.272086
1480526558743832,-1.15199,-0.0066721,0.272375
1480526558767896,-1.15139,-0.00750906,0.27257
1480526558783939,-1.15079,-0.0084119,0.272659
1480526558803491,-1.15089,-0.00911667,0.272686
1480526558821539,-1.15059,-0.00998283,0.27278
1480526558848611,-1.14942,-0.0109688,0.272871
1480526558880698,-1.14776,-0.0116708,0.27302
1480526558883203,-1.14672,-0.0124277,0.273408
1480526558901251,-1.14645,-0.0128358,0.274237
1480526558923815,-1.14572,-0.0125304,0.274848
1480526558941358,-1.14445,-0.01162,0.275167
1480526558963918,-1.14416,-0.0104253,0.275683
1480526558986979,-1.14433,-0.00902219,0.276265
1480526559001518,-1.1449,-0.00774502,0.276518
1480526559021070,-1.14617,-0.00660509,0.276195
1480526559052655,-1.14881,-0.0047983,0.275712
1480526559061678,-1.15139,-0.00271484,0.275181
1480526559084238,-1.15274,-0.00119693,0.274323
1480526559111310,-1.15374,0.000327498,0.273272
1480526559121337,-1.15508,0.0018523,0.272397
1480526559158936,-1.15703,0.00332198,0.271757
1480526559163448,-1.15786,0.00443232,0.271252
1480526559189018,-1.15785,0.00532224,0.270817
1480526559202552,-1.15755,0.00630794,0.27059
1480526559231129,-1.15775,0.00704937,0.270566
1480526559241656,-1.15795,0.00763199,0.270492
1480526559262714,-1.15821,0.00800357,0.270568
1480526559283768,-1.15821,0.00800357,0.270568
1480526559301816,-1.15821,0.00800357,0.270568
1480526559322371,-1.15821,0.00800357,0.270568
1480526559343427,-1.15821,0.00800357,0.270568
1480526559369497,-1.15821,0.00800357,0.270568
1480526559388548,-1.15804,0.00831582,0.270646
1480526559403587,-1.15804,0.00831582,0.270646
1480526559427652,-1.15804,0.00831582,0.270646
1480526559444195,-1.15796,0.00783071,0.270807
1480526559466755,-1.15771,0.00765778,0.271045
1480526559482296,-1.15689,0.00746875,0.271397
1480526559511374,-1.15583,0.00671393,0.271794
1480526559531428,-1.15504,0.00642295,0.272214
1480526559541454,-1.15406,0.00615282,0.272451
1480526559564014,-1.15308,0.00588246,0.272688
1480526559583598,-1.15172,0.00541511,0.273168
1480526559602116,-1.15033,0.00498273,0.273475
1480526559628686,-1.1488,0.00475996,0.273929
1480526559651250,-1.14783,0.00461965,0.274377
1480526559661775,-1.1476,0.00418519,0.274632
1480526559683833,-1.14776,0.00419936,0.27464
1480526559704889,-1.14789,0.00422239,0.274635
1480526559721433,-1.14789,0.00422239,0.274635
1480526559743993,-1.14876,0.00443549,0.274577
1480526559763545,-1.14987,0.00473026,0.274336
1480526559786105,-1.15084,0.004975,0.274259
1480526559818692,-1.15125,0.00513657,0.274189
1480526559823705,-1.15187,0.00510947,0.274264
1480526559846265,-1.15211,0.00525684,0.274185
1480526559868827,-1.15228,0.00527101,0.274194
1480526559883865,-1.15228,0.00527101,0.274194
1480526559905923,-1.15275,0.00512841,0.274329
1480526559923972,-1.15348,0.00519921,0.27449
1480526559943523,-1.15348,0.00519921,0.27449
1480526559966085,-1.15348,0.00519921,0.27449
1480526559984131,-1.15278,0.00513234,0.274767
1480526560005187,-1.15177,0.00526118,0.275183
1480526560026243,-1.15067,0.00516365,0.275741
1480526560044291,-1.14854,0.00477172,0.276243
1480526560065348,-1.14674,0.00447296,0.276868
1480526560087417,-1.1458,0.00429477,0.277489
1480526560103950,-1.14411,0.00409177,0.2782
1480526560131023,-1.14191,0.00375774,0.279106
1480526560146063,-1.13983,0.00348168,0.279833
1480526560164111,-1.13826,0.0034651,0.280577
1480526560185167,-1.13748,0.0032694,0.281366
1480526560207728,-1.13683,0.00296656,0.281939
1480526560228782,-1.13702,0.00291671,0.282281
1480526560244825,-1.13718,0.00293128,0.282289
1480526560266383,-1.13732,0.00295493,0.282284
1480526560283930,-1.13828,0.00323171,0.282048
1480526560306490,-1.13982,0.00359367,0.281805
1480526560326042,-1.14121,0.003959,0.281407
1480526560344089,-1.14239,0.004587,0.280957
1480526560367151,-1.14335,0.00479712,0.280614
1480526560386201,-1.14417,0.00508504,0.280209
1480526560404249,-1.14495,0.00544712,0.279896
1480526560426809,-1.14579,0.00563289,0.279559
1480526560446362,-1.14677,0.00560901,0.279073
1480526560471428,-1.14792,0.00566475,0.278701
1480526560486468,-1.14869,0.00606138,0.278214
1480526560513539,-1.14961,0.00640622,0.27763
1480526560524069,-1.15,0.00676251,0.277437
1480526560546628,-1.14984,0.00674813,0.277429
1480526560566180,-1.14984,0.00674813,0.277429
1480526560584228,-1.14985,0.00684073,0.277374
1480526560606790,-1.14969,0.00682635,0.277366
1480526560626340,-1.14928,0.00672983,0.277542
1480526560644388,-1.14867,0.00688751,0.277678
1480526560682991,-1.14825,0.00695803,0.277891
1480526560687504,-1.14753,0.00692509,0.277996
1480526560708558,-1.14753,0.00692509,0.277996
1480526560726608,-1.14751,0.0070266,0.277928
1480526560747663,-1.14751,0.0070266,0.277928
1480526560764210,-1.14751,0.0070266,0.277928
1480526560792784,-1.14751,0.0070266,0.277928
1480526560813840,-1.14767,0.00704104,0.277937
1480526560823865,-1.14807,0.00711079,0.27792
1480526560853945,-1.14851,0.00726437,0.277864
1480526560865977,-1.14848,0.00727319,0.27785
1480526560884027,-1.1492,0.00730604,0.277745
1480526560906586,-1.1498,0.0074082,0.277592
1480526560929146,-1.15033,0.00746206,0.277305
1480526560944185,-1.15115,0.00772057,0.277059
1480526560966745,-1.15196,0.00800556,0.276653
1480526560989305,-1.15253,0.00805007,0.27638
1480526561004346,-1.15293,0.00808008,0.276098
1480526561033923,-1.15348,0.00829161,0.275863
1480526561054981,-1.154,0.00857776,0.275718
1480526561064005,-1.15425,0.00875171,0.275479
1480526561086565,-1.15428,0.00874301,0.275493
1480526561107620,-1.15425,0.00881776,0.275585
1480526561124167,-1.15425,0.00881776,0.275585
1480526561146725,-1.15425,0.00881776,0.275585
1480526561167781,-1.15425,0.00881776,0.275585
1480526561183823,-1.15425,0.00881776,0.275585
1480526561206384,-1.15396,0.00884638,0.275687
1480526561227439,-1.15399,0.00883768,0.275701
1480526561248495,-1.15396,0.00884638,0.275687
1480526561266548,-1.15412,0.00886073,0.275695
1480526561289105,-1.15383,0.00888935,0.275798
1480526561308654,-1.15326,0.00873982,0.2757
1480526561326704,-1.15326,0.00873982,0.2757
1480526561349263,-1.15324,0.00890713,0.275737
1480526561368815,-1.15324,0.00890713,0.275737
1480526561386362,-1.15324,0.00890713,0.275737
1480526561408923,-1.15324,0.00890713,0.275737
1480526561428473,-1.15337,0.00893019,0.275732
1480526561446522,-1.15337,0.00893019,0.275732
1480526561476601,-1.15337,0.00893019,0.275732
1480526561490138,-1.15337,0.00893019,0.275732
1480526561506684,-1.15337,0.00893019,0.275732
1480526561529242,-1.15337,0.00893019,0.275732
1480526561548794,-1.15337,0.00893019,0.275732
1480526561566342,-1.15381,0.00899065,0.27573
1480526561588900,-1.15378,0.00909195,0.275661
1480526561609957,-1.15378,0.00909195,0.275661
1480526561626501,-1.15381,0.00899065,0.27573
1480526561649061,-1.15381,0.00899065,0.27573
1480526561668612,-1.15395,0.00910631,0.27567
1480526561694180,-1.15395,0.00910631,0.27567
1480526561709220,-1.15395,0.00910631,0.27567
1480526561728772,-1.15392,0.009115,0.275656
1480526561753839,-1.15408,0.00912935,0.275664
1480526561768879,-1.15392,0.009115,0.275656
1480526561788430,-1.15408,0.00912935,0.275664
1480526561805978,-1.15408,0.00912935,0.275664
1480526561829040,-1.15408,0.00912935,0.275664
1480526561848592,-1.15408,0.00912935,0.275664
1480526561873158,-1.15408,0.00912935,0.275664
1480526561903738,-1.15408,0.00912935,0.275664
1480526561909252,-1.15424,0.0091437,0.275673
1480526561925797,-1.15422,0.00915239,0.275659
1480526561948356,-1.15422,0.00915239,0.275659
1480526561970916,-1.15564,0.00925101,0.275275
1480526561985956,-1.15736,0.00932019,0.27479
1480526562008015,-1.15895,0.0093656,0.27431
1480526562029573,-1.16003,0.00956109,0.273682
1480526562045616,-1.16172,0.00989642,0.273165
1480526562082714,-1.16311,0.0101939,0.272645
1480526562089733,-1.16424,0.0102518,0.27226
1480526562105775,-1.16494,0.0102754,0.271717
1480526562128335,-1.16576,0.0104631,0.271365
1480526562149391,-1.16661,0.0107087,0.271131
1480526562165935,-1.16645,0.0106946,0.271123
1480526562188495,-1.16645,0.0106946,0.271123
1480526562210554,-1.16645,0.0106946,0.271123
1480526562225594,-1.16645,0.0106946,0.271123
1480526562248154,-1.16645,0.0106946,0.271123
1480526562270714,-1.16645,0.0106946,0.271123
1480526562285252,-1.16661,0.0107087,0.271131
1480526562308816,-1.16661,0.0107087,0.271131
1480526562331877,-1.16661,0.0107087,0.271131
1480526562344912,-1.16658,0.0107173,0.271117
1480526562368474,-1.16658,0.0107173,0.271117
1480526562390532,-1.16675,0.0107314,0.271125
1480526562413094,-1.16658,0.0107173,0.271117
1480526562430640,-1.16658,0.0107173,0.271117
1480526562450693,-1.16675,0.0107314,0.271125
1480526562465232,-1.16675,0.0107314,0.271125
1480526562488292,-1.16675,0.0107314,0.271125
1480526562510852,-1.16675,0.0107314,0.271125
1480526562524890,-1.16673,0.010899,0.271161
1480526562547951,-1.16673,0.010899,0.271161
1480526562570511,-1.16673,0.010899,0.271161
1480526562585050,-1.16673,0.0108323,0.271057
1480526562608112,-1.16673,0.010899,0.271161
1480526562631674,-1.16673,0.010899,0.271161
1480526562653237,-1.16673,0.010899,0.271161
1480526562668272,-1.16673,0.010899,0.271161
1480526562690831,-1.16673,0.010899,0.271161
1480526562719407,-1.16673,0.010899,0.271161
1480526562728432,-1.16673,0.010899,0.271161
1480526562751493,-1.16673,0.010899,0.271161
1480526562771546,-1.16687,0.0109217,0.271156
1480526562788090,-1.16687,0.0109217,0.271156
1480526562810650,-1.16687,0.0109217,0.271156
1480526562831711,-1.16687,0.0109217,0.271156
1480526562848250,-1.16687,0.0109217,0.271156
1480526562871312,-1.16687,0.0109217,0.271156
1480526562891867,-1.16687,0.0109217,0.271156
1480526562908410,-1.16687,0.0109217,0.271156
1480526562931472,-1.16687,0.0109217,0.271156
1480526562952026,-1.16687,0.0109217,0.271156
1480526562975589,-1.16687,0.0109217,0.271156
1480526562990629,-1.16687,0.0109217,0.271156
1480526563011687,-1.16687,0.0109217,0.271156
1480526563028229,-1.1667,0.0109076,0.271148
1480526563051290,-1.16673,0.010899,0.271161
1480526563079365,-1.16673,0.010899,0.271161
1480526563088389,-1.16643,0.0108622,0.271159
1480526563110949,-1.16641,0.0110298,0.271195
1480526563139023,-1.16643,0.0109289,0.271263
1480526563148048,-1.16643,0.0109289,0.271263
1480526563170608,-1.16641,0.0110298,0.271195
1480526563193669,-1.16641,0.0110298,0.271195
1480526563208711,-1.16586,0.0106877,0.271222
1480526563231770,-1.16588,0.0106791,0.271235
1480526563253328,-1.16586,0.0106877,0.271222
1480526563275386,-1.16588,0.0106791,0.271235
1480526563290928,-1.16588,0.0106791,0.271235
1480526563312987,-1.16588,0.0106791,0.271235
1480526563327525,-1.16588,0.0106791,0.271235
1480526563352090,-1.16588,0.0106791,0.271235
1480526563373148,-1.16572,0.010665,0.271227
1480526563387686,-1.16588,0.0106791,0.271235
1480526563418266,-1.16588,0.0106791,0.271235
1480526563433307,-1.16604,0.0106009,0.271299
1480526563447845,-1.16588,0.0105867,0.271291
1480526563470906,-1.16588,0.0105867,0.271291
1480526563493467,-1.16604,0.0106009,0.271299
1480526563522042,-1.16587,0.0105201,0.271186
1480526563531567,-1.1659,0.0105115,0.271199
1480526563560646,-1.16651,0.0103919,0.271329
1480526563567664,-1.16649,0.0104928,0.27126
1480526563590726,-1.16638,0.0103692,0.271334
1480526563613287,-1.16638,0.0103692,0.271334
1480526563627825,-1.16638,0.0103692,0.271334
1480526563650885,-1.16638,0.0103692,0.271334
1480526563673448,-1.16638,0.0103692,0.271334
1480526563695504,-1.16638,0.0103692,0.271334
1480526563711547,-1.16638,0.0103692,0.271334
1480526563733104,-1.16635,0.0103778,0.271321
1480526563754159,-1.16638,0.0103692,0.271334
1480526563770704,-1.16638,0.0103692,0.271334
1480526563801285,-1.16638,0.0103692,0.271334
1480526563814320,-1.16638,0.0103692,0.271334
1480526563831365,-1.16638,0.0103692,0.271334
1480526563853424,-1.16621,0.0103551,0.271326
1480526563874479,-1.16621,0.0103551,0.271326
1480526563892026,-1.16638,0.0103692,0.271334
1480526563913083,-1.16621,0.0103551,0.271326
1480526563934138,-1.16621,0.0103551,0.271326
1480526563950682,-1.16621,0.0103551,0.271326
1480526563973744,-1.16638,0.0103692,0.271334
1480526563994298,-1.16621,0.0103551,0.271326
1480526564010843,-1.16621,0.0103551,0.271326
1480526564033904,-1.16621,0.0103551,0.271326
1480526564054458,-1.16621,0.0103551,0.271326
1480526564078021,-1.16621,0.0103551,0.271326
1480526564093061,-1.16621,0.0103551,0.271326
1480526564115621,-1.16638,0.0103692,0.271334
1480526564131664,-1.16594,0.010243,0.271232
1480526564153222,-1.16578,0.0102289,0.271224
1480526564176784,-1.16578,0.0102289,0.271224
1480526564190822,-1.16578,0.0102289,0.271224
1480526564213381,-1.1658,0.0102203,0.271237
1480526564235440,-1.16564,0.0102062,0.271229
1480526564250983,-1.16564,0.0102062,0.271229
1480526564288080,-1.16564,0.0102062,0.271229
1480526564296101,-1.1658,0.0102203,0.271237
1480526564318160,-1.16564,0.0102062,0.271229
1480526564333200,-1.16564,0.0102062,0.271229
1480526564355761,-1.16564,0.0102062,0.271229
1480526564370298,-1.16564,0.0102062,0.271229
1480526564393360,-1.16564,0.0102062,0.271229
1480526564423941,-1.16564,0.0102062,0.271229
1480526564430960,-1.16564,0.0102062,0.271229
1480526564453019,-1.16564,0.0102062,0.271229
1480526564475579,-1.16564,0.0102062,0.271229
1480526564490117,-1.16564,0.0102062,0.271229
1480526564513179,-1.1658,0.0102203,0.271237
1480526564535739,-1.1658,0.0102203,0.271237
1480526564549777,-1.16595,0.0100088,0.271091
1480526564573341,-1.16609,0.0100315,0.271086
1480526564596400,-1.16609,0.0100315,0.271086
1480526564616955,-1.16607,0.010199,0.271122
1480526564633498,-1.16609,0.0100315,0.271086
1480526564655558,-1.16609,0.0100315,0.271086
1480526564676613,-1.16609,0.0100315,0.271086
1480526564700678,-1.16609,0.0100315,0.271086
1480526564715718,-1.16623,0.0100541,0.271081
1480526564738278,-1.16625,0.0100456,0.271094
1480526564753820,-1.16639,0.0100682,0.271089
1480526564775878,-1.16623,0.0100541,0.271081
1480526564804453,-1.16639,0.0100682,0.271089
1480526564813478,-1.16591,0.0102106,0.270954
1480526564835536,-1.16591,0.0102106,0.270954
1480526564856594,-1.16591,0.0102106,0.270954
1480526564873138,-1.16591,0.0102106,0.270954
1480526564895696,-1.16591,0.0102106,0.270954
1480526564926278,-1.16591,0.0102106,0.270954
1480526564933296,-1.16591,0.0102106,0.270954
1480526564955859,-1.16607,0.0102247,0.270962
1480526564978417,-1.16605,0.0102333,0.270948
1480526564993457,-1.16605,0.0102333,0.270948
1480526565015518,-1.16605,0.0102333,0.270948
1480526565036571,-1.16605,0.0102333,0.270948
1480526565054619,-1.16605,0.0102333,0.270948
1480526565081691,-1.16621,0.0102474,0.270957
1480526565098235,-1.16621,0.0102474,0.270957
1480526565113276,-1.16621,0.0102474,0.270957
1480526565135835,-1.16621,0.0102474,0.270957
1480526565158395,-1.16619,0.0103483,0.270888
1480526565173438,-1.16621,0.0102474,0.270957
1480526565195493,-1.16621,0.0102474,0.270957
1480526565219056,-1.16621,0.0102474,0.270957
1480526565232592,-1.16618,0.010256,0.270943
1480526565255655,-1.16621,0.0102474,0.270957
1480526565284230,-1.16618,0.010256,0.270943
1480526565292753,-1.16635,0.0102701,0.270951
1480526565329350,-1.16635,0.0102701,0.270951
1480526565338374,-1.16635,0.0102701,0.270951
1480526565360934,-1.16635,0.0102701,0.270951
1480526565375472,-1.16635,0.0102701,0.270951
1480526565398033,-1.16635,0.0102701,0.270951
1480526565412571,-1.16635,0.0102701,0.270951
1480526565437137,-1.16605,0.0102333,0.270948
1480526565465713,-1.16605,0.0102333,0.270948
1480526565472733,-1.16605,0.0102333,0.270948
1480526565495793,-1.16607,0.0102247,0.270962
1480526565518353,-1.16607,0.0102247,0.270962
1480526565539409,-1.16605,0.0102333,0.270948
1480526565556456,-1.16605,0.0102333,0.270948
1480526565578011,-1.16605,0.0102333,0.270948
1480526565608095,-1.16621,0.0102474,0.270957
1480526565615612,-1.16621,0.0102474,0.270957
1480526565638171,-1.16619,0.0103483,0.270888
1480526565659729,-1.16619,0.0103483,0.270888
1480526565677275,-1.16619,0.0103483,0.270888
1480526565698332,-1.16619,0.0103483,0.270888
1480526565719387,-1.16619,0.0103483,0.270888
1480526565742950,-1.16621,0.0102474,0.270957
1480526565757990,-1.16621,0.0102474,0.270957
1480526565779046,-1.16621,0.0102474,0.270957
1480526565795590,-1.16635,0.0102701,0.270951
1480526565818158,-1.16621,0.0102474,0.270957
1480526565839715,-1.16635,0.0102701,0.270951
1480526565855752,-1.16632,0.010371,0.270882
1480526565878310,-1.16632,0.010371,0.270882
1480526565899366,-1.16632,0.010371,0.270882
1480526565916412,-1.16632,0.010371,0.270882
1480526565944486,-1.16632,0.010371,0.270882
1480526565959526,-1.16632,0.010371,0.270882
1480526565976575,-1.16632,0.010371,0.270882
1480526565998128,-1.16649,0.0103851,0.270891
1480526566020689,-1.16646,0.0103936,0.270877
1480526566035728,-1.16617,0.0104492,0.270819
1480526566058289,-1.16617,0.0104492,0.270819
1480526566086872,-1.16617,0.0104492,0.270819
1480526566095889,-1.16617,0.0104492,0.270819
1480526566117947,-1.16617,0.0104492,0.270819
1480526566140508,-1.16617,0.0104492,0.270819
1480526566155550,-1.16615,0.0105502,0.27075
1480526566178108,-1.16628,0.0106395,0.27085
1480526566201170,-1.16628,0.0105728,0.270745
1480526566215217,-1.16628,0.0106395,0.27085
1480526566238268,-1.16628,0.0106395,0.27085
1480526566261329,-1.16645,0.0106536,0.270858
1480526566274865,-1.16645,0.0106536,0.270858
1480526566304444,-1.16647,0.010486,0.270822
1480526566320486,-1.16644,0.0104946,0.270808
1480526566335025,-1.16644,0.0104946,0.270808
1480526566365606,-1.16658,0.0106096,0.270748
1480526566380648,-1.1666,0.0105087,0.270817
1480526566401702,-1.16674,0.0106237,0.270756
1480526566418248,-1.16675,0.0106904,0.270861
1480526566440808,-1.16674,0.0106237,0.270756
1480526566455346,-1.16672,0.0106322,0.270742
1480526566478407,-1.16672,0.0106989,0.270847
1480526566500465,-1.16672,0.0106989,0.270847
1480526566522022,-1.16672,0.0106989,0.270847
1480526566538566,-1.16672,0.0106989,0.270847
1480526566560625,-1.16688,0.010713,0.270855
1480526566583687,-1.16686,0.0107216,0.270842
1480526566598726,-1.16686,0.0107216,0.270842
1480526566620785,-1.16702,0.0107357,0.27085
1480526566643346,-1.16702,0.0107357,0.27085
1480526566658386,-1.16656,0.0107772,0.270784
1480526566686961,-1.16656,0.0107772,0.270784
1480526566701500,-1.16672,0.0107913,0.270792
1480526566718043,-1.1667,0.0108665,0.270883
1480526566746620,-1.1667,0.0108665,0.270883
1480526566761665,-1.1667,0.0108665,0.270883
1480526566778204,-1.1667,0.0108665,0.270883
1480526566800765,-1.16686,0.0108806,0.270891
1480526566821820,-1.16684,0.0108892,0.270878
1480526566838365,-1.16684,0.0108892,0.270878
1480526566860423,-1.16684,0.0108892,0.270878
1480526566881991,-1.16684,0.0109815,0.270822
1480526566898023,-1.16684,0.0109815,0.270822
1480526566921084,-1.16684,0.0109815,0.270822
1480526566941638,-1.16682,0.0109901,0.270809
1480526566965702,-1.16698,0.0110042,0.270817
1480526566980745,-1.16698,0.0110042,0.270817
1480526567003303,-1.16698,0.0110042,0.270817
1480526567025867,-1.16698,0.0110042,0.270817
1480526567040903,-1.16698,0.0110042,0.270817
1480526567062961,-1.16698,0.0110042,0.270817
1480526567079506,-1.16698,0.0110042,0.270817
1480526567100562,-1.16714,0.0110183,0.270825
1480526567131644,-1.16711,0.0110268,0.270812
1480526567137660,-1.16711,0.0110268,0.270812
1480526567161223,-1.16711,0.0110268,0.270812
1480526567183281,-1.16711,0.0110268,0.270812
1480526567197320,-1.16711,0.0110268,0.270812
1480526567221383,-1.16711,0.0110268,0.270812
1480526567243442,-1.16711,0.0110268,0.270812
1480526567257479,-1.16728,0.0110409,0.27082
1480526567280541,-1.16725,0.0110495,0.270806
1480526567303601,-1.16741,0.0110636,0.270814
1480526567317643,-1.1677,0.0109413,0.270768
1480526567340700,-1.16816,0.0109253,0.270674
1480526567378300,-1.16814,0.0110262,0.270605
1480526567380806,-1.16814,0.0110262,0.270605
1480526567414938,-1.16828,0.0110488,0.2706
1480526567422921,-1.16828,0.0110488,0.2706
1480526567437457,-1.16844,0.0111297,0.270713
1480526567460519,-1.16844,0.0111297,0.270713
1480526567483080,-1.16844,0.0111297,0.270713
1480526567504134,-1.16842,0.0111383,0.270699
1480526567520679,-1.16842,0.0111383,0.270699
1480526567543740,-1.16842,0.0111383,0.270699
1480526567564296,-1.16858,0.0111524,0.270707
1480526567588359,-1.16858,0.0111524,0.270707
1480526567603414,-1.16858,0.0111524,0.270707
1480526567631473,-1.16858,0.0111524,0.270707
1480526567640498,-1.16871,0.011175,0.270702
1480526567663058,-1.16871,0.011175,0.270702
1480526567701158,-1.16871,0.011175,0.270702
1480526567703665,-1.16871,0.011175,0.270702
1480526567731740,-1.16887,0.0111223,0.270606
1480526567751794,-1.16885,0.0111308,0.270592
1480526567766833,-1.16885,0.0111976,0.270697
1480526567783378,-1.16885,0.0111308,0.270592
1480526567804437,-1.16885,0.0111976,0.270697
1480526567820977,-1.16901,0.0112117,0.270705
1480526567844039,-1.16901,0.0112117,0.270705
1480526567864091,-1.16901,0.0112117,0.270705
1480526567880637,-1.16901,0.0111449,0.2706
1480526567903698,-1.16901,0.0111449,0.2706
1480526567931772,-1.16869,0.011209,0.270528
1480526567940796,-1.16871,0.0111082,0.270597
1480526567963356,-1.16871,0.0111082,0.270597
1480526567985916,-1.16887,0.0111223,0.270606
1480526568006470,-1.16885,0.0112231,0.270537
1480526568023016,-1.16887,0.0111223,0.270606
1480526568045575,-1.16887,0.0111223,0.270606
1480526568066630,-1.16885,0.0111308,0.270592
1480526568083174,-1.16885,0.0111308,0.270592
1480526568105738,-1.16929,0.0112825,0.270534
1480526568120274,-1.16942,0.0113051,0.270529
1480526568143335,-1.16942,0.0113051,0.270529
1480526568171911,-1.16942,0.0113051,0.270529
1480526568179932,-1.16942,0.0113051,0.270529
1480526568202995,-1.16942,0.0112383,0.270424
1480526568225554,-1.16942,0.0113051,0.270529
1480526568240092,-1.16959,0.0113192,0.270537
1480526568269170,-1.16959,0.0113192,0.270537
1480526568285713,-1.16956,0.0113277,0.270523
1480526568300252,-1.16972,0.0113418,0.270531
1480526568331838,-1.16972,0.0113418,0.270531
1480526568345874,-1.16972,0.0113418,0.270531
1480526568359911,-1.16972,0.0113418,0.270531
1480526568389491,-1.16984,0.0114652,0.270457
1480526568413053,-1.16984,0.0114652,0.270457
1480526568426588,-1.16984,0.0114652,0.270457
1480526568443132,-1.17,0.0114794,0.270465
1480526568465697,-1.16997,0.0114879,0.270452
1480526568486752,-1.17014,0.011502,0.27046
1480526568503297,-1.1697,0.0114426,0.270462
1480526568525858,-1.16921,0.0118194,0.270468
1480526568546914,-1.16978,0.0119014,0.270459
1480526568562956,-1.16978,0.0119014,0.270459
1480526568585516,-1.16978,0.0119014,0.270459
1480526568606572,-1.16994,0.0119155,0.270468
1480526568623116,-1.16992,0.011924,0.270454
1480526568646178,-1.16992,0.011924,0.270454
1480526568666734,-1.17008,0.0119381,0.270462
1480526568690796,-1.17008,0.0119381,0.270462
1480526568705837,-1.17005,0.0119466,0.270449
1480526568726892,-1.17022,0.0119607,0.270457
1480526568743436,-1.17022,0.0119607,0.270457
1480526568765494,-1.17038,0.0119748,0.270465
1480526568787553,-1.17033,0.012151,0.270487
1480526568803095,-1.17035,0.0119833,0.270451
1480526568825655,-1.17052,0.0119974,0.27046
1480526568846711,-1.1705,0.0121651,0.270495
1480526568863254,-1.1705,0.0121651,0.270495
1480526568885816,-1.17063,0.0121877,0.27049
1480526568908375,-1.17063,0.0121877,0.27049
1480526568923414,-1.17063,0.0121877,0.27049
1480526568945474,-1.1708,0.0122019,0.270498
1480526568969036,-1.1708,0.0122019,0.270498
1480526568991094,-1.17077,0.0122103,0.270484
1480526569013153,-1.17093,0.0122245,0.270492
1480526569028193,-1.17093,0.0122245,0.270492
1480526569042732,-1.17093,0.0122245,0.270492
1480526569080332,-1.17093,0.0122245,0.270492
1480526569089873,-1.17105,0.0123478,0.270418
1480526569102390,-1.17105,0.0123478,0.270418
1480526569125954,-1.17091,0.0123252,0.270424
1480526569148013,-1.17089,0.0123337,0.27041
1480526569162552,-1.17105,0.0124148,0.270523
1480526569185612,-1.17105,0.0124148,0.270523
1480526569208172,-1.17105,0.0124148,0.270523
1480526569222713,-1.17105,0.0124148,0.270523
1480526569245772,-1.17105,0.0124148,0.270523
1480526569268332,-1.17121,0.0124289,0.270531
1480526569282369,-1.17119,0.0124374,0.270517
1480526569305934,-1.17119,0.0124374,0.270517
1480526569327991,-1.17135,0.0124515,0.270525
1480526569350552,-1.17133,0.0125522,0.270456
1480526569365590,-1.17133,0.0125522,0.270456
1480526569388151,-1.1713,0.0125607,0.270443
1480526569416726,-1.17147,0.0125748,0.270451
1480526569425751,-1.17147,0.0125748,0.270451
1480526569449313,-1.17147,0.0125748,0.270451
1480526569469367,-1.17163,0.012589,0.270459
1480526569485411,-1.1716,0.0125974,0.270445
1480526569507970,-1.17176,0.0126116,0.270454
1480526569532039,-1.17176,0.0126116,0.270454
1480526569545570,-1.17176,0.0126116,0.270454
1480526569568130,-1.17174,0.01262,0.27044
1480526569590689,-1.17174,0.01262,0.27044
1480526569605740,-1.1719,0.0126342,0.270448
1480526569628290,-1.1719,0.0126342,0.270448
1480526569656868,-1.17206,0.0126483,0.270456
1480526569665890,-1.17206,0.0126483,0.270456
1480526569695468,-1.17204,0.0126568,0.270443
1480526569709506,-1.17204,0.0126568,0.270443
1480526569733068,-1.17218,0.0128386,0.270486
1480526569748109,-1.17218,0.0128386,0.270486
1480526569776684,-1.1722,0.0126709,0.270451
1480526569786209,-1.17234,0.0126935,0.270445
1480526569808268,-1.1725,0.0127747,0.270558
1480526569831329,-1.1725,0.0127747,0.270558
1480526569845868,-1.17248,0.0128754,0.270489
1480526569867927,-1.17246,0.0128838,0.270475
1480526569890487,-1.17262,0.012898,0.270484
1480526569906028,-1.17262,0.012898,0.270484
1480526569928588,-1.17262,0.012898,0.270484
1480526569950647,-1.17276,0.0129206,0.270478
1480526569965187,-1.17292,0.0129347,0.270486
1480526569988247,-1.17292,0.0129347,0.270486
1480526570010810,-1.17292,0.0129347,0.270486
1480526570024845,-1.17289,0.0129432,0.270473
1480526570047905,-1.17305,0.0129573,0.270481
1480526570077985,-1.17305,0.0129573,0.270481
1480526570085005,-1.17305,0.0129573,0.270481
1480526570108066,-1.17303,0.0129658,0.270467
1480526570130626,-1.17319,0.0129799,0.270475
1480526570146167,-1.17319,0.0129799,0.270475
1480526570168225,-1.17319,0.0129799,0.270475
1480526570190786,-1.17317,0.0130806,0.270406
1480526570220867,-1.17333,0.0130947,0.270414
1480526570228386,-1.17333,0.0130947,0.270414
1480526570250444,-1.17331,0.0131032,0.270401
1480526570264984,-1.17331,0.0131032,0.270401
1480526570288044,-1.17347,0.0131173,0.270409
1480526570311106,-1.17331,0.0131032,0.270401
1480526570331662,-1.17331,0.0131032,0.270401
1480526570361741,-1.17347,0.0131173,0.270409
1480526570370765,-1.17347,0.0131173,0.270409
1480526570391820,-1.17347,0.0131173,0.270409
1480526570408364,-1.17361,0.0131399,0.270403
1480526570430924,-1.17361,0.0131399,0.270403
1480526570451980,-1.17361,0.0131399,0.270403
1480526570468023,-1.17377,0.0131541,0.270411
1480526570490583,-1.17377,0.0131541,0.270411
1480526570511639,-1.17374,0.0131625,0.270398
1480526570528183,-1.17391,0.0131766,0.270406
1480526570550745,-1.17391,0.0131766,0.270406
1480526570571801,-1.17391,0.0131766,0.270406
1480526570595863,-1.17388,0.0131851,0.270392
1480526570610904,-1.17404,0.0131992,0.2704
1480526570632962,-1.17404,0.0131992,0.2704
1480526570648627,-1.17404,0.0131992,0.2704
1480526570670563,-1.17416,0.0133896,0.27043
1480526570699137,-1.17387,0.013445,0.270372
1480526570708163,-1.17387,0.013445,0.270372
1480526570738245,-1.17387,0.013445,0.270372
1480526570752280,-1.17387,0.013445,0.270372
1480526570768323,-1.17387,0.013445,0.270372
1480526570791383,-1.17387,0.013445,0.270372
1480526570812942,-1.17387,0.013445,0.270372
1480526570827980,-1.174,0.0134676,0.270367
1480526570850540,-1.174,0.0134676,0.270367
1480526570873100,-1.17357,0.0134083,0.27037
1480526570888142,-1.17357,0.0134083,0.27037
1480526570910701,-1.17357,0.0134083,0.27037
1480526570933261,-1.1733,0.0134973,0.27059
1480526570955822,-1.17314,0.0134831,0.270582
1480526570970861,-1.17327,0.0135057,0.270576
1480526570992920,-1.17327,0.0135057,0.270576
1480526571015479,-1.17327,0.0135057,0.270576
1480526571031522,-1.17327,0.0135057,0.270576
1480526571053080,-1.17299,0.0133012,0.270538
1480526571067618,-1.17316,0.0133824,0.270651
1480526571090679,-1.17316,0.0133824,0.270651
1480526571119757,-1.17316,0.0133154,0.270546
1480526571128781,-1.17316,0.0133154,0.270546
1480526571150839,-1.17316,0.0133154,0.270546
1480526571172898,-1.17316,0.0133154,0.270546
1480526571187437,-1.17316,0.0133154,0.270546
1480526571210498,-1.17316,0.0133154,0.270546
1480526571233058,-1.17329,0.013338,0.270541
1480526571247598,-1.17316,0.0133154,0.270546
1480526571270662,-1.17318,0.0132147,0.270615
1480526571293219,-1.17331,0.0132373,0.27061
1480526571314275,-1.17329,0.013338,0.270541
1480526571331821,-1.17331,0.0132373,0.27061
1480526571352877,-1.17331,0.0132373,0.27061
1480526571374434,-1.17331,0.0132373,0.27061
1480526571390477,-1.17331,0.0132373,0.27061
1480526571414040,-1.17331,0.0132373,0.27061
1480526571434092,-1.17331,0.0132373,0.27061
1480526571450638,-1.173,0.0133682,0.270643
1480526571473197,-1.17316,0.0133824,0.270651
1480526571494253,-1.17316,0.0133824,0.270651
1480526571510799,-1.173,0.0133682,0.270643
1480526571534360,-1.17316,0.0133824,0.270651
1480526571553917,-1.17316,0.0133824,0.270651
1480526571577975,-1.173,0.0133682,0.270643
1480526571601037,-1.173,0.0133682,0.270643
1480526571614071,-1.173,0.0133682,0.270643
1480526571636632,-1.173,0.0133682,0.270643
1480526571653176,-1.17302,0.0132675,0.270712
1480526571683256,-1.17301,0.0132005,0.270607
1480526571690792,-1.17302,0.0132675,0.270712
1480526571713344,-1.17318,0.0132817,0.27072
1480526571743416,-1.17256,0.0133089,0.270645
1480526571750434,-1.17256,0.0133089,0.270645
1480526571772994,-1.17272,0.013323,0.270654
1480526571795554,-1.17272,0.013323,0.270654
1480526571810597,-1.17256,0.0133089,0.270645
1480526571833154,-1.17272,0.013323,0.270654
1480526571855716,-1.17272,0.013323,0.270654
1480526571870253,-1.17272,0.013323,0.270654
1480526571893314,-1.17272,0.013323,0.270654
1480526571915875,-1.17272,0.013323,0.270654
1480526571930915,-1.17272,0.013323,0.270654
1480526571953474,-1.17272,0.013323,0.270654
1480526571992077,-1.17272,0.013323,0.270654
1480526571996589,-1.17272,0.013323,0.270654
1480526572019150,-1.17286,0.0133456,0.270648
1480526572035693,-1.17286,0.0133456,0.270648
1480526572050733,-1.17286,0.0133456,0.270648
1480526572073295,-1.17286,0.0133456,0.270648
1480526572096354,-1.17286,0.0133456,0.270648
1480526572109891,-1.17286,0.0133456,0.270648
1480526572132952,-1.17286,0.0133456,0.270648
1480526572155513,-1.17286,0.0133456,0.270648
1480526572170050,-1.173,0.0134605,0.270587
1480526572193112,-1.173,0.0134605,0.270587
1480526572215672,-1.17297,0.0134689,0.270573
1480526572236728,-1.17297,0.0134689,0.270573
1480526572253271,-1.17314,0.0134831,0.270582
1480526572275832,-1.17314,0.0134831,0.270582
1480526572296888,-1.17297,0.0134689,0.270573
1480526572312931,-1.17297,0.0134689,0.270573
1480526572335993,-1.17314,0.0134831,0.270582
1480526572364066,-1.17314,0.0134831,0.270582
1480526572373592,-1.17314,0.0134831,0.270582
1480526572395651,-1.17327,0.0135057,0.270576
1480526572416706,-1.17327,0.0135057,0.270576
1480526572433250,-1.17327,0.0135057,0.270576
1480526572455812,-1.17373,0.0134644,0.270642
1480526572485891,-1.17387,0.013487,0.270637
1480526572492909,-1.17387,0.0135541,0.270741
1480526572515470,-1.17387,0.0135541,0.270741
1480526572536525,-1.17387,0.0135541,0.270741
1480526572553073,-1.17401,0.0136689,0.27068
1480526572576131,-1.17401,0.0136689,0.27068
1480526572596685,-1.17401,0.0136689,0.27068
1480526572613230,-1.17401,0.0136689,0.27068
1480526572643310,-1.17415,0.0136915,0.270675
1480526572656846,-1.17415,0.0136915,0.270675
1480526572680911,-1.17488,0.0136534,0.270465
1480526572695448,-1.17376,0.0143844,0.27048
1480526572725528,-1.17376,0.0143844,0.27048
1480526572733049,-1.17373,0.0143928,0.270467
1480526572755610,-1.17389,0.014407,0.270475
1480526572778168,-1.17389,0.014407,0.270475
1480526572792708,-1.17389,0.014407,0.270475
1480526572815769,-1.17389,0.014407,0.270475
1480526572838329,-1.17389,0.014407,0.270475
1480526572852867,-1.17406,0.0144212,0.270483
1480526572876431,-1.17403,0.0144296,0.270469
1480526572897987,-1.17417,0.0145444,0.270408
1480526572912526,-1.17417,0.0145444,0.270408
1480526572935587,-1.17415,0.0145528,0.270394
1480526572958648,-1.17431,0.014567,0.270402
1480526572973187,-1.17431,0.014567,0.270402
1480526573003267,-1.17431,0.0146341,0.270507
1480526573018307,-1.17431,0.0146341,0.270507
1480526573032344,-1.17431,0.0146341,0.270507
1480526573055908,-1.17429,0.0147347,0.270438
1480526573077966,-1.17429,0.0147347,0.270438
1480526573092505,-1.17443,0.0147573,0.270432
1480526573129101,-1.17459,0.0147715,0.27044
1480526573138128,-1.17459,0.0147715,0.27044
1480526573160686,-1.17491,0.0147076,0.270512
1480526573175725,-1.17488,0.014716,0.270498
1480526573198787,-1.17488,0.014716,0.270498
1480526573219842,-1.17486,0.0148166,0.270429
1480526573235885,-1.17486,0.0148166,0.270429
1480526573265464,-1.17486,0.0148166,0.270429
1480526573279000,-1.17503,0.0148308,0.270437
1480526573295545,-1.175,0.0149064,0.270528
1480526573318104,-1.175,0.0149064,0.270528
1480526573339161,-1.17515,0.0150212,0.270467
1480526573355706,-1.17515,0.0150212,0.270467
1480526573378265,-1.17531,0.0150354,0.270475
1480526573399320,-1.17515,0.0150212,0.270467
1480526573415865,-1.17528,0.0150437,0.270461
1480526573452462,-1.17528,0.0150437,0.270461
1480526573458980,-1.17528,0.0150437,0.270461
1480526573475523,-1.17528,0.0150437,0.270461
1480526573498082,-1.17528,0.0150437,0.270461
1480526573519138,-1.17542,0.0151585,0.2704
1480526573535683,-1.17542,0.0151585,0.2704
1480526573558243,-1.17542,0.0151585,0.2704
1480526573579300,-1.17556,0.0151811,0.270394
1480526573595844,-1.17556,0.0152483,0.270499
1480526573632942,-1.17556,0.0152483,0.270499
1480526573646478,-1.17554,0.0153489,0.27043
1480526573655503,-1.17554,0.0153489,0.27043
1480526573678566,-1.17571,0.0153631,0.270438
1480526573700622,-1.17568,0.0153715,0.270424
1480526573715662,-1.17568,0.0153715,0.270424
1480526573738225,-1.17568,0.0153715,0.270424
1480526573760782,-1.17584,0.0153857,0.270432
1480526573774819,-1.17582,0.015394,0.270418
1480526573798382,-1.17583,0.0155534,0.270467
1480526573835480,-1.1758,0.0155618,0.270454
1480526573837989,-1.1758,0.015654,0.270398
1480526573858041,-1.1758,0.015654,0.270398
1480526573880601,-1.17564,0.0156398,0.27039
1480526573903162,-1.1758,0.015654,0.270398
1480526573933240,-1.17578,0.0157296,0.270489
1480526573940761,-1.17578,0.0157296,0.270489
1480526573962819,-1.17578,0.0157296,0.270489
1480526573978360,-1.17594,0.0157438,0.270497
1480526574000420,-1.17594,0.0157438,0.270497
1480526574014958,-1.17594,0.0157438,0.270497
1480526574038021,-1.17594,0.0156766,0.270393
1480526574068099,-1.17594,0.0157438,0.270497
1480526574075619,-1.17608,0.0157664,0.270491
1480526574098179,-1.17608,0.0157664,0.270491
1480526574120740,-1.17608,0.0157664,0.270491
1480526574141795,-1.17608,0.0157664,0.270491
1480526574165859,-1.17606,0.0158669,0.270422
1480526574180900,-1.17608,0.0157664,0.270491
1480526574202958,-1.17581,0.0157212,0.270503
1480526574217998,-1.17567,0.0156736,0.270669
1480526574240558,-1.17537,0.0156368,0.270666
1480526574261613,-1.17497,0.0152419,0.270599
1480526574277657,-1.17497,0.0152419,0.270599
1480526574300723,-1.17511,0.0154239,0.270642
1480526574321775,-1.17511,0.0154239,0.270642
1480526574338318,-1.17511,0.0154239,0.270642
1480526574360377,-1.17511,0.0154239,0.270642
1480526574381934,-1.17525,0.0154465,0.270636
1480526574397977,-1.17525,0.0154465,0.270636
1480526574420537,-1.17527,0.0152787,0.270601
1480526574441592,-1.17525,0.0154465,0.270636
1480526574458137,-1.17541,0.0154607,0.270645
1480526574481198,-1.175,0.0153007,0.270717
1480526574502254,-1.17497,0.0152419,0.270599
1480526574518311,-1.17497,0.015309,0.270703
1480526574541358,-1.17497,0.015309,0.270703
1480526574563432,-1.17497,0.015309,0.270703
1480526574583972,-1.17497,0.0152419,0.270599
1480526574600516,-1.17472,0.0150961,0.270679
1480526574623577,-1.17472,0.0150961,0.270679
1480526574638115,-1.17469,0.0151045,0.270665
1480526574660676,-1.17472,0.0150961,0.270679
1480526574683236,-1.17472,0.0150961,0.270679
1480526574697273,-1.17469,0.0151045,0.270665
1480526574720837,-1.17469,0.0151045,0.270665
1480526574742894,-1.17469,0.0151045,0.270665
1480526574757938,-1.17485,0.0151187,0.270674
1480526574780495,-1.17485,0.0151187,0.270674
1480526574803056,-1.17485,0.0151187,0.270674
1480526574825617,-1.17485,0.0151187,0.270674
1480526574840654,-1.1744,0.0152271,0.270712
1480526574863738,-1.17427,0.0152716,0.270822
1480526574877251,-1.17424,0.0152799,0.270809
1480526574900814,-1.17368,0.0150302,0.270782
1480526574931396,-1.17368,0.0150302,0.270782
1480526574944431,-1.17382,0.0151199,0.270881
1480526574960474,-1.17355,0.0150076,0.270788
1480526574983034,-1.17357,0.0149069,0.270857
1480526575005594,-1.17357,0.0149069,0.270857
1480526575020636,-1.17357,0.0149069,0.270857
1480526575050713,-1.17357,0.0149069,0.270857
1480526575064250,-1.17357,0.0149069,0.270857
1480526575080795,-1.17357,0.0149069,0.270857
1480526575103356,-1.17368,0.0150302,0.270782
1480526575125413,-1.17355,0.0150076,0.270788
1480526575140953,-1.17357,0.0149069,0.270857
1480526575163011,-1.17293,0.0151017,0.270818
1480526575184068,-1.17291,0.0152024,0.270749
1480526575200612,-1.17355,0.0150747,0.270892
1480526575223172,-1.17355,0.0150747,0.270892
1480526575244228,-1.17355,0.0150747,0.270892
1480526575260774,-1.17369,0.0150973,0.270887
1480526575283332,-1.17369,0.0150973,0.270887
1480526575311407,-1.17369,0.0150973,0.270887
1480526575320432,-1.17369,0.0150973,0.270887
1480526575342991,-1.17369,0.0150973,0.270887
1480526575364046,-1.17369,0.0150973,0.270887
1480526575388611,-1.17369,0.0150973,0.270887
1480526575403151,-1.17385,0.0151115,0.270895
1480526575424208,-1.17382,0.0151199,0.270881
1480526575440750,-1.17382,0.0151199,0.270881
1480526575463310,-1.17385,0.0151115,0.270895
1480526575484366,-1.17382,0.0151199,0.270881
1480526575500409,-1.17382,0.0151199,0.270881
1480526575522969,-1.17339,0.0150604,0.270884
1480526575545530,-1.17338,0.0149934,0.27078
1480526575560571,-1.17355,0.0150747,0.270892
1480526575583130,-1.17355,0.0150747,0.270892
1480526575605689,-1.17355,0.0150747,0.270892
1480526575620731,-1.17355,0.0150747,0.270892
1480526575643289,-1.17355,0.0150747,0.270892
1480526575671865,-1.17369,0.0150973,0.270887
1480526575679893,-1.17369,0.0150973,0.270887
1480526575702948,-1.17355,0.0150747,0.270892
1480526575725512,-1.17398,0.0149747,0.27084
1480526575740046,-1.17414,0.014989,0.270848
1480526575763108,-1.17414,0.014989,0.270848
1480526575785668,-1.17414,0.014989,0.270848
1480526575800207,-1.17414,0.014989,0.270848
1480526575823268,-1.17414,0.014989,0.270848
1480526575845829,-1.17414,0.014989,0.270848
1480526575866884,-1.1743,0.0150032,0.270856
1480526575882927,-1.17428,0.0150116,0.270842
1480526575888443,-1.17428,0.0150787,0.270947
1480526575911001,-1.1743,0.0150032,0.270856
1480526575927545,-1.17428,0.0150116,0.270842
1480526575948604,-1.17444,0.0150929,0.270955
1480526575982191,-1.17444,0.0150258,0.27085
1480526575987706,-1.17444,0.0150258,0.27085
1480526576008260,-1.17444,0.0150258,0.27085
1480526576031327,-1.17444,0.0150258,0.27085
1480526576048868,-1.17441,0.0150342,0.270837
1480526576084964,-1.1741,0.0152574,0.270814
1480526576090980,-1.1741,0.0152574,0.270814
1480526576113540,-1.1741,0.0152574,0.270814
1480526576128580,-1.1741,0.0152574,0.270814
1480526576151140,-1.1741,0.0152574,0.270814
1480526576168700,-1.1741,0.0152574,0.270814
1480526576188239,-1.17427,0.0152716,0.270822
1480526576210798,-1.17427,0.0152716,0.270822
1480526576233358,-1.17427,0.0152716,0.270822
1480526576251908,-1.17424,0.0152799,0.270809
1480526576270961,-1.17438,0.0153948,0.270748
1480526576293519,-1.17438,0.0153948,0.270748
1480526576310063,-1.17438,0.0153948,0.270748
1480526576331119,-1.17438,0.0153948,0.270748
1480526576353681,-1.17438,0.0154619,0.270852
1480526576370223,-1.17438,0.0154619,0.270852
1480526576392281,-1.17436,0.0154703,0.270838
1480526576413337,-1.17452,0.0154845,0.270846
1480526576428377,-1.17452,0.0154845,0.270846
1480526576450937,-1.1745,0.0155852,0.270777
1480526576473497,-1.1745,0.0155852,0.270777
1480526576488537,-1.17466,0.0155994,0.270785
1480526576511098,-1.17464,0.0156077,0.270772
1480526576533657,-1.17464,0.0156077,0.270772
1480526576548698,-1.17464,0.0156077,0.270772
1480526576571259,-1.1748,0.015622,0.27078
1480526576593316,-1.1748,0.015622,0.27078
1480526576611364,-1.1748,0.015622,0.27078
1480526576632420,-1.1748,0.015622,0.27078
1480526576653476,-1.17494,0.0156446,0.270774
1480526576668520,-1.17492,0.0158123,0.270809
1480526576698596,-1.17492,0.0158123,0.270809
1480526576713642,-1.17492,0.0157452,0.270705
1480526576728677,-1.17492,0.0158123,0.270809
1480526576751252,-1.17492,0.0158123,0.270809
1480526576773296,-1.17492,0.0158123,0.270809
1480526576788335,-1.17492,0.0158123,0.270809
1480526576810895,-1.1749,0.0159129,0.27074
1480526576833455,-1.1749,0.0159129,0.27074
1480526576850634,-1.1749,0.0159129,0.27074
1480526576871057,-1.17506,0.0159272,0.270748
1480526576893615,-1.17503,0.0159355,0.270735
1480526576916418,-1.17503,0.0159355,0.270735
1480526576931215,-1.17503,0.0159355,0.270735
1480526576956283,-1.1752,0.0159498,0.270743
1480526576969818,-1.1752,0.0159498,0.270743
1480526576993882,-1.17517,0.0159581,0.270729
1480526577021456,-1.17533,0.0159723,0.270737
1480526577029978,-1.17533,0.0159723,0.270737
1480526577054043,-1.1755,0.0159866,0.270745
1480526577073594,-1.17548,0.0161544,0.27078
1480526577090139,-1.17548,0.0161544,0.27078
1480526577111193,-1.17545,0.0161627,0.270767
1480526577133252,-1.17562,0.0161769,0.270775
1480526577155813,-1.17562,0.0161769,0.270775
1480526577170852,-1.17562,0.0161769,0.270775
1480526577193413,-1.17562,0.0161769,0.270775
1480526577209957,-1.17575,0.0161995,0.270769
1480526577231014,-1.17573,0.0163001,0.2707
1480526577253573,-1.1759,0.0163144,0.270708
1480526577270117,-1.17587,0.0163227,0.270694
1480526577298693,-1.17603,0.0163369,0.270702
1480526577313733,-1.17604,0.0164041,0.270806
1480526577332282,-1.17604,0.0164041,0.270806
1480526577350831,-1.17604,0.0164041,0.270806
1480526577373391,-1.17617,0.0164267,0.270801
1480526577389936,-1.17617,0.0164267,0.270801
1480526577410991,-1.17601,0.0164375,0.270633
1480526577433551,-1.17601,0.0164375,0.270633
1480526577451599,-1.17601,0.0164375,0.270633
1480526577471152,-1.17599,0.0165381,0.270564
1480526577493711,-1.17599,0.0165381,0.270564
1480526577511258,-1.17599,0.0165381,0.270564
1480526577530810,-1.17613,0.0165606,0.270558
1480526577553370,-1.17613,0.0166279,0.270662
1480526577571920,-1.17629,0.0166421,0.27067
1480526577590970,-1.17627,0.0166504,0.270657
1480526577624059,-1.17643,0.0166647,0.270665
1480526577637595,-1.17643,0.0166647,0.270665
1480526577651130,-1.17643,0.0166647,0.270665
1480526577676698,-1.17643,0.0166647,0.270665
1480526577695748,-1.17657,0.0166872,0.270659
1480526577719813,-1.17657,0.0166872,0.270659
1480526577733348,-1.17657,0.0166872,0.270659
1480526577755909,-1.17673,0.0167015,0.270667
1480526577770950,-1.17671,0.0168021,0.270598
1480526577793508,-1.17668,0.0168104,0.270584
1480526577819579,-1.17668,0.0168104,0.270584
1480526577831109,-1.17685,0.0168246,0.270592
1480526577853671,-1.17685,0.0168246,0.270592
1480526577875734,-1.17685,0.0168246,0.270592
1480526577890767,-1.17685,0.0168246,0.270592
1480526577916337,-1.17701,0.0168389,0.2706
1480526577935888,-1.17698,0.0168472,0.270586
1480526577953938,-1.17675,0.016601,0.270736
1480526577973488,-1.17672,0.0166093,0.270722
1480526577999056,-1.17672,0.0166093,0.270722
1480526578020113,-1.17689,0.0166235,0.27073
1480526578033647,-1.17672,0.0166093,0.270722
1480526578058719,-1.17689,0.0166235,0.27073
1480526578072250,-1.17689,0.0166235,0.27073
1480526578100826,-1.17689,0.0166235,0.27073
1480526578116122,-1.17689,0.0166235,0.27073
1480526578133914,-1.17686,0.0166318,0.270717
1480526578160986,-1.17702,0.0166461,0.270725
1480526578176026,-1.17702,0.0166461,0.270725
1480526578194074,-1.17702,0.0166461,0.270725
1480526578213627,-1.17702,0.0166461,0.270725
1480526578236186,-1.17702,0.0166461,0.270725
1480526578252730,-1.17702,0.0166461,0.270725
1480526578273284,-1.17661,0.0165534,0.270902
1480526578295845,-1.17601,0.0164797,0.270897
1480526578312390,-1.17606,0.016438,0.271085
1480526578333445,-1.17534,0.0160816,0.271106
1480526578356005,-1.17536,0.0160733,0.27112
1480526578374053,-1.17536,0.0160733,0.27112
1480526578393605,-1.17479,0.0158989,0.271184
1480526578417670,-1.17455,0.0156273,0.271494
1480526578441231,-1.17402,0.0153438,0.271641
1480526578453766,-1.17377,0.0151727,0.271882
1480526578475823,-1.17377,0.0151727,0.271882
1480526578493873,-1.17377,0.0151727,0.271882
1480526578513425,-1.17317,0.0150987,0.271877
1480526578535984,-1.17333,0.015113,0.271885
1480526578554035,-1.17333,0.015113,0.271885
1480526578581107,-1.17292,0.0149527,0.271957
1480526578596144,-1.17289,0.0149611,0.271944
1480526578614192,-1.17289,0.0149611,0.271944
1480526578641264,-1.17305,0.0149754,0.271952
1480526578657307,-1.17305,0.0149754,0.271952
1480526578681371,-1.17305,0.0149754,0.271952
1480526578693402,-1.17305,0.0149754,0.271952
1480526578726490,-1.17305,0.0149754,0.271952
1480526578734011,-1.17305,0.0149754,0.271952
1480526578753563,-1.17305,0.0149754,0.271952
1480526578783643,-1.17305,0.0149083,0.271847
1480526578793669,-1.17307,0.0148077,0.271916
1480526578813739,-1.17307,0.0148077,0.271916
1480526578835781,-1.17307,0.0148077,0.271916
1480526578854331,-1.17307,0.0148077,0.271916
1480526578873381,-1.17307,0.0148077,0.271916
1480526578895941,-1.17307,0.0148077,0.271916
1480526578913990,-1.17307,0.0148077,0.271916
1480526578933541,-1.17307,0.0148077,0.271916
1480526578963621,-1.17323,0.0148219,0.271924
1480526578974149,-1.17323,0.0148219,0.271924
1480526578994704,-1.17307,0.0148077,0.271916
1480526579023280,-1.17323,0.0148219,0.271924
1480526579033807,-1.17321,0.0148304,0.27191
1480526579070908,-1.17321,0.0148304,0.27191
1480526579077424,-1.17321,0.0148304,0.27191
1480526579099985,-1.17337,0.0148446,0.271919
1480526579115024,-1.17337,0.0148446,0.271919
1480526579136080,-1.17337,0.0148446,0.271919
1480526579166661,-1.17337,0.0148446,0.271919
1480526579175187,-1.17337,0.0148446,0.271919
1480526579204762,-1.17334,0.014853,0.271905
1480526579218299,-1.17334,0.014853,0.271905
1480526579240859,-1.17334,0.014853,0.271905
1480526579255899,-1.17351,0.0148673,0.271913
1480526579278458,-1.17351,0.0148673,0.271913
1480526579295003,-1.17351,0.0148673,0.271913
1480526579316058,-1.17424,0.0148968,0.271808
1480526579349146,-1.17424,0.0148968,0.271808
1480526579356667,-1.17424,0.0149639,0.271912
1480526579376218,-1.17424,0.0149639,0.271912
1480526579398277,-1.17424,0.0149639,0.271912
1480526579416326,-1.17438,0.0149866,0.271907
1480526579435877,-1.17438,0.0149866,0.271907
1480526579458438,-1.17436,0.0150873,0.271837
1480526579476486,-1.17454,0.0150009,0.271915
1480526579496038,-1.1745,0.0151099,0.271832
1480526579520104,-1.1745,0.0151099,0.271832
1480526579536647,-1.1745,0.0151099,0.271832
1480526579556198,-1.1745,0.0151099,0.271832
1480526579581264,-1.17466,0.0151242,0.27184
1480526579596304,-1.17466,0.0151242,0.27184
1480526579615856,-1.17466,0.0151242,0.27184
1480526579641424,-1.17466,0.0151242,0.27184
1480526579660976,-1.17479,0.0151469,0.271834
1480526579676016,-1.17479,0.0151469,0.271834
1480526579698576,-1.17479,0.0151469,0.271834
1480526579716625,-1.17479,0.0151469,0.271834
1480526579736177,-1.17479,0.0151469,0.271834
1480526579758738,-1.17494,0.0152618,0.271773
1480526579776283,-1.17493,0.0151696,0.271829
1480526579803858,-1.17493,0.0151696,0.271829
1480526579825915,-1.17507,0.0152845,0.271767
1480526579836443,-1.17507,0.0152845,0.271767
1480526579859011,-1.17509,0.0151839,0.271837
1480526579878555,-1.17505,0.0152929,0.271754
1480526579897108,-1.17521,0.0153743,0.271866
1480526579917659,-1.17521,0.0153743,0.271866
1480526579939718,-1.17521,0.0153743,0.271866
1480526579969296,-1.17521,0.0153743,0.271866
1480526579977318,-1.17535,0.015397,0.271861
1480526580001382,-1.17535,0.015397,0.271861
1480526580016421,-1.17551,0.0154113,0.271869
1480526580037480,-1.17609,0.0154936,0.27186
1480526580066054,-1.17609,0.0154936,0.27186
1480526580082597,-1.17623,0.0156084,0.271799
1480526580097637,-1.17625,0.0155079,0.271868
1480526580118694,-1.17622,0.0155163,0.271854
1480526580137244,-1.17637,0.0156311,0.271793
1480526580157297,-1.17637,0.0156311,0.271793
1480526580182016,-1.17639,0.0155305,0.271862
1480526580196401,-1.1765,0.0156538,0.271787
1480526580218961,-1.1765,0.0156538,0.271787
1480526580238512,-1.1765,0.0156538,0.271787
1480526580256560,-1.17666,0.0156681,0.271795
1480526580279121,-1.17664,0.0156765,0.271782
1480526580298672,-1.17664,0.0156765,0.271782
1480526580316219,-1.1768,0.0156907,0.27179
1480526580353821,-1.1768,0.0156907,0.27179
1480526580358332,-1.1768,0.0156907,0.27179
1480526580382395,-1.17694,0.0157134,0.271784
1480526580398939,-1.17694,0.0157134,0.271784
1480526580418491,-1.17694,0.0157134,0.271784
1480526580436541,-1.17694,0.0157134,0.271784
1480526580459099,-1.17708,0.0158034,0.271883
1480526580495696,-1.17708,0.0157361,0.271778
1480526580497702,-1.17708,0.0157361,0.271778
1480526580526279,-1.17724,0.0158176,0.271891
1480526580538310,-1.17722,0.0159182,0.271822
1480526580568390,-1.17722,0.0159182,0.271822
1480526580578918,-1.17722,0.0159182,0.271822
1480526580598470,-1.17722,0.0159182,0.271822
1480526580616518,-1.17736,0.0159408,0.271816
1480526580639078,-1.17736,0.0159408,0.271816
1480526580660134,-1.17736,0.0159408,0.271816
1480526580676177,-1.17752,0.0159551,0.271824
1480526580698736,-1.17749,0.0159635,0.27181
1480526580718288,-1.17749,0.0159635,0.27181
1480526580740848,-1.17747,0.016064,0.271741
1480526580758897,-1.17764,0.0160783,0.271749
1480526580778448,-1.17764,0.0160783,0.271749
1480526580801008,-1.17764,0.0161456,0.271854
1480526580819058,-1.17761,0.016154,0.27184
1480526580838609,-1.17778,0.0161683,0.271848
1480526580861169,-1.17778,0.0161683,0.271848
1480526580878715,-1.17778,0.0161683,0.271848
1480526580900774,-1.17778,0.0161683,0.271848
1480526580920829,-1.17794,0.0161826,0.271856
1480526580938875,-1.17794,0.0161826,0.271856
1480526580959932,-1.17794,0.0161826,0.271856
1480526580980989,-1.17791,0.016191,0.271842
1480526581011568,-1.17791,0.016191,0.271842
1480526581020092,-1.17806,0.0163058,0.271781
1480526581041147,-1.17806,0.0163058,0.271781
1480526581058694,-1.17805,0.0162136,0.271836
1480526581079750,-1.17819,0.0163284,0.271775
1480526581100807,-1.17836,0.0163427,0.271783
1480526581118855,-1.17833,0.0163511,0.271769
1480526581140411,-1.17833,0.0163511,0.271769
1480526581160966,-1.17833,0.0163511,0.271769
1480526581179015,-1.17833,0.0163511,0.271769
1480526581201574,-1.17833,0.0163511,0.271769
1480526581221126,-1.17833,0.0163511,0.271769
1480526581244689,-1.17849,0.0163654,0.271777
1480526581261233,-1.17847,0.0164659,0.271708
1480526581280786,-1.17847,0.0163738,0.271764
1480526581298832,-1.17863,0.0163881,0.271772
1480526581321393,-1.17861,0.0165559,0.271807
1480526581340945,-1.17875,0.0165786,0.271801
1480526581358994,-1.17875,0.0165112,0.271697
1480526581396091,-1.17875,0.0165786,0.271801
1480526581401105,-1.17891,0.0165929,0.271809
1480526581418651,-1.17891,0.0165929,0.271809
1480526581441211,-1.17891,0.0165929,0.271809
1480526581460763,-1.17905,0.0166155,0.271803
1480526581478812,-1.17905,0.0166155,0.271803
1480526581501874,-1.17921,0.0166298,0.271811
1480526581522427,-1.17921,0.0166298,0.271811
1480526581538971,-1.17919,0.0166382,0.271798
1480526581569051,-1.17917,0.0167387,0.271728
1480526581581085,-1.17917,0.0167387,0.271728
1480526581599132,-1.17935,0.0166525,0.271806
1480526581628711,-1.17933,0.016753,0.271736
1480526581641244,-1.1793,0.0167613,0.271723
1480526581666310,-1.1793,0.0167613,0.271723
1480526581681350,-1.17947,0.0167756,0.271731
1480526581700903,-1.17947,0.0167756,0.271731
1480526581718950,-1.17947,0.0167756,0.271731
1480526581741510,-1.17947,0.0167756,0.271731
1480526581761062,-1.17947,0.0167756,0.271731
1480526581778613,-1.17933,0.0168203,0.271841
1480526581808690,-1.17919,0.0167056,0.271902
1480526581822727,-1.17864,0.0165227,0.271981
1480526581844785,-1.17864,0.0165227,0.271981
1480526581867346,-1.17877,0.0165454,0.271975
1480526581882384,-1.17877,0.0165454,0.271975
1480526581903443,-1.17877,0.0165454,0.271975
1480526581921489,-1.17836,0.0163853,0.272048
1480526581942545,-1.17836,0.0163853,0.272048
1480526581959089,-1.17852,0.0163996,0.272056
1480526581981148,-1.17852,0.0163996,0.272056
1480526582008722,-1.17852,0.0163996,0.272056
1480526582018748,-1.17849,0.016408,0.272042
1480526582041308,-1.17849,0.016408,0.272042
1480526582062364,-1.17808,0.0162478,0.272115
1480526582078909,-1.17808,0.0162478,0.272115
1480526582102473,-1.17824,0.0162621,0.272123
1480526582122525,-1.17824,0.0162621,0.272123
1480526582139569,-1.17824,0.0162621,0.272123
1480526582161627,-1.17824,0.0162621,0.272123
1480526582183686,-1.17822,0.0162705,0.272109
1480526582203740,-1.17838,0.0162848,0.272117
1480526582228806,-1.17838,0.0162848,0.272117
1480526582244348,-1.17838,0.0162848,0.272117
1480526582263398,-1.17838,0.0162848,0.272117
1480526582287463,-1.17838,0.0162848,0.272117
1480526582304009,-1.17838,0.0162848,0.272117
1480526582331079,-1.17838,0.0162848,0.272117
1480526582341612,-1.17854,0.0162991,0.272125
1480526582363665,-1.17852,0.0163075,0.272111
1480526582383718,-1.17838,0.0162848,0.272117
1480526582401265,-1.17838,0.0162848,0.272117
1480526582423825,-1.17856,0.0161986,0.272195
1480526582443377,-1.17812,0.0159795,0.272149
1480526582465937,-1.17738,0.01595,0.272254
1480526582483985,-1.1774,0.0158495,0.272324
1480526582505543,-1.17713,0.0157368,0.27223
1480526582521585,-1.17713,0.0157368,0.27223
1480526582543644,-1.17696,0.0157225,0.272222
1480526582570716,-1.17713,0.0157368,0.27223
1480526582581244,-1.17713,0.0157368,0.27223
1480526582603302,-1.17713,0.0157368,0.27223
1480526582624358,-1.17713,0.0157368,0.27223
1480526582647921,-1.17715,0.0156363,0.2723
1480526582670482,-1.17713,0.0157368,0.27223
1480526582684017,-1.17713,0.0157368,0.27223
1480526582700561,-1.17758,0.0156288,0.272192
1480526582723122,-1.17758,0.0156288,0.272192
1480526582744178,-1.17758,0.0156288,0.272192
1480526582761222,-1.17758,0.0156288,0.272192
1480526582782780,-1.17758,0.0156288,0.272192
1480526582811857,-1.17756,0.0156372,0.272178
1480526582820381,-1.17772,0.0156515,0.272186
1480526582842940,-1.17772,0.0156515,0.272186
1480526582863996,-1.17772,0.0156515,0.272186
1480526582880541,-1.17772,0.0156515,0.272186
1480526582903102,-1.17772,0.0156515,0.272186
1480526582924156,-1.17772,0.0156515,0.272186
1480526582948221,-1.17772,0.0156515,0.272186
1480526582963260,-1.17772,0.0156515,0.272186
1480526582984316,-1.17772,0.0156515,0.272186
1480526583000359,-1.17772,0.0156515,0.272186
1480526583022919,-1.17772,0.0156515,0.272186
1480526583043975,-1.17772,0.0156515,0.272186
1480526583060519,-1.17788,0.0156658,0.272194
1480526583083581,-1.17788,0.0156658,0.272194
1480526583105638,-1.1779,0.0155652,0.272264
1480526583120679,-1.17788,0.0155737,0.27225
1480526583143239,-1.17788,0.0155737,0.27225
1480526583165799,-1.17817,0.0155434,0.272148
1480526583180839,-1.17817,0.0155434,0.272148
1480526583203401,-1.17817,0.0155434,0.272148
1480526583225457,-1.17818,0.0156107,0.272252
1480526583239996,-1.17817,0.0155434,0.272148
1480526583263057,-1.17817,0.0155434,0.272148
1480526583293144,-1.17834,0.0155577,0.272156
1480526583299655,-1.17834,0.015625,0.272261
1480526583323218,-1.17877,0.0156174,0.272153
1480526583345779,-1.17877,0.0156174,0.272153
1480526583360316,-1.17877,0.0156174,0.272153
1480526583382876,-1.17877,0.0156174,0.272153
1480526583405938,-1.17877,0.0156174,0.272153
1480526583419976,-1.17877,0.0156174,0.272153
1480526583443036,-1.17875,0.0157179,0.272084
1480526583473117,-1.17876,0.0157852,0.272188
1480526583480136,-1.17875,0.0157179,0.272084
1480526583503197,-1.17875,0.0157179,0.272084
1480526583525757,-1.17873,0.0157263,0.27207
1480526583539793,-1.17873,0.0157936,0.272174
1480526583562854,-1.17875,0.0157179,0.272084
1480526583585415,-1.17875,0.0157179,0.272084
1480526583606471,-1.17873,0.0157936,0.272174
1480526583623016,-1.17889,0.0158079,0.272182
1480526583645575,-1.17873,0.0157936,0.272174
1480526583674151,-1.17873,0.0157936,0.272174
1480526583682674,-1.17889,0.0158079,0.272182
1480526583711751,-1.17889,0.0158079,0.272182
1480526583726791,-1.17889,0.0158079,0.272182
1480526583743335,-1.17889,0.0158079,0.272182
1480526583765394,-1.17945,0.0159908,0.272104
1480526583786452,-1.17986,0.016151,0.272031
1480526583803001,-1.17988,0.0160505,0.272101
1480526583825554,-1.17988,0.0160505,0.272101
1480526583846610,-1.17986,0.016151,0.272031
1480526583863154,-1.17986,0.016151,0.272031
1480526583885714,-1.17988,0.0160505,0.272101
1480526583908273,-1.18003,0.0161652,0.272039
1480526583922813,-1.18058,0.0164155,0.272065
1480526583945373,-1.18056,0.0165159,0.271996
1480526583966429,-1.18058,0.0164155,0.272065
1480526583982973,-1.18056,0.0165159,0.271996
1480526584005534,-1.18056,0.0165159,0.271996
1480526584026588,-1.18056,0.0165159,0.271996
1480526584050653,-1.18056,0.0165159,0.271996
1480526584066194,-1.18056,0.0165159,0.271996
1480526584088253,-1.18056,0.0165159,0.271996
1480526584102793,-1.18072,0.0165302,0.272004
1480526584125351,-1.18097,0.0166085,0.271819
1480526584147911,-1.18114,0.0166228,0.271827
1480526584162951,-1.18111,0.0166312,0.271813
1480526584185512,-1.18111,0.0166312,0.271813
1480526584208072,-1.18111,0.0166312,0.271813
1480526584229127,-1.18111,0.0166312,0.271813
1480526584245672,-1.18128,0.016713,0.271925
1480526584275752,-1.18128,0.016713,0.271925
1480526584282268,-1.18128,0.016713,0.271925
1480526584305330,-1.18128,0.016713,0.271925
1480526584333906,-1.18142,0.0167356,0.27192
1480526584342429,-1.18139,0.016836,0.27185
1480526584365490,-1.18139,0.016836,0.27185
1480526584388050,-1.18183,0.0168957,0.271847
1480526584402590,-1.18183,0.0168957,0.271847
1480526584425650,-1.18183,0.0168957,0.271847
1480526584448351,-1.18183,0.0168957,0.271847
1480526584471773,-1.18183,0.0168957,0.271847
1480526584485812,-1.182,0.01691,0.271855
1480526584508872,-1.182,0.01691,0.271855
1480526584522408,-1.18197,0.0169184,0.271841
1480526584560509,-1.18252,0.017101,0.271762
1480526584582178,-1.18252,0.017101,0.271762
1480526584589086,-1.18255,0.0170927,0.271776
1480526584606131,-1.18255,0.0170927,0.271776
1480526584628192,-1.18252,0.017101,0.271762
1480526584649245,-1.18269,0.0171829,0.271875
1480526584665789,-1.18269,0.0171153,0.27177
1480526584687847,-1.18269,0.0171153,0.27177
1480526584710408,-1.18269,0.0171153,0.27177
1480526584731463,-1.18285,0.0171296,0.271779
1480526584748008,-1.18269,0.0171153,0.27177
1480526584769064,-1.18285,0.0171296,0.271779
1480526584800648,-1.18285,0.0171972,0.271883
1480526584808168,-1.18285,0.0171972,0.271883
1480526584830226,-1.18285,0.0171972,0.271883
1480526584845768,-1.18283,0.0172056,0.271869
1480526584868328,-1.18283,0.0172056,0.271869
1480526584897906,-1.18281,0.0173059,0.2718
1480526584905426,-1.18283,0.0172056,0.271869
1480526584935507,-1.18299,0.0172199,0.271877
1480526584956562,-1.18297,0.0173202,0.271808
1480526584965586,-1.18297,0.0173202,0.271808
1480526584988146,-1.18281,0.0173059,0.2718
1480526585010706,-1.18297,0.0173202,0.271808
1480526585025746,-1.18297,0.0173202,0.271808
1480526585048307,-1.18297,0.0173202,0.271808
1480526585070365,-1.18253,0.0171255,0.271602
1480526585085407,-1.18253,0.0171255,0.271602
1480526585107966,-1.18253,0.017193,0.271707
1480526585132028,-1.18253,0.017193,0.271707
1480526585145064,-1.18237,0.0171787,0.271699
1480526585168627,-1.18253,0.017193,0.271707
1480526585190183,-1.18253,0.017193,0.271707
1480526585213245,-1.18253,0.017193,0.271707
1480526585227784,-1.18253,0.0171255,0.271602
1480526585250344,-1.18253,0.017193,0.271707
1480526585272904,-1.18269,0.0172073,0.271715
1480526585287943,-1.18253,0.017193,0.271707
1480526585310504,-1.18253,0.017193,0.271707
1480526585332061,-1.18253,0.017193,0.271707
1480526585348104,-1.18269,0.0172073,0.271715
1480526585370664,-1.18253,0.017193,0.271707
1480526585384702,-1.18253,0.0171255,0.271602
1480526585408766,-1.18269,0.0171398,0.27161
1480526585431325,-1.18267,0.0172157,0.271701
1480526585445363,-1.18269,0.0171398,0.27161
1480526585467922,-1.18271,0.0170394,0.27168
1480526585490483,-1.18271,0.0170394,0.27168
1480526585513043,-1.18271,0.0170394,0.27168
1480526585528083,-1.18255,0.0170251,0.271672
1480526585550642,-1.18255,0.0170251,0.271672
1480526585571699,-1.18255,0.0170251,0.271672
1480526585588243,-1.18255,0.0170251,0.271672
1480526585611304,-1.18255,0.0170251,0.271672
1480526585631357,-1.18238,0.0170108,0.271664
1480526585648639,-1.18255,0.0170251,0.271672
1480526585670461,-1.18255,0.0170251,0.271672
1480526585691531,-1.18255,0.0170251,0.271672
1480526585708061,-1.18255,0.0170251,0.271672
1480526585731624,-1.18255,0.0170251,0.271672
1480526585753181,-1.18238,0.0170108,0.271664
1480526585768221,-1.18241,0.0170025,0.271678
1480526585790280,-1.18243,0.0169021,0.271747
1480526585811837,-1.18243,0.0169021,0.271747
1480526585827880,-1.18243,0.0169021,0.271747
1480526585851443,-1.18226,0.0168203,0.271635
1480526585871495,-1.18226,0.0168203,0.271635
1480526585895560,-1.18226,0.0168203,0.271635
1480526585910604,-1.18226,0.0168203,0.271635
1480526585931656,-1.18226,0.0168203,0.271635
1480526585948205,-1.18231,0.0167116,0.271718
1480526585970761,-1.18229,0.0168119,0.271649
1480526586000841,-1.18215,0.0166973,0.27171
1480526586009363,-1.18215,0.0166973,0.27171
1480526586031422,-1.18198,0.016683,0.271702
1480526586052980,-1.18198,0.016683,0.271702
1480526586068019,-1.18201,0.0166746,0.271716
1480526586090579,-1.18201,0.0166746,0.271716
1480526586113155,-1.18201,0.0166071,0.271611
1480526586127176,-1.18201,0.0166746,0.271716
1480526586150738,-1.18244,0.0166667,0.271608
1480526586172797,-1.18244,0.0166667,0.271608
1480526586188840,-1.18231,0.016644,0.271614
1480526586210398,-1.18231,0.016644,0.271614
1480526586232957,-1.18231,0.016644,0.271614
1480526586255518,-1.18214,0.0166297,0.271606
1480526586278077,-1.18216,0.0164619,0.271571
1480526586293117,-1.18216,0.0164619,0.271571
1480526586307155,-1.18216,0.0164619,0.271571
1480526586331721,-1.18216,0.0164619,0.271571
1480526586352777,-1.18202,0.0164392,0.271577
1480526586367315,-1.18202,0.0164392,0.271577
1480526586390376,-1.18202,0.0164392,0.271577
1480526586420457,-1.18205,0.0163389,0.271646
1480526586427475,-1.18188,0.0163246,0.271638
1480526586450538,-1.18188,0.0163246,0.271638
1480526586473096,-1.18191,0.0163162,0.271652
1480526586494152,-1.18174,0.0162344,0.271539
1480526586518218,-1.18174,0.0162344,0.271539
1480526586533257,-1.18174,0.0162344,0.271539
1480526586555816,-1.1816,0.0162118,0.271545
1480526586570355,-1.18163,0.0161114,0.271614
1480526586592915,-1.18163,0.0161114,0.271614
1480526586621493,-1.18163,0.0161114,0.271614
1480526586632520,-1.18146,0.0160971,0.271606
1480526586659091,-1.18146,0.0160971,0.271606
1480526586674130,-1.18151,0.0159883,0.27169
1480526586691176,-1.18196,0.0158801,0.271652
1480526586713251,-1.1818,0.0158658,0.271644
1480526586735796,-1.18166,0.0157756,0.271545
1480526586750333,-1.18166,0.0157756,0.271545
1480526586772903,-1.18166,0.0157756,0.271545
1480526586795454,-1.1815,0.0157614,0.271537
1480526586810495,-1.18152,0.015661,0.271606
1480526586833053,-1.18154,0.0156526,0.27162
1480526586854616,-1.1818,0.0157983,0.271539
1480526586870653,-1.1818,0.0157983,0.271539
1480526586893716,-1.18166,0.0157081,0.27144
1480526586916051,-1.18168,0.0156078,0.27151
1480526586937833,-1.18168,0.0156078,0.27151
1480526586952872,-1.18168,0.0156078,0.27151
1480526586975433,-1.18168,0.0156078,0.27151
1480526586989971,-1.18168,0.0156078,0.27151
1480526587013033,-1.18168,0.0156078,0.27151
1480526587035593,-1.18154,0.0155851,0.271516
1480526587050131,-1.18184,0.0155545,0.271414
1480526587073193,-1.18184,0.0155545,0.271414
1480526587095752,-1.1817,0.0154399,0.271475
1480526587110291,-1.18169,0.0153724,0.271371
1480526587133854,-1.18169,0.0153724,0.271371
1480526587155411,-1.18169,0.0153724,0.271371
1480526587177971,-1.18169,0.0153724,0.271371
1480526587193012,-1.18156,0.0153498,0.271376
1480526587215572,-1.18158,0.0152494,0.271446
1480526587229608,-1.18158,0.0152494,0.271446
1480526587253171,-1.18158,0.0152494,0.271446
1480526587283251,-1.18141,0.0152351,0.271438
1480526587296787,-1.18144,0.0151592,0.271347
1480526587313332,-1.1819,0.0151184,0.271414
1480526587335392,-1.1819,0.0151184,0.271414
1480526587349928,-1.18173,0.0151042,0.271406
1480526587372990,-1.18173,0.0151042,0.271406
1480526587403070,-1.18173,0.0151042,0.271406
1480526587416606,-1.18175,0.0150282,0.271315
1480526587433150,-1.18161,0.0149136,0.271376
1480526587455710,-1.18161,0.0149136,0.271376
1480526587476766,-1.18145,0.0148994,0.271368
1480526587492809,-1.18191,0.0149505,0.271379
1480526587521384,-1.18175,0.0149363,0.271371
1480526587536425,-1.18177,0.0148359,0.27144
1480526587566504,-1.18177,0.0147684,0.271336
1480526587575530,-1.18163,0.0147458,0.271342
1480526587598590,-1.18163,0.0147458,0.271342
1480526587613130,-1.18163,0.0147458,0.271342
1480526587635689,-1.18163,0.0147458,0.271342
1480526587664265,-1.18147,0.0147316,0.271333
1480526587673289,-1.18151,0.0146227,0.271417
1480526587695353,-1.18151,0.0146227,0.271417
1480526587716904,-1.18151,0.0146227,0.271417
1480526587733450,-1.18135,0.0146085,0.271409
1480526587755509,-1.18135,0.0146085,0.271409
1480526587776563,-1.18138,0.0146,0.271422
1480526587793108,-1.18138,0.0146,0.271422
1480526587815668,-1.18121,0.0145858,0.271414
1480526587838227,-1.18121,0.0145184,0.27131
1480526587852767,-1.18123,0.014418,0.271379
1480526587875327,-1.18123,0.014418,0.271379
1480526587897886,-1.18107,0.0144038,0.271371
1480526587912926,-1.18109,0.0143953,0.271385
1480526587943006,-1.18093,0.0143811,0.271377
1480526587958047,-1.18093,0.0143811,0.271377
1480526587973086,-1.18093,0.0143811,0.271377
1480526587995647,-1.18096,0.0143726,0.27139
1480526588018208,-1.18137,0.0144651,0.271214
1480526588032243,-1.18121,0.0145184,0.27131
1480526588055305,-1.18132,0.014574,0.27113
1480526588077865,-1.18162,0.0145433,0.271029
1480526588092403,-1.18165,0.0145349,0.271042
1480526588115465,-1.18165,0.0145349,0.271042
1480526588138025,-1.18176,0.0146579,0.270967
1480526588152565,-1.18162,0.0145433,0.271029
1480526588183145,-1.18162,0.0145433,0.271029
1480526588198185,-1.18165,0.0145349,0.271042
1480526588220746,-1.18146,0.0146211,0.270965
1480526588235797,-1.18146,0.0146211,0.270965
1480526588257845,-1.18186,0.0148813,0.270823
1480526588272382,-1.18186,0.0148813,0.270823
1480526588295444,-1.18172,0.0148587,0.270828
1480526588325524,-1.18172,0.0148587,0.270828
1480526588332543,-1.18172,0.0148587,0.270828
1480526588355604,-1.1818,0.0152499,0.270718
1480526588378163,-1.18182,0.0152415,0.270732
1480526588406743,-1.18168,0.0151269,0.270793
1480526588415763,-1.18184,0.0151411,0.270802
1480526588445342,-1.18184,0.0151411,0.270802
1480526588458878,-1.18168,0.0151269,0.270793
1480526588475422,-1.18212,0.0151188,0.270686
1480526588498483,-1.18212,0.0151188,0.270686
1480526588519040,-1.18212,0.0151188,0.270686
1480526588535084,-1.18212,0.0151188,0.270686
1480526588565662,-1.18212,0.0151188,0.270686
1480526588579199,-1.18212,0.0151188,0.270686
1480526588595743,-1.18212,0.0151188,0.270686
1480526588617801,-1.18198,0.0150962,0.270692
1480526588638857,-1.18198,0.0150962,0.270692
1480526588655401,-1.18242,0.0151556,0.270689
1480526588677961,-1.18242,0.0151556,0.270689
1480526588699016,-1.18242,0.0151556,0.270689
1480526588715562,-1.18225,0.0151415,0.27068
1480526588738623,-1.18225,0.0151415,0.27068
1480526588759177,-1.18225,0.0151415,0.27068
1480526588783241,-1.18228,0.015133,0.270694
1480526588805300,-1.18228,0.015133,0.270694
1480526588820339,-1.18228,0.015133,0.270694
1480526588835881,-1.18238,0.0153564,0.270549
1480526588857940,-1.18267,0.0153256,0.270448
1480526588886516,-1.18267,0.0153256,0.270448
1480526588895540,-1.18267,0.0153256,0.270448
1480526588918100,-1.18267,0.0153256,0.270448
1480526588940659,-1.18279,0.015381,0.270268
1480526588954697,-1.18297,0.0152273,0.270242
1480526588977758,-1.18295,0.0153276,0.270172
1480526589000820,-1.18295,0.0153276,0.270172
1480526589014858,-1.18278,0.0153134,0.270164
1480526589037918,-1.1828,0.0152131,0.270234
1480526589068000,-1.1828,0.0152131,0.270234
1480526589075023,-1.18281,0.015305,0.270178
1480526589098078,-1.18296,0.0151597,0.270137
1480526589121140,-1.18323,0.0150697,0.269918
1480526589134676,-1.18326,0.0150613,0.269931
1480526589158740,-1.18326,0.0150613,0.269931
1480526589180799,-1.18326,0.0150613,0.269931
1480526589194836,-1.18326,0.0150613,0.269931
1480526589217899,-1.18326,0.0150613,0.269931
1480526589240457,-1.18326,0.0150613,0.269931
1480526589254996,-1.18309,0.0150471,0.269923
1480526589278057,-1.1834,0.0150838,0.269926
1480526589300617,-1.1834,0.0150838,0.269926
1480526589322174,-1.1834,0.0151514,0.27003
1480526589338217,-1.18323,0.0150697,0.269918
1480526589360276,-1.18326,0.0150613,0.269931
1480526589381334,-1.18326,0.0151289,0.270036
1480526589397876,-1.18326,0.0151289,0.270036
1480526589420437,-1.18326,0.0150613,0.269931
1480526589441492,-1.18326,0.0150613,0.269931
1480526589458538,-1.1831,0.0151147,0.270028
1480526589480597,-1.1831,0.0151147,0.270028
1480526589503155,-1.1831,0.0151147,0.270028
1480526589518199,-1.1831,0.0151147,0.270028
1480526589540756,-1.1831,0.0151147,0.270028
1480526589561813,-1.18312,0.0151063,0.270041
1480526589577855,-1.18296,0.0150922,0.270033
1480526589607935,-1.18296,0.0150922,0.270033
1480526589622975,-1.18296,0.0150922,0.270033
1480526589638515,-1.18296,0.0150922,0.270033
1480526589660575,-1.18296,0.0150922,0.270033
1480526589682132,-1.18296,0.0150922,0.270033
1480526589698175,-1.18296,0.0150922,0.270033
1480526589720735,-1.1828,0.015078,0.270025
1480526589749310,-1.18282,0.0150696,0.270039
1480526589757833,-1.18282,0.0150696,0.270039
1480526589788415,-1.18282,0.0150696,0.270039
1480526589802954,-1.18282,0.0150696,0.270039
1480526589817995,-1.18266,0.0150555,0.270031
1480526589840553,-1.18266,0.0150555,0.270031
1480526589863114,-1.18266,0.0150555,0.270031
1480526589878153,-1.18266,0.0150555,0.270031
1480526589900714,-1.18266,0.0149879,0.269926
1480526589922772,-1.18266,0.0150555,0.270031
1480526589937312,-1.18266,0.0150555,0.270031
1480526589960373,-1.18266,0.0150555,0.270031
1480526589990452,-1.1819,0.0150843,0.269801
1480526589997471,-1.18191,0.0151518,0.269906
1480526590020532,-1.18191,0.0151518,0.269906
1480526590043092,-1.18177,0.0151293,0.269911
1480526590057633,-1.18177,0.0151293,0.269911
1480526590081513,-1.18177,0.0151293,0.269911
1480526590103254,-1.18174,0.0151377,0.269898
1480526590117290,-1.18174,0.0151377,0.269898
1480526590140351,-1.18174,0.0151377,0.269898
1480526590163412,-1.18174,0.0151377,0.269898
1480526590177450,-1.18177,0.0151293,0.269911
1480526590208031,-1.18177,0.0151293,0.269911
1480526590236106,-1.18177,0.0151293,0.269911
1480526590247136,-1.18177,0.0151293,0.269911
1480526590260671,-1.18175,0.0152297,0.269842
1480526590283232,-1.18158,0.0152156,0.269834
1480526590304286,-1.1816,0.0151152,0.269903
1480526590320330,-1.18175,0.0152297,0.269842
1480526590342890,-1.18175,0.0152297,0.269842
1480526590365450,-1.18158,0.0152156,0.269834
1480526590380490,-1.18158,0.0152156,0.269834
1480526590403050,-1.18158,0.0152156,0.269834
1480526590424106,-1.18158,0.0152156,0.269834
1480526590448672,-1.18161,0.0152072,0.269847
1480526590463210,-1.18145,0.015193,0.269839
1480526590484266,-1.18161,0.0152072,0.269847
1480526590506325,-1.18145,0.015193,0.269839
1480526590522868,-1.18145,0.015193,0.269839
1480526590543925,-1.18145,0.0152605,0.269943
1480526590560469,-1.18161,0.0152747,0.269951
1480526590583028,-1.18157,0.0153834,0.269868
1480526590604084,-1.18143,0.0153609,0.269874
1480526590628149,-1.18159,0.0153751,0.269882
1480526590650709,-1.18157,0.0153834,0.269868
1480526590664244,-1.18157,0.0153834,0.269868
1480526590680789,-1.18157,0.0153834,0.269868
1480526590703850,-1.18157,0.0153834,0.269868
1480526590725407,-1.18157,0.0153834,0.269868
1480526590740447,-1.18157,0.0153834,0.269868
1480526590763007,-1.18157,0.0153834,0.269868
1480526590785568,-1.18157,0.0153834,0.269868
1480526590800608,-1.18171,0.015498,0.269807
1480526590831189,-1.18157,0.0153834,0.269868
1480526590853248,-1.18157,0.0153834,0.269868
1480526590866784,-1.18141,0.0155288,0.269909
1480526590882826,-1.18141,0.0155288,0.269909
1480526590905386,-1.18123,0.015615,0.269831
1480526590919924,-1.18123,0.015615,0.269831
1480526590942987,-1.18123,0.015615,0.269831
1480526590965547,-1.18123,0.015615,0.269831
1480526590980095,-1.18123,0.015615,0.269831
1480526591010667,-1.18139,0.0156292,0.269839
1480526591025707,-1.18139,0.0156292,0.269839
1480526591039744,-1.18139,0.0156292,0.269839
1480526591063306,-1.18139,0.0156292,0.269839
1480526591085367,-1.18139,0.0156292,0.269839
1480526591099904,-1.18139,0.0156292,0.269839
1480526591123466,-1.18153,0.0156517,0.269834
1480526591145526,-1.18153,0.0156517,0.269834
1480526591168586,-1.18153,0.0156517,0.269834
1480526591183125,-1.18153,0.0156517,0.269834
1480526591205684,-1.18167,0.0158338,0.269877
1480526591227241,-1.18167,0.0158338,0.269877
1480526591242784,-1.18169,0.0156659,0.269842
1480526591265344,-1.18165,0.0158421,0.269863
1480526591286400,-1.18165,0.0158421,0.269863
1480526591302943,-1.18181,0.0158563,0.269871
1480526591325503,-1.18165,0.0158421,0.269863
1480526591346560,-1.18181,0.0158563,0.269871
1480526591363103,-1.18179,0.0159567,0.269801
1480526591385664,-1.18163,0.0159425,0.269793
1480526591406720,-1.18138,0.0158645,0.269978
1480526591422762,-1.18151,0.0158871,0.269973
1480526591445324,-1.18151,0.0158871,0.269973
1480526591466378,-1.18151,0.0158871,0.269973
1480526591482922,-1.18151,0.0158871,0.269973
1480526591505482,-1.18151,0.0158871,0.269973
1480526591526539,-1.18166,0.0160017,0.269911
1480526591550602,-1.18151,0.0158871,0.269973
1480526591565642,-1.18151,0.0158871,0.269973
1480526591586698,-1.18165,0.0159096,0.269967
1480526591602741,-1.18165,0.0159096,0.269967
1480526591625301,-1.18165,0.0159096,0.269967
1480526591663404,-1.18165,0.0159096,0.269967
1480526591665909,-1.18163,0.01601,0.269898
1480526591685461,-1.1813,0.0163765,0.270069
1480526591708021,-1.1813,0.0163765,0.270069
1480526591729076,-1.18088,0.0162168,0.270142
1480526591746123,-1.18063,0.0160713,0.270223
1480526591768183,-1.18063,0.0160713,0.270223
1480526591783222,-1.18063,0.0160713,0.270223
1480526591805781,-1.18023,0.0158786,0.270469
1480526591835359,-1.17996,0.0158088,0.270641
1480526591842378,-1.17996,0.0158762,0.270745
1480526591872960,-1.17996,0.0158088,0.270641
1480526591894015,-1.17996,0.0158088,0.270641
1480526591902539,-1.17993,0.0158171,0.270627
1480526591925599,-1.17993,0.0158171,0.270627
1480526591948663,-1.18046,0.0155669,0.270846
1480526591978240,-1.18014,0.0156979,0.270878
1480526591985761,-1.18012,0.0157983,0.270809
1480526592015453,-1.18012,0.0157983,0.270809
1480526592022358,-1.18014,0.0156979,0.270878
1480526592045419,-1.18014,0.0156979,0.270878
1480526592075498,-1.18011,0.0157063,0.270865
1480526592084022,-1.18028,0.0157205,0.270873
1480526592105578,-1.18028,0.0157205,0.270873
1480526592127637,-1.18028,0.0157205,0.270873
1480526592149195,-1.18028,0.0157205,0.270873
1480526592173260,-1.18028,0.0157205,0.270873
1480526592187797,-1.18028,0.0157205,0.270873
1480526592208853,-1.18028,0.0157205,0.270873
1480526592225398,-1.18028,0.0157205,0.270873
1480526592248165,-1.18026,0.0158209,0.270803
1480526592269515,-1.18026,0.0158209,0.270803
1480526592285558,-1.18028,0.0157205,0.270873
1480526592308117,-1.18026,0.0158209,0.270803
1480526592329173,-1.18026,0.0158209,0.270803
1480526592353238,-1.18028,0.0157205,0.270873
1480526592367776,-1.18028,0.0157205,0.270873
1480526592388851,-1.18028,0.0157205,0.270873
1480526592405376,-1.18026,0.0158209,0.270803
1480526592427936,-1.18026,0.0158209,0.270803
1480526592448992,-1.18026,0.0158209,0.270803
1480526592465536,-1.18012,0.0158657,0.270913
1480526592488096,-1.1795,0.0159599,0.270943
1480526592509152,-1.1795,0.0159599,0.270943
1480526592525696,-1.17967,0.0159741,0.270951
1480526592554775,-1.17967,0.0159741,0.270951
1480526592568811,-1.1795,0.0159599,0.270943
1480526592585355,-1.1795,0.0159599,0.270943
1480526592607916,-1.1795,0.0159599,0.270943
1480526592630474,-1.1795,0.0159599,0.270943
1480526592645515,-1.1795,0.0159599,0.270943
1480526592668074,-1.1795,0.0159599,0.270943
1480526592690635,-1.17967,0.0159741,0.270951
1480526592705675,-1.17967,0.0159741,0.270951
1480526592728235,-1.17967,0.0159741,0.270951
1480526592750295,-1.17967,0.0159741,0.270951
1480526592771349,-1.17967,0.0159741,0.270951
1480526592787894,-1.17964,0.0159825,0.270938
1480526592810454,-1.17967,0.0159741,0.270951
1480526592824992,-1.17967,0.0159741,0.270951
1480526592848054,-1.17966,0.0158821,0.271007
1480526592878134,-1.17964,0.0159825,0.270938
1480526592884654,-1.17966,0.0158821,0.271007
1480526592908214,-1.17966,0.0158821,0.271007
1480526592937792,-1.17983,0.0158963,0.271015
1480526592944811,-1.17983,0.0158963,0.271015
1480526592967874,-1.17983,0.0158963,0.271015
1480526592990432,-1.17983,0.0158963,0.271015
1480526593004972,-1.17983,0.0158963,0.271015
1480526593028032,-1.17983,0.0158963,0.271015
1480526593050592,-1.17966,0.0158821,0.271007
1480526593073152,-1.17982,0.0158289,0.270911
1480526593088192,-1.17966,0.0158147,0.270903
1480526593110752,-1.17983,0.0158963,0.271015
1480526593131307,-1.17966,0.0158821,0.271007
1480526593153867,-1.17952,0.0157921,0.270908
1480526593185952,-1.17969,0.0158063,0.270916
1480526593191467,-1.17969,0.0158063,0.270916
1480526593208011,-1.17952,0.0157921,0.270908
1480526593230571,-1.17998,0.0156837,0.27087
1480526593251628,-1.17998,0.0157511,0.270975
1480526593268172,-1.17998,0.0157511,0.270975
1480526593290230,-1.17998,0.0157511,0.270975
1480526593311286,-1.17998,0.0157511,0.270975
1480526593327829,-1.18014,0.0157653,0.270983
1480526593350390,-1.18014,0.0157653,0.270983
1480526593371445,-1.18014,0.0157653,0.270983
1480526593387991,-1.18014,0.0157653,0.270983
1480526593410550,-1.18012,0.0157737,0.270969
1480526593431605,-1.1801,0.0158741,0.2709
1480526593456171,-1.18014,0.0157653,0.270983
1480526593472214,-1.18012,0.0157737,0.270969
1480526593492769,-1.1801,0.0158741,0.2709
1480526593507808,-1.18026,0.0158883,0.270908
1480526593531371,-1.1801,0.0158741,0.2709
1480526593552929,-1.18026,0.0158883,0.270908
1480526593575490,-1.18026,0.0158883,0.270908
1480526593598048,-1.18026,0.0158883,0.270908
1480526593613090,-1.18026,0.0158883,0.270908
1480526593628128,-1.18026,0.0158883,0.270908
1480526593650688,-1.18026,0.0158883,0.270908
1480526593672747,-1.18026,0.0158883,0.270908
1480526593694807,-1.18026,0.0158883,0.270908
1480526593711351,-1.18026,0.0158883,0.270908
1480526593733409,-1.18042,0.0159026,0.270916
1480526593747446,-1.18026,0.0158883,0.270908
1480526593778027,-1.1804,0.015911,0.270902
1480526593799083,-1.18007,0.0159071,0.270726
1480526593807105,-1.18024,0.0159888,0.270838
1480526593837686,-1.18054,0.0159582,0.270736
1480526593852727,-1.18054,0.0159582,0.270736
1480526593867265,-1.18054,0.0159582,0.270736
1480526593890326,-1.18051,0.0159665,0.270722
1480526593912886,-1.18051,0.0159665,0.270722
1480526593927425,-1.18067,0.0159808,0.27073
1480526593950486,-1.18067,0.0159808,0.27073
1480526593979062,-1.18066,0.0161486,0.270765
1480526593994102,-1.18111,0.0160402,0.270727
1480526594010647,-1.18111,0.0160402,0.270727
1480526594033207,-1.18111,0.0160402,0.270727
1480526594054262,-1.18111,0.0160402,0.270727
1480526594070309,-1.18111,0.0160402,0.270727
1480526594092864,-1.18111,0.0160402,0.270727
1480526594113921,-1.18125,0.0160628,0.270722
1480526594131468,-1.18125,0.0160628,0.270722
1480526594153025,-1.18125,0.0160628,0.270722
1480526594174080,-1.18125,0.0160628,0.270722
1480526594190624,-1.18125,0.0160628,0.270722
1480526594220705,-1.18125,0.0160628,0.270722
1480526594234242,-1.18125,0.0160628,0.270722
1480526594250785,-1.18125,0.0160628,0.270722
1480526594272843,-1.18139,0.0162449,0.270765
1480526594293899,-1.18139,0.0162449,0.270765
1480526594310443,-1.18139,0.0162449,0.270765
1480526594333003,-1.18139,0.0162449,0.270765
1480526594354059,-1.18137,0.0162532,0.270751
1480526594370603,-1.18153,0.0162675,0.270759
1480526594393163,-1.18153,0.0162675,0.270759
1480526594414722,-1.18137,0.0162532,0.270751
1480526594432768,-1.18153,0.0162675,0.270759
1480526594452822,-1.18151,0.0163679,0.270689
1480526594473878,-1.18135,0.0163536,0.270681
1480526594496438,-1.18135,0.0163536,0.270681
1480526594512983,-1.18151,0.0163679,0.270689
1480526594535542,-1.18151,0.0163679,0.270689
1480526594550583,-1.18151,0.0163679,0.270689
1480526594573141,-1.18151,0.0163679,0.270689
1480526594595202,-1.18205,0.0167181,0.270646
1480526594617762,-1.18205,0.0167181,0.270646
1480526594632801,-1.18205,0.0167181,0.270646
1480526594655361,-1.18205,0.0167181,0.270646
1480526594670401,-1.18246,0.0167672,0.270204
1480526594692961,-1.18209,0.0174021,0.270341
1480526594715521,-1.18314,0.0172995,0.270203
1480526594736578,-1.18312,0.0173078,0.270189
1480526594753121,-1.18326,0.0174223,0.270128
1480526594775681,-1.18326,0.0174899,0.270232
1480526594789718,-1.18309,0.0174081,0.27012
1480526594812780,-1.18326,0.0174899,0.270232
1480526594835339,-1.18326,0.0174899,0.270232
1480526594849878,-1.18326,0.0174899,0.270232
1480526594880460,-1.18326,0.0174899,0.270232
1480526594895499,-1.1834,0.0175124,0.270226
1480526594909537,-1.18338,0.0176128,0.270157
1480526594933100,-1.18338,0.0176128,0.270157
1480526594955660,-1.18368,0.0177172,0.270263
1480526594970704,-1.18382,0.0177397,0.270257
1480526594992758,-1.1838,0.01784,0.270188
1480526595015318,-1.1838,0.01784,0.270188
1480526595036374,-1.18396,0.0178542,0.270196
1480526595053419,-1.18396,0.0178542,0.270196
1480526595075478,-1.18394,0.0178625,0.270182
1480526595097035,-1.18392,0.0180305,0.270217
1480526595120598,-1.18392,0.0180305,0.270217
1480526595135640,-1.18408,0.0180447,0.270225
1480526595156694,-1.18408,0.0180447,0.270225
1480526595172738,-1.18408,0.0180447,0.270225
1480526595195298,-1.18422,0.0180672,0.270219
1480526595216353,-1.18422,0.0180672,0.270219
1480526595234403,-1.18422,0.0180672,0.270219
1480526595255457,-1.1842,0.0181675,0.270149
1480526595276514,-1.1842,0.0181675,0.270149
1480526595293057,-1.18436,0.0181818,0.270157
1480526595315752,-1.18434,0.01819,0.270144
1480526595338177,-1.18434,0.0182577,0.270248
1480526595353720,-1.18434,0.0182577,0.270248
1480526595375275,-1.18434,0.0182577,0.270248
1480526595396332,-1.18448,0.0183722,0.270186
1480526595412876,-1.18448,0.0183722,0.270186
1480526595450477,-1.18448,0.0183722,0.270186
1480526595458011,-1.18448,0.0183722,0.270186
1480526595473036,-1.18448,0.0183722,0.270186
1480526595495597,-1.18448,0.0183722,0.270186
1480526595518157,-1.18448,0.0183722,0.270186
1480526595532695,-1.18462,0.0183948,0.27018
1480526595555756,-1.1846,0.0185627,0.270215
1480526595577815,-1.1846,0.0185627,0.270215
1480526595592353,-1.1846,0.0185627,0.270215
1480526595615414,-1.18476,0.018577,0.270223
1480526595637974,-1.18474,0.0185852,0.270209
1480526595652513,-1.18474,0.0185852,0.270209
1480526595675575,-1.18474,0.0185852,0.270209
1480526595698134,-1.18474,0.0185852,0.270209
1480526595712172,-1.1849,0.0185995,0.270217
1480526595735735,-1.1849,0.0185995,0.270217
1480526595757793,-1.1849,0.0185995,0.270217
1480526595772332,-1.18488,0.0186998,0.270148
1480526595795393,-1.18486,0.018708,0.270134
1480526595823969,-1.18502,0.0187223,0.270142
1480526595832492,-1.18502,0.0187223,0.270142
1480526595855554,-1.18502,0.0187223,0.270142
1480526595884130,-1.18502,0.01879,0.270246
1480526595892150,-1.18502,0.01879,0.270246
1480526595915713,-1.18502,0.01879,0.270246
1480526595937773,-1.18514,0.0189127,0.270171
1480526595958827,-1.18514,0.0189127,0.270171
1480526595975372,-1.18484,0.018968,0.270113
1480526595997931,-1.18484,0.018968,0.270113
1480526596018988,-1.18544,0.0188818,0.270069
1480526596035533,-1.18544,0.0189495,0.270173
1480526596058593,-1.18544,0.0189495,0.270173
1480526596079148,-1.18544,0.0189495,0.270173
1480526596095692,-1.18542,0.0190498,0.270103
1480526596125271,-1.18558,0.0190641,0.270111
1480526596138808,-1.18556,0.0190723,0.270097
1480526596162870,-1.18556,0.0190723,0.270097
1480526596178412,-1.18556,0.0190723,0.270097
1480526596198968,-1.18616,0.0192136,0.270206
1480526596215510,-1.18616,0.0192136,0.270206
1480526596238071,-1.18614,0.0192218,0.270192
1480526596266649,-1.1863,0.0192361,0.2702
1480526596275671,-1.18628,0.0193363,0.27013
1480526596298732,-1.18628,0.0193363,0.27013
1480526596318785,-1.18628,0.0193363,0.27013
1480526596335329,-1.18644,0.0193506,0.270138
1480526596357903,-1.18644,0.0193506,0.270138
1480526596380451,-1.18642,0.0193588,0.270124
1480526596401505,-1.18642,0.0193588,0.270124
1480526596418050,-1.18642,0.0193588,0.270124
1480526596440609,-1.1864,0.0195268,0.270159
1480526596455650,-1.1864,0.0195268,0.270159
1480526596478209,-1.18656,0.0195411,0.270167
1480526596506285,-1.18656,0.0195411,0.270167
1480526596515937,-1.18656,0.0195411,0.270167
1480526596537868,-1.18656,0.0195411,0.270167
1480526596560428,-1.1867,0.0195636,0.270161
1480526596582487,-1.18668,0.0196638,0.270091
1480526596598028,-1.18668,0.0196638,0.270091
1480526596620588,-1.18668,0.0196638,0.270091
1480526596625601,-1.18668,0.0196638,0.270091
1480526596642145,-1.18682,0.0196863,0.270085
1480526596663201,-1.18685,0.0197459,0.270203
1480526596685762,-1.18682,0.0196863,0.270085
1480526596702305,-1.18682,0.0197541,0.270189
1480526596723361,-1.18682,0.0197541,0.270189
1480526596745923,-1.1868,0.0198543,0.27012
1480526596762466,-1.1868,0.0198543,0.27012
1480526596786028,-1.1868,0.0198543,0.27012
1480526596806082,-1.18696,0.0198686,0.270128
1480526596822127,-1.18696,0.0198686,0.270128
1480526596843180,-1.18696,0.0198686,0.270128
1480526596865741,-1.18696,0.0198686,0.270128
1480526596883794,-1.18694,0.0198768,0.270114
1480526596903341,-1.18694,0.0199688,0.270058
1480526596927405,-1.18696,0.0198686,0.270128
1480526596942444,-1.18694,0.0198768,0.270114
1480526596963500,-1.18708,0.0199913,0.270052
1480526596993581,-1.18708,0.0199913,0.270052
1480526597003608,-1.18708,0.0199913,0.270052
1480526597023161,-1.18708,0.0200591,0.270156
1480526597045719,-1.18708,0.0200591,0.270156
1480526597063767,-1.18708,0.0200591,0.270156
1480526597083319,-1.18663,0.0201,0.270091
1480526597107383,-1.18663,0.0201678,0.270195
1480526597132450,-1.18663,0.0201678,0.270195
1480526597143480,-1.18663,0.0201678,0.270195
1480526597168547,-1.18663,0.0201678,0.270195
1480526597188601,-1.18663,0.0201678,0.270195
1480526597203140,-1.18663,0.0201678,0.270195
1480526597225698,-1.18663,0.0201678,0.270195
1480526597248758,-1.18663,0.0201678,0.270195
1480526597278839,-1.1866,0.020176,0.270181
1480526597288867,-1.18677,0.0201903,0.270189
1480526597320952,-1.18663,0.0201678,0.270195
1480526597323462,-1.18663,0.0201678,0.270195
1480526597346018,-1.18677,0.0201903,0.270189
1480526597385123,-1.18677,0.0201903,0.270189
1480526597388131,-1.18677,0.0201903,0.270189
1480526597405677,-1.18677,0.0201903,0.270189
1480526597428236,-1.18693,0.0202046,0.270197
1480526597443276,-1.18693,0.0202046,0.270197
1480526597465837,-1.18677,0.0201903,0.270189
1480526597488397,-1.18676,0.0201225,0.270085
1480526597503437,-1.18693,0.0202046,0.270197
1480526597525996,-1.18693,0.0202046,0.270197
1480526597548556,-1.18693,0.0202046,0.270197
1480526597563596,-1.18693,0.0202046,0.270197
1480526597585656,-1.18693,0.0202046,0.270197
1480526597608215,-1.1869,0.0202128,0.270183
1480526597623255,-1.18647,0.0201535,0.270187
1480526597645816,-1.18646,0.0200857,0.270083
1480526597668376,-1.18663,0.0201,0.270091
1480526597690935,-1.18663,0.0201678,0.270195
1480526597705975,-1.18696,0.0198686,0.270128
1480526597730063,-1.1868,0.0198543,0.27012
1480526597743074,-1.18697,0.0199364,0.270232
1480526597767138,-1.18697,0.0199364,0.270232
1480526597788194,-1.18697,0.0199364,0.270232
1480526597803237,-1.18697,0.0199364,0.270232
1480526597825794,-1.18694,0.0199446,0.270218
1480526597856375,-1.18697,0.0199364,0.270232
1480526597873922,-1.18697,0.0199364,0.270232
1480526597893475,-1.18697,0.0199364,0.270232
1480526597908513,-1.18694,0.0199446,0.270218
1480526597925057,-1.18694,0.0199446,0.270218
1480526597946115,-1.18697,0.0199364,0.270232
1480526597968173,-1.18694,0.0199446,0.270218
1480526597986222,-1.18694,0.0199446,0.270218
1480526598007277,-1.18692,0.0200448,0.270148
1480526598028333,-1.18692,0.0200448,0.270148
1480526598044877,-1.18694,0.0199446,0.270218
1480526598065933,-1.18692,0.0200448,0.270148
1480526598088494,-1.18692,0.0200448,0.270148
1480526598105037,-1.18692,0.0200448,0.270148
1480526598125591,-1.18692,0.0200448,0.270148
1480526598148653,-1.18692,0.0200448,0.270148
1480526598166702,-1.18692,0.0200448,0.270148
1480526598193271,-1.18692,0.0200448,0.270148
1480526598219342,-1.18692,0.0200448,0.270148
1480526598224856,-1.18708,0.0200591,0.270156
1480526598247417,-1.18692,0.0200448,0.270148
1480526598275991,-1.18692,0.0200448,0.270148
1480526598286531,-1.18692,0.0200448,0.270148
1480526598313091,-1.18692,0.0200448,0.270148
1480526598328130,-1.18695,0.0200366,0.270162
1480526598346179,-1.18653,0.0198771,0.270236
1480526598365730,-1.18651,0.0199773,0.270166
1480526598388292,-1.1865,0.0198853,0.270222
1480526598406338,-1.18609,0.01975,0.270135
1480526598425890,-1.18594,0.0196355,0.270197
1480526598448951,-1.18611,0.0196498,0.270205
1480526598466498,-1.18609,0.01975,0.270135
1480526598486051,-1.18609,0.01975,0.270135
1480526598508109,-1.18611,0.0196498,0.270205
1480526598526157,-1.18611,0.0196498,0.270205
1480526598545710,-1.18609,0.01975,0.270135
1480526598568270,-1.18609,0.01975,0.270135
1480526598586318,-1.18609,0.01975,0.270135
1480526598605869,-1.18609,0.01975,0.270135
1480526598629933,-1.18606,0.0197582,0.270122
1480526598650990,-1.18609,0.01975,0.270135
1480526598666030,-1.18609,0.01975,0.270135
1480526598688594,-1.18609,0.01975,0.270135
1480526598710647,-1.18609,0.01975,0.270135
1480526598725687,-1.18609,0.01975,0.270135
1480526598749251,-1.18609,0.01975,0.270135
1480526598770809,-1.18609,0.01975,0.270135
1480526598785849,-1.18606,0.0197582,0.270122
1480526598808407,-1.18609,0.01975,0.270135
1480526598833977,-1.18611,0.0196498,0.270205
1480526598846009,-1.18611,0.0196498,0.270205
1480526598868568,-1.18609,0.01975,0.270135
1480526598890626,-1.18609,0.01975,0.270135
1480526598907170,-1.18609,0.01975,0.270135
1480526598928227,-1.18609,0.01975,0.270135
1480526598950787,-1.18609,0.01975,0.270135
1480526598967331,-1.18609,0.01975,0.270135
1480526598988387,-1.18609,0.01975,0.270135
1480526599010947,-1.18609,0.01975,0.270135
1480526599027491,-1.18609,0.01975,0.270135
1480526599048548,-1.18626,0.0195043,0.270165
1480526599088152,-1.18626,0.0195043,0.270165
1480526599090157,-1.18626,0.0195043,0.270165
1480526599109710,-1.18626,0.0195043,0.270165
1480526599131266,-1.1861,0.01949,0.270157
1480526599148813,-1.1861,0.01949,0.270157
1480526599175885,-1.18626,0.0195043,0.270165
1480526599190926,-1.1861,0.01949,0.270157
1480526599214989,-1.18612,0.0194818,0.270171
1480526599228525,-1.18612,0.0194818,0.270171
1480526599250584,-1.1861,0.01949,0.270157
1480526599268636,-1.1861,0.01949,0.270157
1480526599288185,-1.18612,0.0194818,0.270171
1480526599318278,-1.1861,0.01949,0.270157
1480526599328793,-1.1861,0.01949,0.270157
1480526599348344,-1.1861,0.01949,0.270157
1480526599370904,-1.18612,0.0194818,0.270171
1480526599388952,-1.18612,0.0194818,0.270171
1480526599408503,-1.18612,0.0194818,0.270171
1480526599433571,-1.18612,0.0194818,0.270171
1480526599454630,-1.18596,0.0194675,0.270163
1480526599468164,-1.18598,0.0193673,0.270232
1480526599498243,-1.18596,0.0194675,0.270163
1480526599522306,-1.18596,0.0194675,0.270163
1480526599535844,-1.18599,0.0194593,0.270176
1480526599550883,-1.18599,0.0194593,0.270176
1480526599568932,-1.18596,0.0194675,0.270163
1480526599596002,-1.18596,0.0194675,0.270163
1480526599611042,-1.18582,0.019445,0.270168
1480526599634608,-1.18628,0.0193363,0.27013
1480526599648143,-1.18628,0.0193363,0.27013
1480526599670703,-1.18628,0.0193363,0.27013
1480526599702287,-1.18614,0.0192218,0.270192
1480526599708302,-1.18614,0.0192218,0.270192
1480526599738382,-1.18612,0.0193221,0.270122
1480526599749411,-1.18628,0.0193363,0.27013
1480526599771469,-1.18612,0.0193221,0.270122
1480526599791024,-1.18614,0.0193138,0.270136
1480526599815586,-1.18612,0.0193221,0.270122
1480526599835642,-1.18616,0.0192136,0.270206
1480526599850683,-1.18616,0.0192136,0.270206
1480526599884272,-1.18616,0.0192136,0.270206
1480526599889784,-1.18616,0.0192136,0.270206
1480526599918361,-1.18616,0.0192136,0.270206
1480526599928889,-1.186,0.0191993,0.270198
1480526599949944,-1.186,0.0191993,0.270198
1480526599971000,-1.186,0.0191993,0.270198
1480526599988547,-1.186,0.0191993,0.270198
1480526600010606,-1.18603,0.0191911,0.270212
1480526600031160,-1.186,0.0191993,0.270198
1480526600049045,-1.186,0.0191993,0.270198
1480526600069763,-1.18586,0.0191768,0.270204
1480526600098339,-1.18586,0.0191768,0.270204
1480526600108869,-1.18586,0.0191768,0.270204
1480526600130926,-1.18586,0.0191768,0.270204
1480526600150979,-1.18586,0.0191768,0.270204
1480526600173539,-1.18586,0.0191768,0.270204
1480526600198606,-1.18586,0.0191768,0.270204
1480526600210637,-1.18586,0.0191768,0.270204
1480526600233199,-1.18618,0.0190456,0.270171
1480526600251245,-1.18602,0.0190313,0.270163
1480526600270797,-1.18602,0.0190313,0.270163
1480526600293358,-1.18602,0.0190313,0.270163
1480526600311405,-1.18602,0.0190313,0.270163
1480526600330957,-1.18602,0.0190313,0.270163
1480526600353518,-1.18602,0.0190313,0.270163
1480526600371065,-1.18602,0.0190313,0.270163
1480526600390616,-1.18602,0.0190313,0.270163
1480526600413177,-1.18618,0.0189536,0.270227
1480526600431725,-1.18634,0.0189679,0.270235
1480526600450777,-1.18618,0.0189536,0.270227
1480526600473336,-1.18618,0.0189536,0.270227
1480526600495896,-1.18618,0.0189536,0.270227
1480526600512442,-1.18618,0.0189536,0.270227
1480526600541016,-1.18618,0.0189536,0.270227
1480526600551045,-1.18618,0.0189536,0.270227
1480526600571096,-1.1862,0.0189454,0.270241
1480526600593166,-1.1862,0.0189454,0.270241
1480526600611204,-1.1862,0.0189454,0.270241
1480526600631257,-1.18604,0.0189311,0.270233
1480526600653317,-1.1862,0.0189454,0.270241
1480526600671363,-1.18604,0.0189311,0.270233
1480526600690915,-1.18604,0.0189311,0.270233
1480526600713475,-1.18604,0.0189311,0.270233
1480526600732024,-1.18604,0.0189311,0.270233
1480526600753583,-1.18604,0.0189311,0.270233
1480526600773134,-1.18604,0.0189311,0.270233
1480526600791182,-1.18604,0.0189311,0.270233
1480526600812238,-1.1859,0.0189086,0.270239
1480526600833293,-1.18604,0.0189311,0.270233
1480526600851342,-1.18604,0.0189311,0.270233
1480526600886937,-1.1859,0.0189086,0.270239
1480526600893454,-1.1859,0.0189086,0.270239
1480526600911502,-1.1859,0.0189086,0.270239
1480526600932558,-1.1859,0.0189086,0.270239
1480526600953117,-1.1859,0.0189086,0.270239
1480526600971163,-1.1859,0.0189086,0.270239
1480526600992216,-1.1859,0.0189086,0.270239
1480526601013273,-1.1859,0.0189086,0.270239
1480526601032325,-1.18574,0.0188943,0.270231
1480526601052377,-1.1859,0.0189086,0.270239
1480526601073434,-1.1859,0.0189086,0.270239
1480526601090980,-1.1859,0.0189086,0.270239
1480526601118553,-1.18619,0.0187857,0.270193
1480526601133091,-1.18619,0.0187857,0.270193
1480526601163171,-1.18619,0.0187857,0.270193
1480526601173699,-1.18622,0.0187774,0.270206
1480526601193251,-1.18606,0.0187632,0.270198
1480526601211300,-1.18606,0.0187632,0.270198
1480526601233859,-1.18622,0.0187774,0.270206
1480526601260932,-1.18624,0.0186772,0.270276
1480526601271460,-1.18608,0.0186629,0.270268
1480526601293518,-1.18608,0.0186629,0.270268
1480526601313578,-1.18638,0.0186997,0.27027
1480526601332121,-1.18638,0.0186997,0.27027
1480526601353679,-1.18638,0.0186997,0.27027
1480526601373231,-1.18638,0.0186997,0.27027
1480526601398798,-1.18638,0.0186997,0.27027
1480526601413838,-1.18665,0.0187448,0.270259
1480526601434894,-1.18665,0.0187448,0.270259
1480526601451439,-1.18665,0.0187448,0.270259
1480526601481519,-1.18665,0.0187448,0.270259
1480526601500569,-1.18665,0.0187448,0.270259
1480526601511097,-1.18668,0.0187365,0.270272
1480526601541177,-1.18665,0.0187448,0.270259
1480526601553212,-1.18665,0.0187448,0.270259
1480526601571758,-1.18666,0.0188125,0.270363
1480526601593820,-1.18668,0.0188043,0.270377
1480526601613375,-1.18668,0.0187365,0.270272
1480526601631918,-1.18664,0.0189127,0.270293
1480526601653977,-1.18665,0.0187448,0.270259
1480526601682553,-1.18668,0.0187365,0.270272
1480526601695587,-1.18668,0.0187365,0.270272
1480526601714137,-1.18665,0.0187448,0.270259
1480526601733190,-1.18665,0.0187448,0.270259
1480526601755748,-1.18668,0.0188043,0.270377
1480526601773796,-1.18666,0.0188125,0.270363
1480526601794851,-1.18664,0.0189127,0.270293
1480526601818916,-1.18666,0.0189045,0.270307
1480526601833956,-1.1865,0.0188902,0.270299
1480526601862030,-1.18666,0.0189045,0.270307
1480526601892612,-1.18666,0.0189045,0.270307
1480526601895119,-1.18666,0.0189045,0.270307
1480526601914670,-1.18666,0.0189045,0.270307
1480526601935726,-1.18666,0.0189045,0.270307
1480526601954276,-1.18707,0.0189043,0.270185
1480526601974831,-1.1871,0.0188961,0.270199
1480526601995886,-1.18693,0.0188818,0.270191
1480526602013935,-1.1871,0.0188961,0.270199
1480526602034990,-1.1871,0.0188961,0.270199
1480526602055546,-1.1871,0.0188961,0.270199
1480526602073593,-1.1871,0.0188961,0.270199
1480526602096152,-1.1871,0.0188961,0.270199
1480526602115706,-1.1871,0.0188961,0.270199
1480526602133753,-1.18723,0.0189186,0.270193
1480526602163834,-1.18723,0.0189186,0.270193
1480526602175867,-1.18737,0.0189411,0.270187
1480526602201433,-1.18737,0.0189411,0.270187
1480526602216476,-1.18723,0.0189186,0.270193
1480526602236026,-1.18723,0.0189186,0.270193
1480526602253572,-1.18723,0.0189186,0.270193
1480526602276132,-1.1874,0.0189328,0.270201
1480526602295684,-1.18723,0.0189186,0.270193
1480526602318244,-1.18723,0.0189186,0.270193
1480526602336292,-1.18737,0.0189411,0.270187
1480526602355844,-1.18737,0.0189411,0.270187
1480526602373893,-1.18737,0.0189411,0.270187
1480526602395952,-1.18723,0.0189186,0.270193
1480526602416004,-1.18737,0.0189411,0.270187
1480526602438062,-1.18723,0.0189186,0.270193
1480526602456110,-1.18723,0.0189186,0.270193
1480526602492708,-1.18721,0.0190188,0.270123
1480526602495215,-1.18721,0.0190188,0.270123
1480526602516272,-1.18722,0.0190866,0.270228
1480526602543343,-1.18722,0.0190866,0.270228
1480526602553875,-1.18722,0.0190866,0.270228
1480526602576432,-1.18722,0.0190866,0.270228
1480526602595983,-1.18722,0.0190866,0.270228
1480526602614031,-1.18722,0.0190866,0.270228
1480526602636089,-1.18722,0.0190866,0.270228
1480526602655641,-1.18722,0.0190866,0.270228
1480526602673689,-1.18722,0.0190866,0.270228
1480526602696249,-1.18722,0.0190866,0.270228
1480526602717305,-1.18722,0.0190866,0.270228
1480526602733849,-1.18722,0.0190866,0.270228
1480526602756911,-1.18722,0.0190866,0.270228
1480526602777465,-1.18722,0.0190866,0.270228
1480526602793508,-1.18673,0.0191599,0.269988
1480526602816572,-1.18674,0.0192276,0.270092
1480526602837123,-1.18674,0.0192276,0.270092
1480526602853668,-1.18674,0.0192276,0.270092
1480526602876229,-1.18674,0.0192276,0.270092
1480526602898789,-1.18674,0.0192276,0.270092
1480526602913829,-1.18674,0.0192276,0.270092
1480526602936389,-1.18674,0.0192276,0.270092
1480526602957444,-1.18674,0.0192276,0.270092
1480526602973988,-1.1869,0.0192419,0.2701
1480526602996047,-1.18674,0.0192276,0.270092
1480526603017604,-1.18718,0.0192869,0.270088
1480526603034147,-1.18718,0.0192869,0.270088
1480526603056207,-1.18734,0.0193012,0.270096
1480526603079269,-1.18718,0.0192869,0.270088
1480526603101326,-1.18718,0.0192869,0.270088
1480526603116371,-1.18734,0.0193012,0.270096
1480526603138927,-1.18731,0.0193094,0.270082
1480526603158478,-1.18731,0.0193094,0.270082
1480526603176025,-1.18731,0.0193094,0.270082
1480526603203098,-1.18731,0.0193094,0.270082
1480526603218138,-1.18731,0.0193094,0.270082
1480526603236185,-1.18729,0.0194096,0.270013
1480526603258746,-1.18734,0.0193012,0.270096
1480526603278297,-1.18732,0.0194014,0.270026
1480526603295342,-1.18732,0.0194014,0.270026
1480526603326425,-1.18715,0.0193871,0.270018
1480526603338457,-1.18715,0.0193871,0.270018
1480526603355508,-1.18715,0.0193871,0.270018
1480526603378063,-1.1873,0.0194774,0.270117
1480526603399121,-1.1873,0.0194774,0.270117
1480526603415663,-1.18732,0.0194692,0.270131
1480526603445743,-1.18716,0.0194549,0.270123
1480526603458778,-1.18732,0.0194692,0.270131
1480526603482844,-1.18714,0.0195551,0.270053
1480526603498383,-1.1873,0.0195694,0.270061
1480526603526458,-1.1873,0.0195694,0.270061
1480526603535482,-1.18728,0.0195776,0.270047
1480526603565564,-1.18728,0.0195776,0.270047
1480526603580603,-1.18714,0.0195551,0.270053
1480526603595641,-1.18714,0.0195551,0.270053
1480526603617700,-1.18728,0.0195776,0.270047
1480526603638756,-1.1873,0.0195694,0.270061
1480526603655802,-1.1873,0.0195694,0.270061
1480526603685380,-1.18728,0.0195776,0.270047
1480526603707940,-1.18728,0.0195776,0.270047
1480526603722480,-1.18714,0.0195551,0.270053
1480526603738021,-1.18714,0.0195551,0.270053
1480526603766596,-1.18712,0.0197231,0.270087
1480526603775620,-1.18712,0.0197231,0.270087
1480526603797682,-1.18712,0.0197231,0.270087
1480526603835780,-1.18712,0.0197231,0.270087
1480526603838288,-1.18712,0.0197231,0.270087
1480526603857842,-1.18712,0.0197231,0.270087
1480526603878895,-1.18712,0.0197231,0.270087
1480526603895439,-1.18712,0.0197231,0.270087
1480526603917999,-1.18712,0.0197231,0.270087
1480526603939055,-1.18712,0.0197231,0.270087
1480526603955599,-1.18712,0.0197231,0.270087
1480526603977658,-1.18712,0.0197231,0.270087
1480526604000719,-1.18712,0.0197231,0.270087
1480526604015349,-1.18712,0.0197231,0.270087
1480526604037818,-1.18712,0.0197231,0.270087
1480526604060378,-1.18712,0.0197231,0.270087
1480526604075418,-1.18712,0.0197231,0.270087
1480526604097978,-1.18712,0.0197231,0.270087
1480526604120540,-1.18712,0.0197231,0.270087
1480526604135077,-1.18712,0.0197231,0.270087
1480526604158138,-1.18712,0.0197231,0.270087
1480526604180197,-1.18712,0.0197231,0.270087
1480526604194735,-1.18712,0.0197231,0.270087
1480526604217796,-1.18712,0.0197231,0.270087
1480526604240858,-1.18712,0.0197231,0.270087
1480526604254907,-1.18712,0.0197231,0.270087
1480526604277957,-1.18712,0.0197231,0.270087
