timestamp,roll,pitch,yaw
1480619801251859,-1.04689,-0.417603,2.39736
1480619801270410,-1.04672,-0.417549,2.39727
1480619801292469,-1.04669,-0.417649,2.39732
1480619801319540,-1.04669,-0.417649,2.39732
1480619801334580,-1.04669,-0.417649,2.39732
1480619801352127,-1.04672,-0.417549,2.39727
1480619801372181,-1.04672,-0.417549,2.39727
1480619801389727,-1.04658,-0.417493,2.39727
1480619801412287,-1.04658,-0.417493,2.39727
1480619801431839,-1.04658,-0.417493,2.39727
1480619801449887,-1.04658,-0.417493,2.39727
1480619801489493,-1.04658,-0.417493,2.39727
1480619801501023,-1.04658,-0.417493,2.39727
1480619801510047,-1.04661,-0.417324,2.3973
1480619801532105,-1.04659,-0.417384,2.39764
1480619801555167,-1.0462,-0.417675,2.39785
1480619801570207,-1.046,-0.417721,2.39781
1480619801598281,-1.046,-0.417721,2.39781
1480619801619337,-1.046,-0.417721,2.39781
1480619801629865,-1.04603,-0.417621,2.39776
1480619801652426,-1.04603,-0.417621,2.39776
1480619801671977,-1.04603,-0.417621,2.39776
1480619801690527,-1.04603,-0.417621,2.39776
1480619801712588,-1.04606,-0.417619,2.39786
1480619801732138,-1.04606,-0.417619,2.39786
1480619801757708,-1.04606,-0.417619,2.39786
1480619801779767,-1.04606,-0.417619,2.39786
1480619801816362,-1.04609,-0.417519,2.3978
1480619801818868,-1.04609,-0.417449,2.39788
1480619801839924,-1.04609,-0.417449,2.39788
1480619801853461,-1.04592,-0.417465,2.39771
1480619801870005,-1.04592,-0.417465,2.39771
1480619801892564,-1.04592,-0.417465,2.39771
1480619801913620,-1.04592,-0.417465,2.39771
1480619801934676,-1.04652,-0.417088,2.39784
1480619801954228,-1.04652,-0.417088,2.39784
1480619801973282,-1.04669,-0.417142,2.39793
1480619801989827,-1.04652,-0.417088,2.39784
1480619802012383,-1.04649,-0.417188,2.39789
1480619802033439,-1.04649,-0.417188,2.39789
1480619802054496,-1.04649,-0.417188,2.39789
1480619802078561,-1.04652,-0.417088,2.39784
1480619802093600,-1.04652,-0.417088,2.39784
1480619802117162,-1.04654,-0.416918,2.39786
1480619802145237,-1.04651,-0.417018,2.39791
1480619802159274,-1.04652,-0.417088,2.39784
1480619802174315,-1.04652,-0.417088,2.39784
1480619802192362,-1.04652,-0.417088,2.39784
1480619802215925,-1.04728,-0.416764,2.39806
1480619802234474,-1.04731,-0.416595,2.39808
1480619802252522,-1.04731,-0.416595,2.39808
1480619802275083,-1.04731,-0.416595,2.39808
1480619802298646,-1.04666,-0.417172,2.39806
1480619802319701,-1.04646,-0.417219,2.39801
1480619802342261,-1.04646,-0.417219,2.39801
1480619802372842,-1.04666,-0.417172,2.39806
1480619802395402,-1.04624,-0.416838,2.39799
1480619802423978,-1.04628,-0.416837,2.39809
1480619802427488,-1.04628,-0.416837,2.39809
1480619802432501,-1.04613,-0.416722,2.39765
1480619802455063,-1.04613,-0.416722,2.39765
1480619802474613,-1.04613,-0.416722,2.39765
1480619802492160,-1.04613,-0.416722,2.39765
1480619802514720,-1.04616,-0.416552,2.39767
1480619802534271,-1.04616,-0.416552,2.39767
1480619802552320,-1.04616,-0.416552,2.39767
1480619802574880,-1.04613,-0.416722,2.39765
1480619802594432,-1.04657,-0.416956,2.39766
1480619802616992,-1.04657,-0.416956,2.39766
1480619802649579,-1.0466,-0.416786,2.39768
1480619802655595,-1.04663,-0.416686,2.39763
1480619802671638,-1.04663,-0.416686,2.39763
1480619802702219,-1.04663,-0.416686,2.39763
1480619802714752,-1.04663,-0.416686,2.39763
1480619802731296,-1.04663,-0.416686,2.39763
1480619802753856,-1.04663,-0.416686,2.39763
1480619802774912,-1.04663,-0.416686,2.39763
1480619802791456,-1.04653,-0.416461,2.39766
1480619802814016,-1.04653,-0.416461,2.39766
1480619802835072,-1.04653,-0.41653,2.39759
1480619802865153,-1.0465,-0.416631,2.39764
1480619802874179,-1.0465,-0.416631,2.39764
1480619802895232,-1.0465,-0.416631,2.39764
1480619802926816,-1.0465,-0.416631,2.39764
1480619802933834,-1.0465,-0.416631,2.39764
1480619802955393,-1.04653,-0.41653,2.39759
1480619802971435,-1.04636,-0.416476,2.39749
1480619803001515,-1.04639,-0.416475,2.39759
1480619803015051,-1.04639,-0.416475,2.39759
1480619803031595,-1.04636,-0.416575,2.39764
1480619803054155,-1.04639,-0.416475,2.39759
1480619803075211,-1.04639,-0.416475,2.39759
1480619803091755,-1.04622,-0.416421,2.3975
1480619803113814,-1.04662,-0.416259,2.39765
1480619803136373,-1.04645,-0.416205,2.39756
1480619803151414,-1.04645,-0.416205,2.39756
1480619803176481,-1.04645,-0.416205,2.39756
1480619803196533,-1.04645,-0.416205,2.39756
1480619803211574,-1.04648,-0.416104,2.39751
1480619803234133,-1.04648,-0.416035,2.39758
1480619803258198,-1.04651,-0.415935,2.39753
1480619803270731,-1.04651,-0.415935,2.39753
1480619803294293,-1.04648,-0.416035,2.39758
1480619803317355,-1.04634,-0.415979,2.39759
1480619803338912,-1.04701,-0.415928,2.39774
1480619803353953,-1.04684,-0.415874,2.39764
1480619803393057,-1.04704,-0.415758,2.39776
1480619803397569,-1.04741,-0.415597,2.39782
1480619803421633,-1.04741,-0.415597,2.39782
1480619803438178,-1.04741,-0.415597,2.39782
1480619803451712,-1.04738,-0.415767,2.3978
1480619803475275,-1.04771,-0.415707,2.39791
1480619803496331,-1.04771,-0.415707,2.39791
1480619803510871,-1.04774,-0.415606,2.39786
1480619803534934,-1.04774,-0.415606,2.39786
1480619803557996,-1.04774,-0.415606,2.39786
1480619803571030,-1.04774,-0.415606,2.39786
1480619803594091,-1.04714,-0.415486,2.39783
1480619803616651,-1.04714,-0.415486,2.39783
1480619803645228,-1.04713,-0.415388,2.39768
1480619803669291,-1.04734,-0.41544,2.39787
1480619803676813,-1.04736,-0.41527,2.39789
1480619803700373,-1.04736,-0.41527,2.39789
1480619803727446,-1.04719,-0.415216,2.3978
1480619803750507,-1.04716,-0.415386,2.39778
1480619803757526,-1.04716,-0.415386,2.39778
1480619803774071,-1.04716,-0.415386,2.39778
1480619803797132,-1.04719,-0.415216,2.3978
1480619803825206,-1.04736,-0.41527,2.39789
1480619803840249,-1.04722,-0.415116,2.39775
1480619803864310,-1.04719,-0.415216,2.3978
1480619803877846,-1.04719,-0.415216,2.3978
1480619803893889,-1.04719,-0.415216,2.3978
1480619803924972,-1.04719,-0.415216,2.3978
1480619803945526,-1.04722,-0.415116,2.39775
1480619803954049,-1.04739,-0.4151,2.39791
1480619803976609,-1.04742,-0.415,2.39786
1480619803997665,-1.04742,-0.415,2.39786
1480619804013708,-1.04739,-0.41517,2.39784
1480619804038273,-1.04722,-0.415116,2.39775
1480619804059329,-1.04739,-0.41517,2.39784
1480619804074870,-1.04739,-0.41517,2.39784
1480619804096428,-1.04742,-0.415,2.39786
1480619804118988,-1.04742,-0.415,2.39786
1480619804134028,-1.04725,-0.414946,2.39777
1480619804170123,-1.04722,-0.415116,2.39775
1480619804179148,-1.04722,-0.415116,2.39775
1480619804194189,-1.04739,-0.41517,2.39784
1480619804216748,-1.04739,-0.4151,2.39791
1480619804262870,-1.04742,-0.415,2.39786
1480619804276407,-1.04745,-0.4149,2.39781
1480619804282423,-1.04745,-0.41483,2.39789
1480619804299468,-1.04745,-0.4149,2.39781
1480619804313506,-1.04745,-0.4149,2.39781
1480619804336566,-1.04745,-0.4149,2.39781
1480619804360129,-1.04745,-0.4149,2.39781
1480619804373668,-1.04745,-0.41483,2.39789
1480619804396727,-1.04752,-0.414728,2.39793
1480619804419287,-1.04752,-0.414728,2.39793
1480619804433323,-1.04752,-0.414728,2.39793
1480619804462402,-1.04749,-0.414829,2.39798
1480619804478946,-1.04749,-0.414829,2.39798
1480619804507521,-1.04749,-0.414829,2.39798
1480619804516545,-1.04752,-0.414728,2.39793
1480619804546625,-1.04752,-0.414728,2.39793
1480619804567682,-1.04752,-0.414728,2.39793
1480619804576707,-1.04752,-0.414728,2.39793
1480619804599269,-1.04735,-0.414675,2.39784
1480619804620321,-1.04732,-0.414775,2.39789
1480619804637366,-1.04735,-0.414675,2.39784
1480619804658924,-1.04735,-0.414675,2.39784
1480619804679981,-1.04737,-0.414574,2.39779
1480619804704044,-1.04737,-0.414505,2.39786
1480619804727106,-1.04741,-0.414573,2.39788
1480619804740140,-1.04741,-0.414573,2.39788
1480619804758189,-1.04741,-0.414573,2.39788
1480619804781250,-1.04724,-0.414519,2.39779
1480619804800300,-1.04744,-0.414403,2.39791
1480619804816844,-1.04744,-0.414403,2.39791
1480619804838903,-1.04747,-0.414303,2.39786
1480619804859959,-1.04744,-0.414403,2.39791
1480619804884023,-1.04744,-0.414403,2.39791
1480619804900567,-1.04727,-0.414349,2.39781
1480619804920119,-1.04744,-0.414403,2.39791
1480619804936663,-1.04744,-0.414403,2.39791
1480619804959724,-1.04747,-0.414303,2.39786
1480619804980279,-1.04747,-0.414303,2.39786
1480619805003841,-1.04747,-0.414303,2.39786
1480619805018881,-1.04727,-0.414349,2.39781
1480619805042444,-1.04727,-0.414349,2.39781
1480619805056485,-1.0473,-0.414348,2.39791
1480619805088066,-1.0473,-0.414348,2.39791
1480619805101601,-1.04716,-0.414193,2.39777
1480619805116642,-1.04719,-0.414093,2.39771
1480619805139202,-1.04719,-0.414093,2.39771
1480619805161762,-1.04719,-0.414093,2.39771
1480619805185826,-1.04716,-0.414193,2.39777
1480619805198860,-1.04716,-0.414193,2.39777
1480619805227436,-1.04716,-0.414193,2.39777
1480619805235959,-1.04719,-0.414093,2.39771
1480619805260024,-1.04726,-0.413922,2.39783
1480619805281580,-1.04726,-0.413922,2.39783
1480619805302135,-1.04726,-0.413922,2.39783
1480619805319180,-1.04706,-0.414038,2.39772
1480619805342242,-1.04706,-0.414038,2.39772
1480619805355778,-1.04706,-0.414038,2.39772
1480619805379341,-1.04709,-0.413868,2.39774
1480619805408919,-1.04709,-0.413868,2.39774
1480619805415938,-1.04709,-0.413868,2.39774
1480619805439001,-1.04709,-0.413937,2.39767
1480619805461559,-1.04689,-0.413984,2.39763
1480619805507682,-1.04689,-0.413984,2.39763
1480619805510188,-1.04692,-0.413982,2.39772
1480619805530744,-1.04692,-0.413884,2.39757
1480619805542274,-1.04695,-0.413813,2.39774
1480619805560322,-1.04695,-0.413813,2.39774
1480619805582381,-1.04734,-0.413552,2.39775
1480619805602434,-1.04734,-0.413552,2.39775
1480619805618979,-1.04734,-0.413552,2.39775
1480619805641538,-1.04734,-0.413552,2.39775
1480619805662594,-1.04741,-0.41345,2.3978
1480619805686659,-1.04741,-0.41345,2.3978
1480619805702701,-1.04727,-0.413226,2.39773
1480619805722776,-1.04727,-0.413226,2.39773
1480619805739302,-1.04727,-0.413226,2.39773
1480619805777901,-1.04713,-0.41324,2.39766
1480619805785421,-1.04713,-0.41324,2.39766
1480619805807480,-1.04713,-0.413171,2.39773
1480619805837560,-1.04713,-0.413171,2.39773
1480619805842574,-1.04716,-0.41307,2.39768
1480619805859619,-1.04716,-0.41307,2.39768
1480619805881676,-1.04696,-0.413186,2.39757
1480619805902732,-1.04696,-0.413186,2.39757
1480619805919277,-1.04696,-0.413186,2.39757
1480619805941837,-1.04696,-0.413186,2.39757
1480619805964397,-1.04699,-0.413017,2.39759
1480619805978936,-1.04703,-0.413015,2.39769
1480619806001998,-1.04703,-0.413015,2.39769
1480619806031575,-1.04686,-0.413031,2.39752
1480619806039098,-1.04686,-0.413031,2.39752
1480619806063162,-1.04669,-0.412977,2.39743
1480619806084216,-1.04669,-0.412977,2.39743
1480619806099256,-1.04672,-0.412975,2.39752
1480619806121315,-1.04675,-0.412875,2.39747
1480619806143875,-1.04675,-0.412806,2.39755
1480619806158414,-1.04675,-0.412875,2.39747
1480619806181475,-1.04672,-0.412975,2.39752
1480619806204035,-1.04655,-0.412921,2.39743
1480619806218573,-1.04655,-0.412921,2.39743
1480619806242136,-1.04675,-0.412875,2.39747
1480619806264195,-1.04658,-0.412752,2.39745
1480619806278233,-1.04658,-0.412752,2.39745
1480619806309315,-1.04661,-0.412819,2.39748
1480619806338894,-1.04644,-0.412766,2.39738
1480619806341400,-1.04644,-0.412766,2.39738
1480619806361453,-1.04641,-0.412866,2.39743
1480619806398051,-1.04661,-0.412819,2.39748
1480619806408078,-1.04661,-0.412819,2.39748
1480619806421614,-1.04661,-0.412819,2.39748
1480619806444174,-1.04644,-0.412766,2.39738
1480619806467235,-1.04644,-0.412766,2.39738
1480619806487790,-1.04644,-0.412766,2.39738
1480619806504836,-1.04644,-0.412766,2.39738
1480619806526392,-1.04644,-0.412766,2.39738
1480619806547448,-1.04644,-0.412766,2.39738
1480619806563992,-1.04644,-0.412766,2.39738
1480619806587558,-1.04644,-0.412766,2.39738
1480619806616632,-1.04644,-0.412766,2.39738
1480619806630669,-1.04627,-0.412712,2.39729
1480619806645210,-1.04624,-0.412812,2.39734
1480619806661752,-1.04641,-0.412866,2.39743
1480619806691832,-1.04644,-0.412766,2.39738
1480619806705371,-1.04644,-0.412766,2.39738
1480619806721412,-1.04644,-0.412766,2.39738
1480619806744974,-1.04627,-0.412712,2.39729
1480619806765026,-1.04552,-0.413203,2.39715
1480619806781571,-1.04552,-0.413203,2.39715
1480619806811652,-1.04552,-0.413203,2.39715
1480619806834210,-1.04552,-0.413203,2.39715
1480619806841731,-1.04552,-0.413203,2.39715
1480619806864792,-1.04552,-0.413203,2.39715
1480619806886350,-1.04552,-0.413203,2.39715
1480619806901389,-1.04549,-0.413303,2.3972
1480619806923950,-1.04549,-0.413372,2.39712
1480619806946510,-1.04549,-0.413372,2.39712
1480619806961549,-1.04549,-0.413372,2.39712
1480619806984611,-1.04549,-0.413372,2.39712
1480619807008174,-1.04549,-0.413372,2.39712
1480619807020708,-1.04532,-0.413319,2.39703
1480619807045774,-1.04499,-0.413339,2.39721
1480619807067332,-1.04516,-0.413324,2.39738
1480619807087385,-1.04585,-0.413212,2.39718
1480619807111449,-1.05004,-0.413159,2.39764
1480619807142531,-1.05492,-0.413167,2.39789
1480619807144035,-1.05955,-0.411334,2.39621
1480619807164089,-1.06738,-0.405224,2.39392
1480619807194169,-1.07984,-0.396811,2.39107
1480619807207705,-1.0979,-0.3882,2.38768
1480619807231768,-1.11174,-0.381211,2.3832
1480619807246809,-1.12967,-0.375017,2.37784
1480619807267364,-1.14781,-0.369154,2.37304
1480619807283907,-1.15253,-0.364352,2.36748
1480619807307974,-1.15195,-0.361971,2.36351
1480619807329529,-1.15246,-0.361603,2.36088
1480619807351086,-1.1542,-0.362159,2.35998
1480619807366627,-1.15587,-0.362515,2.36094
1480619807380665,-1.15794,-0.362053,2.36175
1480619807404229,-1.16012,-0.361836,2.36306
1480619807426287,-1.16164,-0.360602,2.36351
1480619807447843,-1.16246,-0.360114,2.36322
1480619807463886,-1.16396,-0.359819,2.36279
1480619807486446,-1.16508,-0.360002,2.36092
1480619807507503,-1.16581,-0.359172,2.35783
1480619807524046,-1.16683,-0.357377,2.35453
1480619807552622,-1.16893,-0.35528,2.35181
1480619807567161,-1.17139,-0.353374,2.35043
1480619807584208,-1.17398,-0.352484,2.34971
1480619807614287,-1.17549,-0.352487,2.34941
1480619807628825,-1.17682,-0.353042,2.34982
1480619807644369,-1.1772,-0.354269,2.35053
1480619807666426,-1.17722,-0.356141,2.35142
1480619807687983,-1.17722,-0.35795,2.35228
1480619807718062,-1.17632,-0.359553,2.35312
1480619807726585,-1.17444,-0.36055,2.35334
1480619807747641,-1.17287,-0.361154,2.35352
1480619807765187,-1.17164,-0.361424,2.35338
1480619807800782,-1.17074,-0.361131,2.3529
1480619807807802,-1.17047,-0.360484,2.35254
1480619807823844,-1.16995,-0.359546,2.3522
1480619807852420,-1.17018,-0.35891,2.35196
1480619807870468,-1.1705,-0.359014,2.35184
1480619807884004,-1.17044,-0.359773,2.3518
1480619807906564,-1.16949,-0.360678,2.35181
1480619807929124,-1.16801,-0.361666,2.35174
1480619807944164,-1.16674,-0.362457,2.35165
1480619807966723,-1.16618,-0.362561,2.3517
1480619807990286,-1.1665,-0.361877,2.35223
1480619808010340,-1.16702,-0.361079,2.35288
1480619808026885,-1.16733,-0.36048,2.35356
1480619808056464,-1.16879,-0.360013,2.35397
1480619808069998,-1.17108,-0.359721,2.3541
1480619808086543,-1.17353,-0.359918,2.35423
1480619808109103,-1.17483,-0.359692,2.35551
1480619808131162,-1.1747,-0.360012,2.35784
1480619808147705,-1.17413,-0.361082,2.35999
1480619808168761,-1.17498,-0.362965,2.3632
1480619808183300,-1.17766,-0.363374,2.36782
1480619808206361,-1.17589,-0.364426,2.3702
1480619808230926,-1.17306,-0.367109,2.3705
1480619808251481,-1.1741,-0.367822,2.37127
1480619808267524,-1.17519,-0.367871,2.37243
1480619808289083,-1.17463,-0.368434,2.37322
1480619808303620,-1.1743,-0.369222,2.37398
1480619808334202,-1.17541,-0.370429,2.37509
1480619808349241,-1.17554,-0.371476,2.3761
1480619808370297,-1.17545,-0.372129,2.37685
1480619808386340,-1.17528,-0.372076,2.37675
1480619808408901,-1.17545,-0.372129,2.37685
1480619808431460,-1.17483,-0.372489,2.37673
1480619808446501,-1.17546,-0.373733,2.37692
1480619808469060,-1.17459,-0.37557,2.37696
1480619808490117,-1.17189,-0.376005,2.37746
1480619808514181,-1.16988,-0.376532,2.37747
1480619808545765,-1.16913,-0.375639,2.37707
1480619808550277,-1.16807,-0.374854,2.37636
1480619808568826,-1.16506,-0.375126,2.37488
1480619808590383,-1.16237,-0.375237,2.37431
1480619808609936,-1.16258,-0.374909,2.37493
1480619808626479,-1.16303,-0.374583,2.3751
1480619808656559,-1.16409,-0.374209,2.37379
1480619808670095,-1.1671,-0.37498,2.3733
1480619808689150,-1.17008,-0.374804,2.37483
1480619808709701,-1.16884,-0.374627,2.37641
1480619808730255,-1.16654,-0.374814,2.37662
1480619808746799,-1.16533,-0.375528,2.37648
1480619808774874,-1.16444,-0.376341,2.37621
1480619808789919,-1.16392,-0.376958,2.37651
1480619808806459,-1.16447,-0.377227,2.37695
1480619808829017,-1.16569,-0.377039,2.37746
1480619808851578,-1.16565,-0.377061,2.37758
1480619808866618,-1.16548,-0.377408,2.37851
1480619808889179,-1.16444,-0.37783,2.37932
1480619808911738,-1.16249,-0.378708,2.3795
1480619808934299,-1.16178,-0.379943,2.37961
1480619808948837,-1.16255,-0.380807,2.37959
1480619808971397,-1.16396,-0.381796,2.3794
1480619808985936,-1.1647,-0.381722,2.37923
1480619809016516,-1.16541,-0.381128,2.37859
1480619809031557,-1.16514,-0.380378,2.37786
1480619809046098,-1.16302,-0.37986,2.37717
1480619809069658,-1.16086,-0.37987,2.37644
1480619809098735,-1.16014,-0.379496,2.37649
1480619809105758,-1.15948,-0.379314,2.37694
1480619809136837,-1.15868,-0.379652,2.37715
1480619809151375,-1.15807,-0.379434,2.37726
1480619809166416,-1.15859,-0.379343,2.37733
1480619809189978,-1.15865,-0.379021,2.37757
1480619809212037,-1.1584,-0.378806,2.37751
1480619809226074,-1.1584,-0.378879,2.37744
1480619809249135,-1.15871,-0.378463,2.37718
1480619809271696,-1.15869,-0.378015,2.37666
1480619809294256,-1.15872,-0.377847,2.37668
1480619809309296,-1.15872,-0.377847,2.37668
1480619809332357,-1.15872,-0.377847,2.37668
1480619809353914,-1.15816,-0.378106,2.3766
1480619809368954,-1.15813,-0.378201,2.37665
1480619809391514,-1.15813,-0.378201,2.37665
1480619809412651,-1.15813,-0.378201,2.37665
1480619809446162,-1.15833,-0.378159,2.37669
1480619809451675,-1.15833,-0.378159,2.37669
1480619809472732,-1.15833,-0.378086,2.37676
1480619809489276,-1.1583,-0.378254,2.37674
1480619809511837,-1.15813,-0.378201,2.37665
1480619809532389,-1.15813,-0.378201,2.37665
1480619809548933,-1.15813,-0.378201,2.37665
1480619809577510,-1.1583,-0.378254,2.37674
1480619809592549,-1.1583,-0.378254,2.37674
1480619809609595,-1.1583,-0.378254,2.37674
1480619809632154,-1.1583,-0.378254,2.37674
1480619809660229,-1.1583,-0.378254,2.37674
1480619809669253,-1.15743,-0.378312,2.37642
1480619809691312,-1.15656,-0.378458,2.37624
1480619809712368,-1.15668,-0.378231,2.3758
1480619809728912,-1.1573,-0.377855,2.3757
1480619809753478,-1.1573,-0.377855,2.3757
1480619809774534,-1.15727,-0.37795,2.37576
1480619809789575,-1.1568,-0.377916,2.37521
1480619809811632,-1.15653,-0.377839,2.37471
1480619809834192,-1.15616,-0.378048,2.37436
1480619809848230,-1.15609,-0.377783,2.37404
1480619809871293,-1.15571,-0.377404,2.37362
1480619809893851,-1.15592,-0.377362,2.37366
1480619809908390,-1.15572,-0.377477,2.37355
1480619809931451,-1.15572,-0.377477,2.37355
1480619809970555,-1.15572,-0.377477,2.37355
1480619809975067,-1.15572,-0.377477,2.37355
1480619809997627,-1.15572,-0.377477,2.37355
1480619810021695,-1.15575,-0.377309,2.37357
1480619810028208,-1.15575,-0.377309,2.37357
1480619810053275,-1.15575,-0.377309,2.37357
1480619810074832,-1.15572,-0.377477,2.37355
1480619810102406,-1.15572,-0.377477,2.37355
1480619810111430,-1.15572,-0.377477,2.37355
1480619810143013,-1.15572,-0.377477,2.37355
1480619810148529,-1.15572,-0.377477,2.37355
1480619810171591,-1.15571,-0.377404,2.37362
1480619810202171,-1.15572,-0.377477,2.37355
1480619810216710,-1.15572,-0.377477,2.37355
1480619810231248,-1.15568,-0.377572,2.3736
1480619810253809,-1.15569,-0.377645,2.37353
1480619810275368,-1.15569,-0.377645,2.37353
1480619810292913,-1.15568,-0.377572,2.3736
1480619810313968,-1.15568,-0.377572,2.3736
1480619810335024,-1.15551,-0.377519,2.37351
1480619810351569,-1.15551,-0.377592,2.37344
1480619810382150,-1.15548,-0.377688,2.37349
1480619810395185,-1.15548,-0.377688,2.37349
1480619810411729,-1.15548,-0.377688,2.37349
1480619810440304,-1.15548,-0.377688,2.37349
1480619810455346,-1.15506,-0.377419,2.37334
1480619810471892,-1.15433,-0.377624,2.37316
1480619810499963,-1.15436,-0.377617,2.37325
1480619810515004,-1.15433,-0.377785,2.37324
1480619810531548,-1.15415,-0.377732,2.37314
1480619810554609,-1.15415,-0.377732,2.37314
1480619810582683,-1.15415,-0.377732,2.37314
1480619810591715,-1.15383,-0.377634,2.37326
1480619810614267,-1.15311,-0.377716,2.37374
1480619810634822,-1.15245,-0.378007,2.37484
1480619810651366,-1.15055,-0.378386,2.37621
1480619810673926,-1.14599,-0.378623,2.37781
1480619810694982,-1.14044,-0.379936,2.37982
1480619810717542,-1.13486,-0.381976,2.38208
1480619810735089,-1.13051,-0.384495,2.38361
1480619810757147,-1.12783,-0.386166,2.38409
1480619810770684,-1.12554,-0.387275,2.38392
1480619810794247,-1.12278,-0.388254,2.38306
1480619810816806,-1.12064,-0.389063,2.38189
1480619810830843,-1.11984,-0.389236,2.38037
1480619810854406,-1.12064,-0.388381,2.37929
1480619810883483,-1.12239,-0.387054,2.37874
1480619810891003,-1.12462,-0.386287,2.37887
1480619810914065,-1.12649,-0.386635,2.37929
1480619810936625,-1.12789,-0.387407,2.37959
1480619810959185,-1.12813,-0.388452,2.37963
1480619810974225,-1.12809,-0.38862,2.37961
1480619810996785,-1.12806,-0.388626,2.37952
1480619811011830,-1.12789,-0.388573,2.37942
1480619811034887,-1.12806,-0.388626,2.37952
1480619811056444,-1.12849,-0.388803,2.37952
1480619811080509,-1.12849,-0.388966,2.3796
1480619811102566,-1.12871,-0.388868,2.37899
1480619811116604,-1.12962,-0.388712,2.37833
1480619811130642,-1.13025,-0.388365,2.37773
1480619811160721,-1.13094,-0.387845,2.37725
1480619811176263,-1.13163,-0.387271,2.37705
1480619811197319,-1.1311,-0.386775,2.37692
1480619811220881,-1.13002,-0.386467,2.37677
1480619811236924,-1.12898,-0.386671,2.37686
1480619811257478,-1.128,-0.386983,2.3772
1480619811274023,-1.12681,-0.387003,2.37765
1480619811304102,-1.1251,-0.387045,2.3781
1480619811317638,-1.12347,-0.387431,2.37881
1480619811334183,-1.12129,-0.387919,2.37936
1480619811356742,-1.11887,-0.388642,2.38007
1480619811377800,-1.11514,-0.389276,2.38058
1480619811394343,-1.11028,-0.389849,2.3815
1480619811416401,-1.10474,-0.390589,2.38264
1480619811438965,-1.09969,-0.391152,2.38433
1480619811454002,-1.09527,-0.391787,2.38614
1480619811476562,-1.09237,-0.392615,2.38804
1480619811497617,-1.09007,-0.393559,2.38894
1480619811514162,-1.08849,-0.394385,2.38871
1480619811536722,-1.08763,-0.395232,2.38792
1480619811557777,-1.08719,-0.395205,2.38696
1480619811574325,-1.08715,-0.394805,2.38637
1480619811596380,-1.0881,-0.394425,2.38632
1480619811617436,-1.08867,-0.394201,2.3862
1480619811633980,-1.08975,-0.393808,2.38621
1480619811662556,-1.08993,-0.393861,2.38631
1480619811679100,-1.08972,-0.393929,2.38648
1480619811694140,-1.08915,-0.394224,2.38653
1480619811716702,-1.08861,-0.394397,2.3863
1480619811739260,-1.08861,-0.394397,2.3863
1480619811755808,-1.08861,-0.394397,2.3863
1480619811776861,-1.08858,-0.394495,2.38635
1480619811806940,-1.08875,-0.394525,2.38623
1480619811827495,-1.08875,-0.394525,2.38623
1480619811836520,-1.08875,-0.394525,2.38623
1480619811859080,-1.08892,-0.394578,2.38632
1480619811873117,-1.08878,-0.394356,2.38625
1480619811896679,-1.08878,-0.394356,2.38625
1480619811918738,-1.08878,-0.394356,2.38625
1480619811933277,-1.08878,-0.394356,2.38625
1480619811956338,-1.08875,-0.394525,2.38623
1480619811978898,-1.08916,-0.394768,2.38615
1480619811993938,-1.08916,-0.394768,2.38615
1480619812024018,-1.08933,-0.394822,2.38625
1480619812047080,-1.0893,-0.394826,2.38615
1480619812054600,-1.08937,-0.394723,2.3862
1480619812085682,-1.08975,-0.394994,2.38624
1480619812099218,-1.08972,-0.395069,2.38607
1480619812113257,-1.08925,-0.39559,2.3861
1480619812136818,-1.08925,-0.39559,2.3861
1480619812158876,-1.08928,-0.395492,2.38604
1480619812179933,-1.08928,-0.395421,2.38612
1480619812196476,-1.08928,-0.395421,2.38612
1480619812220541,-1.08925,-0.39559,2.3861
1480619812240093,-1.08925,-0.39559,2.3861
1480619812256637,-1.08922,-0.395688,2.38615
1480619812280701,-1.08922,-0.395688,2.38615
1480619812302258,-1.08922,-0.395688,2.38615
1480619812329831,-1.08939,-0.395742,2.38624
1480619812344875,-1.08942,-0.395644,2.38619
1480619812359911,-1.08942,-0.395644,2.38619
1480619812382471,-1.08939,-0.395742,2.38624
1480619812399016,-1.08922,-0.395688,2.38615
1480619812420072,-1.08922,-0.395688,2.38615
1480619812437117,-1.08939,-0.395742,2.38624
1480619812459176,-1.08939,-0.395742,2.38624
1480619812480232,-1.08939,-0.395648,2.38609
1480619812496274,-1.08939,-0.395648,2.38609
1480619812518834,-1.08936,-0.395746,2.38615
1480619812547410,-1.08936,-0.395746,2.38615
1480619812556936,-1.08936,-0.395746,2.38615
1480619812579996,-1.08936,-0.395746,2.38615
1480619812602558,-1.08953,-0.395799,2.38624
1480619812639657,-1.08953,-0.395799,2.38624
1480619812642162,-1.08953,-0.395799,2.38624
1480619812661714,-1.0895,-0.395897,2.38629
1480619812675751,-1.0895,-0.395897,2.38629
1480619812698813,-1.08947,-0.395972,2.38612
1480619812721877,-1.08947,-0.395972,2.38612
1480619812736413,-1.08964,-0.395955,2.38629
1480619812766492,-1.08964,-0.395955,2.38629
1480619812789053,-1.08964,-0.395955,2.38629
1480619812796072,-1.08961,-0.396124,2.38627
1480619812826653,-1.08961,-0.396124,2.38627
1480619812849213,-1.08961,-0.396124,2.38627
1480619812863752,-1.08961,-0.396124,2.38627
1480619812887315,-1.08961,-0.396124,2.38627
1480619812917896,-1.08961,-0.396124,2.38627
1480619812922910,-1.08961,-0.396124,2.38627
1480619812938954,-1.08961,-0.396124,2.38627
1480619812970536,-1.08957,-0.396128,2.38617
1480619812976050,-1.08954,-0.396226,2.38623
1480619812999112,-1.08954,-0.396226,2.38623
1480619813021675,-1.08954,-0.396226,2.38623
1480619813045736,-1.08971,-0.396279,2.38632
1480619813059773,-1.08971,-0.396279,2.38632
1480619813081331,-1.08971,-0.396279,2.38632
1480619813102889,-1.08954,-0.396226,2.38623
1480619813118930,-1.08951,-0.396395,2.38621
1480619813141491,-1.08951,-0.396395,2.38621
1480619813170568,-1.08951,-0.396395,2.38621
1480619813187113,-1.08951,-0.396395,2.38621
1480619813201651,-1.08893,-0.396145,2.3859
1480619813222707,-1.08817,-0.395936,2.38564
1480619813238750,-1.08817,-0.395936,2.38564
1480619813261309,-1.08797,-0.396099,2.38597
1480619813282366,-1.08719,-0.396438,2.38597
1480619813298909,-1.08672,-0.396392,2.38615
1480619813321975,-1.08689,-0.396445,2.38624
1480619813359571,-1.08688,-0.396375,2.38631
1480619813362078,-1.08672,-0.396392,2.38615
1480619813382131,-1.08672,-0.396392,2.38615
1480619813410206,-1.08668,-0.39649,2.3862
1480619813418728,-1.08668,-0.39649,2.3862
1480619813441289,-1.08685,-0.396544,2.38629
1480619813462846,-1.08685,-0.396544,2.38629
1480619813478888,-1.08685,-0.396544,2.38629
1480619813501449,-1.08668,-0.39649,2.3862
1480619813524008,-1.08668,-0.39649,2.3862
1480619813539550,-1.08669,-0.396561,2.38613
1480619813561608,-1.08665,-0.396659,2.38618
1480619813584169,-1.08614,-0.396593,2.38605
1480619813598708,-1.08631,-0.396646,2.38614
1480619813621772,-1.08631,-0.396646,2.38614
1480619813660371,-1.08631,-0.396646,2.38614
1480619813664883,-1.08631,-0.396646,2.38614
1480619813681427,-1.08611,-0.396762,2.38603
1480619813704990,-1.08611,-0.396762,2.38603
1480619813718526,-1.08611,-0.396762,2.38603
1480619813741588,-1.08611,-0.396762,2.38603
1480619813763646,-1.08659,-0.396809,2.38657
1480619813778186,-1.08659,-0.396809,2.38657
1480619813803253,-1.08659,-0.396879,2.3865
1480619813823806,-1.08639,-0.396924,2.38646
1480619813838348,-1.08639,-0.396924,2.38646
1480619813861406,-1.08635,-0.397022,2.38651
1480619813883967,-1.08635,-0.397022,2.38651
1480619813898506,-1.08649,-0.39708,2.38651
1480619813935632,-1.08649,-0.39708,2.38651
1480619813945659,-1.08649,-0.39708,2.38651
1480619813966715,-1.08632,-0.397097,2.38634
1480619813981253,-1.08646,-0.397249,2.38649
1480619814012338,-1.08646,-0.397249,2.38649
1480619814026374,-1.08646,-0.397249,2.38649
1480619814048935,-1.08629,-0.397195,2.38639
1480619814063974,-1.08646,-0.397249,2.38649
1480619814085029,-1.08646,-0.397249,2.38649
1480619814101574,-1.08643,-0.397347,2.38654
1480619814124635,-1.08626,-0.397364,2.38637
1480619814162235,-1.0864,-0.397516,2.38652
1480619814164241,-1.08643,-0.397418,2.38647
1480619814191335,-1.08643,-0.397418,2.38647
1480619814205380,-1.08646,-0.397249,2.38649
1480619814221419,-1.08646,-0.397249,2.38649
1480619814243976,-1.08646,-0.397249,2.38649
1480619814265031,-1.08643,-0.397347,2.38654
1480619814289096,-1.08643,-0.397418,2.38647
1480619814304135,-1.08643,-0.397418,2.38647
1480619814325192,-1.08643,-0.397347,2.38654
1480619814341736,-1.08646,-0.397249,2.38649
1480619814363794,-1.08646,-0.397249,2.38649
1480619814387356,-1.08643,-0.397347,2.38654
1480619814401394,-1.08643,-0.397418,2.38647
1480619814423954,-1.08637,-0.39752,2.38642
1480619814452530,-1.08637,-0.39752,2.38642
1480619814469074,-1.08637,-0.39752,2.38642
1480619814490130,-1.08654,-0.397573,2.38652
1480619814507176,-1.08654,-0.397573,2.38652
1480619814521714,-1.08654,-0.397573,2.38652
1480619814543774,-1.08651,-0.397672,2.38657
1480619814573853,-1.08634,-0.397689,2.3864
1480619814581373,-1.08648,-0.39784,2.38655
1480619814603933,-1.08621,-0.398153,2.38654
1480619814626493,-1.08621,-0.398153,2.38654
1480619814642034,-1.08604,-0.398099,2.38644
1480619814665601,-1.08621,-0.398153,2.38654
1480619814686653,-1.08618,-0.398251,2.38659
1480619814707208,-1.08618,-0.398251,2.38659
1480619814725256,-1.08615,-0.39842,2.38657
1480619814746813,-1.08575,-0.398604,2.38663
1480619814776395,-1.08571,-0.398608,2.38654
1480619814784915,-1.08588,-0.398661,2.38663
1480619814806472,-1.08588,-0.398661,2.38663
1480619814821027,-1.08588,-0.398661,2.38663
1480619814844073,-1.08568,-0.398706,2.38659
1480619814872648,-1.08568,-0.398706,2.38659
1480619814880669,-1.08568,-0.398706,2.38659
1480619814911252,-1.08568,-0.398706,2.38659
1480619814942835,-1.08585,-0.39876,2.38668
1480619814945341,-1.08585,-0.39876,2.38668
1480619814963891,-1.08585,-0.39876,2.38668
1480619814993971,-1.08585,-0.39876,2.38668
1480619815007512,-1.08582,-0.398929,2.38666
1480619815024051,-1.08582,-0.398929,2.38666
1480619815046611,-1.08582,-0.398858,2.38673
1480619815067666,-1.08585,-0.39876,2.38668
1480619815083709,-1.08599,-0.398817,2.38668
1480619815106270,-1.08579,-0.398862,2.38664
1480619815128328,-1.08579,-0.398932,2.38657
1480619815143870,-1.08576,-0.399031,2.38662
1480619815166429,-1.08576,-0.399031,2.38662
1480619815187489,-1.08593,-0.399084,2.38671
1480619815212552,-1.08593,-0.399084,2.38671
1480619815240627,-1.08593,-0.399084,2.38671
1480619815248147,-1.08593,-0.399084,2.38671
1480619815264190,-1.0859,-0.399183,2.38676
1480619815293768,-1.08586,-0.399257,2.38659
1480619815307806,-1.08611,-0.39947,2.38664
1480619815324349,-1.08628,-0.399524,2.38674
1480619815346409,-1.08628,-0.399524,2.38674
1480619815367464,-1.08761,-0.398367,2.38656
1480619815384008,-1.08966,-0.396997,2.38656
1480619815406568,-1.09071,-0.396702,2.38662
1480619815436648,-1.09205,-0.397207,2.3869
1480619815444170,-1.09285,-0.397745,2.38709
1480619815466728,-1.09282,-0.397914,2.38707
1480619815496307,-1.0927,-0.398731,2.38799
1480619815526888,-1.09471,-0.398574,2.38887
1480619815530397,-1.09627,-0.398083,2.38958
1480619815549449,-1.09794,-0.397983,2.39034
1480619815564488,-1.09879,-0.397825,2.39051
1480619815586547,-1.10004,-0.397579,2.39077
1480619815609108,-1.10127,-0.397265,2.39101
1480619815623145,-1.10266,-0.396839,2.39126
1480619815652723,-1.10517,-0.396037,2.39185
1480619815668766,-1.10684,-0.395537,2.39212
1480619815683305,-1.10845,-0.395515,2.39262
1480619815706368,-1.11068,-0.395713,2.39332
1480619815728926,-1.11344,-0.395791,2.39386
1480619815746974,-1.11585,-0.395949,2.39451
1480619815772543,-1.11874,-0.395751,2.39521
1480619815788587,-1.12112,-0.394726,2.39573
1480619815803626,-1.12434,-0.393189,2.39635
1480619815834708,-1.12871,-0.391722,2.39751
1480619815849246,-1.13406,-0.390247,2.39797
1480619815863283,-1.13847,-0.388257,2.39814
1480619815886346,-1.1427,-0.385594,2.3977
1480619815908906,-1.14864,-0.38229,2.39777
1480619815929961,-1.15395,-0.378679,2.39842
1480619815954026,-1.15947,-0.375354,2.3999
1480619815969566,-1.16473,-0.372067,2.40217
1480619815990121,-1.17169,-0.368046,2.40469
1480619816007667,-1.17956,-0.363101,2.40739
1480619816034740,-1.18724,-0.357617,2.41025
1480619816050283,-1.19568,-0.351147,2.41298
1480619816066324,-1.20441,-0.344198,2.41539
1480619816088883,-1.21387,-0.337413,2.4172
1480619816109941,-1.22326,-0.33054,2.41812
1480619816126483,-1.23115,-0.323787,2.41844
1480619816149043,-1.23965,-0.317591,2.41838
1480619816170102,-1.24702,-0.311795,2.41853
1480619816187151,-1.25382,-0.306641,2.41901
1480619816209204,-1.26018,-0.302173,2.42014
1480619816247307,-1.26541,-0.298809,2.42143
1480619816252820,-1.26973,-0.296443,2.42351
1480619816269364,-1.27272,-0.295064,2.42566
1480619816297438,-1.27422,-0.294679,2.42789
1480619816313984,-1.27629,-0.295004,2.42977
1480619816329023,-1.27821,-0.295278,2.43135
1480619816350078,-1.27998,-0.295644,2.43279
1480619816372638,-1.28054,-0.296221,2.43405
1480619816389183,-1.28105,-0.296973,2.435
1480619816411743,-1.28222,-0.297354,2.43583
1480619816426281,-1.28356,-0.297866,2.4364
1480619816449343,-1.28493,-0.297633,2.43666
1480619816471401,-1.28696,-0.297029,2.43681
1480619816493963,-1.28923,-0.296213,2.43699
1480619816524042,-1.29112,-0.294889,2.43697
1480619816547604,-1.29279,-0.293855,2.43684
1480619816553623,-1.29258,-0.293633,2.43643
1480619816576683,-1.29264,-0.293627,2.4358
1480619816593227,-1.2935,-0.2933,2.43535
1480619816605762,-1.29319,-0.293271,2.43498
1480619816635337,-1.29278,-0.293428,2.43514
1480619816651380,-1.29131,-0.29369,2.43534
1480619816665918,-1.29038,-0.294352,2.43576
1480619816689481,-1.28948,-0.29484,2.43671
1480619816719060,-1.28885,-0.295379,2.43765
1480619816726079,-1.28766,-0.295944,2.43882
1480619816749140,-1.28613,-0.296567,2.44017
1480619816771700,-1.28333,-0.298239,2.44127
1480619816799775,-1.2818,-0.300032,2.44296
1480619816823842,-1.28009,-0.301947,2.44433
1480619816837374,-1.27751,-0.304098,2.44556
1480619816852415,-1.27471,-0.306391,2.44681
1480619816874975,-1.27175,-0.308482,2.4487
1480619816892023,-1.26731,-0.31053,2.4501
1480619816921599,-1.26265,-0.312956,2.45133
1480619816929119,-1.25957,-0.315992,2.45229
1480619816958698,-1.25618,-0.318423,2.45276
1480619816965716,-1.25109,-0.321022,2.4533
1480619816980756,-1.24528,-0.323999,2.45302
1480619816997802,-1.24071,-0.327491,2.4528
1480619817016851,-1.23635,-0.33078,2.45254
1480619817039413,-1.23129,-0.334377,2.45233
1480619817054454,-1.22443,-0.337827,2.45153
1480619817078517,-1.2148,-0.340355,2.45063
1480619817102080,-1.2021,-0.343171,2.45036
1480619817117119,-1.18702,-0.348166,2.45035
1480619817137176,-1.17239,-0.351632,2.45318
1480619817160735,-1.15867,-0.357446,2.45431
1480619817174274,-1.15024,-0.361871,2.45634
1480619817196831,-1.14078,-0.364933,2.45629
1480619817219391,-1.12995,-0.366273,2.45364
1480619817234431,-1.12001,-0.365724,2.45043
1480619817256991,-1.115,-0.363561,2.44704
1480619817279551,-1.11425,-0.361203,2.4449
1480619817296095,-1.11569,-0.358354,2.44364
1480619817318154,-1.11771,-0.355297,2.44246
1480619817342219,-1.11821,-0.352342,2.44115
1480619817354254,-1.11746,-0.349284,2.44005
1480619817376811,-1.11658,-0.346173,2.43897
1480619817408104,-1.1162,-0.343497,2.43821
1480619817421640,-1.11591,-0.341747,2.43776
1480619817444702,-1.11531,-0.340485,2.43719
1480619817468263,-1.11466,-0.339981,2.43658
1480619817474280,-1.11469,-0.339884,2.43653
1480619817504360,-1.1183,-0.339557,2.43724
1480619817522408,-1.12084,-0.340037,2.43847
1480619817534439,-1.12276,-0.340494,2.43983
1480619817557000,-1.12336,-0.341169,2.44034
1480619817579560,-1.12465,-0.34115,2.44057
1480619817594600,-1.12659,-0.341267,2.44041
1480619817627187,-1.13033,-0.341827,2.44029
1480619817648745,-1.13354,-0.342596,2.44018
1480619817657267,-1.13621,-0.344427,2.43955
1480619817687347,-1.13887,-0.347463,2.43911
1480619817708403,-1.14047,-0.350211,2.43835
1480619817721938,-1.14194,-0.352979,2.43751
1480619817746003,-1.14219,-0.356046,2.43604
1480619817759538,-1.14223,-0.358773,2.43403
1480619817774579,-1.14193,-0.361639,2.43184
1480619817797138,-1.14081,-0.364507,2.4295
1480619817822206,-1.14056,-0.367774,2.42718
1480619817836747,-1.14128,-0.370994,2.42559
1480619817856798,-1.1428,-0.373632,2.42409
1480619817880861,-1.14345,-0.374739,2.42231
1480619817895901,-1.14386,-0.373443,2.42116
1480619817916957,-1.14242,-0.370375,2.42024
1480619817942526,-1.14147,-0.367229,2.41951
1480619817957064,-1.14204,-0.365806,2.41911
1480619817987148,-1.14387,-0.3664,2.41883
1480619817999176,-1.14534,-0.368497,2.41863
1480619818018227,-1.14458,-0.370719,2.4181
1480619818036778,-1.14197,-0.373103,2.41791
1480619818059335,-1.13802,-0.37541,2.41815
1480619818079891,-1.13625,-0.376293,2.41893
1480619818100445,-1.13855,-0.376812,2.41978
1480619818127518,-1.14398,-0.37681,2.42051
1480619818144062,-1.14775,-0.376415,2.42043
1480619818157096,-1.14672,-0.375493,2.41902
1480619818179657,-1.14329,-0.375187,2.41711
1480619818195699,-1.14127,-0.37557,2.41581
1480619818216755,-1.14124,-0.377034,2.41518
1480619818239315,-1.14217,-0.378506,2.41499
1480619818263379,-1.14333,-0.380376,2.41507
1480619818276916,-1.14443,-0.381828,2.41506
1480619818299475,-1.14477,-0.383082,2.41478
1480619818323546,-1.14557,-0.384482,2.41439
1480619818337075,-1.14727,-0.385028,2.41413
1480619818359635,-1.14888,-0.385215,2.41435
1480619818377182,-1.15076,-0.385018,2.41463
1480619818404255,-1.15194,-0.384277,2.41477
1480619818419296,-1.15284,-0.383406,2.41469
1480619818438345,-1.15396,-0.382436,2.414
1480619818457395,-1.15731,-0.382373,2.4145
1480619818479454,-1.1601,-0.383408,2.41366
1480619818502014,-1.15799,-0.38445,2.4128
1480619818517555,-1.15479,-0.388532,2.41241
1480619818540617,-1.15036,-0.393277,2.41154
1480619818570696,-1.14468,-0.3979,2.41122
1480619818576717,-1.13924,-0.402472,2.41137
1480619818599273,-1.13595,-0.406188,2.41183
1480619818621833,-1.13244,-0.409343,2.41195
1480619818636873,-1.12862,-0.4119,2.4114
1480619818659432,-1.12615,-0.413744,2.41087
1480619818681993,-1.12531,-0.415163,2.40973
1480619818697033,-1.12482,-0.415952,2.40821
1480619818727113,-1.12427,-0.416349,2.40608
1480619818741651,-1.12427,-0.416095,2.40384
1480619818756691,-1.12482,-0.41555,2.40147
1480619818786772,-1.12552,-0.415211,2.39896
1480619818810835,-1.12629,-0.414587,2.39621
1480619818816852,-1.1264,-0.413975,2.39389
1480619818839411,-1.12529,-0.41338,2.3917
1480619818870494,-1.12416,-0.412921,2.39
1480619818878014,-1.12317,-0.412519,2.38831
1480619818899572,-1.12212,-0.412815,2.38656
1480619818921630,-1.12155,-0.413351,2.38494
1480619818938175,-1.12029,-0.413927,2.38315
1480619818959230,-1.12016,-0.414784,2.38139
1480619818985801,-1.12246,-0.415598,2.38054
1480619819014878,-1.12194,-0.41741,2.38057
1480619819019390,-1.11827,-0.419064,2.3812
1480619819041950,-1.1156,-0.420863,2.38099
1480619819058494,-1.11495,-0.422031,2.38031
1480619819095594,-1.11529,-0.422751,2.37976
1480619819102612,-1.11491,-0.423504,2.37967
1480619819124170,-1.114,-0.424302,2.37981
1480619819139713,-1.11434,-0.424792,2.38019
1480619819161769,-1.11456,-0.425125,2.38053
1480619819179317,-1.11398,-0.425364,2.38085
1480619819199369,-1.11381,-0.425467,2.38156
1480619819226441,-1.11456,-0.425053,2.38227
1480619819238475,-1.11456,-0.425053,2.38227
1480619819259529,-1.11453,-0.425056,2.38217
1480619819299134,-1.11467,-0.425178,2.38283
1480619819301140,-1.11316,-0.425673,2.38293
1480619819322197,-1.1121,-0.425965,2.38284
1480619819350270,-1.11207,-0.426063,2.38289
1480619819364308,-1.11169,-0.426145,2.3829
1480619819379348,-1.11169,-0.426145,2.3829
1480619819404920,-1.11155,-0.426087,2.38289
1480619819433492,-1.11155,-0.42616,2.38282
1480619819439508,-1.11045,-0.426434,2.38242
1480619819462068,-1.11042,-0.426605,2.3824
1480619819487136,-1.11077,-0.426599,2.38223
1480619819506687,-1.11077,-0.426599,2.38223
1480619819521728,-1.11083,-0.426454,2.38184
1480619819547296,-1.11141,-0.426287,2.38144
1480619819561835,-1.11157,-0.426825,2.38115
1480619819581887,-1.11133,-0.427733,2.38121
1480619819604448,-1.11042,-0.429184,2.38104
1480619819619487,-1.11009,-0.430291,2.38111
1480619819642046,-1.11089,-0.430903,2.3819
1480619819660596,-1.10999,-0.431177,2.38198
1480619819687167,-1.10801,-0.431249,2.38131
1480619819701706,-1.10739,-0.430473,2.38084
1480619819719755,-1.10592,-0.430374,2.38032
1480619819739305,-1.10463,-0.430287,2.37946
1480619819763369,-1.10464,-0.429693,2.37876
1480619819779915,-1.10594,-0.42924,2.37862
1480619819799466,-1.10614,-0.429124,2.37873
1480619819822026,-1.107,-0.429044,2.37885
1480619819847093,-1.107,-0.429044,2.37885
1480619819860628,-1.10697,-0.429215,2.37884
1480619819881684,-1.10709,-0.429372,2.37889
1480619819899732,-1.10706,-0.42947,2.37895
1480619819920789,-1.10697,-0.429866,2.37852
1480619819941844,-1.10742,-0.429995,2.37819
1480619819959892,-1.10717,-0.429736,2.37769
1480619819980948,-1.10599,-0.429826,2.37711
1480619820002004,-1.10459,-0.42958,2.3762
1480619820024564,-1.10342,-0.429092,2.37586
1480619820041610,-1.10219,-0.428726,2.3757
1480619820062667,-1.10134,-0.428184,2.37538
1480619820084223,-1.10076,-0.42733,2.37508
1480619820100767,-1.09994,-0.426763,2.37465
1480619820121824,-1.09976,-0.426707,2.37455
1480619820144384,-1.0998,-0.426704,2.37465
1480619820160927,-1.09977,-0.42678,2.37448
1480619820181983,-1.09977,-0.42678,2.37448
1480619820212064,-1.09974,-0.426973,2.37468
1480619820222090,-1.09919,-0.427094,2.37473
1480619820242645,-1.09867,-0.427045,2.37481
1480619820265205,-1.09815,-0.427068,2.37481
1480619820288266,-1.09758,-0.427455,2.37499
1480619820301802,-1.0974,-0.4274,2.37489
1480619820324363,-1.09737,-0.42757,2.37487
1480619820349930,-1.09737,-0.42757,2.37487
1480619820361962,-1.09802,-0.428205,2.37485
1480619820384522,-1.09901,-0.428761,2.37472
1480619820402572,-1.10159,-0.429195,2.37498
1480619820422122,-1.10464,-0.430137,2.3752
1480619820444181,-1.10444,-0.430252,2.37508
1480619820463232,-1.10425,-0.430964,2.37504
1480619820481781,-1.10422,-0.431062,2.37509
1480619820504341,-1.10422,-0.431062,2.37509
1480619820522389,-1.10422,-0.431062,2.37509
1480619820541941,-1.10419,-0.431065,2.375
1480619820572021,-1.10384,-0.431744,2.37507
1480619820582048,-1.10326,-0.432109,2.37503
1480619820602101,-1.1032,-0.432283,2.37492
1480619820625664,-1.10317,-0.432381,2.37497
1480619820643210,-1.10288,-0.43219,2.37504
1480619820670784,-1.10324,-0.431629,2.37533
1480619820684321,-1.1025,-0.431119,2.37543
1480619820706883,-1.10207,-0.430943,2.37542
1480619820721920,-1.10193,-0.430884,2.37542
1480619820744480,-1.10251,-0.430519,2.37545
1480619820763029,-1.10447,-0.430074,2.37583
1480619820783082,-1.10632,-0.429494,2.37637
1480619820804138,-1.10635,-0.429324,2.37639
1480619820823189,-1.10729,-0.429477,2.3764
1480619820843242,-1.10715,-0.429418,2.37639
1480619820864298,-1.10715,-0.429491,2.37632
1480619820882346,-1.10742,-0.430209,2.37631
1480619820903402,-1.10687,-0.431075,2.3762
1480619820935491,-1.10687,-0.431075,2.3762
1480619820947019,-1.10643,-0.431426,2.37623
1480619820963562,-1.10643,-0.431426,2.37623
1480619820991638,-1.10564,-0.431738,2.376
1480619821002171,-1.10565,-0.431811,2.37593
1480619821023222,-1.10562,-0.431909,2.37598
1480619821045280,-1.10515,-0.432409,2.37578
1480619821070848,-1.10512,-0.432507,2.37584
1480619821083381,-1.10446,-0.432449,2.37561
1480619821104439,-1.10394,-0.432618,2.37547
1480619821146048,-1.10449,-0.432424,2.37549
1480619821160586,-1.10446,-0.432595,2.37547
1480619821165099,-1.10385,-0.432941,2.37512
1480619821182144,-1.10364,-0.432983,2.37507
1480619821205707,-1.10382,-0.433039,2.37517
1480619821243808,-1.10382,-0.433039,2.37517
1480619821247317,-1.10385,-0.432941,2.37512
1480619821264865,-1.10385,-0.432941,2.37512
1480619821291936,-1.10382,-0.433039,2.37517
1480619821302465,-1.10382,-0.433112,2.3751
1480619821325024,-1.10379,-0.43321,2.37515
1480619821344578,-1.10376,-0.433308,2.37521
1480619821362122,-1.10376,-0.433308,2.37521
1480619821384683,-1.10376,-0.433308,2.37521
1480619821404234,-1.10379,-0.43321,2.37515
1480619821422283,-1.10379,-0.43321,2.37515
1480619821467904,-1.10361,-0.433154,2.37506
1480619821490966,-1.10361,-0.433154,2.37506
1480619821519541,-1.10358,-0.433325,2.37504
1480619821522048,-1.10358,-0.433325,2.37504
1480619821528064,-1.10358,-0.433325,2.37504
1480619821547116,-1.10361,-0.433154,2.37506
1480619821564662,-1.10361,-0.433154,2.37506
1480619821584214,-1.10379,-0.43321,2.37515
1480619821606774,-1.10358,-0.433252,2.37511
1480619821624822,-1.10358,-0.433325,2.37504
1480619821644375,-1.10355,-0.433423,2.37509
1480619821666934,-1.10358,-0.433325,2.37504
1480619821684983,-1.10358,-0.433201,2.3754
1480619821704534,-1.10313,-0.43305,2.37551
1480619821746144,-1.10316,-0.433047,2.37561
1480619821750156,-1.10313,-0.43305,2.37551
1480619821765696,-1.1031,-0.433221,2.37549
1480619821797783,-1.10289,-0.433263,2.37545
1480619821804801,-1.10289,-0.433263,2.37545
1480619821826860,-1.10289,-0.433263,2.37545
1480619821846913,-1.1031,-0.433221,2.37549
1480619821864965,-1.10307,-0.433319,2.37555
1480619821886022,-1.10307,-0.433319,2.37555
1480619821908080,-1.10307,-0.433319,2.37555
1480619821925627,-1.10307,-0.433319,2.37555
1480619821953200,-1.10307,-0.433319,2.37555
1480619821966737,-1.10307,-0.433319,2.37555
1480619821984785,-1.10307,-0.433319,2.37555
1480619822013361,-1.10307,-0.433319,2.37555
1480619822034918,-1.10286,-0.433435,2.37543
1480619822058981,-1.10332,-0.433586,2.37532
1480619822096080,-1.10329,-0.433684,2.37537
1480619822098587,-1.10329,-0.433684,2.37537
1480619822104603,-1.10332,-0.433513,2.37539
1480619822127163,-1.10332,-0.433513,2.37539
1480619822146714,-1.10335,-0.43351,2.37548
1480619822166768,-1.10318,-0.433527,2.37531
1480619822187324,-1.10315,-0.433625,2.37536
1480619822206875,-1.10315,-0.433625,2.37536
1480619822230939,-1.10312,-0.433796,2.37535
1480619822247488,-1.10315,-0.433625,2.37536
1480619822267035,-1.10318,-0.433527,2.37531
1480619822293104,-1.10318,-0.433527,2.37531
1480619822314160,-1.10318,-0.433527,2.37531
1480619822351259,-1.10297,-0.433569,2.37527
1480619822353768,-1.10297,-0.433569,2.37527
1480619822375323,-1.10297,-0.433569,2.37527
1480619822386853,-1.10315,-0.433625,2.37536
1480619822404901,-1.10297,-0.433569,2.37527
1480619822427461,-1.10365,-0.434158,2.3749
1480619822447014,-1.10572,-0.436556,2.37339
1480619822464560,-1.10308,-0.43839,2.37202
1480619822487121,-1.10098,-0.439928,2.37124
1480619822507174,-1.09996,-0.440576,2.37058
1480619822525223,-1.09915,-0.441109,2.37004
1480619822548287,-1.0986,-0.441303,2.37002
1480619822577360,-1.0986,-0.441303,2.37002
1480619822599921,-1.09809,-0.44065,2.37011
1480619822631004,-1.09735,-0.440352,2.37072
1480619822651564,-1.09655,-0.440133,2.37107
1480619822654065,-1.09633,-0.439718,2.37154
1480619822668608,-1.09633,-0.439718,2.37154
1480619822695675,-1.0965,-0.439775,2.37164
1480619822704700,-1.09653,-0.439603,2.37166
1480619822727260,-1.0965,-0.439775,2.37164
1480619822749336,-1.09677,-0.43939,2.37173
1480619822764860,-1.09683,-0.439193,2.37162
1480619822787420,-1.09695,-0.438727,2.37148
1480619822808475,-1.09724,-0.438221,2.37129
1480619822829531,-1.09771,-0.437868,2.37135
1480619822852093,-1.09774,-0.437769,2.3713
1480619822875654,-1.09774,-0.437696,2.37137
1480619822906235,-1.0982,-0.437871,2.37148
1480619822911249,-1.09845,-0.438183,2.37169
1480619822928295,-1.09894,-0.438185,2.37181
1480619822949350,-1.09934,-0.437933,2.37183
1480619822967401,-1.09981,-0.437433,2.37203
1480619822994470,-1.10013,-0.436779,2.37208
1480619823009510,-1.10017,-0.436777,2.37217
1480619823027057,-1.10017,-0.436777,2.37217
1480619823049619,-1.10017,-0.436777,2.37217
1480619823069169,-1.10017,-0.436777,2.37217
1480619823087718,-1.10017,-0.43685,2.3721
1480619823110278,-1.10017,-0.436777,2.37217
1480619823129329,-1.1002,-0.436678,2.37212
1480619823153393,-1.10037,-0.436662,2.37229
1480619823174449,-1.1002,-0.436605,2.37219
1480619823189489,-1.1002,-0.436605,2.37219
1480619823212050,-1.1002,-0.436678,2.37212
1480619823229595,-1.1002,-0.436678,2.37212
1480619823249147,-1.10002,-0.436622,2.37202
1480619823267196,-1.10006,-0.436619,2.37212
1480619823289756,-1.10009,-0.436448,2.37214
1480619823309308,-1.10009,-0.436448,2.37214
1480619823327356,-1.10009,-0.436448,2.37214
1480619823352422,-1.10062,-0.436928,2.37206
1480619823372476,-1.10113,-0.437507,2.37204
1480619823401053,-1.10113,-0.437507,2.37204
1480619823409602,-1.10113,-0.437507,2.37204
1480619823429627,-1.10113,-0.437507,2.37204
1480619823454695,-1.10116,-0.437409,2.37199
1480619823470236,-1.10113,-0.437507,2.37204
1480619823489287,-1.10113,-0.437507,2.37204
1480619823511846,-1.10113,-0.437507,2.37204
1480619823535912,-1.10113,-0.437507,2.37204
1480619823549447,-1.10178,-0.437114,2.37205
1480619823567494,-1.10178,-0.437114,2.37205
1480619823589554,-1.1018,-0.436943,2.37207
1480619823609105,-1.10163,-0.436887,2.37197
1480619823628156,-1.10163,-0.43696,2.3719
1480619823649714,-1.10163,-0.43696,2.3719
1480619823678289,-1.10163,-0.43696,2.3719
1480619823691825,-1.10166,-0.436789,2.37192
1480619823714385,-1.10169,-0.436786,2.37201
1480619823729926,-1.10132,-0.436143,2.3724
1480619823747473,-1.10076,-0.435878,2.37289
1480619823769031,-1.10021,-0.435875,2.37331
1480619823790090,-1.09978,-0.436271,2.37378
1480619823812646,-1.09974,-0.436993,2.37403
1480619823829190,-1.10033,-0.437753,2.37419
1480619823849746,-1.10069,-0.438272,2.37416
1480619823873810,-1.10069,-0.438272,2.37416
1480619823896369,-1.10069,-0.438272,2.37416
1480619823917927,-1.10072,-0.438174,2.37411
1480619823927956,-1.10072,-0.438174,2.37411
1480619823956529,-1.10072,-0.4381,2.37418
1480619823977585,-1.10072,-0.4381,2.37418
1480619823986108,-1.10072,-0.4381,2.37418
1480619824016694,-1.10072,-0.4381,2.37418
1480619824031228,-1.10072,-0.4381,2.37418
1480619824045767,-1.10072,-0.4381,2.37418
1480619824068828,-1.10072,-0.438174,2.37411
1480619824092391,-1.10069,-0.438272,2.37416
1480619824112444,-1.10072,-0.4381,2.37418
1480619824128988,-1.1005,-0.437736,2.37436
1480619824151549,-1.10007,-0.437486,2.37442
1480619824174109,-1.0999,-0.43743,2.37432
1480619824190152,-1.10031,-0.4372,2.37455
1480619824211708,-1.10031,-0.4372,2.37455
1480619824232764,-1.10031,-0.4372,2.37455
1480619824254826,-1.10034,-0.437101,2.3745
1480619824278887,-1.10034,-0.437101,2.3745
1480619824285908,-1.1004,-0.437001,2.37454
1480619824308968,-1.1004,-0.436927,2.37461
1480619824331527,-1.1004,-0.436927,2.37461
1480619824346066,-1.1004,-0.437001,2.37454
1480619824369128,-1.10023,-0.436944,2.37444
1480619824391688,-1.1004,-0.437001,2.37454
1480619824405727,-1.1004,-0.436927,2.37461
1480619824429287,-1.10043,-0.436829,2.37456
1480619824451346,-1.10043,-0.436829,2.37456
1480619824479923,-1.10043,-0.436829,2.37456
1480619824488946,-1.10025,-0.436773,2.37446
1480619824511506,-1.10025,-0.436773,2.37446
1480619824533565,-1.10025,-0.436773,2.37446
1480619824556626,-1.10043,-0.436829,2.37456
1480619824571667,-1.10046,-0.436658,2.37458
1480619824592722,-1.10046,-0.436658,2.37458
1480619824609768,-1.10049,-0.436655,2.37468
1480619824631325,-1.10032,-0.436599,2.37458
1480619824652381,-1.10032,-0.436672,2.3745
1480619824674940,-1.10032,-0.436672,2.3745
1480619824708031,-1.10032,-0.436672,2.3745
1480619824720065,-1.10107,-0.43629,2.37471
1480619824736606,-1.10107,-0.43629,2.37471
1480619824751649,-1.10032,-0.435903,2.37445
1480619824772701,-1.10032,-0.435903,2.37445
1480619824788744,-1.10029,-0.436001,2.3745
1480619824811304,-1.10029,-0.436001,2.3745
1480619824833863,-1.10029,-0.436001,2.3745
1480619824848904,-1.10029,-0.436001,2.3745
1480619824871969,-1.1005,-0.435959,2.37455
1480619824892520,-1.1005,-0.435959,2.37455
1480619824909064,-1.1005,-0.435959,2.37455
1480619824931623,-1.1005,-0.435959,2.37455
1480619824954183,-1.1005,-0.435959,2.37455
1480619824974738,-1.1005,-0.435959,2.37455
1480619825007326,-1.10053,-0.435861,2.3745
1480619825014845,-1.10056,-0.435785,2.37466
1480619825036404,-1.10059,-0.435687,2.37461
1480619825051446,-1.10059,-0.435687,2.37461
1480619825075006,-1.10042,-0.435631,2.37451
1480619825088541,-1.10039,-0.435729,2.37456
1480619825111602,-1.10039,-0.435729,2.37456
1480619825135170,-1.10059,-0.435687,2.37461
1480619825149203,-1.10059,-0.435687,2.37461
1480619825171262,-1.10062,-0.435516,2.37463
1480619825199838,-1.10062,-0.435516,2.37463
1480619825208360,-1.10062,-0.435516,2.37463
1480619825231420,-1.10045,-0.435533,2.37446
1480619825253981,-1.10042,-0.435631,2.37451
1480619825292584,-1.10045,-0.43546,2.37453
1480619825295091,-1.10062,-0.435516,2.37463
1480619825314141,-1.10065,-0.435417,2.37458
1480619825329181,-1.10065,-0.435417,2.37458
1480619825351745,-1.10065,-0.435417,2.37458
1480619825373806,-1.10048,-0.435361,2.37448
1480619825394856,-1.10045,-0.43546,2.37453
1480619825411400,-1.10117,-0.435344,2.37487
1480619825433962,-1.10117,-0.435344,2.37487
1480619825456018,-1.1012,-0.435173,2.37489
1480619825485098,-1.1012,-0.435173,2.37489
1480619825510665,-1.1012,-0.435173,2.37489
1480619825515176,-1.1012,-0.435173,2.37489
1480619825539742,-1.10137,-0.435229,2.37499
1480619825553778,-1.10137,-0.435229,2.37499
1480619825574835,-1.10137,-0.435229,2.37499
1480619825591379,-1.1014,-0.43513,2.37493
1480619825621459,-1.1014,-0.43513,2.37493
1480619825635498,-1.1014,-0.43513,2.37493
1480619825651542,-1.1014,-0.43513,2.37493
1480619825674602,-1.1014,-0.43513,2.37493
1480619825695154,-1.1014,-0.43513,2.37493
1480619825711699,-1.1014,-0.43513,2.37493
1480619825734259,-1.10143,-0.434959,2.37495
1480619825762334,-1.10143,-0.434959,2.37495
1480619825785396,-1.10143,-0.434959,2.37495
1480619825795421,-1.10143,-0.434959,2.37495
1480619825816979,-1.10143,-0.434959,2.37495
1480619825837535,-1.10143,-0.434959,2.37495
1480619825860093,-1.10164,-0.434917,2.375
1480619825875134,-1.10164,-0.434844,2.37507
1480619825891678,-1.10164,-0.434844,2.37507
1480619825913737,-1.10129,-0.434923,2.37517
1480619825943817,-1.10129,-0.434923,2.37517
1480619825951341,-1.10129,-0.434923,2.37517
1480619825981417,-1.10129,-0.434923,2.37517
1480619826003977,-1.10129,-0.434923,2.37517
1480619826011497,-1.10129,-0.434923,2.37517
1480619826040073,-1.10132,-0.434752,2.37519
1480619826071155,-1.10132,-0.434752,2.37519
1480619826073665,-1.10132,-0.434752,2.37519
1480619826093716,-1.10129,-0.434923,2.37517
1480619826117279,-1.10129,-0.434923,2.37517
1480619826145854,-1.10129,-0.434923,2.37517
1480619826153876,-1.10132,-0.434752,2.37519
1480619826176436,-1.10135,-0.434653,2.37513
1480619826190974,-1.10153,-0.434709,2.37523
1480619826221557,-1.10153,-0.434709,2.37523
1480619826236595,-1.10132,-0.434752,2.37519
1480619826259155,-1.10132,-0.434752,2.37519
1480619826281214,-1.10132,-0.434752,2.37519
1480619826320318,-1.1015,-0.434808,2.37528
1480619826324830,-1.1015,-0.434808,2.37528
1480619826335359,-1.1015,-0.434808,2.37528
1480619826356415,-1.10132,-0.434752,2.37519
1480619826377470,-1.10132,-0.434752,2.37519
1480619826395018,-1.10129,-0.434923,2.37517
1480619826418079,-1.10129,-0.434923,2.37517
1480619826437630,-1.10132,-0.434752,2.37519
1480619826454174,-1.10179,-0.434375,2.37502
1480619826476233,-1.10182,-0.434204,2.37504
1480619826506313,-1.10222,-0.433952,2.37506
1480619826513835,-1.10222,-0.433952,2.37506
1480619826536393,-1.10222,-0.433952,2.37506
1480619826566473,-1.10222,-0.433952,2.37506
1480619826573491,-1.10222,-0.433952,2.37506
1480619826596553,-1.10289,-0.433314,2.37516
1480619826617609,-1.1035,-0.433019,2.37522
1480619826634154,-1.1035,-0.433019,2.37522
1480619826657214,-1.10335,-0.433437,2.37555
1480619826677770,-1.10318,-0.433454,2.37538
1480619826693811,-1.10321,-0.433451,2.37548
1480619826716372,-1.10387,-0.433436,2.37577
1480619826737929,-1.1039,-0.433338,2.37572
1480619826753972,-1.1039,-0.433265,2.37579
1480619826784053,-1.1039,-0.433265,2.37579
1480619826814636,-1.10352,-0.43342,2.37572
1480619826820152,-1.10291,-0.433788,2.37559
1480619826842707,-1.10292,-0.433861,2.37552
1480619826866270,-1.10291,-0.433788,2.37559
1480619826873791,-1.10294,-0.43369,2.37554
1480619826896351,-1.10294,-0.43369,2.37554
1480619826918910,-1.1028,-0.433653,2.37575
1480619826933951,-1.1028,-0.433653,2.37575
1480619826956510,-1.10277,-0.433751,2.37581
1480619826979572,-1.10274,-0.433827,2.37564
1480619826994110,-1.10274,-0.433754,2.37571
1480619827017172,-1.10277,-0.433656,2.37566
1480619827039732,-1.10243,-0.433735,2.37576
1480619827062292,-1.10232,-0.433578,2.3757
1480619827082345,-1.10232,-0.433578,2.3757
1480619827098889,-1.10232,-0.433578,2.3757
1480619827121449,-1.10229,-0.433749,2.37568
1480619827137993,-1.10229,-0.433749,2.37568
1480619827159049,-1.10232,-0.433578,2.3757
1480619827173087,-1.10194,-0.43366,2.3757
1480619827196650,-1.10211,-0.433642,2.37587
1480619827219712,-1.10194,-0.433587,2.37577
1480619827233249,-1.10194,-0.43366,2.3757
1480619827256308,-1.10194,-0.433755,2.37585
1480619827286388,-1.10191,-0.433758,2.37575
1480619827301431,-1.10194,-0.433587,2.37577
1480619827332512,-1.10211,-0.433642,2.37587
1480619827339029,-1.10218,-0.433541,2.37592
1480619827360083,-1.10214,-0.433471,2.37589
1480619827376629,-1.10214,-0.433544,2.37582
1480619827399188,-1.10214,-0.433544,2.37582
1480619827420266,-1.10218,-0.433541,2.37592
1480619827436287,-1.10263,-0.433619,2.37587
1480619827458847,-1.10266,-0.433448,2.37589
1480619827482411,-1.10246,-0.433513,2.37606
1480619827496948,-1.10166,-0.433492,2.37599
1480619827519007,-1.10166,-0.433492,2.37599
1480619827540063,-1.10197,-0.433584,2.37587
1480619827556607,-1.10197,-0.433584,2.37587
1480619827579168,-1.10197,-0.433584,2.37587
1480619827607241,-1.10174,-0.433769,2.37631
1480619827616267,-1.10099,-0.434006,2.37625
1480619827638829,-1.10085,-0.43402,2.37617
1480619827659883,-1.10133,-0.434,2.37608
1480619827676426,-1.10133,-0.434,2.37608
1480619827698985,-1.10104,-0.434455,2.37656
1480619827721044,-1.10043,-0.434846,2.37664
1480619827736586,-1.09971,-0.434985,2.37653
1480619827759147,-1.09971,-0.434985,2.37653
1480619827781706,-1.09971,-0.434985,2.37653
1480619827803764,-1.10017,-0.435135,2.37641
1480619827819306,-1.10017,-0.435135,2.37641
1480619827841365,-1.09994,-0.435444,2.3765
1480619827869941,-1.09959,-0.435524,2.3766
1480619827885984,-1.09959,-0.435524,2.3766
1480619827901524,-1.09962,-0.435352,2.37661
1480619827922580,-1.09962,-0.435352,2.37661
1480619827939124,-1.09962,-0.435352,2.37661
1480619827984747,-1.09962,-0.435352,2.37661
1480619827990260,-1.09959,-0.435451,2.37667
1480619827999786,-1.09959,-0.435451,2.37667
1480619828021345,-1.09962,-0.435352,2.37661
1480619828035883,-1.09962,-0.435352,2.37661
1480619828064960,-1.09965,-0.435254,2.37656
1480619828087519,-1.09948,-0.435125,2.37653
1480619828096042,-1.09948,-0.435198,2.37646
1480619828126624,-1.09948,-0.435198,2.37646
1480619828148182,-1.09948,-0.435198,2.37646
1480619828171242,-1.09948,-0.435198,2.37646
1480619828180266,-1.09965,-0.435181,2.37663
1480619828201323,-1.09965,-0.435181,2.37663
1480619828215861,-1.09968,-0.435083,2.37658
1480619828239925,-1.09916,-0.435179,2.37651
1480619828262993,-1.09913,-0.435278,2.37656
1480619828285047,-1.09913,-0.435278,2.37656
1480619828299083,-1.09913,-0.435278,2.37656
1480619828327163,-1.09916,-0.435179,2.37651
1480619828342698,-1.09916,-0.435179,2.37651
1480619828359242,-1.09888,-0.434989,2.37657
1480619828382304,-1.09891,-0.434891,2.37652
1480619828409877,-1.09871,-0.434933,2.37647
1480619828426424,-1.09871,-0.434933,2.37647
1480619828441963,-1.09871,-0.434933,2.37647
1480619828462516,-1.09891,-0.434891,2.37652
1480619828480064,-1.09891,-0.434818,2.37659
1480619828502623,-1.09894,-0.43472,2.37654
1480619828522677,-1.09894,-0.43472,2.37654
1480619828538720,-1.09891,-0.434818,2.37659
1480619828561281,-1.09891,-0.434891,2.37652
1480619828591361,-1.09909,-0.434947,2.37662
1480619828600384,-1.09911,-0.434776,2.37664
1480619828621440,-1.09911,-0.434776,2.37664
1480619828642496,-1.09911,-0.434776,2.37664
1480619828659040,-1.09911,-0.434776,2.37664
1480619828681600,-1.09911,-0.434776,2.37664
1480619828702656,-1.09911,-0.434776,2.37664
1480619828728225,-1.09911,-0.434776,2.37664
1480619828741259,-1.09911,-0.434776,2.37664
1480619828763818,-1.09932,-0.43466,2.37675
1480619828786379,-1.09932,-0.43466,2.37675
1480619828809941,-1.09915,-0.4347,2.3768
1480619828824480,-1.09897,-0.434644,2.3767
1480619828838518,-1.09894,-0.434743,2.37676
1480619828870603,-1.09894,-0.434743,2.37676
1480619828890154,-1.09894,-0.434743,2.37676
1480619828898677,-1.09897,-0.434644,2.3767
1480619828922741,-1.09897,-0.434644,2.3767
1480619828943798,-1.09897,-0.434644,2.3767
1480619828959338,-1.09897,-0.434644,2.3767
1480619828981398,-1.09915,-0.4347,2.3768
1480619829003958,-1.09915,-0.4347,2.3768
1480619829018496,-1.09915,-0.4347,2.3768
1480619829041557,-1.09915,-0.434627,2.37687
1480619829064619,-1.09918,-0.434529,2.37682
1480619829078156,-1.09918,-0.434529,2.37682
1480619829101218,-1.09918,-0.434529,2.37682
1480619829123776,-1.099,-0.434473,2.37672
1480619829146837,-1.099,-0.434473,2.37672
1480619829161376,-1.099,-0.434473,2.37672
1480619829183936,-1.099,-0.434473,2.37672
1480619829198476,-1.099,-0.434473,2.37672
1480619829223042,-1.09903,-0.434375,2.37667
1480619829244097,-1.09903,-0.434375,2.37667
1480619829272672,-1.09903,-0.434375,2.37667
1480619829288717,-1.099,-0.434473,2.37672
1480619829303756,-1.099,-0.434473,2.37672
1480619829324811,-1.099,-0.434473,2.37672
1480619829347372,-1.09921,-0.434431,2.37677
1480619829365419,-1.0992,-0.434358,2.37684
1480619829392490,-1.09906,-0.434372,2.37677
1480619829401515,-1.09906,-0.434372,2.37677
1480619829424075,-1.09906,-0.434372,2.37677
1480619829445131,-1.09906,-0.434372,2.37677
1480619829462177,-1.09906,-0.434372,2.37677
1480619829483734,-1.09892,-0.434241,2.37683
1480619829504790,-1.09895,-0.434142,2.37678
1480619829530358,-1.09895,-0.434069,2.37685
1480619829559937,-1.09892,-0.434241,2.37683
1480619829566955,-1.09892,-0.434241,2.37683
1480619829581494,-1.09892,-0.434241,2.37683
1480619829618091,-1.09892,-0.434241,2.37683
1480619829625111,-1.09909,-0.434224,2.377
1480619829641654,-1.09912,-0.434125,2.37695
1480619829663714,-1.09912,-0.434125,2.37695
1480619829687777,-1.09912,-0.434125,2.37695
1480619829703819,-1.09895,-0.434069,2.37685
1480619829723872,-1.09892,-0.434241,2.37683
1480619829746433,-1.09895,-0.434069,2.37685
1480619829761975,-1.09895,-0.434069,2.37685
1480619829785537,-1.09915,-0.434027,2.3769
1480619829807094,-1.09915,-0.433954,2.37697
1480619829836673,-1.09915,-0.433954,2.37697
1480619829844193,-1.09898,-0.433971,2.3768
1480619829866251,-1.09895,-0.434069,2.37685
1480619829888811,-1.09915,-0.434027,2.3769
1480619829904353,-1.09915,-0.434027,2.3769
1480619829928417,-1.09915,-0.433954,2.37697
1480619829947468,-1.09915,-0.433954,2.37697
1480619829965015,-1.09918,-0.433856,2.37692
1480619829986572,-1.09915,-0.433954,2.37697
1480619830007627,-1.09898,-0.433971,2.3768
1480619830031692,-1.09898,-0.433971,2.3768
1480619830046230,-1.09898,-0.433898,2.37687
1480619830060769,-1.09901,-0.433896,2.37697
1480619830083832,-1.09922,-0.433853,2.37701
1480619830106892,-1.09918,-0.433856,2.37692
1480619830122433,-1.09922,-0.433853,2.37701
1480619830143990,-1.09904,-0.433797,2.37691
1480619830166551,-1.09901,-0.4338,2.37682
1480619830187606,-1.09922,-0.433853,2.37701
1480619830204150,-1.09887,-0.433764,2.37703
1480619830227211,-1.09887,-0.433764,2.37703
1480619830247265,-1.0989,-0.433666,2.37698
1480619830264812,-1.09887,-0.433764,2.37703
1480619830286369,-1.09887,-0.433764,2.37703
1480619830314956,-1.09887,-0.433764,2.37703
1480619830324471,-1.09887,-0.433764,2.37703
1480619830348033,-1.0989,-0.433666,2.37698
1480619830367586,-1.0989,-0.433666,2.37698
1480619830390145,-1.0989,-0.433666,2.37698
1480619830406689,-1.0989,-0.433666,2.37698
1480619830429755,-1.09893,-0.433663,2.37708
1480619830450305,-1.09876,-0.433607,2.37698
1480619830473868,-1.09876,-0.433607,2.37698
1480619830487404,-1.09876,-0.433607,2.37698
1480619830512973,-1.09879,-0.433436,2.377
1480619830526508,-1.09937,-0.433239,2.37711
1480619830547564,-1.09937,-0.433239,2.37711
1480619830564108,-1.09919,-0.433256,2.37694
1480619830586680,-1.09919,-0.433256,2.37694
1480619830610732,-1.09919,-0.433256,2.37694
1480619830646828,-1.09922,-0.433084,2.37696
1480619830650341,-1.09922,-0.433084,2.37696
1480619830669388,-1.09925,-0.432986,2.37691
1480619830683927,-1.09925,-0.432986,2.37691
1480619830706487,-1.09925,-0.432986,2.37691
1480619830729047,-1.09922,-0.433084,2.37696
1480619830750606,-1.09922,-0.433084,2.37696
1480619830774168,-1.09922,-0.433084,2.37696
1480619830789724,-1.09925,-0.432986,2.37691
1480619830812270,-1.09925,-0.432913,2.37698
1480619830826306,-1.09943,-0.432969,2.37708
1480619830856386,-1.09928,-0.432911,2.37707
1480619830863404,-1.09943,-0.433042,2.37701
1480619830893985,-1.09925,-0.432986,2.37691
1480619830909026,-1.09925,-0.432986,2.37691
1480619830937614,-1.09925,-0.432913,2.37698
1480619830946626,-1.09946,-0.432871,2.37702
1480619830976204,-1.09946,-0.432871,2.37702
1480619830983224,-1.09897,-0.432796,2.37697
1480619831006285,-1.09897,-0.432796,2.37697
1480619831028844,-1.09897,-0.432796,2.37697
1480619831044389,-1.09897,-0.432796,2.37697
1480619831066445,-1.09897,-0.432796,2.37697
1480619831089005,-1.09903,-0.432695,2.37701
1480619831103042,-1.09903,-0.432622,2.37709
1480619831126605,-1.09903,-0.432622,2.37709
1480619831149166,-1.09903,-0.432695,2.37701
1480619831169719,-1.099,-0.432698,2.37692
1480619831187767,-1.099,-0.432698,2.37692
1480619831216344,-1.099,-0.432625,2.37699
1480619831230380,-1.09917,-0.432681,2.37709
1480619831246925,-1.0992,-0.432583,2.37704
1480619831268984,-1.09924,-0.43258,2.37713
1480619831290054,-1.09924,-0.43258,2.37713
1480619831306584,-1.09903,-0.432622,2.37709
1480619831329645,-1.09903,-0.432622,2.37709
1480619831350199,-1.09924,-0.43258,2.37713
1480619831366243,-1.09924,-0.43258,2.37713
1480619831389804,-1.09926,-0.432409,2.37715
1480619831409859,-1.09926,-0.432409,2.37715
1480619831426402,-1.09926,-0.432409,2.37715
1480619831448962,-1.09924,-0.43258,2.37713
1480619831479042,-1.09924,-0.43258,2.37713
1480619831492579,-1.09924,-0.43258,2.37713
1480619831509123,-1.09926,-0.432409,2.37715
1480619831530681,-1.09926,-0.432409,2.37715
1480619831552237,-1.09929,-0.432311,2.3771
1480619831574797,-1.09875,-0.432505,2.37708
1480619831591341,-1.09855,-0.432621,2.37696
1480619831612397,-1.09855,-0.432621,2.37696
1480619831628941,-1.09872,-0.432604,2.37713
1480619831651501,-1.09875,-0.432505,2.37708
1480619831666547,-1.09878,-0.432407,2.37703
1480619831689101,-1.09878,-0.432407,2.37703
1480619831726201,-1.09878,-0.432407,2.37703
1480619831730712,-1.09857,-0.43245,2.37698
1480619831756280,-1.09857,-0.43245,2.37698
1480619831787864,-1.09926,-0.432409,2.37715
1480619831792377,-1.09947,-0.432294,2.37727
1480619831810424,-1.09907,-0.431874,2.37735
1480619831831981,-1.0991,-0.431776,2.3773
1480619831860055,-1.0991,-0.431776,2.3773
1480619831869085,-1.0989,-0.431891,2.37718
1480619831892141,-1.0989,-0.431891,2.37718
1480619831905677,-1.0989,-0.431891,2.37718
1480619831928739,-1.09893,-0.431793,2.37713
1480619831951298,-1.09893,-0.43172,2.3772
1480619831965837,-1.09899,-0.431619,2.37724
1480619832011459,-1.09896,-0.431717,2.37729
1480619832020990,-1.09896,-0.431717,2.37729
1480619832048056,-1.09896,-0.431717,2.37729
1480619832064100,-1.09879,-0.431662,2.37719
1480619832085656,-1.09899,-0.431619,2.37724
1480619832092675,-1.09899,-0.431619,2.37724
1480619832108717,-1.09882,-0.431563,2.37714
1480619832131277,-1.09885,-0.431465,2.37709
1480619832152334,-1.09902,-0.431521,2.37719
1480619832168877,-1.09902,-0.431521,2.37719
1480619832191437,-1.09899,-0.431619,2.37724
1480619832212494,-1.09902,-0.431448,2.37726
1480619832229037,-1.09902,-0.431448,2.37726
1480619832251601,-1.09905,-0.43135,2.37721
1480619832272653,-1.09905,-0.43135,2.37721
1480619832296718,-1.09905,-0.43135,2.37721
1480619832320781,-1.09905,-0.43135,2.37721
1480619832342840,-1.09905,-0.43135,2.37721
1480619832363895,-1.09905,-0.43135,2.37721
1480619832371416,-1.09905,-0.431277,2.37728
1480619832392473,-1.09925,-0.431234,2.37732
1480619832409017,-1.09925,-0.431234,2.37732
1480619832431577,-1.09925,-0.431234,2.37732
1480619832452643,-1.09925,-0.431234,2.37732
1480619832469179,-1.09922,-0.431333,2.37738
1480619832498755,-1.09925,-0.431234,2.37732
1480619832512292,-1.09925,-0.431234,2.37732
1480619832528843,-1.09946,-0.431119,2.37744
1480619832551395,-1.09946,-0.431119,2.37744
1480619832573955,-1.09928,-0.431063,2.37734
1480619832588995,-1.09928,-0.431063,2.37734
1480619832611555,-1.09925,-0.431162,2.37739
1480619832642639,-1.0988,-0.431062,2.37722
1480619832650659,-1.09897,-0.431045,2.37739
1480619832671213,-1.099,-0.430946,2.37734
1480619832693773,-1.099,-0.430874,2.37741
1480619832708313,-1.099,-0.430946,2.37734
1480619832731374,-1.099,-0.430946,2.37734
1480619832753935,-1.099,-0.430946,2.37734
1480619832768473,-1.099,-0.430946,2.37734
1480619832791534,-1.099,-0.430946,2.37734
1480619832814094,-1.099,-0.430874,2.37741
1480619832835149,-1.09903,-0.430776,2.37735
1480619832851193,-1.09854,-0.430774,2.37723
1480619832896813,-1.09803,-0.430871,2.37716
1480619832899822,-1.09803,-0.430871,2.37716
1480619832911353,-1.098,-0.430969,2.37721
1480619832933913,-1.0982,-0.430854,2.37733
1480619832948952,-1.09823,-0.430755,2.37728
1480619832977529,-1.09823,-0.430755,2.37728
1480619832994576,-1.09823,-0.430755,2.37728
1480619833008111,-1.09823,-0.430755,2.37728
1480619833039194,-1.09823,-0.430755,2.37728
1480619833061251,-1.09823,-0.430755,2.37728
1480619833075790,-1.09837,-0.430814,2.37728
1480619833092333,-1.09843,-0.43064,2.3774
1480619833113892,-1.09843,-0.43064,2.3774
1480619833142468,-1.09843,-0.43064,2.3774
1480619833159012,-1.0984,-0.430643,2.3773
1480619833174052,-1.0984,-0.430643,2.3773
1480619833194606,-1.0984,-0.430643,2.3773
1480619833225689,-1.09858,-0.430698,2.3774
1480619833233713,-1.09857,-0.430626,2.37747
1480619833256270,-1.0986,-0.430527,2.37742
1480619833272815,-1.0986,-0.430527,2.37742
1480619833293870,-1.0986,-0.430527,2.37742
1480619833314926,-1.0986,-0.430527,2.37742
1480619833338489,-1.0986,-0.430527,2.37742
1480619833361550,-1.0986,-0.430527,2.37742
1480619833375086,-1.09881,-0.430412,2.37753
1480619833391630,-1.09881,-0.430412,2.37753
1480619833422212,-1.09884,-0.430314,2.37748
1480619833443269,-1.09884,-0.430314,2.37748
1480619833451790,-1.09812,-0.430453,2.37737
1480619833473850,-1.09809,-0.430551,2.37742
1480619833496914,-1.09809,-0.430551,2.37742
1480619833510949,-1.09812,-0.430453,2.37737
1480619833534009,-1.09829,-0.430436,2.37753
1480619833557071,-1.09829,-0.430436,2.37753
1480619833571609,-1.09832,-0.430338,2.37748
1480619833593668,-1.09829,-0.430436,2.37753
1480619833616231,-1.09829,-0.430436,2.37753
1480619833637284,-1.09829,-0.430436,2.37753
1480619833668868,-1.09781,-0.430434,2.37741
1480619833683908,-1.09752,-0.430245,2.37748
1480619833690927,-1.09752,-0.430245,2.37748
1480619833720004,-1.09755,-0.430147,2.37743
1480619833736549,-1.09752,-0.430245,2.37748
1480619833759109,-1.09752,-0.430245,2.37748
1480619833774148,-1.09752,-0.430245,2.37748
1480619833796206,-1.09752,-0.430245,2.37748
1480619833810746,-1.09755,-0.430147,2.37743
1480619833833807,-1.09755,-0.430074,2.3775
1480619833871407,-1.09758,-0.429976,2.37744
1480619833895972,-1.09758,-0.429976,2.37744
1480619833919033,-1.09758,-0.429976,2.37744
1480619833923045,-1.09755,-0.430074,2.3775
1480619833947610,-1.09755,-0.430074,2.3775
1480619833954127,-1.09776,-0.430031,2.37754
1480619833976186,-1.09776,-0.430031,2.37754
1480619833997743,-1.09776,-0.430031,2.37754
1480619834013786,-1.09776,-0.430031,2.37754
1480619834036345,-1.09793,-0.430087,2.37764
1480619834057401,-1.09793,-0.430087,2.37764
1480619834074447,-1.0979,-0.43009,2.37755
1480619834102521,-1.0979,-0.430017,2.37762
1480619834117561,-1.09796,-0.429916,2.37766
1480619834142127,-1.09796,-0.429916,2.37766
1480619834156666,-1.0983,-0.429764,2.37763
1480619834194266,-1.09899,-0.429795,2.37773
1480619834196774,-1.09899,-0.429795,2.37773
1480619834216826,-1.0987,-0.430205,2.37777
1480619834237380,-1.0987,-0.430205,2.37777
1480619834253925,-1.09945,-0.429822,2.37797
1480619834276485,-1.09996,-0.429798,2.37797
1480619834297541,-1.09996,-0.429798,2.37797
1480619834314084,-1.10011,-0.430025,2.37805
1480619834336644,-1.10045,-0.429945,2.37795
1480619834358202,-1.101,-0.429751,2.37797
1480619834373743,-1.10189,-0.429448,2.3784
1480619834396304,-1.10209,-0.429406,2.37844
1480619834418863,-1.1023,-0.429167,2.37892
1480619834448943,-1.10233,-0.429041,2.37938
1480619834456463,-1.10233,-0.429041,2.37938
1480619834479024,-1.10261,-0.429107,2.37968
1480619834501593,-1.10384,-0.42942,2.38013
1480619834517626,-1.10426,-0.429639,2.38058
1480619834539685,-1.10412,-0.429682,2.37999
1480619834553737,-1.10689,-0.429451,2.38001
1480619834583802,-1.1076,-0.429121,2.37983
1480619834613882,-1.10867,-0.428977,2.37978
1480619834616391,-1.1091,-0.429255,2.37921
1480619834636442,-1.10999,-0.429159,2.37848
1480619834666528,-1.1113,-0.428781,2.37827
1480619834673039,-1.11234,-0.428663,2.37835
1480619834696602,-1.1124,-0.428436,2.37875
1480619834718661,-1.11178,-0.428679,2.37898
1480619834733201,-1.11078,-0.428825,2.37849
1480619834756261,-1.1106,-0.42877,2.37839
1480619834778821,-1.11114,-0.42927,2.37854
1480619834793360,-1.11111,-0.429346,2.37837
1480619834823941,-1.11111,-0.429273,2.37844
1480619834838981,-1.11132,-0.429231,2.37849
1480619834853521,-1.11132,-0.429231,2.37849
1480619834876582,-1.11201,-0.42919,2.37866
1480619834904656,-1.11198,-0.429194,2.37857
1480619834920197,-1.11198,-0.429194,2.37857
1480619834951279,-1.11241,-0.429443,2.37851
1480619834958800,-1.1131,-0.429476,2.37861
1480619835005425,-1.1131,-0.429476,2.37861
1480619835009936,-1.11394,-0.4294,2.37863
1480619835024976,-1.11394,-0.4294,2.37863
1480619835040016,-1.11394,-0.4294,2.37863
1480619835064582,-1.11394,-0.4294,2.37863
1480619835079120,-1.11394,-0.429473,2.37856
1480619835101687,-1.11394,-0.429473,2.37856
1480619835117723,-1.11327,-0.429437,2.37856
1480619835139280,-1.11288,-0.42909,2.37856
1480619835159834,-1.1125,-0.429171,2.37857
1480619835200442,-1.11212,-0.429326,2.3785
1480619835204954,-1.11212,-0.429399,2.37843
1480619835219994,-1.11169,-0.42977,2.37868
1480619835244059,-1.11117,-0.42972,2.37875
1480619835260101,-1.11105,-0.429512,2.37899
1480619835280155,-1.11074,-0.429462,2.37954
1480619835296197,-1.10987,-0.429439,2.38
1480619835318758,-1.10918,-0.429501,2.38005
1480619835339813,-1.10915,-0.429599,2.3801
1480619835356358,-1.10984,-0.429536,2.38005
1480619835378918,-1.11047,-0.429596,2.38018
1480619835401478,-1.11065,-0.429652,2.38028
1480619835417018,-1.11065,-0.429579,2.38035
1480619835439078,-1.11068,-0.429481,2.3803
1480619835469158,-1.11019,-0.429354,2.38053
1480619835482695,-1.10975,-0.429727,2.38079
1480619835498736,-1.109,-0.430111,2.38059
1480619835528817,-1.109,-0.430111,2.38059
1480619835536338,-1.109,-0.430111,2.38059
1480619835560400,-1.109,-0.430037,2.38066
1480619835581456,-1.10903,-0.42994,2.3806
1480619835595493,-1.10903,-0.42994,2.3806
1480619835626576,-1.10851,-0.430036,2.38053
1480619835641623,-1.10851,-0.430036,2.38053
1480619835655654,-1.10851,-0.430109,2.38046
1480619835679215,-1.10851,-0.430036,2.38053
1480619835701274,-1.10851,-0.430036,2.38053
1480619835722330,-1.10854,-0.429938,2.38048
1480619835746395,-1.10817,-0.430115,2.38063
1480619835761435,-1.10739,-0.430473,2.38084
1480619835775973,-1.10562,-0.431355,2.38085
1480619835805051,-1.1049,-0.432213,2.38108
1480619835830117,-1.10478,-0.432605,2.38129
1480619835835633,-1.10506,-0.432767,2.38173
1480619835859195,-1.10555,-0.432716,2.38215
1480619835882256,-1.10573,-0.432772,2.38225
1480619835902309,-1.10569,-0.432775,2.38215
1480619835918854,-1.10569,-0.432775,2.38215
1480619835941915,-1.10549,-0.432817,2.38211
1480619835969990,-1.10644,-0.43299,2.38234
1480619835979014,-1.10747,-0.432964,2.38256
1480619836001574,-1.10848,-0.432918,2.38246
1480619836031654,-1.10958,-0.432674,2.38236
1480619836041180,-1.1111,-0.432532,2.38234
1480619836061232,-1.11217,-0.432365,2.38207
1480619836083292,-1.11312,-0.432716,2.38165
1480619836098833,-1.11511,-0.432801,2.38145
1480619836121392,-1.11681,-0.432696,2.38132
1480619836142448,-1.11822,-0.433075,2.38115
1480619836158993,-1.11978,-0.434155,2.38142
1480619836195590,-1.12069,-0.435607,2.38146
1480619836202108,-1.12085,-0.437572,2.38093
1480619836219155,-1.12354,-0.438911,2.3801
1480619836241211,-1.1281,-0.440091,2.38045
1480619836262768,-1.1311,-0.440759,2.38198
1480619836278812,-1.13223,-0.441387,2.38275
1480619836301371,-1.13495,-0.441274,2.38362
1480619836331952,-1.13886,-0.440558,2.3843
1480619836339473,-1.1431,-0.440447,2.38473
1480619836361533,-1.14618,-0.44043,2.38465
1480619836384592,-1.14941,-0.440359,2.38516
1480619836399133,-1.15067,-0.440652,2.38543
1480619836421190,-1.15017,-0.441212,2.3858
1480619836443750,-1.15005,-0.440922,2.38609
1480619836459795,-1.14885,-0.441539,2.3865
1480619836494886,-1.14792,-0.442488,2.3864
1480619836503910,-1.14963,-0.443805,2.3867
1480619836524967,-1.15052,-0.444872,2.38712
1480619836542011,-1.15033,-0.445645,2.38766
1480619836580114,-1.15018,-0.445995,2.3883
1480619836585127,-1.15069,-0.446558,2.38894
1480619836601670,-1.15005,-0.446984,2.38937
1480619836631249,-1.14876,-0.44737,2.38987
1480619836638268,-1.14783,-0.447738,2.38999
1480619836661331,-1.14728,-0.448459,2.39003
1480619836683889,-1.14781,-0.44904,2.39004
1480619836706449,-1.14778,-0.449043,2.38995
1480619836721504,-1.14743,-0.449196,2.38997
1480619836744066,-1.14746,-0.449099,2.38991
1480619836767110,-1.14728,-0.449043,2.38981
1480619836781149,-1.14729,-0.449137,2.38996
1480619836804710,-1.14674,-0.449858,2.39
1480619836832283,-1.14666,-0.45077,2.39039
1480619836841809,-1.14611,-0.45151,2.39065
1480619836863867,-1.14462,-0.45198,2.39059
1480619836884924,-1.14354,-0.452253,2.39027
1480619836901469,-1.1426,-0.452737,2.38981
1480619836924031,-1.14227,-0.452679,2.38941
1480619836946086,-1.14188,-0.452251,2.38861
1480619836962128,-1.1424,-0.45176,2.38826
1480619836983686,-1.14318,-0.451313,2.38791
1480619837004742,-1.14318,-0.451295,2.3877
1480619837027302,-1.14263,-0.451584,2.38782
1480619837068914,-1.14163,-0.452033,2.38768
1480619837081948,-1.14017,-0.452442,2.38706
1480619837084455,-1.13935,-0.453081,2.38667
1480619837111527,-1.13917,-0.453025,2.38657
1480619837125063,-1.13917,-0.453025,2.38657
1480619837141606,-1.13923,-0.452925,2.3866
1480619837164167,-1.13905,-0.452868,2.3865
1480619837184721,-1.13911,-0.452693,2.38661
1480619837201266,-1.13893,-0.452712,2.38644
1480619837223826,-1.13953,-0.453062,2.38684
1480619837246385,-1.13948,-0.453803,2.38724
1480619837268945,-1.13958,-0.454679,2.38757
1480619837283985,-1.13959,-0.455245,2.38808
1480619837306545,-1.1403,-0.455598,2.38869
1480619837327602,-1.14096,-0.455772,2.38921
1480619837343644,-1.1411,-0.45583,2.38922
1480619837366205,-1.14108,-0.455928,2.38927
1480619837381254,-1.14108,-0.455928,2.38927
1480619837411325,-1.14126,-0.455984,2.38938
1480619837426364,-1.14126,-0.455984,2.38938
1480619837447420,-1.14084,-0.45554,2.38921
1480619837464967,-1.14102,-0.455596,2.38932
1480619837501563,-1.14019,-0.455424,2.38936
1480619837503570,-1.13866,-0.45537,2.38914
1480619837524124,-1.13794,-0.455681,2.38909
1480619837553703,-1.13697,-0.456111,2.38882
1480619837560721,-1.13546,-0.456756,2.38875
1480619837585287,-1.13368,-0.457639,2.38875
1480619837606844,-1.13231,-0.458268,2.38876
1480619837627398,-1.13095,-0.458974,2.38869
1480619837643944,-1.12931,-0.459444,2.38834
1480619837666503,-1.12823,-0.459643,2.38808
1480619837682553,-1.1277,-0.459817,2.38793
1480619837704103,-1.12723,-0.459644,2.38781
1480619837726161,-1.12708,-0.458885,2.38766
1480619837741704,-1.12756,-0.457733,2.38752
1480619837764764,-1.12801,-0.456733,2.38714
1480619837786322,-1.12891,-0.45593,2.38701
1480619837807377,-1.12972,-0.455346,2.38712
1480619837823922,-1.12993,-0.455229,2.38723
1480619837845980,-1.13055,-0.455406,2.38765
1480619837875058,-1.13097,-0.455796,2.3881
1480619837884084,-1.13106,-0.456523,2.38858
1480619837906643,-1.13124,-0.456655,2.38861
1480619837927196,-1.13118,-0.456755,2.38857
1480619837950258,-1.13116,-0.456928,2.38856
1480619837967303,-1.13177,-0.457084,2.38876
1480619837987357,-1.13218,-0.45683,2.38877
1480619837994375,-1.13218,-0.45683,2.38877
1480619838009415,-1.13221,-0.456828,2.38887
1480619838032478,-1.13107,-0.456598,2.38851
1480619838054535,-1.12996,-0.457046,2.38816
1480619838069075,-1.12882,-0.457495,2.38773
1480619838091633,-1.1273,-0.4581,2.38722
1480619838114194,-1.12652,-0.458608,2.38728
1480619838132246,-1.12576,-0.458846,2.3872
1480619838151794,-1.1255,-0.459235,2.38712
1480619838183880,-1.12503,-0.459665,2.38699
1480619838190898,-1.12366,-0.459747,2.38672
1480619838211954,-1.12246,-0.459789,2.3864
1480619838234514,-1.12247,-0.459885,2.38655
1480619838249555,-1.12258,-0.459492,2.38633
1480619838276626,-1.12324,-0.458773,2.3865
1480619838294172,-1.12379,-0.457973,2.38653
1480619838309214,-1.12457,-0.456958,2.38663
1480619838331773,-1.12527,-0.456314,2.38682
1480619838356839,-1.12588,-0.455867,2.38703
1480619838369374,-1.12673,-0.455808,2.38729
1480619838391933,-1.12764,-0.456123,2.38795
1480619838417516,-1.12821,-0.456516,2.3887
1480619838430535,-1.12825,-0.456988,2.38915
1480619838452093,-1.12767,-0.457283,2.38918
1480619838474151,-1.12781,-0.457341,2.38918
1480619838489194,-1.12779,-0.457439,2.38924
1480619838514760,-1.12843,-0.457551,2.38909
1480619838542334,-1.12843,-0.457551,2.38909
1480619838552361,-1.12808,-0.457686,2.38889
1480619838571912,-1.12808,-0.457686,2.38889
1480619838594472,-1.12734,-0.457222,2.38877
1480619838612018,-1.12667,-0.457263,2.38868
1480619838633075,-1.12606,-0.457656,2.38877
1480619838655635,-1.12446,-0.457878,2.3885
1480619838676691,-1.12318,-0.458313,2.3885
1480619838707274,-1.12211,-0.458458,2.38853
1480619838723315,-1.12176,-0.458539,2.38863
1480619838730835,-1.12176,-0.458539,2.38863
1480619838751891,-1.12202,-0.458204,2.38842
1480619838777459,-1.12215,-0.457712,2.38814
1480619838790493,-1.12308,-0.457412,2.38795
1480619838811550,-1.12363,-0.457194,2.38775
1480619838834109,-1.12411,-0.456719,2.38753
1480619838850653,-1.12417,-0.456544,2.38764
1480619838871709,-1.12402,-0.456389,2.38749
1480619838894278,-1.12499,-0.45598,2.38797
1480619838910815,-1.12555,-0.456257,2.38835
1480619838931873,-1.1263,-0.457365,2.3889
1480619838955934,-1.12599,-0.458575,2.38914
1480619838971977,-1.12495,-0.459808,2.38889
1480619838994035,-1.12404,-0.460193,2.38837
1480619839022611,-1.12385,-0.459566,2.38777
1480619839030632,-1.12523,-0.458266,2.3872
1480619839053193,-1.12708,-0.457044,2.3866
1480619839075251,-1.12791,-0.456547,2.386
1480619839096807,-1.12863,-0.456442,2.38562
1480619839112350,-1.12878,-0.456556,2.38534
1480619839139422,-1.12921,-0.456279,2.38523
1480619839159475,-1.12979,-0.455966,2.38498
1480619839179528,-1.13131,-0.455397,2.38498
1480619839194569,-1.13172,-0.455088,2.38529
1480619839212115,-1.13157,-0.454879,2.38542
1480619839231667,-1.13154,-0.454469,2.38563
1480619839261747,-1.13139,-0.453712,2.38548
1480619839279795,-1.13109,-0.452916,2.38554
1480619839302856,-1.13176,-0.451692,2.38587
1480619839321907,-1.13257,-0.450527,2.3862
1480619839336947,-1.13277,-0.450411,2.38631
1480619839362013,-1.13218,-0.450061,2.38591
1480619839377054,-1.13163,-0.450236,2.38567
1480619839396606,-1.13108,-0.451033,2.38564
1480619839414655,-1.12922,-0.452283,2.38572
1480619839437214,-1.12725,-0.453925,2.38603
1480619839456767,-1.12543,-0.455704,2.38627
1480619839474814,-1.12349,-0.457835,2.3863
1480619839494365,-1.12249,-0.459744,2.38605
1480619839525449,-1.12209,-0.461261,2.38573
1480619839547006,-1.12221,-0.462226,2.38535
1480619839557033,-1.1229,-0.462196,2.3848
1480619839576584,-1.12335,-0.461703,2.38427
1480619839591624,-1.12299,-0.461211,2.38386
1480619839614184,-1.12164,-0.461171,2.38331
1480619839636745,-1.1198,-0.461756,2.38284
1480619839651784,-1.11671,-0.462631,2.38186
1480619839674346,-1.11396,-0.462897,2.38073
1480619839696906,-1.112,-0.462697,2.37998
1480619839720969,-1.11188,-0.46254,2.37992
1480619839734511,-1.11287,-0.461916,2.37998
1480619839757065,-1.11462,-0.461703,2.38055
1480619839773107,-1.11538,-0.46207,2.38061
1480619839795667,-1.11833,-0.462928,2.38133
1480619839816723,-1.12048,-0.462947,2.38313
1480619839833272,-1.11852,-0.463939,2.38373
1480619839857833,-1.11985,-0.464702,2.38454
1480619839885407,-1.12011,-0.464316,2.38622
1480619839900947,-1.11886,-0.463844,2.3866
1480619839914484,-1.11695,-0.46272,2.38611
1480619839938548,-1.11728,-0.460955,2.38569
1480619839953087,-1.11782,-0.458979,2.38523
1480619839974142,-1.11767,-0.456999,2.38425
1480619839996703,-1.11748,-0.454743,2.38303
1480619840013247,-1.11729,-0.452963,2.38216
1480619840034301,-1.11673,-0.451307,2.38174
1480619840056862,-1.11513,-0.450502,2.38086
1480619840075412,-1.11425,-0.450138,2.37987
1480619840110506,-1.11408,-0.450081,2.37977
1480619840117022,-1.11425,-0.450138,2.37987
1480619840134570,-1.11425,-0.450042,2.37972
1480619840154121,-1.11367,-0.449658,2.37984
1480619840176681,-1.11353,-0.449072,2.37977
1480619840194729,-1.11249,-0.447943,2.37928
1480619840217289,-1.11075,-0.447003,2.37847
1480619840239849,-1.10954,-0.445841,2.37811
1480619840260905,-1.10923,-0.445242,2.37839
1480619840274441,-1.10958,-0.444487,2.37838
1480619840297000,-1.10916,-0.443086,2.37818
1480619840315552,-1.10922,-0.441665,2.37789
1480619840334100,-1.10911,-0.440811,2.3777
1480619840359668,-1.10871,-0.44039,2.37778
1480619840389748,-1.10773,-0.440512,2.37716
1480619840394259,-1.10799,-0.440082,2.37681
1480619840416820,-1.10843,-0.439701,2.37728
1480619840439380,-1.10762,-0.439481,2.37763
1480619840455937,-1.10708,-0.439075,2.37763
1480619840476980,-1.10708,-0.439001,2.3777
1480619840496031,-1.10708,-0.439001,2.3777
1480619840518090,-1.10628,-0.438958,2.3774
1480619840536639,-1.10579,-0.438905,2.37756
1480619840554687,-1.10484,-0.438657,2.3774
1480619840575743,-1.10501,-0.438713,2.3775
1480619840596798,-1.10488,-0.43798,2.37758
1480619840614847,-1.10506,-0.437266,2.37763
1480619840634398,-1.1051,-0.436641,2.37752
1480619840659967,-1.10509,-0.436568,2.3776
1480619840691050,-1.10498,-0.436338,2.37761
1480619840695562,-1.1047,-0.436243,2.37782
1480619840716617,-1.10473,-0.436071,2.37784
1480619840747199,-1.10473,-0.436071,2.37784
1480619840770762,-1.10476,-0.435973,2.37779
1480619840776777,-1.10476,-0.4359,2.37786
1480619840799343,-1.10476,-0.435973,2.37779
1480619840815883,-1.10476,-0.435973,2.37779
1480619840836937,-1.10476,-0.435973,2.37779
1480619840859497,-1.10476,-0.4359,2.37786
1480619840882059,-1.10479,-0.435802,2.3778
1480619840905621,-1.10479,-0.435802,2.3778
1480619840930186,-1.10499,-0.435759,2.37785
1480619840941716,-1.10436,-0.435626,2.37779
1480619840965281,-1.10418,-0.43557,2.37769
1480619840979316,-1.10376,-0.435394,2.37768
1480619840995861,-1.10376,-0.435321,2.37775
1480619841016917,-1.1044,-0.434927,2.37776
1480619841039476,-1.10443,-0.434756,2.37778
1480619841055519,-1.10463,-0.434714,2.37783
1480619841080084,-1.10463,-0.434714,2.37783
1480619841099138,-1.10463,-0.434714,2.37783
1480619841124704,-1.10521,-0.434348,2.37786
1480619841140746,-1.10616,-0.433922,2.37812
1480619841159295,-1.10724,-0.433031,2.37823
1480619841177344,-1.1091,-0.431828,2.37857
1480619841204415,-1.11031,-0.430871,2.37905
1480619841221962,-1.11075,-0.430512,2.37974
1480619841245023,-1.11107,-0.430522,2.38042
1480619841264074,-1.11204,-0.431115,2.38138
1480619841279115,-1.11361,-0.431887,2.38274
1480619841298165,-1.11444,-0.433116,2.38382
1480619841316714,-1.11516,-0.434019,2.38478
1480619841339274,-1.11625,-0.43484,2.38573
1480619841357322,-1.11729,-0.435267,2.38608
1480619841385898,-1.11859,-0.435359,2.38622
1480619841399434,-1.12035,-0.435698,2.3864
1480619841416981,-1.12136,-0.436349,2.38645
1480619841438037,-1.12151,-0.436407,2.38645
1480619841467115,-1.12151,-0.436407,2.38645
1480619841498697,-1.12133,-0.436426,2.38628
1480619841501204,-1.12035,-0.436405,2.38581
1480619841521761,-1.11927,-0.436782,2.38491
1480619841553344,-1.11863,-0.437388,2.38374
1480619841558357,-1.1188,-0.437561,2.38254
1480619841579412,-1.11914,-0.437526,2.3812
1480619841596959,-1.11941,-0.436753,2.38014
1480619841617012,-1.12029,-0.435559,2.3795
1480619841639072,-1.12062,-0.434391,2.37877
1480619841657621,-1.12066,-0.433159,2.37773
1480619841678177,-1.12251,-0.431465,2.37648
1480619841716277,-1.12619,-0.429295,2.37582
1480619841718784,-1.13081,-0.426715,2.37532
1480619841745856,-1.13579,-0.424106,2.37516
1480619841776438,-1.13906,-0.422156,2.37468
1480619841778443,-1.14107,-0.421241,2.37356
1480619841798498,-1.14273,-0.420966,2.3721
1480619841826570,-1.14549,-0.420491,2.37066
1480619841837100,-1.14851,-0.419658,2.36953
1480619841858658,-1.15021,-0.418527,2.36888
1480619841879217,-1.14995,-0.417161,2.36825
1480619841897759,-1.14877,-0.416798,2.36753
1480619841918316,-1.14778,-0.417278,2.3669
1480619841939371,-1.14752,-0.41876,2.36674
1480619841957920,-1.14772,-0.421184,2.36677
1480619841984490,-1.14757,-0.423498,2.36659
1480619842024097,-1.14784,-0.424983,2.36666
1480619842027103,-1.14871,-0.425364,2.36692
1480619842076736,-1.14889,-0.423954,2.36775
1480619842079243,-1.14892,-0.421843,2.36909
1480619842085259,-1.14976,-0.420454,2.37065
1480619842099797,-1.15073,-0.420978,2.3719
1480619842119349,-1.15116,-0.423508,2.37248
1480619842137413,-1.14941,-0.42561,2.37236
1480619842159957,-1.14717,-0.426211,2.37241
1480619842179509,-1.14585,-0.425272,2.37341
1480619842203072,-1.14534,-0.423815,2.37517
1480619842219616,-1.14468,-0.422842,2.3772
1480619842239168,-1.14315,-0.422643,2.3783
1480619842270752,-1.14091,-0.423233,2.37908
1480619842302837,-1.13717,-0.423915,2.37954
1480619842315370,-1.13352,-0.424781,2.38018
1480619842329408,-1.13057,-0.425485,2.38135
1480619842355979,-1.12881,-0.426135,2.38261
1480619842361995,-1.12713,-0.426743,2.38362
1480619842381549,-1.12544,-0.427313,2.38419
1480619842399595,-1.12243,-0.427847,2.38424
1480619842419147,-1.12017,-0.428146,2.38437
1480619842443212,-1.11803,-0.428509,2.3844
1480619842459755,-1.11751,-0.428553,2.38461
1480619842482316,-1.11771,-0.428332,2.38531
1480619842509386,-1.11793,-0.429233,2.38614
1480619842519915,-1.11815,-0.430839,2.38637
1480619842539467,-1.1176,-0.432256,2.38653
1480619842563531,-1.11722,-0.432981,2.38696
1480619842580576,-1.11725,-0.432925,2.38734
1480619842602134,-1.11757,-0.432239,2.3879
1480619842633217,-1.11812,-0.431937,2.38849
1480619842640736,-1.11859,-0.431425,2.38942
1480619842660790,-1.11799,-0.431703,2.39082
1480619842681846,-1.11638,-0.432432,2.39273
1480619842699392,-1.11345,-0.433771,2.39527
1480619842720949,-1.1104,-0.434896,2.39774
1480619842741505,-1.10794,-0.435202,2.40086
1480619842764568,-1.10776,-0.434219,2.40369
1480619842780608,-1.11175,-0.431696,2.40648
1480619842801664,-1.11793,-0.428038,2.40949
1480619842828736,-1.12541,-0.424094,2.41263
1480619842857813,-1.12908,-0.419936,2.41475
1480619842887894,-1.13128,-0.415651,2.41663
1480619842892406,-1.13377,-0.411646,2.41859
1480619842915969,-1.13747,-0.407901,2.42141
1480619842930507,-1.13999,-0.406118,2.42428
1480619842939532,-1.1415,-0.407056,2.42662
1480619842967104,-1.13991,-0.409061,2.42847
1480619842981644,-1.13687,-0.411027,2.43004
1480619842999691,-1.13335,-0.413632,2.43169
1480619843022251,-1.1315,-0.4156,2.43324
1480619843044813,-1.13049,-0.417548,2.43475
1480619843059851,-1.12879,-0.418343,2.43525
1480619843083416,-1.12568,-0.418903,2.43534
1480619843101963,-1.12443,-0.419991,2.43485
1480619843119510,-1.12578,-0.421902,2.43337
1480619843158614,-1.12779,-0.424086,2.43116
1480619843163126,-1.12845,-0.425098,2.42794
1480619843187190,-1.12779,-0.424554,2.4249
1480619843208246,-1.12883,-0.422636,2.42298
1480619843221782,-1.13053,-0.420561,2.42236
1480619843239831,-1.13141,-0.419695,2.4225
1480619843262390,-1.13055,-0.419865,2.42231
1480619843281949,-1.12768,-0.420788,2.4218
1480619843299489,-1.12478,-0.421715,2.42119
1480619843322049,-1.12315,-0.422336,2.42042
1480619843349122,-1.12319,-0.422293,2.41943
1480619843361653,-1.12533,-0.421876,2.41852
1480619843386723,-1.12846,-0.421396,2.41815
1480619843401761,-1.13044,-0.421447,2.41794
1480619843431840,-1.13252,-0.421847,2.41799
1480619843442369,-1.13483,-0.421809,2.41832
1480619843462924,-1.13676,-0.421321,2.41933
1480619843479468,-1.13995,-0.421176,2.42051
1480619843502027,-1.1448,-0.420229,2.42154
1480619843521580,-1.14934,-0.418929,2.42189
1480619843539628,-1.15287,-0.418099,2.42204
1480619843562188,-1.15749,-0.417581,2.42344
1480619843599789,-1.16238,-0.416634,2.42542
1480619843604300,-1.16696,-0.414805,2.42731
1480619843629867,-1.1717,-0.4122,2.42951
1480619843661954,-1.17749,-0.408785,2.43185
1480619843665964,-1.18343,-0.405558,2.43381
1480619843688524,-1.18716,-0.403222,2.43471
1480619843704567,-1.18804,-0.401749,2.43461
1480619843724118,-1.18766,-0.401374,2.43425
1480619843742167,-1.18617,-0.401997,2.43387
1480619843763723,-1.18291,-0.403011,2.43367
1480619843784279,-1.17811,-0.403763,2.43445
1480619843802327,-1.17523,-0.404272,2.43606
1480619843829399,-1.17073,-0.405493,2.43693
1480619843844439,-1.16639,-0.408049,2.43765
1480619843861985,-1.16367,-0.41004,2.43875
1480619843884545,-1.15962,-0.411547,2.4397
1480619843906604,-1.15458,-0.412992,2.44025
1480619843937186,-1.14989,-0.414427,2.43969
1480619843945207,-1.14615,-0.41563,2.43819
1480619843964257,-1.14288,-0.416307,2.43601
1480619843982305,-1.14011,-0.416275,2.4339
1480619844006872,-1.13681,-0.416318,2.43216
1480619844024417,-1.13203,-0.416434,2.43039
1480619844042967,-1.1263,-0.41627,2.42877
1480619844064528,-1.12096,-0.415818,2.42759
1480619844084076,-1.11539,-0.415082,2.42716
1480619844102626,-1.11092,-0.41458,2.4272
1480619844132204,-1.10646,-0.414728,2.42693
1480619844144237,-1.09978,-0.416311,2.42569
1480619844162785,-1.09692,-0.417298,2.42481
1480619844184844,-1.09549,-0.417249,2.42389
1480619844214924,-1.09435,-0.416783,2.42291
1480619844227959,-1.09465,-0.416216,2.42237
1480619844244503,-1.09503,-0.416021,2.42157
1480619844264561,-1.09565,-0.416159,2.4211
1480619844290126,-1.0955,-0.416151,2.4208
1480619844304663,-1.09476,-0.416523,2.42038
1480619844324227,-1.09467,-0.416914,2.41996
1480619844350786,-1.09578,-0.417765,2.41995
1480619844364823,-1.09575,-0.418462,2.41998
1480619844384374,-1.09595,-0.418941,2.42008
1480619844406935,-1.09567,-0.41943,2.42005
1480619844438019,-1.09507,-0.41981,2.41993
1480619844451554,-1.09385,-0.420073,2.41976
1480619844462082,-1.09332,-0.420209,2.41982
1480619844492663,-1.09306,-0.42,2.41976
1480619844506200,-1.09261,-0.419838,2.41966
1480619844522242,-1.09196,-0.419748,2.41975
1480619844544802,-1.09095,-0.419847,2.41999
1480619844565858,-1.08964,-0.420383,2.41976
1480619844582401,-1.088,-0.421152,2.41949
1480619844604461,-1.08653,-0.421779,2.41901
1480619844625517,-1.08548,-0.42207,2.41872
1480619844642061,-1.08472,-0.422424,2.41872
1480619844667127,-1.08298,-0.422852,2.41884
1480619844687181,-1.08168,-0.423345,2.4189
1480619844717267,-1.08098,-0.423528,2.41902
1480619844725282,-1.08019,-0.423528,2.41895
1480619844745837,-1.07906,-0.423422,2.4187
1480619844768396,-1.07842,-0.423405,2.41871
1480619844784941,-1.07796,-0.423172,2.41869
1480619844805496,-1.07755,-0.423009,2.41868
1480619844829059,-1.07681,-0.422639,2.41844
1480619844844098,-1.07681,-0.422639,2.41844
1480619844865157,-1.07681,-0.422639,2.41844
1480619844887212,-1.07681,-0.422639,2.41844
1480619844903757,-1.07655,-0.422403,2.41816
1480619844935340,-1.07658,-0.422303,2.41811
1480619844954894,-1.07658,-0.422303,2.41811
1480619844965421,-1.07678,-0.422185,2.41823
1480619844992494,-1.07675,-0.422285,2.41828
1480619845007533,-1.07675,-0.422356,2.4182
1480619845024077,-1.07675,-0.422356,2.4182
1480619845046136,-1.07675,-0.422356,2.4182
1480619845067193,-1.07723,-0.422319,2.4181
1480619845083736,-1.07813,-0.421947,2.41817
1480619845106797,-1.07875,-0.421465,2.41824
1480619845127351,-1.07914,-0.421273,2.41818
1480619845144898,-1.07988,-0.421089,2.41815
1480619845173976,-1.07984,-0.42109,2.41806
1480619845187511,-1.07964,-0.421137,2.41802
1480619845211575,-1.07964,-0.421137,2.41802
1480619845241656,-1.07984,-0.42109,2.41806
1480619845247674,-1.07984,-0.42109,2.41806
1480619845263714,-1.07942,-0.420856,2.41813
1480619845293794,-1.07942,-0.420856,2.41813
1480619845307330,-1.07942,-0.420856,2.41813
1480619845323874,-1.0794,-0.421027,2.41811
1480619845346439,-1.0794,-0.420955,2.41819
1480619845367490,-1.07956,-0.42091,2.41813
1480619845384035,-1.0796,-0.420909,2.41823
1480619845414617,-1.07898,-0.420721,2.41826
1480619845427650,-1.07895,-0.420821,2.41831
1480619845457229,-1.07895,-0.420821,2.41831
1480619845466261,-1.07892,-0.420822,2.41822
1480619845488814,-1.07889,-0.420922,2.41827
1480619845503852,-1.07895,-0.420821,2.41831
1480619845532429,-1.07895,-0.420821,2.41831
1480619845547471,-1.07912,-0.420704,2.41833
1480619845563512,-1.07878,-0.420866,2.41836
1480619845587075,-1.07861,-0.420813,2.41827
1480619845607629,-1.07858,-0.420913,2.41832
1480619845624675,-1.07858,-0.420913,2.41832
1480619845646232,-1.07858,-0.420913,2.41832
1480619845667288,-1.07875,-0.420867,2.41827
1480619845686338,-1.07878,-0.420696,2.41829
1480619845713913,-1.07785,-0.420499,2.41838
1480619845744493,-1.07701,-0.420672,2.4182
1480619845747001,-1.07701,-0.420672,2.4182
1480619845776077,-1.07701,-0.420672,2.4182
1480619845788728,-1.07704,-0.420572,2.41814
1480619845803768,-1.07703,-0.420501,2.41822
1480619845826328,-1.07706,-0.420401,2.41817
1480619845849891,-1.07723,-0.420454,2.41826
1480619845865432,-1.07723,-0.420454,2.41826
1480619845886488,-1.07723,-0.420454,2.41826
1480619845909550,-1.07723,-0.420454,2.41826
1480619845930107,-1.07723,-0.420454,2.41826
1480619845946148,-1.07723,-0.420383,2.41833
1480619845968707,-1.07726,-0.420283,2.41828
1480619845991267,-1.07726,-0.420283,2.41828
1480619846019844,-1.07726,-0.420283,2.41828
1480619846034887,-1.07726,-0.420283,2.41828
1480619846044408,-1.07726,-0.420283,2.41828
1480619846072483,-1.0773,-0.420281,2.41837
1480619846095043,-1.0773,-0.420281,2.41837
1480619846103064,-1.07732,-0.420182,2.41832
1480619846126126,-1.07732,-0.420182,2.41832
1480619846156207,-1.07732,-0.420182,2.41832
1480619846169741,-1.07732,-0.420182,2.41832
1480619846186286,-1.07715,-0.420128,2.41823
1480619846208846,-1.07715,-0.420128,2.41823
1480619846223886,-1.07735,-0.42001,2.41834
1480619846246446,-1.07735,-0.42001,2.41834
1480619846269005,-1.07735,-0.42001,2.41834
1480619846283043,-1.07735,-0.42001,2.41834
1480619846322147,-1.07732,-0.42011,2.41839
1480619846336185,-1.07732,-0.420182,2.41832
1480619846349721,-1.07732,-0.420182,2.41832
1480619846366264,-1.07732,-0.420182,2.41832
1480619846389858,-1.07746,-0.420165,2.41839
1480619846409911,-1.07704,-0.419903,2.41825
1480619846426455,-1.07707,-0.419902,2.41834
1480619846456538,-1.07707,-0.419902,2.41834
1480619846470071,-1.07633,-0.42013,2.41807
1480619846486114,-1.07633,-0.42013,2.41807
1480619846508675,-1.07633,-0.42013,2.41807
1480619846576855,-1.07651,-0.420112,2.41824
1480619846579361,-1.07653,-0.420012,2.41818
1480619846597914,-1.07653,-0.420012,2.41818
1480619846607938,-1.07651,-0.420112,2.41824
1480619846628994,-1.07651,-0.420112,2.41824
1480619846650050,-1.07651,-0.420112,2.41824
1480619846666594,-1.07653,-0.420012,2.41818
1480619846688653,-1.07653,-0.420012,2.41818
1480619846709710,-1.07653,-0.420012,2.41818
1480619846727255,-1.07653,-0.420012,2.41818
1480619846748812,-1.07653,-0.420012,2.41818
1480619846771874,-1.07653,-0.420012,2.41818
1480619846792428,-1.07651,-0.420112,2.41824
1480619846814988,-1.07653,-0.420012,2.41818
1480619846831032,-1.07653,-0.420012,2.41818
1480619846856098,-1.07656,-0.419841,2.41821
1480619846870135,-1.07656,-0.419912,2.41813
1480619846891192,-1.07606,-0.41995,2.41814
1480619846906231,-1.07588,-0.419897,2.41805
1480619846928792,-1.07588,-0.419968,2.41797
1480619846957368,-1.07606,-0.41995,2.41814
1480619846965891,-1.07608,-0.41985,2.41809
1480619846988953,-1.07608,-0.41985,2.41809
1480619847012515,-1.07608,-0.41985,2.41809
1480619847050114,-1.07608,-0.41985,2.41809
1480619847062146,-1.07606,-0.41995,2.41814
1480619847073678,-1.07606,-0.41995,2.41814
1480619847099747,-1.07606,-0.41995,2.41814
1480619847109272,-1.07606,-0.41995,2.41814
1480619847132836,-1.07608,-0.41985,2.41809
1480619847146370,-1.07608,-0.41985,2.41809
1480619847168930,-1.07608,-0.41985,2.41809
1480619847191491,-1.07606,-0.41995,2.41814
1480619847205528,-1.07606,-0.41995,2.41814
1480619847229090,-1.07606,-0.41995,2.41814
1480619847257164,-1.07608,-0.41985,2.41809
1480619847289251,-1.07608,-0.41985,2.41809
1480619847291757,-1.07608,-0.41985,2.41809
1480619847313314,-1.07608,-0.41985,2.41809
1480619847332368,-1.07608,-0.41985,2.41809
1480619847348909,-1.07606,-0.41995,2.41814
1480619847371470,-1.07608,-0.41985,2.41809
1480619847392024,-1.07608,-0.41985,2.41809
1480619847410072,-1.07611,-0.419679,2.41811
1480619847431127,-1.07614,-0.419678,2.4182
1480619847459704,-1.07611,-0.419679,2.41811
1480619847468728,-1.07608,-0.419779,2.41816
1480619847493293,-1.07608,-0.41985,2.41809
1480619847512344,-1.07608,-0.41985,2.41809
1480619847534904,-1.07625,-0.419832,2.41826
1480619847551953,-1.07628,-0.419732,2.4182
1480619847572504,-1.07628,-0.419732,2.4182
1480619847595064,-1.07628,-0.419732,2.4182
1480619847611107,-1.07628,-0.419732,2.4182
1480619847632663,-1.07586,-0.419498,2.41828
1480619847656227,-1.07586,-0.419498,2.41828
1480619847679288,-1.07589,-0.419398,2.41822
1480619847692323,-1.07589,-0.419398,2.41822
1480619847708365,-1.07592,-0.419227,2.41825
1480619847731929,-1.07592,-0.419227,2.41825
1480619847753987,-1.07592,-0.419227,2.41825
1480619847769026,-1.07589,-0.419398,2.41822
1480619847791086,-1.07589,-0.419398,2.41822
1480619847819662,-1.07589,-0.419398,2.41822
1480619847828686,-1.07592,-0.419227,2.41825
1480619847851246,-1.07595,-0.419127,2.41819
1480619847875310,-1.07595,-0.419127,2.41819
1480619847888348,-1.07595,-0.419127,2.41819
1480619847912408,-1.07592,-0.419227,2.41825
1480619847933966,-1.07592,-0.419227,2.41825
1480619847956526,-1.07575,-0.419174,2.41815
1480619847971566,-1.07595,-0.419127,2.41819
1480619847993624,-1.07598,-0.419125,2.41828
1480619848010168,-1.07595,-0.419127,2.41819
1480619848031726,-1.07595,-0.419127,2.41819
1480619848053785,-1.07595,-0.419127,2.41819
1480619848068323,-1.07592,-0.419227,2.41825
1480619848090883,-1.07595,-0.419127,2.41819
1480619848119960,-1.07595,-0.419127,2.41819
1480619848127981,-1.07597,-0.418956,2.41821
1480619848159064,-1.07597,-0.418956,2.41821
1480619848181625,-1.07597,-0.418956,2.41821
1480619848189645,-1.07595,-0.419127,2.41819
1480619848211204,-1.07595,-0.419127,2.41819
1480619848242286,-1.07595,-0.419127,2.41819
1480619848255321,-1.07612,-0.419109,2.41836
1480619848271363,-1.07615,-0.419009,2.41831
1480619848293924,-1.07615,-0.419009,2.41831
1480619848316483,-1.07597,-0.418956,2.41821
1480619848332024,-1.07597,-0.418956,2.41821
1480619848354585,-1.07597,-0.418956,2.41821
1480619848374638,-1.07597,-0.418956,2.41821
1480619848391684,-1.07615,-0.419009,2.41831
1480619848437806,-1.07553,-0.418821,2.41834
1480619848442318,-1.07553,-0.418821,2.41834
1480619848451342,-1.07553,-0.418821,2.41834
1480619848473401,-1.07553,-0.418821,2.41834
1480619848494958,-1.07553,-0.418821,2.41834
1480619848511503,-1.07553,-0.418821,2.41834
1480619848533561,-1.07553,-0.418821,2.41834
1480619848554617,-1.0757,-0.418874,2.41843
1480619848571161,-1.07573,-0.418774,2.41838
1480619848593721,-1.07573,-0.418774,2.41838
1480619848614777,-1.07573,-0.418774,2.41838
1480619848631320,-1.07527,-0.419139,2.41833
1480619848653881,-1.07527,-0.419139,2.41833
1480619848683460,-1.07527,-0.419139,2.41833
1480619848699002,-1.07527,-0.419139,2.41833
1480619848715044,-1.07547,-0.419092,2.41837
1480619848736601,-1.07547,-0.419092,2.41837
1480619848751139,-1.07545,-0.419192,2.41843
1480619848773700,-1.07545,-0.419192,2.41843
1480619848796761,-1.07545,-0.419192,2.41843
1480619848818820,-1.07545,-0.419192,2.41843
1480619848833860,-1.07545,-0.419192,2.41843
1480619848856435,-1.07547,-0.419021,2.41845
1480619848871460,-1.07547,-0.419021,2.41845
1480619848894521,-1.07547,-0.419021,2.41845
1480619848924602,-1.07547,-0.419021,2.41845
1480619848932121,-1.07545,-0.419192,2.41843
1480619848953678,-1.07545,-0.419192,2.41843
1480619848991279,-1.07545,-0.419192,2.41843
1480619848993785,-1.07547,-0.419021,2.41845
1480619849013838,-1.07547,-0.419021,2.41845
1480619849036398,-1.07547,-0.419021,2.41845
1480619849050937,-1.07545,-0.419192,2.41843
1480619849073998,-1.07545,-0.419192,2.41843
1480619849104084,-1.0759,-0.419354,2.41852
1480619849110595,-1.0759,-0.419354,2.41852
1480619849133658,-1.07607,-0.419407,2.41861
1480619849156217,-1.0761,-0.419236,2.41863
1480619849177273,-1.07553,-0.419447,2.41853
1480619849199834,-1.07553,-0.419447,2.41853
1480619849216377,-1.07562,-0.419843,2.41849
1480619849237433,-1.07637,-0.419943,2.41861
1480619849253476,-1.07779,-0.420141,2.41938
1480619849290575,-1.07844,-0.420069,2.41996
1480619849297593,-1.07903,-0.420214,2.42013
1480619849313637,-1.07994,-0.419966,2.42057
1480619849342212,-1.08046,-0.420465,2.42134
1480619849357252,-1.08163,-0.421023,2.42181
1480619849373796,-1.08284,-0.42131,2.42225
1480619849402372,-1.08284,-0.42131,2.42225
1480619849417913,-1.08301,-0.421363,2.42234
1480619849433957,-1.08301,-0.421363,2.42234
1480619849456516,-1.08304,-0.421192,2.42236
1480619849485092,-1.08298,-0.421293,2.42232
1480619849493615,-1.08298,-0.421365,2.42225
1480619849516176,-1.08298,-0.421365,2.42225
1480619849537231,-1.08295,-0.421465,2.4223
1480619849554276,-1.08295,-0.421465,2.4223
1480619849576335,-1.08313,-0.421517,2.42239
1480619849597391,-1.08315,-0.421418,2.42234
1480619849613434,-1.08315,-0.421418,2.42234
1480619849637999,-1.08315,-0.421418,2.42234
1480619849659055,-1.08313,-0.421517,2.42239
1480619849673593,-1.08313,-0.421517,2.42239
1480619849696153,-1.08375,-0.421562,2.42251
1480619849718714,-1.08377,-0.421462,2.42246
1480619849735257,-1.08395,-0.421515,2.42255
1480619849756315,-1.08392,-0.421615,2.42261
1480619849793914,-1.08392,-0.421615,2.42261
1480619849795919,-1.08389,-0.421616,2.42252
1480619849816976,-1.08386,-0.421787,2.42249
1480619849845050,-1.08386,-0.421787,2.42249
1480619849853071,-1.08386,-0.421716,2.42257
1480619849876132,-1.08389,-0.421616,2.42252
1480619849904708,-1.08451,-0.421732,2.42256
1480619849913232,-1.08451,-0.421732,2.42256
1480619849936794,-1.08397,-0.422013,2.42247
1480619849958853,-1.08397,-0.422013,2.42247
1480619849973893,-1.08397,-0.422013,2.42247
1480619849996453,-1.08462,-0.421957,2.42254
1480619850019514,-1.08462,-0.421957,2.42254
1480619850040069,-1.08462,-0.421957,2.42254
1480619850056111,-1.08462,-0.421957,2.42254
1480619850084687,-1.08459,-0.422129,2.42252
1480619850093210,-1.08459,-0.422129,2.42252
1480619850123791,-1.08457,-0.422229,2.42257
1480619850139866,-1.08477,-0.422182,2.42261
1480619850159921,-1.08459,-0.422129,2.42252
1480619850176465,-1.08459,-0.422129,2.42252
1480619850207045,-1.08459,-0.422129,2.42252
1480619850220080,-1.08477,-0.422182,2.42261
1480619850236123,-1.08474,-0.422282,2.42267
1480619850264699,-1.0851,-0.422019,2.42258
1480619850281243,-1.08527,-0.422072,2.42268
1480619850296283,-1.08527,-0.422072,2.42268
1480619850318844,-1.08524,-0.422073,2.42259
1480619850339898,-1.08527,-0.421974,2.42253
1480619850356944,-1.08524,-0.422073,2.42259
1480619850386524,-1.08541,-0.422171,2.42238
1480619850400560,-1.08541,-0.422171,2.42238
1480619850416102,-1.08541,-0.422171,2.42238
1480619850444678,-1.08611,-0.422015,2.42249
1480619850459731,-1.08608,-0.422016,2.4224
1480619850476262,-1.08608,-0.422016,2.4224
1480619850505338,-1.08608,-0.422016,2.4224
1480619850519878,-1.08569,-0.422307,2.42261
1480619850536422,-1.08507,-0.422789,2.42254
1480619850558480,-1.0849,-0.422736,2.42245
1480619850581553,-1.08507,-0.422789,2.42254
1480619850596588,-1.08507,-0.422717,2.42261
1480619850619644,-1.08482,-0.422509,2.42256
1480619850641200,-1.08482,-0.422509,2.42256
1480619850656746,-1.08462,-0.422556,2.42252
1480619850678801,-1.08442,-0.422701,2.42262
1480619850701361,-1.08344,-0.422776,2.42274
1480619850715398,-1.08341,-0.422778,2.42264
1480619850738961,-1.08341,-0.422778,2.42264
1480619850761519,-1.08358,-0.422831,2.42274
1480619850782577,-1.08358,-0.422831,2.42274
1480619850804635,-1.08356,-0.42293,2.42279
1480619850821179,-1.08356,-0.42293,2.42279
1480619850835718,-1.08356,-0.42293,2.42279
1480619850859782,-1.08356,-0.42293,2.42279
1480619850887857,-1.08356,-0.42293,2.42279
1480619850896882,-1.08356,-0.42293,2.42279
1480619850918439,-1.08356,-0.42293,2.42279
1480619850941499,-1.08356,-0.42293,2.42279
1480619850956552,-1.08356,-0.423002,2.42272
1480619850986119,-1.08356,-0.423002,2.42272
1480619851002160,-1.08356,-0.42293,2.42279
1480619851015696,-1.08373,-0.422983,2.42288
1480619851038758,-1.08373,-0.422983,2.42288
1480619851061821,-1.08373,-0.422983,2.42288
1480619851082373,-1.0837,-0.422985,2.42279
1480619851098918,-1.08367,-0.423084,2.42285
1480619851121979,-1.08367,-0.423084,2.42285
1480619851142534,-1.08352,-0.423048,2.42233
1480619851158582,-1.08407,-0.422783,2.42199
1480619851181137,-1.08427,-0.422736,2.42203
1480619851202193,-1.08396,-0.422701,2.42186
1480619851218737,-1.08396,-0.422701,2.42186
1480619851241297,-1.0841,-0.422755,2.42186
1480619851262356,-1.08351,-0.423093,2.42203
1480619851279398,-1.08351,-0.423093,2.42203
1480619851315498,-1.08354,-0.422993,2.42198
1480619851322512,-1.08354,-0.422993,2.42198
1480619851339558,-1.08464,-0.422572,2.42209
1480619851367131,-1.08427,-0.422665,2.4221
1480619851382172,-1.08427,-0.422665,2.4221
1480619851398716,-1.08425,-0.422836,2.42208
1480619851429798,-1.08425,-0.422836,2.42208
1480619851442331,-1.08425,-0.422836,2.42208
1480619851465894,-1.08427,-0.422665,2.4221
1480619851490459,-1.08427,-0.422665,2.4221
1480619851510013,-1.08427,-0.422665,2.4221
1480619851519537,-1.08427,-0.422665,2.4221
1480619851541095,-1.08425,-0.422836,2.42208
1480619851563656,-1.08425,-0.422836,2.42208
1480619851586215,-1.08442,-0.422889,2.42218
1480619851601755,-1.08445,-0.422718,2.4222
1480619851623814,-1.08445,-0.422718,2.4222
1480619851653894,-1.08445,-0.422718,2.4222
1480619851661415,-1.08445,-0.422718,2.4222
1480619851683975,-1.08441,-0.422907,2.42166
1480619851698011,-1.08508,-0.422725,2.42145
1480619851722577,-1.08628,-0.422613,2.42212
1480619851744135,-1.08828,-0.42249,2.4222
1480619851766193,-1.08986,-0.42206,2.42244
1480619851788753,-1.08986,-0.421988,2.42251
1480619851820337,-1.08986,-0.42206,2.42244
1480619851824848,-1.08984,-0.42216,2.42249
1480619851841393,-1.08984,-0.42216,2.42249
1480619851864454,-1.08927,-0.422325,2.42268
1480619851881499,-1.08879,-0.422263,2.42264
1480619851902054,-1.08883,-0.422261,2.42273
1480619851923612,-1.08903,-0.422143,2.42285
1480619851944668,-1.08896,-0.422244,2.42281
1480619851961712,-1.08896,-0.422244,2.42281
1480619851983772,-1.08897,-0.422316,2.42273
1480619852012349,-1.08894,-0.422415,2.42279
1480619852045436,-1.08897,-0.422316,2.42273
1480619852049447,-1.08896,-0.422244,2.42281
1480619852068497,-1.08896,-0.422244,2.42281
1480619852082534,-1.08896,-0.422244,2.42281
1480619852103597,-1.08896,-0.422244,2.42281
1480619852125148,-1.08896,-0.422244,2.42281
1480619852141692,-1.08914,-0.422297,2.4229
1480619852163750,-1.08888,-0.422017,2.42292
1480619852192327,-1.08888,-0.422017,2.42292
1480619852201351,-1.08928,-0.421681,2.423
1480619852224413,-1.08999,-0.421453,2.42318
1480619852244967,-1.08999,-0.421453,2.42318
1480619852284572,-1.08999,-0.421453,2.42318
1480619852291591,-1.08996,-0.421625,2.42316
1480619852312146,-1.08981,-0.421472,2.42301
1480619852322674,-1.08999,-0.421453,2.42318
1480619852343729,-1.08999,-0.421453,2.42318
1480619852365287,-1.09001,-0.421353,2.42313
1480619852381330,-1.09019,-0.421406,2.42322
1480619852403889,-1.09016,-0.421506,2.42327
1480619852426451,-1.09016,-0.421506,2.42327
1480619852441489,-1.09016,-0.421506,2.42327
1480619852464050,-1.08956,-0.421192,2.42303
1480619852486108,-1.08976,-0.421145,2.42307
1480619852501148,-1.08962,-0.421091,2.42307
1480619852524210,-1.08962,-0.421091,2.42307
1480619852546269,-1.08944,-0.421038,2.42297
1480619852561309,-1.08942,-0.421138,2.42303
1480619852584872,-1.08942,-0.421138,2.42303
1480619852606428,-1.08944,-0.421038,2.42297
1480619852621468,-1.08944,-0.421038,2.42297
1480619852651549,-1.08944,-0.421038,2.42297
1480619852666600,-1.08944,-0.421038,2.42297
1480619852680626,-1.08944,-0.421038,2.42297
1480619852703688,-1.08944,-0.421038,2.42297
1480619852726247,-1.08942,-0.421138,2.42303
1480619852740785,-1.08942,-0.421209,2.42295
1480619852771368,-1.08944,-0.421038,2.42297
1480619852786407,-1.08944,-0.421038,2.42297
1480619852800445,-1.08944,-0.421038,2.42297
1480619852824007,-1.08942,-0.421138,2.42303
1480619852846067,-1.08886,-0.421446,2.42307
1480619852877149,-1.08883,-0.421618,2.42305
1480619852883666,-1.08959,-0.421118,2.4232
1480619852906727,-1.08959,-0.421118,2.4232
1480619852921768,-1.08962,-0.421019,2.42314
1480619852944330,-1.08962,-0.421019,2.42314
1480619852966386,-1.08948,-0.420965,2.42314
1480619852988946,-1.08945,-0.421064,2.42319
1480619853004488,-1.08942,-0.421066,2.4231
1480619853026547,-1.08959,-0.421118,2.4232
1480619853055122,-1.08959,-0.421118,2.4232
1480619853063645,-1.08962,-0.421019,2.42314
1480619853086206,-1.08962,-0.421019,2.42314
1480619853124306,-1.08959,-0.421118,2.4232
1480619853129319,-1.08959,-0.421118,2.4232
1480619853153884,-1.08956,-0.421218,2.42325
1480619853167421,-1.08956,-0.421218,2.42325
1480619853183964,-1.08956,-0.421218,2.42325
1480619853206525,-1.08956,-0.421218,2.42325
1480619853227580,-1.0897,-0.421272,2.42325
1480619853258664,-1.08902,-0.421329,2.42309
1480619853267189,-1.08903,-0.421499,2.42316
1480619853287240,-1.08883,-0.421546,2.42312
1480619853304285,-1.08883,-0.421618,2.42305
1480619853326845,-1.08936,-0.42131,2.42291
1480619853347400,-1.09049,-0.420791,2.42297
1480619853371464,-1.09066,-0.420844,2.42307
1480619853387506,-1.09066,-0.420772,2.42314
1480619853414580,-1.09066,-0.420844,2.42307
1480619853432626,-1.09049,-0.420791,2.42297
1480619853446664,-1.09046,-0.420891,2.42303
1480619853469725,-1.09004,-0.421254,2.42307
1480619853483261,-1.09004,-0.421254,2.42307
1480619853506323,-1.08985,-0.421471,2.4231
1480619853530889,-1.08967,-0.421418,2.42301
1480619853543922,-1.08965,-0.421517,2.42306
1480619853566983,-1.08965,-0.421517,2.42306
1480619853589043,-1.08962,-0.421689,2.42304
1480619853617118,-1.08962,-0.421689,2.42304
1480619853626140,-1.08962,-0.421617,2.42312
1480619853649704,-1.08965,-0.421517,2.42306
1480619853679786,-1.08965,-0.421517,2.42306
1480619853686301,-1.08962,-0.421689,2.42304
1480619853710365,-1.08962,-0.421689,2.42304
1480619853723400,-1.08962,-0.421689,2.42304
1480619853746463,-1.08959,-0.421788,2.4231
1480619853776542,-1.08962,-0.421689,2.42304
1480619853784563,-1.08979,-0.421742,2.42314
1480619853806120,-1.08976,-0.421671,2.42312
1480619853828681,-1.08922,-0.421952,2.42304
1480619853844222,-1.08922,-0.421952,2.42304
1480619853872297,-1.0892,-0.422124,2.42301
1480619853888840,-1.08916,-0.422125,2.42292
1480619853903379,-1.08916,-0.422125,2.42292
1480619853926440,-1.08936,-0.422007,2.42304
1480619853949000,-1.08936,-0.422007,2.42304
1480619853971059,-1.08936,-0.422007,2.42304
1480619853986099,-1.0897,-0.421916,2.42293
1480619854009161,-1.09012,-0.421697,2.42274
1480619854030717,-1.09009,-0.421796,2.42279
1480619854053779,-1.09012,-0.421697,2.42274
1480619854068819,-1.09012,-0.421697,2.42274
1480619854090376,-1.08995,-0.421644,2.42264
1480619854106419,-1.09057,-0.421715,2.42299
1480619854128478,-1.0918,-0.422073,2.42335
1480619854150035,-1.09373,-0.422276,2.42383
1480619854173598,-1.09583,-0.422887,2.42438
1480619854205683,-1.09851,-0.423385,2.42519
1480619854210697,-1.10026,-0.423514,2.426
1480619854234259,-1.10067,-0.4239,2.42643
1480619854249299,-1.10076,-0.424106,2.42684
1480619854269853,-1.10076,-0.424106,2.42684
1480619854287901,-1.10076,-0.424106,2.42684
1480619854316477,-1.10073,-0.424205,2.42689
1480619854330015,-1.10073,-0.424205,2.42689
1480619854346559,-1.10093,-0.424158,2.42693
1480619854368624,-1.1002,-0.424342,2.42696
1480619854399198,-1.1002,-0.424342,2.42696
1480619854430781,-1.10017,-0.424441,2.42701
1480619854436297,-1.09912,-0.424663,2.42679
1480619854452339,-1.09912,-0.424663,2.42679
1480619854466377,-1.09912,-0.424663,2.42679
1480619854488937,-1.09912,-0.424663,2.42679
1480619854511497,-1.09912,-0.424663,2.42679
1480619854525534,-1.09857,-0.424321,2.4265
1480619854548595,-1.09882,-0.424049,2.42621
1480619854571656,-1.09896,-0.424078,2.42599
1480619854585695,-1.09859,-0.424242,2.42593
1480619854616275,-1.09859,-0.424242,2.42593
1480619854631315,-1.09859,-0.424242,2.42593
1480619854645865,-1.09922,-0.423713,2.42629
1480619854668415,-1.09904,-0.423661,2.4262
1480619854708019,-1.09997,-0.423333,2.42607
1480619854712030,-1.10051,-0.423243,2.42571
1480619854730078,-1.10058,-0.42292,2.42532
1480619854761162,-1.1006,-0.422868,2.42497
1480619854765673,-1.10119,-0.422581,2.42451
1480619854788734,-1.10243,-0.422239,2.42411
1480619854811295,-1.10338,-0.42179,2.42371
1480619854825833,-1.1036,-0.421667,2.42318
1480619854848895,-1.10371,-0.421772,2.42279
1480619854871455,-1.10368,-0.421871,2.42285
1480619854892513,-1.10368,-0.421944,2.42277
1480619854909054,-1.10433,-0.42201,2.42247
1480619854931114,-1.10441,-0.421616,2.42217
1480619854953673,-1.10441,-0.421616,2.42217
1480619854983754,-1.10441,-0.421616,2.42217
1480619855007817,-1.10441,-0.421689,2.42209
1480619855012329,-1.10441,-0.421689,2.42209
1480619855036394,-1.10382,-0.422021,2.42226
1480619855051433,-1.10297,-0.422146,2.42237
1480619855072489,-1.102,-0.422117,2.42243
1480619855089535,-1.10135,-0.422026,2.4225
1480619855118612,-1.10138,-0.421951,2.42267
1480619855134654,-1.10087,-0.421988,2.42268
1480619855148692,-1.09999,-0.42226,2.42255
1480619855179275,-1.09982,-0.422207,2.42245
1480619855199827,-1.09999,-0.42226,2.42255
1480619855208852,-1.09999,-0.42226,2.42255
1480619855231913,-1.09985,-0.422133,2.42262
1480619855261493,-1.09985,-0.422133,2.42262
1480619855269012,-1.09985,-0.422133,2.42262
1480619855292575,-1.09985,-0.422133,2.42262
1480619855315135,-1.09965,-0.422251,2.42251
1480619855328671,-1.09965,-0.422251,2.42251
1480619855359753,-1.09965,-0.422251,2.42251
1480619855373790,-1.09968,-0.42208,2.42253
1480619855396351,-1.09925,-0.421843,2.42259
1480619855411390,-1.09846,-0.421843,2.42252
1480619855448488,-1.09843,-0.421942,2.42257
1480619855457513,-1.09826,-0.421889,2.42248
1480619855478068,-1.09843,-0.421942,2.42257
1480619855508650,-1.09843,-0.421942,2.42257
1480619855511156,-1.09843,-0.421942,2.42257
1480619855532225,-1.09843,-0.421942,2.42257
1480619855559787,-1.09843,-0.421942,2.42257
1480619855568308,-1.09826,-0.421889,2.42248
1480619855591870,-1.09826,-0.421889,2.42248
1480619855613930,-1.09826,-0.421889,2.42248
1480619855634985,-1.09826,-0.421889,2.42248
1480619855652536,-1.09826,-0.421889,2.42248
1480619855673588,-1.09829,-0.42179,2.42243
1480619855688127,-1.09829,-0.42179,2.42243
1480619855734249,-1.09832,-0.421788,2.42252
1480619855736756,-1.09815,-0.421735,2.42242
1480619855757812,-1.09812,-0.421835,2.42248
1480619855785386,-1.09808,-0.421836,2.42239
1480619855795412,-1.09808,-0.421836,2.42239
1480619855817471,-1.09808,-0.421836,2.42239
1480619855831508,-1.09829,-0.421888,2.42257
1480619855853567,-1.09812,-0.421835,2.42248
1480619855877130,-1.09812,-0.421835,2.42248
1480619855891168,-1.09812,-0.421907,2.4224
1480619855913727,-1.09806,-0.422008,2.42236
1480619855934784,-1.09806,-0.422008,2.42236
1480619855951327,-1.09806,-0.422008,2.42236
1480619855981407,-1.09812,-0.421907,2.4224
1480619856012991,-1.09812,-0.421907,2.4224
1480619856017001,-1.09812,-0.421907,2.4224
1480619856033545,-1.09809,-0.422006,2.42246
1480619856063627,-1.09792,-0.421953,2.42236
1480619856072149,-1.09809,-0.422006,2.42246
1480619856094208,-1.09809,-0.422006,2.42246
1480619856114762,-1.09812,-0.421907,2.4224
1480619856131306,-1.09812,-0.421907,2.4224
1480619856153866,-1.09812,-0.421907,2.4224
1480619856174922,-1.09809,-0.422006,2.42246
1480619856191968,-1.09809,-0.422006,2.42246
1480619856214025,-1.09806,-0.422008,2.42236
1480619856235082,-1.09809,-0.422006,2.42246
1480619856259647,-1.09806,-0.422008,2.42236
1480619856288725,-1.09823,-0.422061,2.42246
