timestamp,emg1,emg2,emg3,emg4,emg5,emg6,emg7,emg8
1480685819599574,0,1,-3,2,-2,1,1,-2
1480685819599574,2,2,-3,-8,-1,-1,0,-1
1480685819601078,-1,-1,-3,-11,0,0,1,1
1480685819601078,1,-5,4,7,-3,-1,1,-2
1480685819614618,1,-5,0,4,0,0,-1,1
1480685819614618,-5,-8,3,3,0,-1,1,1
1480685819616117,2,6,-1,-5,-2,2,-5,1
1480685819616117,5,0,-2,-2,0,-2,1,-1
1480685819636171,-5,-2,3,-2,-1,-2,-2,0
1480685819636171,-1,-9,-4,2,2,1,-2,0
1480685819638176,-7,3,-1,-3,-4,-2,2,1
1480685819638176,2,2,0,6,3,2,-1,0
1480685819658730,0,5,-3,-4,-4,-2,-3,-1
1480685819658730,3,3,0,-1,-1,-1,2,1
1480685819660234,3,2,-2,1,-3,-3,-2,-2
1480685819660234,-1,2,0,3,1,-1,3,2
1480685819674271,4,-5,-3,-3,-4,-2,-1,1
1480685819674271,-6,-3,-1,-3,2,-1,-2,-3
1480685819675775,-17,-8,0,2,-3,-1,1,-2
1480685819675775,8,2,1,-5,-1,0,-2,1
1480685819696330,-12,-8,5,2,2,1,-1,-3
1480685819696330,0,-6,-1,3,-3,-3,-1,0
1480685819697834,1,-5,-6,-2,1,1,0,0
1480685819697834,0,-4,0,-7,-2,-2,-2,1
1480685819718890,0,4,-1,8,-2,0,2,-1
1480685819718890,2,6,0,-2,-2,-1,0,0
1480685819720396,5,-2,3,1,2,-1,0,-1
1480685819720396,-6,-4,-1,-2,-1,-1,1,-1
1480685819733930,-10,-11,0,2,-1,0,0,0
1480685819733930,-1,4,2,2,-1,0,-1,-1
1480685819735437,1,-6,1,1,0,-1,-1,2
1480685819735437,1,-5,-2,3,-1,1,-3,-1
1480685819757493,4,5,-1,-3,-4,-2,-1,-2
1480685819757493,-2,0,-1,0,-2,0,0,1
1480685819758996,1,-8,-2,-4,-3,-2,-1,0
1480685819758996,-1,3,0,-1,-2,0,-1,-1
1480685819786570,-6,2,1,-5,0,-2,0,-3
1480685819786570,2,-4,-3,6,-2,-2,-2,-1
1480685819800607,7,5,0,-2,1,-1,-2,-2
1480685819800607,2,-2,0,-4,0,-1,4,-1
1480685819808629,5,7,1,4,1,-2,-1,0
1480685819808629,4,-3,-2,-6,-2,-2,-1,-1
1480685819810636,-3,8,-1,-2,-1,-1,3,2
1480685819810636,0,1,-3,2,1,-2,-1,0
1480685819823669,0,6,-2,-4,0,0,-10,-3
1480685819823669,-2,4,1,1,0,1,2,0
1480685819825674,0,-1,2,-1,-3,-1,-3,0
1480685819825674,3,1,0,7,-1,-1,0,-1
1480685819837706,-12,-12,-2,-16,-3,-2,1,-1
1480685819837706,-7,-4,-1,-3,2,2,-2,-1
1480685819855253,6,5,2,0,2,0,0,-1
1480685819855253,2,-8,-2,1,2,0,-2,1
1480685819856256,0,-2,1,2,2,1,0,0
1480685819856256,4,2,-2,0,-3,-2,-1,-3
1480685819860266,-11,-22,6,1,0,1,1,1
1480685819860266,-3,2,0,-4,-1,-1,2,-1
1480685819876308,3,2,-2,3,1,0,2,-1
1480685819876308,3,3,1,-1,2,-1,0,-1
1480685819877813,2,-2,-3,2,-2,-1,-1,0
1480685819877813,-13,-1,-1,0,-2,0,2,-1
1480685819906389,2,-6,0,-3,-3,-2,-9,-2
1480685819906389,6,5,2,1,-4,-1,1,1
1480685819907893,-6,-4,-2,1,5,1,-2,-3
1480685819907893,-1,-14,0,1,-3,-1,-2,0
1480685819912908,9,11,0,-11,-1,0,2,0
1480685819912908,-7,-7,0,0,-1,0,0,0
1480685819919924,2,4,2,0,0,0,-1,-2
1480685819919924,0,-6,1,4,0,0,-1,0
1480685819936468,8,6,-3,4,-1,0,0,3
1480685819936468,-2,-12,0,2,1,-1,-2,-2
1480685819937973,1,1,-1,0,0,1,4,-1
1480685819937973,0,1,-2,-2,2,1,0,0
1480685819959029,-4,-1,0,0,-3,-1,-7,-4
1480685819959029,0,4,1,-2,0,1,0,0
1480685819960533,-4,4,-5,7,-1,-2,-1,-1
1480685819960533,2,3,0,-5,-6,-2,-4,-3
1480685819973568,-1,1,3,3,3,0,4,2
1480685819973568,-1,5,-1,-4,0,-2,0,0
1480685819981588,12,-1,-4,2,-2,-3,-3,0
1480685819981588,-1,8,-2,-5,1,-1,-2,-3
1480685819998133,4,0,2,1,2,1,4,2
1480685819998133,-1,-6,-2,-3,0,-1,-2,1
1480685820010165,0,3,0,-3,-2,0,0,-2
1480685820010165,-4,4,-2,-1,-1,-2,-2,0
1480685820018687,6,5,-4,-6,-1,-2,0,0
1480685820018687,-2,0,0,4,-1,0,3,-1
1480685820020192,2,-2,3,-2,-3,-2,0,-2
1480685820020192,-8,-4,-3,-1,1,-1,-4,-4
1480685820041247,-4,-1,0,3,-1,1,2,-1
1480685820041247,1,1,0,-1,-1,-1,-1,0
1480685820042751,-3,4,1,-3,0,0,0,1
1480685820042751,0,7,3,-4,-2,-1,-1,1
1480685820071829,-3,-8,-5,7,1,1,0,1
1480685820071829,0,-2,-2,-2,-1,-1,-1,0
1480685820073834,-4,1,-1,0,-2,0,1,-2
1480685820073834,3,2,4,-1,3,0,0,1
1480685820086367,0,-12,0,1,-2,-3,-1,-3
1480685820086367,1,2,1,8,-1,-2,0,0
1480685820087872,7,4,-5,-16,2,0,-3,-1
1480685820087872,-15,8,-4,3,-3,-2,-2,-1
1480685820092383,0,-1,2,0,4,2,3,0
1480685820092383,0,1,2,-2,-2,1,-1,1
1480685820108928,-3,-6,-4,6,0,0,1,-1
1480685820108928,7,2,0,-2,0,-1,0,-1
1480685820116447,0,5,1,-5,-3,-3,-2,-1
1480685820116447,0,4,0,0,-1,-1,-1,-3
1480685820117951,-3,5,1,1,1,-1,-4,-1
1480685820117951,-1,0,-3,-6,0,0,5,1
1480685820139007,-4,-1,-3,6,-3,-2,-2,-1
1480685820139007,2,-3,2,-3,0,-1,-1,-1
1480685820140511,-3,-8,-4,0,-2,-3,-1,0
1480685820140511,3,5,1,-1,-2,2,0,-1
1480685820152544,4,-1,-2,7,2,0,1,0
1480685820152544,-10,-5,-3,-7,-3,-1,-4,-3
1480685820185129,-7,3,4,1,4,2,4,-1
1480685820185129,10,-5,-2,3,4,-1,-1,-1
1480685820185632,-4,9,-2,-5,-1,-1,-2,-2
1480685820185632,2,1,-1,4,3,-1,0,1
1480685820187637,3,1,-1,-6,3,-1,1,1
1480685820187637,-1,-7,2,-3,-4,-1,1,0
1480685820206687,0,5,0,1,-4,1,-2,-1
1480685820206687,-1,0,-1,-3,-1,0,2,0
1480685820208693,-2,-6,-3,0,-3,0,-2,-2
1480685820208693,3,-5,-1,6,-1,0,2,-2
1480685820212202,2,5,1,-2,-1,-1,1,2
1480685820212202,-1,-1,-3,0,0,1,-2,-1
1480685820221727,-5,-2,0,0,-3,-1,-1,0
1480685820221727,-2,-10,-1,0,3,0,-1,-1
1480685820236767,-3,-3,-2,-2,1,-1,0,-1
1480685820236767,3,-2,2,10,-1,0,3,0
1480685820242283,-2,-4,-3,-12,-5,-2,-3,-1
1480685820242283,1,2,-4,1,-4,0,-3,-2
1480685820258827,-1,-5,1,-8,-1,-2,1,0
1480685820258827,-1,15,4,11,-1,0,2,0
1480685820260330,-15,-4,-2,0,0,0,0,-2
1480685820260330,2,2,1,-2,-1,-2,-3,0
1480685820272362,-3,-7,-1,0,-1,-2,-3,-2
1480685820272362,0,-2,-5,-12,1,-3,-2,-1
1480685820281386,10,7,2,2,-3,-1,-1,1
1480685820281386,-12,-1,-3,-4,0,-2,0,-1
1480685820297431,-1,4,0,0,-1,0,1,0
1480685820297431,-1,-9,-5,-5,-2,1,-2,0
1480685820298431,2,-1,1,2,1,2,0,-1
1480685820298431,0,1,1,-2,-1,1,4,2
1480685820319487,10,4,-1,-3,0,0,-1,-1
1480685820319487,-4,-4,-1,-4,-1,1,-2,0
1480685820320991,1,-3,-1,0,-1,1,-3,1
1480685820320991,-1,3,1,0,-2,1,0,0
1480685820341545,-3,-5,1,1,0,-1,0,0
1480685820341545,-2,-2,1,-4,-1,-1,1,0
1480685820343051,1,4,-2,9,-1,0,3,0
1480685820343051,4,3,-2,-8,0,-1,-9,-1
1480685820355585,-5,-7,-1,-3,0,1,2,-1
1480685820355585,4,3,-3,4,0,-2,-3,-3
1480685820364106,-2,-5,2,-1,0,-2,-1,0
1480685820364106,2,-3,-1,1,1,1,1,0
1480685820386164,-4,2,3,-1,0,-1,-1,0
1480685820386164,5,4,-2,-3,-1,0,1,-1
1480685820387668,8,4,0,-2,1,0,-3,-2
1480685820387668,2,-10,-3,2,-2,-1,1,1
1480685820401204,-10,-7,-2,-1,-1,1,-1,-1
1480685820401204,-2,-1,0,-3,-3,1,0,1
1480685820402711,6,1,-4,3,0,-1,-3,-1
1480685820402711,-9,-2,2,0,1,-1,-2,-1
1480685820417247,3,4,1,-2,2,-1,1,-2
1480685820417247,-6,-12,-5,2,-2,-3,0,-1
1480685820430282,-2,6,1,-1,-2,-1,1,0
1480685820430282,4,2,-1,-1,-1,-1,2,1
1480685820437802,-1,-5,-3,-3,-1,0,-7,-2
1480685820437802,2,-2,2,-2,1,-1,0,-1
1480685820446829,5,0,0,0,-2,0,-2,1
1480685820446829,3,3,-1,-1,0,1,0,-1
1480685820462369,-5,-13,0,2,1,-1,2,1
1480685820462369,-3,-2,-2,-4,0,0,-3,-3
1480685820467380,-15,-4,-2,-2,-1,-1,6,-3
1480685820467380,3,0,-1,1,-1,0,1,1
1480685820476406,3,1,-4,4,-1,-4,-1,1
1480685820476406,1,1,1,0,2,1,-2,0
1480685820478411,0,2,2,-4,-2,-1,-1,0
1480685820478411,-7,-1,-2,-2,-2,-3,-3,-2
1480685820505482,3,9,-3,8,-1,-1,1,0
1480685820505482,-2,1,0,-9,1,0,0,0
1480685820522026,3,-3,-1,-1,1,-1,1,0
1480685820522026,-1,2,2,2,0,-3,0,-1
1480685820522527,1,-3,0,-2,-2,-1,-7,-2
1480685820522527,1,3,2,3,-2,-1,0,2
1480685820524532,5,2,-2,0,0,0,-2,0
1480685820524532,1,0,-1,-2,-3,-2,3,-1
1480685820537066,5,5,-1,0,1,0,3,2
1480685820537066,-1,-6,0,0,3,-1,-1,0
1480685820538570,-19,-6,-2,-4,-3,1,3,-2
1480685820538570,-2,2,0,-1,0,-1,-3,0
1480685820558626,2,3,-1,-1,1,0,1,-1
1480685820558626,3,7,-3,-3,-3,-1,-2,-1
1480685820565140,9,3,-4,-2,0,-1,-2,1
1480685820565140,-17,-12,2,4,-2,-1,-2,-5
1480685820581183,-2,1,-2,-1,-2,0,1,-1
1480685820581183,1,5,1,2,2,0,0,-1
1480685820582687,-1,-16,3,6,1,0,1,0
1480685820582687,8,3,-2,-1,2,0,-1,1
1480685820596224,-2,-5,0,-2,-1,-1,-3,-2
1480685820596224,-6,-14,0,2,-2,-3,3,-2
1480685820597727,-5,0,-2,1,0,0,-2,-1
1480685820597727,1,-6,-3,0,-2,-1,1,2
1480685820618783,7,2,0,-4,1,-1,0,-1
1480685820618783,-2,0,2,-2,-3,2,2,0
1480685820620289,3,-3,-3,4,0,-3,-3,-4
1480685820620289,-14,1,1,-2,-1,1,-2,-2
1480685820641343,2,3,0,-4,-1,-2,1,0
1480685820641343,4,1,-2,0,-3,-2,-3,1
1480685820642847,0,0,-2,-6,3,1,0,-1
1480685820642847,1,-3,-2,9,0,0,-1,0
1480685820656383,0,-1,-2,-6,-1,1,-2,0
1480685820656383,-8,-7,2,2,1,1,-1,-2
1480685820657887,-1,8,2,-1,-3,-1,-1,1
1480685820657887,3,-3,0,-2,-1,-3,0,1
1480685820693481,-8,-5,-2,-2,1,2,6,0
1480685820693481,12,14,-3,-2,-3,-4,-10,-4
1480685820703509,-2,3,1,-2,0,1,-1,-1
1480685820703509,2,1,-4,0,-1,1,0,-1
1480685820704511,-4,-3,-1,0,-5,0,0,0
1480685820704511,2,-8,2,0,0,-1,4,1
1480685820707519,-1,-1,0,0,-3,-2,-3,-1
1480685820707519,1,8,-1,-4,-5,1,-1,1
1480685820715541,2,-4,-2,-4,-1,1,0,-2
1480685820715541,-1,-2,-1,0,0,-1,0,0
1480685820722559,3,1,-3,1,3,0,-1,-1
1480685820722559,2,-2,3,-1,2,0,0,-1
1480685820739104,-8,-1,-2,-7,-4,-2,-3,-2
1480685820739104,0,0,1,-6,-1,0,1,1
1480685820752639,2,1,1,-5,-3,1,1,1
1480685820752639,4,-1,-3,4,3,-1,1,1
1480685820761162,-11,0,-2,2,0,-2,-9,-6
1480685820761162,0,0,-2,1,0,1,-1,0
1480685820762667,-3,0,-2,-2,-1,-1,0,0
1480685820762667,2,8,1,-2,-2,-2,4,-1
1480685820775702,6,-6,0,1,4,-1,0,1
1480685820775702,-8,2,-4,3,1,0,1,0
1480685820782719,5,-1,2,-4,-1,0,-3,0
1480685820782719,6,6,-2,-8,0,3,-3,-4
1480685820799263,-3,-9,-2,15,-1,-1,-1,0
1480685820799263,0,2,-1,-3,-1,-1,-2,-1
1480685820804778,-4,-1,1,3,-3,-2,1,-1
1480685820804778,9,-1,0,-4,4,-1,-2,0
1480685820829343,2,5,1,-6,0,-2,1,-1
1480685820829343,-2,-11,1,3,0,-1,-1,-1
1480685820830847,1,-4,4,4,1,2,2,2
1480685820830847,-3,-2,-2,3,1,-1,3,2
1480685820835359,-8,0,-6,-4,-1,-3,-9,-4
1480685820835359,-15,-2,0,2,0,-2,1,-1
1480685820843882,5,1,0,-1,-1,-2,0,0
1480685820843882,-2,-5,1,1,-2,-1,-2,0
1480685820859423,-3,-1,5,2,0,2,4,2
1480685820859423,2,0,-3,-5,-3,0,-2,-1
1480685820860927,1,1,-2,0,2,0,-3,-2
1480685820860927,-3,-3,2,-3,-1,-1,-1,0
1480685820881482,11,1,-1,2,4,0,0,2
1480685820881482,-2,6,0,8,-3,0,1,0
1480685820884991,-5,-10,-4,-13,1,-2,-1,-2
1480685820884991,0,-1,0,-1,-2,-2,-2,0
1480685820895519,7,11,-4,-6,-5,-2,0,-2
1480685820895519,0,1,-1,-7,3,1,3,0
1480685820910058,-1,-2,-3,3,-2,-3,-4,-2
1480685820910058,0,13,-1,-2,1,0,-2,-3
1480685820918580,1,0,2,0,-1,-1,3,-1
1480685820918580,4,0,-1,2,0,1,1,0
1480685820920586,-3,6,-1,0,-1,1,0,1
1480685820920586,-2,-16,-2,-4,-2,-1,-3,-3
1480685820941642,-10,-4,1,8,1,0,0,0
1480685820941642,6,-2,-1,-3,-2,0,0,0
1480685820943146,1,-1,0,-2,0,-2,-2,-2
1480685820943146,1,2,1,5,-1,1,-1,0
1480685820955680,2,1,1,-3,-1,0,1,0
1480685820955680,-12,-8,0,0,-2,-3,-1,-3
1480685820964202,0,1,1,3,1,0,-1,-1
1480685820964202,0,-2,-3,-4,2,1,0,-1
1480685820978741,5,-5,-2,-6,-1,-2,2,2
1480685820978741,-2,2,-1,1,0,-1,0,-2
1480685820986763,-2,1,-2,-1,-3,-1,0,0
1480685820986763,1,-7,1,-3,-2,-1,0,1
1480685821001300,-4,2,-2,8,-2,1,-1,0
1480685821001300,1,-2,2,-5,-2,1,2,1
1480685821002804,0,-9,-3,7,0,-1,-1,-1
1480685821002804,-1,7,1,-1,0,-2,1,0
1480685821015839,-3,0,-1,0,-2,1,0,-1
1480685821015839,6,6,2,0,2,0,-2,0
1480685821023860,5,3,-1,-4,2,0,0,1
1480685821023860,-2,0,3,5,2,1,-1,-1
1480685821038900,2,-7,1,-6,-2,-2,-1,1
1480685821038900,-19,-5,-5,-1,1,-1,2,0
1480685821040404,0,2,5,0,-2,0,-8,-4
1480685821040404,-1,1,-8,-8,-4,-2,1,-2
1480685821061461,3,0,1,2,0,0,-2,-1
1480685821061461,-2,2,-2,0,-2,-1,-1,-1
1480685821063468,-1,0,-1,-1,-2,-2,2,-1
1480685821063468,1,-1,2,3,-2,0,-3,-1
1480685821074997,-2,-1,2,-2,-1,1,-1,0
1480685821074997,3,1,-3,-5,-3,-1,0,0
1480685821084021,-3,-1,4,7,-1,-2,2,2
1480685821084021,-4,-4,-2,1,2,0,0,-1
1480685821098559,-2,5,-2,-5,1,0,1,-2
1480685821098559,7,0,1,1,-1,-1,-3,-1
1480685821100565,4,1,-2,-4,-3,1,2,2
1480685821100565,3,2,3,-4,-1,0,2,1
1480685821121119,0,-2,3,1,3,-1,4,0
1480685821121119,-14,-5,-6,-3,-2,-2,-8,-6
1480685821127134,0,-2,-1,1,2,-1,3,1
1480685821127134,-13,-9,-4,0,0,-1,-2,-1
1480685821134655,2,-3,1,-3,-3,0,-3,-1
1480685821134655,12,-12,-2,0,-3,-1,2,3
1480685821143679,2,0,0,1,2,1,0,-2
1480685821143679,-6,3,-1,-3,-1,-2,-2,-2
1480685821158719,3,-6,0,5,1,0,0,0
1480685821158719,4,8,-3,3,0,-2,-3,-1
1480685821172757,-3,1,0,0,-1,-1,0,0
1480685821172757,2,-5,-5,-2,-2,0,1,2
1480685821181280,-7,-5,-2,-1,-4,-2,-2,-3
1480685821181280,0,0,1,-2,1,1,2,0
1480685821182784,-3,3,-2,-5,-3,-1,0,0
1480685821182784,7,7,2,7,1,-2,0,1
1480685821195817,2,3,-5,-3,-4,0,0,0
1480685821195817,-3,-9,-1,-5,0,0,1,-2
1480685821203839,-3,-2,0,3,-1,-1,0,-3
1480685821203839,-2,0,5,-7,-1,1,-2,-1
1480685821218879,8,0,0,5,0,0,-1,0
1480685821218879,9,5,3,-5,2,1,4,3
1480685821222389,-5,-6,-2,-5,0,0,-1,0
1480685821222389,0,3,-1,6,2,0,-1,-1
1480685821241439,4,2,-1,-8,0,-2,-2,-1
1480685821241439,-6,-4,0,6,-1,0,-3,-4
1480685821242944,-4,-4,-4,-2,-1,1,0,-1
1480685821242944,2,1,-2,-4,-3,-4,-2,-2
1480685821254974,-9,-21,-1,1,1,1,1,1
1480685821254974,3,-1,-1,-2,-3,-1,2,3
1480685821263999,0,0,2,2,4,1,-10,-3
1480685821263999,-4,-5,0,-1,-3,-1,0,-1
1480685821278537,1,8,-3,2,0,1,0,-2
1480685821278537,-8,-2,0,0,-6,-1,-2,1
1480685821280543,-1,-2,-2,-1,0,-1,2,1
1480685821280543,0,-3,0,0,1,0,-1,-2
1480685821301098,-6,2,2,0,0,-2,-1,-1
1480685821301098,9,6,1,-2,2,-1,0,-1
1480685821309620,-1,-5,-4,3,-3,-2,3,-1
1480685821309620,0,5,-1,2,1,0,0,-1
1480685821315135,-4,-1,-5,-5,2,0,-1,1
1480685821315135,1,2,-1,-2,-1,1,0,1
1480685821324661,4,5,0,-3,0,-1,0,0
1480685821324661,11,-2,1,3,-2,-1,2,2
1480685821339700,-6,7,3,0,0,0,-3,-1
1480685821339700,0,-8,-8,4,-1,-3,1,-4
1480685821342206,3,1,-3,-12,-3,0,-1,-1
1480685821342206,6,2,-4,-3,0,-1,-1,-2
1480685821361257,2,2,1,2,1,2,2,1
1480685821361257,2,3,6,0,2,0,-1,1
1480685821363266,-1,-13,3,4,0,0,2,0
1480685821363266,-2,-1,-6,-1,-3,0,1,-2
1480685821375796,-1,-9,-1,-4,-3,-1,-2,-1
1480685821375796,9,8,-1,5,0,-1,-1,1
1480685821414399,-5,4,0,-3,3,0,1,-1
1480685821414399,-10,-9,1,0,0,0,-3,-2
1480685821415401,0,-7,0,-1,-1,0,1,0
1480685821415401,1,-4,2,-2,1,1,0,0
1480685821417908,1,-2,-3,4,1,1,1,1
1480685821417908,-2,3,0,9,-3,-2,2,1
1480685821428938,2,5,-3,-5,-2,-3,-10,-2
1480685821428938,-7,-5,-2,2,-2,-2,2,-2
1480685821430441,-3,1,1,1,3,2,0,0
1480685821430441,-4,-2,-1,1,-1,1,-1,-3
1480685821443979,0,2,-2,-2,0,-2,1,0
1480685821443979,-1,-1,-3,0,-1,0,-3,-2
1480685821445482,4,3,-2,-2,-6,-2,-1,0
1480685821445482,-6,-9,3,-1,0,1,1,0
1480685821467039,2,14,-1,0,0,-3,0,0
1480685821467039,-3,-9,0,-3,0,1,-2,-2
1480685821468543,0,2,0,1,-1,-1,0,0
1480685821468543,4,-1,-2,-11,-3,-1,-2,0
1480685821480576,-4,3,-2,1,-3,2,0,-1
1480685821480576,1,3,4,-3,2,1,2,0
1480685821489097,5,-6,2,-4,-2,-2,1,-3
1480685821489097,-9,1,-2,5,3,0,-1,-2
1480685821495113,2,-5,2,7,2,-1,1,0
1480685821495113,-1,0,-6,-12,-2,-1,-3,-2
1480685821504138,-4,-1,0,-1,-2,0,0,1
1480685821504138,7,5,1,-4,1,-1,1,2
1480685821518676,-1,0,1,1,0,0,1,-2
1480685821518676,-3,-3,0,4,0,-1,0,-1
1480685821520180,-1,5,-2,-1,-1,0,-1,0
1480685821520180,0,-2,-1,4,1,1,0,1
1480685821541236,-1,-4,1,0,-2,-2,-1,-1
1480685821541236,-2,0,2,-2,0,1,0,0
1480685821542740,-3,2,-6,-3,0,-1,-2,-3
1480685821542740,2,-1,-1,-3,-1,1,-1,-2
1480685821564297,1,-1,0,0,0,1,1,-2
1480685821564297,5,5,-2,-1,-1,0,-2,2
1480685821571316,3,5,-1,0,-1,-2,3,-1
1480685821571316,0,5,-1,1,0,-1,2,-1
1480685821586356,0,10,-7,-4,-3,-3,-2,-3
1480685821586356,4,2,3,2,0,-1,0,0
1480685821587861,4,1,3,0,-1,1,-2,0
1480685821587861,-12,-4,-4,1,0,1,-2,0
1480685821607913,3,2,-1,-4,-4,0,2,2
1480685821607913,-4,-12,-1,16,2,0,-1,-1
1480685821624458,2,-4,-1,-1,-1,1,0,0
1480685821624458,0,0,1,-5,-1,-2,-1,0
1480685821625462,-3,-11,3,0,1,2,1,-2
1480685821625462,1,0,-3,-3,-2,0,-2,0
1480685821628969,-9,-11,-3,-1,-4,0,0,-2
1480685821628969,6,4,-1,-5,-4,-2,-2,0
1480685821637993,-1,-9,4,3,1,2,-1,1
1480685821637993,-4,-1,0,0,-3,1,2,-3
1480685821654036,-5,2,-2,-7,0,-1,-2,-1
1480685821654036,10,1,-2,-5,-3,-3,-2,-1
1480685821661055,-2,-1,1,-4,-1,-1,3,1
1480685821661055,-1,2,0,2,6,1,-4,-3
1480685821683616,-3,2,0,9,0,0,0,-1
1480685821683616,2,8,-2,-4,-1,-1,-2,-1
1480685821707679,1,1,-2,0,-1,-2,-1,-1
1480685821707679,-7,2,-1,-5,-1,-1,-1,-1
1480685821711190,-3,7,-1,-3,-1,1,-2,-1
1480685821711190,-4,2,-2,-1,0,0,-2,0
1480685821713194,4,3,-1,0,-3,0,0,1
1480685821713194,-2,-2,-4,-3,1,-3,-1,-1
1480685821715200,7,1,1,0,0,0,-3,0
1480685821715200,-6,-11,-2,4,0,-1,0,0
1480685821720212,-3,-5,0,-6,-2,-1,-1,-1
1480685821720212,5,3,-1,3,-1,0,0,0
1480685821728735,-4,-2,-2,-7,-2,-1,-1,-2
1480685821728735,9,-3,-1,11,-1,0,-1,2
1480685821743775,-11,-3,0,-3,0,0,2,-2
1480685821743775,3,6,-4,0,2,-2,-11,-4
1480685821745280,-9,-9,1,5,2,-1,2,0
1480685821745280,-10,-13,5,-3,-2,0,1,-1
1480685821758314,5,3,-2,6,-1,0,-1,-1
1480685821758314,7,7,-1,-4,-4,-2,3,1
1480685821764830,-2,-9,2,3,-2,0,-1,0
1480685821764830,-4,2,-1,-6,-1,-2,-1,-4
1480685821781376,-2,1,1,2,2,0,3,-1
1480685821781376,2,-9,2,-2,-3,-1,2,2
1480685821782880,8,11,-6,-5,-1,-3,-4,-2
1480685821782880,0,-1,-2,0,-1,-1,1,-1
1480685821803433,-10,-2,-4,-2,0,0,-2,-1
1480685821803433,-6,-1,-3,3,3,-1,2,0
1480685821818976,1,-1,0,-1,-1,-1,0,-1
1480685821818976,1,2,-3,1,-1,-2,-7,-3
1480685821819476,-2,1,-1,-13,0,1,-3,-1
1480685821819476,-2,2,-3,-2,-2,0,0,0
1480685821824993,-3,-6,-3,0,0,-2,2,0
1480685821824993,-2,-6,1,2,-2,0,1,1
1480685821841033,3,2,-2,6,1,-1,-1,-1
1480685821841033,6,3,-2,-5,-2,-1,-1,-2
1480685821843047,3,3,1,-1,-1,-2,-2,-1
1480685821843047,-4,1,0,-4,1,1,0,0
1480685821863593,-4,-2,-3,1,-1,-1,3,-1
1480685821863593,-1,-25,1,-1,-5,-1,2,1
1480685821865599,4,-3,2,2,3,0,0,1
1480685821865599,0,-1,-2,5,0,-3,1,-1
1480685821878133,-3,-7,2,7,0,0,-2,1
1480685821878133,0,2,-3,-1,1,0,1,0
1480685821885151,-2,-4,2,0,-5,-1,0,-2
1480685821885151,-16,-4,-1,-5,1,0,-4,-3
1480685821901194,-1,-1,-3,4,-5,-3,-1,0
1480685821901194,-4,1,1,-3,0,-1,-1,0
1480685821902697,3,3,-3,-3,-1,0,0,1
1480685821902697,5,-7,5,1,5,3,3,1
1480685821945311,2,1,-4,1,-1,-2,-4,-2
1480685821945311,-2,-2,2,-4,-3,-2,-3,0
1480685821955838,-1,-1,-2,0,-1,-1,6,0
1480685821955838,1,2,-2,-7,-3,-2,0,-1
1480685821956841,2,0,-1,-3,2,1,-2,-1
1480685821956841,2,6,1,1,-1,0,1,-2
1480685821990932,-6,-3,0,3,2,1,0,0
1480685821990932,0,2,-5,-6,-4,-1,-1,-1
1480685821991936,-3,-5,1,-3,-5,-1,-1,-2
1480685821991936,0,8,0,-4,1,1,1,-1
1480685821999454,-5,-19,-1,11,-1,1,-1,0
1480685821999454,1,-1,0,5,3,2,3,2
1480685822012992,14,2,-1,-10,-2,-1,2,0
1480685822012992,-22,-2,0,0,1,0,-1,-2
1480685822023519,-2,3,1,1,-2,-2,-4,-2
1480685822023519,2,-2,-1,-1,-3,0,0,0
1480685822024020,-9,-8,2,-4,1,-1,3,0
1480685822024020,0,-4,0,1,1,0,3,2
1480685822025022,-3,-2,0,1,0,-1,-4,1
1480685822025022,0,7,-2,-2,-3,-1,-1,-2
1480685822028031,-1,3,1,-1,-1,-1,-2,-1
1480685822028031,-2,-3,-1,-4,-4,1,1,0
1480685822043573,0,0,-2,8,-1,2,-1,0
1480685822043573,4,1,-2,-9,2,-1,-2,-2
1480685822046078,-1,-2,-3,-2,0,0,-1,0
1480685822046078,-4,-6,-3,3,-1,0,0,0
1480685822057610,3,2,-2,3,-1,-2,-2,-1
1480685822057610,-4,-12,3,6,0,0,1,1
1480685822066634,2,2,1,-7,-2,0,-3,-3
1480685822066634,-4,-6,-1,2,0,-1,0,-2
1480685822081172,4,1,2,-1,-1,-3,-2,3
1480685822081172,-7,1,-2,6,-1,-1,-2,-2
1480685822082676,-7,-1,-4,-6,-1,0,3,-1
1480685822082676,-7,-12,0,0,1,-2,-3,-2
1480685822103732,-2,-8,-1,-1,1,1,-2,-2
1480685822103732,9,4,2,1,1,0,2,3
1480685822105236,1,2,0,-4,-1,0,-1,1
1480685822105236,1,-2,-5,5,-3,-2,-1,0
1480685822117771,1,4,-1,-9,-3,0,0,0
1480685822117771,-2,-1,-3,0,0,-4,-2,-2
1480685822126291,2,2,0,6,3,0,0,1
1480685822126291,3,6,2,-3,-4,-2,1,0
1480685822141333,-2,0,2,2,4,1,2,1
1480685822141333,-1,-1,-1,1,-3,0,3,-1
1480685822142836,-4,0,1,-2,1,1,-1,-1
1480685822142836,13,13,-5,-4,-2,-2,0,0
1480685822163892,-7,-7,-2,-1,1,0,-1,-1
1480685822163892,0,7,-2,2,-2,-1,-1,0
1480685822165397,3,1,-2,-3,2,2,1,-1
1480685822165397,-13,4,-1,-1,-2,-3,-3,-1
1480685822177429,-12,-5,-1,6,1,1,0,-2
1480685822177429,7,-6,-1,-1,0,0,-5,-2
1480685822186451,4,-2,-4,-4,-4,-2,-2,0
1480685822186451,2,-10,3,3,2,2,0,1
1480685822200489,9,6,0,-2,-1,-1,0,-1
1480685822200489,-7,-12,-4,1,-1,0,0,0
1480685822216533,-2,3,2,-2,-4,-3,-1,0
1480685822216533,1,3,2,-4,5,2,2,1
1480685822230568,4,-10,-5,8,-2,-2,2,-2
1480685822230568,-2,1,1,-1,0,-1,-1,-1
1480685822260148,7,2,-3,1,-2,-2,4,3
1480685822260148,3,3,2,-3,-2,-2,-4,-2
1480685822275188,-1,3,4,2,3,2,-2,-1
1480685822275188,-7,-2,0,-2,-1,1,0,-1
1480685822297749,-5,-1,0,1,-1,0,0,0
1480685822297749,7,-15,2,-1,-2,-1,1,-3
1480685822306772,-15,2,-4,-4,-2,-3,-3,-1
1480685822306772,9,4,-1,-1,1,0,-3,2
1480685822308276,7,3,0,-4,-2,-1,-1,0
1480685822308276,-7,-10,0,-2,-1,-1,0,-1
1480685822330335,5,10,-2,1,2,0,-1,-1
1480685822330335,0,9,5,1,-2,-1,0,0
1480685822331839,-2,-5,1,-5,-1,-2,-1,-2
1480685822331839,3,1,-4,5,-2,-3,-3,0
1480685822334846,1,-1,0,-1,4,1,0,-2
1480685822334846,-3,0,-6,3,1,0,-1,-2
1480685822343871,0,5,-2,-5,-2,-2,0,1
1480685822343871,-4,-5,2,-2,1,-3,-2,1
1480685822346381,-1,-5,1,-1,-1,0,0,0
1480685822346381,-4,0,3,-2,-2,-1,0,0
1480685822357407,0,6,-3,-1,-2,1,-1,1
1480685822357407,1,1,0,2,-1,0,1,-1
1480685822366430,-6,-1,-1,-3,0,-2,-1,0
1480685822366430,5,-2,-7,-4,0,-2,-4,-3
1480685822381470,-1,-4,4,0,-1,-2,1,1
1480685822381470,3,0,-7,6,0,-1,-2,1
1480685822382975,-2,-1,3,1,-3,0,0,-2
1480685822382975,6,1,1,3,0,-1,2,1
1480685822404532,-9,-4,0,0,-4,-2,-3,-2
1480685822404532,-11,-2,-1,-6,1,0,-3,-4
1480685822406036,6,-5,-5,2,0,0,-2,-1
1480685822406036,-8,-2,1,1,-1,-2,-2,0
1480685822417567,6,-4,-2,-1,1,1,-1,1
1480685822417567,9,7,-1,-3,-1,0,0,-1
1480685822426590,0,0,1,-6,1,0,-3,-1
1480685822426590,-10,-18,1,6,3,1,2,-1
1480685822441130,0,1,-1,-3,-3,-2,0,-1
1480685822441130,-1,2,0,-2,-1,-1,2,0
1480685822442633,1,-2,-2,-3,2,-1,0,-2
1480685822442633,4,8,-2,1,-2,-1,0,-1
1480685822471209,2,0,-1,3,0,0,3,-1
1480685822471209,-5,-7,-1,1,1,0,3,0
1480685822472713,-3,6,5,-2,1,1,-6,0
1480685822472713,-8,-1,-5,-1,-1,-3,-1,-3
1480685822493769,4,4,-1,3,0,0,1,0
1480685822493769,6,-8,0,1,0,2,-3,1
1480685822523348,-4,-1,1,-1,-4,-1,3,2
1480685822523348,10,3,1,-1,1,-1,0,-1
1480685822524351,-12,3,3,3,-3,-3,-4,-2
1480685822524351,1,-2,1,-5,5,1,2,0
1480685822540895,1,-1,-3,7,-3,0,-1,-2
1480685822540895,-5,-5,-3,4,-1,1,-2,0
1480685822541897,2,-2,0,-4,1,-1,1,0
1480685822541897,4,7,1,3,-3,-2,-3,-1
1480685822562452,-12,-4,1,3,3,0,1,1
1480685822562452,0,3,2,1,0,1,-1,1
1480685822563454,0,-4,-2,-9,4,2,3,0
1480685822563454,3,2,-4,2,-4,-2,0,-1
1480685822564959,-1,-3,-1,-3,-2,-3,-3,-1
1480685822564959,-1,1,1,-1,-2,-1,0,1
1480685822585012,2,-5,-1,2,-1,1,0,0
1480685822585012,0,1,1,-3,0,0,0,1
1480685822586516,-1,-4,-3,0,-3,-1,1,0
1480685822586516,-2,0,0,-5,0,-1,0,-1
1480685822588523,2,-5,0,-1,-1,-1,1,-1
1480685822588523,0,3,-2,-3,-1,0,-2,-1
1480685822591529,-5,-24,3,-1,0,2,2,-1
1480685822591529,-3,8,-2,-2,0,0,-3,1
1480685822606569,1,-5,-1,0,0,-1,-3,0
1480685822606569,-3,-3,-2,0,-4,-3,-1,0
1480685822608074,4,7,-3,-2,2,1,1,1
1480685822608074,0,-6,-2,-4,-2,-2,0,0
1480685822620606,2,-1,-2,13,1,-1,-1,-1
1480685822620606,-3,1,-1,-10,-3,-2,-2,0
1480685822627625,-15,1,-3,-2,-1,-2,-3,-4
1480685822627625,2,7,5,0,-1,0,1,3
1480685822643669,0,-3,-7,-3,-4,-2,-3,-3
1480685822643669,-12,5,2,4,1,1,0,-3
1480685822645174,6,-1,-2,2,-2,-2,-2,0
1480685822645174,-1,2,0,-5,0,-2,-1,-1
1480685822666227,-2,-2,6,2,-1,0,2,1
1480685822666227,1,-3,2,0,1,0,2,2
1480685822667731,-2,0,-3,2,-2,-1,-4,-4
1480685822667731,0,-2,2,0,0,1,1,0
1480685822680766,3,-1,-2,-3,-2,-4,0,0
1480685822680766,4,18,-3,-1,-3,-3,0,-4
1480685822687283,5,5,0,-1,2,0,2,1
1480685822687283,-1,-4,0,-3,-5,-1,-2,-2
1480685822703828,-1,3,-1,2,4,0,-2,2
1480685822703828,-3,-10,2,-2,-1,-1,3,-2
1480685822705332,3,9,0,-1,-1,-1,1,1
1480685822705332,3,-2,-3,0,-2,1,0,1
1480685822726387,2,6,-1,-2,-3,-3,-1,0
1480685822726387,-1,-8,-5,-3,0,-2,-2,1
1480685822728895,18,6,-4,-2,-2,-1,-2,-1
1480685822728895,-12,-4,1,1,1,0,1,-4
1480685822740425,-1,4,3,-5,0,2,-1,-1
1480685822740425,0,-9,-3,5,2,1,2,1
1480685822747446,3,-1,-1,-4,-2,-3,1,1
1480685822747446,5,0,-1,0,1,-2,-5,-3
1480685822771007,-6,-3,-2,-7,-2,-1,-2,-1
1480685822771007,0,-3,3,1,0,0,-2,1
1480685822788553,-13,-2,-1,3,0,0,3,1
1480685822788553,2,-6,-6,2,-2,-2,0,-1
1480685822789055,9,3,-4,-3,-3,-2,-2,-3
1480685822789055,0,0,2,3,0,1,0,-1
1480685822800586,-2,0,0,1,-2,1,4,1
1480685822800586,-2,-1,1,-2,2,0,-1,0
1480685822839187,0,0,0,-1,-2,0,0,1
1480685822839187,-1,-2,-1,-2,-1,-1,-2,0
1480685822845203,7,6,-2,-5,-3,-3,-4,0
1480685822845203,0,2,-2,-2,1,0,2,-1
1480685822885313,3,-10,2,0,3,2,1,0
1480685822885313,-3,1,2,6,0,0,-1,-2
1480685822887818,-4,1,-2,-1,3,-1,-1,-2
1480685822887818,3,-3,0,-4,-3,-1,1,1
1480685822889822,-3,-1,2,8,1,1,-1,-1
1480685822889822,-7,-2,-5,-2,0,0,-1,-1
1480685822908373,-1,1,0,1,-1,0,-1,-1
1480685822908373,6,3,0,0,-2,0,0,-1
1480685822909875,-1,0,-2,1,-1,-3,-1,-2
1480685822909875,0,2,1,-5,-2,-1,-1,0
1480685822913887,0,-3,1,3,0,1,-2,-1
1480685822913887,-3,2,-1,2,2,-1,-1,-1
1480685822920404,-5,1,0,-3,-2,-2,-1,0
1480685822920404,-1,1,2,-4,2,2,0,-1
1480685822934942,5,2,-3,4,2,0,0,0
1480685822934942,-3,-18,-1,-14,-1,-1,-3,-1
1480685822943967,-5,-17,0,-1,1,0,4,1
1480685822943967,3,11,0,-5,-2,-3,-3,-3
1480685822945471,3,-5,-1,2,-3,-2,-4,-1
1480685822945471,-2,-1,1,5,1,-1,1,1
1480685822966024,-8,3,-4,-3,1,0,4,0
1480685822966024,2,-2,1,0,0,0,-6,1
1480685822968030,6,2,-1,1,-1,0,0,-1
1480685822968030,-8,-6,-3,1,-1,-3,-3,-1
1480685822980067,0,1,-1,-6,-1,-3,-3,-1
1480685822980067,-3,2,-1,9,-1,1,1,2
1480685822989087,-1,-7,-3,-5,-1,0,-2,-5
1480685822989087,0,4,-3,4,-2,-1,0,1
1480685823003625,11,5,0,5,-1,-1,-1,0
1480685823003625,-8,-4,1,-4,-1,1,-1,-1
1480685823005631,1,3,1,10,2,3,0,0
1480685823005631,2,-1,-5,-11,-1,-1,-1,-1
1480685823026686,-1,-2,-3,-1,0,0,-1,0
1480685823026686,4,5,-1,-2,1,-1,-3,-1
1480685823047742,-2,2,2,-1,-1,-1,-1,0
1480685823047742,5,11,1,3,3,1,-2,0
1480685823070303,0,-11,1,3,3,1,-1,-2
1480685823070303,0,-4,-3,-4,-2,-4,2,-2
1480685823079830,-3,2,-3,-3,0,0,-2,0
1480685823079830,1,7,-1,-1,-1,-1,0,-2
1480685823102387,2,4,0,-5,-2,0,0,-2
1480685823102387,-7,-5,1,1,-1,-1,0,0
1480685823104393,-2,-12,4,-1,2,0,2,-1
1480685823104393,4,-4,-1,-1,-1,1,0,1
1480685823104895,-10,3,0,3,0,-1,-1,-1
1480685823104895,-1,-6,-4,0,1,1,1,1
1480685823111913,0,3,-3,-3,-1,-2,0,2
1480685823111913,7,-3,4,4,0,-1,-2,-1
1480685823113420,-8,4,-1,3,-1,1,0,-2
1480685823113420,1,3,-3,-6,-3,-3,-3,-1
1480685823115422,5,3,-2,-2,-1,-1,0,-1
1480685823115422,-4,-2,1,-2,-2,-1,1,-2
1480685823123945,3,-2,0,3,0,0,0,1
1480685823123945,8,3,3,-2,-1,-1,-1,-2
1480685823125450,4,1,-3,12,1,-3,-2,1
1480685823125450,-3,-5,-1,-2,-3,-1,1,-1
1480685823153022,-15,-5,-1,-2,0,-3,-1,-3
1480685823153022,-10,-7,-3,-2,1,-2,-5,-1
1480685823163050,6,11,-1,-5,0,-1,0,-2
1480685823163050,1,8,0,2,0,0,-2,1
1480685823164052,5,1,-2,3,1,-1,2,1
1480685823164052,1,-5,0,-4,-2,0,1,0
1480685823169065,-3,-5,0,-2,0,0,0,1
1480685823169065,2,-3,-2,-2,-2,-2,-2,-4
1480685823183102,-12,2,0,-5,-2,-1,-3,-2
1480685823183102,0,4,-2,5,2,0,0,0
1480685823197146,-1,-2,1,1,-2,1,1,2
1480685823197146,0,1,-1,-4,-1,0,1,1
1480685823206163,4,0,-2,2,-3,-1,0,-1
1480685823206163,-2,-4,-2,0,-2,-1,-2,-2
1480685823207668,-1,-4,1,-2,0,1,0,0
1480685823207668,3,-2,0,0,-1,-1,0,0
1480685823219701,-6,-1,0,-2,1,-1,-3,-1
1480685823219701,-1,-1,-3,2,-1,-1,0,-1
1480685823236745,-14,-7,0,-3,-3,0,-1,-3
1480685823236745,4,4,0,1,1,1,1,2
1480685823244266,2,-1,-1,-1,-3,-1,3,1
1480685823244266,2,-7,1,-6,-2,-1,-3,-2
1480685823246274,1,-2,-4,-3,0,-2,-2,-1
1480685823246274,-3,4,-2,0,1,0,-1,-1
1480685823272841,3,1,3,-1,0,1,1,1
1480685823272841,-2,-2,-1,6,0,2,4,1
1480685823302920,4,-5,-1,-4,-2,-1,-2,-2
1480685823302920,-3,10,-2,-2,-1,-3,0,-3
1480685823356062,7,1,-2,-1,0,-1,0,2
1480685823356062,-5,3,4,-1,0,0,-1,0
1480685823365086,4,-6,-4,2,-1,2,4,-2
1480685823365086,-6,-2,2,1,1,-1,-2,0
1480685823365587,6,3,-4,6,2,-1,-3,-1
1480685823365587,2,1,-2,-20,-3,0,0,-2
1480685823367091,-1,-1,-3,0,1,-1,1,0
1480685823367091,6,1,2,3,0,-2,-4,0
1480685823370601,1,-4,1,-2,-2,-1,0,-1
1480685823370601,1,5,0,3,1,1,0,-1
1480685823386142,-4,-5,-1,-5,-3,0,-3,0
1480685823386142,11,3,2,4,0,1,1,3
1480685823388148,-20,-25,4,4,0,2,0,-1
1480685823388148,4,1,-2,-3,2,0,1,-2
1480685823408704,1,3,2,-2,0,-2,0,-1
1480685823408704,-1,0,-2,1,-1,-1,-4,-1
1480685823410206,0,5,-4,-2,0,-1,0,-2
1480685823410206,-1,-7,1,13,-2,-1,-1,-1
1480685823423742,-14,-2,3,-7,-3,0,1,-2
1480685823423742,-1,0,5,-1,-3,-2,2,2
1480685823429758,-5,-9,1,2,5,1,0,0
1480685823429758,4,3,1,-3,-3,-2,-1,-1
1480685823446304,8,0,-3,-1,3,-1,-3,2
1480685823446304,1,0,-1,-3,-3,0,2,-1
1480685823447807,3,11,-2,-3,-1,-1,-2,0
1480685823447807,2,-3,1,-2,2,1,0,0
1480685823468866,3,-2,-3,5,0,2,1,0
1480685823468866,-9,-10,-4,-12,-3,-2,-10,-4
1480685823470366,3,2,-2,2,-1,0,2,1
1480685823470366,-3,-3,0,-3,-1,-1,-1,1
1480685823483902,6,5,1,0,-1,-2,-1,0
1480685823483902,-4,-4,-4,2,3,0,3,1
1480685823485406,-4,6,0,0,-3,0,-1,-3
1480685823485406,-11,-1,-2,-3,0,-1,-1,-2
1480685823506462,5,-4,1,-1,-1,1,-1,1
1480685823506462,1,0,2,0,1,0,-1,0
1480685823507966,-1,3,-2,-3,-3,-2,-2,0
1480685823507966,-6,0,0,0,0,0,0,-1
1480685823528521,5,4,-3,0,-1,0,-1,-1
1480685823528521,7,-1,-2,2,-1,-2,1,-1
1480685823550580,-6,-1,4,-2,0,2,-2,-1
1480685823550580,0,-5,-7,-1,-2,-1,-2,-2
1480685823588180,-4,0,2,-1,-1,-2,-2,-2
1480685823588180,-4,-1,-2,6,0,2,1,0
1480685823598708,6,0,1,-1,-1,-3,-3,-3
1480685823598708,-2,0,-2,0,0,-1,0,0
1480685823599208,1,-4,0,-2,-2,-1,-1,-1
1480685823599208,-5,0,-2,2,0,-3,3,-1
1480685823627785,2,0,-3,4,1,1,1,0
1480685823627785,5,1,-1,-3,-2,-3,-3,0
1480685823628288,-2,-1,-7,9,-1,0,0,1
1480685823628288,1,0,3,0,-3,-3,-1,-2
1480685823629790,-11,3,-1,-2,-1,-1,3,-1
1480685823629790,-5,-6,1,-3,1,0,2,0
1480685823633802,0,7,2,1,1,1,1,0
1480685823633802,-8,-3,-4,3,1,1,-8,-2
1480685823635306,10,11,-5,-5,-1,-1,-1,1
1480685823635306,7,3,-4,1,-2,0,-2,1
1480685823649342,1,-4,0,1,1,0,1,-2
1480685823649342,-4,-2,-1,-1,0,-1,0,0
1480685823654856,1,-9,1,0,-1,1,-1,-2
1480685823654856,-1,3,0,-4,-1,0,0,1
1480685823662878,0,-4,3,2,2,2,-1,0
1480685823662878,2,4,-3,-5,-2,-2,-1,-1
1480685823669896,-6,-3,-3,4,-2,-4,0,-1
1480685823669896,8,0,0,3,-1,0,1,0
1480685823686440,-1,0,1,-4,-3,-3,-1,-1
1480685823686440,0,-2,2,2,1,1,1,-1
1480685823687945,8,11,-9,-6,-3,-4,-2,1
1480685823687945,5,-4,1,1,2,2,4,1
1480685823709002,-26,-4,0,-1,-2,-3,-8,-6
1480685823709002,4,7,-4,-3,0,-3,2,0
1480685823710506,-3,-4,5,2,-1,1,-1,-1
1480685823710506,10,5,-2,-1,-1,-1,-2,0
1480685823723038,4,0,0,-4,-1,-1,-1,-3
1480685823723038,3,-1,-2,0,-2,-1,0,0
1480685823730057,1,13,1,-4,1,2,-2,0
1480685823730057,-4,-4,-1,-5,3,0,0,-1
1480685823746101,-2,-5,-5,13,-2,-1,0,0
1480685823746101,-8,1,1,-8,0,-1,2,-1
1480685823748104,4,-8,-1,3,-1,1,1,1
1480685823748104,-4,4,1,2,-1,-1,-1,-1
1480685823768659,7,1,-5,-5,-1,0,0,0
1480685823768659,-5,-8,-2,0,0,-1,-1,-1
1480685823783699,-4,-2,2,0,-1,1,0,-1
1480685823783699,-1,1,-1,2,-1,-2,-2,-1
1480685823784702,-6,-3,2,-6,-1,2,1,1
1480685823784702,0,-1,1,3,0,2,2,1
1480685823789716,1,-2,4,-3,1,-1,-6,-3
1480685823789716,1,-5,-4,3,-1,-1,-2,-1
1480685823820297,4,1,1,-3,-1,0,1,0
1480685823820297,-6,0,-3,-1,-1,-1,-1,0
1480685823837342,5,0,-1,0,-1,-3,2,1
1480685823837342,-2,10,3,-1,0,1,0,-3
1480685823838345,1,-5,-2,0,1,-2,-1,0
1480685823838345,0,1,2,-3,0,0,1,0
1480685823872936,1,-4,-2,9,-2,-1,0,1
1480685823872936,7,-1,-2,-1,-1,-2,-1,-2
1480685823889988,-17,-2,0,-2,-1,-1,1,-2
1480685823889988,0,-2,2,-2,-1,0,-1,-2
1480685823891485,4,2,-1,1,-1,0,-1,1
1480685823891485,-7,-3,0,-6,-1,-1,1,-1
1480685823892489,3,-1,2,-1,-1,-2,-2,1
1480685823892489,8,1,-3,-1,0,-2,-1,0
1480685823897001,8,2,-1,2,0,-1,-6,-1
1480685823897001,-4,3,3,1,0,-2,0,0
1480685823902516,2,2,1,-2,0,3,1,-2
1480685823902516,1,0,1,7,-1,0,-1,0
1480685823911540,0,8,-10,-14,-2,0,-2,-5
1480685823911540,-2,3,2,1,2,1,-1,-2
1480685823926078,0,-18,1,1,0,1,2,2
1480685823926078,0,5,-1,1,-1,-1,-3,-1
1480685823928083,-7,-7,-1,-1,-1,-2,0,0
1480685823928083,9,-3,0,-4,1,0,-2,1
1480685823948638,-8,-1,-6,3,0,-2,-1,-3
1480685823948638,2,-3,-1,1,1,2,1,-1
1480685823950643,-2,-6,3,0,-1,0,0,0
1480685823950643,-11,-3,0,3,-2,0,1,-2
1480685823962678,4,3,1,-2,-1,-1,-1,-2
1480685823962678,-3,-8,-6,6,0,-2,-2,-1
1480685823971699,8,3,0,-3,-2,-1,0,3
1480685823971699,1,-2,-2,10,-1,-2,-1,0
1480685823986739,5,4,-3,-6,0,0,1,0
1480685823986739,-6,-4,3,0,0,0,1,-2
1480685823992255,3,4,3,-3,-1,-2,0,-1
1480685823992255,5,-7,-3,-1,1,0,0,-1
1480685824016321,-5,-4,1,-2,1,0,0,0
1480685824016321,3,6,-4,-3,-1,-2,-3,-1
1480685824017822,-5,-4,2,4,-1,-2,3,-2
1480685824017822,1,4,2,-6,-4,-1,-2,0
1480685824022333,3,8,-2,-1,-1,-1,-1,0
1480685824022333,-5,-8,0,0,0,1,0,1
1480685824031359,8,-5,0,1,1,1,2,2
1480685824031359,1,-2,-4,-2,-2,-2,-1,-2
1480685824045898,4,8,-1,-5,-1,-2,-6,-2
1480685824045898,-10,-12,5,7,0,1,2,0
1480685824052414,-2,5,-3,1,2,0,-1,-2
1480685824052414,-4,-3,1,-1,1,0,2,3
1480685824083000,5,3,-2,-1,-3,0,2,1
1480685824083000,6,1,-5,-6,-1,-2,-1,0
1480685824128617,-7,-9,-3,6,0,0,-1,-3
1480685824128617,-5,-1,2,0,1,2,-2,-2
1480685824129121,2,2,1,0,0,1,1,3
1480685824129121,-1,0,1,0,0,0,-1,-1
1480685824153684,-13,-3,1,-2,-2,0,3,-1
1480685824153684,1,3,-3,-2,-1,-1,-2,-2
1480685824154184,-2,-7,3,3,1,0,0,0
1480685824154184,3,3,0,-8,-1,-1,1,2
1480685824158699,-6,-6,-1,9,-1,-3,0,-2
1480685824158699,0,4,-2,2,0,-1,-1,-2
1480685824160200,4,2,0,0,0,0,-3,0
1480685824160200,3,0,-4,0,-1,-1,0,-1
1480685824165216,-2,-5,1,-4,1,0,-2,1
1480685824165216,-6,1,1,-1,-2,0,-1,-2
1480685824175742,-3,-11,-5,-1,-1,-2,-2,0
1480685824175742,0,2,-2,-2,0,-2,0,-1
1480685824188776,1,-2,-1,-7,-2,0,0,0
1480685824188776,0,-1,1,5,-1,1,-1,0
1480685824190281,-4,-8,-2,-6,-3,-2,-3,-2
1480685824190281,2,-2,1,-1,1,-1,0,1
1480685824202313,-2,1,-4,9,0,-1,1,-2
1480685824202313,3,-1,2,-3,1,0,-4,-3
1480685824212339,8,2,2,4,1,0,0,1
1480685824212339,-5,-2,0,-1,-2,-3,-1,0
1480685824226377,6,5,2,0,0,-1,1,2
1480685824226377,1,3,-1,-2,-1,1,1,0
1480685824227881,-2,3,-1,3,1,1,0,-2
1480685824227881,-5,2,1,1,1,0,1,2
1480685824248937,1,-4,1,-3,-1,2,0,0
1480685824248937,0,-1,-4,-1,-2,-2,-2,0
1480685824250441,2,1,-2,-5,-1,-2,-1,0
1480685824250441,-1,-4,1,-2,-1,0,-1,-1
1480685824271496,-5,-3,-5,7,0,-2,0,-2
1480685824271496,-3,2,-1,-4,-1,-2,-1,-1
1480685824273001,-11,-2,0,3,2,1,-1,-1
1480685824273001,-1,-10,-5,-1,-2,-2,-3,0
1480685824287038,-7,3,3,-10,0,-1,2,-1
1480685824287038,1,-5,-3,7,0,-1,-6,-4
1480685824292553,5,0,0,-1,-1,0,1,2
1480685824292553,2,1,4,1,1,0,0,-1
1480685824307593,4,0,-2,9,0,0,-1,0
1480685824307593,2,2,1,-8,-1,-1,3,0
1480685824324638,-13,-10,2,7,-1,1,-2,-3
1480685824324638,-1,-2,-3,-2,-1,-1,-1,0
1480685824325641,2,4,3,-4,-1,1,-2,0
1480685824325641,-5,1,1,1,2,1,2,0
1480685824331657,4,-5,-2,-7,-3,-2,-2,-2
1480685824331657,0,0,-2,-2,-2,-2,2,0
1480685824345193,4,1,0,-3,0,0,-2,-1
1480685824345193,-3,2,0,-2,-1,-1,1,0
1480685824385801,5,2,-1,-3,0,1,-1,0
1480685824385801,-8,-3,-3,2,0,-2,-1,0
1480685824386302,2,-1,1,-2,-1,0,2,1
1480685824386302,-9,0,-2,-1,1,-2,-9,-3
1480685824415881,11,-5,-5,0,-2,-2,1,0
1480685824415881,4,1,1,0,-1,-1,1,-1
1480685824416883,-2,-5,-2,-2,-1,-1,0,-2
1480685824416883,3,2,2,1,0,0,3,1
1480685824429918,-3,9,6,3,0,-2,0,-1
1480685824429918,6,-3,-3,-2,2,1,4,-1
1480685824430920,-1,-2,-8,4,-3,-3,-2,-2
1480685824430920,3,-4,2,-9,-1,-1,0,-1
1480685824431422,4,0,4,1,0,2,0,-1
1480685824431422,-15,-5,-6,3,-1,-2,1,-2
1480685824434930,-8,-1,2,-3,0,1,0,0
1480685824434930,4,-3,-3,4,-5,-2,0,0
1480685824450473,-3,3,-3,-6,0,-1,-3,-1
1480685824450473,5,-2,0,5,1,0,4,3
1480685824459997,-2,-3,0,-5,-1,-1,0,0
1480685824459997,-3,-4,3,1,0,-1,-4,-2
1480685824466515,1,-2,-3,-5,0,-2,-1,-3
1480685824466515,2,-4,-5,0,-2,-1,0,1
1480685824480051,4,6,0,4,-1,-1,0,2
1480685824480051,-4,-10,2,1,-1,0,5,1
1480685824488574,-3,-3,1,-6,-1,-2,0,0
1480685824488574,4,6,-4,6,0,-1,0,-1
1480685824490580,0,-1,-1,1,0,0,-2,-3
1480685824490580,-6,-2,-2,-2,-2,0,-3,0
1480685824527679,3,3,5,-4,-1,-1,1,-1
1480685824527679,0,-2,1,-3,-2,0,1,0
1480685824531187,-1,-4,0,-1,-1,-1,0,0
1480685824531187,0,2,-1,-2,0,0,0,-2
1480685824533193,0,0,1,4,1,0,0,-1
1480685824533193,-2,-6,0,-2,0,-1,-1,-1
1480685824541715,2,1,-1,0,0,-2,1,-1
1480685824541715,0,0,-1,-1,0,0,-1,-1
1480685824548736,-2,-2,-3,-1,-3,-1,-1,1
1480685824548736,5,4,0,-5,-2,0,0,1
1480685824550239,0,1,1,-2,1,1,2,1
1480685824550239,0,-3,-4,-5,0,0,3,0
1480685824571293,-15,1,0,2,-1,-2,-7,-2
1480685824571293,-2,-7,-3,-8,0,-1,-2,-2
1480685824572799,1,1,3,-2,-1,1,0,-2
1480685824572799,-2,0,-3,10,-3,-4,2,0
1480685824585832,4,-1,-2,-3,-2,-3,0,2
1480685824585832,0,7,1,-2,0,1,2,0
1480685824608395,-3,-4,-1,-2,0,-3,-3,0
1480685824608395,1,-1,3,-4,1,1,-2,0
1480685824615913,-17,-5,-2,1,0,1,0,-3
1480685824615913,-9,-3,2,2,1,-1,0,-1
1480685824622429,9,-16,-3,7,-1,-1,-1,-1
1480685824622429,1,5,1,-5,1,0,-2,-1
1480685824630450,2,-1,0,1,0,1,1,1
1480685824630450,-4,-4,1,-3,-1,2,-1,-1
1480685824683091,-7,8,1,-3,0,1,0,-1
1480685824683091,0,0,-7,7,-1,-3,-4,-3
1480685824692616,4,-1,0,-2,-2,0,3,1
1480685824692616,1,1,0,1,-1,-1,-1,2
1480685824694120,3,1,-4,-2,-2,-2,-2,0
1480685824694120,-6,-8,0,-4,-1,0,-2,0
1480685824695124,3,-1,-3,-3,-3,0,-3,-2
1480685824695124,4,2,0,0,-2,-2,1,1
1480685824697630,0,-4,1,2,2,-1,3,-1
1480685824697630,-6,-24,4,0,1,1,1,0
1480685824707155,9,6,-4,-7,-2,-2,1,0
1480685824707155,-1,8,0,-1,-2,-1,-2,0
1480685824712168,-5,-2,-3,1,0,-3,-1,-2
1480685824712168,7,-2,-3,-1,-1,0,0,0
1480685824736232,-3,2,-1,3,1,0,0,0
1480685824736232,1,5,-4,4,-1,0,-1,-1
1480685824737736,1,1,0,-1,-1,-3,1,1
1480685824737736,0,1,-1,-5,1,-1,-2,-1
1480685824751273,-1,0,0,-2,-1,0,0,1
1480685824751273,-2,0,0,1,0,-1,1,-3
1480685824757288,-1,-1,3,0,0,-1,-1,-2
1480685824757288,11,3,-2,-5,-2,-2,0,0
1480685824766312,-14,-2,0,3,0,-2,-1,0
1480685824766312,6,0,0,-3,-2,0,1,1
1480685824772328,-5,-6,-6,4,0,0,-1,-1
1480685824772328,-8,-26,9,3,0,0,-1,2
1480685824788872,4,-3,-3,-9,-2,0,0,0
1480685824788872,0,-5,0,3,-1,-1,0,0
1480685824790376,1,3,-2,-3,1,0,-1,-1
1480685824790376,0,4,-1,0,-1,-1,-1,0
1480685824818952,3,-4,1,2,1,-1,-1,1
1480685824818952,0,-1,-1,-5,1,-1,0,1
1480685824820456,6,1,4,6,-2,-1,-2,-1
1480685824820456,-5,2,-8,-9,-2,-3,-1,-1
1480685824825469,1,2,0,-1,1,0,-1,0
1480685824825469,0,7,-3,-2,-1,0,1,-1
1480685824832489,6,-1,1,-1,0,0,-1,0
1480685824832489,7,7,-1,-2,-1,0,-1,1
1480685824849032,-17,-6,0,-1,0,-1,-3,-3
1480685824849032,1,0,0,5,0,-1,0,1
1480685824850536,-10,-4,-3,-11,-3,-2,2,2
1480685824850536,-2,4,-3,7,0,-1,0,-2
1480685824878110,5,0,0,-4,-1,0,-5,-2
1480685824878110,-4,-5,-5,4,1,-1,0,-1
1480685824896658,-3,11,-1,-1,0,-1,0,-1
1480685824896658,1,4,0,-3,-3,0,1,2
1480685824898664,1,4,0,0,-1,-1,1,0
1480685824898664,6,2,-1,0,-1,-2,0,-1
1480685824900669,-4,-8,3,-4,1,1,1,0
1480685824900669,-11,-5,-5,6,-1,-2,0,-1
1480685824923731,9,-7,-1,1,-1,1,-1,2
1480685824923731,-10,-4,-2,-15,-2,-2,-4,-3
1480685824938328,-2,1,0,1,1,1,3,0
1480685824938328,1,0,5,-2,1,-1,-2,-1
1480685824947855,-12,-1,2,1,0,-1,0,-1
1480685824947855,4,-1,-7,2,-2,-1,-2,0
1480685824949358,2,-1,-1,-2,0,-2,-1,2
1480685824949358,-1,-6,2,-2,-1,0,1,-1
1480685824949858,-1,3,-2,5,0,-1,-2,-1
1480685824949858,2,0,1,-5,-1,1,0,1
1480685824954371,0,-4,-3,5,0,-3,-2,-3
1480685824954371,-5,1,0,0,0,-1,-1,0
1480685824968910,5,-4,-1,1,-1,-1,3,2
1480685824968910,1,0,2,4,0,1,1,2
1480685824970415,1,-1,0,-8,-2,0,-3,-2
1480685824970415,-5,4,-1,-3,1,1,0,0
1480685824991469,3,-6,-3,1,0,-1,3,-2
1480685824991469,0,1,1,-1,0,-1,0,0
1480685824992974,3,4,-1,1,1,1,0,1
1480685824992974,5,7,1,-5,-1,0,-3,0
1480685825005006,0,-6,0,-4,0,-2,-2,-2
1480685825005006,-3,0,-1,1,0,0,0,0
1480685825014029,-3,-2,-1,-3,-3,0,-2,-1
1480685825014029,-3,1,-2,2,-1,-1,-2,-2
1480685825029072,9,7,0,-1,-1,-2,-2,0
1480685825029072,1,2,-1,0,1,-2,0,-1
1480685825030573,-1,1,1,0,-2,-1,-1,-1
1480685825030573,1,-4,-1,0,1,-1,0,-2
1480685825051128,-1,0,-1,1,1,3,3,1
1480685825051128,0,4,-1,-2,0,-2,-8,-4
1480685825052632,-2,-4,-1,1,-3,0,0,-2
1480685825052632,0,2,-5,-7,-3,-2,0,-1
1480685825073690,-4,-4,0,1,5,0,0,-2
1480685825073690,1,-5,-2,-1,-2,0,1,-1
1480685825075693,1,-2,0,3,0,0,0,1
1480685825075693,-1,2,-2,1,1,-1,0,1
1480685825088727,-3,0,1,-1,-4,-2,5,-2
1480685825088727,-5,6,-3,3,0,-1,-1,0
1480685825090232,-10,-6,-2,-1,-1,0,-1,-2
1480685825090232,5,14,-1,1,-1,-1,0,-1
1480685825117805,8,5,-1,-4,-2,-1,-3,3
1480685825117805,14,6,-4,-2,-1,0,2,0
1480685825210050,-14,-5,-1,6,-1,-1,-1,-2
1480685825210050,-2,2,-1,-5,0,0,0,-1
1480685825211054,-1,5,-2,0,0,0,-2,0
1480685825211054,-2,-12,2,-1,-1,-1,1,-1
1480685825213562,-2,5,-2,5,1,-1,-1,1
1480685825213562,-3,-8,0,0,-2,1,1,1
1480685825216067,0,-1,1,-2,1,-1,-5,-2
1480685825216067,-2,-1,1,-1,-1,0,0,2
1480685825217069,-2,-13,1,-1,-1,1,-1,-2
1480685825217069,-5,-1,3,-2,-1,-1,1,0
1480685825230104,-8,1,-1,-2,-1,0,-1,-3
1480685825230104,-1,2,0,-2,-1,-1,-3,-2
1480685825245646,-2,-3,0,-4,-2,0,-1,-1
1480685825245646,1,-5,0,5,2,0,-3,-1
1480685825246651,7,5,0,-5,-1,0,1,0
1480685825246651,-5,-3,-1,-2,-1,1,1,-3
1480685825261688,6,3,1,0,0,-2,2,-1
1480685825261688,-7,-2,1,-2,-1,-2,1,0
1480685825270211,-6,-5,-4,-19,-2,-3,-2,-2
1480685825270211,1,-2,-2,7,0,-1,-2,-1
1480685825273720,-2,0,1,-2,2,0,-2,-1
1480685825273720,-4,-5,-1,-2,-3,-1,-1,-1
1480685825291266,1,0,3,8,2,-1,0,-1
1480685825291266,-2,-5,-2,-6,-2,1,-2,-2
1480685825292770,2,6,0,6,-2,1,1,-2
1480685825292770,0,-6,3,2,1,0,2,0
1480685825321347,2,1,-7,0,-1,-3,-8,-1
1480685825321347,7,0,-3,-6,-2,-1,0,0
1480685825324856,0,2,2,0,1,1,-1,0
1480685825324856,-1,5,-2,0,-1,0,-1,-1
1480685825328867,2,-12,-1,3,1,2,2,0
1480685825328867,-3,-12,3,1,0,-1,0,0
1480685825330371,6,9,1,-4,0,-1,-1,1
1480685825330371,-3,-5,-3,-5,-1,-2,-1,-1
1480685825351426,3,5,3,2,0,0,3,1
1480685825351426,-5,0,-3,-4,-3,-1,-2,-1
1480685825352933,5,-2,0,-4,-5,0,0,0
1480685825352933,-6,-1,-1,-1,2,-1,-3,-4
1480685825373987,4,9,-3,0,0,1,-2,-2
1480685825373987,-3,1,2,1,0,0,2,1
1480685825411086,-5,-9,-2,-2,-1,0,3,0
1480685825411086,1,7,-1,-9,1,0,-8,-2
1480685825411587,-4,-5,-3,-1,-5,-2,-2,-1
1480685825411587,-2,3,-3,-1,2,1,1,1
1480685825450691,1,-1,1,3,-1,0,-1,1
1480685825450691,-7,1,1,2,-4,0,1,-3
1480685825451693,-1,-1,-4,5,1,-1,0,-2
1480685825451693,-2,-8,2,0,0,1,0,1
1480685825455203,0,3,0,-2,-1,0,1,1
1480685825455203,-1,4,-3,0,-1,-2,1,0
1480685825473517,2,2,-1,3,1,0,-4,0
1480685825473517,-7,-18,1,3,-2,-1,0,0
1480685825474019,-2,4,0,-5,-2,0,1,1
1480685825474019,-4,-4,-1,4,-1,-2,-1,-3
1480685825485049,-3,-3,-2,-1,-3,-3,-6,-2
1480685825485049,8,4,1,1,1,1,1,2
1480685825493573,-19,-1,1,3,3,0,-1,-2
1480685825493573,3,3,-2,-3,-1,-1,2,1
1480685825495580,-2,-7,0,-3,-2,0,1,-1
1480685825495580,3,2,-1,-1,0,0,0,0
1480685825516131,3,1,1,0,-1,-2,1,0
1480685825516131,-3,-3,-8,-7,0,-1,-3,-1
1480685825517635,1,3,-1,0,-2,-2,0,-1
1480685825517635,6,-1,1,-4,-4,-3,-2,-1
1480685825531171,-2,-5,-3,-9,-3,0,-1,-2
1480685825531171,-6,6,-1,6,1,1,1,0
1480685825532675,4,1,-4,12,-3,-1,-1,0
1480685825532675,-2,-10,0,-5,0,-1,1,3
1480685825570275,-2,1,4,2,0,0,2,1
1480685825570275,6,4,0,1,-2,-1,-9,-4
1480685825571779,-7,3,-2,-3,0,0,1,1
1480685825571779,-7,-3,-2,-1,0,1,3,-2
1480685825572781,7,1,-2,3,0,-3,-1,1
1480685825572781,-3,-18,4,-1,0,1,2,2
1480685825576292,-1,3,1,-2,1,-1,-2,-1
1480685825576292,0,2,-5,-2,-3,0,-2,-1
1480685825591330,-13,-10,0,-4,2,-1,-1,-3
1480685825591330,-12,-1,-6,6,1,-1,3,-1
1480685825592835,1,2,0,-4,-2,1,1,-2
1480685825592835,2,0,-3,10,-1,0,1,-1
1480685825613390,0,2,1,-1,-2,-1,-1,1
1480685825613390,10,5,1,-4,-3,-1,-1,-2
1480685825630435,-7,-2,-1,0,3,2,0,-1
1480685825630435,-3,3,0,-1,-2,-3,-2,0
1480685825630937,2,4,-2,0,1,-1,2,1
1480685825630937,4,5,0,-1,0,2,-1,-1
1480685825634949,-1,-2,1,-8,1,-1,-1,0
1480685825634949,3,3,-2,6,-1,-1,-1,-2
1480685825673048,-1,-5,-1,-2,-3,-2,-3,1
1480685825673048,1,1,0,-3,-2,-2,4,1
1480685825711151,8,6,-2,3,-3,-3,0,-1
1480685825711151,-3,-12,2,-6,1,0,-1,-2
1480685825712654,1,3,1,3,-1,0,-1,0
1480685825712654,-2,2,0,-5,1,0,-1,-1
1480685825726691,-5,-7,-5,-1,-1,-2,0,-2
1480685825726691,9,4,1,-4,-1,0,2,0
1480685825727694,-13,-5,-5,-1,-5,0,-1,-3
1480685825727694,-11,-4,4,-2,0,0,0,0
1480685825728696,7,1,0,-4,1,-1,-1,0
1480685825728696,4,1,-2,2,-5,-2,-1,1
1480685825733711,5,0,-2,4,0,0,-2,1
1480685825733711,0,-5,0,-16,-2,0,-1,0
1480685825735214,-6,-1,-4,6,-2,-2,1,-3
1480685825735214,7,-5,1,-4,1,-1,-1,-1
1480685825748248,-6,-3,2,7,2,0,0,0
1480685825748248,-1,-2,-4,10,1,-3,0,-1
1480685825756270,-5,-8,1,-5,-2,1,3,1
1480685825756270,-4,5,3,-7,0,-2,-8,-4
1480685825771309,-1,5,1,9,2,1,0,-2
1480685825771309,1,3,-11,-4,-1,-2,-1,-1
1480685825772814,-1,-7,1,-2,1,2,0,1
1480685825772814,-8,3,-2,2,0,-2,2,-1
1480685825793869,4,5,2,-8,-4,-1,-1,0
1480685825793869,-2,-13,-2,8,0,0,0,2
1480685825795374,11,5,1,-2,-1,-1,-2,1
1480685825795374,-31,-26,-1,6,0,-1,-1,-6
1480685825807405,-2,-6,-8,-1,-1,0,0,-4
1480685825807405,3,5,7,0,-1,1,-1,-1
1480685825816430,-1,-2,-1,-2,-2,-2,-1,2
1480685825816430,7,6,-1,-1,2,2,-1,2
1480685825831469,-3,3,4,-4,-3,0,4,-2
1480685825831469,1,-5,0,7,0,1,-2,-1
1480685825833474,4,1,-2,-11,0,0,-1,-2
1480685825833474,3,8,-3,3,0,0,1,1
1480685825853026,2,2,-2,-3,-1,-1,0,1
1480685825853026,3,10,-3,10,0,-1,2,-1
1480685825861550,-2,3,-3,-6,-4,1,-3,-3
1480685825861550,-6,-2,0,0,-1,0,-1,-1
1480685825867566,4,-2,-1,-3,-1,-2,-1,0
1480685825867566,2,4,4,-5,-2,-2,-2,-1
1480685825876590,3,1,-3,4,2,0,0,-1
1480685825876590,6,3,-1,0,-4,-2,2,0
1480685825891128,5,-3,-2,1,6,2,-2,-1
1480685825891128,-22,-8,3,-2,0,0,-1,-5
1480685825892632,0,9,0,6,1,0,0,-2
1480685825892632,3,3,-5,-9,-3,-1,0,1
1480685825912685,1,2,-2,4,-2,-1,-4,-1
1480685825912685,8,5,3,-1,1,2,0,1
1480685825935246,-5,-6,-4,-4,-6,-3,-1,0
1480685825935246,-2,-3,-1,-3,2,1,-1,-1
1480685825950788,-6,-2,3,-5,-1,2,4,1
1480685825950788,2,-1,-4,-3,-2,-2,0,-2
1480685825960813,5,3,3,4,2,-1,-2,-1
1480685825960813,1,0,1,3,-1,-2,1,-1
1480685825961816,-1,-1,-1,-2,0,-1,-1,0
1480685825961816,2,3,-1,-5,1,1,2,1
1480685825989890,2,4,-2,-3,-2,-1,-9,-4
1480685825989890,1,2,3,2,-1,1,1,2
1480685825990894,-2,-9,1,-1,0,0,-4,-2
1480685825990894,-11,-5,-3,1,0,-2,0,-2
1480685825995405,0,-2,0,6,1,-1,5,1
1480685825995405,-5,-6,-2,-4,-1,-1,-2,0
1480685826003928,12,1,-5,3,-2,-2,-2,-1
1480685826003928,-5,-1,-1,-3,-3,-2,-2,-1
1480685826005432,4,-2,1,-6,0,1,-1,0
1480685826005432,-2,-1,-4,12,-2,1,-2,0
1480685826011449,3,1,-2,-3,-3,-2,1,2
1480685826011449,7,2,2,-1,5,2,-1,0
1480685826012952,-6,-4,-3,1,-2,-1,5,-3
1480685826012952,-2,-7,2,-1,-1,-2,2,2
1480685826033506,-2,3,-2,1,-1,-3,-1,-1
1480685826033506,2,5,0,6,-2,-1,-3,-1
1480685826035512,-14,-9,-1,-10,2,1,-1,-1
1480685826035512,-2,-11,4,2,2,1,1,-2
1480685826047545,-2,-1,-4,0,-2,0,1,1
1480685826047545,2,-3,2,-6,-2,-1,1,0
1480685826057070,1,0,5,4,-2,-1,0,0
1480685826057070,-3,1,-4,-5,-1,-2,-2,-4
1480685826071108,-4,-2,2,-1,1,1,-2,-1
1480685826071108,7,-2,-2,-1,-5,-3,0,1
1480685826077625,-7,-4,-2,-3,2,-1,-2,-2
1480685826077625,-3,5,3,-2,2,0,2,0
1480685826093666,3,-3,-3,4,0,-3,-2,-1
1480685826093666,2,0,0,-3,-1,0,-2,0
1480685826095674,-1,0,-3,5,-2,-1,1,0
1480685826095674,4,0,-2,-2,3,-1,-1,-1
1480685826116226,-9,-1,3,-1,0,1,0,-1
1480685826116226,10,2,-7,0,0,0,1,1
1480685826117731,3,6,-1,-2,0,-2,-1,1
1480685826117731,5,3,-1,-2,-4,-2,1,0
1480685826138787,-7,0,-1,-6,-2,-1,-7,-4
1480685826138787,-1,-5,-6,6,-1,-3,0,-1
1480685826140291,-3,-6,1,0,0,0,-1,0
1480685826140291,0,6,1,-3,-1,0,3,-1
1480685826154328,-4,-2,-1,1,1,1,3,-1
1480685826154328,-6,3,2,-3,-1,0,-2,0
1480685826159844,3,1,-1,0,-2,-1,1,0
1480685826159844,-1,2,-5,-1,0,0,-2,0
1480685826192431,5,0,0,-6,-2,-1,0,-1
1480685826192431,-13,-5,5,-4,1,-1,-1,-2
1480685826194434,3,-2,-7,13,-1,-2,0,-1
1480685826194434,3,0,-3,-5,-3,-2,-3,-2
1480685826194936,3,4,1,-4,1,1,0,-1
1480685826194936,-6,-3,-2,2,1,-1,0,0
1480685826235544,2,1,3,-2,0,1,0,0
1480685826235544,-3,-3,-1,2,0,-1,-3,-1
1480685826260611,3,1,-1,1,-4,0,1,1
1480685826260611,7,-1,1,-5,-3,-3,0,-2
1480685826263118,-5,2,-1,-1,2,0,-2,-2
1480685826263118,-3,-7,-6,5,-2,-2,-1,0
1480685826264120,1,-8,4,-1,0,0,2,0
1480685826264120,3,5,1,2,0,1,-1,1
1480685826266627,-3,1,-3,-2,0,-3,0,-1
1480685826266627,1,-6,1,-1,1,1,1,-1
1480685826281166,-1,-5,-2,1,-1,-1,0,-1
1480685826281166,-7,6,-2,1,2,2,-2,-2
1480685826282669,1,0,1,-7,-1,1,0,0
1480685826282669,2,3,-2,3,-1,-4,1,0
1480685826296205,4,7,1,2,1,1,0,0
1480685826296205,-4,-15,-4,-3,-5,-2,-1,-2
1480685826297709,-10,-4,2,-1,0,0,-3,-3
1480685826297709,3,-4,-1,-1,-2,1,5,-1
1480685826311746,9,3,0,4,-1,-1,-2,-2
1480685826311746,-10,1,-1,-13,-1,-1,1,0
1480685826317762,5,-2,0,10,-2,-1,-1,1
1480685826317762,-4,-2,-4,0,0,0,0,1
1480685826333806,2,-5,-3,-2,-1,-1,1,1
1480685826333806,6,12,-1,-1,0,0,1,1
1480685826335309,3,-3,1,0,1,-1,-5,-3
1480685826335309,-3,4,2,1,0,0,2,0
1480685826363887,-2,-2,0,1,-2,-1,-1,1
1480685826363887,-3,-24,-1,0,-2,0,0,0
1480685826365389,2,8,1,-2,-1,0,0,2
1480685826365389,0,-1,-1,-8,-2,0,0,0
1480685826371407,-4,-3,-1,2,1,0,-3,-1
1480685826371407,4,5,-3,-3,-3,-1,-1,-2
1480685826372909,0,-2,-2,4,-3,0,-2,-1
1480685826372909,2,-3,0,-1,1,1,-4,0
1480685826400984,1,3,0,-1,0,-1,1,-1
1480685826400984,9,5,-1,1,0,-1,-1,1
1480685826402989,-14,-4,0,4,0,0,1,-1
1480685826402989,-4,-1,1,1,-2,0,-2,-1
1480685826416024,-4,-3,-2,-2,-2,-3,-1,1
1480685826416024,5,5,1,3,2,-2,0,0
1480685826418030,6,-2,-1,-6,-2,2,-1,0
1480685826418030,-5,-4,-4,2,-1,-1,0,0
1480685826430563,-4,2,2,-4,1,-1,-2,-2
1480685826430563,-1,-1,-2,5,2,1,1,0
1480685826445104,-1,-2,-1,-7,-1,-1,-1,1
1480685826445104,4,-1,0,3,-4,-1,0,-2
1480685826469165,-2,-1,-2,-2,0,1,1,0
1480685826469165,7,9,2,-1,0,0,-1,-1
1480685826482701,-5,-10,-3,7,0,-1,-2,-3
1480685826482701,0,6,1,-2,-1,-1,-2,-1
1480685826490222,-8,-12,-2,-2,1,0,-2,0
1480685826490222,6,-3,-3,-1,-3,-1,1,2
1480685826514787,-5,6,1,-1,0,-1,2,0
1480685826514787,-11,-5,0,1,0,-1,-1,-1
1480685826515789,8,4,3,2,1,-1,0,0
1480685826515789,-1,0,-1,-2,0,-1,-3,-2
1480685826521304,5,-3,0,1,-4,1,-1,0
1480685826521304,-1,3,-3,0,0,-1,0,0
1480685826521805,0,4,-1,0,-1,0,1,0
1480685826521805,-4,-2,0,0,-1,-1,-1,-1
1480685826536344,6,-4,1,4,0,1,-2,2
1480685826536344,-19,-1,-5,-7,-3,-2,-3,-3
1480685826537848,-1,-2,-2,-1,-1,-1,0,-3
1480685826537848,7,-1,0,-1,-1,-1,0,2
1480685826550386,1,3,2,-3,-1,1,0,-1
1480685826550386,1,6,0,6,2,1,-4,-1
1480685826558904,-5,-1,0,-1,1,0,5,-1
1480685826558904,7,2,-1,-2,-1,-1,0,0
1480685826581467,-12,-9,-6,-2,-3,-1,-3,-2
1480685826581467,-1,1,2,-4,-2,0,2,1
1480685826582969,0,-4,1,3,-2,-1,-2,-1
1480685826582969,8,7,-2,0,-1,-1,0,-1
1480685826596008,1,12,-2,-2,-1,1,1,1
1480685826596008,6,0,-3,-1,1,-1,0,-2
1480685826598008,1,2,1,-2,0,0,-3,1
1480685826598008,-5,2,-2,-2,-1,-1,0,-2
1480685826610541,-1,-4,-1,2,1,0,-1,-1
1480685826610541,-1,-6,0,2,-3,-1,1,0
1480685826617561,4,7,1,-1,1,0,0,1
1480685826617561,-3,1,-2,-2,0,0,-1,0
1480685826633603,-1,1,-1,-5,-1,-2,1,-2
1480685826633603,4,-2,-1,9,-2,-1,2,1
1480685826635608,-1,3,1,-1,1,-2,3,1
1480685826635608,-3,-9,0,-2,-2,-4,-13,-5
1480685826656664,1,-4,-3,5,1,-3,-1,0
1480685826656664,3,-1,3,-4,0,0,4,-2
1480685826663683,-12,0,-1,-4,-4,0,-1,-1
1480685826663683,1,-8,-2,4,2,1,2,0
1480685826671203,5,3,4,-4,-1,-1,-3,-1
1480685826671203,-4,-3,-6,7,-1,0,-1,0
1480685826677218,4,-6,-2,0,-1,-2,0,-1
1480685826677218,-6,-1,0,-3,0,0,2,1
1480685826709303,-3,-2,0,-2,-2,-2,-3,-1
1480685826709303,-6,-1,1,2,3,2,0,0
1480685826715321,5,1,-1,-1,0,0,-1,0
1480685826715321,6,6,0,-10,0,1,1,0
1480685826723844,3,-2,-3,1,1,-2,1,-2
1480685826723844,-18,-28,6,-4,2,1,0,0
1480685826725346,1,1,0,1,-2,2,-1,-2
1480685826725346,-8,3,0,0,-1,1,4,3
1480685826792525,-2,-3,-1,-3,-3,0,-3,-3
1480685826792525,7,9,-2,-4,-2,-1,-2,-2
1480685826794030,-4,-6,-2,-4,-2,-2,-1,0
1480685826794030,6,-7,1,-1,0,1,-1,1
1480685826795032,5,8,-2,4,0,1,3,1
1480685826795032,-2,-6,-6,-4,0,-2,-4,-3
1480685826816089,0,-1,1,-1,-1,-1,-1,2
1480685826816089,-3,0,1,7,-1,-2,0,0
1480685826817593,-5,-6,-7,-14,0,-1,-4,-2
1480685826817593,5,6,2,-1,0,-1,1,0
1480685826819096,2,9,-1,2,1,-2,-1,0
1480685826819096,3,1,-1,-1,0,-2,7,0
1480685826820605,-17,-7,0,0,2,-1,-6,-5
1480685826820605,9,12,-4,-4,-3,-1,0,1
1480685826829123,-11,2,3,1,-2,-2,0,-2
1480685826829123,3,2,-2,-4,1,0,-2,1
1480685826843660,5,-3,-2,6,-3,-1,1,0
1480685826843660,-3,3,-1,-5,0,0,-1,0
1480685826845165,4,3,1,6,0,0,-2,-1
1480685826845165,-6,-7,-3,-1,-2,0,-1,-1
1480685826850184,0,-1,4,1,0,0,2,2
1480685826850184,2,2,-1,-8,-3,-2,-3,0
1480685826866224,-1,-4,-1,0,0,1,0,0
1480685826866224,-10,4,-1,-4,-1,2,-2,-3
1480685826872738,3,-2,3,-2,-2,0,1,-1
1480685826872738,-4,-3,-4,0,-1,-2,-1,0
1480685826888782,9,3,-3,0,-1,-2,-1,1
1480685826888782,-2,-1,0,-2,2,3,-2,-2
1480685826896301,2,5,-1,-1,-3,0,3,1
1480685826896301,5,8,1,5,1,0,-6,-3
1480685826898809,1,1,-1,-2,2,0,1,-1
1480685826898809,4,0,-2,-5,-2,-5,-5,-1
1480685826917861,7,12,-2,0,-1,2,0,1
1480685826917861,-2,-2,0,2,-2,0,1,0
1480685826934905,6,0,-3,6,-2,-4,-2,-2
1480685826934905,3,-2,-2,-7,4,0,-2,0
1480685826935907,-2,-1,-2,-3,-2,-2,-1,0
1480685826935907,0,2,2,0,-4,-2,1,-2
1480685826937410,0,-7,0,4,3,1,1,0
1480685826937410,-4,0,1,-2,-3,-1,1,0
1480685826955959,2,-7,-4,13,1,-4,-3,-2
1480685826955959,3,0,2,1,4,2,-1,0
1480685826962477,-6,-8,-3,-9,-6,1,-2,-1
1480685826962477,1,-6,0,-1,-3,-1,1,-1
1480685826978520,10,4,2,-4,0,-2,-2,1
1480685826978520,-2,0,2,3,0,0,3,1
1480685827000578,-4,-2,-2,-4,2,-1,-7,-3
1480685827000578,-6,0,-1,2,-1,-2,-1,-1
1480685827022637,-12,-9,-2,-4,-1,0,-1,-1
1480685827022637,-2,0,-2,3,-1,0,0,0
1480685827054722,7,-1,0,-3,-2,0,2,2
1480685827054722,-1,-11,2,-5,-2,-2,-1,-1
1480685827055726,-2,-3,1,1,1,1,0,-2
1480685827055726,6,16,-5,-2,-2,-2,-1,-1
1480685827057229,-7,-3,-1,-2,1,2,1,0
1480685827057229,8,5,0,5,-2,-3,-1,1
1480685827061241,0,-4,0,-4,-2,-2,1,-1
1480685827061241,1,-3,-1,-2,-1,1,0,-2
1480685827068760,0,11,0,-5,1,0,-3,-1
1480685827068760,-8,-14,0,-1,-3,-1,2,2
1480685827076781,-1,1,3,2,-2,1,0,-1
1480685827076781,-4,-4,-7,-2,1,-3,-3,-1
1480685827078285,-13,5,1,-2,-1,-1,3,0
1480685827078285,12,0,-2,0,-3,0,3,0
1480685827089816,3,0,2,-4,3,1,-2,-1
1480685827089816,-9,-1,-4,9,-3,-2,-1,-2
1480685827106359,8,-4,-1,1,-1,-1,-2,-2
1480685827106359,-8,0,-2,1,4,1,0,0
1480685827121902,-1,-5,-1,0,-2,-1,-1,-1
1480685827121902,4,2,2,-8,0,-1,-1,0
1480685827127415,6,10,0,1,0,-1,-1,0
1480685827127415,-2,3,-2,1,-4,-1,-1,-2
1480685827143961,-2,-4,-1,-3,0,1,1,1
1480685827143961,0,-7,-3,-1,3,2,4,1
1480685827147478,-4,1,3,3,2,0,1,0
1480685827147478,-9,-10,-1,-2,-3,-2,-9,-3
1480685827149979,4,1,-2,3,-1,-1,0,0
1480685827149979,-4,-5,4,3,0,0,-2,-3
1480685827166520,3,-2,-2,-3,-2,-1,0,0
1480685827166520,0,-4,3,7,4,1,4,3
1480685827173538,-4,-4,-1,1,-1,-1,0,-1
1480685827173538,-6,0,2,-6,0,-1,-1,0
1480685827175544,-3,-2,2,-2,-1,-1,1,-1
1480685827175544,4,3,0,-2,0,1,1,1
1480685827211639,2,-1,-5,2,0,-1,-1,2
1480685827211639,2,0,-2,-3,-3,-2,2,1
1480685827213645,-4,-4,-1,-6,0,0,-2,-2
1480685827213645,0,3,1,-2,-3,-2,-1,-1
1480685827218659,-3,0,-1,0,2,0,-1,0
1480685827218659,0,4,1,-3,-2,2,3,0
1480685827220163,1,1,1,2,-1,-1,-2,0
1480685827220163,8,2,-3,-1,-1,-1,0,-2
1480685827234200,-9,-5,-2,-7,-1,-1,0,0
1480685827234200,-1,-3,1,2,1,-2,-2,-1
1480685827235704,13,0,-7,-4,-1,-3,0,0
1480685827235704,-3,3,0,4,-2,0,1,1
1480685827256258,-2,-14,6,4,0,1,1,-1
1480685827256258,10,6,-5,-2,-1,0,-2,1
1480685827257762,-9,-2,3,-4,-3,0,0,0
1480685827257762,-5,-1,-1,1,1,0,0,-2
1480685827278819,11,6,-4,0,-2,0,-2,-3
1480685827278819,-4,-3,1,-2,-1,-1,-2,-2
1480685827280323,1,2,2,-1,1,1,0,0
1480685827280323,-7,-7,-4,-3,-1,-4,-3,-2
1480685827301378,0,6,1,-5,-4,0,-1,0
1480685827301378,2,-1,0,3,0,-1,-2,-1
1480685827302882,-7,2,0,0,-1,-1,-1,-2
1480685827302882,1,1,4,-1,1,2,4,2
1480685827316423,-5,6,2,8,0,-2,-1,-1
1480685827316423,6,-11,-4,-9,-1,-2,-3,-2
1480685827317922,-11,-8,0,3,-1,-2,0,-1
1480685827317922,7,-5,0,-2,-1,-1,1,2
1480685827347502,6,0,4,-1,0,-1,1,-2
1480685827347502,-9,0,-2,11,2,-1,1,0
1480685827354018,5,2,0,-4,1,0,-2,-1
1480685827354018,-6,-1,1,1,-2,-3,0,0
1480685827354520,8,2,-4,-1,1,-3,-4,1
1480685827354520,0,10,-1,-4,1,0,-1,-2
1480685827360034,-6,-5,-2,-1,1,-1,-1,-1
1480685827360034,1,5,3,-1,-1,1,0,0
1480685827375575,-8,-7,-1,-2,0,1,-1,-1
1480685827375575,-4,5,-2,8,-1,-1,-3,-1
1480685827400144,0,0,-4,-7,-2,-2,-1,0
1480685827400144,5,1,1,-1,0,-1,2,0
1480685827400642,-7,-1,0,1,0,-2,0,-1
1480685827400642,7,-7,1,-1,-1,0,1,-1
1480685827404653,-9,1,0,5,0,2,0,-2
1480685827404653,-10,6,-1,3,-1,-1,-1,-1
1480685827413679,1,-5,-2,0,0,-1,1,1
1480685827413679,-4,-1,1,-6,3,1,0,0
1480685827422200,4,1,-3,6,-1,-2,-1,-1
1480685827422200,5,3,-4,-1,-1,0,-1,-1
1480685827435735,-9,-2,4,3,2,0,-1,0
1480685827435735,2,7,-1,-3,-5,-1,-2,0
1480685827436237,0,-5,-1,2,3,1,1,2
1480685827436237,-3,-3,0,-3,-2,-1,-1,-1
1480685827457794,1,4,-2,0,0,-2,-1,-1
1480685827457794,-1,5,-5,-2,-4,-2,-2,-2
1480685827465816,4,-7,3,-2,-1,0,-1,-1
1480685827465816,-3,-4,-5,3,1,-1,4,-1
1480685827472333,-1,4,-2,-4,-1,-3,-4,-3
1480685827472333,2,3,0,3,0,0,1,0
1480685827480856,5,7,-2,-6,-1,-2,0,1
1480685827480856,20,-3,1,0,1,1,0,1
1480685827495395,-23,-10,-1,-1,0,1,1,-1
1480685827495395,-4,-6,0,2,-2,-1,3,0
1480685827510435,1,-4,1,-2,-1,-1,0,0
1480685827510435,7,2,-1,5,1,0,-4,0
1480685827518455,7,-3,-2,-2,-4,0,1,-1
1480685827518455,-2,-5,0,-2,-1,1,-1,0
1480685827519458,0,5,-1,-4,0,-1,-1,-3
1480685827519458,-11,1,-1,-1,0,1,-1,0
1480685827541016,1,0,-3,0,-2,-1,-1,-1
1480685827541016,-4,-6,2,1,3,1,5,0
1480685827541517,1,1,-2,2,-4,-2,2,1
1480685827541517,-6,-5,-3,-11,-2,-2,-4,-4
1480685827557559,10,5,0,-2,1,0,0,0
1480685827557559,-16,-4,-1,-4,-2,0,-1,0
1480685827563075,12,4,-1,3,1,0,-1,-1
1480685827563075,-4,-3,0,2,-1,-1,1,1
1480685827578115,6,4,1,-5,0,1,1,-1
1480685827578115,-9,1,0,0,0,1,-3,-1
1480685827578616,-2,-4,3,-2,-3,-1,0,0
1480685827578616,-4,1,-4,9,-1,-1,-1,0
1480685827601176,1,-4,-1,1,1,0,0,-1
1480685827601176,6,2,2,1,0,-2,1,0
1480685827602184,-1,5,-4,5,3,2,-2,0
1480685827602184,-1,-17,1,-2,-3,0,0,-2
1480685827615214,-2,0,0,2,-1,-3,-1,0
1480685827615214,4,0,1,2,1,0,-2,0
1480685827623234,-2,13,-4,-8,-6,-2,5,-2
1480685827623234,0,1,2,-1,2,-1,2,-1
1480685827638275,0,0,0,2,2,0,-5,-2
1480685827638275,-18,-5,-1,-1,1,0,-2,0
1480685827638777,6,-7,3,6,2,1,-1,-1
1480685827638777,0,5,-2,-3,0,-1,-1,-1
1480685827652312,-2,-1,-2,-5,0,-1,2,0
1480685827652312,20,9,-3,-1,0,0,1,-2
1480685827660835,-12,-9,0,0,-1,0,-3,-1
1480685827660835,-2,0,1,0,2,-1,1,1
1480685827683400,-6,-7,0,1,-1,0,-1,1
1480685827683400,8,-4,-4,-2,-2,-1,-2,-1
1480685827690914,6,2,0,-1,1,0,1,2
1480685827690914,-1,3,1,-1,-3,-1,-1,-2
1480685827707959,1,5,-2,1,-3,-3,-2,0
1480685827707959,-1,-3,0,-4,-3,0,-2,-1
1480685827708962,-10,-7,-1,-1,-1,0,-1,-1
1480685827708962,-1,1,-2,-1,1,1,-3,-2
1480685827730522,0,-1,2,3,1,-1,0,2
1480685827730522,-5,3,-1,0,0,1,3,-1
1480685827731022,6,1,0,-2,1,-2,-2,-1
1480685827731022,6,3,-2,-5,-1,1,1,1
1480685827735533,-7,-5,-3,7,-1,-1,0,-2
1480685827735533,9,-2,1,-1,-3,-3,-2,3
1480685827736535,-10,-13,0,3,4,2,1,-2
1480685827736535,-4,3,-1,-2,3,1,-2,-1
1480685827758596,8,4,1,-2,0,1,0,1
1480685827758596,1,-1,0,-1,-2,-2,-1,-1
1480685827759096,-3,2,-3,4,-3,-2,-2,1
1480685827759096,5,-2,-4,1,0,-2,-1,-2
1480685827772131,-3,-5,0,-1,-2,2,-1,-1
1480685827772131,3,-1,1,1,6,1,1,0
1480685827788173,-3,-1,-2,-6,-3,-1,-1,0
1480685827788173,2,2,0,0,0,2,-1,1
1480685827795693,-3,2,1,-1,-1,-2,0,-2
1480685827795693,-4,3,-4,0,0,-1,0,-2
1480685827796195,5,5,0,2,2,1,1,-1
1480685827796195,-5,-3,0,-1,-1,-3,-9,-3
1480685827818253,4,2,0,-5,-1,0,0,-1
1480685827818253,10,-1,-1,0,-1,-1,-2,2
1480685827818754,1,0,0,-1,-1,-1,-1,0
1480685827818754,-6,-1,3,-1,0,-1,3,0
1480685827857858,-5,1,-1,-3,1,1,-1,-1
1480685827857858,-9,-5,0,0,0,1,0,-2
1480685827858862,0,-3,-3,-3,-4,-2,-1,-2
1480685827858862,4,2,0,2,-2,-2,-1,2
1480685827860868,0,-2,-4,-8,-1,-1,0,0
1480685827860868,-10,-10,2,2,0,1,2,-1
1480685827870892,9,-2,0,-2,3,0,-3,-1
1480685827870892,0,2,0,-1,-3,-1,1,0
1480685827877911,-6,0,-1,1,0,0,4,0
1480685827877911,-3,1,-5,0,-2,-1,0,-1
1480685827878914,4,4,1,1,-1,1,1,2
1480685827878914,-2,-5,-3,0,0,-2,-9,-4
1480685827901473,2,-7,-1,0,-1,1,0,0
1480685827901473,5,5,1,-3,-4,-1,-3,1
1480685827901975,-9,1,0,-8,0,2,2,-1
1480685827901975,-4,-3,-3,4,0,0,3,1
1480685827915511,10,3,-1,6,-2,-1,-2,0
1480685827915511,-6,0,-2,1,-2,-1,-1,-3
1480685827916514,-11,-3,-2,-7,-1,-1,-3,-2
1480685827916514,-1,-1,1,-3,-1,1,1,-1
1480685827938071,4,-1,-2,1,-1,-3,-1,1
1480685827938071,2,0,2,-1,0,-2,-1,-2
1480685827939074,2,-1,-2,4,1,-1,0,0
1480685827939074,7,2,-1,-7,-1,0,1,1
1480685827961133,-2,3,4,-1,0,1,2,-1
1480685827961133,6,0,-4,-4,-1,-2,-3,-1
1480685827962137,-13,-14,3,4,2,1,-1,0
1480685827962137,-3,-3,0,1,0,-1,4,1
1480685827976173,-12,-20,0,-6,-1,1,3,-1
1480685827976173,4,9,-1,8,3,0,-7,-1
1480685827978179,9,6,-1,-3,-5,-3,-2,-1
1480685827978179,-2,-2,0,3,3,0,0,1
1480685827998232,-4,2,0,0,-2,-1,0,0
1480685827998232,-6,-8,0,-12,-2,0,0,0
1480685827998732,7,0,-4,-1,0,-1,-2,-2
1480685827998732,-19,0,1,0,-1,-1,0,-1
1480685828020290,6,6,-3,1,1,-2,-2,-2
1480685828020290,-3,0,0,3,1,0,0,1
1480685828021292,5,3,-1,-2,-2,-4,-2,1
1480685828021292,9,6,-2,-5,-1,-1,-3,-2
1480685828035832,-17,-4,-1,1,0,-1,-3,-3
1480685828035832,-8,-5,1,-3,-1,1,-1,0
1480685828036332,2,1,-2,5,0,-1,-1,0
1480685828036332,1,-2,-3,-3,-2,-3,1,0
1480685828065912,1,3,0,0,-1,2,0,-1
1480685828065912,4,1,-1,0,0,-1,2,-1
1480685828066914,2,2,1,1,-3,-1,-6,-1
1480685828066914,7,6,0,0,1,1,0,-1
1480685828089975,1,-7,0,0,0,-3,-1,0
1480685828089975,2,2,0,-3,-4,-2,3,1
1480685828090978,-3,-2,2,-1,2,1,3,1
1480685828090978,-2,-7,-5,4,-3,-1,-3,-2
1480685828095492,-5,-2,1,-2,-1,0,-3,-1
1480685828095492,0,0,3,4,2,1,-1,-2
1480685828096493,-4,2,0,0,-1,-1,1,-1
1480685828096493,9,-2,-1,-3,0,0,1,0
1480685828118558,3,2,-1,2,0,-1,-1,-1
1480685828118558,0,0,-2,0,0,0,-2,-2
1480685828133089,1,2,1,-5,-2,0,-1,1
1480685828133089,-11,-4,-1,3,-1,0,2,-1
1480685828140108,22,20,-1,-2,-2,-1,-2,-2
1480685828140108,-8,0,-1,5,-1,-1,0,-1
1480685828148130,-3,-5,-3,0,4,1,0,1
1480685828148130,4,0,3,-2,-3,0,-2,1
1480685828155651,1,-1,-2,12,1,0,1,2
1480685828155651,1,-1,-5,-12,-2,-1,-2,0
1480685828156151,-9,-6,-1,3,0,0,-4,-3
1480685828156151,-1,-2,1,-2,-2,-1,0,0
1480685828178211,-2,-2,-1,1,1,-1,-1,0
1480685828178211,2,-4,0,0,3,-1,3,1
1480685828178716,-1,-2,-3,1,-4,-1,2,-1
1480685828178716,0,7,3,-2,3,1,0,0
1480685828200770,-13,-2,2,-3,-1,1,0,-3
1480685828200770,-1,-1,-4,-2,-1,-1,-3,0
1480685828216813,6,5,-1,-4,-3,-2,0,2
1480685828216813,-3,-3,-1,4,1,0,1,-1
1480685828218822,-4,1,-3,-5,-2,-1,-3,1
1480685828218822,0,-3,2,4,2,1,2,-2
1480685828219320,-1,2,0,-1,0,-1,0,-2
1480685828219320,6,13,-1,1,-4,-1,-1,1
1480685828237871,-2,-2,-1,-2,-1,-1,0,-1
1480685828237871,1,4,0,2,1,0,1,3
1480685828238871,-1,-5,2,0,-2,0,-5,-4
1480685828238871,-3,0,1,-2,1,1,1,-1
1480685828260429,2,-3,-1,6,1,0,-2,0
1480685828260429,-2,0,0,-1,-3,-2,-1,1
1480685828261432,1,-2,0,-1,0,1,4,1
1480685828261432,5,-6,-2,-4,-1,-1,-2,-2
1480685828275468,-11,-6,2,-6,-3,-1,-2,-2
1480685828275468,3,-4,-1,3,-3,-2,0,-2
1480685828276471,-6,-6,1,0,1,0,1,-1
1480685828276471,1,-3,-1,-1,-3,-2,-2,-1
1480685828298530,8,-4,-2,-4,2,1,1,1
1480685828298530,-1,-3,-1,3,1,1,-1,-1
1480685828306049,-3,2,1,3,-1,-3,-1,0
1480685828306049,-4,-4,-2,-1,-1,0,1,0
1480685828322594,3,3,0,-3,-1,-1,2,0
1480685828322594,-3,-1,0,-1,0,0,-2,0
1480685828323596,1,-3,-3,-4,-2,-1,-2,-2
1480685828323596,-8,-3,-1,-3,3,1,1,-3
1480685828336632,2,3,2,3,-1,1,0,0
1480685828336632,-5,-12,-2,-12,-3,-1,-3,-1
1480685828343149,1,4,-1,-1,1,0,4,0
1480685828343149,4,0,-1,6,-1,-1,-4,-2
1480685828366711,-1,0,-1,-3,-1,-1,-1,0
1480685828366711,-2,1,1,-1,1,1,2,0
1480685828367212,0,-4,-2,-2,2,3,-1,2
1480685828367212,8,-4,0,-2,0,0,2,1
1480685828388770,-17,-6,-1,-2,-3,-3,0,-3
1480685828388770,5,-2,1,-1,0,-2,0,0
1480685828389773,-2,1,1,-5,-2,-1,1,-3
1480685828389773,7,4,-1,3,1,-2,-1,2
1480685828395791,4,2,0,2,0,-1,-4,-1
1480685828395791,2,-5,-4,-11,-2,-2,4,-3
1480685828396290,-5,-1,-1,1,1,-2,-1,-1
1480685828396290,-2,4,-1,-3,0,0,0,1
1480685828418349,5,-4,-2,-1,-2,-1,-5,-3
1480685828418349,-5,0,1,3,-2,-1,-2,-2
1480685828425368,5,7,3,-5,-1,-1,0,-1
1480685828425368,-11,-8,-2,1,-3,-1,0,-3
1480685828440406,3,2,-2,0,2,0,3,1
1480685828440406,2,-1,0,0,-2,-1,-1,-2
1480685828447926,-4,3,-3,0,-3,-2,-3,-2
1480685828447926,-1,2,1,-4,-1,0,-2,-2
1480685828455948,4,-7,0,-1,3,1,1,1
1480685828455948,-4,4,-1,-1,0,0,-3,-1
1480685828462967,0,4,1,2,-2,-2,-1,2
1480685828462967,2,-4,-3,-2,-1,-2,-2,-2
1480685828478007,2,2,-1,-2,-2,0,0,-1
1480685828478007,-7,-3,2,2,2,-1,-1,1
1480685828479010,6,-4,-2,0,0,0,0,0
1480685828479010,-5,-7,0,2,1,1,-2,0
1480685828502072,-2,5,2,1,-3,-1,2,-2
1480685828502072,-6,-13,6,-6,4,3,1,2
1480685828517111,-8,0,-1,0,-3,-1,1,-1
1480685828517111,0,-5,0,-7,0,-2,-2,-1
1480685828519117,-1,-1,-5,9,-2,-3,-3,0
1480685828519117,5,3,-4,7,-3,-2,0,0
1480685828523126,7,1,1,-1,-1,1,0,-1
1480685828523126,-15,1,0,-3,-2,-1,2,0
1480685828538167,-1,1,1,-1,1,0,0,1
1480685828538167,-1,2,-1,0,-3,-1,-2,-2
1480685828539170,-1,-3,-5,-1,3,1,-2,2
1480685828539170,3,1,-1,-3,0,0,-1,2
1480685828560727,-2,1,0,-5,-1,-1,-1,0
1480685828560727,-1,7,-3,6,-2,0,-2,-2
1480685828568247,1,-4,3,-7,2,1,0,-1
1480685828568247,4,-5,-1,0,-1,-1,-1,-1
1480685828584290,-2,-4,3,-5,-1,1,-4,-1
1480685828584290,2,0,-1,5,0,-1,-2,-1
1480685828585292,2,2,-7,10,-4,-1,1,0
1480685828585292,-3,-4,0,3,2,-1,-6,-3
1480685828598828,2,-2,-1,-3,-1,-1,0,1
1480685828598828,-5,-2,2,-4,1,1,0,1
1480685828600332,-2,1,-2,0,-1,1,0,-2
1480685828600332,8,5,-2,-5,-3,-1,2,-1
1480685828621388,0,2,1,0,-1,0,-1,0
1480685828621388,4,1,-1,-4,1,0,-2,-1
1480685828645454,-8,-10,-4,1,0,-2,-1,-2
1480685828645454,3,6,2,4,1,4,0,0
1480685828648460,3,-2,-2,-8,-2,-2,-1,-2
1480685828648460,-2,-23,3,2,0,-1,2,1
1480685828649964,3,1,3,-2,-1,-2,-1,-1
1480685828649964,-17,-2,-2,-2,3,-2,-1,-2
1480685828666008,0,-5,-2,4,-1,-1,-1,-2
1480685828666008,-1,11,-5,-2,-2,0,0,0
1480685828667011,3,2,1,-1,3,-1,-2,0
1480685828667011,-3,-3,3,2,-2,0,2,0
1480685828688567,0,-2,-5,-1,0,-2,0,-1
1480685828688567,3,2,-3,3,3,1,0,0
1480685828689569,-4,2,0,-1,2,1,-1,-2
1480685828689569,1,2,-2,9,-1,-2,-6,-3
1480685828703607,3,0,-2,-3,-1,-2,1,1
1480685828703607,0,3,-1,-2,-2,-2,-1,-1
1480685828710627,3,0,-5,-2,-3,-2,-1,1
1480685828710627,4,0,1,3,-2,-2,0,1
1480685828718146,3,0,-1,-4,-1,0,-1,-2
1480685828718146,-8,0,0,-2,-2,-1,-1,-2
1480685828718649,6,3,-1,4,-2,1,0,0
1480685828718649,0,-8,-3,-7,-1,-2,1,0
1480685828740706,-6,1,-1,7,0,-1,0,0
1480685828740706,-2,-1,0,-3,1,0,1,1
1480685828741207,-5,-13,2,0,-1,-1,-4,-2
1480685828741207,-3,1,-1,-4,-3,-2,3,0
1480685828754743,0,-3,2,3,1,1,0,1
1480685828754743,0,-1,-1,-3,0,-3,-2,-1
1480685828762764,-2,-1,-2,0,0,-1,0,-1
1480685828762764,7,0,1,-1,2,0,2,-1
1480685828777806,-8,0,-2,-4,-4,-1,0,-2
1480685828777806,5,1,0,4,1,-2,2,1
1480685828778807,-1,7,2,-3,-1,1,-4,-4
1480685828778807,1,-4,-1,-2,1,0,-1,3
1480685828800365,5,2,-3,7,-1,0,0,1
1480685828800365,-4,2,1,-8,-1,2,-4,-1
1480685828801367,6,-2,-4,-6,-3,-5,1,-1
1480685828801367,-9,5,-2,4,-1,-1,-1,-1
1480685828814905,0,-1,2,-1,1,1,-1,1
1480685828814905,2,1,-3,3,-2,-1,0,1
1480685828822924,-3,-5,2,-1,2,2,1,0
1480685828822924,-1,1,0,1,-4,-1,-3,-1
1480685828837964,-2,0,3,-1,-2,-2,3,-1
1480685828837964,5,-2,-3,-6,-2,-2,-2,-1
1480685828839970,9,4,2,2,0,1,0,1
1480685828839970,-6,-3,-4,-1,-1,-1,-1,-1
1480685828868545,-3,2,2,-6,-1,0,-2,-1
1480685828868545,3,3,-1,7,-1,0,0,-2
1480685828869548,-5,-7,1,-1,-1,0,0,0
1480685828869548,-3,-21,0,2,1,1,0,0
1480685828875063,3,2,0,-2,-2,-2,-4,1
1480685828875063,-1,-3,-1,1,-1,-1,-2,-1
1480685828883084,0,2,-1,-1,0,0,1,3
1480685828883084,5,10,-3,-6,0,-1,-3,-3
1480685828898125,-17,-7,-2,-3,2,1,-1,-2
1480685828898125,-2,-1,2,5,2,1,1,1
1480685828898626,-4,4,0,1,-1,-1,-1,0
1480685828898626,2,2,0,-6,-1,0,2,1
1480685828922188,3,2,-1,0,1,-2,-2,-4
1480685828922188,6,-6,0,-6,-4,0,0,-2
1480685828922690,1,0,0,4,0,-1,2,0
1480685828922690,-9,5,1,-2,-1,-2,0,-3
1480685828946754,2,0,0,1,0,2,-2,0
1480685828946754,-2,0,-4,2,0,-1,0,-1
1480685828947756,0,1,1,-1,0,-1,-3,-1
1480685828947756,3,0,-1,-7,-5,-2,-1,0
1480685828966305,3,4,-1,6,5,2,1,-2
1480685828966305,-9,-3,1,-3,0,-1,2,1
1480685828966806,1,-5,-3,-1,-2,-1,-1,-1
1480685828966806,2,4,1,3,-1,-1,-8,-3
1480685828989367,0,1,0,-1,-2,-3,0,0
1480685828989367,3,3,1,-8,2,2,-1,-1
1480685828990370,-5,8,-4,5,-2,-1,2,-2
1480685828990370,0,-6,2,-4,0,1,4,2
1480685828996887,1,0,-1,-3,-1,-1,0,0
1480685828996887,-7,2,-1,0,0,1,-1,-2
1480685829002903,-1,0,-3,-1,-1,-1,-3,-2
1480685829002903,2,1,-1,1,0,-1,2,1
1480685829017942,9,0,-1,-3,-1,0,-1,-1
1480685829017942,-24,-6,-1,-2,0,-1,-2,-1
1480685829018947,1,-1,1,-6,-2,1,-1,-1
1480685829018947,1,2,-2,3,0,-1,-2,-1
1480685829048525,0,-5,-1,1,0,0,0,1
1480685829048525,5,0,-2,-1,-2,-3,-2,0
1480685829056044,-3,-5,1,0,0,0,-1,-1
1480685829056044,0,2,0,2,2,0,0,0
1480685829058049,3,2,-1,-4,-1,1,0,1
1480685829058049,2,0,-1,3,-2,-3,0,-1
1480685829063063,-6,-2,0,0,2,-1,-10,-4
1480685829063063,7,4,-1,-3,-1,-1,2,-2
1480685829078104,-2,-1,0,2,1,0,1,-1
1480685829078104,3,4,-1,-2,-1,0,2,0
1480685829079110,1,-4,1,2,-1,0,3,3
1480685829079110,1,0,-2,-2,-2,-1,-1,1
1480685829101164,0,1,-1,3,-1,0,-2,1
1480685829101164,-6,2,1,0,-2,-1,-2,-2
1480685829102167,2,3,-1,-4,-2,0,0,-1
1480685829102167,-14,-3,0,1,2,-1,-2,-2
1480685829123724,-1,-1,-2,-1,-1,0,1,0
1480685829123724,10,-1,-2,0,-2,0,-2,-1
1480685829124727,0,0,2,0,0,1,0,1
1480685829124727,1,3,-1,2,-3,-1,2,1
1480685829137762,-3,1,-3,-13,-2,-1,-2,0
1480685829137762,6,-4,-1,1,3,1,2,1
1480685829138764,-3,-3,2,-3,-1,1,0,-2
1480685829138764,3,-2,2,4,1,0,-2,0
1480685829160322,1,0,-3,3,-1,-3,-1,-1
1480685829160322,4,12,-2,-5,-3,-1,-2,-1
1480685829168844,-7,-5,1,-3,-1,-1,3,1
1480685829168844,1,2,-1,-1,0,1,-2,0
1480685829199926,-5,-22,3,4,-3,-3,-3,-2
1480685829199926,-5,-4,2,0,1,0,-1,1
1480685829200929,3,0,-3,-1,0,-2,-1,0
1480685829200929,-8,-1,-2,2,-2,-1,-2,-2
1480685829202433,6,9,0,-3,1,1,0,-1
1480685829202433,3,-3,-3,1,-3,-2,-2,-1
1480685829205443,5,-8,-1,-4,0,1,0,-2
1480685829205443,3,-4,-1,7,2,-1,-1,1
1480685829220482,-3,5,-5,-1,-3,0,-1,2
1480685829220482,7,1,3,2,2,3,-2,2
1480685829221484,-15,-7,-3,2,1,0,5,-4
1480685829221484,0,-4,0,-6,0,-1,3,-2
1480685829245048,-1,1,1,1,0,-1,1,-1
1480685829245048,-2,-1,2,0,0,-2,-3,-2
1480685829246050,5,8,-1,1,-2,-2,-2,3
1480685829246050,2,0,-1,-2,0,0,-1,-1
1480685829266103,-3,-4,1,2,1,-1,3,-1
1480685829266103,-1,-3,0,-5,-1,-2,0,-2
1480685829267106,0,1,-1,2,2,0,-1,-1
1480685829267106,-2,-7,3,2,0,0,2,3
1480685829280642,8,-6,-2,-3,-1,-1,-4,-1
1480685829280642,-12,-4,-2,-2,-2,1,-1,-2
1480685829281143,4,0,-3,5,-1,-1,0,1
1480685829281143,5,7,1,-6,-2,-1,-2,-1
1480685829303703,-4,3,0,5,2,2,0,-1
1480685829303703,8,-3,0,3,0,-1,-1,0
1480685829304706,-2,0,-2,1,-3,-1,0,-3
1480685829304706,-1,-3,-3,-5,-1,-2,-1,0
1480685829319244,-2,3,0,-1,-1,-2,-3,0
1480685829319244,2,-1,-1,-5,-2,0,2,0
1480685829325762,2,6,0,1,0,-4,-2,0
1480685829325762,-1,-1,-1,-4,0,-1,0,-2
1480685829340802,-2,1,0,3,0,-1,-2,-2
1480685829340802,-3,-6,0,5,0,2,2,2
1480685829342306,-3,-1,-1,1,-1,0,-2,-1
1480685829342306,-4,1,2,-1,0,1,-1,-1
1480685829365366,2,-3,-1,-2,-3,-1,1,0
1480685829365366,0,4,0,2,0,0,-1,1
1480685829365867,1,-2,-1,-5,-1,0,0,0
1480685829365867,12,4,0,3,0,-1,0,-2
1480685829377900,-2,3,-2,-2,1,2,0,1
1480685829377900,-2,-2,-1,-4,-2,-1,-1,0
1480685829401462,-1,0,-4,8,1,-2,-3,0
1480685829401462,4,3,-2,0,-2,0,-1,-1
1480685829403468,0,-2,-1,-3,-2,-2,-1,0
1480685829403468,-1,3,0,-1,-2,0,0,-2
1480685829407980,3,-4,-1,-4,0,-1,5,-1
1480685829407980,-3,9,-2,1,0,0,-3,-2
1480685829423020,-3,-2,2,0,-2,0,3,0
1480685829423020,-2,-1,-2,0,-2,-3,-2,-3
1480685829424023,2,4,2,-5,1,-1,-2,1
1480685829424023,-1,0,-6,2,-1,-1,-1,-1
1480685829438561,-2,-3,2,-4,0,-1,1,-1
1480685829438561,4,3,0,3,1,-1,-2,0
1480685829440065,-4,3,1,-5,-2,1,0,-1
1480685829440065,-1,-7,2,0,0,-1,2,0
1480685829460620,-1,2,-1,0,1,0,-2,1
1480685829460620,0,-7,0,1,1,0,-1,-3
1480685829461625,-3,-2,0,3,1,-2,0,1
1480685829461625,-1,-8,-1,-12,-2,-1,0,0
1480685829500227,2,3,1,-3,-3,-1,1,0
1480685829500227,10,3,-4,-3,0,-2,-3,-3
1480685829500726,-9,-6,-3,4,-2,0,-1,-1
1480685829500726,-4,-2,1,-1,-1,-1,2,0
1480685829502732,3,1,-1,-2,-1,2,-1,0
1480685829502732,-7,-4,1,-2,-2,-1,0,-1
1480685829505740,0,-1,-2,-6,1,1,-1,0
1480685829505740,2,-1,1,7,-2,1,-1,0
1480685829520780,-4,-5,-1,0,1,-1,0,-1
1480685829520780,-10,15,-3,0,-1,-2,3,-1
1480685829521783,2,1,-1,-2,-2,-2,0,-1
1480685829521783,-4,2,0,-3,-1,-1,-1,0
1480685829544343,7,-8,-2,3,-1,-4,-2,-1
1480685829544343,5,0,-3,-2,0,-2,-2,0
1480685829545348,0,-1,2,0,-1,0,-1,-1
1480685829545348,0,-1,-2,2,2,1,1,2
1480685829559884,-7,-1,-3,-5,-2,-1,0,-3
1480685829559884,6,1,0,-3,2,-1,-2,-2
1480685829560887,1,1,-2,5,-1,0,-1,0
1480685829560887,-3,-6,1,4,1,-2,-1,0
1480685829580940,5,-4,1,-1,-1,-1,-1,-1
1480685829580940,-2,-6,-1,2,-1,0,0,0
1480685829581953,3,2,3,-3,-1,0,0,0
1480685829581953,-2,1,-2,-2,0,1,0,-1
1480685829602999,-1,7,0,1,-1,-1,-1,-1
1480685829602999,0,-4,-2,-2,0,0,1,1
1480685829604001,-2,0,0,-3,-3,-1,1,1
1480685829604001,5,0,-2,-1,2,-1,-6,-1
1480685829618540,-15,4,0,-2,0,-1,1,0
1480685829618540,0,2,1,0,1,1,-1,-1
1480685829620545,-2,1,-2,0,-1,0,-1,-1
1480685829620545,-2,1,4,1,0,-1,6,-1
1480685829640598,10,8,-4,-2,-2,-2,-1,0
1480685829640598,-18,-9,-4,6,-1,-3,-2,-3
1480685829641100,0,-4,-2,-5,0,-2,-2,-1
1480685829641100,0,2,-2,10,0,0,-1,-1
1480685829663159,-9,0,0,-1,2,2,-2,0
1480685829663159,4,-3,0,-4,-4,-2,1,2
1480685829663660,7,3,1,3,2,0,-1,-2
1480685829663660,-6,-4,-2,-2,-2,0,-2,-2
1480685829686220,-13,-7,-1,1,2,1,0,0
1480685829686220,1,2,-1,-2,0,1,0,1
1480685829687223,-4,-4,-1,-3,-2,-1,-1,-1
1480685829687223,1,-1,1,-3,-2,1,0,0
1480685829708780,3,-2,0,2,0,0,0,-1
1480685829708780,2,3,1,-3,-1,-1,-3,-1
1480685829709281,-3,0,-1,1,1,0,-3,-1
1480685829709281,0,0,-1,-2,1,0,-1,1
1480685829722817,4,-4,-1,-2,-2,0,-1,1
1480685829722817,2,-2,1,1,0,0,-2,0
1480685829723820,-10,-2,1,-1,-1,0,0,-2
1480685829723820,2,1,-1,-3,-1,0,1,1
1480685829737355,1,-6,1,-1,0,-1,-1,-1
1480685829737355,3,-2,0,0,1,0,1,1
1480685829752897,9,-2,2,1,-1,-1,0,1
1480685829752897,-13,-2,-6,-3,-2,-4,0,-3
1480685829760420,3,4,-1,2,-2,0,-1,0
1480685829760420,-3,-14,1,4,1,0,1,0
1480685829761420,-8,-5,-1,-6,-2,0,-1,-2
1480685829761420,4,1,4,-2,-1,-1,0,1
1480685829799532,4,0,-3,6,1,0,-2,-1
1480685829799532,-1,2,-2,0,-3,-2,-2,0
1480685829800022,4,1,-2,-2,1,-3,1,1
1480685829800022,-17,-7,-1,-1,-2,0,1,-2
1480685829802028,-3,0,2,0,3,1,-2,-1
1480685829802028,5,3,-1,2,2,3,0,-1
1480685829805537,7,1,-3,-12,-2,-3,-1,0
1480685829805537,10,10,1,-2,0,1,0,-1
1480685829820577,-11,-3,-3,-2,-3,-4,2,-3
1480685829820577,-6,2,-3,8,0,0,1,-1
1480685829821580,2,0,2,3,-1,-1,-2,-1
1480685829821580,3,0,-1,-1,1,-1,0,0
1480685829850166,5,4,1,-1,-1,-1,0,2
1480685829850166,0,2,0,-4,-1,-1,-1,-1
1480685829858679,-19,-9,-3,1,0,0,-1,-3
1480685829858679,5,3,3,-1,-1,-2,-3,0
1480685829867703,3,0,1,-1,0,0,2,1
1480685829867703,-6,-15,3,-4,-2,-1,1,1
1480685829868706,1,-4,2,3,1,2,0,1
1480685829868706,-5,-6,-3,2,-2,-2,3,0
1480685829888758,5,0,1,-2,-1,0,0,0
1480685829888758,1,2,-2,0,0,0,0,0
1480685829889761,2,0,-2,-11,-2,-1,-1,-1
1480685829889761,-3,-6,0,-1,-1,0,-2,-2
1480685829902798,-3,-1,-2,-2,-1,-3,1,-1
1480685829902798,-2,7,2,-4,-1,0,0,0
1480685829903798,6,3,1,5,0,1,-2,1
1480685829903798,2,1,-3,-4,-1,0,0,0
1480685829917335,-8,-2,1,-1,1,-1,1,-1
1480685829917335,6,5,-1,-2,0,1,-2,-3
1480685829925356,1,0,-1,2,-3,-3,3,0
1480685829925356,2,0,1,-2,-2,-1,-3,0
1480685829940396,0,3,0,1,-2,0,-1,0
1480685829940396,-1,-2,0,-6,3,-1,1,-1
1480685829947916,-3,2,-1,10,4,1,-1,1
1480685829947916,3,5,-6,-12,-1,-2,0,0
1480685829962956,6,0,0,-3,-1,0,-1,2
1480685829962956,-2,-1,-3,3,-3,-2,0,-1
1480685829963959,-2,2,2,-1,1,1,2,0
1480685829963959,2,-1,3,3,0,0,-3,-1
1480685829986017,-7,-5,1,-1,1,-1,-2,-3
1480685829986017,12,2,-1,-3,-2,-2,-1,-1
1480685829987020,-9,-4,0,1,1,0,-3,0
1480685829987020,3,-1,1,4,1,0,1,1
1480685830001057,3,-1,-3,-3,-2,-2,-2,0
1480685830001057,-2,2,1,1,-1,1,-1,0
1480685830002060,5,2,0,-2,-2,-2,-2,-1
1480685830002060,-18,-24,2,-2,0,0,-2,-2
1480685830023618,2,-3,-3,-1,0,2,2,1
1480685830023618,-6,-3,-2,-6,-2,-1,0,0
1480685830030635,3,3,-3,3,-2,0,0,-2
1480685830030635,-5,3,-5,2,-2,-2,1,1
1480685830053697,4,4,-1,0,-1,0,2,-2
1480685830053697,-5,-8,0,0,2,0,-7,-3
1480685830054701,-3,-6,2,-4,-1,0,-2,-1
1480685830054701,5,3,0,8,1,2,0,1
1480685830076258,-1,0,-2,-4,2,1,-1,0
1480685830076258,3,6,-1,0,-2,0,0,0
1480685830077261,0,0,1,-7,1,0,1,-2
1480685830077261,1,-2,-1,8,-2,-2,-2,-2
1480685830083778,-1,-2,1,-7,0,0,-1,0
1480685830083778,4,-1,-2,5,1,-2,-1,1
1480685830090299,-7,1,-3,-9,-1,1,2,-3
1480685830090299,6,3,0,-3,0,1,2,0
1480685830122379,2,1,-1,0,-2,-1,-1,0
1480685830122379,-5,0,1,2,-1,-1,1,1
1480685830124385,3,-3,1,1,-1,-2,-1,0
1480685830124385,-4,5,0,-5,0,0,-1,-3
1480685830126893,-4,-2,-1,0,0,-1,0,-1
1480685830126893,-8,-3,-2,2,1,2,3,1
1480685830128400,4,-1,-1,0,-2,2,0,2
1480685830128400,10,3,-4,-3,-1,-2,-2,-2
1480685830142936,-3,10,0,-2,1,-1,-2,-2
1480685830142936,-3,-7,-1,0,0,1,1,-2
1480685830143938,0,0,0,-1,0,0,0,-1
1480685830143938,-4,-8,0,3,-1,-1,-1,0
1480685830167499,3,1,0,-1,0,0,0,-1
1480685830167499,3,6,-3,-3,0,0,1,0
1480685830168502,-4,1,-1,0,-2,-2,-6,-4
1480685830168502,0,0,0,6,1,0,1,1
1480685830180535,-1,-9,-4,-8,0,0,0,0
1480685830180535,-9,0,-1,2,-1,0,-2,-1
1480685830182038,-4,-2,-2,3,2,-1,1,1
1480685830182038,-1,3,3,-5,0,2,-1,0
1480685830211117,-3,-7,-3,12,-3,-3,-1,-3
1480685830211117,3,-1,-1,-2,-1,-1,0,0
1480685830212122,3,1,-6,0,-1,0,0,-1
1480685830212122,-5,3,1,-1,-1,-1,-1,-1
1480685830226156,2,-3,0,-1,-1,1,1,0
1480685830226156,3,-5,-2,-3,-3,-2,0,-1
1480685830227159,-15,-2,1,1,0,-1,1,0
1480685830227159,4,-3,1,-5,-1,-1,0,0
1480685830240695,1,1,-1,0,0,2,-1,-2
1480685830240695,8,2,-1,-1,-3,-2,-1,-1
1480685830241196,3,-2,3,1,-3,-1,0,0
1480685830241196,3,0,1,-2,2,1,1,0
1480685830263255,-1,7,-4,1,-4,-1,-4,-1
1480685830263255,-7,-4,-1,-11,0,0,4,-1
1480685830263756,2,3,-3,1,0,-1,1,2
1480685830263756,6,2,-2,-2,-3,-2,-1,-2
1480685830286316,-1,0,2,6,1,-1,-1,0
1480685830286316,-3,2,1,-3,1,3,1,-1
1480685830286817,7,-4,-1,5,-1,-1,0,0
1480685830286817,-9,-4,-8,4,-1,-4,-10,-3
1480685830308877,0,-6,-1,-3,-1,0,1,0
1480685830308877,-1,1,-2,2,-2,-4,-2,-1
1480685830309377,3,1,1,-3,2,1,1,1
1480685830309377,-2,-1,-1,-3,0,1,2,0
1480685830331436,2,-3,2,-3,1,-1,0,-1
1480685830331436,-1,0,-3,-1,-2,1,-3,0
1480685830331937,-10,2,-1,3,2,1,-1,-2
1480685830331937,2,-1,-1,-1,-3,-1,3,-1
1480685830353494,-7,-2,0,0,1,0,-1,-2
1480685830353494,9,-1,1,2,2,0,1,3
1480685830354497,5,4,-3,-1,-3,-3,0,-1
1480685830354497,-2,-5,-2,-2,-2,-1,1,0
1480685830376055,1,-4,-1,-2,-5,-3,-2,0
1480685830376055,-3,3,1,4,1,0,-3,-1
1480685830377058,1,5,-1,-1,-1,1,-2,0
1480685830377058,-1,-2,-1,2,0,0,2,2
1480685830383072,2,0,3,-4,-1,-1,1,-1
1480685830383072,-13,-4,-6,8,-1,-2,-2,-4
1480685830384075,1,-2,-2,-4,-2,-1,-1,-3
1480685830384075,-2,-1,-2,2,-1,-1,0,0
1480685830405131,2,0,-1,-5,-1,-1,-2,0
1480685830405131,2,1,1,-1,0,0,0,0
1480685830413156,1,10,0,-3,-2,0,1,-1
1480685830413156,-1,1,0,4,1,-2,-1,-1
1480685830420672,-1,-1,-1,5,0,0,-3,0
1480685830420672,-5,-7,1,-11,-1,-1,0,-2
1480685830421174,-12,-20,1,2,0,1,0,-1
1480685830421174,4,1,0,-6,1,0,1,0
1480685830443234,1,-1,2,-1,-1,0,1,3
1480685830443234,7,4,-6,8,-2,-2,-4,-2
1480685830450754,1,-1,1,-4,0,-1,0,0
1480685830450754,-3,2,2,1,0,-1,-2,-1
1480685830466294,-3,-2,0,-2,1,0,0,-1
1480685830466294,2,0,2,-7,-2,-1,0,2
1480685830466795,-11,-2,2,-2,-1,-1,-1,-1
1480685830466795,-8,-1,-2,-5,0,1,1,2
1480685830481334,9,1,-3,6,0,-1,-3,-2
1480685830481334,-3,-2,-1,0,1,-1,2,0
1480685830481835,8,5,0,1,0,0,1,1
1480685830481835,-4,-1,2,-3,-1,0,-1,-1
1480685830503895,-4,-1,0,1,0,2,2,0
1480685830503895,0,1,0,-3,-3,0,3,-1
1480685830510913,4,-6,-1,0,0,-2,-7,-3
1480685830510913,5,0,-2,5,3,0,1,0
1480685830527457,-3,1,-4,-2,-2,-1,1,0
1480685830527457,-7,-1,3,2,-2,-1,-1,-1
1480685830528464,11,1,-3,-3,-2,-2,0,0
1480685830528464,7,0,-2,0,-2,-1,-1,-1
1480685830548513,-1,-1,0,2,-1,-1,-1,-1
1480685830548513,-2,2,1,-3,0,0,0,-1
1480685830549516,0,-1,1,-5,-3,-1,-1,1
1480685830549516,4,-1,-2,-1,-2,-3,-2,1
1480685830563553,-19,-8,1,-1,0,1,1,0
1480685830563553,3,-5,-3,-1,-1,-1,-3,-3
1480685830565057,2,0,-1,1,-1,0,0,0
1480685830565057,-2,-3,3,0,-2,-3,-1,-1
1480685830588620,-3,-1,-1,5,-2,-1,-1,0
1480685830588620,3,1,2,-3,4,1,1,0
1480685830589622,-2,5,-1,3,-4,-1,1,1
1480685830589622,-1,-7,2,-3,1,1,0,0
1480685830608673,3,-1,0,3,-1,-2,0,-1
1480685830608673,0,-9,2,-3,-1,-2,1,1
1480685830609676,2,1,-3,0,2,0,-1,-2
1480685830609676,-2,3,-2,-1,-4,-2,-2,0
1480685830631233,1,-7,-2,-2,0,0,1,0
1480685830631233,-3,-1,-1,2,1,0,-1,1
1480685830632235,-2,0,-1,-1,1,-1,2,1
1480685830632235,1,0,1,-2,-2,0,0,-1
1480685830653793,3,3,-2,-4,2,0,-1,-1
1480685830653793,0,4,-4,-3,-3,-2,2,-1
1480685830654810,-6,-6,0,1,0,-1,-2,0
1480685830654810,-2,-2,-1,1,0,0,-1,-1
1480685830659809,-8,2,-1,1,-2,-2,-1,-2
1480685830659809,10,8,0,0,-2,-2,-4,0
1480685830667830,2,1,0,-3,5,0,0,-1
1480685830667830,-4,-10,-2,-2,-1,-1,1,0
1480685830682871,0,1,1,-1,0,0,2,0
1480685830682871,-5,1,-3,-1,-1,0,-2,-2
1480685830683873,2,4,-1,2,-1,-1,0,-1
1480685830683873,2,-3,-1,-1,1,1,-1,-1
1480685830714955,-2,-6,0,-3,-1,-4,0,-1
1480685830714955,0,8,-1,4,-1,0,1,-1
1480685830716459,3,-1,-3,-1,-2,-2,0,-1
1480685830716459,-3,6,1,-2,1,1,-2,-2
1480685830721473,-1,2,1,-1,0,0,-1,0
1480685830721473,-4,-7,-3,-1,1,-1,-1,0
1480685830728520,3,-2,-1,1,0,0,1,1
1480685830728520,0,0,-5,3,-2,-1,0,0
1480685830751052,4,6,0,-1,-2,1,0,-1
1480685830751052,-3,4,2,-1,-2,-1,-2,-2
1480685830751553,-8,-4,-3,-1,1,2,0,-1
1480685830751553,6,2,1,1,1,2,0,-1
1480685830766092,-6,-1,-1,-1,-2,0,-1,0
1480685830766092,10,0,-1,-2,-1,-1,-1,-1
1480685830767094,-3,1,4,1,-1,-1,-2,-2
1480685830767094,-4,-2,-1,6,-3,-3,0,-1
1480685830780129,4,-2,-3,-10,0,0,-1,0
1480685830780129,-1,-1,2,0,-1,0,1,3
1480685830788150,-6,1,-1,1,1,1,0,1
1480685830788150,-1,0,1,-4,0,0,1,-1
1480685830811213,-4,-2,2,7,0,-2,-1,0
1480685830811213,3,-4,-2,0,0,-1,-2,0
1480685830812215,-13,-4,-2,-2,-1,0,-1,-1
1480685830812215,4,2,-1,-5,-1,1,2,0
1480685830826252,-3,0,-1,4,-2,0,-2,-1
1480685830826252,1,-4,0,-5,-1,-1,1,0
1480685830832768,2,-2,0,2,-2,-2,0,-1
1480685830832768,-9,8,-3,2,0,-1,0,-2
1480685830841292,2,-3,-3,-8,0,2,0,0
1480685830841292,-3,1,0,4,-1,0,0,0
1480685830855830,5,-4,-2,2,-4,-2,-2,-1
1480685830855830,7,3,0,-4,-2,0,0,0
1480685830864354,-9,-10,2,3,3,-2,-2,-3
1480685830864354,-3,-4,-3,-5,-4,-1,-1,-2
1480685830865355,-3,3,-1,-4,1,0,1,-2
1480685830865355,1,-5,1,6,-1,-1,-2,-2
1480685830886913,6,2,-2,-1,-4,-1,-1,0
1480685830886913,-4,1,2,1,2,1,-1,-1
1480685830887414,2,-3,-2,-2,-2,-1,-1,0
1480685830887414,-2,0,1,0,0,3,-1,1
1480685830908470,4,-2,-2,-4,-2,-1,-1,1
1480685830908470,-4,-2,-2,3,3,1,-1,-1
1480685830909473,8,0,-3,0,1,0,3,0
1480685830909473,-1,-1,0,-2,-1,-1,-1,-2
1480685830938053,4,5,-1,-4,-1,-2,-2,-1
1480685830938053,-4,-3,-2,5,-3,-1,1,0
1480685830955095,1,-1,-1,-3,0,0,-6,-2
1480685830955095,1,0,-1,1,1,0,0,0
1480685830956598,6,1,1,-3,0,1,2,1
1480685830956598,0,-1,-5,-1,2,1,-3,-2
1480685830957601,2,10,-4,-10,-3,0,0,1
1480685830957601,5,0,-5,-3,-1,-3,-1,-1
1480685830969131,-12,-1,1,1,-1,-3,-1,-2
1480685830969131,-2,3,3,-1,-1,-1,0,1
1480685830975649,2,3,-2,0,-1,0,0,1
1480685830975649,0,-3,-1,0,1,-1,-1,-2
1480685830982668,0,1,-1,-4,-1,-1,0,-2
1480685830982668,1,-1,0,-4,-2,0,1,-1
1480685830998209,-3,-5,-1,2,-3,-1,0,1
1480685830998209,0,2,1,-4,-2,-2,-2,-1
1480685831005728,-8,-9,-1,1,-1,-1,0,-1
1480685831005728,-11,-3,1,3,1,-1,-2,1
1480685831006230,-3,-5,-1,4,-1,-2,-2,-2
1480685831006230,-3,-4,-2,0,-1,-1,2,2
1480685831028791,8,2,-1,0,2,0,-2,0
1480685831028791,-3,1,0,-2,-1,-2,-2,-3
1480685831029292,4,-3,4,1,2,0,-1,0
1480685831029292,-2,-3,-2,-5,-3,-1,-2,-2
1480685831044332,6,1,0,8,4,1,2,1
1480685831044332,2,2,-1,-8,-3,-2,-3,-2
1480685831050347,-4,-5,2,1,0,1,1,0
1480685831050347,-1,-2,-1,1,1,2,0,0
1480685831065387,0,3,1,0,-1,0,-1,0
1480685831065387,-1,-1,-1,1,1,0,1,2
1480685831066390,4,7,-1,1,2,0,1,0
1480685831066390,-4,-7,2,-2,0,0,-2,0
1480685831088450,1,2,-4,1,-1,-2,1,1
1480685831088450,5,0,0,2,0,0,1,0
1480685831095467,-10,-24,3,1,-2,-1,0,-1
1480685831095467,-6,-1,0,-2,0,1,0,-1
1480685831111572,-4,-2,0,-2,-1,0,-3,0
1480685831111572,2,-3,-2,-1,-2,-1,1,-1
1480685831112513,5,6,0,-1,-1,-1,0,0
1480685831112513,0,1,-3,0,-2,-1,1,-1
1480685831125548,-5,0,1,-1,0,-1,-2,0
1480685831125548,5,3,0,-4,-2,-1,-1,0
1480685831126550,-11,1,-1,6,-1,-1,0,-1
1480685831126550,10,1,-2,1,3,1,-1,1
1480685831148610,3,4,-1,-1,-4,-1,-3,1
1480685831148610,-8,-3,-1,2,0,2,0,2
1480685831149611,2,1,-4,-3,-3,-1,0,-1
1480685831149611,-4,-2,0,1,-1,-3,-1,0
1480685831163148,2,0,0,2,0,-1,2,0
1480685831163148,1,2,-1,1,1,0,0,0
1480685831163649,3,0,0,-2,-2,-1,-3,-1
1480685831163649,2,-1,-1,-6,-2,0,1,-3
1480685831186209,0,-1,-1,8,0,0,1,0
1480685831186209,1,0,0,-3,0,0,2,0
1480685831186711,-4,-5,-3,-3,-1,-2,-3,-1
1480685831186711,5,5,-3,-4,-2,-4,2,-1
1480685831208768,1,-10,-1,-2,-2,-1,0,-1
1480685831208768,8,6,0,4,1,-1,-1,0
1480685831209270,4,4,0,1,2,1,-3,-1
1480685831209270,-14,-6,3,0,-2,-1,-1,-1
1480685831224310,-1,-4,-4,0,0,1,-1,-3
1480685831224310,-4,-21,-3,-8,-4,-3,-1,0
1480685831226315,5,1,0,-5,0,-1,0,1
1480685831226315,-2,0,2,1,2,3,-1,1
1480685831245870,-2,3,0,-2,2,0,0,0
1480685831245870,3,0,-2,-1,0,-2,-1,-2
1480685831246369,-5,0,0,-3,-4,-1,-1,-3
1480685831246369,0,-2,2,-1,-1,-1,-1,2
1480685831268929,5,2,-3,3,-1,-1,2,0
1480685831268929,-6,-3,-2,4,0,-1,-1,-4
1480685831269931,1,0,-1,-2,-1,-1,-3,-2
1480685831269931,-1,1,-3,-1,2,1,-1,0
1480685831290988,-4,1,2,-7,-3,-1,-4,-1
1480685831290988,1,3,-2,2,-1,-1,2,0
1480685831291990,-4,-1,-2,0,1,-1,0,-2
1480685831291990,2,-2,-1,3,0,1,-1,-1
1480685831305526,11,7,-3,-3,-2,-1,1,1
1480685831305526,-9,-7,-1,0,0,0,-2,-2
1480685831306528,2,-1,-1,-2,-4,-2,-1,-2
1480685831306528,0,2,-2,-3,-4,-2,-1,0
1480685831329590,-10,-10,3,3,3,1,-1,-1
1480685831329590,12,4,-1,-2,-1,0,-2,-3
1480685831331094,2,-1,2,4,2,1,0,1
1480685831331094,-2,-6,-3,0,-2,-2,0,2
1480685831343126,-10,-4,1,0,1,-1,-1,-2
1480685831343126,0,5,2,-1,-1,0,-3,1
1480685831343628,0,0,2,0,1,0,1,1
1480685831343628,1,1,-3,-2,-2,-1,-3,-3
1480685831365686,-13,-2,2,-2,-1,-1,1,-2
1480685831365686,2,1,2,0,0,-1,0,1
1480685831366187,3,11,-2,-3,-2,-2,-3,0
1480685831366187,-1,-3,1,1,2,1,4,1
1480685831388246,5,5,-1,-2,-2,-2,-4,-2
1480685831388246,-1,1,-3,0,-1,-1,1,-2
1480685831389249,1,5,0,-2,1,-1,1,-1
1480685831389249,-1,1,-2,8,0,0,-2,2
1480685831419831,1,-4,0,2,-3,-1,1,-1
1480685831419831,2,-3,-2,-9,-1,-1,-2,-1
1480685831420833,-2,-5,-1,-1,0,-1,-2,-3
1480685831420833,0,5,2,-2,0,0,0,-1
1480685831442390,2,-6,-1,5,-1,-1,0,-1
1480685831442390,-2,2,2,0,-1,1,1,0
1480685831443393,-3,-4,-1,-2,-3,-1,1,0
1480685831443393,-1,1,-1,-3,0,-1,0,0
1480685831464448,2,6,-4,-3,0,0,-2,-1
1480685831464448,3,-4,0,2,2,1,-3,-2
1480685831465452,-6,-4,-1,0,0,0,1,-1
1480685831465452,-4,-4,3,3,1,-2,-2,-3
1480685831466957,-1,-1,-1,-4,-2,-1,-2,0
1480685831466957,3,0,0,1,-1,-1,2,1
1480685831501547,2,-2,-1,0,2,-1,0,2
1480685831501547,0,-3,-3,-1,-3,-2,-2,-2
1480685831503051,-10,-25,7,0,2,3,0,0
1480685831503051,-13,2,1,-1,-2,-1,-1,-3
1480685831510071,-3,-8,-2,1,-3,-1,2,-1
1480685831510071,0,2,1,-1,2,0,3,-1
1480685831512577,8,6,-3,-3,0,-2,-3,-2
1480685831512577,-6,-1,-1,4,-3,-2,-2,1
1480685831513579,-2,0,-2,6,0,-1,0,-1
1480685831513579,-1,-3,-4,0,-3,-3,-1,-1
1480685831523104,11,9,-1,2,1,0,2,2
1480685831523104,-3,-4,-1,-3,2,0,1,0
1480685831523605,7,3,0,-2,0,0,0,2
1480685831523605,1,-1,1,1,-1,-2,-2,-3
1480685831545665,-17,2,0,1,-2,-1,-1,-2
1480685831545665,6,1,-4,-4,-1,-1,-4,1
1480685831546167,-8,-4,-2,-1,1,1,-2,-1
1480685831546167,2,2,0,-3,-2,0,3,0
1480685831568727,3,0,-1,-2,-2,1,-1,1
1480685831568727,4,2,-2,1,-2,-2,1,-2
1480685831569729,4,-5,2,-1,-1,-1,-1,-1
1480685831569729,-8,-5,-1,0,2,-1,-1,-2
1480685831582261,-3,6,-2,3,0,-1,1,-1
1480685831582261,-5,-4,-1,-6,0,0,1,-1
1480685831590785,1,2,0,-1,-3,-1,0,2
1480685831590785,3,0,-1,-4,1,1,-3,0
1480685831605323,-8,-6,0,-1,-1,-1,1,-2
1480685831605323,6,0,0,1,-1,-3,-2,-2
1480685831613349,-5,-1,1,0,1,2,4,0
1480685831613349,0,0,-3,3,-1,-2,-4,0
1480685831628886,10,2,-2,-5,1,0,-1,-1
1480685831628886,-17,-5,-1,1,0,1,-1,-1
1480685831629387,-1,1,-3,-2,-1,0,0,-1
1480685831629387,1,0,1,-3,0,-1,1,0
1480685831642422,2,-2,0,-3,2,0,0,1
1480685831642422,0,-1,0,-1,-2,-1,-1,0
1480685831658464,1,6,-2,-2,-1,-2,-1,0
1480685831658464,0,2,-4,-3,-3,-1,-2,-1
1480685831673505,3,6,1,2,1,0,-1,-1
1480685831673505,-2,-3,0,-1,2,1,-1,-1
1480685831674507,-3,-1,-1,7,1,0,0,-2
1480685831674507,6,2,-3,-4,-4,-3,-1,-2
1480685831696064,-5,0,-3,7,-1,-1,0,0
1480685831696064,10,3,3,-5,-2,-1,2,1
1480685831696566,-1,-2,1,7,-1,-1,-2,-1
1480685831696566,1,-2,-2,-4,0,0,0,1
1480685831742689,3,1,-3,0,-1,0,-2,0
1480685831742689,9,4,-3,3,-2,-2,0,3
1480685831743191,-13,-3,0,-7,-1,-2,-2,-4
1480685831743191,1,3,2,1,0,1,-1,0
1480685831745198,-2,-8,-1,-2,-1,0,0,-1
1480685831745198,5,1,-6,-5,-2,-1,1,2
1480685831748705,7,3,1,-5,-1,-2,-1,1
1480685831748705,-4,-6,2,-3,1,-1,-1,0
1480685831764246,-3,-1,-2,3,-2,-2,-1,-2
1480685831764246,1,-1,0,2,1,1,0,0
1480685831765248,5,13,-6,-6,-3,-1,2,-1
1480685831765248,-4,-4,1,4,4,2,-6,-2
1480685831766752,-2,5,-2,-6,-2,-2,-2,-2
1480685831766752,-7,-5,2,-1,0,-1,-1,-1
1480685831770763,0,-3,-3,-1,-4,-3,1,1
1480685831770763,1,3,-2,-2,-4,-1,1,0
1480685831785803,2,0,1,-2,4,-1,-2,-1
1480685831785803,-2,3,2,1,1,0,-1,-1
1480685831787308,-6,-6,-2,5,-2,0,-3,-2
1480685831787308,4,3,-1,2,-2,-1,0,1
1480685831808362,1,-4,1,0,1,0,1,0
1480685831808362,-5,-5,1,-2,-1,-1,-1,-2
1480685831815381,-4,-1,1,5,2,-2,-2,-1
1480685831815381,-5,-6,0,0,0,1,3,-1
1480685831822400,-1,1,-3,-6,-4,-2,0,0
1480685831822400,-2,-4,1,3,0,-1,0,0
1480685831837941,6,-2,4,1,0,1,-2,2
1480685831837941,-4,-2,0,-3,-1,-1,1,-1
1480685831845461,1,0,0,8,-1,-1,0,-1
1480685831845461,1,-1,-2,1,0,-2,-2,-2
1480685831846465,4,-1,-1,-3,-1,0,0,-2
1480685831846465,-3,2,1,0,-2,-2,0,0
1480685831868522,9,2,3,-7,-2,0,0,-1
1480685831868522,-13,-4,1,1,1,-1,-1,-2
1480685831869526,0,3,-2,0,-1,-2,0,0
1480685831869526,-1,-2,-3,-1,1,1,-1,-1
1480685831891584,-1,-7,-2,-2,2,0,0,0
1480685831891584,6,5,-2,1,-3,0,0,1
1480685831892587,-2,-5,0,-3,1,-1,0,-1
1480685831892587,1,12,0,-3,-1,0,1,-2
1480685831905623,1,-3,1,-2,-2,-1,1,1
1480685831905623,-9,0,-1,0,-1,-1,-5,-4
1480685831906123,2,-3,0,-3,1,0,-1,1
1480685831906123,-3,-2,-1,4,-1,-1,-1,0
1480685831928689,4,5,-1,-5,-4,0,6,1
1480685831928689,6,-1,1,1,-1,0,1,1
1480685831929190,-9,-1,0,1,0,0,-1,-2
1480685831929190,-1,-4,0,-7,0,0,0,1
1480685831960273,0,4,-2,-3,-2,0,-2,0
1480685831960273,3,2,0,-3,-1,-1,1,1
1480685831961281,3,1,-1,2,1,0,-1,0
1480685831961281,0,-1,0,-4,1,0,0,-1
1480685831973307,-4,-4,-3,5,-2,-2,-3,-1
1480685831973307,1,5,-2,-6,-1,-1,-1,0
1480685831974310,-3,-4,-1,-1,-1,0,1,0
1480685831974310,-2,-5,-1,4,1,0,0,1
1480685831995867,6,0,2,-3,-1,-1,-1,-2
1480685831995867,-3,-2,-1,-1,0,-1,-1,-1
1480685831996871,1,2,-1,-4,-2,-1,-1,-1
1480685831996871,-4,-9,0,2,2,0,-1,0
1480685832018930,2,3,-2,1,-1,-1,-2,0
1480685832018930,-1,-17,-2,2,1,0,0,-1
1480685832019931,-2,-2,3,-1,1,2,0,-1
1480685832019931,2,1,-2,1,-2,-2,4,1
1480685832042994,-2,2,0,0,1,-1,-3,1
1480685832042994,0,3,0,0,-1,0,0,-2
1480685832043494,-1,-2,-2,-7,-1,0,-1,-3
1480685832043494,7,16,-3,8,-2,-2,-2,-1
1480685832049510,-8,-5,1,2,1,1,-1,-2
1480685832049510,2,1,-1,-4,0,1,1,1
1480685832050012,-8,-1,0,-4,-2,-2,0,-2
1480685832050012,-2,0,-2,0,0,-1,-1,-3
1480685832071068,-1,-3,0,-1,1,0,0,-1
1480685832071068,1,6,-1,1,-2,-1,-1,0
1480685832072070,6,2,0,-1,-2,1,1,1
1480685832072070,-3,-7,-3,8,1,-1,-2,-1
1480685832085606,-4,-2,1,-2,-4,-2,-4,-2
1480685832085606,-1,-5,-2,-4,-1,1,0,-1
1480685832086107,-5,2,-1,1,2,-1,-1,-1
1480685832086107,1,-7,1,-5,-1,-1,-1,0
1480685832108667,4,3,-1,-4,-1,-1,0,2
1480685832108667,-6,-2,3,5,0,-1,-2,0
1480685832109671,-1,-4,-2,-2,0,-1,3,0
1480685832109671,6,3,-1,-3,-2,2,-3,1
1480685832131227,-2,-6,0,2,1,2,0,-2
1480685832131227,11,4,2,-1,-2,-2,1,-1
1480685832132230,-2,0,-2,1,0,0,0,0
1480685832132230,-6,-6,1,-3,-1,-1,0,-1
1480685832145766,-3,-2,2,3,4,2,1,1
1480685832145766,-3,-1,-2,2,-1,0,0,0
1480685832146267,5,-4,-3,-1,-1,-2,-1,-1
1480685832146267,-1,1,2,-3,-2,-1,-1,1
1480685832168828,-8,2,1,-2,-3,-2,-3,-3
1480685832168828,-2,-1,-5,-3,-1,-1,-2,-1
1480685832169328,1,2,-2,3,1,-1,-1,0
1480685832169328,-3,-5,2,-4,-2,-3,-1,0
1480685832191889,0,4,0,-1,1,1,2,1
1480685832191889,-2,-7,-3,-2,-2,-1,-2,-1
1480685832192891,2,3,0,3,-1,0,-2,0
1480685832192891,7,1,0,-5,-1,0,0,-2
1480685832205425,0,-3,1,3,-1,-2,0,0
1480685832205425,-5,-1,-1,-7,0,-1,1,-2
1480685832259068,3,-2,-3,-2,-2,0,3,0
1480685832259068,6,3,-1,2,1,0,-1,0
1480685832260572,-7,-5,-1,-1,0,0,0,-1
1480685832260572,2,0,-2,6,-1,-3,-2,1
1480685832275110,-1,-7,-1,2,0,-1,-3,-1
1480685832275110,-8,-1,0,-8,-2,-1,1,0
1480685832276615,3,-8,1,1,0,1,-1,-2
1480685832276615,-9,4,1,4,5,1,-1,0
1480685832277617,4,1,-4,-5,-3,-3,-3,-1
1480685832277617,2,1,3,-1,-1,0,2,0
1480685832296667,-9,-6,-4,0,0,-3,0,-1
1480685832296667,-2,2,1,0,1,0,1,1
1480685832310203,-1,0,-5,-1,-2,-1,-1,0
1480685832310203,3,2,2,-1,0,2,-1,-1
1480685832320229,4,6,-1,-1,-1,-1,-1,0
1480685832320229,-1,-2,-2,-4,-2,-1,-2,-2
1480685832321734,-1,1,2,-3,1,-2,-1,0
1480685832321734,1,2,-2,4,-2,-1,1,1
1480685832322737,2,3,1,-11,-1,1,-2,0
1480685832322737,0,-5,-1,6,1,0,1,1
1480685832327751,5,1,-2,5,1,1,-5,-2
1480685832327751,-3,0,0,-9,-1,-1,0,-2
1480685832340785,3,3,2,5,2,2,2,1
1480685832340785,-4,-1,-2,-8,-1,1,-1,-3
1480685832348807,-4,-4,-3,4,-1,-3,2,2
1480685832348807,0,-6,2,2,0,1,2,1
1480685832349307,-1,0,1,2,-1,-1,-1,-2
1480685832349307,0,0,0,3,-1,-1,0,-3
1480685832371365,-3,1,1,-2,-1,0,1,0
1480685832371365,6,1,-3,-1,-1,-1,-2,-1
1480685832371867,-5,-2,2,0,-1,-1,1,-1
1480685832371867,-3,-2,-2,1,-3,-1,-1,-1
1480685832385404,0,-1,-1,-5,-2,0,1,0
1480685832385404,7,0,-3,8,0,-1,-1,2
1480685832386405,-10,0,-1,0,-1,-1,-3,-2
1480685832386405,-2,2,-1,4,-1,-1,-4,1
1480685832409477,-5,-4,-2,-11,-1,-1,5,-1
1480685832409477,4,1,-1,-2,-1,-2,-1,0
1480685832409970,6,-4,-1,1,3,1,-1,2
1480685832409970,-1,-5,-2,2,-1,-1,-1,-1
1480685832431529,-8,2,1,3,0,0,-1,-2
1480685832431529,-7,-1,0,-1,2,0,0,0
1480685832432029,1,-3,-3,3,-1,0,-1,-1
1480685832432029,3,3,-1,-4,-1,-1,-1,-1
1480685832445564,2,3,0,-2,0,0,0,0
1480685832445564,-2,-6,0,-1,-1,-3,-2,-1
1480685832446567,-3,-3,0,-6,-2,-1,-2,-1
1480685832446567,3,1,-1,-5,-1,-3,2,0
1480685832491188,1,-1,0,4,2,0,0,0
1480685832491188,-1,1,1,0,-1,0,-1,0
1480685832507728,6,4,-5,3,-1,-2,-1,0
1480685832507728,-7,-8,2,-5,0,1,1,-3
1480685832509232,4,-3,0,-2,1,-1,-2,-1
1480685832509232,4,2,-2,-1,-1,0,2,1
1480685832509735,-2,-3,-1,-1,-1,-2,-1,-3
1480685832509735,5,3,1,3,0,-1,-1,0
1480685832529787,3,-3,1,0,-1,2,-1,0
1480685832529787,-6,0,-1,-1,-2,0,-1,-1
1480685832531292,2,3,-2,0,-2,-3,-2,1
1480685832531292,1,-3,-2,-8,-1,-1,-2,-1
1480685832535803,5,1,0,-1,-1,-2,-1,0
1480685832535803,-4,-3,0,2,-1,0,1,-2
1480685832558865,-5,-4,-2,1,-2,-1,-2,-1
1480685832558865,-3,-3,-1,2,1,-1,0,0
1480685832559366,-2,1,2,-2,-1,0,0,0
1480685832559366,1,3,2,3,-1,0,3,1
1480685832573904,2,2,-4,3,-5,-2,-1,1
1480685832573904,-4,0,-2,-4,2,1,-3,-2
1480685832574406,-3,-5,2,-1,2,0,0,-1
1480685832574406,1,1,0,6,-1,2,-1,-1
1480685832596464,0,7,-2,-9,-1,1,1,-2
1480685832596464,-6,-8,1,5,0,0,0,1
1480685832596967,11,-1,-1,-3,-1,-1,2,0
1480685832596967,-11,-1,0,-4,0,-2,-2,-1
1480685832618528,-6,-1,0,5,1,-1,-1,-3
1480685832618528,5,6,-2,-1,-2,-1,1,-1
1480685832619526,0,0,-1,-2,-3,-1,-2,0
1480685832619526,-1,-2,0,0,1,0,0,2
1480685832625040,4,-11,1,-2,-1,2,-1,-1
1480685832625040,7,2,0,1,-1,1,-1,-1
1480685832633065,-8,0,1,0,-1,0,0,1
1480685832633065,4,-2,-2,3,0,-1,-1,-1
1480685832648103,-2,-1,-1,1,-1,0,-2,-1
1480685832648103,-2,0,-4,-9,-3,-1,2,0
1480685832648604,-8,-9,1,2,0,0,-1,-2
1480685832648604,2,2,1,-3,-1,1,-1,-3
1480685832671163,0,3,0,11,0,-3,3,1
1480685832671163,-3,0,1,-2,-1,-3,0,1
1480685832672166,-1,1,-3,-3,-1,-1,-1,-1
1480685832672166,-4,-6,0,-1,-1,-2,0,0
1480685832684703,1,-2,1,0,-1,2,-1,1
1480685832684703,-2,4,4,1,2,0,1,-2
1480685832693222,-2,0,-2,-4,0,0,-2,0
1480685832693222,0,0,-4,-2,-3,-3,-2,-2
1480685832708262,-9,-10,0,-4,1,-1,0,-1
1480685832708262,-1,4,-3,3,-1,-1,-2,-1
1480685832708763,6,2,3,-5,-1,2,1,0
1480685832708763,3,0,1,1,0,0,0,1
1480685832731336,-19,-2,-3,1,1,-1,-2,-2
1480685832731336,2,-1,-2,-13,-2,0,3,1
1480685832731824,2,1,0,0,-1,0,0,-1
1480685832731824,3,8,-5,2,-1,-1,-3,0
1480685832745360,2,-6,1,-4,-1,-1,-2,-2
1480685832745360,-4,-5,1,7,1,-1,-1,0
1480685832753883,4,-1,-4,4,-1,-1,1,1
1480685832753883,-2,-2,0,-2,0,1,1,0
1480685832776945,2,5,-1,-8,-2,-2,-2,-1
1480685832776945,-4,-1,1,4,1,0,-1,-1
1480685832778450,-1,2,-2,-3,0,-3,-3,0
1480685832778450,-3,-4,1,1,0,-1,2,-1
1480685832805520,6,5,3,-1,1,4,0,0
1480685832805520,0,-2,-3,5,-1,-1,-2,0
1480685832815048,-5,-17,2,1,2,1,0,0
1480685832815048,4,3,-3,0,-3,-2,-1,0
1480685832816550,0,-1,0,-5,-1,-2,1,-1
1480685832816550,7,0,2,4,-1,1,-2,-1
1480685832817553,-2,7,-2,-7,-1,-2,-1,0
1480685832817553,-6,-3,3,1,0,1,-1,0
1480685832853148,-7,-4,-6,-5,-2,-3,0,-1
1480685832853148,1,4,2,-3,-1,1,-1,-2
1480685832854150,-5,-3,-3,-2,-2,-2,0,1
1480685832854150,2,-1,1,1,3,1,1,-1
1480685832875206,12,3,0,-4,-2,0,-2,2
1480685832875206,-6,-3,-2,3,1,-2,-1,0
1480685832875707,-3,3,3,-1,-2,0,1,-2
1480685832875707,-2,0,0,1,1,-1,0,-1
1480685832876710,-2,2,0,2,-2,0,-1,0
1480685832876710,-1,-7,-1,-7,-2,-3,1,-1
1480685832877714,1,1,0,5,0,-2,-2,-1
1480685832877714,1,2,-1,-4,0,-1,-2,1
1480685832888240,1,1,0,1,1,-2,5,0
1480685832888240,-2,-2,-2,3,-1,0,-2,-1
1480685832888742,-1,1,0,-1,-2,-1,0,-3
1480685832888742,-3,-2,0,-4,1,-1,-1,1
1480685832911304,12,0,-5,2,0,-2,-1,0
1480685832911304,-8,-6,1,-2,-2,-1,-1,-1
1480685832912308,-3,-2,-1,-4,1,1,-1,0
1480685832912308,5,1,-1,-2,0,-1,-2,1
1480685832933862,10,-1,0,4,0,0,-1,-1
1480685832933862,-5,2,-1,0,-1,-1,0,-1
1480685832934363,6,4,0,1,0,0,1,0
1480685832934363,1,-4,-2,-1,-1,-2,0,1
1480685832947904,-8,-9,2,-3,0,0,1,-2
1480685832947904,-5,-1,1,4,1,0,-1,-1
1480685832948906,-2,-7,-1,0,-2,-1,0,0
1480685832948906,-1,-3,1,0,-2,-1,-1,0
1480685832970960,1,2,-1,2,0,-3,-1,1
1480685832970960,1,1,-3,-3,-3,1,-1,0
1480685832971963,0,1,2,-1,-1,-1,0,0
1480685832971963,-2,-2,-2,-6,0,1,-1,-2
1480685832994022,-3,0,-2,6,1,0,-1,-1
1480685832994022,-1,-2,-4,-5,0,0,1,1
1480685832995024,-2,-1,-1,0,-1,0,2,1
1480685832995024,2,-4,-1,2,-2,-1,-9,-2
1480685833008059,-4,3,1,0,-1,0,-2,0
1480685833008059,3,-2,1,-8,-1,-2,-1,-2
1480685833008561,-2,0,1,1,-1,-1,-1,-1
1480685833008561,-9,-2,-2,0,1,1,3,0
1480685833031124,6,-2,-3,-1,-2,-2,-3,-2
1480685833031124,1,6,-1,3,0,-3,-2,-2
1480685833033126,-1,2,-1,-1,-1,-1,-1,0
1480685833033126,-8,-3,3,0,-3,0,2,-2
1480685833060198,8,3,0,-1,2,1,-1,1
1480685833060198,-7,-6,2,-2,-1,2,1,0
1480685833082762,-1,-7,-7,2,2,1,-2,-2
1480685833082762,2,3,-1,3,0,1,1,1
1480685833108325,-5,0,-2,-5,-3,0,0,0
1480685833108325,1,1,0,-1,-2,-1,-1,0
1480685833109332,-3,3,0,-2,0,-1,-3,-1
1480685833109332,0,0,-1,2,1,1,5,-3
1480685833114849,-8,-2,-1,-3,-1,0,0,0
1480685833114849,5,4,-2,-1,1,0,1,1
1480685833115849,1,3,1,3,-1,-1,-1,0
1480685833115849,-3,-2,1,-3,-3,-2,0,-1
1480685833116848,-1,0,2,2,-2,-2,-2,-2
1480685833116848,4,-1,-1,-1,-1,-1,-1,0
1480685833117350,1,2,1,-2,1,0,1,3
1480685833117350,-14,1,-2,0,-2,0,-1,-1
1480685833129382,-6,-2,-1,-5,2,1,-1,0
1480685833129382,6,-1,-2,3,1,-1,-2,0
1480685833130386,4,1,-1,-11,-3,-1,-1,-2
1480685833130386,-8,-9,1,4,0,1,-1,0
1480685833151442,-1,-3,-9,6,-4,-2,1,1
1480685833151442,-2,3,2,-1,1,0,2,-1
1480685833152444,-3,-1,1,8,3,1,-7,-3
1480685833152444,3,-3,-4,-11,-2,-4,-3,0
1480685833174000,3,1,2,-4,0,2,-1,0
1480685833174000,-1,-4,0,0,-3,-1,-1,2
1480685833174502,1,2,0,-1,2,0,1,1
1480685833174502,5,2,0,1,-3,-1,-2,0
1480685833187536,-5,-1,3,0,0,-2,-2,-1
1480685833187536,3,2,-1,-1,1,0,1,0
1480685833195559,1,1,-1,-2,-1,-1,2,-3
1480685833195559,2,4,-1,-4,0,-1,-2,0
1480685833211102,1,-4,-2,5,-2,-1,1,0
1480685833211102,4,-3,-1,-1,-2,1,-1,-2
1480685833212102,5,-2,-2,-2,-2,-1,1,-1
1480685833212102,-7,3,-1,4,-2,-3,-1,-3
1480685833241681,-10,-9,4,-6,2,1,2,-1
1480685833241681,1,1,-1,1,1,-1,-2,-1
1480685833242685,-1,-1,-6,-1,1,0,-1,0
1480685833242685,4,-3,-1,-1,-1,-1,0,-1
1480685833248198,10,6,1,-5,1,-1,-2,-1
1480685833248198,-13,-22,2,-1,-1,0,1,0
1480685833248700,-6,-5,2,-8,-2,-1,0,1
1480685833248700,4,0,-3,0,-1,-1,3,0
1480685833308860,8,10,-2,2,0,-1,-3,1
1480685833308860,3,5,0,2,-1,1,-2,0
1480685833309862,-5,-6,-1,1,-2,1,0,-2
1480685833309862,5,0,-1,-1,0,2,-1,-1
1480685833339440,-8,-1,0,2,-4,-3,-1,-3
1480685833339440,-1,3,-3,-1,0,1,1,-1
1480685833362501,2,-3,2,2,1,0,1,2
1480685833362501,-4,-2,0,2,1,0,-5,-2
1480685833364007,0,0,1,-4,-1,0,1,1
1480685833364007,-4,-1,-4,6,-2,-3,-1,-1
1480685833369519,-21,-5,0,0,1,2,-2,-1
1480685833369519,9,4,2,-9,0,-1,1,0
1480685833370021,-5,-2,0,3,-1,-1,-1,-2
1480685833370021,-2,-3,-4,-6,-5,-2,-2,-1
1480685833371024,4,-2,-6,6,2,-1,-8,-3
1480685833371024,-1,0,-2,-3,-3,-2,1,-1
1480685833371525,-1,-1,1,2,1,-2,0,-1
1480685833371525,1,0,4,2,3,1,0,1
1480685833391077,2,-2,-1,-11,-1,-1,2,0
1480685833391077,1,-4,1,0,-3,-1,-1,1
1480685833392080,-1,5,-2,0,1,0,-2,0
1480685833392080,-2,1,-1,4,-1,0,3,1
1480685833412639,-6,-4,0,6,-2,1,0,-1
1480685833412639,6,2,-4,1,2,-2,-2,-2
1480685833421659,0,-16,3,-7,0,0,2,1
1480685833421659,-4,2,0,4,-1,-2,0,-1
1480685833428176,7,-2,1,-1,-1,0,-7,-1
1480685833428176,-4,-2,-1,-3,0,0,0,-1
1480685833428678,2,1,-1,3,-1,-1,0,-1
1480685833428678,-4,-2,-5,-7,-1,-4,-2,-1
1480685833458758,8,0,3,3,-1,-1,4,1
1480685833458758,-10,-2,-1,-3,-1,-1,-3,-1
1480685833459761,2,6,0,7,-1,2,0,1
1480685833459761,4,-6,0,-15,0,1,-2,-2
1480685833473799,6,15,-5,11,0,-3,0,2
1480685833473799,-2,-1,0,-2,-3,-1,-2,0
1480685833474800,1,1,-1,-2,-2,-1,1,-2
1480685833474800,-18,-1,2,0,-3,0,-1,-1
1480685833496358,-1,0,-3,-4,-2,0,1,-1
1480685833496358,0,1,1,-4,-2,0,0,1
1480685833496859,5,0,0,2,0,-2,-1,1
1480685833496859,0,3,-2,0,1,0,-2,1
1480685833511399,5,-5,-1,-2,-1,-1,-1,-3
1480685833511399,2,1,-3,5,1,-3,1,-2
1480685833511900,-2,-4,-1,-5,-3,0,1,-1
1480685833511900,4,5,2,0,0,1,0,0
1480685833549001,-2,-6,3,-5,0,0,-8,-3
1480685833549001,-2,4,-2,0,0,1,1,0
1480685833550000,8,-2,-5,3,1,-1,-3,-1
1480685833550000,2,-1,1,0,-2,-1,-2,0
1480685833577574,1,3,2,-1,1,2,3,1
1480685833577574,-7,-6,-4,7,2,-1,0,-2
1480685833600133,-3,2,-1,-10,-2,-2,-1,-1
1480685833600133,4,-3,-3,7,0,-3,-1,1
1480685833625701,0,-2,0,-7,0,1,2,3
1480685833625701,0,2,5,1,3,1,4,-1
1480685833626705,-4,-11,-4,7,-2,-2,2,-1
1480685833626705,-1,-3,-2,-5,1,0,0,-3
1480685833640240,1,0,0,3,-1,-1,0,1
1480685833640240,3,4,1,-4,-2,0,-1,1
1480685833640741,-4,-2,-3,-3,0,0,0,-1
1480685833640741,4,-4,0,-2,-3,-2,-3,-1
1480685833641744,-4,-1,2,1,0,0,1,-3
1480685833641744,-6,3,2,0,0,0,1,1
1480685833642245,7,2,-4,-7,-4,-2,-8,-3
1480685833642245,-4,1,1,-7,-1,-1,0,0
1480685833661298,-4,-3,0,5,-1,0,0,0
1480685833661298,-13,-6,-2,-1,3,1,0,-2
1480685833661799,-1,2,1,0,2,-1,-1,-1
1480685833661799,-10,-4,-2,2,2,-1,-1,0
1480685833667314,4,2,1,-5,-3,-4,0,-1
1480685833667314,1,-4,-2,-1,-1,-1,-3,1
1480685833682854,-6,10,-1,-1,0,-1,-1,-2
1480685833682854,2,-7,0,-1,0,2,-2,0
1480685833690375,-7,-1,-1,5,-2,-1,1,-1
1480685833690375,7,-2,-1,-6,0,-1,-1,-1
1480685833705413,2,0,-2,-3,-1,-1,0,1
1480685833705413,1,0,-2,1,-4,-2,-1,-1
1480685833713938,-3,-1,-2,0,4,1,0,1
1480685833713938,1,2,2,-2,-1,1,1,1
1480685833714439,-4,-12,-1,5,-2,1,0,-2
1480685833714439,0,2,1,0,1,0,3,3
1480685833727475,1,-3,-1,3,-3,-1,2,0
1480685833727475,2,0,-6,-9,-1,-2,-9,-2
1480685833735493,4,-1,2,-2,0,0,-1,1
1480685833735493,-14,-2,2,-1,-1,0,0,-3
1480685833751536,4,1,-3,5,1,-2,1,0
1480685833751536,3,1,-4,2,-1,-1,1,0
1480685833752539,3,4,0,1,-1,0,0,-1
1480685833752539,8,1,-1,-4,-2,0,-2,1
1480685833773594,1,2,-1,-7,0,1,-1,1
1480685833773594,1,3,1,1,-2,1,-1,0
1480685833774597,-7,-5,-3,-3,0,-3,0,-1
1480685833774597,1,-2,-1,1,1,-1,0,1
1480685833787131,-3,-5,-3,-1,1,-1,-1,-3
1480685833787131,2,4,2,2,0,-2,1,2
1480685833795654,-1,2,0,0,-1,1,2,1
1480685833795654,4,-3,-2,4,-2,-1,-1,0
1480685833817712,-2,4,1,-5,0,0,-2,1
1480685833817712,-10,-4,3,4,-3,0,-1,-2
1480685833832752,10,3,1,1,0,1,0,0
1480685833832752,-7,-3,-3,-8,1,-2,1,-3
1480685833842779,5,1,-1,0,-1,-1,0,0
1480685833842779,-13,0,-2,-1,-3,1,1,0
1480685833843781,-2,1,0,1,-2,-1,2,3
1480685833843781,7,-5,0,2,2,1,-2,-1
1480685833863834,-4,0,-1,-1,-3,-2,1,-1
1480685833863834,1,-5,-3,-5,2,-2,1,-2
1480685833864837,-3,-2,2,2,1,-1,1,-1
1480685833864837,0,4,-2,-1,0,0,-1,1
1480685833871856,5,-1,1,-7,0,2,-2,0
1480685833871856,2,-3,-2,16,-1,-2,-1,0
1480685833885392,-5,1,-1,-6,-2,-1,-1,0
1480685833885392,2,1,2,3,1,1,1,-1
1480685833895426,-4,-3,-1,3,-2,1,-1,-1
1480685833895426,3,-1,-2,-4,-2,-2,-2,0
1480685833895928,1,2,-1,-1,-2,1,0,0
1480685833895928,-1,0,-2,-2,-1,-1,-1,-2
1480685833916482,-9,-5,3,4,1,0,0,-1
1480685833916482,6,-3,2,-1,-1,-1,2,2
1480685833917496,-1,-6,-1,-2,-1,-2,-4,-2
1480685833917496,-12,-4,1,2,1,1,1,0
1480685833938544,2,-2,-2,-2,0,0,-2,-1
1480685833938544,8,4,-5,-2,-2,-2,-2,-2
1480685833939543,-2,-2,1,-1,-1,0,-1,0
1480685833939543,-1,-2,-2,-6,-6,-5,-2,-1
1480685833961103,-3,11,-4,4,2,1,1,-1
1480685833961103,-2,-3,4,-5,0,-1,3,0
1480685833962106,6,3,-3,-1,0,0,-3,-2
1480685833962106,1,2,0,4,0,0,-1,1
1480685833975139,-2,-5,-1,-9,-3,-2,-1,-2
1480685833975139,0,-3,-1,0,0,1,0,-1
1480685833983160,3,1,-2,-1,1,1,3,1
1480685833983160,5,0,1,-1,-4,-1,-1,1
1480685833990680,0,-3,-2,-6,-1,1,-2,-2
1480685833990680,-4,-1,-2,1,0,0,1,-2
1480685833991181,-3,-6,-1,-6,-1,-2,-1,0
1480685833991181,2,3,-1,2,1,-1,-3,0
1480685834012740,-2,-1,-1,-1,-2,-1,-1,-1
1480685834012740,-1,0,0,1,0,1,-2,1
1480685834020760,1,3,-1,2,2,2,0,-2
1480685834020760,-4,3,-2,0,0,0,0,-3
1480685834035799,-4,-8,-1,-1,-2,-1,1,1
1480685834035799,1,-5,-3,3,-1,-3,-2,-2
1480685834036802,-11,-4,-2,0,-1,-1,-2,-2
1480685834036802,7,2,-1,-1,-2,-1,-1,-1
1480685834051842,7,3,3,-2,1,0,-1,1
1480685834051842,-3,4,-1,0,1,2,-1,0
1480685834052845,-2,-9,0,4,1,-1,0,-1
1480685834052845,-5,0,-6,2,-2,0,0,-2
1480685834073400,3,3,-1,-8,-1,-2,-1,-1
1480685834073400,0,-3,0,-5,-1,-1,3,1
1480685834087939,5,3,1,2,0,0,-2,0
1480685834087939,-1,-3,0,0,-1,-2,0,-1
1480685834111506,1,-3,-1,3,0,-2,1,0
1480685834111506,-1,-1,0,0,0,1,-1,0
1480685834112504,-4,-2,1,-7,-3,-1,1,1
1480685834112504,1,1,-3,4,0,0,0,-1
1480685834118520,-2,3,1,4,-1,0,-2,0
1480685834118520,-2,-5,1,-8,-2,-2,1,0
1480685834125037,-1,-1,-1,3,2,0,-1,-1
1480685834125037,-7,-3,1,-8,-1,-1,-2,-1
1480685834148599,0,3,0,-5,-1,0,1,0
1480685834148599,2,6,-1,5,0,2,0,0
1480685834149602,-1,-8,-5,-9,0,1,-4,-2
1480685834149602,3,11,1,0,0,0,0,-1
1480685834156622,5,2,0,6,1,0,0,0
1480685834156622,-2,0,-2,-16,-5,-1,-3,-2
1480685834157122,6,4,-1,2,-2,-3,0,1
1480685834157122,-5,3,-2,0,1,-1,-1,-1
1480685834170658,0,-8,1,-4,-3,-1,0,1
1480685834170658,5,0,-2,10,1,-1,-1,0
1480685834171160,0,8,0,2,-2,-2,0,0
1480685834171160,-2,-3,1,-3,-1,-1,1,1
1480685834194223,-3,-4,-1,-2,-2,-1,1,0
1480685834194223,0,-2,-1,4,0,-2,-10,-2
1480685834195725,-3,-2,1,-2,-1,0,2,-1
1480685834195725,4,-4,0,3,-2,0,-1,1
1480685834216783,-2,-3,0,-2,1,-3,0,-2
1480685834216783,-2,1,-3,-3,0,0,2,-1
1480685834217784,-2,1,-1,0,0,0,-1,0
1480685834217784,1,-10,1,-3,-1,0,1,0
1480685834239341,1,0,-1,1,0,0,-1,-2
1480685834239341,-11,0,1,-2,-1,0,1,-2
1480685834240846,-2,-3,0,3,1,-1,-1,0
1480685834240846,4,1,1,-2,-1,1,0,-1
1480685834254381,0,-2,-2,-1,-2,-1,-1,0
1480685834254381,-1,0,1,-3,1,-1,0,-2
1480685834255885,0,1,2,6,-1,-1,1,0
1480685834255885,-1,-3,-6,-3,-1,0,0,1
1480685834283458,4,8,-4,-3,-1,1,-3,-3
1480685834283458,-19,-3,0,-2,-1,-1,0,-1
1480685834285464,11,4,0,-4,-2,-2,-2,1
1480685834285464,4,-3,1,7,0,-1,2,-2
1480685834289976,-13,4,-3,3,1,-1,-3,-1
1480685834289976,6,2,1,-2,-2,0,1,1
1480685834298999,-9,-13,1,1,-1,1,2,0
1480685834298999,8,0,1,-4,-1,0,1,1
1480685834313538,-3,-3,0,-3,-1,-2,-8,-3
1480685834313538,5,2,0,0,-1,0,1,1
1480685834315544,5,-1,-4,2,-1,-2,-1,-1
1480685834315544,-10,-1,0,-4,-3,-2,0,-2
1480685834335096,-3,-8,-2,3,0,0,2,0
1480685834335096,2,-1,1,1,1,1,0,0
1480685834372696,2,0,-1,-2,-2,-1,0,-1
1480685834372696,2,2,1,1,1,-1,-2,0
1480685834380216,2,2,1,-7,0,0,0,-2
1480685834380216,2,-1,-6,2,-1,-2,-1,1
1480685834389239,-4,3,1,-4,2,-1,2,1
1480685834389239,-9,-5,-5,3,-2,-1,-4,-2
1480685834419320,7,1,2,1,0,0,1,3
1480685834419320,5,-3,-2,-1,0,2,-1,1
1480685834425336,-14,-3,-2,2,-1,-1,0,-3
1480685834425336,0,-1,0,-4,-4,-3,-1,-1
1480685834449901,-4,2,0,4,2,2,-1,0
1480685834449901,2,-2,-1,-6,-2,-1,2,1
1480685834450904,3,0,0,-2,-1,-2,-3,-1
1480685834450904,0,-1,0,-1,1,-1,1,0
1480685834452408,-2,-3,0,1,-1,1,1,2
1480685834452408,5,1,1,4,1,-1,-1,-1
1480685834473464,-3,-12,-1,1,2,0,-2,-2
1480685834473464,-4,0,-1,-1,1,0,1,-1
1480685834473965,1,1,0,0,-2,-2,1,-1
1480685834473965,0,-2,1,-2,1,0,0,-1
1480685834479608,-2,13,-1,-4,-2,-1,-3,-2
1480685834479608,-1,1,1,6,-2,-2,-1,-2
1480685834479982,2,-5,-2,-9,-1,0,1,-1
1480685834479982,-4,0,0,-4,1,0,0,-1
1480685834481987,0,3,-2,-4,0,0,-2,-2
1480685834481987,-2,-6,0,0,-3,1,0,0
1480685834494022,-13,-3,-1,5,5,1,-1,-1
1480685834494022,-1,4,-3,-1,1,1,-3,-1
1480685834496024,4,-1,-2,-10,-3,-2,5,-1
1480685834496024,1,-3,0,4,-1,-1,-2,-1
1480685834517582,1,1,-2,1,-2,-1,-1,1
1480685834517582,-3,-6,-1,-1,-1,0,-1,0
1480685834519085,-2,-2,2,2,0,-1,0,-1
1480685834519085,5,3,0,1,0,0,-1,-1
1480685834538638,7,3,-1,4,-2,-1,0,0
1480685834538638,4,2,-2,-10,-1,-1,-2,-1
1480685834540141,-1,-2,-2,2,0,0,0,1
1480685834540141,-5,6,2,-4,-1,-2,-1,-2
1480685834554178,0,4,0,3,1,-2,-1,0
1480685834554178,0,-3,-1,1,0,-2,1,0
1480685834561198,1,-5,-2,-1,-3,0,-2,-1
1480685834561198,1,-1,-1,3,1,2,0,-1
1480685834576239,3,1,1,0,1,0,0,1
1480685834576239,4,0,3,0,0,-1,-1,-1
1480685834577744,-8,-1,-2,7,-2,-2,-1,-1
1480685834577744,-1,0,-2,-7,1,-2,-2,1
1480685834589773,3,0,0,0,-1,-2,0,0
1480685834589773,-1,-3,-4,5,0,0,-1,1
1480685834637901,9,11,-2,-9,-4,-1,-3,-1
1480685834637901,-4,0,3,-1,-1,0,-1,1
1480685834638903,0,-6,-2,-2,-1,2,3,-2
1480685834638903,-5,-1,6,1,-3,-3,-1,-1
1480685834642915,3,-1,0,4,1,-1,-1,0
1480685834642915,-13,-1,-3,-5,-1,-1,-2,-3
1480685834650434,-1,4,-1,-8,-6,-4,-1,0
1480685834650434,-2,3,-2,2,0,1,0,-1
1480685834658958,-8,-6,2,5,-1,1,-1,-2
1480685834658958,-6,-5,0,-1,-2,-3,0,0
1480685834660461,3,-5,-3,0,3,1,-1,0
1480685834660461,3,1,2,-3,-1,0,1,1
1480685834681016,3,2,-1,0,2,0,0,-2
1480685834681016,1,1,-3,2,-4,0,0,0
1480685834683021,-3,-3,3,2,-2,0,0,-1
1480685834683021,-4,1,-6,-8,-1,-2,-2,-1
1480685834696055,8,2,1,-5,-1,1,0,0
1480685834696055,4,-1,-3,2,-1,-1,-3,0
1480685834697560,-8,-3,-1,1,1,0,-1,-2
1480685834697560,5,0,-1,1,-2,-2,5,-1
1480685834710094,-5,-3,1,-1,-1,-1,-1,-2
1480685834710094,-1,-2,1,-4,2,1,2,0
1480685834718615,3,2,0,6,-5,-1,-3,0
1480685834718615,-6,-3,-1,0,4,-1,-1,0
1480685834733656,3,0,-3,-6,-2,-2,-1,2
1480685834733656,0,-2,0,-1,0,0,-1,-2
1480685834735159,-2,1,0,-5,-2,-1,-1,-1
1480685834735159,2,0,0,2,0,1,1,0
1480685834756215,-10,-11,0,2,0,-2,-1,-1
1480685834756215,3,3,0,5,0,-2,-1,-2
1480685834758722,-23,0,-5,-4,-4,-2,-1,-3
1480685834758722,3,-6,3,5,0,-2,-3,0
1480685834769751,-1,-3,-4,0,1,0,-1,-1
1480685834769751,-1,2,0,-13,-3,-2,0,0
1480685834779779,7,3,2,-4,1,0,1,1
1480685834779779,-6,-7,-8,8,0,0,-2,1
1480685834794818,4,4,0,-1,0,0,0,-2
1480685834794818,-4,-1,-2,4,0,-1,0,-1
1480685834799831,3,-2,1,-3,0,1,-1,1
1480685834799831,1,2,1,-8,2,1,-1,1
1480685834816375,5,-1,-3,6,0,-2,0,0
1480685834816375,-4,1,-1,1,-1,-2,0,0
1480685834817880,2,-11,1,2,3,-2,2,-1
1480685834817880,-1,-1,1,-2,-1,0,0,0
1480685834838939,-7,-6,1,0,-3,-2,1,-1
1480685834838939,-1,1,-2,0,-1,-1,-1,-1
1480685834841443,-2,-1,-3,-1,-1,-1,0,-1
1480685834841443,-1,-1,-1,0,-2,-2,1,-1
1480685834860493,1,2,-1,-4,0,0,3,2
1480685834860493,-7,-7,2,2,2,0,-3,-4
1480685834891074,3,2,-1,1,-1,-3,-1,0
1480685834891074,0,-2,-1,0,-1,1,0,-1
1480685834944720,-4,2,1,1,-2,-2,-1,-1
1480685834944720,5,-4,-4,-10,-1,0,2,-1
1480685834946722,1,7,-2,1,-1,1,0,-1
1480685834946722,-1,-4,0,2,-1,-3,-2,-2
1480685834947224,7,3,-2,-2,-1,-3,-2,1
1480685834947224,-10,-1,1,1,0,2,-1,0
1480685834960762,-2,-3,-2,0,-4,0,-1,0
1480685834960762,4,-1,1,-3,-2,-1,1,0
1480685834961762,-4,0,-2,1,0,0,-2,0
1480685834961762,-3,5,0,0,-2,0,2,1
1480685834964770,-2,-2,3,2,1,-1,0,-1
1480685834964770,-4,2,1,2,0,-4,0,0
1480685834972791,7,-6,0,-1,-1,1,0,1
1480685834972791,8,4,-2,-4,-2,-2,0,1
1480685834979810,3,1,-3,3,-1,-2,-2,1
1480685834979810,0,1,3,-2,-3,-1,0,-1
1480685834996354,2,1,-1,1,1,1,-3,-1
1480685834996354,5,-3,0,1,2,0,-1,1
1480685834997859,-3,-2,-3,-3,-1,0,0,-3
1480685834997859,2,3,-1,-2,-1,-1,3,1
1480685835019415,2,0,-4,1,0,-1,-1,-2
1480685835019415,2,0,2,-4,0,-1,-1,-2
1480685835026434,-7,-6,1,-1,2,1,2,1
1480685835026434,-1,-2,-4,-5,-1,-1,-4,-2
1480685835032951,-3,-2,3,3,0,2,1,0
1480685835032951,0,-1,0,18,-3,0,2,-2
1480685835047491,-8,1,-2,-15,-2,-1,-2,-1
1480685835047491,-3,-2,-5,-4,0,-1,-1,-2
1480685835056013,-6,-3,-1,3,2,0,-2,0
1480685835056013,3,3,0,-4,-3,-2,0,1
1480685835058018,6,1,-2,5,0,0,1,1
1480685835058018,2,2,2,0,0,0,1,2
1480685835095117,-10,-5,-2,-3,-1,-1,-1,-2
1480685835095117,5,0,0,-8,-2,-1,-1,2
1480685835096620,6,0,-1,-2,0,0,1,-2
1480685835096620,-13,-2,1,-4,-2,-1,-1,0
1480685835097623,5,4,0,1,-1,0,0,1
1480685835097623,-8,-4,0,-5,-3,-1,-2,0
1480685835101132,4,-2,-1,1,1,-1,1,0
1480685835101132,0,-3,-1,1,0,1,-2,-2
1480685835123192,2,4,-3,-2,-2,-2,0,-1
1480685835123192,-5,-14,3,-3,-2,-1,-1,-2
1480685835160290,-3,0,-1,3,0,2,2,0
1480685835160290,-5,-3,1,3,1,0,-1,0
1480685835169815,-4,-3,-1,1,0,0,0,1
1480685835169815,3,2,-1,-2,-2,-1,0,-1
1480685835171821,0,-1,-1,0,-2,-1,-2,0
1480685835171821,-8,-4,-2,1,0,0,2,-1
1480685835172322,-1,2,-1,3,0,-2,1,-1
1480685835172322,-3,-5,-2,2,-1,-2,2,2
1480685835190370,-2,-4,-2,-4,-1,-3,-2,-3
1480685835190370,0,1,-1,1,0,-1,-1,1
1480685835208418,-7,-3,1,-3,-2,0,1,1
1480685835208418,12,4,0,1,-1,0,-2,-2
1480685835209421,-3,-6,-5,8,0,0,0,0
1480685835209421,-3,6,-1,-1,-1,-1,1,-2
1480685835213933,1,0,2,1,0,-1,0,0
1480685835213933,4,1,0,-4,-1,0,0,-1
1480685835214434,0,0,0,-2,2,1,0,0
1480685835214434,-7,5,1,0,-1,1,-2,-2
1480685835219949,5,-1,-1,1,-3,-3,-4,0
1480685835219949,-7,-9,-2,-5,-1,-1,0,-2
1480685835235991,2,0,1,-3,-2,-1,0,1
1480685835235991,4,14,-5,0,-1,-2,-3,-2
1480685835237997,-2,1,2,2,-1,0,-2,-3
1480685835237997,0,-2,0,0,-1,-2,0,1
1480685835259054,-2,0,-3,5,0,0,-2,0
1480685835259054,5,-3,-1,-8,2,1,0,-2
1480685835261061,-11,-1,0,-2,-1,-2,1,-1
1480685835261061,2,1,-1,3,0,-1,-2,1
1480685835273090,2,3,3,-4,1,0,0,-2
1480685835273090,0,-6,2,2,1,1,4,1
1480685835279607,1,-2,1,-1,0,0,0,-1
1480685835279607,-14,-3,-1,-1,0,0,-2,-1
1480685835303671,1,-2,-1,0,-2,-1,0,-1
1480685835303671,4,-6,0,-1,-1,-1,-1,3
1480685835305175,6,2,-1,-3,0,-1,3,1
1480685835305175,-11,0,0,-1,-1,-2,-1,-2
1480685835326733,-3,-5,-1,3,0,0,0,0
1480685835326733,-6,0,0,-4,-1,-1,3,0
1480685835334253,3,0,-1,3,-1,-2,-1,0
1480685835334253,1,-7,0,4,-2,1,2,0
1480685835335255,1,2,1,-13,-2,-3,-2,-2
1480685835335255,0,-3,-2,12,0,-2,-2,-1
1480685835348792,1,-2,-1,-8,-1,0,-4,-1
1480685835348792,7,2,-2,-2,0,-1,0,1
1480685835355810,-3,-11,1,0,-2,-1,0,0
1480685835355810,-4,2,2,-5,1,0,-2,-1
1480685835369847,-7,-5,1,-1,-1,-2,0,-3
1480685835369847,5,0,0,1,-2,-1,-1,1
1480685835385890,0,0,1,-4,2,-1,-2,0
1480685835385890,3,-2,-2,-2,0,0,-3,-1
1480685835392910,-2,-2,-1,0,-1,0,-1,2
1480685835392910,3,4,0,0,1,1,2,1
1480685835424994,-1,0,-4,-3,-3,-2,-9,-2
1480685835424994,4,-2,2,1,-1,-2,0,-2
1480685835426498,1,3,-1,-2,1,-1,0,2
1480685835426498,6,2,0,3,0,1,1,-2
1480685835427504,-2,0,2,-2,-1,0,1,-1
1480685835427504,-11,-7,1,-3,-1,-1,-1,-1
1480685835448056,1,2,-8,1,-2,0,-2,-2
1480685835448056,-7,-5,-2,0,0,-1,0,1
1480685835449066,0,-1,-2,6,0,1,1,-2
1480685835449066,3,2,0,-2,1,0,-1,0
1480685835456077,-2,-5,3,2,1,0,3,0
1480685835456077,2,-2,0,-3,-2,-1,-3,-2
1480685835456578,-1,5,-5,1,-2,-1,0,1
1480685835456578,-2,-1,0,-1,-1,1,0,2
1480685835468609,2,3,0,1,-1,0,0,0
1480685835468609,8,8,-2,-3,0,-2,-1,0
1480685835483650,-5,-16,2,-4,-1,0,2,0
1480685835483650,-6,-2,-1,-2,-1,-2,-3,-3
1480685835485153,-1,-2,0,4,0,0,-1,0
1480685835485153,0,0,-1,-13,-2,-2,-3,-1
1480685835498689,0,4,-1,6,-1,1,0,0
1480685835498689,3,-7,2,2,-1,-1,1,0
1480685835500193,0,-1,2,-1,0,-2,-1,-2
1480685835500193,2,2,-2,-2,0,0,-1,0
1480685835512227,0,0,2,0,1,-1,0,0
1480685835512227,0,-1,-8,2,-1,0,0,-1
1480685835521250,1,3,1,-4,-5,0,1,1
1480685835521250,6,-1,1,4,0,-1,-9,-5
1480685835536290,-3,6,0,-3,0,0,4,1
1480685835536290,-8,-5,0,7,1,-1,-2,-2
1480685835537794,-1,-4,-2,0,0,1,1,-1
1480685835537794,3,-2,0,2,0,-1,1,1
1480685835558851,-1,4,-2,-6,-2,0,-2,-1
1480685835558851,1,5,1,0,1,-1,-1,2
1480685835560357,4,2,-1,4,1,1,-1,0
1480685835560357,-5,-8,-2,-10,-1,2,1,-2
1480685835580407,1,-1,-1,1,-2,0,0,1
1480685835580407,-8,-2,-2,-6,-1,-1,0,-2
1480685835627538,-11,-2,0,-1,-1,-1,-2,-3
1480685835627538,-2,1,2,2,-1,0,2,2
1480685835628035,3,1,-2,-3,-2,-3,-1,-2
1480685835628035,3,-2,1,-4,0,1,1,0
1480685835630039,1,1,-1,-4,0,-2,-2,0
1480685835630039,-2,3,-1,4,-2,-1,-1,0
1480685835632546,0,-4,0,1,1,-1,0,0
1480685835632546,3,5,0,-3,-1,0,-1,0
1480685835650092,1,-1,1,0,-2,-2,0,1
1480685835650092,4,0,-1,1,-1,-1,-1,-1
1480685835650594,-7,-2,-1,-7,-2,-2,-1,-2
1480685835650594,3,1,-2,-2,-3,-2,-2,-2
1480685835695215,1,1,1,1,5,2,2,0
1480685835695215,2,-1,0,2,-1,-1,-1,-1
1480685835695713,-1,2,1,-3,0,0,-1,-1
1480685835695713,-2,-1,-2,2,0,0,0,1
1480685835697719,0,-1,0,-7,-1,-1,-3,-1
1480685835697719,-2,0,-1,5,-1,-1,0,0
1480685835730807,4,2,-1,-1,1,0,-2,2
1480685835730807,-10,-1,-2,-4,-1,-1,-1,0
1480685835739831,0,-2,-4,1,-1,-1,-2,0
1480685835739831,6,0,2,-2,0,1,1,-1
1480685835741837,-11,-3,-3,1,-2,-2,-2,0
1480685835741837,0,1,7,5,-1,-3,0,0
1480685835742340,1,-2,-3,-8,-1,-2,-2,-1
1480685835742340,7,2,-2,0,0,1,-1,-1
1480685835746350,-3,-3,-8,14,-3,-2,0,-2
1480685835746350,9,3,3,-3,0,0,-1,2
1480685835761390,1,-1,3,-3,-1,-1,0,0
1480685835761390,0,-3,-6,-2,-1,-1,0,-1
1480685835762892,1,-4,3,5,1,-1,1,0
1480685835762892,-3,-1,-1,7,0,-1,0,-1
1480685835776428,3,3,0,-6,-1,1,0,2
1480685835776428,3,-3,3,4,-1,-2,2,-1
1480685835777934,-3,0,-5,-7,-2,-1,-8,-2
1480685835777934,-5,-7,-2,5,-1,-1,-2,-1
1480685835798486,-1,-2,3,0,1,2,-1,-1
1480685835798486,1,3,2,0,1,0,1,3
1480685835800492,1,1,-2,-4,-1,0,2,0
1480685835800492,-4,1,-4,-2,2,1,0,-1
1480685835821047,-1,1,3,4,2,1,-2,-1
1480685835821047,-3,-3,-6,-5,-4,-4,-1,-2
1480685835823053,3,-1,-5,-3,-2,-2,0,0
1480685835823053,-2,-2,3,-4,-2,-1,-1,-1
1480685835835586,-1,-2,-1,-1,-1,0,0,-3
1480685835835586,-3,0,2,7,1,1,-1,-1
1480685835849624,11,0,-1,-2,0,0,0,1
1480685835849624,5,1,-1,-3,-2,-1,2,1
1480685835858647,-2,-1,-1,7,-1,0,0,-1
1480685835858647,-2,-5,0,-4,-2,1,-2,-1
1480685835860151,0,4,-1,-1,0,0,1,1
1480685835860151,3,0,-1,0,0,0,0,-1
1480685835881709,5,1,-1,1,-1,-2,1,1
1480685835881709,-8,-1,-1,-6,-1,0,-2,0
1480685835883213,-2,-3,1,0,0,-1,1,0
1480685835883213,9,2,0,3,-2,-2,-1,1
1480685835903266,-9,-1,0,-3,3,2,-1,-1
1480685835903266,-1,-3,-4,0,-1,-1,-1,-1
1480685835917809,0,-1,0,-2,0,-2,-1,-1
1480685835917809,-1,-1,-2,3,-1,-1,4,1
1480685835941869,-1,1,1,0,1,0,-1,0
1480685835941869,5,1,1,-1,2,-1,-1,0
1480685835945381,-3,0,-2,2,-1,1,-1,-2
1480685835945381,-2,0,3,-5,0,0,-2,-1
1480685835947884,-1,-4,-7,2,-1,-1,0,0
1480685835947884,-1,-1,-1,4,1,1,0,-1
1480685835957411,0,1,-2,-1,-2,-2,-1,0
1480685835957411,-2,0,0,0,0,0,-1,1
1480685835958413,0,1,3,-2,-1,0,0,-2
1480685835958413,-1,2,0,-1,-1,-1,-1,-2
1480685835971948,-3,-2,-3,4,-1,-1,0,-1
1480685835971948,1,3,0,-9,-1,0,0,-1
1480685836008546,-5,-5,-3,0,-1,0,-1,0
1480685836008546,3,0,-3,1,0,1,-1,-2
1480685836026594,-2,-3,-1,1,0,1,1,-2
1480685836026594,1,-1,0,-2,-1,-3,-2,-1
1480685836027096,3,1,0,0,-3,-1,-3,-1
1480685836027096,-2,-2,0,-3,0,-1,-2,1
1480685836028599,-2,0,-1,-3,-2,0,2,-1
1480685836028599,5,2,-2,2,2,1,-1,-1
1480685836031105,-1,-4,0,-4,-3,-2,1,-1
1480685836031105,0,-4,0,0,-2,0,-1,0
1480685836032609,-2,-1,-1,-1,0,-1,-2,0
1480685836032609,-5,-6,-4,13,0,-2,0,-3
1480685836038625,2,0,0,2,1,0,-1,1
1480685836038625,0,2,1,3,1,0,1,0
1480685836040129,-8,-4,-5,-18,-3,-2,-2,0
1480685836040129,-2,0,0,-1,0,-1,-2,1
1480685836061688,2,2,-1,-6,-3,-2,-1,1
1480685836061688,0,1,2,3,-1,1,1,0
1480685836063692,5,0,0,4,2,1,0,-2
1480685836063692,-4,-2,-2,-3,-1,0,-2,-1
1480685836074722,4,-5,-2,-2,-1,-1,-1,0
1480685836074722,4,-1,-5,-4,-3,-2,-1,0
1480685836083747,2,1,1,6,1,-1,0,2
1480685836083747,3,1,2,-3,0,0,0,1
1480685836098787,1,14,1,-3,1,-1,-1,-1
1480685836098787,-10,-19,-2,6,-1,-2,0,-2
1480685836100290,-3,-2,1,-1,-1,1,-1,-1
1480685836100290,0,2,-1,-5,-1,0,-1,0
1480685836121346,3,1,0,8,-1,0,0,0
1480685836121346,-3,2,-4,-7,1,0,-1,1
1480685836122850,-3,-3,0,-4,-3,-4,-2,-1
1480685836122850,-3,-1,1,0,0,-1,1,1
1480685836134881,1,-3,-2,-4,1,0,0,-1
1480685836134881,2,6,2,2,-1,1,0,0
1480685836143906,-2,-7,-4,0,-2,0,-3,-1
1480685836143906,1,-2,-1,-4,-3,-1,4,1
1480685836158946,-3,-1,-2,-3,-2,-2,-1,-1
1480685836158946,0,0,-1,1,4,0,-1,0
1480685836160450,-1,0,-1,2,1,2,1,0
1480685836160450,2,0,2,2,-1,-1,-1,-1
1480685836225623,-6,-3,-1,2,-4,-1,0,-2
1480685836225623,-14,-3,-2,-7,0,0,-1,0
1480685836250689,9,4,0,-4,0,2,0,0
1480685836250689,-7,-4,2,-2,-1,-1,-2,-1
1480685836251692,1,-2,1,-3,0,0,0,2
1480685836251692,3,1,-1,3,-3,-3,-2,-2
1480685836257206,-2,1,-2,-7,1,-2,-1,-1
1480685836257206,0,-2,-1,-3,-1,-1,-1,1
1480685836258210,2,0,1,-2,-2,0,-1,-1
1480685836258210,7,2,1,-1,-2,0,1,-1
1480685836263725,-2,-8,-2,12,0,0,1,0
1480685836263725,-1,0,0,2,-3,-1,0,-2
1480685836266231,2,5,-1,-12,0,-1,-1,-1
1480685836266231,0,5,-2,3,-3,-1,-1,-1
1480685836279268,-1,-2,-1,-3,0,1,0,1
1480685836279268,1,3,0,-3,-2,-3,-1,0
1480685836280770,-3,-1,-1,3,2,1,0,0
1480685836280770,1,-8,-1,8,2,-1,-1,-2
1480685836301826,1,2,-1,-3,-2,0,1,-2
1480685836301826,7,1,1,-1,-2,-1,-1,1
1480685836303330,-7,-12,-5,-3,0,-2,0,0
1480685836303330,-2,4,2,1,-2,-1,-1,-2
1480685836314861,-1,4,1,-4,-3,0,-2,0
1480685836314861,0,-3,-4,-1,2,0,-1,0
1480685836323884,2,3,1,-1,0,0,0,-1
1480685836323884,0,-3,-1,-3,-3,-1,-1,-1
1480685836338424,-1,-2,2,4,4,0,0,-1
1480685836338424,-3,-3,-5,3,-1,0,0,-1
1480685836344946,-1,-9,-1,0,0,2,0,0
1480685836344946,-2,2,3,1,-1,-1,-1,-1
1480685836360982,0,3,-3,3,-3,0,0,-1
