timestamp,roll,pitch,yaw
1480685819554453,-0.684628,-0.0979032,-1.06108
1480685819577013,-0.684628,-0.0979032,-1.06108
1480685819600075,-0.684628,-0.0979032,-1.06108
1480685819615115,-0.684628,-0.0979032,-1.06108
1480685819637174,-0.684695,-0.0978047,-1.06112
1480685819659734,-0.684628,-0.0979032,-1.06108
1480685819675274,-0.684504,-0.097843,-1.06107
1480685819697336,-0.684504,-0.097843,-1.06107
1480685819719391,-0.68457,-0.0977445,-1.06112
1480685819734431,-0.684695,-0.0978047,-1.06112
1480685819758495,-0.68457,-0.0977445,-1.06112
1480685819787573,-0.684504,-0.097843,-1.06107
1480685819809633,-0.684409,-0.097767,-1.06109
1480685819824671,-0.684409,-0.097767,-1.06109
1480685819854251,-0.684475,-0.0976685,-1.06114
1480685819856757,-0.684409,-0.097767,-1.06109
1480685819877311,-0.684409,-0.097767,-1.06109
1480685819906900,-0.684409,-0.097767,-1.06109
1480685819913912,-0.684409,-0.097767,-1.06109
1480685819936970,-0.684475,-0.0976685,-1.06114
1480685819959531,-0.684475,-0.0976685,-1.06114
1480685819980601,-0.684284,-0.0977069,-1.06108
1480685820000138,-0.684284,-0.0977069,-1.06108
1480685820019690,-0.683832,-0.0973962,-1.06096
1480685820042250,-0.683832,-0.0973962,-1.06096
1480685820072831,-0.683855,-0.0976633,-1.06117
1480685820086869,-0.683729,-0.0979911,-1.0615
1480685820107925,-0.683729,-0.0979911,-1.0615
1480685820116948,-0.683446,-0.0977886,-1.06183
1480685820139509,-0.682802,-0.0974437,-1.06229
1480685820176607,-0.682802,-0.0974437,-1.06229
1480685820186634,-0.68264,-0.0974661,-1.06227
1480685820207690,-0.682528,-0.0974441,-1.06241
1480685820220725,-0.682528,-0.0974441,-1.06241
1480685820237770,-0.682516,-0.0974059,-1.06226
1480685820259829,-0.682516,-0.0974059,-1.06226
1480685820280885,-0.682528,-0.0974441,-1.06241
1480685820297931,-0.682528,-0.0974441,-1.06241
1480685820319988,-0.682516,-0.0974059,-1.06226
1480685820342048,-0.682516,-0.0974059,-1.06226
1480685820363103,-0.682391,-0.0973457,-1.06225
1480685820387168,-0.682391,-0.0973457,-1.06225
1480685820402209,-0.682403,-0.0973839,-1.0624
1480685820418250,-0.682516,-0.0974059,-1.06226
1480685820445824,-0.682582,-0.0973074,-1.06231
1480685820463370,-0.682582,-0.0973074,-1.06231
1480685820477407,-0.682391,-0.0973457,-1.06225
1480685820514008,-0.681964,-0.0971113,-1.06243
1480685820523530,-0.681964,-0.0971113,-1.06243
1480685820537567,-0.682031,-0.0970128,-1.06248
1480685820559626,-0.682031,-0.0970128,-1.06248
1480685820582186,-0.681906,-0.0969525,-1.06247
1480685820597226,-0.681839,-0.0970511,-1.06242
1480685820619785,-0.681906,-0.0969525,-1.06247
1480685820642345,-0.681906,-0.0969525,-1.06247
1480685820656884,-0.681782,-0.0968923,-1.06246
1480685820702506,-0.681715,-0.0969909,-1.06242
1480685820705012,-0.681715,-0.0969909,-1.06242
1480685820716544,-0.681782,-0.0968923,-1.06246
1480685820740105,-0.681938,-0.0969622,-1.06276
1480685820762164,-0.681968,-0.0969462,-1.06279
1480685820777706,-0.681777,-0.0969846,-1.06274
1480685820799764,-0.681777,-0.0969846,-1.06274
1480685820830346,-0.681777,-0.0969846,-1.06274
1480685820843381,-0.681901,-0.0970448,-1.06275
1480685820860426,-0.681844,-0.096886,-1.06279
1480685820882986,-0.681777,-0.0969846,-1.06274
1480685820896523,-0.681652,-0.0969243,-1.06273
1480685820919583,-0.681652,-0.0969243,-1.06273
1480685820942645,-0.681719,-0.0968258,-1.06278
1480685820963202,-0.681844,-0.096886,-1.06279
1480685820985759,-0.681719,-0.0968258,-1.06278
1480685821002303,-0.681652,-0.0969243,-1.06273
1480685821023359,-0.681652,-0.0969243,-1.06273
1480685821039401,-0.681719,-0.0968258,-1.06278
1480685821061962,-0.681719,-0.0968258,-1.06278
1480685821083019,-0.681719,-0.0968258,-1.06278
1480685821100063,-0.681528,-0.0968641,-1.06272
1480685821121621,-0.681557,-0.0968482,-1.06275
1480685821143179,-0.681624,-0.0967497,-1.0628
1480685821166239,-0.681624,-0.0967497,-1.0628
1480685821182282,-0.681499,-0.0966895,-1.06279
1480685821203338,-0.681499,-0.0966895,-1.06279
1480685821220383,-0.681433,-0.096788,-1.06275
1480685821241941,-0.681499,-0.0966895,-1.06279
1480685821263004,-0.681499,-0.0966895,-1.06279
1480685821279542,-0.681499,-0.0966895,-1.06279
1480685821308617,-0.681375,-0.0966292,-1.06278
1480685821323658,-0.681375,-0.0966292,-1.06278
1480685821341204,-0.681499,-0.0966895,-1.06279
1480685821362260,-0.681375,-0.0966292,-1.06278
1480685821405375,-0.681375,-0.0966292,-1.06278
1480685821416906,-0.681308,-0.0967278,-1.06274
1480685821429439,-0.681308,-0.0967278,-1.06274
1480685821444479,-0.681375,-0.0966292,-1.06278
1480685821467540,-0.681375,-0.0966292,-1.06278
1480685821488095,-0.681375,-0.0966292,-1.06278
1480685821503135,-0.68128,-0.0965531,-1.06281
1480685821519679,-0.68128,-0.0965531,-1.06281
1480685821542239,-0.68125,-0.096569,-1.06278
1480685821570814,-0.681375,-0.0966292,-1.06278
1480685821587359,-0.68128,-0.0965531,-1.06281
1480685821615935,-0.68128,-0.0965531,-1.06281
1480685821626965,-0.68128,-0.0965531,-1.06281
1480685821653033,-0.68128,-0.0965531,-1.06281
1480685821662060,-0.68128,-0.0965531,-1.06281
1480685821709184,-0.68128,-0.0965531,-1.06281
1480685821714196,-0.68128,-0.0965531,-1.06281
1480685821728233,-0.681155,-0.0964929,-1.0628
1480685821744778,-0.681155,-0.0964929,-1.0628
1480685821758815,-0.681222,-0.0963944,-1.06284
1480685821781876,-0.681222,-0.0963944,-1.06284
1480685821804436,-0.681222,-0.0963944,-1.06284
1480685821820479,-0.681155,-0.0964929,-1.0628
1480685821842038,-0.681222,-0.0963944,-1.06284
1480685821864595,-0.681222,-0.0963944,-1.06284
1480685821879136,-0.681222,-0.0963944,-1.06284
1480685821902197,-0.681098,-0.0963341,-1.06284
1480685821955337,-0.681098,-0.0963341,-1.06284
1480685821957844,-0.681222,-0.0963944,-1.06284
1480685821998452,-0.681289,-0.0962958,-1.06289
1480685822022515,-0.681289,-0.0962958,-1.06289
1480685822029034,-0.681098,-0.0963341,-1.06284
1480685822044575,-0.681222,-0.0963944,-1.06284
1480685822065630,-0.681222,-0.0963944,-1.06284
1480685822082174,-0.681222,-0.0963944,-1.06284
1480685822104734,-0.681098,-0.0963341,-1.06284
1480685822125791,-0.681098,-0.0963341,-1.06284
1480685822142335,-0.681098,-0.0963341,-1.06284
1480685822164393,-0.681222,-0.0963944,-1.06284
1480685822185449,-0.681098,-0.0963341,-1.06284
1480685822215530,-0.681127,-0.0963182,-1.06287
1480685822238089,-0.680735,-0.096579,-1.06331
1480685822291230,-0.680722,-0.0965409,-1.06316
1480685822307775,-0.680819,-0.0964265,-1.06323
1480685822320308,-0.680386,-0.0964744,-1.0636
1480685822330836,-0.679882,-0.0967127,-1.06419
1480685822332340,-0.679636,-0.096814,-1.06488
1480685822344873,-0.679394,-0.0968233,-1.06529
1480685822365427,-0.678989,-0.0965593,-1.06562
1480685822381972,-0.678989,-0.0965593,-1.06562
1480685822405033,-0.67881,-0.0966354,-1.06572
1480685822425588,-0.67881,-0.0966354,-1.06572
1480685822442132,-0.67881,-0.0966354,-1.06572
1480685822472212,-0.678533,-0.0963398,-1.06577
1480685822494270,-0.678533,-0.0963398,-1.06577
1480685822539893,-0.678533,-0.0963398,-1.06577
1480685822542399,-0.678096,-0.0964786,-1.06641
1480685822563956,-0.67777,-0.0961537,-1.06693
1480685822586014,-0.677895,-0.0962141,-1.06694
1480685822590526,-0.67777,-0.0961537,-1.06693
1480685822607070,-0.67777,-0.0961537,-1.06693
1480685822621609,-0.677567,-0.0960798,-1.06736
1480685822644672,-0.677406,-0.0960278,-1.06798
1480685822667231,-0.678202,-0.096076,-1.06839
1480685822682271,-0.678202,-0.096076,-1.06839
1480685822704329,-0.677512,-0.0957728,-1.06868
1480685822727391,-0.677445,-0.0958712,-1.06863
1480685822741428,-0.677445,-0.0958712,-1.06863
1480685822787550,-0.677512,-0.0957728,-1.06868
1480685822790056,-0.677512,-0.0957728,-1.06868
1480685822840190,-0.677512,-0.0957728,-1.06868
1480685822886314,-0.676759,-0.0954762,-1.06865
1480685822907871,-0.676456,-0.0950053,-1.06877
1480685822909375,-0.676332,-0.0949448,-1.06876
1480685822913390,-0.676332,-0.0949448,-1.06876
1480685822921406,-0.675686,-0.0947625,-1.06886
1480685822944469,-0.675125,-0.094428,-1.06888
1480685822967027,-0.67489,-0.0938585,-1.06904
1480685822988083,-0.674474,-0.0935556,-1.06921
1480685823004628,-0.67435,-0.0934951,-1.0692
1480685823027689,-0.675272,-0.0938988,-1.06969
1480685823078827,-0.675889,-0.0940229,-1.07021
1480685823103390,-0.67599,-0.0939335,-1.07055
1480685823110414,-0.675286,-0.0939781,-1.07103
1480685823114927,-0.675286,-0.0939781,-1.07103
1480685823124446,-0.675094,-0.0940159,-1.07098
1480685823161547,-0.675094,-0.0940159,-1.07098
1480685823168062,-0.675094,-0.0940159,-1.07098
1480685823191124,-0.675094,-0.0940159,-1.07098
1480685823207166,-0.675094,-0.0940159,-1.07098
1480685823235743,-0.674492,-0.0938545,-1.07126
1480685823245269,-0.673946,-0.0936568,-1.07106
1480685823295904,-0.673862,-0.0933227,-1.07116
1480685823357065,-0.673394,-0.0934504,-1.07151
1480685823366590,-0.67189,-0.093652,-1.0724
1480685823371604,-0.668485,-0.0931838,-1.074
1480685823387145,-0.668064,-0.0922657,-1.07376
1480685823409705,-0.667632,-0.0916055,-1.07344
1480685823424243,-0.667538,-0.0915288,-1.07346
1480685823447305,-0.667538,-0.0915288,-1.07346
1480685823469364,-0.667605,-0.0914304,-1.07351
1480685823484403,-0.667728,-0.0914911,-1.07352
1480685823506964,-0.667699,-0.091507,-1.07349
1480685823529528,-0.667699,-0.091507,-1.07349
1480685823597705,-0.667699,-0.091507,-1.07349
1480685823600212,-0.667633,-0.0911195,-1.07347
1480685823629293,-0.66639,-0.090465,-1.07286
1480685823634804,-0.665427,-0.0907209,-1.0726
1480685823649843,-0.66483,-0.0912491,-1.07265
1480685823663881,-0.664435,-0.0911866,-1.07277
1480685823686942,-0.663532,-0.0907431,-1.07307
1480685823709502,-0.662015,-0.0902904,-1.07341
1480685823725044,-0.660652,-0.0898821,-1.07378
1480685823747103,-0.659751,-0.0894377,-1.07409
1480685823769161,-0.659423,-0.0889815,-1.07418
1480685823786206,-0.65949,-0.0888829,-1.07422
1480685823836840,-0.658807,-0.0885756,-1.07451
1480685823857896,-0.658124,-0.0882682,-1.07481
1480685823890984,-0.658124,-0.0882682,-1.07481
1480685823896503,-0.658124,-0.0882682,-1.07481
1480685823898004,-0.658124,-0.0882682,-1.07481
1480685823910536,-0.658124,-0.0882682,-1.07481
1480685823927080,-0.65739,-0.087998,-1.07401
1480685823949641,-0.657118,-0.0882819,-1.07328
1480685823970696,-0.657492,-0.0884772,-1.07265
1480685823987742,-0.657683,-0.0884393,-1.0727
1480685824017321,-0.657276,-0.08834,-1.07267
1480685824030857,-0.656147,-0.0880167,-1.0729
1480685824046899,-0.655481,-0.0876573,-1.07307
1480685824091020,-0.655138,-0.0872533,-1.07328
1480685824152680,-0.6547,-0.0867728,-1.07352
1480685824155187,-0.653557,-0.086501,-1.07388
1480685824159699,-0.652291,-0.0866603,-1.07513
1480685824173737,-0.65209,-0.086963,-1.07591
1480685824189779,-0.65174,-0.0870293,-1.07676
1480685824210835,-0.651053,-0.0872942,-1.07731
1480685824226878,-0.650749,-0.0876898,-1.07775
1480685824249439,-0.650838,-0.0881492,-1.07808
1480685824271998,-0.650961,-0.0882102,-1.07809
1480685824288040,-0.650961,-0.0882102,-1.07809
1480685824323635,-0.650919,-0.0884843,-1.07798
1480685824330654,-0.651186,-0.0891645,-1.07828
1480685824384798,-0.651949,-0.0905076,-1.07857
1480685824414878,-0.653644,-0.0919067,-1.07916
1480685824417385,-0.655128,-0.0930802,-1.07948
1480685824432424,-0.654744,-0.0945331,-1.08049
1480685824457992,-0.654394,-0.0952917,-1.08111
1480685824467518,-0.653898,-0.0954301,-1.08143
1480685824489577,-0.653478,-0.0948954,-1.08154
1480685824529183,-0.652102,-0.0935391,-1.08128
1480685824540713,-0.650887,-0.0927509,-1.08119
1480685824549737,-0.650832,-0.0925911,-1.08123
1480685824572296,-0.650832,-0.0925911,-1.08123
1480685824600371,-0.651247,-0.0925218,-1.08163
1480685824616916,-0.651954,-0.0930145,-1.08219
1480685824668050,-0.651781,-0.0936985,-1.08271
1480685824693620,-0.651785,-0.0943089,-1.08312
1480685824706152,-0.653221,-0.095443,-1.08299
1480685824708158,-0.653855,-0.0950196,-1.08247
1480685824737235,-0.653139,-0.0944085,-1.0824
1480685824752777,-0.652191,-0.0937112,-1.08246
1480685824766813,-0.651379,-0.0928169,-1.08262
1480685824789374,-0.650838,-0.091926,-1.08265
1480685824819454,-0.650145,-0.0911811,-1.08309
1480685824826473,-0.64922,-0.0910417,-1.08344
1480685824849533,-0.649275,-0.0912016,-1.0834
1480685824895155,-0.649275,-0.0912016,-1.0834
1480685824899667,-0.64884,-0.0907183,-1.08364
1480685824924232,-0.647701,-0.0901456,-1.08393
1480685824948355,-0.647009,-0.0900922,-1.08415
1480685824953870,-0.647021,-0.0901283,-1.0843
1480685824969410,-0.646794,-0.0896593,-1.08409
1480685824991971,-0.646634,-0.0893864,-1.08399
1480685825013032,-0.64666,-0.0891639,-1.08423
1480685825029570,-0.64749,-0.0894229,-1.08473
1480685825052131,-0.648012,-0.0891723,-1.08519
1480685825074691,-0.647927,-0.088718,-1.08578
1480685825089731,-0.647478,-0.0882858,-1.08614
1480685825193507,-0.647356,-0.0882243,-1.08613
1480685825211556,-0.647275,-0.0881831,-1.08631
1480685825218072,-0.645531,-0.0916958,-1.08857
1480685825238626,-0.644494,-0.0918184,-1.08822
1480685825260686,-0.643135,-0.0914825,-1.08796
1480685825271716,-0.642633,-0.0913906,-1.08822
1480685825292269,-0.642591,-0.0907645,-1.08855
1480685825322851,-0.64251,-0.0902214,-1.08886
1480685825329372,-0.641901,-0.0898088,-1.0892
1480685825351928,-0.641263,-0.089706,-1.08958
1480685825395545,-0.641263,-0.089706,-1.08958
1480685825449688,-0.641263,-0.089706,-1.08958
1480685825452195,-0.641263,-0.089706,-1.08958
1480685825472516,-0.641254,-0.0900852,-1.08901
1480685825475022,-0.642598,-0.090189,-1.08736
1480685825495075,-0.643674,-0.0897882,-1.0869
1480685825517134,-0.644519,-0.0892997,-1.08657
1480685825532174,-0.644983,-0.0891796,-1.08622
1480685825570776,-0.645159,-0.0894011,-1.08619
1480685825575790,-0.645956,-0.0895683,-1.08611
1480685825592335,-0.646584,-0.0894309,-1.0867
1480685825629433,-0.646462,-0.0887644,-1.08721
1480685825631939,-0.646859,-0.0878433,-1.08725
1480685825703629,-0.64745,-0.0867976,-1.08706
1480685825717667,-0.648409,-0.0856419,-1.08682
1480685825734712,-0.655185,-0.0867297,-1.08575
1480685825755769,-0.656527,-0.0876991,-1.08536
1480685825771811,-0.657908,-0.0888803,-1.08506
1480685825794371,-0.660154,-0.0900138,-1.08522
1480685825815428,-0.661878,-0.0909062,-1.08598
1480685825832471,-0.66177,-0.0919917,-1.08744
1480685825860546,-0.660151,-0.0922158,-1.08954
1480685825875587,-0.659553,-0.0929509,-1.09135
1480685825892131,-0.659301,-0.0928111,-1.09303
1480685825927726,-0.657569,-0.0923821,-1.09395
1480685825959810,-0.654964,-0.092165,-1.09405
1480685825962321,-0.653408,-0.0921536,-1.0938
1480685825991896,-0.653893,-0.0925928,-1.09374
1480685826004430,-0.653974,-0.0925311,-1.09394
1480685826011950,-0.652734,-0.0926561,-1.0943
1480685826034509,-0.651029,-0.0929,-1.09502
1480685826056066,-0.649643,-0.0925797,-1.09566
1480685826071608,-0.648774,-0.092094,-1.09611
1480685826094670,-0.648092,-0.0912561,-1.09627
1480685826117230,-0.648086,-0.090734,-1.09614
1480685826139789,-0.648367,-0.0901656,-1.09575
1480685826154829,-0.64881,-0.0897831,-1.09518
1480685826193432,-0.648622,-0.0893278,-1.09423
1480685826212984,-0.647918,-0.0885374,-1.09359
1480685826262120,-0.64785,-0.0886357,-1.09354
1480685826265624,-0.648431,-0.08846,-1.09369
1480685826282168,-0.648441,-0.0885838,-1.09412
1480685826297208,-0.649581,-0.0903824,-1.09466
1480685826312750,-0.651763,-0.0922705,-1.09534
1480685826334808,-0.653643,-0.0933539,-1.09591
1480685826364387,-0.652775,-0.0930748,-1.09615
1480685826371907,-0.650802,-0.092112,-1.09644
1480685826401987,-0.650034,-0.0914242,-1.09668
1480685826417026,-0.650346,-0.091244,-1.09695
1480685826432568,-0.650753,-0.0919584,-1.0974
1480685826470168,-0.650399,-0.0925072,-1.09824
1480685826497741,-0.650039,-0.0927395,-1.09872
1480685826516792,-0.649476,-0.092361,-1.09859
1480685826522808,-0.648398,-0.0920588,-1.09836
1480685826536846,-0.648276,-0.0919967,-1.09835
1480685826557901,-0.648637,-0.0920646,-1.09886
1480685826581966,-0.649007,-0.0923607,-1.09944
1480685826597006,-0.649184,-0.0922887,-1.09933
1480685826611545,-0.649306,-0.0923509,-1.09934
1480685826634606,-0.649253,-0.0921907,-1.09938
1480685826663181,-0.650083,-0.092053,-1.09925
1480685826672206,-0.650762,-0.0920752,-1.09888
1480685826709805,-0.650673,-0.0919089,-1.09862
1480685826724344,-0.650051,-0.0912603,-1.09797
1480685826793528,-0.649879,-0.090752,-1.09689
1480685826798542,-0.649095,-0.0902285,-1.09584
1480685826818595,-0.649689,-0.0902019,-1.09472
1480685826828121,-0.650909,-0.090424,-1.09455
1480685826844664,-0.651241,-0.0905077,-1.09504
1480685826865721,-0.649696,-0.0906119,-1.09627
1480685826888280,-0.649264,-0.0908243,-1.09721
1480685826897303,-0.649928,-0.090794,-1.09734
1480685826925378,-0.650077,-0.0907377,-1.09721
1480685826936910,-0.649542,-0.0903438,-1.0971
1480685826957964,-0.649473,-0.0904419,-1.09706
1480685826979523,-0.649956,-0.0908819,-1.09699
1480685827045197,-0.650698,-0.0911877,-1.09703
1480685827056728,-0.650676,-0.0905113,-1.09723
1480685827068259,-0.650031,-0.0898852,-1.09748
1480685827077783,-0.64998,-0.0903355,-1.09793
1480685827105858,-0.650457,-0.0915627,-1.09885
1480685827122403,-0.651093,-0.0930648,-1.09986
1480685827145464,-0.651958,-0.093839,-1.10052
1480685827165517,-0.652739,-0.0932472,-1.10037
1480685827174541,-0.653015,-0.0919499,-1.10006
1480685827212642,-0.653095,-0.0910713,-1.10005
1480685827219661,-0.653042,-0.0909112,-1.10009
1480685827235203,-0.653524,-0.0911463,-1.10023
1480685827257261,-0.654887,-0.0916984,-1.10029
1480685827279320,-0.655152,-0.0920876,-1.10052
1480685827301879,-0.655152,-0.0920876,-1.10052
1480685827316922,-0.655171,-0.0915354,-1.10053
1480685827348507,-0.656047,-0.091124,-1.10052
1480685827355522,-0.656437,-0.0912813,-1.10069
1480685827383097,-0.656867,-0.0915622,-1.10066
1480685827401646,-0.656989,-0.0916243,-1.10067
1480685827421196,-0.657058,-0.0915265,-1.10071
1480685827423202,-0.657058,-0.0915265,-1.10071
1480685827442754,-0.657061,-0.0914374,-1.10043
1480685827466318,-0.657061,-0.0914374,-1.10043
1480685827481359,-0.657048,-0.091401,-1.10028
1480685827511437,-0.657117,-0.0913031,-1.10032
1480685827533497,-0.657117,-0.0913031,-1.10032
1480685827556557,-0.657308,-0.0912674,-1.10037
1480685827564077,-0.656795,-0.091749,-1.1009
1480685827585134,-0.656403,-0.0922926,-1.10143
1480685827602680,-0.656234,-0.0922847,-1.10218
1480685827623735,-0.65673,-0.0923518,-1.10269
1480685827644791,-0.656714,-0.0921991,-1.10303
1480685827661336,-0.656726,-0.0922356,-1.10318
1480685827707458,-0.656633,-0.0921571,-1.1032
1480685827729517,-0.657026,-0.0922259,-1.10309
1480685827732024,-0.658036,-0.0920175,-1.10286
1480685827742552,-0.658924,-0.0919516,-1.10242
1480685827765117,-0.658924,-0.0919516,-1.10242
1480685827789676,-0.658895,-0.0919678,-1.10239
1480685827810233,-0.658895,-0.0919678,-1.10239
1480685827832298,-0.659074,-0.0918958,-1.10229
1480685827859863,-0.659074,-0.0918958,-1.10229
1480685827871394,-0.658412,-0.0915265,-1.10246
1480685827884930,-0.657828,-0.0912883,-1.10273
1480685827902977,-0.658138,-0.0911991,-1.10329
1480685827922530,-0.658244,-0.0911091,-1.10363
1480685827945091,-0.657495,-0.0909788,-1.10416
1480685827963138,-0.656271,-0.0908404,-1.10461
1480685827990210,-0.655981,-0.090975,-1.10514
1480685828004748,-0.656582,-0.0913632,-1.10558
1480685828027308,-0.657078,-0.0916366,-1.10588
1480685828042348,-0.65669,-0.0918851,-1.10634
1480685828089474,-0.65601,-0.0918612,-1.10671
1480685828091981,-0.65594,-0.0919589,-1.10666
1480685828110029,-0.656545,-0.0922585,-1.10682
1480685828134092,-0.657219,-0.0924606,-1.10702
1480685828148632,-0.657219,-0.0924606,-1.10702
1480685828170188,-0.6564,-0.0926318,-1.10729
1480685828184728,-0.656278,-0.0925693,-1.10729
1480685828217817,-0.656469,-0.0925342,-1.10734
1480685828222327,-0.656469,-0.0925342,-1.10734
1480685828244887,-0.656469,-0.0925342,-1.10734
1480685828267446,-0.656348,-0.0924717,-1.10733
1480685828282487,-0.656948,-0.0924536,-1.10714
1480685828322092,-0.65711,-0.0924346,-1.10716
1480685828327609,-0.65711,-0.0924346,-1.10716
1480685828344152,-0.657097,-0.0923982,-1.10701
1480685828372727,-0.657097,-0.0923982,-1.10701
1480685828391277,-0.657097,-0.0923982,-1.10701
1480685828409827,-0.657166,-0.0923006,-1.10705
1480685828426370,-0.657166,-0.0923006,-1.10705
1480685828448929,-0.657166,-0.0923006,-1.10705
1480685828463970,-0.657166,-0.0923006,-1.10705
1480685828501069,-0.657195,-0.0922843,-1.10708
1480685828518114,-0.657166,-0.0923006,-1.10705
1480685828524129,-0.657236,-0.0922029,-1.1071
1480685828545188,-0.657236,-0.0922029,-1.1071
1480685828568748,-0.657236,-0.0922029,-1.1071
1480685828585793,-0.657236,-0.0922029,-1.1071
1480685828604844,-0.657236,-0.0922029,-1.1071
1480685828646956,-0.657236,-0.0922029,-1.1071
1480685828650465,-0.657236,-0.0922029,-1.1071
1480685828668012,-0.657264,-0.0921867,-1.10713
1480685828690071,-0.657143,-0.0921242,-1.10712
1480685828711628,-0.657264,-0.0921867,-1.10713
1480685828725165,-0.65679,-0.0919731,-1.10725
1480685828747724,-0.65679,-0.0919731,-1.10725
1480685828769783,-0.656697,-0.0918944,-1.10727
1480685828784823,-0.656697,-0.0918944,-1.10727
1480685828807383,-0.656697,-0.0918944,-1.10727
1480685828829943,-0.656859,-0.0918755,-1.1073
1480685828852503,-0.656965,-0.0913784,-1.10702
1480685828870553,-0.656952,-0.091342,-1.10686
1480685828884087,-0.656559,-0.0912724,-1.10698
1480685828921186,-0.656256,-0.0913704,-1.10736
1480685828945251,-0.65664,-0.0917072,-1.10809
1480685828948759,-0.656901,-0.0919816,-1.10881
1480685828967809,-0.656728,-0.0923711,-1.10926
1480685828996386,-0.655975,-0.0925326,-1.10987
1480685829003905,-0.655975,-0.0925326,-1.10987
1480685829032481,-0.655975,-0.0925326,-1.10987
1480685829057047,-0.655975,-0.0925326,-1.10987
1480685829064067,-0.655803,-0.0930381,-1.10982
1480685829092641,-0.655697,-0.0937403,-1.10989
1480685829107681,-0.65566,-0.0941396,-1.11022
1480685829125229,-0.655,-0.0943794,-1.11081
1480685829144780,-0.653883,-0.0943518,-1.1114
1480685829169847,-0.652799,-0.0940133,-1.11194
1480685829201431,-0.652251,-0.0934615,-1.11217
1480685829206444,-0.652816,-0.0930269,-1.1121
1480685829244546,-0.653779,-0.0930972,-1.11176
1480685829247054,-0.654714,-0.0926731,-1.11114
1480685829268109,-0.655337,-0.0922207,-1.11047
1480685829287660,-0.655927,-0.0920782,-1.10983
1480685829305206,-0.656497,-0.0922822,-1.1094
1480685829326263,-0.656725,-0.0924601,-1.10955
1480685829364364,-0.656758,-0.092762,-1.10992
1480685829366870,-0.657184,-0.0931341,-1.11018
1480685829402465,-0.657362,-0.0936752,-1.11049
1480685829414998,-0.656878,-0.0933209,-1.11084
1480685829430038,-0.656685,-0.0926274,-1.11086
1480685829445080,-0.656754,-0.0925299,-1.11091
1480685829475159,-0.656633,-0.0924672,-1.1109
1480685829501729,-0.656661,-0.0924509,-1.11093
1480685829506241,-0.656272,-0.0922915,-1.11076
1480685829543841,-0.655956,-0.0917406,-1.11057
1480685829558883,-0.655956,-0.0917406,-1.11057
1480685829564897,-0.655426,-0.0916601,-1.1108
1480685829587457,-0.654539,-0.0917218,-1.11125
1480685829610023,-0.653898,-0.0917031,-1.11192
1480685829632577,-0.654018,-0.0916492,-1.11242
1480685829647618,-0.65414,-0.0917119,-1.11243
1480685829669676,-0.65414,-0.0917119,-1.11243
1480685829687724,-0.653416,-0.0917542,-1.1129
1480685829710284,-0.653271,-0.091398,-1.11345
1480685829729836,-0.653271,-0.091398,-1.11345
1480685829753900,-0.653327,-0.0912643,-1.11334
1480685829774955,-0.653327,-0.0912643,-1.11334
1480685829801025,-0.653327,-0.0912643,-1.11334
1480685829806540,-0.65419,-0.0916389,-1.11338
1480685829835117,-0.654259,-0.0915414,-1.11342
1480685829866700,-0.653856,-0.0912289,-1.1136
1480685829869207,-0.653694,-0.0912473,-1.11357
1480685829890263,-0.653694,-0.0912473,-1.11357
1480685829910818,-0.653694,-0.0912473,-1.11357
1480685829926359,-0.653694,-0.0912473,-1.11357
1480685829954950,-0.653764,-0.0911498,-1.11362
1480685829969975,-0.653764,-0.0911498,-1.11362
1480685829988022,-0.653694,-0.0912473,-1.11357
1480685830015095,-0.653694,-0.0912473,-1.11357
1480685830031137,-0.653539,-0.0907663,-1.11369
1480685830055203,-0.653516,-0.0905897,-1.11375
1480685830077762,-0.653516,-0.0905897,-1.11375
1480685830097313,-0.653516,-0.0905897,-1.11375
1480685830125889,-0.653516,-0.0905897,-1.11375
1480685830128900,-0.653516,-0.0905897,-1.11375
1480685830166998,-0.653503,-0.0905536,-1.1136
1480685830169505,-0.653394,-0.0905269,-1.11374
1480685830187554,-0.653394,-0.0905269,-1.11374
1480685830212620,-0.653394,-0.0905269,-1.11374
1480685830228167,-0.653516,-0.0905897,-1.11375
1480685830254731,-0.653451,-0.0903933,-1.11363
1480685830269771,-0.652886,-0.0900991,-1.11378
1480685830287819,-0.652845,-0.0901803,-1.11376
1480685830310380,-0.652845,-0.0901803,-1.11376
1480685830332940,-0.652886,-0.0900991,-1.11378
1480685830355500,-0.653007,-0.0901619,-1.11379
1480685830378061,-0.652264,-0.0899384,-1.11404
1480685830397612,-0.652277,-0.0899745,-1.11419
1480685830414157,-0.652264,-0.0899384,-1.11404
1480685830427192,-0.652264,-0.0899384,-1.11404
1480685830451255,-0.652102,-0.0898397,-1.11451
1480685830467798,-0.651975,-0.0899536,-1.11507
1480685830487350,-0.652101,-0.0903339,-1.11542
1480685830517431,-0.652101,-0.0903339,-1.11542
1480685830528966,-0.652101,-0.0903339,-1.11542
1480685830550518,-0.652171,-0.0902365,-1.11547
1480685830587116,-0.652171,-0.0902365,-1.11547
1480685830590123,-0.652049,-0.0901736,-1.11546
1480685830610178,-0.652049,-0.0901736,-1.11546
1480685830632737,-0.652171,-0.0902365,-1.11547
1480685830655297,-0.65224,-0.090139,-1.11551
1480685830674849,-0.65224,-0.090139,-1.11551
1480685830689889,-0.65224,-0.090139,-1.11551
1480685830720470,-0.65224,-0.090139,-1.11551
1480685830730498,-0.652362,-0.0902019,-1.11552
1480685830757569,-0.652419,-0.0900683,-1.11541
1480685830768097,-0.652419,-0.0900683,-1.11541
1480685830788651,-0.652419,-0.0900683,-1.11541
1480685830813223,-0.652297,-0.0900054,-1.1154
1480685830840790,-0.652419,-0.0900683,-1.11541
1480685830863851,-0.652419,-0.0900683,-1.11541
1480685830869867,-0.652488,-0.0899709,-1.11546
1480685830888417,-0.652419,-0.0900683,-1.11541
1480685830910477,-0.652419,-0.0900683,-1.11541
1480685830956097,-0.652419,-0.0900683,-1.11541
1480685830968629,-0.652488,-0.0899709,-1.11546
1480685830976151,-0.652488,-0.0899709,-1.11546
1480685830998710,-0.652488,-0.0899709,-1.11546
1480685831019766,-0.652488,-0.0899709,-1.11546
1480685831030294,-0.652488,-0.0899709,-1.11546
1480685831051350,-0.652558,-0.0898734,-1.1155
1480685831072407,-0.652545,-0.0898373,-1.11535
1480685831096470,-0.652545,-0.0898373,-1.11535
1480685831117526,-0.652558,-0.0898734,-1.1155
1480685831140086,-0.652615,-0.0897399,-1.11539
1480685831150614,-0.652736,-0.0898027,-1.1154
1480685831170167,-0.652736,-0.0898027,-1.1154
1480685831199745,-0.652615,-0.0897399,-1.11539
1480685831210273,-0.652615,-0.0897399,-1.11539
1480685831229825,-0.652736,-0.0898027,-1.1154
1480685831252385,-0.652736,-0.0898027,-1.1154
1480685831274945,-0.652806,-0.0897053,-1.11544
1480685831292993,-0.652806,-0.0897053,-1.11544
1480685831312548,-0.652806,-0.0897053,-1.11544
1480685831332096,-0.652806,-0.0897053,-1.11544
1480685831349643,-0.652899,-0.0897845,-1.11542
1480685831380257,-0.652968,-0.089687,-1.11547
1480685831419328,-0.652955,-0.089651,-1.11531
1480685831441889,-0.652756,-0.0900679,-1.11562
1480685831447907,-0.653003,-0.0905114,-1.11598
1480685831465952,-0.653194,-0.0904768,-1.11603
1480685831502550,-0.653181,-0.0904407,-1.11587
1480685831512078,-0.652645,-0.0901295,-1.11605
1480685831515083,-0.652645,-0.0901295,-1.11605
1480685831530123,-0.652767,-0.0901925,-1.11606
1480685831552182,-0.652916,-0.0901382,-1.11592
1480685831570230,-0.652916,-0.0901382,-1.11592
1480685831591286,-0.652416,-0.0900398,-1.11619
1480685831613848,-0.652416,-0.0900398,-1.11619
1480685831630389,-0.652416,-0.0900398,-1.11619
1480685831665483,-0.652473,-0.0899063,-1.11608
1480685831675510,-0.652473,-0.0899063,-1.11608
1480685831703585,-0.652473,-0.0899063,-1.11608
1480685831744193,-0.652473,-0.0899063,-1.11608
1480685831749206,-0.652473,-0.0899063,-1.11608
1480685831765750,-0.652664,-0.0898718,-1.11613
1480685831771267,-0.652664,-0.0898718,-1.11613
1480685831792321,-0.652664,-0.0898718,-1.11613
1480685831816385,-0.652664,-0.0898718,-1.11613
1480685831838944,-0.652664,-0.0898718,-1.11613
1480685831852480,-0.652664,-0.0898718,-1.11613
1480685831870529,-0.652826,-0.0898536,-1.11616
1480685831897600,-0.652826,-0.0898536,-1.11616
1480685831912641,-0.652705,-0.0897907,-1.11615
1480685831959771,-0.652734,-0.0897743,-1.11618
1480685831961777,-0.652705,-0.0897907,-1.11615
1480685831979824,-0.652896,-0.0897561,-1.1162
1480685832002385,-0.652896,-0.0897561,-1.1162
1480685832041991,-0.652826,-0.0898536,-1.11616
1480685832044499,-0.652826,-0.0898536,-1.11616
1480685832051014,-0.652896,-0.0897561,-1.1162
1480685832073072,-0.653164,-0.0898534,-1.11636
1480685832092625,-0.653164,-0.0898534,-1.11636
1480685832110172,-0.653164,-0.0898534,-1.11636
1480685832132731,-0.653094,-0.0899508,-1.11632
1480685832152284,-0.653164,-0.0898534,-1.11636
1480685832170331,-0.653164,-0.0898534,-1.11636
1480685832193394,-0.653234,-0.0897559,-1.11641
1480685832260070,-0.653164,-0.0898534,-1.11636
1480685832276113,-0.653164,-0.0898534,-1.11636
1480685832297670,-0.653234,-0.0897559,-1.11641
1480685832320731,-0.653355,-0.0898189,-1.11641
1480685832326747,-0.653355,-0.0898189,-1.11641
1480685832341285,-0.652772,-0.0897817,-1.11648
1480685832350310,-0.652772,-0.0897817,-1.11648
1480685832372869,-0.65295,-0.0897111,-1.11638
1480685832392928,-0.653244,-0.0898806,-1.11685
1480685832410972,-0.653244,-0.0898806,-1.11685
1480685832433030,-0.653175,-0.089978,-1.1168
1480685832452582,-0.653123,-0.0898176,-1.11684
1480685832508229,-0.65311,-0.0897816,-1.11668
1480685832512742,-0.65318,-0.0896841,-1.11673
1480685832530791,-0.65311,-0.0897816,-1.11668
1480685832536304,-0.65311,-0.0897816,-1.11668
1480685832560369,-0.653231,-0.0898445,-1.11669
1480685832575409,-0.653231,-0.0898445,-1.11669
1480685832597970,-0.653301,-0.0897471,-1.11674
1480685832620528,-0.65318,-0.0896841,-1.11673
1480685832634064,-0.65318,-0.0896841,-1.11673
1480685832662642,-0.653301,-0.0897471,-1.11674
1480685832672668,-0.653301,-0.0897471,-1.11674
1480685832693723,-0.653371,-0.0896496,-1.11678
1480685832714780,-0.653371,-0.0896496,-1.11678
1480685832732831,-0.653301,-0.0897471,-1.11674
1480685832754385,-0.653301,-0.0897471,-1.11674
1480685832782465,-0.653371,-0.0896496,-1.11678
1480685832816050,-0.653371,-0.0896496,-1.11678
1480685832852647,-0.653371,-0.0896496,-1.11678
1480685832855153,-0.653371,-0.0896496,-1.11678
1480685832879724,-0.653492,-0.0897126,-1.11679
1480685832894760,-0.653549,-0.0895791,-1.11668
1480685832912806,-0.653549,-0.0895791,-1.11668
1480685832935365,-0.653441,-0.0895522,-1.11683
1480685832954918,-0.653549,-0.0895791,-1.11668
1480685832972966,-0.653549,-0.0895791,-1.11668
1480685833000038,-0.653591,-0.0894981,-1.1167
1480685833015082,-0.653549,-0.0895791,-1.11668
1480685833034630,-0.653549,-0.0895791,-1.11668
1480685833107323,-0.653521,-0.0895955,-1.11665
1480685833109830,-0.653591,-0.0894981,-1.1167
1480685833128881,-0.653591,-0.0894981,-1.1167
1480685833134897,-0.653591,-0.0894981,-1.1167
1480685833153446,-0.653591,-0.0894981,-1.1167
1480685833175504,-0.653712,-0.089561,-1.1167
1480685833196567,-0.653782,-0.0894636,-1.11675
1480685833212603,-0.653782,-0.0894636,-1.11675
1480685833243686,-0.653712,-0.089561,-1.1167
1480685833255217,-0.653591,-0.0894981,-1.1167
1480685833338437,-0.653782,-0.0894636,-1.11675
1480685833363505,-0.653782,-0.0894636,-1.11675
1480685833365010,-0.653782,-0.0894636,-1.11675
1480685833382563,-0.653782,-0.0894636,-1.11675
1480685833393085,-0.653782,-0.0894636,-1.11675
1480685833422160,-0.653782,-0.0894636,-1.11675
1480685833442213,-0.653661,-0.0894007,-1.11674
1480685833460263,-0.653782,-0.0894636,-1.11675
1480685833475302,-0.653782,-0.0894636,-1.11675
1480685833497864,-0.653839,-0.0893301,-1.11664
1480685833512911,-0.653782,-0.0894636,-1.11675
1480685833550501,-0.653782,-0.0894636,-1.11675
1480685833625200,-0.653782,-0.0894636,-1.11675
1480685833627706,-0.653839,-0.0893301,-1.11664
1480685833644753,-0.653839,-0.0893301,-1.11664
1480685833662800,-0.653839,-0.0893301,-1.11664
1480685833683856,-0.653839,-0.0893301,-1.11664
1480685833706416,-0.653839,-0.0893301,-1.11664
1480685833715441,-0.653909,-0.0892327,-1.11668
1480685833736496,-0.653839,-0.0893301,-1.11664
1480685833753542,-0.653839,-0.0893301,-1.11664
1480685833775600,-0.653839,-0.0893301,-1.11664
1480685833796155,-0.65403,-0.0892956,-1.11669
1480685833841776,-0.653909,-0.0892327,-1.11668
1480685833844284,-0.653909,-0.0892327,-1.11668
1480685833870856,-0.653839,-0.0893301,-1.11664
1480685833894427,-0.653839,-0.0893301,-1.11664
1480685833896930,-0.653909,-0.0892327,-1.11668
1480685833918489,-0.65403,-0.0892956,-1.11669
1480685833940546,-0.653909,-0.0892327,-1.11668
1480685833962606,-0.653909,-0.0892327,-1.11668
1480685833983661,-0.653909,-0.0892327,-1.11668
1480685833997197,-0.653909,-0.0892327,-1.11668
1480685834021261,-0.653909,-0.0892327,-1.11668
1480685834051341,-0.653909,-0.0892327,-1.11668
1480685834057368,-0.653909,-0.0892327,-1.11668
1480685834088941,-0.653909,-0.0892327,-1.11668
1480685834113005,-0.653909,-0.0892327,-1.11668
1480685834133560,-0.653979,-0.0891353,-1.11673
1480685834150103,-0.653909,-0.0892327,-1.11668
1480685834162637,-0.653909,-0.0892327,-1.11668
1480685834177177,-0.653979,-0.0891353,-1.11673
1480685834195226,-0.653979,-0.0891353,-1.11673
1480685834218787,-0.653979,-0.0891353,-1.11673
1480685834239843,-0.653979,-0.0891353,-1.11673
1480685834255383,-0.653553,-0.0887621,-1.11647
1480685834284462,-0.65352,-0.0884607,-1.1161
1480685834297997,-0.65359,-0.0883633,-1.11614
1480685834314541,-0.65366,-0.0882659,-1.11619
1480685834365176,-0.65359,-0.0883633,-1.11614
1480685834388738,-0.65359,-0.0883633,-1.11614
1480685834419821,-0.65359,-0.0883633,-1.11614
1480685834440376,-0.65359,-0.0883633,-1.11614
1480685834451906,-0.65366,-0.0882659,-1.11619
1480685834472461,-0.65366,-0.0882659,-1.11619
1480685834474967,-0.65366,-0.0882659,-1.11619
1480685834480989,-0.65366,-0.0882659,-1.11619
1480685834495021,-0.65366,-0.0882659,-1.11619
1480685834518083,-0.653647,-0.0882298,-1.11603
1480685834539640,-0.653647,-0.0882298,-1.11603
1480685834555181,-0.65366,-0.0882659,-1.11619
1480685834577241,-0.65366,-0.0882659,-1.11619
1480685834637400,-0.653781,-0.0883287,-1.1162
1480685834639907,-0.653768,-0.0882927,-1.11604
1480685834659459,-0.653781,-0.0883287,-1.1162
1480685834682019,-0.653781,-0.0883287,-1.1162
1480685834697058,-0.653768,-0.0882927,-1.11604
1480685834718114,-0.653768,-0.0882927,-1.11604
1480685834734659,-0.653768,-0.0882927,-1.11604
1480685834757224,-0.653647,-0.0882298,-1.11603
1480685834778780,-0.65366,-0.0882659,-1.11619
1480685834795320,-0.653768,-0.0882927,-1.11604
1480685834816877,-0.653838,-0.0881952,-1.11609
1480685834839437,-0.653838,-0.0881952,-1.11609
1480685834883052,-0.653768,-0.0882927,-1.11604
1480685834945720,-0.653768,-0.0882927,-1.11604
1480685834960258,-0.653838,-0.0881952,-1.11609
1480685834962263,-0.653768,-0.0882927,-1.11604
1480685834973794,-0.653838,-0.0881952,-1.11609
1480685834996857,-0.653838,-0.0881952,-1.11609
1480685835025933,-0.653838,-0.0881952,-1.11609
1480685835033954,-0.653717,-0.0881324,-1.11608
1480685835057015,-0.653717,-0.0881324,-1.11608
1480685835095618,-0.653717,-0.0881324,-1.11608
1480685835100631,-0.653717,-0.0881324,-1.11608
1480685835152770,-0.653717,-0.0881324,-1.11608
1480685835170818,-0.653717,-0.0881324,-1.11608
1480685835182849,-0.653717,-0.0881324,-1.11608
1480685835207416,-0.653717,-0.0881324,-1.11608
1480685835209922,-0.653838,-0.0881952,-1.11609
1480685835215437,-0.653908,-0.0880978,-1.11613
1480685835236995,-0.653908,-0.0880978,-1.11613
1480685835260057,-0.653717,-0.0881324,-1.11608
1480685835274093,-0.653717,-0.0881324,-1.11608
1480685835304674,-0.653838,-0.0881952,-1.11609
1480685835327742,-0.653908,-0.0880978,-1.11613
1480685835348290,-0.653787,-0.0880349,-1.11612
1480685835356813,-0.653717,-0.0881324,-1.11608
1480685835386893,-0.653717,-0.0881324,-1.11608
1480685835425497,-0.653717,-0.0881324,-1.11608
1480685835447553,-0.653838,-0.0881952,-1.11609
1480685835455073,-0.653838,-0.0881952,-1.11609
1480685835468108,-0.653119,-0.0881478,-1.11627
1480685835484653,-0.653287,-0.0879365,-1.11639
1480685835499692,-0.653287,-0.0879365,-1.11639
1480685835520749,-0.653367,-0.0879798,-1.11621
1480685835537293,-0.653344,-0.087803,-1.11628
1480685835559352,-0.653344,-0.087803,-1.11628
1480685835602968,-0.653199,-0.0881749,-1.11675
1480685835629036,-0.653199,-0.0881749,-1.11675
1480685835649090,-0.652989,-0.0878274,-1.11698
1480685835671148,-0.652989,-0.0878274,-1.11698
1480685835696716,-0.652868,-0.0877644,-1.11697
1480685835731810,-0.652794,-0.0880672,-1.11672
1480685835740834,-0.652635,-0.0886367,-1.11605
1480685835745851,-0.652827,-0.0893589,-1.11524
1480685835761897,-0.653089,-0.0928974,-1.11418
1480685835776931,-0.652953,-0.0956005,-1.11316
1480685835799490,-0.653995,-0.0994222,-1.11228
1480685835822050,-0.656971,-0.102846,-1.11125
1480685835836087,-0.659316,-0.105456,-1.11095
1480685835859651,-0.661011,-0.107207,-1.11084
1480685835882711,-0.661423,-0.10885,-1.11008
1480685835904268,-0.661129,-0.110394,-1.10938
1480685835943374,-0.662408,-0.111682,-1.10873
1480685835956409,-0.662882,-0.112588,-1.10838
1480685835971447,-0.661589,-0.113274,-1.10872
1480685836009047,-0.660086,-0.114229,-1.10866
1480685836028098,-0.658728,-0.114604,-1.10833
1480685836032108,-0.658212,-0.115074,-1.10793
1480685836039628,-0.65831,-0.115574,-1.10842
1480685836062689,-0.65765,-0.115441,-1.10959
1480685836083246,-0.657034,-0.114534,-1.11101
1480685836099287,-0.657663,-0.112487,-1.11203
1480685836121847,-0.656811,-0.109224,-1.11446
1480685836142903,-0.651035,-0.104435,-1.11764
1480685836159448,-0.642069,-0.101477,-1.12141
1480685836250189,-0.635399,-0.0989887,-1.12387
1480685836252695,-0.634694,-0.097686,-1.12492
1480685836264727,-0.63081,-0.092429,-1.13109
1480685836280268,-0.626644,-0.0901061,-1.13248
1480685836302828,-0.626295,-0.0869438,-1.1323
1480685836322881,-0.628957,-0.0844054,-1.13135
1480685836339426,-0.629207,-0.0816333,-1.13161
1480685836361985,-0.627939,-0.079643,-1.13216
1480685836383543,-0.626791,-0.078237,-1.13285
1480685836399084,-0.624317,-0.0766442,-1.13321
1480685836422145,-0.621853,-0.0759425,-1.13502
1480685836460752,-0.619541,-0.0751857,-1.13669
1480685836463256,-0.618702,-0.0742509,-1.13821
1480685836528930,-0.618492,-0.0738323,-1.13998
1480685836534945,-0.618544,-0.0739619,-1.14164
1480685836543970,-0.620616,-0.0749732,-1.14322
1480685836563020,-0.619443,-0.0753837,-1.14322
1480685836579564,-0.615997,-0.0752713,-1.14329
1480685836602125,-0.613283,-0.0745512,-1.14273
1480685836623179,-0.612216,-0.0739204,-1.14214
1480685836639724,-0.612362,-0.0728801,-1.14185
1480685836669303,-0.61217,-0.0710843,-1.14218
1480685836684343,-0.610036,-0.0700629,-1.1429
1480685836737484,-0.608277,-0.0702357,-1.14316
1480685836739990,-0.609143,-0.0703614,-1.14327
1480685836761548,-0.611323,-0.0697986,-1.14319
1480685836783106,-0.612032,-0.069096,-1.14291
1480685836788119,-0.612262,-0.0695784,-1.14249
1480685836804663,-0.613876,-0.0703617,-1.14223
1480685836819703,-0.616684,-0.07107,-1.14157
1480685836842263,-0.619909,-0.0717539,-1.14054
1480685836864322,-0.622682,-0.0717765,-1.13978
1480685836878863,-0.625033,-0.0720292,-1.13919
1480685836901921,-0.627019,-0.0724665,-1.13894
1480685836930500,-0.629469,-0.0731972,-1.13897
1480685836939020,-0.632513,-0.0740066,-1.13909
1480685837015223,-0.634953,-0.0747157,-1.13885
1480685837019735,-0.63613,-0.0755717,-1.13817
1480685837082402,-0.639542,-0.0769896,-1.13725
1480685837084908,-0.641515,-0.0769187,-1.13684
1480685837089419,-0.643303,-0.0779717,-1.13669
1480685837104460,-0.646894,-0.0796861,-1.13616
1480685837125515,-0.64833,-0.0801121,-1.13614
1480685837142060,-0.649726,-0.0812832,-1.13601
1480685837165121,-0.65249,-0.0829772,-1.13582
1480685837186178,-0.654756,-0.0842385,-1.13567
1480685837202220,-0.655826,-0.0851124,-1.13526
1480685837224279,-0.657386,-0.0864715,-1.13495
1480685837246840,-0.659602,-0.0877756,-1.13462
1480685837269398,-0.660818,-0.088455,-1.1343
1480685837284940,-0.660474,-0.0886298,-1.13466
1480685837305494,-0.659804,-0.0887375,-1.13481
1480685837323042,-0.659683,-0.0886738,-1.1348
1480685837344598,-0.659449,-0.0887865,-1.13473
1480685837366157,-0.659449,-0.0887865,-1.13473
1480685837382699,-0.658902,-0.0884339,-1.13475
1480685837404257,-0.657964,-0.088006,-1.13488
1480685837425816,-0.656914,-0.087221,-1.13494
1480685837441857,-0.656567,-0.0866309,-1.13522
1480685837464418,-0.655899,-0.0863034,-1.13552
1480685837492995,-0.655899,-0.0863034,-1.13552
1480685837503521,-0.65572,-0.0863724,-1.13562
1480685837524577,-0.655899,-0.0863034,-1.13552
1480685837545634,-0.655899,-0.0863034,-1.13552
1480685837562678,-0.65594,-0.0863125,-1.13582
1480685837585239,-0.655881,-0.086534,-1.13622
1480685837605793,-0.656496,-0.0868791,-1.13654
1480685837622337,-0.656701,-0.0868724,-1.13687
1480685837645399,-0.656883,-0.0867772,-1.13755
1480685837666956,-0.657327,-0.0869876,-1.13818
1480685837681997,-0.657226,-0.0868445,-1.13883
1480685837704556,-0.657149,-0.0863551,-1.13928
1480685837727121,-0.656845,-0.0857738,-1.13987
1480685837748172,-0.656845,-0.0857738,-1.13987
1480685837764716,-0.656832,-0.0857379,-1.13972
1480685837787778,-0.656902,-0.0857302,-1.14005
1480685837801313,-0.656848,-0.0861825,-1.14051
1480685837824375,-0.657185,-0.0875645,-1.14122
1480685837846935,-0.658841,-0.088549,-1.14183
1480685837867990,-0.659581,-0.0892809,-1.1425
1480685837893057,-0.659209,-0.0894711,-1.14284
1480685837907095,-0.659055,-0.0900466,-1.1431
1480685837921132,-0.659216,-0.0904662,-1.14298
1480685837944698,-0.659484,-0.0910123,-1.14287
1480685837967254,-0.659629,-0.091929,-1.1426
1480685837981293,-0.66069,-0.0931892,-1.14255
1480685838004353,-0.661271,-0.0937581,-1.14263
1480685838027919,-0.66115,-0.0936939,-1.14262
1480685838049473,-0.661737,-0.094059,-1.14291
1480685838064513,-0.662033,-0.0942343,-1.14339
1480685838087073,-0.662231,-0.0944331,-1.1435
1480685838118155,-0.662547,-0.0947861,-1.14391
1480685838126178,-0.662635,-0.0950471,-1.14447
1480685838147740,-0.663071,-0.0951112,-1.14545
1480685838169343,-0.663164,-0.095259,-1.14651
1480685838184383,-0.663001,-0.0953402,-1.14756
1480685838206943,-0.662369,-0.0955445,-1.1483
1480685838227998,-0.66235,-0.0957777,-1.14901
1480685838244547,-0.662989,-0.0958713,-1.14941
1480685838267604,-0.662989,-0.0958713,-1.14941
1480685838288159,-0.663105,-0.095606,-1.14919
1480685838304704,-0.663541,-0.0956134,-1.14897
1480685838332779,-0.664235,-0.0955975,-1.14847
1480685838355337,-0.665373,-0.0953852,-1.14796
1480685838365866,-0.666307,-0.0947329,-1.1474
1480685838392938,-0.666583,-0.0942211,-1.14714
1480685838408481,-0.66649,-0.0941396,-1.14716
1480685838425023,-0.666941,-0.0940843,-1.14693
1480685838447584,-0.668039,-0.0942717,-1.14676
1480685838468639,-0.668872,-0.0946777,-1.14678
1480685838491214,-0.669166,-0.0952894,-1.1471
1480685838507242,-0.669927,-0.0966472,-1.14744
1480685838528298,-0.670947,-0.0979816,-1.14749
1480685838544340,-0.672021,-0.0986082,-1.14781
1480685838567402,-0.672008,-0.0985711,-1.14765
1480685838589460,-0.671471,-0.0986858,-1.14767
1480685838603998,-0.670537,-0.0992483,-1.14795
1480685838636084,-0.670538,-0.100104,-1.14831
1480685838657140,-0.671176,-0.100634,-1.14857
1480685838672181,-0.671347,-0.101273,-1.14917
1480685838694740,-0.670525,-0.101751,-1.14981
1480685838725321,-0.669876,-0.102363,-1.15012
1480685838727327,-0.669315,-0.102824,-1.15035
1480685838747382,-0.668837,-0.102805,-1.15026
1480685838769438,-0.668397,-0.102476,-1.15013
1480685838791999,-0.66797,-0.102183,-1.15015
1480685838814561,-0.667892,-0.102482,-1.14989
1480685838830605,-0.667832,-0.10305,-1.14985
1480685838850655,-0.667983,-0.103854,-1.15009
1480685838867199,-0.667911,-0.10395,-1.15004
1480685838891764,-0.668376,-0.103932,-1.14997
1480685838912321,-0.668693,-0.103874,-1.14974
1480685838926857,-0.669082,-0.104064,-1.14912
1480685838956938,-0.670128,-0.104295,-1.14877
1480685838964961,-0.671823,-0.10467,-1.14831
1480685838995039,-0.67296,-0.105073,-1.14823
1480685839009578,-0.672973,-0.10511,-1.14838
1480685839038655,-0.672706,-0.104915,-1.14793
1480685839049183,-0.672833,-0.104796,-1.14736
1480685839069737,-0.672905,-0.1047,-1.14741
1480685839090292,-0.672976,-0.104604,-1.14745
1480685839112855,-0.672976,-0.104604,-1.14745
1480685839131401,-0.672234,-0.104279,-1.14742
1480685839151955,-0.671756,-0.103827,-1.14748
1480685839167497,-0.671756,-0.103827,-1.14748
1480685839198079,-0.671949,-0.103795,-1.14754
1480685839212618,-0.671756,-0.103827,-1.14748
1480685839250217,-0.671756,-0.103827,-1.14748
1480685839252723,-0.671756,-0.103827,-1.14748
1480685839278294,-0.671756,-0.103827,-1.14748
1480685839301854,-0.671827,-0.10373,-1.14753
1480685839317897,-0.671827,-0.10373,-1.14753
1480685839330934,-0.671634,-0.103762,-1.14748
1480685839346976,-0.67216,-0.104052,-1.14702
1480685839376052,-0.672535,-0.104295,-1.14653
1480685839390591,-0.673066,-0.104382,-1.14629
1480685839429695,-0.672974,-0.104301,-1.14631
1480685839432201,-0.672902,-0.104397,-1.14626
1480685839450753,-0.672873,-0.104414,-1.14624
1480685839468297,-0.672424,-0.103945,-1.14633
1480685839489353,-0.671616,-0.103513,-1.14646
1480685839513419,-0.671616,-0.103513,-1.14646
1480685839532969,-0.671436,-0.103582,-1.14657
1480685839557535,-0.671008,-0.103724,-1.14644
1480685839580604,-0.670832,-0.103268,-1.14641
1480685839604158,-0.670832,-0.103268,-1.14641
1480685839609675,-0.67076,-0.103364,-1.14636
1480685839631732,-0.67076,-0.103364,-1.14636
1480685839647274,-0.66987,-0.103,-1.14617
1480685839669332,-0.669147,-0.102531,-1.14572
1480685839706932,-0.669147,-0.102531,-1.14572
1480685839709439,-0.669807,-0.102389,-1.14541
1480685839729492,-0.669807,-0.102389,-1.14541
1480685839752053,-0.669308,-0.102194,-1.14539
1480685839766591,-0.669308,-0.102194,-1.14539
1480685839791156,-0.669308,-0.102194,-1.14539
1480685839813719,-0.669308,-0.102194,-1.14539
1480685839834772,-0.668741,-0.102004,-1.14504
1480685839849312,-0.668184,-0.101942,-1.14513
1480685839872371,-0.668171,-0.101905,-1.14497
1480685839894431,-0.668171,-0.101905,-1.14497
1480685839909470,-0.668171,-0.101905,-1.14497
1480685839932032,-0.66773,-0.101576,-1.14484
1480685839946570,-0.667467,-0.10127,-1.14489
1480685839970131,-0.667467,-0.10127,-1.14489
1480685839999710,-0.667538,-0.101174,-1.14494
1480685840006227,-0.667538,-0.101174,-1.14494
1480685840029793,-0.666869,-0.100754,-1.14495
1480685840066387,-0.666674,-0.100442,-1.14534
1480685840072904,-0.667173,-0.100637,-1.14536
1480685840090953,-0.667173,-0.100637,-1.14536
1480685840112010,-0.667173,-0.100637,-1.14536
1480685840133566,-0.667173,-0.100637,-1.14536
1480685840150110,-0.667173,-0.100637,-1.14536
1480685840172169,-0.667173,-0.100637,-1.14536
1480685840193226,-0.667244,-0.100541,-1.1454
1480685840209268,-0.667244,-0.100541,-1.1454
1480685840231828,-0.66661,-0.0999004,-1.14566
1480685840253886,-0.665344,-0.0989634,-1.14572
1480685840277951,-0.664935,-0.0985281,-1.14533
1480685840299507,-0.665488,-0.0987032,-1.14474
1480685840320564,-0.666138,-0.0988553,-1.14451
1480685840343125,-0.666143,-0.0986744,-1.14393
1480685840368190,-0.665678,-0.0982821,-1.14336
1480685840373204,-0.665093,-0.0982373,-1.14343
1480685840389747,-0.664303,-0.0977535,-1.14343
1480685840412308,-0.663682,-0.0975847,-1.14369
1480685840434366,-0.662548,-0.098153,-1.14364
1480685840448907,-0.662016,-0.0994683,-1.14359
1480685840471966,-0.662202,-0.100485,-1.14392
1480685840510570,-0.663012,-0.101147,-1.14385
1480685840516083,-0.662739,-0.10069,-1.14425
1480685840532126,-0.663056,-0.100609,-1.14481
1480685840554687,-0.664067,-0.100946,-1.14472
1480685840577748,-0.664944,-0.101715,-1.14448
1480685840600308,-0.665809,-0.102012,-1.14423
1480685840621865,-0.666294,-0.10217,-1.1441
1480685840629386,-0.666985,-0.102333,-1.14417
1480685840657961,-0.66727,-0.102383,-1.1442
1480685840680522,-0.667782,-0.102615,-1.14438
1480685840689046,-0.668518,-0.102608,-1.14418
1480685840712611,-0.668518,-0.102608,-1.14418
1480685840735165,-0.668518,-0.102608,-1.14418
1480685840755720,-0.668518,-0.102608,-1.14418
1480685840771763,-0.668518,-0.102608,-1.14418
1480685840794324,-0.668518,-0.102608,-1.14418
1480685840810871,-0.668518,-0.102608,-1.14418
1480685840839945,-0.66859,-0.102511,-1.14423
1480685840854984,-0.668426,-0.102526,-1.1442
1480685840877044,-0.668547,-0.102591,-1.14421
1480685840899604,-0.668518,-0.102608,-1.14418
1480685840920659,-0.668413,-0.102055,-1.1442
1480685840928680,-0.667572,-0.10141,-1.14424
1480685840952744,-0.66686,-0.10107,-1.14423
1480685840974302,-0.666101,-0.100478,-1.14398
1480685840995358,-0.665481,-0.0998071,-1.14331
1480685841011902,-0.664756,-0.0994303,-1.14315
1480685841034462,-0.66541,-0.0999034,-1.14326
1480685841055519,-0.665288,-0.0998391,-1.14326
1480685841072563,-0.66484,-0.0998051,-1.1432
1480685841094622,-0.664911,-0.0997088,-1.14324
1480685841116179,-0.664772,-0.0993768,-1.14301
1480685841133726,-0.664388,-0.0990064,-1.14306
1480685841154782,-0.664329,-0.0991394,-1.14317
1480685841176841,-0.664329,-0.0991394,-1.14317
1480685841197897,-0.663945,-0.098769,-1.14322
1480685841229982,-0.664037,-0.0988501,-1.1432
1480685841235497,-0.663945,-0.098769,-1.14322
1480685841252040,-0.664298,-0.0992464,-1.14343
1480685841274601,-0.664298,-0.0992464,-1.14343
1480685841296658,-0.664298,-0.0992464,-1.14343
1480685841320723,-0.664285,-0.0992097,-1.14327
1480685841334761,-0.664905,-0.0990342,-1.14345
1480685841356819,-0.664905,-0.0990342,-1.14345
1480685841419486,-0.664833,-0.0991305,-1.14341
1480685841434024,-0.665632,-0.0993207,-1.14333
1480685841438034,-0.665825,-0.0992887,-1.14338
1480685841462099,-0.665753,-0.099385,-1.14334
1480685841477140,-0.665632,-0.0993207,-1.14333
1480685841492179,-0.665753,-0.099385,-1.14334
1480685841515742,-0.665456,-0.0988647,-1.1433
1480685841537299,-0.664873,-0.0987297,-1.14307
1480685841551837,-0.664096,-0.0987171,-1.14308
1480685841574398,-0.663192,-0.0984093,-1.14302
1480685841596957,-0.662451,-0.0977416,-1.14343
1480685841625535,-0.662421,-0.0974138,-1.14384
1480685841694217,-0.661834,-0.0974588,-1.14419
1480685841734323,-0.660987,-0.0971075,-1.14431
1480685841754878,-0.661001,-0.097144,-1.14446
1480685841756883,-0.660987,-0.0971075,-1.14431
1480685841761896,-0.66133,-0.0970238,-1.14423
1480685841776936,-0.661272,-0.0971567,-1.14434
1480685841799496,-0.661343,-0.0970603,-1.14438
1480685841815540,-0.661241,-0.0964182,-1.14411
1480685841837096,-0.661024,-0.0959428,-1.14389
1480685841851134,-0.659965,-0.095101,-1.14446
1480685841874697,-0.65995,-0.0931657,-1.14537
1480685841896754,-0.662561,-0.0917832,-1.14642
1480685841911294,-0.66579,-0.0904325,-1.14744
1480685841985992,-0.666204,-0.0885611,-1.14827
1480685842010558,-0.665356,-0.0869507,-1.1491
1480685842034120,-0.665754,-0.083315,-1.15049
1480685842045651,-0.666035,-0.0829529,-1.14988
1480685842054675,-0.665312,-0.0831578,-1.14921
1480685842076735,-0.665099,-0.0835955,-1.14873
1480685842097789,-0.665196,-0.0838264,-1.14836
1480685842114334,-0.665244,-0.0839869,-1.14832
1480685842138398,-0.664603,-0.0845674,-1.1477
1480685842165971,-0.66205,-0.0849363,-1.14696
1480685842175998,-0.660166,-0.0853818,-1.14664
1480685842196553,-0.659302,-0.0857828,-1.14588
1480685842225129,-0.658725,-0.085888,-1.1456
1480685842273757,-0.657704,-0.0862793,-1.14561
1480685842276270,-0.657865,-0.0874633,-1.14556
1480685842286792,-0.657486,-0.0885317,-1.14547
1480685842303859,-0.65835,-0.0890611,-1.14529
1480685842317395,-0.659472,-0.0895763,-1.14471
1480685842337950,-0.659472,-0.0895763,-1.14471
1480685842354493,-0.659776,-0.0895472,-1.1454
1480685842377054,-0.660758,-0.088702,-1.14536
1480685842398109,-0.660893,-0.0879488,-1.14516
1480685842414653,-0.658609,-0.0870841,-1.14488
1480685842437214,-0.656031,-0.086633,-1.14534
1480685842459777,-0.656455,-0.0869242,-1.14532
1480685842495368,-0.656626,-0.0878242,-1.14508
1480685842520435,-0.655353,-0.0888156,-1.145
1480685842539986,-0.654991,-0.0894757,-1.14534
1480685842566056,-0.656134,-0.0903211,-1.14606
1480685842587613,-0.657624,-0.0905603,-1.14656
1480685842590120,-0.657891,-0.090752,-1.14701
1480685842597140,-0.657699,-0.090784,-1.14696
1480685842617193,-0.658638,-0.0907829,-1.14697
1480685842639752,-0.659493,-0.0904965,-1.14722
1480685842653789,-0.659955,-0.0905673,-1.14744
1480685842677854,-0.660495,-0.0914479,-1.14756
1480685842699410,-0.660754,-0.0918441,-1.1478
1480685842713951,-0.660754,-0.0918441,-1.1478
1480685842737011,-0.660826,-0.0917478,-1.14784
1480685842774109,-0.660826,-0.0917478,-1.14784
1480685842789651,-0.660706,-0.0916834,-1.14783
1480685842826251,-0.660623,-0.0921625,-1.14815
1480685842835272,-0.660609,-0.0921263,-1.14799
1480685842843293,-0.660701,-0.0922078,-1.14797
1480685842864850,-0.660097,-0.0919839,-1.1481
1480685842879890,-0.659123,-0.09186,-1.14828
1480685842901949,-0.659123,-0.09186,-1.14828
1480685842917992,-0.659002,-0.0917955,-1.14827
1480685842939047,-0.660397,-0.0919803,-1.148
1480685842968627,-0.660469,-0.091884,-1.14805
1480685842977150,-0.660276,-0.0919159,-1.148
1480685842999210,-0.660716,-0.0921544,-1.14784
1480685843057865,-0.662742,-0.0918709,-1.14768
1480685843120028,-0.66483,-0.091776,-1.14776
1480685843122536,-0.665958,-0.0915042,-1.14789
1480685843134067,-0.663674,-0.0909562,-1.14797
1480685843142088,-0.660416,-0.0898742,-1.14758
1480685843164647,-0.65903,-0.0897509,-1.14721
1480685843179688,-0.657881,-0.090281,-1.147
1480685843201747,-0.657696,-0.0912282,-1.14668
1480685843231826,-0.657834,-0.0919052,-1.14647
1480685843239847,-0.658026,-0.0918732,-1.14653
1480685843260903,-0.65831,-0.0919226,-1.14656
1480685843276448,-0.658585,-0.0922653,-1.14667
1480685843365181,-0.659024,-0.0925037,-1.14651
1480685843376210,-0.659024,-0.0925037,-1.14651
1480685843399773,-0.659058,-0.0927176,-1.1466
1480685843419325,-0.659612,-0.0936341,-1.14688
1480685843443389,-0.658824,-0.0932386,-1.14717
1480685843456925,-0.658824,-0.0932386,-1.14717
1480685843480487,-0.659461,-0.0936761,-1.14713
1480685843502044,-0.659687,-0.0938582,-1.14728
1480685843524605,-0.659616,-0.0939545,-1.14723
1480685843586770,-0.660804,-0.0938787,-1.14748
1480685843613341,-0.662249,-0.09387,-1.14773
1480685843631389,-0.662004,-0.0934201,-1.14736
1480685843638408,-0.660207,-0.092687,-1.14774
1480685843650439,-0.658339,-0.0920496,-1.14808
1480685843659467,-0.657495,-0.0916968,-1.14819
1480685843688039,-0.655874,-0.091774,-1.14804
1480685843696562,-0.653726,-0.0921084,-1.1477
1480685843720627,-0.653023,-0.0923544,-1.1472
1480685843742184,-0.654044,-0.092639,-1.14698
1480685843756221,-0.654998,-0.0925849,-1.14686
1480685843779783,-0.654998,-0.0925849,-1.14686
1480685843839943,-0.654805,-0.0926169,-1.14681
1480685843844959,-0.655606,-0.0930488,-1.14668
1480685843894087,-0.657825,-0.0933085,-1.14619
1480685843901106,-0.657825,-0.0933085,-1.14619
1480685843908627,-0.657087,-0.0929846,-1.14615
1480685843922161,-0.656522,-0.0924512,-1.14624
1480685843950739,-0.656522,-0.0924512,-1.14624
1480685843966781,-0.656643,-0.0925155,-1.14624
1480685843990344,-0.656522,-0.0924512,-1.14624
1480685844003879,-0.656542,-0.0926289,-1.14617
1480685844020424,-0.656556,-0.092665,-1.14633
1480685844041982,-0.656542,-0.0926289,-1.14617
1480685844063539,-0.656614,-0.0925325,-1.14622
1480685844101639,-0.656855,-0.0926613,-1.14623
1480685844169319,-0.657208,-0.0930491,-1.14616
1480685844175836,-0.657661,-0.0933236,-1.14616
1480685844186867,-0.657661,-0.0933236,-1.14616
1480685844199399,-0.657907,-0.0936831,-1.14624
1480685844222461,-0.657907,-0.0936831,-1.14624
1480685844245024,-0.658028,-0.0937475,-1.14625
1480685844273095,-0.657887,-0.0935054,-1.14631
1480685844297159,-0.657887,-0.0935054,-1.14631
1480685844312705,-0.657887,-0.0935054,-1.14631
1480685844319719,-0.657887,-0.0935054,-1.14631
1480685844355315,-0.657887,-0.0935054,-1.14631
1480685844392917,-0.657887,-0.0935054,-1.14631
1480685844419986,-0.658173,-0.0934655,-1.14605
1480685844424999,-0.658884,-0.0937168,-1.14577
1480685844432018,-0.65933,-0.0941952,-1.14556
1480685844438535,-0.659743,-0.0948048,-1.14482
1480685844462098,-0.65935,-0.0959519,-1.14407
1480685844485159,-0.657547,-0.0965613,-1.1431
1480685844498695,-0.655379,-0.0971949,-1.14177
1480685844522759,-0.652898,-0.0983237,-1.14052
1480685844544318,-0.649719,-0.0984781,-1.13964
1480685844566876,-0.646633,-0.0978638,-1.13837
1480685844656615,-0.644217,-0.0971173,-1.13773
1480685844680178,-0.644026,-0.0971501,-1.13768
1480685844700231,-0.643838,-0.097662,-1.13658
1480685844718783,-0.640327,-0.0974976,-1.13527
1480685844731815,-0.638828,-0.0974107,-1.13521
1480685844738834,-0.640039,-0.0976572,-1.13503
1480685844784956,-0.64362,-0.0988629,-1.1343
1480685844787463,-0.645919,-0.0980907,-1.13401
1480685844806013,-0.643464,-0.0954464,-1.13242
1480685844822556,-0.640216,-0.094504,-1.13168
1480685844845117,-0.640363,-0.0946715,-1.13122
1480685844917809,-0.643359,-0.0940194,-1.1302
1480685844959426,-0.646253,-0.0921736,-1.12956
1480685844982481,-0.647479,-0.0910192,-1.12796
1480685845005042,-0.641772,-0.0943639,-1.12184
1480685845017575,-0.635661,-0.0937148,-1.12044
1480685845032113,-0.63888,-0.0960572,-1.11993
1480685845062695,-0.640527,-0.0964623,-1.12116
1480685845064700,-0.640806,-0.0969967,-1.12211
1480685845084252,-0.642513,-0.0988813,-1.12181
1480685845108822,-0.643888,-0.101408,-1.12096
1480685845121852,-0.642469,-0.10243,-1.11994
1480685845151933,-0.643775,-0.102431,-1.11939
1480685845181009,-0.645838,-0.102684,-1.1198
1480685845197052,-0.646937,-0.103175,-1.11997
1480685845204572,-0.646636,-0.104117,-1.11979
1480685845228135,-0.644004,-0.104383,-1.11975
1480685845242178,-0.640044,-0.10395,-1.12019
1480685845264732,-0.637518,-0.10296,-1.12071
1480685845288796,-0.635862,-0.102487,-1.12105
1480685845301329,-0.627888,-0.101718,-1.12003
1480685845337927,-0.61816,-0.100198,-1.1193
1480685845354471,-0.616589,-0.0988131,-1.11947
1480685845361489,-0.617166,-0.0979959,-1.11994
1480685845391069,-0.618757,-0.0970761,-1.12167
1480685845421649,-0.624763,-0.0967297,-1.12347
1480685845451729,-0.631219,-0.0961958,-1.12527
1480685845482311,-0.635216,-0.0956728,-1.12714
1480685845488326,-0.6374,-0.095547,-1.12876
1480685845513394,-0.639286,-0.0956702,-1.12949
1480685845518407,-0.63926,-0.0961022,-1.12998
1480685845534449,-0.638513,-0.0966874,-1.13045
1480685845541468,-0.636751,-0.0969422,-1.13009
1480685845564529,-0.634599,-0.0972443,-1.12934
1480685845587591,-0.632592,-0.0976673,-1.12904
1480685845617169,-0.633633,-0.0981209,-1.12875
1480685845631707,-0.636809,-0.0991872,-1.12865
1480685845654267,-0.639263,-0.101136,-1.12846
1480685845662791,-0.640284,-0.102784,-1.12781
1480685845715431,-0.638011,-0.102903,-1.12756
1480685845729969,-0.635936,-0.102694,-1.12728
1480685845745010,-0.636604,-0.103229,-1.12677
1480685845749521,-0.640466,-0.104968,-1.12593
1480685845768571,-0.64193,-0.105891,-1.12513
1480685845789628,-0.639607,-0.105449,-1.12428
1480685845812188,-0.635682,-0.104697,-1.12373
1480685845827228,-0.633077,-0.104301,-1.12315
1480685845848283,-0.63102,-0.103926,-1.12325
1480685845864828,-0.630441,-0.103678,-1.12353
1480685845892906,-0.630631,-0.103644,-1.12358
1480685845907943,-0.629157,-0.1031,-1.12381
1480685845952561,-0.625944,-0.102124,-1.12391
1480685845964092,-0.621936,-0.101367,-1.12381
1480685845984145,-0.621566,-0.100513,-1.12386
1480685846001692,-0.622153,-0.099009,-1.12362
1480685846006705,-0.622456,-0.0975447,-1.12365
1480685846029264,-0.622794,-0.0961674,-1.12426
1480685846045309,-0.623749,-0.0949569,-1.12461
1480685846067868,-0.624212,-0.0942037,-1.12459
1480685846087921,-0.625584,-0.0936967,-1.1245
1480685846104466,-0.626482,-0.0933872,-1.12412
1480685846128028,-0.625992,-0.0925937,-1.12368
1480685846148081,-0.626336,-0.0924593,-1.12253
1480685846164625,-0.628233,-0.0926813,-1.12184
1480685846215262,-0.629881,-0.0926337,-1.12136
1480685846263388,-0.628861,-0.0919624,-1.12095
1480685846275923,-0.627672,-0.0917111,-1.12022
1480685846299985,-0.627131,-0.0925662,-1.11925
1480685846302491,-0.628181,-0.0927374,-1.11877
1480685846308510,-0.629236,-0.0933436,-1.11814
1480685846345607,-0.629427,-0.0939528,-1.11784
1480685846353628,-0.629954,-0.094559,-1.11774
1480685846367164,-0.630143,-0.0945244,-1.11779
1480685846390727,-0.629599,-0.0946981,-1.11795
1480685846403761,-0.628704,-0.0949253,-1.11804
1480685846426823,-0.627123,-0.0950861,-1.11835
1480685846462918,-0.625491,-0.0950852,-1.11871
1480685846493002,-0.623976,-0.0947117,-1.11921
1480685846511047,-0.624029,-0.0945398,-1.11987
1480685846532603,-0.624901,-0.0945336,-1.12048
1480685846535109,-0.624695,-0.0944942,-1.12105
1480685846554662,-0.624009,-0.0943025,-1.12177
1480685846570706,-0.62327,-0.0941581,-1.12232
1480685846585244,-0.623826,-0.0938966,-1.1228
1480685846606801,-0.624458,-0.0938884,-1.1229
1480685846629361,-0.624445,-0.0938536,-1.12274
1480685846652925,-0.623829,-0.0942082,-1.12315
1480685846667963,-0.62435,-0.0949007,-1.12334
1480685846689521,-0.625294,-0.0953579,-1.12335
1480685846710578,-0.625336,-0.0952755,-1.12337
1480685846727121,-0.624836,-0.0953819,-1.12343
1480685846749681,-0.624766,-0.0954796,-1.12339
1480685846772742,-0.624646,-0.095416,-1.12338
1480685846786779,-0.624836,-0.0953819,-1.12343
1480685846816859,-0.624365,-0.0953712,-1.12335
1480685846831899,-0.624245,-0.0953076,-1.12335
1480685846852955,-0.624176,-0.0954053,-1.1233
1480685846870001,-0.624176,-0.0954053,-1.1233
1480685846899580,-0.624296,-0.0954689,-1.12331
1480685846907099,-0.624296,-0.0954689,-1.12331
1480685846929659,-0.624296,-0.0954689,-1.12331
1480685846950716,-0.624296,-0.0954689,-1.12331
1480685846980796,-0.624296,-0.0954689,-1.12331
1480685847003355,-0.624296,-0.0954689,-1.12331
1480685847032937,-0.624296,-0.0954689,-1.12331
1480685847050982,-0.624589,-0.0955485,-1.1235
1480685847055995,-0.62452,-0.0956462,-1.12345
1480685847073543,-0.624049,-0.0956355,-1.12338
1480685847094598,-0.624049,-0.0956355,-1.12338
1480685847110140,-0.624049,-0.0956355,-1.12338
1480685847130694,-0.624049,-0.0956355,-1.12338
1480685847147240,-0.624049,-0.0956355,-1.12338
1480685847170299,-0.624049,-0.0956355,-1.12338
1480685847199377,-0.624049,-0.0956355,-1.12338
1480685847206897,-0.624239,-0.0956014,-1.12343
1480685847260539,-0.624169,-0.0956991,-1.12338
1480685847266555,-0.624049,-0.0956355,-1.12338
1480685847275583,-0.624112,-0.0958316,-1.1235
1480685847289115,-0.624169,-0.0956991,-1.12338
1480685847312678,-0.624141,-0.0957144,-1.12336
1480685847326216,-0.624141,-0.0957144,-1.12336
1480685847349276,-0.624084,-0.0958469,-1.12347
1480685847371836,-0.624084,-0.0958469,-1.12347
1480685847394395,-0.624084,-0.0958469,-1.12347
1480685847409436,-0.624191,-0.0958757,-1.12332
1480685847431995,-0.624191,-0.0958757,-1.12332
1480685847455558,-0.624084,-0.0958469,-1.12347
1480685847485638,-0.62457,-0.0963282,-1.12356
1480685847492158,-0.625373,-0.0965452,-1.12363
1480685847506194,-0.626432,-0.0967373,-1.12342
1480685847529254,-0.62641,-0.0966842,-1.12299
1480685847552316,-0.62621,-0.0969303,-1.12179
1480685847574374,-0.626682,-0.0971877,-1.12088
1480685847596935,-0.627354,-0.0974285,-1.12029
1480685847635035,-0.629377,-0.0975033,-1.11982
1480685847640551,-0.630887,-0.097527,-1.11975
1480685847674139,-0.630767,-0.0974636,-1.11974
1480685847687675,-0.630726,-0.0975459,-1.11972
1480685847693191,-0.631094,-0.0979632,-1.11981
1480685847709232,-0.631163,-0.0978656,-1.11985
1480685847737808,-0.62997,-0.0980979,-1.12005
1480685847752848,-0.627367,-0.0979844,-1.12059
1480685847769392,-0.623961,-0.0977386,-1.12136
1480685847791958,-0.622377,-0.0979811,-1.12197
1480685847814514,-0.622619,-0.0987531,-1.12163
1480685847830054,-0.620731,-0.0984859,-1.12126
1480685847852614,-0.619292,-0.0985731,-1.12117
1480685847882694,-0.619605,-0.0990382,-1.12109
1480685847896730,-0.620643,-0.0996976,-1.12058
1480685847920294,-0.621203,-0.0999957,-1.12043
1480685847941854,-0.623815,-0.101916,-1.12026
1480685847964411,-0.626568,-0.10364,-1.12017
1480685847987472,-0.626568,-0.10364,-1.12017
1480685847993489,-0.625858,-0.103917,-1.12061
1480685848011036,-0.626543,-0.103861,-1.12088
1480685848033093,-0.626313,-0.103248,-1.12087
1480685848053147,-0.625104,-0.103009,-1.12106
1480685848069190,-0.625012,-0.10293,-1.12108
1480685848092252,-0.625363,-0.103398,-1.1213
1480685848114310,-0.625363,-0.103398,-1.1213
1480685848135366,-0.625363,-0.103398,-1.1213
1480685848151910,-0.624629,-0.103084,-1.12127
1480685848181990,-0.623781,-0.103035,-1.12147
1480685848197030,-0.623711,-0.103133,-1.12143
1480685848242650,-0.623901,-0.103099,-1.12148
1480685848244657,-0.623889,-0.103064,-1.12132
1480685848256689,-0.623487,-0.102956,-1.12129
1480685848272229,-0.622472,-0.102597,-1.12124
1480685848300304,-0.622472,-0.102597,-1.12124
1480685848308826,-0.622939,-0.102692,-1.1216
1480685848332390,-0.623609,-0.10281,-1.1215
1480685848354950,-0.623609,-0.10281,-1.1215
1480685848376508,-0.623047,-0.102721,-1.12145
1480685848392052,-0.622978,-0.102819,-1.12141
1480685848415611,-0.623047,-0.102721,-1.12145
1480685848437670,-0.623167,-0.102785,-1.12145
1480685848452208,-0.623047,-0.102721,-1.12145
1480685848474773,-0.623047,-0.102721,-1.12145
1480685848496827,-0.622978,-0.102819,-1.12141
1480685848503845,-0.622749,-0.102726,-1.12155
1480685848520892,-0.622806,-0.102594,-1.12144
1480685848544454,-0.622818,-0.102629,-1.12159
1480685848564005,-0.622749,-0.102726,-1.12155
1480685848577542,-0.622309,-0.102492,-1.12171
1480685848599600,-0.622028,-0.102447,-1.12168
1480685848616144,-0.622028,-0.102447,-1.12168
1480685848647728,-0.622028,-0.102447,-1.12168
1480685848661264,-0.622028,-0.102447,-1.12168
1480685848685328,-0.622028,-0.102447,-1.12168
1480685848704901,-0.622028,-0.102447,-1.12168
1480685848736965,-0.622097,-0.10235,-1.12172
1480685848740476,-0.622097,-0.10235,-1.12172
1480685848773563,-0.621398,-0.102247,-1.12179
1480685848779579,-0.621209,-0.102281,-1.12174
1480685848820688,-0.621209,-0.102281,-1.12174
1480685848824705,-0.621398,-0.102247,-1.12179
1480685848847259,-0.620735,-0.101835,-1.12181
1480685848863803,-0.620735,-0.101835,-1.12181
1480685848880347,-0.620614,-0.101771,-1.1218
1480685848899899,-0.621313,-0.101874,-1.12173
1480685848922460,-0.621313,-0.101874,-1.12173
1480685848948027,-0.621313,-0.101874,-1.12173
1480685848964069,-0.621313,-0.101874,-1.12173
1480685848985126,-0.621244,-0.101972,-1.12169
1480685849006181,-0.621313,-0.101874,-1.12173
1480685849027240,-0.621822,-0.102011,-1.12162
1480685849057823,-0.621822,-0.102011,-1.12162
1480685849067846,-0.621822,-0.102011,-1.12162
1480685849079877,-0.621822,-0.102011,-1.12162
1480685849102437,-0.621702,-0.101947,-1.12161
1480685849119482,-0.62254,-0.101645,-1.12183
1480685849157083,-0.62375,-0.101676,-1.12186
1480685849162096,-0.626,-0.101324,-1.12109
1480685849177137,-0.626398,-0.101038,-1.11954
1480685849199710,-0.625143,-0.100157,-1.11884
1480685849222256,-0.62635,-0.0995411,-1.11921
1480685849240305,-0.630372,-0.0990579,-1.11952
1480685849270383,-0.632144,-0.0987414,-1.11975
1480685849293946,-0.629514,-0.0980372,-1.11984
1480685849304977,-0.627968,-0.0980105,-1.11961
1480685849327536,-0.625725,-0.0976735,-1.11966
1480685849360122,-0.624104,-0.0975822,-1.12066
1480685849362629,-0.624865,-0.0982774,-1.12136
1480685849381180,-0.625059,-0.0991994,-1.12141
1480685849402234,-0.624323,-0.0990944,-1.12117
1480685849441842,-0.624657,-0.0985707,-1.12123
1480685849444347,-0.626849,-0.0992688,-1.12136
1480685849463898,-0.626396,-0.0989993,-1.12136
1480685849480442,-0.623695,-0.0984979,-1.12064
1480685849499994,-0.620968,-0.0985341,-1.12005
1480685849523557,-0.620901,-0.0990914,-1.11881
1480685849544613,-0.62252,-0.0993919,-1.1176
1480685849562662,-0.624476,-0.100937,-1.11666
1480685849582213,-0.623849,-0.101882,-1.11723
1480685849599258,-0.625459,-0.102413,-1.11793
1480685849621317,-0.626803,-0.103249,-1.1191
1480685849643877,-0.624721,-0.102975,-1.1204
1480685849660421,-0.620849,-0.101718,-1.12003
1480685849697019,-0.618149,-0.101019,-1.11859
1480685849711057,-0.617806,-0.100594,-1.1176
1480685849725098,-0.624214,-0.101906,-1.11574
1480685849739631,-0.62867,-0.104133,-1.11484
1480685849770714,-0.627512,-0.106543,-1.11488
1480685849778736,-0.624131,-0.107123,-1.11618
1480685849803301,-0.62561,-0.107971,-1.11723
1480685849822352,-0.625688,-0.108096,-1.11828
1480685849854938,-0.622996,-0.106881,-1.11884
1480685849859952,-0.619875,-0.104742,-1.11885
1480685849882512,-0.616542,-0.101949,-1.11778
1480685849908582,-0.617057,-0.100878,-1.1168
1480685849952197,-0.619625,-0.101942,-1.11594
1480685849959216,-0.62222,-0.103075,-1.1154
1480685849961722,-0.623152,-0.104518,-1.11528
1480685849979771,-0.620101,-0.105391,-1.11593
1480685850002330,-0.617444,-0.104684,-1.11667
1480685850020379,-0.616932,-0.104212,-1.11748
1480685850039932,-0.617734,-0.103486,-1.11781
1480685850070012,-0.617663,-0.102544,-1.11748
1480685850082043,-0.618474,-0.10238,-1.11718
1480685850099588,-0.619592,-0.10212,-1.11742
1480685850122148,-0.619277,-0.101655,-1.11751
1480685850140699,-0.617313,-0.101139,-1.11753
1480685850160250,-0.616037,-0.10121,-1.11747
1480685850208378,-0.616338,-0.10185,-1.11702
1480685850213392,-0.617588,-0.10213,-1.11635
1480685850227429,-0.61994,-0.102407,-1.11586
1480685850243973,-0.621223,-0.10319,-1.11537
1480685850261520,-0.620191,-0.103094,-1.11524
1480685850287087,-0.618249,-0.102756,-1.1152
1480685850304133,-0.6181,-0.102811,-1.11533
1480685850336720,-0.61877,-0.102927,-1.11524
1480685850349755,-0.620259,-0.103206,-1.11508
1480685850362789,-0.619897,-0.103436,-1.11464
1480685850384847,-0.619025,-0.10374,-1.11412
1480685850402895,-0.617718,-0.103728,-1.11348
1480685850422447,-0.616484,-0.103114,-1.113
1480685850445010,-0.617416,-0.103011,-1.11271
1480685850461050,-0.61726,-0.102948,-1.1124
1480685850482107,-0.616178,-0.102692,-1.11231
1480685850504666,-0.616001,-0.102762,-1.11242
1480685850536250,-0.616609,-0.103093,-1.11272
1480685850542266,-0.617829,-0.102942,-1.1131
1480685850564825,-0.617251,-0.102906,-1.11318
1480685850581370,-0.615987,-0.103014,-1.11328
1480685850602428,-0.615867,-0.10295,-1.11327
1480685850634512,-0.615482,-0.102795,-1.11311
1480685850650555,-0.614697,-0.102533,-1.11291
1480685850670107,-0.613788,-0.102292,-1.113
1480685850694671,-0.613731,-0.102425,-1.11311
1480685850707209,-0.612163,-0.101691,-1.11293
1480685850729764,-0.609628,-0.100542,-1.1126
1480685850757842,-0.608158,-0.0998039,-1.11211
1480685850761349,-0.612307,-0.0985352,-1.11219
1480685850782406,-0.616568,-0.0986294,-1.11249
1480685850812986,-0.616341,-0.0983274,-1.11284
1480685850860111,-0.614505,-0.0981048,-1.11293
1480685850862617,-0.61282,-0.0977201,-1.11327
1480685850881669,-0.612889,-0.0976219,-1.11331
1480685850884176,-0.612769,-0.0975587,-1.1133
1480685850911248,-0.613351,-0.0980313,-1.11309
1480685850926287,-0.613871,-0.0984112,-1.11292
1480685850941330,-0.613979,-0.09844,-1.11277
1480685850962383,-0.614082,-0.0987629,-1.1127
1480685851015023,-0.614013,-0.0988611,-1.11266
1480685851040591,-0.614061,-0.0988957,-1.11311
1480685851046106,-0.616054,-0.0999119,-1.11327
1480685851047611,-0.616541,-0.10039,-1.11336
1480685851077690,-0.615791,-0.100339,-1.11326
1480685851082202,-0.614517,-0.100202,-1.1134
1480685851104761,-0.614328,-0.100237,-1.11336
1480685851122810,-0.61426,-0.100335,-1.11331
1480685851142362,-0.61414,-0.100272,-1.11331
1480685851167930,-0.615054,-0.100112,-1.11352
1480685851191996,-0.615175,-0.100175,-1.11353
1480685851202521,-0.614461,-0.100124,-1.11373
1480685851226085,-0.613308,-0.0998399,-1.11408
1480685851247141,-0.613095,-0.0989687,-1.11416
1480685851262181,-0.613827,-0.0985498,-1.11424
1480685851284740,-0.614233,-0.0983622,-1.11419
1480685851324851,-0.614113,-0.0982989,-1.11419
1480685851327354,-0.613846,-0.0988096,-1.11446
1480685851344901,-0.613703,-0.0993,-1.11446
1480685851362948,-0.61435,-0.0997585,-1.11457
1480685851400048,-0.61435,-0.0997585,-1.11457
1480685851422607,-0.614269,-0.100033,-1.11417
1480685851444165,-0.615126,-0.100323,-1.11391
1480685851466724,-0.616733,-0.100665,-1.11376
1480685851469231,-0.616773,-0.100581,-1.11377
1480685851487279,-0.616155,-0.100628,-1.11384
1480685851502319,-0.615281,-0.100597,-1.11401
1480685851524883,-0.615281,-0.100597,-1.11401
1480685851542928,-0.615281,-0.100597,-1.11401
1480685851563982,-0.615281,-0.100597,-1.11401
1480685851585039,-0.615281,-0.100597,-1.11401
1480685851608602,-0.615212,-0.100695,-1.11397
1480685851625647,-0.615104,-0.100667,-1.11412
1480685851652218,-0.615686,-0.10062,-1.11376
1480685851698842,-0.617156,-0.101158,-1.11352
1480685851727918,-0.616708,-0.101016,-1.11303
1480685851746468,-0.615625,-0.100971,-1.11274
1480685851767524,-0.614336,-0.100491,-1.11237
1480685851787076,-0.61378,-0.100111,-1.11224
1480685851803620,-0.61324,-0.0998926,-1.11177
1480685851825181,-0.612175,-0.0997999,-1.11135
1480685851847236,-0.611658,-0.0997584,-1.11082
1480685851863780,-0.611519,-0.0996468,-1.11038
1480685851887844,-0.61142,-0.0994514,-1.10996
1480685851907397,-0.609612,-0.0988057,-1.10956
1480685851948004,-0.607812,-0.0984891,-1.1094
1480685851954522,-0.607863,-0.098862,-1.10916
1480685851967556,-0.607835,-0.0988764,-1.10913
1480685851986105,-0.607932,-0.0987636,-1.1092
1480685852021199,-0.608063,-0.0991797,-1.10879
1480685852034735,-0.608098,-0.0996012,-1.10868
1480685852045263,-0.610811,-0.100284,-1.10826
1480685852064815,-0.614776,-0.100722,-1.10704
1480685852094895,-0.619157,-0.100488,-1.10485
1480685852105423,-0.623556,-0.0998576,-1.10418
1480685852149041,-0.627677,-0.0987645,-1.1039
1480685852151546,-0.628132,-0.0976094,-1.10325
1480685852171097,-0.628868,-0.097102,-1.10306
1480685852184633,-0.627866,-0.0960966,-1.10245
1480685852237775,-0.625481,-0.0956645,-1.10207
1480685852306458,-0.624635,-0.0963583,-1.10127
1480685852323002,-0.623758,-0.0973621,-1.10053
1480685852336036,-0.627231,-0.0975634,-1.09917
1480685852344060,-0.626737,-0.0975915,-1.09895
1480685852346564,-0.626256,-0.0977604,-1.09851
1480685852364612,-0.627522,-0.0987526,-1.09872
1480685852387178,-0.630379,-0.0997951,-1.09868
1480685852405223,-0.633599,-0.101719,-1.09843
1480685852425775,-0.635021,-0.103368,-1.09817
1480685852447332,-0.634407,-0.10394,-1.09744
1480685852465380,-0.633817,-0.104081,-1.09715
1480685852516014,-0.634398,-0.104113,-1.09708
1480685852534064,-0.636296,-0.104967,-1.09694
1480685852538074,-0.636269,-0.105087,-1.09709
1480685852553615,-0.636027,-0.104667,-1.09699
1480685852576174,-0.636826,-0.104145,-1.09713
1480685852592720,-0.639223,-0.104783,-1.09731
1480685852606258,-0.640104,-0.106107,-1.09734
1480685852627311,-0.6403,-0.106593,-1.09753
1480685852646362,-0.640091,-0.106975,-1.09768
1480685852666415,-0.640939,-0.1071,-1.09777
1480685852697998,-0.6398,-0.106812,-1.09815
1480685852706020,-0.635356,-0.105982,-1.09866
1480685852726574,-0.630358,-0.104875,-1.0996
1480685852747133,-0.626369,-0.104966,-1.09975
1480685852769689,-0.619465,-0.105627,-1.099
1480685852817318,-0.613317,-0.105612,-1.09843
1480685852833360,-0.611391,-0.105031,-1.09847
1480685852837871,-0.610012,-0.104792,-1.09849
1480685852855417,-0.610379,-0.105804,-1.09781
1480685852868953,-0.61056,-0.106555,-1.0958
1480685852884996,-0.608488,-0.106741,-1.09484
1480685852922596,-0.608106,-0.107097,-1.09576
1480685852927107,-0.611776,-0.107808,-1.09683
1480685852952676,-0.612529,-0.108067,-1.09792
1480685852975237,-0.61061,-0.107912,-1.09875
1480685852994788,-0.608842,-0.107604,-1.0989
1480685853005317,-0.606977,-0.107101,-1.09862
1480685853077508,-0.605995,-0.106447,-1.09852
1480685853089039,-0.606423,-0.106938,-1.09829
1480685853107592,-0.606625,-0.107549,-1.098
1480685853133156,-0.605718,-0.107527,-1.09789
1480685853150703,-0.605718,-0.107527,-1.09789
1480685853167246,-0.605718,-0.107527,-1.09789
1480685853186297,-0.605718,-0.107527,-1.09789
1480685853207857,-0.605718,-0.107527,-1.09789
1480685853234927,-0.605718,-0.107527,-1.09789
1480685853259493,-0.605598,-0.107464,-1.09788
1480685853298094,-0.605598,-0.107464,-1.09788
1480685853341210,-0.605598,-0.107464,-1.09788
1480685853357253,-0.605124,-0.107542,-1.09809
1480685853363768,-0.604948,-0.107613,-1.0982
1480685853377306,-0.604948,-0.107613,-1.0982
1480685853387833,-0.604864,-0.107159,-1.09786
1480685853407390,-0.604215,-0.106707,-1.09775
1480685853429944,-0.604215,-0.106707,-1.09775
1480685853447491,-0.604288,-0.106526,-1.09751
1480685853468547,-0.604288,-0.106526,-1.09751
1480685853489603,-0.604409,-0.106589,-1.09751
1480685853507654,-0.604476,-0.10649,-1.09755
1480685853550264,-0.604288,-0.106526,-1.09751
1480685853568312,-0.604288,-0.106526,-1.09751
1480685853575833,-0.604621,-0.106728,-1.0975
1480685853625966,-0.60543,-0.106556,-1.09719
1480685853650030,-0.605497,-0.106458,-1.09723
1480685853672590,-0.606037,-0.106881,-1.09749
1480685853687128,-0.607211,-0.107711,-1.09743
1480685853690642,-0.607239,-0.108098,-1.09717
1480685853708686,-0.606775,-0.108306,-1.09689
1480685853729742,-0.606775,-0.108306,-1.09689
1480685853747790,-0.607162,-0.108669,-1.09685
1480685853768846,-0.607283,-0.108732,-1.09686
1480685853806954,-0.606857,-0.108855,-1.0966
1480685853809455,-0.606591,-0.108554,-1.09664
1480685853880643,-0.606524,-0.108653,-1.0966
1480685853935289,-0.606855,-0.10915,-1.09668
1480685853943311,-0.606449,-0.108929,-1.09621
1480685853957852,-0.607134,-0.109285,-1.09606
1480685853969880,-0.607216,-0.109833,-1.09576
1480685853987929,-0.607957,-0.110055,-1.0955
1480685854009988,-0.608941,-0.110106,-1.09516
1480685854029539,-0.608674,-0.1099,-1.09457
1480685854047587,-0.608391,-0.110249,-1.09398
1480685854082681,-0.60827,-0.110187,-1.09398
1480685854105743,-0.609839,-0.110092,-1.09392
1480685854129806,-0.610671,-0.10948,-1.09285
1480685854146350,-0.611053,-0.10852,-1.09151
1480685854151872,-0.612632,-0.108042,-1.0899
1480685854181444,-0.613251,-0.107689,-1.08856
1480685854190470,-0.612165,-0.10714,-1.08812
1480685854210020,-0.611362,-0.106242,-1.08827
1480685854235587,-0.612532,-0.105653,-1.08875
1480685854254638,-0.613373,-0.105771,-1.08883
1480685854277198,-0.613816,-0.106293,-1.08875
1480685854292237,-0.614109,-0.107063,-1.08872
1480685854311289,-0.614109,-0.107063,-1.08872
1480685854367939,-0.614951,-0.107181,-1.08879
1480685854396515,-0.615621,-0.107582,-1.08877
1480685854421081,-0.615791,-0.107594,-1.08895
1480685854445646,-0.616792,-0.107985,-1.08912
1480685854458682,-0.617218,-0.108852,-1.08925
1480685854467704,-0.615562,-0.109098,-1.08939
1480685854498285,-0.611232,-0.108152,-1.09012
1480685854512827,-0.609869,-0.106479,-1.09163
1480685854535886,-0.611002,-0.106378,-1.0918
1480685854549923,-0.608573,-0.106793,-1.09135
1480685854579000,-0.60469,-0.106544,-1.09166
1480685854592537,-0.603955,-0.105641,-1.09121
1480685854617603,-0.601881,-0.104714,-1.09087
1480685854670744,-0.601048,-0.103915,-1.09008
1480685854675257,-0.602407,-0.102701,-1.08924
1480685854697315,-0.61015,-0.103725,-1.09169
1480685854715364,-0.61431,-0.104089,-1.09263
1480685854746446,-0.61485,-0.103607,-1.09331
1480685854751459,-0.611212,-0.1025,-1.09401
1480685854772515,-0.607459,-0.101836,-1.09459
1480685854790567,-0.60639,-0.10172,-1.09521
1480685854814627,-0.60639,-0.10172,-1.09521
1480685854833678,-0.605951,-0.101702,-1.09517
1480685854887321,-0.60505,-0.101599,-1.09477
1480685854903363,-0.60529,-0.101524,-1.09406
1480685854909380,-0.605816,-0.101606,-1.09381
1480685854922414,-0.606658,-0.102539,-1.09411
1480685854947983,-0.607852,-0.103624,-1.09428
1480685854971544,-0.608127,-0.104655,-1.09417
1480685854976057,-0.607847,-0.104615,-1.09415
1480685854992601,-0.609159,-0.105552,-1.09452
1480685855012152,-0.611283,-0.107223,-1.09418
1480685855032205,-0.60941,-0.107408,-1.09342
1480685855053262,-0.606667,-0.106677,-1.09234
1480685855072313,-0.604942,-0.105901,-1.09186
1480685855089358,-0.605736,-0.105587,-1.09178
1480685855177593,-0.606373,-0.1048,-1.09087
1480685855202659,-0.607593,-0.104161,-1.09032
1480685855205167,-0.609315,-0.103227,-1.09006
1480685855216696,-0.611445,-0.100423,-1.08798
1480685855240761,-0.611549,-0.0996371,-1.08761
1480685855248781,-0.613617,-0.0986319,-1.08835
1480685855253795,-0.614712,-0.0977079,-1.08894
1480685855270338,-0.612208,-0.0961999,-1.08946
1480685855291896,-0.608202,-0.0947847,-1.08944
1480685855312952,-0.607196,-0.0936654,-1.08932
1480685855331000,-0.605828,-0.0926545,-1.08926
1480685855354063,-0.60204,-0.0925821,-1.08888
1480685855373112,-0.597733,-0.0935522,-1.08814
1480685855413219,-0.594129,-0.0939214,-1.08755
1480685855447811,-0.591551,-0.092953,-1.08762
1480685855466360,-0.592471,-0.0920303,-1.08709
1480685855473385,-0.591086,-0.0881743,-1.08556
1480685855492931,-0.594494,-0.0878282,-1.08584
1480685855509977,-0.598173,-0.0870861,-1.0863
1480685855532536,-0.599758,-0.0861204,-1.08709
1480685855553091,-0.600352,-0.0853676,-1.08813
1480685855570136,-0.599573,-0.0851021,-1.08887
1480685855591694,-0.599754,-0.0853363,-1.0891
1480685855612749,-0.602407,-0.085724,-1.08911
1480685855630296,-0.603966,-0.0863208,-1.08885
1480685855651854,-0.603224,-0.0873036,-1.08877
1480685855672910,-0.602407,-0.0882702,-1.08821
1480685855710009,-0.602177,-0.0893007,-1.08774
1480685855728557,-0.60172,-0.0902414,-1.0874
1480685855734573,-0.602816,-0.0910476,-1.08687
1480685855757137,-0.605261,-0.0926044,-1.08617
1480685855772675,-0.606331,-0.0942242,-1.08557
1480685855801751,-0.606048,-0.0951758,-1.08541
1480685855808771,-0.604926,-0.0952106,-1.08522
1480685855831831,-0.604575,-0.0949657,-1.0848
1480685855863416,-0.604669,-0.0946537,-1.08415
1480685855868931,-0.604921,-0.0943183,-1.08352
1480685855891994,-0.603983,-0.0940114,-1.08303
1480685855929091,-0.60306,-0.0931501,-1.08253
1480685855931597,-0.601845,-0.0918158,-1.08215
1480685855951651,-0.60046,-0.0908584,-1.08222
1480685856003790,-0.599866,-0.0902635,-1.08292
1480685856012312,-0.60009,-0.0899279,-1.08318
1480685856014818,-0.598989,-0.0886977,-1.08412
1480685856034370,-0.596355,-0.0860648,-1.08419
1480685856049411,-0.595179,-0.0843425,-1.08348
1480685856071972,-0.597711,-0.083262,-1.08308
1480685856094530,-0.604158,-0.083244,-1.08283
1480685856115587,-0.606668,-0.0835767,-1.08281
1480685856132131,-0.604424,-0.0835425,-1.08278
1480685856154691,-0.602084,-0.0833021,-1.08327
1480685856176749,-0.602635,-0.0835423,-1.08389
1480685856250446,-0.605907,-0.0833612,-1.08396
1480685856290555,-0.611749,-0.0825186,-1.08237
1480685856311108,-0.613611,-0.083035,-1.07571
1480685856335170,-0.618514,-0.0850904,-1.07433
1480685856339181,-0.62219,-0.0878342,-1.0724
1480685856342691,-0.621606,-0.0900526,-1.06909
1480685856356734,-0.620129,-0.0902366,-1.06583
1480685856371768,-0.619936,-0.0912239,-1.0643
1480685856394328,-0.62163,-0.0919456,-1.06434
1480685856415384,-0.622358,-0.0920218,-1.06548
1480685856431928,-0.620832,-0.0916952,-1.06716
1480685856485571,-0.618818,-0.0911094,-1.06854
1480685856530189,-0.616915,-0.0905473,-1.06978
1480685856532194,-0.61564,-0.0903447,-1.07055
1480685856539213,-0.613877,-0.0917459,-1.07033
1480685856540218,-0.610176,-0.093444,-1.07022
1480685856557767,-0.609191,-0.095645,-1.0702
1480685856580324,-0.608764,-0.0973187,-1.06981
1480685856602883,-0.604909,-0.0961174,-1.07052
1480685856613411,-0.602951,-0.094491,-1.0713
1480685856634968,-0.602192,-0.0932385,-1.07246
1480685856664547,-0.601573,-0.0919988,-1.07349
1480685856671064,-0.601007,-0.0897317,-1.07391
1480685856708163,-0.602985,-0.0890673,-1.07453
1480685856716685,-0.608414,-0.0901163,-1.07484
1480685856785368,-0.612576,-0.0909598,-1.07475
1480685856787877,-0.612592,-0.090606,-1.07546
1480685856807428,-0.608785,-0.089604,-1.07744
1480685856817454,-0.608968,-0.0893423,-1.07861
1480685856845026,-0.610739,-0.0895384,-1.07912
1480685856867085,-0.612847,-0.0896501,-1.07862
1480685856890150,-0.612775,-0.0894422,-1.07824
1480685856896663,-0.610999,-0.0890349,-1.07793
1480685856913208,-0.609646,-0.0885841,-1.07817
1480685856934765,-0.61011,-0.0883723,-1.07844
1480685856956828,-0.611221,-0.088984,-1.07919
1480685856977880,-0.611409,-0.088946,-1.07924
1480685856994424,-0.610389,-0.0886931,-1.07947
1480685857040547,-0.609437,-0.089036,-1.07952
1480685857052578,-0.609136,-0.0891413,-1.07899
1480685857064109,-0.608652,-0.0888009,-1.07841
1480685857076643,-0.607216,-0.0881089,-1.07811
1480685857092685,-0.604896,-0.0876617,-1.07791
1480685857114242,-0.602589,-0.087945,-1.07765
1480685857137805,-0.601847,-0.0888169,-1.07714
1480685857159863,-0.602872,-0.0891997,-1.07642
1480685857174402,-0.602938,-0.0891002,-1.07646
1480685857220525,-0.602818,-0.0890388,-1.07646
1480685857235065,-0.602842,-0.0898025,-1.07655
1480685857239584,-0.603267,-0.0903705,-1.0766
1480685857258125,-0.60336,-0.090446,-1.07658
1480685857277679,-0.60336,-0.090446,-1.07658
1480685857294721,-0.60336,-0.090446,-1.07658
1480685857316781,-0.60336,-0.090446,-1.07658
1480685857339341,-0.60336,-0.090446,-1.07658
1480685857368418,-0.60336,-0.090446,-1.07658
1480685857400001,-0.60336,-0.090446,-1.07658
1480685857402509,-0.60336,-0.090446,-1.07658
1480685857416045,-0.603293,-0.0905455,-1.07654
1480685857437101,-0.603293,-0.0905455,-1.07654
1480685857465677,-0.60336,-0.090446,-1.07658
1480685857490746,-0.60336,-0.090446,-1.07658
1480685857497261,-0.603172,-0.0904841,-1.07653
1480685857528344,-0.6032,-0.09047,-1.07656
1480685857541879,-0.6032,-0.09047,-1.07656
1480685857556922,-0.6032,-0.09047,-1.07656
1480685857579479,-0.603714,-0.090514,-1.07616
1480685857594520,-0.603484,-0.0900382,-1.07568
1480685857617581,-0.603235,-0.0893982,-1.07552
1480685857640144,-0.603694,-0.0888939,-1.07453
1480685857653678,-0.603965,-0.0884278,-1.0735
1480685857677240,-0.604392,-0.0880191,-1.07277
1480685857699298,-0.604988,-0.0879141,-1.07228
1480685857716343,-0.605898,-0.0881368,-1.0722
1480685857751436,-0.607438,-0.0885452,-1.07201
1480685857768482,-0.60875,-0.0885712,-1.07188
1480685857780514,-0.61032,-0.0886705,-1.07164
1480685857803074,-0.609397,-0.0887083,-1.07165
1480685857819618,-0.605982,-0.0886845,-1.0719
1480685857850199,-0.604053,-0.0872221,-1.07235
1480685857863234,-0.60583,-0.0872464,-1.0723
1480685857886797,-0.606528,-0.0873459,-1.07131
1480685857894818,-0.603537,-0.0886711,-1.0705
1480685857924396,-0.602163,-0.0893499,-1.06984
1480685857939438,-0.602023,-0.0898251,-1.06876
1480685857977538,-0.600695,-0.0895608,-1.06776
1480685857980045,-0.599494,-0.0896627,-1.06711
1480685858002103,-0.600218,-0.0895301,-1.06754
1480685858024163,-0.600862,-0.0889651,-1.06869
1480685858059759,-0.598706,-0.0873189,-1.06992
1480685858062263,-0.598504,-0.0863169,-1.07077
1480685858082822,-0.601888,-0.0854784,-1.07105
1480685858097355,-0.603053,-0.08449,-1.07091
1480685858119415,-0.601482,-0.083792,-1.07073
1480685858149496,-0.601088,-0.0842933,-1.07112
1480685858157017,-0.601867,-0.0846179,-1.07159
1480685858203138,-0.602659,-0.0846825,-1.07213
1480685858226199,-0.604406,-0.0853093,-1.07221
1480685858231714,-0.605382,-0.0864222,-1.07203
1480685858246754,-0.6049,-0.0874623,-1.07195
1480685858277335,-0.606354,-0.0893853,-1.07206
1480685858279842,-0.615946,-0.094369,-1.07228
1480685858302402,-0.623715,-0.102023,-1.07144
1480685858319948,-0.619443,-0.107877,-1.07064
1480685858336994,-0.609895,-0.109521,-1.07067
1480685858361057,-0.604265,-0.109202,-1.07107
1480685858380610,-0.60504,-0.108959,-1.07245
1480685858403170,-0.607891,-0.108131,-1.07322
1480685858419713,-0.610817,-0.107689,-1.07284
1480685858441773,-0.612884,-0.107844,-1.07216
1480685858472861,-0.610298,-0.108402,-1.07224
1480685858493409,-0.607127,-0.108711,-1.07234
1480685858507949,-0.606181,-0.109175,-1.07285
1480685858524492,-0.606068,-0.108284,-1.07383
1480685858540039,-0.601906,-0.105316,-1.07472
1480685858578135,-0.596161,-0.100396,-1.07534
1480685858582646,-0.595026,-0.0948838,-1.07536
1480685858605207,-0.598781,-0.0897349,-1.07524
1480685858629772,-0.603624,-0.0858109,-1.0751
1480685858636289,-0.604177,-0.0827062,-1.07458
1480685858660353,-0.600796,-0.0798063,-1.07372
1480685858683916,-0.598631,-0.0769424,-1.07303
1480685858696451,-0.599531,-0.0740311,-1.07369
1480685858719511,-0.601631,-0.0724701,-1.07552
1480685858765633,-0.6036,-0.0724893,-1.07775
1480685858779671,-0.605119,-0.0728883,-1.07938
1480685858783180,-0.606143,-0.0726229,-1.0802
1480685858809250,-0.606165,-0.0725606,-1.08099
1480685858831809,-0.606255,-0.0722963,-1.08166
1480685858839835,-0.607898,-0.0717857,-1.08252
1480685858868406,-0.611328,-0.0718296,-1.08348
1480685858877432,-0.614128,-0.0712967,-1.08393
1480685858905506,-0.613458,-0.070169,-1.08401
1480685858929569,-0.611638,-0.0689844,-1.08423
1480685858950626,-0.61145,-0.0690224,-1.08418
1480685858959148,-0.612314,-0.0692891,-1.08486
1480685858981708,-0.613994,-0.069606,-1.08531
1480685859002764,-0.61621,-0.0700362,-1.08569
1480685859041366,-0.616265,-0.0699032,-1.08558
1480685859058416,-0.614758,-0.0695968,-1.0853
1480685859063426,-0.613432,-0.0697382,-1.08505
1480685859079970,-0.613334,-0.0702738,-1.08457
1480685859102028,-0.613702,-0.0708933,-1.08445
1480685859130604,-0.613528,-0.0707546,-1.08476
1480685859170711,-0.613141,-0.0704777,-1.08508
1480685859176226,-0.612823,-0.0701015,-1.08545
1480685859182743,-0.612823,-0.0701015,-1.08545
1480685859213826,-0.612915,-0.0701783,-1.08542
1480685859221848,-0.612915,-0.0701783,-1.08542
1480685859259947,-0.612266,-0.0697301,-1.08531
1480685859262454,-0.611884,-0.0692872,-1.08507
1480685859282008,-0.612347,-0.0687696,-1.08502
1480685859303062,-0.612507,-0.0687473,-1.08504
1480685859319106,-0.612422,-0.0680838,-1.08491
1480685859341665,-0.612121,-0.0675755,-1.08487
1480685859365229,-0.611593,-0.0669782,-1.08497
1480685859386785,-0.611593,-0.0669782,-1.08497
1480685859410348,-0.611781,-0.0669402,-1.08502
1480685859423384,-0.611746,-0.0666478,-1.08465
1480685859452963,-0.61067,-0.0661155,-1.08447
1480685859461985,-0.610615,-0.0662482,-1.08458
1480685859485046,-0.611123,-0.0662933,-1.08419
1480685859505102,-0.611939,-0.0663614,-1.08386
1480685859529163,-0.611939,-0.0663614,-1.08386
1480685859559745,-0.611939,-0.0663614,-1.08386
1480685859562753,-0.611939,-0.0663614,-1.08386
1480685859581804,-0.611752,-0.0663995,-1.08381
1480685859604365,-0.611939,-0.0663614,-1.08386
1480685859626924,-0.611558,-0.065919,-1.08362
1480685859642465,-0.611135,-0.0655603,-1.08337
1480685859687084,-0.611015,-0.0654991,-1.08336
1480685859694102,-0.611015,-0.0654991,-1.08336
1480685859704632,-0.611135,-0.0655603,-1.08337
1480685859724182,-0.610685,-0.0652174,-1.08309
1480685859745238,-0.610566,-0.0651563,-1.08308
1480685859769302,-0.610566,-0.0651563,-1.08308
1480685859784844,-0.61014,-0.065091,-1.0829
1480685859805902,-0.609464,-0.0646596,-1.08276
1480685859827958,-0.609532,-0.0645602,-1.0828
1480685859846006,-0.609412,-0.0644991,-1.0828
1480685859865558,-0.609412,-0.0644991,-1.0828
1480685859889625,-0.60953,-0.0647709,-1.0826
1480685859912684,-0.609517,-0.0647376,-1.08244
1480685859918700,-0.609567,-0.0651088,-1.0822
1480685859941762,-0.609447,-0.0650477,-1.0822
1480685859964823,-0.60899,-0.0652917,-1.08207
1480685859987382,-0.608319,-0.0655897,-1.08186
1480685860007435,-0.607584,-0.0655845,-1.0819
1480685860024982,-0.606452,-0.0653979,-1.08163
1480685860045537,-0.605534,-0.0652674,-1.08107
1480685860069601,-0.604494,-0.0653695,-1.08057
1480685860084641,-0.603022,-0.0658933,-1.07988
1480685860105700,-0.600689,-0.0659984,-1.07966
1480685860121741,-0.599282,-0.0656954,-1.07909
1480685860168364,-0.599043,-0.0659165,-1.07839
1480685860172878,-0.598048,-0.0662,-1.07694
1480685860189421,-0.595779,-0.0659353,-1.07577
1480685860212483,-0.598024,-0.0660616,-1.07428
1480685860225519,-0.604218,-0.0665433,-1.07254
1480685860244066,-0.608892,-0.0672916,-1.07169
1480685860265121,-0.609498,-0.0677493,-1.0706
1480685860286678,-0.608553,-0.0683542,-1.06967
1480685860302219,-0.610089,-0.0691119,-1.06789
1480685860324278,-0.61362,-0.070316,-1.06614
1480685860346838,-0.614763,-0.0713719,-1.06403
1480685860369398,-0.614655,-0.0725554,-1.06291
1480685860384439,-0.616627,-0.0745099,-1.06263
1480685860413515,-0.6198,-0.0766259,-1.06294
1480685860428054,-0.620324,-0.0772589,-1.06388
1480685860444598,-0.619321,-0.0773571,-1.06459
1480685860474678,-0.619285,-0.0781363,-1.06436
1480685860496736,-0.621368,-0.0791367,-1.06316
1480685860504257,-0.623322,-0.0798499,-1.0619
1480685860528321,-0.624183,-0.0802081,-1.06102
1480685860541857,-0.624183,-0.0802081,-1.06102
1480685860564417,-0.624643,-0.0800792,-1.06158
1480685860594497,-0.625479,-0.0803562,-1.06223
1480685860601014,-0.624716,-0.0799888,-1.0628
1480685860624577,-0.622419,-0.0790646,-1.06381
1480685860647137,-0.619629,-0.0778625,-1.06463
1480685860661174,-0.618734,-0.0782886,-1.06436
1480685860691755,-0.612672,-0.0794821,-1.06342
1480685860707798,-0.605917,-0.0801765,-1.06298
1480685860727851,-0.603869,-0.0807389,-1.06251
1480685860758432,-0.607095,-0.0814683,-1.06291
1480685860772971,-0.607589,-0.0822277,-1.06308
1480685860797036,-0.605548,-0.0826114,-1.06296
1480685860804558,-0.603887,-0.0832211,-1.06329
1480685860827115,-0.605296,-0.0848947,-1.06316
1480685860842156,-0.608787,-0.0875613,-1.06274
1480685860865717,-0.611781,-0.090706,-1.06285
1480685860887777,-0.610256,-0.0921068,-1.06312
1480685860901313,-0.605709,-0.0918254,-1.06376
1480685860924374,-0.603306,-0.0914466,-1.06429
1480685860947435,-0.602593,-0.0913139,-1.06512
1480685860967990,-0.601943,-0.0926264,-1.06586
1480685860984534,-0.600174,-0.0942788,-1.0665
1480685861007093,-0.597842,-0.0953593,-1.06603
1480685861027649,-0.595356,-0.0962713,-1.06484
1480685861051212,-0.592921,-0.0971334,-1.06382
1480685861067254,-0.590749,-0.0982743,-1.06367
1480685861095328,-0.590753,-0.0998285,-1.06382
1480685861104353,-0.591184,-0.101466,-1.06403
1480685861127417,-0.591883,-0.102622,-1.06411
1480685861147968,-0.59203,-0.103333,-1.06378
1480685861178049,-0.590944,-0.103849,-1.06363
1480685861201109,-0.590032,-0.104783,-1.06416
1480685861208128,-0.58975,-0.105606,-1.0645
1480685861224672,-0.58975,-0.105606,-1.0645
1480685861247233,-0.589703,-0.105183,-1.0646
1480685861267787,-0.58883,-0.104394,-1.06471
1480685861291851,-0.586881,-0.103379,-1.06475
1480685861308396,-0.585779,-0.102501,-1.065
1480685861327947,-0.585275,-0.100942,-1.06566
1480685861344994,-0.585754,-0.0997239,-1.06634
1480685861435232,-0.585853,-0.0988511,-1.06766
1480685861449771,-0.58562,-0.0971922,-1.06883
1480685861459798,-0.586306,-0.0928315,-1.07177
1480685861471830,-0.588645,-0.0919891,-1.0711
1480685861494389,-0.59011,-0.0908297,-1.07028
1480685861509430,-0.589997,-0.0902057,-1.07
1480685861524471,-0.591886,-0.0907709,-1.06993
1480685861547030,-0.595482,-0.0923411,-1.06999
1480685861585632,-0.596701,-0.0932815,-1.06975
1480685861597664,-0.593331,-0.0928718,-1.0697
1480685861607190,-0.590709,-0.0917184,-1.06967
1480685861630752,-0.591589,-0.0914709,-1.06956
1480685861668854,-0.595581,-0.0921466,-1.06978
1480685861674369,-0.598557,-0.092861,-1.06951
1480685861691414,-0.599049,-0.09372,-1.06905
1480685861710466,-0.59786,-0.0943383,-1.06855
1480685861735030,-0.59774,-0.0942773,-1.06854
1480685861750070,-0.598819,-0.0940243,-1.06864
1480685861763606,-0.59962,-0.0927537,-1.0691
1480685861786667,-0.598992,-0.0913985,-1.0697
1480685861810230,-0.597704,-0.0902469,-1.07074
1480685861823767,-0.596614,-0.0891876,-1.07134
1480685861846827,-0.596092,-0.0880384,-1.07144
1480685861877409,-0.596519,-0.086837,-1.07155
1480685861899967,-0.597525,-0.0859645,-1.07193
1480685861916012,-0.596789,-0.0847603,-1.07232
1480685861966646,-0.596785,-0.0828605,-1.07287
1480685861980683,-0.598413,-0.0816585,-1.073
1480685861990731,-0.600162,-0.0819101,-1.07271
1480685862011766,-0.597312,-0.0821781,-1.07164
1480685862026807,-0.596673,-0.0827775,-1.07064
1480685862050870,-0.599264,-0.0846495,-1.06925
1480685862070421,-0.600614,-0.0867711,-1.0684
1480685862086966,-0.597676,-0.0870612,-1.0679
1480685862109526,-0.595004,-0.087436,-1.06756
1480685862130581,-0.594916,-0.0875748,-1.06738
1480685862155651,-0.596536,-0.0861723,-1.06679
1480685862171190,-0.600647,-0.0842595,-1.06569
1480685862193749,-0.601821,-0.0834302,-1.06324
1480685862220320,-0.599813,-0.0827449,-1.0621
1480685862267446,-0.600753,-0.0815014,-1.06155
1480685862269953,-0.604902,-0.0805628,-1.06062
1480685862292011,-0.605516,-0.0800157,-1.06058
1480685862310561,-0.607176,-0.0798869,-1.06024
1480685862326602,-0.608227,-0.0800334,-1.05977
1480685862349163,-0.60834,-0.0799773,-1.05934
1480685862372228,-0.609809,-0.0798754,-1.0587
1480685862387765,-0.610495,-0.0799347,-1.05757
1480685862409323,-0.610479,-0.0799009,-1.05624
1480685862462464,-0.610921,-0.0797327,-1.05547
1480685862464971,-0.611551,-0.0796188,-1.05529
1480685862470987,-0.612512,-0.079488,-1.0553
1480685862545685,-0.613544,-0.0798567,-1.0546
1480685862552203,-0.615465,-0.0810425,-1.05394
1480685862566741,-0.616699,-0.0832295,-1.05257
1480685862569248,-0.617847,-0.083823,-1.05243
1480685862589306,-0.619749,-0.0845496,-1.05202
1480685862611864,-0.618076,-0.0844754,-1.05255
1480685862626400,-0.61242,-0.0834676,-1.05383
1480685862649461,-0.61224,-0.0823754,-1.05444
1480685862672524,-0.606991,-0.0823076,-1.05413
1480685862693077,-0.597022,-0.0820928,-1.05444
1480685862742208,-0.592259,-0.081146,-1.0548
1480685862746219,-0.593234,-0.078907,-1.0569
1480685862752737,-0.596746,-0.0769404,-1.05991
1480685862786325,-0.602617,-0.0734608,-1.0619
1480685862797856,-0.608028,-0.0700003,-1.06267
1480685862821923,-0.614174,-0.0674433,-1.06481
1480685862836959,-0.624944,-0.0706756,-1.06716
1480685862866037,-0.625233,-0.0737957,-1.06716
1480685862873056,-0.617717,-0.074388,-1.06642
1480685862889601,-0.619196,-0.0748826,-1.06712
1480685862913663,-0.627407,-0.075726,-1.06811
1480685862932714,-0.631969,-0.0758678,-1.06997
1480685862949258,-0.628404,-0.076208,-1.07248
1480685862971821,-0.622507,-0.0751956,-1.07428
1480685862994378,-0.621877,-0.0748775,-1.07578
1480685863017941,-0.624539,-0.0747891,-1.07699
1480685863031978,-0.624798,-0.0748371,-1.07791
1480685863054038,-0.623391,-0.0752091,-1.07895
1480685863069078,-0.620293,-0.0748532,-1.07902
1480685863099157,-0.617108,-0.073917,-1.07924
1480685863114199,-0.614733,-0.0736438,-1.07836
1480685863143276,-0.614918,-0.0735322,-1.07721
1480685863157813,-0.617119,-0.0737375,-1.0766
1480685863173354,-0.620221,-0.0743988,-1.07687
1480685863189401,-0.620765,-0.0739979,-1.07784
1480685863211965,-0.618817,-0.0734447,-1.07875
1480685863243542,-0.616574,-0.073615,-1.07942
1480685863249557,-0.615434,-0.0741233,-1.07892
1480685863355842,-0.615078,-0.074488,-1.07801
1480685863360853,-0.615322,-0.0753489,-1.07704
1480685863369375,-0.612503,-0.0802244,-1.07637
1480685863391937,-0.611689,-0.0807921,-1.0761
1480685863414497,-0.610773,-0.0806622,-1.07554
1480685863437056,-0.611156,-0.0801256,-1.075
1480685863458112,-0.610846,-0.0797133,-1.07432
1480685863475158,-0.609997,-0.0794849,-1.07381
1480685863488696,-0.609372,-0.0797215,-1.07351
1480685863519274,-0.609253,-0.0805674,-1.07308
1480685863549355,-0.608248,-0.081271,-1.07212
1480685863599990,-0.606605,-0.0815666,-1.07122
1480685863632575,-0.605975,-0.0813948,-1.07041
1480685863634079,-0.606049,-0.0814248,-1.06997
1480685863649119,-0.60528,-0.0824316,-1.06867
1480685863654133,-0.605505,-0.0826154,-1.0679
1480685863669675,-0.605268,-0.0827059,-1.06768
1480685863699253,-0.604379,-0.0826494,-1.06743
1480685863715295,-0.603066,-0.082429,-1.06685
1480685863735350,-0.60137,-0.082065,-1.0661
1480685863751893,-0.60137,-0.082065,-1.0661
1480685863774453,-0.601899,-0.0820588,-1.06558
1480685863795509,-0.60416,-0.0819433,-1.0652
1480685863850154,-0.607867,-0.0816487,-1.06478
1480685863887253,-0.609324,-0.0807512,-1.063
1480685863889760,-0.610258,-0.0793891,-1.06203
1480685863911831,-0.619371,-0.0783509,-1.05876
1480685863918337,-0.618793,-0.0787332,-1.05645
1480685863931871,-0.615281,-0.0797401,-1.05474
1480685863956438,-0.613925,-0.0808595,-1.05392
1480685863977494,-0.614055,-0.0807531,-1.05337
1480685863992032,-0.615191,-0.07997,-1.05393
1480685864014592,-0.61602,-0.0791677,-1.05444
1480685864035146,-0.614842,-0.0781876,-1.05484
1480685864052693,-0.613276,-0.0771468,-1.05537
1480685864082272,-0.61238,-0.0762005,-1.0558
1480685864150453,-0.610877,-0.07553,-1.05609
1480685864157472,-0.608344,-0.0756556,-1.05659
1480685864159977,-0.601655,-0.0781718,-1.05651
1480685864172011,-0.597552,-0.0776905,-1.05712
1480685864194570,-0.594588,-0.0758327,-1.05812
1480685864225151,-0.594615,-0.0741407,-1.05876
1480685864232672,-0.595325,-0.0732746,-1.05925
1480685864254230,-0.595028,-0.0722974,-1.05948
1480685864276790,-0.594215,-0.0719658,-1.05963
1480685864291829,-0.595291,-0.0726734,-1.05971
1480685864314388,-0.59783,-0.0735592,-1.06013
1480685864337451,-0.599672,-0.0741515,-1.06082
1480685864412717,-0.599541,-0.0743349,-1.06165
1480685864415156,-0.598636,-0.0738061,-1.06257
1480685864421679,-0.597791,-0.0725788,-1.06311
1480685864433705,-0.595325,-0.0732746,-1.05925
1480685864447744,-0.599262,-0.0707898,-1.06399
1480685864464287,-0.598528,-0.0702855,-1.06417
1480685864471306,-0.597583,-0.0698583,-1.06416
1480685864500383,-0.59765,-0.0697583,-1.0642
1480685864518431,-0.598727,-0.0699854,-1.06429
1480685864532468,-0.598975,-0.0704104,-1.06465
1480685864554527,-0.598855,-0.07035,-1.06464
1480685864576586,-0.598789,-0.07045,-1.0646
1480685864613183,-0.598975,-0.0704104,-1.06465
1480685864629225,-0.598975,-0.0704104,-1.06465
1480685864636746,-0.598855,-0.07035,-1.06464
1480685864697407,-0.598855,-0.07035,-1.06464
1480685864703423,-0.599134,-0.0706792,-1.06474
1480685864712447,-0.5992,-0.0705792,-1.06479
1480685864734506,-0.5992,-0.0705792,-1.06479
1480685864757066,-0.5992,-0.0705792,-1.06479
1480685864778123,-0.59908,-0.0705188,-1.06478
1480685864794164,-0.5992,-0.0705792,-1.06479
1480685864816724,-0.5992,-0.0705792,-1.06479
1480685864837781,-0.598802,-0.0701895,-1.06467
1480685864861845,-0.598682,-0.0701291,-1.06467
1480685864878390,-0.598721,-0.0701475,-1.06485
1480685864943563,-0.598721,-0.0701475,-1.06485
1480685864961618,-0.598709,-0.0701144,-1.0647
1480685864966623,-0.598776,-0.0700143,-1.06474
1480685864974143,-0.598765,-0.0704874,-1.06446
1480685864997204,-0.599127,-0.0707774,-1.06411
1480685865017759,-0.599193,-0.0706773,-1.06415
1480685865034303,-0.599193,-0.0706773,-1.06415
1480685865064383,-0.599193,-0.0706773,-1.06415
1480685865077918,-0.599127,-0.0707774,-1.06411
1480685865094462,-0.598851,-0.0706608,-1.0638
1480685865117023,-0.598851,-0.0706608,-1.0638
1480685865140084,-0.598851,-0.0706608,-1.0638
1480685865167658,-0.598851,-0.0706608,-1.0638
1480685865215284,-0.598851,-0.0706608,-1.0638
1480685865220298,-0.598531,-0.0702045,-1.06389
1480685865239850,-0.598597,-0.0701044,-1.06393
1480685865259401,-0.598597,-0.0701044,-1.06393
1480685865274441,-0.598477,-0.070044,-1.06392
1480685865297503,-0.598549,-0.0700755,-1.06348
1480685865319561,-0.598537,-0.0700423,-1.06333
1480685865334100,-0.599443,-0.0705545,-1.06333
1480685865356660,-0.599886,-0.0709899,-1.06297
1480685865408799,-0.600876,-0.0714623,-1.06252
1480685865422836,-0.60262,-0.071612,-1.0617
1480685865447903,-0.603956,-0.0715498,-1.06042
1480685865463946,-0.606362,-0.0708999,-1.05902
1480685865467956,-0.608715,-0.0714522,-1.05787
1480685865492020,-0.610414,-0.0724243,-1.05695
1480685865499540,-0.61111,-0.0732947,-1.05604
1480685865514079,-0.612357,-0.07401,-1.05512
1480685865536639,-0.611985,-0.0746902,-1.05426
1480685865559199,-0.611669,-0.0755307,-1.05337
1480685865587775,-0.612152,-0.076348,-1.05275
1480685865599305,-0.612823,-0.0767362,-1.05273
1480685865619861,-0.612944,-0.0767961,-1.05274
1480685865640916,-0.612497,-0.0766705,-1.05226
1480685865663477,-0.6122,-0.0770738,-1.0518
1480685865687039,-0.612535,-0.0776564,-1.05124
1480685865709098,-0.612328,-0.0782171,-1.05103
1480685865737674,-0.61276,-0.0787797,-1.05108
1480685865769759,-0.614108,-0.0794721,-1.05077
1480685865772265,-0.6131,-0.0801399,-1.05057
1480685865792319,-0.611934,-0.0808339,-1.05036
1480685865800841,-0.612086,-0.0813626,-1.05038
1480685865820394,-0.61359,-0.0821118,-1.05037
1480685865836938,-0.61359,-0.0830666,-1.05007
1480685865859999,-0.61277,-0.0836945,-1.04993
1480685865919660,-0.612272,-0.0840931,-1.05018
1480685865922668,-0.612606,-0.0846646,-1.05052
1480685865941716,-0.613345,-0.0858131,-1.05088
1480685865971800,-0.613223,-0.0857533,-1.05088
1480685865986836,-0.613158,-0.0858534,-1.05084
1480685866001876,-0.613619,-0.086402,-1.05091
1480685866017417,-0.614032,-0.0867187,-1.051
1480685866046996,-0.614424,-0.0869792,-1.05159
1480685866068052,-0.613755,-0.0872753,-1.0523
1480685866085098,-0.612302,-0.0871567,-1.05318
1480685866100639,-0.611114,-0.0871198,-1.0542
1480685866121700,-0.608758,-0.0869009,-1.0556
1480685866144255,-0.606446,-0.0865107,-1.05672
1480685866159294,-0.603642,-0.0860457,-1.05721
1480685866182356,-0.602213,-0.0862638,-1.05741
1480685866200404,-0.600992,-0.0865009,-1.05717
1480685866255552,-0.599169,-0.0865431,-1.05706
1480685866265577,-0.595906,-0.0861814,-1.05685
1480685866269589,-0.593675,-0.0860967,-1.05656
1480685866279615,-0.593528,-0.0862563,-1.05607
1480685866301673,-0.594459,-0.0868262,-1.05557
1480685866324735,-0.596832,-0.0877988,-1.05517
1480685866346793,-0.598437,-0.0880944,-1.05501
1480685866361833,-0.598547,-0.0881209,-1.05487
1480685866376873,-0.597944,-0.0879263,-1.05501
1480685866400937,-0.597537,-0.0876186,-1.05517
1480685866421993,-0.597333,-0.0872235,-1.05526
1480685866450569,-0.597248,-0.0865941,-1.05528
1480685866472628,-0.597762,-0.0866337,-1.05489
1480685866517749,-0.598158,-0.0869075,-1.05456
1480685866528777,-0.598158,-0.0869075,-1.05456
1480685866550836,-0.598668,-0.0870281,-1.05445
1480685866570891,-0.598788,-0.0870883,-1.05445
1480685866581417,-0.598788,-0.0870883,-1.05445
1480685866602475,-0.5988,-0.0871221,-1.05461
1480685866624532,-0.598584,-0.0866933,-1.05455
1480685866639572,-0.598584,-0.0866933,-1.05455
1480685866661630,-0.598649,-0.086593,-1.05459
1480685866682686,-0.598529,-0.0865328,-1.05458
1480685866706751,-0.598733,-0.0869278,-1.05449
1480685866729812,-0.598733,-0.0869278,-1.05449
1480685866775433,-0.598733,-0.0869278,-1.05449
1480685866782953,-0.598798,-0.0868275,-1.05453
1480685866785460,-0.598787,-0.0867937,-1.05438
1480685866803007,-0.598733,-0.0869278,-1.05449
1480685866821057,-0.598798,-0.0868275,-1.05453
1480685866848126,-0.598787,-0.0867937,-1.05438
1480685866879711,-0.598787,-0.0867937,-1.05438
1480685866882217,-0.599194,-0.0871011,-1.05421
1480685866903274,-0.599398,-0.087496,-1.05412
1480685866930344,-0.599398,-0.087496,-1.05412
1480685866939370,-0.599519,-0.0875562,-1.05412
1480685866968947,-0.599584,-0.0874559,-1.05416
1480685866985994,-0.599463,-0.0873957,-1.05416
1480685867006547,-0.599463,-0.0873957,-1.05416
1480685867042645,-0.599463,-0.0873957,-1.05416
1480685867053172,-0.599584,-0.0874559,-1.05416
1480685867072723,-0.599584,-0.0874559,-1.05416
1480685867090271,-0.599463,-0.0873957,-1.05416
1480685867104310,-0.599463,-0.0873957,-1.05416
1480685867126867,-0.599463,-0.0873957,-1.05416
1480685867158453,-0.599463,-0.0873957,-1.05416
1480685867164969,-0.599529,-0.0872954,-1.0542
1480685867193043,-0.599529,-0.0872954,-1.0542
1480685867215603,-0.599463,-0.0873957,-1.05416
1480685867231646,-0.599463,-0.0873957,-1.05416
1480685867238669,-0.599463,-0.0873957,-1.05416
1480685867261726,-0.599529,-0.0872954,-1.0542
1480685867284286,-0.599529,-0.0872954,-1.0542
1480685867299827,-0.599463,-0.0873957,-1.05416
1480685867329406,-0.599277,-0.0874358,-1.05411
1480685867344947,-0.599463,-0.0873957,-1.05416
1480685867365502,-0.599463,-0.0873957,-1.05416
1480685867382046,-0.599529,-0.0872954,-1.0542
1480685867412628,-0.599342,-0.0873355,-1.05415
1480685867434185,-0.599938,-0.0871287,-1.0543
1480685867444212,-0.601912,-0.0864596,-1.05401
1480685867486323,-0.60278,-0.0856884,-1.05377
1480685867492840,-0.602614,-0.084251,-1.05416
1480685867502366,-0.602523,-0.0834091,-1.05438
1480685867524926,-0.599336,-0.0817335,-1.05457
1480685867538462,-0.599461,-0.0817123,-1.0543
1480685867562525,-0.598638,-0.0817597,-1.05283
1480685867584084,-0.594987,-0.081544,-1.05148
1480685867606643,-0.593946,-0.0811489,-1.05086
1480685867621687,-0.594583,-0.0802799,-1.05193
1480685867659785,-0.597043,-0.079177,-1.0532
1480685867682345,-0.597639,-0.0785767,-1.05391
1480685867712424,-0.594172,-0.0764608,-1.05356
1480685867714932,-0.592564,-0.0743993,-1.05378
1480685867738007,-0.597612,-0.0725465,-1.05562
1480685867743508,-0.60867,-0.0703366,-1.05821
1480685867764563,-0.61476,-0.0675124,-1.06101
1480685867785117,-0.616274,-0.0654654,-1.0641
1480685867809183,-0.616653,-0.0642722,-1.06782
1480685867824223,-0.616941,-0.0627206,-1.07057
1480685867853801,-0.61636,-0.0623158,-1.07208
1480685867861821,-0.615748,-0.0629328,-1.07331
1480685867884383,-0.618052,-0.0630337,-1.07305
1480685867905940,-0.621527,-0.0626314,-1.07267
1480685867937524,-0.622132,-0.0624311,-1.07285
1480685867960584,-0.62249,-0.0626792,-1.07326
1480685867967603,-0.623,-0.0636598,-1.0744
1480685867989164,-0.620197,-0.0633408,-1.0754
1480685868011842,-0.616451,-0.0625022,-1.07611
1480685868025758,-0.612852,-0.0611311,-1.07579
1480685868049321,-0.610885,-0.058869,-1.07481
1480685868065363,-0.611668,-0.0583482,-1.07404
1480685868087424,-0.613955,-0.0597318,-1.0737
1480685868101967,-0.615857,-0.0611592,-1.07311
1480685868130536,-0.616455,-0.0618637,-1.07285
1480685868155606,-0.617001,-0.0624079,-1.07262
1480685868162622,-0.616974,-0.0627603,-1.0719
1480685868191699,-0.616723,-0.062624,-1.07162
1480685868221282,-0.61584,-0.0624946,-1.07135
1480685868245843,-0.615748,-0.0624183,-1.07137
1480685868265896,-0.615547,-0.0626339,-1.07096
1480685868276425,-0.615812,-0.0631408,-1.07071
1480685868289459,-0.615677,-0.0635502,-1.07041
1480685868304499,-0.614754,-0.0637987,-1.0702
1480685868327059,-0.614633,-0.0637383,-1.07019
1480685868347613,-0.614566,-0.0638379,-1.07015
1480685868370174,-0.614073,-0.0636645,-1.07013
1480685868394238,-0.613579,-0.0634912,-1.07012
1480685868407774,-0.613579,-0.0634912,-1.07012
1480685868424318,-0.613126,-0.0634443,-1.06991
1480685868446878,-0.612502,-0.0628837,-1.06966
1480685868460915,-0.612569,-0.062784,-1.06971
1480685868491999,-0.613306,-0.0629122,-1.06918
1480685868523582,-0.61328,-0.0635594,-1.06854
1480685868544638,-0.613091,-0.0641028,-1.06836
1480685868547145,-0.613091,-0.0641028,-1.06836
1480685868567197,-0.613091,-0.0641028,-1.06836
1480685868587754,-0.613078,-0.0640691,-1.0682
1480685868604299,-0.612286,-0.0642852,-1.06863
1480685868626856,-0.610305,-0.0641412,-1.06894
1480685868647913,-0.607997,-0.0635265,-1.06908
1480685868670472,-0.606551,-0.0625152,-1.06854
1480685868687016,-0.60716,-0.0616639,-1.06817
1480685868708072,-0.608322,-0.061854,-1.06781
1480685868725118,-0.60916,-0.0624676,-1.06777
1480685868748180,-0.60916,-0.0624676,-1.06777
1480685868769236,-0.608863,-0.0625624,-1.06815
1480685868799315,-0.608476,-0.0622879,-1.06847
1480685868822376,-0.608503,-0.0622724,-1.0685
1480685868827890,-0.608383,-0.062212,-1.06849
1480685868844938,-0.608383,-0.062212,-1.06849
1480685868882537,-0.608383,-0.062212,-1.06849
1480685868888552,-0.608383,-0.062212,-1.06849
1480685868904597,-0.608383,-0.062212,-1.06849
1480685868926653,-0.608567,-0.0626572,-1.06852
1480685868947709,-0.60963,-0.0640538,-1.06812
1480685868971773,-0.610829,-0.0654615,-1.0676
1480685868987318,-0.611555,-0.0660601,-1.06679
1480685869009375,-0.611089,-0.0662742,-1.0665
1480685869024914,-0.609737,-0.0665268,-1.06651
1480685869047976,-0.608813,-0.0666493,-1.06678
1480685869070536,-0.608746,-0.0667492,-1.06674
1480685869099112,-0.609498,-0.0666172,-1.06629
1480685869106632,-0.610128,-0.0670118,-1.06598
1480685869130696,-0.609756,-0.0675131,-1.06548
1480685869143732,-0.609834,-0.0684359,-1.06553
1480685869167795,-0.608291,-0.0685996,-1.06597
1480685869190355,-0.605998,-0.066739,-1.06633
1480685869203891,-0.605309,-0.065584,-1.06625
1480685869226951,-0.605857,-0.0652205,-1.06645
1480685869249512,-0.607243,-0.0658723,-1.06631
1480685869263550,-0.608125,-0.0659166,-1.0663
1480685869294131,-0.60762,-0.0652063,-1.06626
1480685869309179,-0.606191,-0.0645095,-1.06687
1480685869330227,-0.605027,-0.0642992,-1.06733
1480685869376350,-0.605372,-0.0645289,-1.06748
1480685869384371,-0.606348,-0.0643559,-1.06737
1480685869386878,-0.606649,-0.0634836,-1.06694
1480685869406930,-0.605976,-0.0631052,-1.06604
1480685869429490,-0.605971,-0.0624237,-1.06535
1480685869443529,-0.608384,-0.0633542,-1.06514
1480685869466589,-0.61172,-0.0646199,-1.0653
1480685869497171,-0.61373,-0.0648527,-1.06465
1480685869510206,-0.611109,-0.0642802,-1.06305
1480685869526749,-0.605955,-0.0635243,-1.06159
1480685869549309,-0.603179,-0.0630689,-1.06026
1480685869570365,-0.603426,-0.0629441,-1.05944
1480685869577384,-0.604813,-0.0628953,-1.05952
1480685869599442,-0.606717,-0.0632743,-1.05983
1480685869634034,-0.607168,-0.0636115,-1.06011
1480685869655592,-0.606994,-0.063685,-1.06021
1480685869667623,-0.607994,-0.0642708,-1.06019
1480685869679154,-0.609388,-0.0650471,-1.05957
1480685869697202,-0.609417,-0.0654336,-1.05931
1480685869712242,-0.608757,-0.0659369,-1.05981
1480685869734803,-0.608429,-0.0664239,-1.0605
1480685869757362,-0.608583,-0.0665638,-1.06108
1480685869774909,-0.607967,-0.0664153,-1.06134
1480685869795965,-0.606135,-0.0660288,-1.06161
1480685869818525,-0.603382,-0.0653636,-1.06246
1480685869835069,-0.604178,-0.0651311,-1.06294
1480685869863645,-0.603175,-0.0644137,-1.06344
1480685869910771,-0.601079,-0.064316,-1.06392
1480685869930824,-0.600479,-0.0643082,-1.06396
1480685869940852,-0.601051,-0.0646245,-1.06396
1480685869960903,-0.600144,-0.0641936,-1.06424
1480685869974941,-0.596546,-0.0629582,-1.06526
1480685869993992,-0.593788,-0.0598144,-1.06649
1480685869998504,-0.593789,-0.0570531,-1.0676
1480685870012040,-0.595604,-0.0545726,-1.06801
1480685870034600,-0.600653,-0.0525691,-1.06894
1480685870057661,-0.605951,-0.0520693,-1.07037
1480685870073704,-0.60679,-0.0522962,-1.07178
1480685870094759,-0.604911,-0.0521151,-1.07244
1480685870120328,-0.603037,-0.0515587,-1.07274
1480685870139879,-0.603074,-0.051849,-1.07311
1480685870165949,-0.604971,-0.0526636,-1.07302
1480685870212574,-0.606433,-0.0531715,-1.0728
1480685870218589,-0.606553,-0.053232,-1.07281
1480685870220093,-0.606222,-0.0529528,-1.07254
1480685870249170,-0.605679,-0.0526188,-1.07256
1480685870253683,-0.605492,-0.0526582,-1.07251
1480685870274739,-0.605559,-0.0525584,-1.07255
1480685870297299,-0.605927,-0.0530939,-1.07215
1480685870312338,-0.605982,-0.0543235,-1.07135
1480685870334899,-0.605731,-0.0555323,-1.0705
1480685870356956,-0.606002,-0.0566873,-1.0699
1480685870379517,-0.60705,-0.057438,-1.06984
1480685870402077,-0.60763,-0.0582735,-1.06999
1480685870418621,-0.607743,-0.0593228,-1.06984
1480685870437175,-0.607843,-0.0603389,-1.06955
1480685870466749,-0.607897,-0.060628,-1.06903
1480685870488306,-0.60802,-0.060313,-1.06868
1480685870515879,-0.608195,-0.0602402,-1.06858
1480685870523400,-0.607671,-0.0604584,-1.06889
1480685870537439,-0.606962,-0.0606339,-1.06887
1480685870553985,-0.606895,-0.0607337,-1.06883
1480685870574535,-0.606645,-0.0603885,-1.06875
1480685870597095,-0.605874,-0.059886,-1.06863
1480685870614141,-0.605409,-0.0598073,-1.06827
1480685870634695,-0.605487,-0.0605661,-1.06777
1480685870657256,-0.605739,-0.0614634,-1.06695
1480685870675303,-0.606262,-0.0620701,-1.06594
1480685870697864,-0.607064,-0.0623919,-1.06553
1480685870717416,-0.607532,-0.0632131,-1.0649
1480685870742482,-0.606922,-0.0640175,-1.06398
1480685870787605,-0.605034,-0.0641998,-1.06304
1480685870789607,-0.603228,-0.0637304,-1.06215
1480685870801141,-0.602396,-0.0633799,-1.06123
1480685870818688,-0.602646,-0.0631741,-1.06014
1480685870840242,-0.602508,-0.0629063,-1.05916
1480685870870327,-0.601249,-0.0620755,-1.05847
1480685870882354,-0.600029,-0.061454,-1.05787
1480685870897394,-0.600019,-0.0616333,-1.05752
1480685870914941,-0.600743,-0.0620204,-1.05691
1480685870934493,-0.601854,-0.0627618,-1.05627
1480685870975101,-0.603304,-0.0631316,-1.05535
1480685870977106,-0.606188,-0.063117,-1.05371
1480685871021225,-0.6091,-0.0633553,-1.05227
1480685871043283,-0.610843,-0.063282,-1.05167
1480685871048296,-0.611367,-0.0635758,-1.05033
1480685871080882,-0.611931,-0.0640069,-1.04789
1480685871085394,-0.612627,-0.0643187,-1.04582
1480685871099933,-0.613104,-0.0646615,-1.04431
1480685871114472,-0.614316,-0.0647001,-1.04269
1480685871137035,-0.616292,-0.0650888,-1.0414
1480685871159591,-0.618249,-0.0653139,-1.04044
1480685871174632,-0.618074,-0.0653989,-1.03963
1480685871197193,-0.617285,-0.0661212,-1.03914
1480685871219751,-0.618947,-0.0667385,-1.03862
1480685871234791,-0.62048,-0.0675561,-1.03801
1480685871273393,-0.620191,-0.0681701,-1.03735
1480685871295953,-0.620058,-0.0684634,-1.03663
1480685871321522,-0.620676,-0.0686869,-1.03665
1480685871341575,-0.62092,-0.0693721,-1.03692
1480685871344082,-0.621843,-0.0697887,-1.03665
1480685871354612,-0.622216,-0.0703647,-1.03637
1480685871386194,-0.622956,-0.071117,-1.03612
1480685871401234,-0.623253,-0.0716674,-1.03628
1480685871423794,-0.623803,-0.0720757,-1.03653
1480685871447858,-0.624296,-0.0727947,-1.03654
1480685871462396,-0.623567,-0.0735847,-1.03664
1480685871475933,-0.62338,-0.0736263,-1.03659
1480685871496988,-0.624104,-0.0743373,-1.03709
1480685871530578,-0.623791,-0.0747831,-1.03765
1480685871551634,-0.621148,-0.0746495,-1.03835
1480685871573692,-0.61643,-0.0740649,-1.03946
1480685871619815,-0.614486,-0.0747456,-1.04001
1480685871622324,-0.610242,-0.0747127,-1.04031
1480685871627836,-0.605486,-0.0744466,-1.0403
1480685871639868,-0.604566,-0.0744991,-1.0403
1480685871664935,-0.604,-0.0742224,-1.04044
1480685871703036,-0.602013,-0.0736205,-1.04078
1480685871709053,-0.598574,-0.0724036,-1.04095
1480685871723591,-0.598762,-0.0718883,-1.04127
1480685871747658,-0.60053,-0.071966,-1.0415
1480685871761693,-0.602361,-0.072025,-1.04205
1480685871777735,-0.602651,-0.0716993,-1.04278
1480685871804807,-0.602142,-0.0711902,-1.04345
1480685871853942,-0.602067,-0.0711597,-1.04388
1480685871875495,-0.602067,-0.0711597,-1.04388
1480685871877502,-0.602296,-0.0712449,-1.04374
1480685871900060,-0.602308,-0.0712784,-1.04389
1480685871903573,-0.602187,-0.0712191,-1.04389
1480685871917105,-0.602187,-0.0712191,-1.04389
1480685871993309,-0.602296,-0.0712449,-1.04374
1480685872002333,-0.602634,-0.0717315,-1.04381
1480685872008849,-0.602881,-0.0713929,-1.0432
1480685872024893,-0.60313,-0.0709569,-1.04321
1480685872037427,-0.602749,-0.070344,-1.04333
1480685872059484,-0.602749,-0.070344,-1.04333
1480685872077533,-0.602684,-0.0704446,-1.04329
1480685872097083,-0.602684,-0.0704446,-1.04329
1480685872130172,-0.602749,-0.070344,-1.04333
1480685872154240,-0.602749,-0.070344,-1.04333
1480685872158748,-0.602749,-0.070344,-1.04333
1480685872179804,-0.602628,-0.0702847,-1.04332
1480685872209885,-0.602563,-0.0703853,-1.04328
1480685872236457,-0.602563,-0.0703853,-1.04328
1480685872257011,-0.602628,-0.0702847,-1.04332
1480685872260019,-0.602628,-0.0702847,-1.04332
1480685872284582,-0.602628,-0.0702847,-1.04332
1480685872316668,-0.602563,-0.0703853,-1.04328
1480685872319175,-0.602656,-0.0702702,-1.04335
1480685872337225,-0.602618,-0.0705452,-1.04324
1480685872361286,-0.60309,-0.0707489,-1.04312
1480685872382343,-0.60309,-0.0707489,-1.04312
1480685872405906,-0.603025,-0.0708495,-1.04308
1480685872429969,-0.602503,-0.0706984,-1.04304
1480685872451527,-0.602569,-0.0705978,-1.04308
1480685872460551,-0.603199,-0.0707746,-1.04298
1480685872488626,-0.603013,-0.070816,-1.04293
1480685872510183,-0.603013,-0.070816,-1.04293
1480685872533745,-0.603013,-0.070816,-1.04293
1480685872564327,-0.603013,-0.070816,-1.04293
1480685872566834,-0.603134,-0.0708752,-1.04293
1480685872579868,-0.602669,-0.0703196,-1.0426
1480685872599419,-0.60299,-0.0701842,-1.04236
1480685872621981,-0.604889,-0.0701593,-1.04205
1480685872638524,-0.606484,-0.069845,-1.0415
1480685872664593,-0.606355,-0.0691049,-1.04081
1480685872682140,-0.605583,-0.0689222,-1.03986
1480685872707707,-0.604599,-0.0690906,-1.03892
1480685872731271,-0.604953,-0.0692491,-1.03788
1480685872742301,-0.605733,-0.0690926,-1.03746
1480685872766363,-0.604548,-0.0686754,-1.03787
1480685872795942,-0.604383,-0.0677233,-1.03825
1480685872809479,-0.604539,-0.0668374,-1.03793
1480685872823517,-0.599586,-0.0653444,-1.03677
1480685872856103,-0.595178,-0.0648165,-1.03586
1480685872869640,-0.595902,-0.0620089,-1.03617
1480685872881171,-0.602666,-0.0604714,-1.03702
1480685872899718,-0.606157,-0.0606734,-1.03734
1480685872939324,-0.601979,-0.0605284,-1.03661
1480685872941830,-0.596931,-0.0609614,-1.03514
1480685872986954,-0.595681,-0.0615127,-1.03467
1480685872990961,-0.596785,-0.061022,-1.03527
1480685873004497,-0.600297,-0.0594408,-1.03712
1480685873019537,-0.606252,-0.0580074,-1.03978
1480685873045105,-0.613201,-0.0563225,-1.04209
