timestamp,x,y,z
1480692066644099,-0.108398,-0.96875,0.302246
1480692066660142,-0.107422,-0.969727,0.296387
1480692066682702,-0.11084,-0.963379,0.304688
1480692066703761,-0.111816,-0.958008,0.296387
1480692066720308,-0.107422,-0.948242,0.306641
1480692066742863,-0.105957,-0.947754,0.308594
1480692066765923,-0.101074,-0.950195,0.303711
1480692066780963,-0.105469,-0.960938,0.304688
1480692066810541,-0.109863,-0.970215,0.297852
1480692066825080,-0.111328,-0.973633,0.302246
1480692066840137,-0.108398,-0.960938,0.30957
1480692066862681,-0.102539,-0.952637,0.300781
1480692066885240,-0.105469,-0.94873,0.306641
1480692066900280,-0.106445,-0.946777,0.306641
1480692066922840,-0.105469,-0.953613,0.310059
1480692066945400,-0.105469,-0.960938,0.304688
1480692066959437,-0.108398,-0.968262,0.302734
1480692066983000,-0.111816,-0.963867,0.305664
1480692067005562,-0.109863,-0.95752,0.299805
1480692067019599,-0.10791,-0.952637,0.299316
1480692067042658,-0.104004,-0.94873,0.300293
1480692067065220,-0.105957,-0.955566,0.295898
1480692067088281,-0.107422,-0.958984,0.306152
1480692067102819,-0.108887,-0.959473,0.302246
1480692067125379,-0.108398,-0.968262,0.305176
1480692067139917,-0.108887,-0.970703,0.304688
1480692067162979,-0.106445,-0.961914,0.306152
1480692067185538,-0.11084,-0.952148,0.297852
1480692067199576,-0.102051,-0.942383,0.299805
1480692067222637,-0.103027,-0.943848,0.297363
1480692067246200,-0.10498,-0.947754,0.302246
1480692067266253,-0.110352,-0.966797,0.297363
1480692067290317,-0.112793,-0.977539,0.305176
1480692067306360,-0.112793,-0.976563,0.311035
1480692067326413,-0.110352,-0.964844,0.306152
1480692067342957,-0.108398,-0.946777,0.308594
1480692067365517,-0.101563,-0.943359,0.303711
1480692067386574,-0.097168,-0.942383,0.307129
1480692067403117,-0.0986328,-0.95166,0.302734
1480692067432695,-0.104004,-0.966309,0.291016
1480692067446231,-0.10791,-0.972656,0.296875
1480692067462777,-0.109863,-0.976074,0.302734
1480692067485336,-0.109375,-0.956543,0.304199
1480692067506408,-0.107422,-0.946777,0.306152
1480692067522935,-0.106445,-0.945801,0.304688
1480692067545997,-0.104004,-0.952637,0.306641
1480692067568056,-0.103516,-0.958984,0.302246
1480692067582594,-0.108398,-0.962891,0.304688
1480692067605155,-0.107422,-0.967773,0.306641
1480692067626210,-0.104492,-0.961914,0.306152
1480692067642754,-0.107422,-0.957031,0.303711
1480692067665314,-0.104004,-0.948242,0.296875
1480692067686387,-0.100586,-0.948242,0.306152
1480692067703417,-0.106445,-0.958008,0.296875
1480692067725475,-0.111816,-0.958008,0.310547
1480692067748034,-0.110352,-0.972656,0.305176
1480692067762574,-0.11084,-0.973145,0.309082
1480692067785132,-0.10791,-0.959961,0.312012
1480692067807693,-0.10498,-0.952637,0.304688
1480692067822733,-0.104492,-0.951172,0.297852
1480692067845293,-0.103027,-0.937988,0.300781
1480692067867853,-0.101074,-0.947266,0.305176
1480692067881890,-0.11084,-0.964844,0.297363
1480692067905453,-0.106445,-0.974121,0.302246
1480692067928014,-0.108887,-0.975098,0.303711
1480692067942050,-0.109375,-0.966309,0.308105
1480692067965112,-0.108887,-0.953613,0.29834
1480692067987671,-0.0986328,-0.948242,0.304199
1480692068002210,-0.10498,-0.943359,0.304688
1480692068031287,-0.10498,-0.949219,0.304199
1480692068047832,-0.110352,-0.961426,0.301758
1480692068062370,-0.105469,-0.972168,0.302246
1480692068085432,-0.116699,-0.964844,0.30127
1480692068108493,-0.114258,-0.960938,0.300293
1480692068122033,-0.107422,-0.955566,0.30127
1480692068146093,-0.0996094,-0.942383,0.302246
1480692068168653,-0.100586,-0.950195,0.301758
1480692068197730,-0.105469,-0.958984,0.301758
1480692068205250,-0.107422,-0.964844,0.306152
1480692068227812,-0.110352,-0.972168,0.301758
1480692068256386,-0.108398,-0.969238,0.304199
1480692068265410,-0.109375,-0.961914,0.301758
1480692068287976,-0.106934,-0.954102,0.296387
1480692068309026,-0.106445,-0.950195,0.297852
1480692068325069,-0.104492,-0.951172,0.293945
1480692068347629,-0.106445,-0.955078,0.302246
1480692068368685,-0.113281,-0.961914,0.298828
1480692068385229,-0.111816,-0.970703,0.303223
1480692068407789,-0.116211,-0.973145,0.300293
1480692068428847,-0.110352,-0.961426,0.308105
1480692068445389,-0.104492,-0.949707,0.306152
1480692068467950,-0.102051,-0.952148,0.295898
1480692068489005,-0.104492,-0.955566,0.303711
1480692068505549,-0.106934,-0.961426,0.301758
1480692068527607,-0.111816,-0.970215,0.301758
1480692068549666,-0.11084,-0.971191,0.300293
1480692068565709,-0.114746,-0.96582,0.303223
1480692068587768,-0.108887,-0.95752,0.310547
1480692068608824,-0.11084,-0.951172,0.306641
1480692068625368,-0.0996094,-0.940918,0.300781
1480692068647927,-0.101074,-0.950684,0.30957
1480692068670487,-0.109863,-0.958984,0.305664
1480692068685528,-0.108398,-0.970215,0.310547
1480692068707586,-0.108398,-0.977539,0.307617
1480692068730146,-0.10791,-0.973633,0.305664
1480692068751201,-0.110352,-0.960938,0.310059
1480692068767746,-0.107422,-0.94873,0.307129
1480692068790307,-0.097168,-0.945801,0.314941
1480692068811863,-0.0996094,-0.945801,0.312012
1480692068827907,-0.101563,-0.956543,0.3125
1480692068850467,-0.106934,-0.966797,0.317383
1480692068872524,-0.106934,-0.978516,0.305176
1480692068888567,-0.104004,-0.967285,0.313477
1480692068910124,-0.10498,-0.952148,0.30957
1480692068924663,-0.101563,-0.939453,0.310547
1480692068947725,-0.0922852,-0.943848,0.31543
1480692068970289,-0.0888672,-0.949707,0.314941
1480692068984824,-0.0942383,-0.951172,0.314453
1480692069007884,-0.101074,-0.955078,0.317871
1480692069030946,-0.110352,-0.958008,0.306641
1480692069044481,-0.111816,-0.960449,0.306152
1480692069068044,-0.104492,-0.944824,0.312988
1480692069090106,-0.104004,-0.938965,0.3125
1480692069104642,-0.0957031,-0.937012,0.317383
1480692069129207,-0.10498,-0.948242,0.315918
1480692069150279,-0.10498,-0.958008,0.319824
1480692069171319,-0.097168,-0.968262,0.318359
1480692069187863,-0.0922852,-0.962402,0.320313
1480692069210423,-0.0932617,-0.947754,0.316895
1480692069231479,-0.0952148,-0.946777,0.311035
1480692069248023,-0.0893555,-0.938477,0.308594
1480692069270084,-0.0996094,-0.944336,0.306641
1480692069291137,-0.0976563,-0.950195,0.305176
1480692069307682,-0.101563,-0.963379,0.316895
1480692069330242,-0.105957,-0.97168,0.318848
1480692069351298,-0.101563,-0.970703,0.324707
1480692069367842,-0.106445,-0.961426,0.323242
1480692069390403,-0.104004,-0.946289,0.321777
1480692069411959,-0.0976563,-0.937988,0.312012
1480692069428504,-0.101563,-0.944336,0.311523
1480692069450561,-0.102051,-0.952148,0.306641
1480692069471619,-0.104492,-0.959473,0.30957
1480692069487661,-0.109863,-0.970703,0.306641
1480692069510221,-0.105957,-0.97168,0.309082
1480692069531276,-0.10498,-0.963379,0.311035
1480692069547821,-0.10498,-0.955078,0.315918
1480692069570883,-0.102051,-0.949219,0.313965
1480692069591436,-0.0947266,-0.941406,0.310547
1480692069607980,-0.0986328,-0.955566,0.311035
1480692069630546,-0.106934,-0.962891,0.306152
1480692069652601,-0.107422,-0.967285,0.300781
1480692069667139,-0.107422,-0.96582,0.30127
1480692069691202,-0.108398,-0.958008,0.311035
1480692069712758,-0.104492,-0.951172,0.310547
1480692069727799,-0.102051,-0.949219,0.308594
1480692069750862,-0.10498,-0.952148,0.308594
1480692069772919,-0.0981445,-0.955078,0.320801
1480692069786956,-0.104492,-0.968262,0.312012
1480692069810017,-0.108887,-0.969727,0.313965
1480692069832577,-0.108887,-0.961914,0.313477
1480692069847116,-0.106934,-0.955566,0.311035
1480692069870178,-0.10791,-0.958984,0.313965
1480692069892737,-0.104004,-0.947266,0.306152
1480692069907279,-0.104492,-0.946289,0.306152
1480692069930338,-0.103516,-0.951172,0.305176
1480692069952899,-0.106934,-0.964844,0.305664
1480692069974455,-0.107422,-0.969238,0.303223
1480692069990497,-0.105957,-0.969238,0.306641
1480692070013058,-0.105469,-0.950684,0.310547
1480692070027095,-0.104492,-0.942871,0.307129
1480692070056172,-0.105469,-0.941895,0.307129
1480692070072716,-0.108398,-0.953613,0.303223
1480692070087255,-0.114258,-0.971191,0.31543
1480692070110316,-0.109375,-0.976074,0.305664
1480692070140397,-0.10498,-0.967285,0.311035
1480692070153932,-0.102539,-0.963867,0.305664
1480692070170978,-0.10498,-0.956055,0.305664
1480692070199055,-0.104004,-0.942871,0.303711
1480692070213591,-0.0991211,-0.942383,0.311035
1480692070236655,-0.100098,-0.957031,0.306152
1480692070253201,-0.108887,-0.963379,0.303711
1480692070273750,-0.106934,-0.963867,0.303711
1480692070290295,-0.109375,-0.963867,0.307129
1480692070312854,-0.111816,-0.966797,0.307129
1480692070335416,-0.106934,-0.955078,0.306152
1480692070350956,-0.104492,-0.941895,0.304199
1480692070373015,-0.103516,-0.946289,0.308594
1480692070395576,-0.097168,-0.952148,0.306641
1480692070417633,-0.108398,-0.964355,0.304199
1480692070432673,-0.111816,-0.96875,0.30957
1480692070455233,-0.116211,-0.97168,0.308105
1480692070470279,-0.112793,-0.96875,0.305176
1480692070492833,-0.106445,-0.95459,0.306152
1480692070513889,-0.105469,-0.942871,0.296387
1480692070531436,-0.101563,-0.946777,0.303223
1480692070553498,-0.106445,-0.958496,0.301758
1480692070581068,-0.108887,-0.966797,0.303223
1480692070590092,-0.111328,-0.97168,0.299316
1480692070620174,-0.112793,-0.97168,0.297852
1480692070635212,-0.107422,-0.967285,0.305176
1480692070651255,-0.111816,-0.953613,0.302246
1480692070673814,-0.106934,-0.942871,0.302246
1480692070695372,-0.104004,-0.944824,0.302734
1480692070716427,-0.106934,-0.956543,0.302246
1480692070732973,-0.108398,-0.967285,0.301758
1480692070755532,-0.111328,-0.972656,0.300781
1480692070776087,-0.107422,-0.966797,0.300781
1480692070792631,-0.111328,-0.964355,0.302734
1480692070816193,-0.108887,-0.95752,0.30127
1480692070829729,-0.103027,-0.944824,0.299805
1480692070853793,-0.101563,-0.946777,0.304199
1480692070875350,-0.102051,-0.956055,0.304199
1480692070889889,-0.108398,-0.962402,0.302734
1480692070912950,-0.115234,-0.972168,0.306152
1480692070935010,-0.114258,-0.967773,0.30127
1480692070956567,-0.116211,-0.960449,0.298828
1480692070972609,-0.105469,-0.95752,0.304199
1480692070995170,-0.103027,-0.95166,0.30127
1480692071009708,-0.103027,-0.951172,0.297852
1480692071040289,-0.102539,-0.958496,0.301758
1480692071055328,-0.103027,-0.963867,0.304199
1480692071076385,-0.108398,-0.965332,0.30127
1480692071094434,-0.111328,-0.965332,0.306641
1480692071115488,-0.108398,-0.959473,0.303223
1480692071137049,-0.103516,-0.95166,0.297852
1480692071154092,-0.106445,-0.94873,0.30127
1480692071175148,-0.10791,-0.946289,0.29834
1480692071203723,-0.106934,-0.953125,0.300781
1480692071212256,-0.108887,-0.970703,0.303223
1480692071235308,-0.109863,-0.974121,0.301758
1480692071256363,-0.113281,-0.969238,0.302734
1480692071280429,-0.106934,-0.956055,0.301758
1480692071295468,-0.104492,-0.951172,0.299805
1480692071316524,-0.102051,-0.947754,0.302734
1480692071339083,-0.100586,-0.954102,0.300781
1480692071355126,-0.105957,-0.961426,0.300781
1480692071376182,-0.107422,-0.966309,0.293945
1480692071392727,-0.106445,-0.977539,0.300293
1480692071415788,-0.112793,-0.965332,0.296387
1480692071436344,-0.11377,-0.952148,0.30127
1480692071452888,-0.101074,-0.951172,0.300293
1480692071475446,-0.107422,-0.955078,0.303711
1480692071496503,-0.105957,-0.951172,0.306641
1480692071512043,-0.105469,-0.95752,0.299805
1480692071537612,-0.103027,-0.973633,0.309082
1480692071557665,-0.108887,-0.975098,0.298828
1480692071572705,-0.115234,-0.966797,0.296387
1480692071595265,-0.103516,-0.955566,0.298828
1480692071618327,-0.103516,-0.950684,0.296875
1480692071634371,-0.105469,-0.950684,0.295898
1480692071655425,-0.10791,-0.952637,0.302246
1480692071677985,-0.104492,-0.956055,0.306152
1480692071701047,-0.113281,-0.97168,0.301758
1480692071721100,-0.117676,-0.973145,0.299316
1480692071738145,-0.11377,-0.964355,0.299316
1480692071760204,-0.105469,-0.958984,0.293457
1480692071776247,-0.104004,-0.95166,0.299316
1480692071797804,-0.10498,-0.949707,0.294922
1480692071812342,-0.103027,-0.95752,0.301758
1480692071842923,-0.105957,-0.962891,0.301758
1480692071865483,-0.106934,-0.967285,0.29834
1480692071879019,-0.108887,-0.970703,0.299316
1480692071895063,-0.109375,-0.959961,0.297852
1480692071917622,-0.105957,-0.952637,0.299316
1480692071932161,-0.103027,-0.95459,0.301758
1480692071955223,-0.106934,-0.946777,0.291992
1480692071977782,-0.103027,-0.953125,0.299316
1480692071992321,-0.109863,-0.961914,0.299316
1480692072015383,-0.109375,-0.96875,0.299805
1480692072038443,-0.108887,-0.972168,0.302246
1480692072058999,-0.10791,-0.96582,0.308594
1480692072075542,-0.106934,-0.958008,0.311035
1480692072097601,-0.103027,-0.950195,0.30127
1480692072119162,-0.104004,-0.947266,0.302734
1480692072136708,-0.100098,-0.953125,0.300781
1480692072157761,-0.106934,-0.966309,0.303711
1480692072178817,-0.113281,-0.974609,0.29834
1480692072195862,-0.110352,-0.969238,0.294434
1480692072217921,-0.104004,-0.959961,0.296387
1480692072238977,-0.10498,-0.953613,0.30127
1480692072255522,-0.102051,-0.945801,0.302246
1480692072277579,-0.107422,-0.949707,0.301758
1480692072298635,-0.104492,-0.958496,0.297363
1480692072315179,-0.10791,-0.965332,0.301758
1480692072338242,-0.109863,-0.974121,0.296387
1480692072366315,-0.108398,-0.970215,0.299316
1480692072375340,-0.106934,-0.961426,0.302246
1480692072397899,-0.104004,-0.95166,0.297852
1480692072418957,-0.102051,-0.950195,0.298828
1480692072435499,-0.101074,-0.953125,0.302246
1480692072458561,-0.109863,-0.960449,0.297852
1480692072480118,-0.108398,-0.968262,0.305176
1480692072495659,-0.10791,-0.970215,0.302734
1480692072517718,-0.107422,-0.967285,0.302246
1480692072540277,-0.109863,-0.956543,0.29541
1480692072555318,-0.106445,-0.949219,0.300293
1480692072578880,-0.103516,-0.949219,0.296387
1480692072601441,-0.106445,-0.956055,0.296387
1480692072614475,-0.102051,-0.964355,0.29541
1480692072645056,-0.10791,-0.972656,0.296875
1480692072660097,-0.109863,-0.97168,0.299316
1480692072675137,-0.11377,-0.971191,0.304688
1480692072699193,-0.105469,-0.953125,0.303711
1480692072726264,-0.103516,-0.942871,0.306152
1480692072734787,-0.0991211,-0.941895,0.297852
1480692072758851,-0.103027,-0.953613,0.295898
1480692072779907,-0.104004,-0.958984,0.300781
1480692072801464,-0.111816,-0.966797,0.300293
1480692072818008,-0.109375,-0.967773,0.299805
1480692072840568,-0.106445,-0.969238,0.300781
1480692072854606,-0.107422,-0.95752,0.294434
1480692072877666,-0.104004,-0.952637,0.297363
1480692072900226,-0.102539,-0.947266,0.299805
1480692072923288,-0.104004,-0.953125,0.302734
1480692072937827,-0.11084,-0.95752,0.300293
1480692072960888,-0.109863,-0.968262,0.304688
1480692072981442,-0.11084,-0.97168,0.300293
1480692073006011,-0.110352,-0.967773,0.29834
1480692073021549,-0.106445,-0.959961,0.299316
1480692073042104,-0.104492,-0.95166,0.29248
1480692073058147,-0.103516,-0.946289,0.29834
1480692073080205,-0.104492,-0.951172,0.297852
1480692073101262,-0.106934,-0.962402,0.299805
1480692073117805,-0.11377,-0.976563,0.29834
1480692073140367,-0.108398,-0.970703,0.297852
1480692073161422,-0.109375,-0.962891,0.299805
1480692073179469,-0.106934,-0.956543,0.30127
1480692073207543,-0.10498,-0.947266,0.297852
1480692073228600,-0.101074,-0.953613,0.29834
1480692073237625,-0.103516,-0.957031,0.293457
1480692073261188,-0.109375,-0.969238,0.297852
1480692073292269,-0.106934,-0.972168,0.297363
1480692073298285,-0.105957,-0.966797,0.296875
1480692073320343,-0.110352,-0.962402,0.304688
1480692073341901,-0.108887,-0.95459,0.296387
1480692073357944,-0.102051,-0.950195,0.299316
1480692073380503,-0.103027,-0.944336,0.299316
1480692073401560,-0.0996094,-0.947754,0.292969
1480692073425122,-0.109375,-0.963867,0.295898
1480692073440163,-0.109863,-0.974609,0.293457
1480692073478266,-0.112793,-0.975098,0.29834
1480692073480771,-0.113281,-0.96582,0.30127
1480692073500322,-0.106445,-0.953613,0.304199
1480692073528899,-0.101563,-0.950195,0.30127
1480692073537923,-0.106934,-0.947266,0.302246
1480692073560986,-0.100098,-0.954102,0.302734
1480692073582540,-0.105469,-0.962891,0.29834
1480692073597080,-0.108398,-0.969727,0.29541
1480692073620141,-0.111816,-0.967285,0.291016
1480692073643703,-0.109863,-0.959473,0.310547
1480692073657240,-0.106445,-0.950684,0.299316
1480692073670776,-0.107422,-0.94873,0.30127
1480692073685821,-0.100586,-0.949219,0.302246
1480692073708376,-0.106445,-0.962402,0.297852
1480692073732941,-0.108398,-0.969727,0.296387
1480692073745475,-0.108887,-0.969238,0.304688
1480692073768034,-0.11084,-0.967285,0.302734
1480692073786086,-0.108887,-0.961426,0.296387
1480692073805634,-0.102539,-0.95166,0.299316
1480692073831202,-0.103027,-0.945313,0.290039
1480692073844739,-0.103516,-0.952637,0.293457
1480692073865795,-0.106934,-0.957031,0.290527
1480692073890361,-0.106445,-0.96582,0.297363
1480692073904398,-0.115234,-0.974121,0.297363
1480692073925954,-0.11377,-0.96582,0.299805
1480692073951022,-0.106934,-0.955566,0.299316
1480692073964558,-0.106445,-0.951172,0.302734
1480692073985615,-0.103027,-0.94873,0.297852
1480692074008173,-0.10498,-0.951172,0.297852
1480692074026722,-0.10498,-0.966309,0.302734
1480692074045772,-0.109863,-0.975098,0.299805
1480692074068333,-0.109863,-0.974121,0.294922
1480692074086382,-0.105469,-0.966309,0.304199
1480692074105932,-0.109375,-0.955078,0.29541
1480692074127993,-0.10791,-0.940918,0.298828
1480692074148044,-0.108398,-0.948242,0.300781
1480692074173111,-0.102051,-0.950195,0.298828
1480692074195672,-0.0996094,-0.960449,0.300293
1480692074210711,-0.106445,-0.961914,0.293945
1480692074233773,-0.11084,-0.969238,0.299805
1480692074258839,-0.112793,-0.968262,0.299316
1480692074272877,-0.106445,-0.964355,0.300781
1480692074285915,-0.104492,-0.947266,0.296875
1480692074307970,-0.101563,-0.947266,0.294922
1480692074330530,-0.103516,-0.956055,0.297852
1480692074346074,-0.107422,-0.962891,0.302734
1480692074368130,-0.10791,-0.966309,0.303223
1480692074390691,-0.111328,-0.965332,0.30127
1480692074406232,-0.108398,-0.960449,0.299805
1480692074428291,-0.106445,-0.956543,0.29541
1480692074452356,-0.103516,-0.948242,0.297363
1480692074465389,-0.105469,-0.946777,0.296387
1480692074487949,-0.10791,-0.950684,0.302246
1480692074510508,-0.109375,-0.96875,0.294434
1480692074529559,-0.108398,-0.975098,0.29541
1480692074548109,-0.111328,-0.973145,0.296387
1480692074570669,-0.110352,-0.962402,0.302246
1480692074585711,-0.102051,-0.960449,0.300293
1480692074608268,-0.106934,-0.948242,0.30127
1480692074630829,-0.102539,-0.946289,0.295898
1480692074645868,-0.104004,-0.954102,0.297363
1480692074670935,-0.106934,-0.967285,0.294434
1480692074690487,-0.11377,-0.975586,0.294434
1480692074705528,-0.112793,-0.967773,0.291992
1480692074729591,-0.109375,-0.948242,0.285645
1480692074750647,-0.114746,-0.95166,0.291504
1480692074765687,-0.108398,-0.958008,0.289063
1480692074788247,-0.0981445,-0.944336,0.293945
1480692074813314,-0.100586,-0.950684,0.292969
1480692074825847,-0.0976563,-0.958984,0.288086
1480692074855426,-0.10791,-0.967285,0.277832
1480692074871970,-0.105469,-0.977051,0.279785
1480692074886509,-0.111328,-0.96875,0.273438
1480692074908066,-0.106934,-0.95166,0.25293
1480692074930627,-0.106934,-0.950195,0.254883
1480692074954690,-0.106934,-0.972656,0.233887
1480692074975745,-0.109863,-1.01465,0.21582
1480692074990786,-0.140625,-1.03516,0.19873
1480692075007831,-0.148438,-1.04736,0.20752
1480692075031899,-0.122559,-1.05859,0.230957
1480692075058967,-0.114258,-1.05664,0.27832
1480692075066989,-0.100586,-1.02002,0.313477
1480692075091053,-0.0913086,-0.969238,0.33252
1480692075110603,-0.0874023,-0.966309,0.33252
1480692075144195,-0.0717773,-0.973145,0.331055
1480692075149709,-0.0805664,-0.979492,0.303711
1480692075172271,-0.0761719,-0.961914,0.291504
1480692075194829,-0.0732422,-0.969727,0.262207
1480692075208364,-0.0795898,-0.960449,0.250977
1480692075231426,-0.0742188,-0.925781,0.258789
1480692075255991,-0.0600586,-0.903809,0.288574
1480692075268024,-0.0493164,-0.909668,0.31543
1480692075290584,-0.065918,-0.944824,0.324707
1480692075316652,-0.081543,-0.947754,0.339355
1480692075328182,-0.0966797,-0.934082,0.344238
1480692075350751,-0.0942383,-0.935059,0.338867
1480692075373302,-0.0888672,-0.92041,0.330078
1480692075388342,-0.0786133,-0.932617,0.302734
1480692075410401,-0.0537109,-0.937012,0.270508
1480692075428450,-0.0546875,-0.943848,0.252441
1480692075449505,-0.0585938,-0.932617,0.23291
1480692075478081,-0.0561523,-0.932617,0.247559
1480692075502147,-0.0654297,-0.958008,0.272461
1480692075511169,-0.059082,-0.966797,0.294434
1480692075530721,-0.0561523,-0.96875,0.307129
1480692075548769,-0.0605469,-0.955566,0.312988
1480692075576344,-0.0771484,-0.945801,0.305664
1480692075590881,-0.0859375,-0.947266,0.300781
1480692075614445,-0.0825195,-0.954102,0.286133
1480692075627981,-0.0776367,-0.973633,0.287598
1480692075650540,-0.0756836,-0.983887,0.278809
1480692075673100,-0.0771484,-0.989746,0.285645
1480692075695661,-0.0678711,-0.999023,0.279297
1480692075710700,-0.0605469,-1.0127,0.275391
1480692075733260,-0.0634766,-1,0.275391
1480692075748300,-0.0727539,-0.988281,0.271973
1480692075779383,-0.0844727,-0.977051,0.266113
1480692075792919,-0.0913086,-0.979492,0.257324
1480692075815478,-0.0888672,-0.987793,0.25293
1480692075833527,-0.0922852,-0.983398,0.25
1480692075870125,-0.0805664,-0.973633,0.258789
1480692075872631,-0.0722656,-0.961426,0.265625
1480692075893692,-0.0751953,-0.951172,0.269043
1480692075913238,-0.0820313,-0.957031,0.273926
1480692075931287,-0.0830078,-0.980469,0.271973
1480692075950839,-0.0864258,-0.989746,0.261719
1480692075973399,-0.090332,-0.988281,0.262695
1480692075989441,-0.0820313,-0.983398,0.257813
1480692076010498,-0.0795898,-0.970215,0.260254
1480692076041079,-0.0834961,-0.960449,0.252441
1480692076064642,-0.0791016,-0.953613,0.257813
1480692076070659,-0.0830078,-0.963867,0.259766
1480692076110263,-0.0830078,-0.969238,0.257813
1480692076114775,-0.0830078,-0.97998,0.249512
1480692076132321,-0.0898438,-0.972656,0.252441
1480692076170424,-0.0957031,-0.977051,0.251465
1480692076172933,-0.0849609,-0.967773,0.254883
1480692076190477,-0.0776367,-0.961914,0.250488
1480692076213035,-0.081543,-0.959961,0.248535
1480692076232587,-0.081543,-0.982422,0.253418
1480692076258156,-0.0927734,-0.996582,0.247559
1480692076280716,-0.0844727,-1.0083,0.25293
1480692076291244,-0.0834961,-0.995605,0.257324
1480692076313302,-0.0864258,-0.97998,0.255859
1480692076341379,-0.0874023,-0.970703,0.248535
1480692076350903,-0.0878906,-0.962402,0.259766
1480692076370457,-0.0839844,-0.967773,0.253906
1480692076393014,-0.0942383,-0.980957,0.250488
1480692076413068,-0.0986328,-0.990723,0.239746
1480692076432118,-0.0952148,-0.99707,0.248047
1480692076453174,-0.0883789,-0.983887,0.243652
1480692076475734,-0.0869141,-0.968262,0.23291
1480692076490775,-0.0888672,-0.95752,0.231934
1480692076520855,-0.0874023,-0.965332,0.227539
1480692076530882,-0.0825195,-0.970703,0.233398
1480692076550434,-0.0834961,-0.986328,0.231445
1480692076589537,-0.0825195,-0.991211,0.234863
1480692076598563,-0.0922852,-0.984863,0.234375
1480692076618113,-0.0932617,-0.976074,0.246582
1480692076640673,-0.0883789,-0.963379,0.244629
1480692076651206,-0.0883789,-0.955078,0.237305
1480692076670763,-0.0834961,-0.959473,0.237793
1480692076700838,-0.0810547,-0.972168,0.227539
1480692076711866,-0.081543,-0.991699,0.222168
1480692076730416,-0.0834961,-0.991211,0.225586
1480692076752978,-0.0888672,-0.997559,0.237305
1480692076778546,-0.090332,-0.998535,0.237305
1480692076798097,-0.0932617,-1.00342,0.250488
1480692076817150,-0.0932617,-0.99707,0.251465
1480692076847227,-0.0893555,-0.990723,0.254395
1480692076853243,-0.0957031,-0.976563,0.246582
1480692076876806,-0.100586,-0.981445,0.244629
1480692076898363,-0.102539,-0.986328,0.230957
1480692076917915,-0.0898438,-0.987793,0.224121
1480692076940480,-0.0878906,-0.969727,0.214844
1480692076955518,-0.0854492,-0.953613,0.208008
1480692076972061,-0.0791016,-0.950195,0.208008
1480692076993116,-0.0688477,-0.944824,0.205566
1480692077015675,-0.0698242,-0.950684,0.213867
1480692077039741,-0.0791016,-0.966797,0.220703
1480692077053276,-0.0825195,-0.97168,0.238281
1480692077071323,-0.0942383,-0.980957,0.23877
1480692077092881,-0.104004,-0.987793,0.250977
1480692077114437,-0.108887,-1,0.259277
1480692077144016,-0.0947266,-0.983887,0.258301
1480692077167078,-0.0961914,-0.960938,0.252441
1480692077173094,-0.102539,-0.961914,0.22998
1480692077196657,-0.097168,-0.996094,0.220215
1480692077214705,-0.081543,-1.00684,0.223633
1480692077236764,-0.0854492,-1.00928,0.238281
1480692077255817,-0.0825195,-1.00293,0.248535
1480692077275365,-0.0854492,-0.990234,0.258301
1480692077292913,-0.0849609,-0.979004,0.256348
1480692077332517,-0.0844727,-0.975098,0.248535
1480692077337532,-0.0917969,-0.973145,0.235352
1480692077353578,-0.0893555,-0.983398,0.230469
1480692077375633,-0.0878906,-0.991699,0.216797
1480692077394684,-0.0830078,-0.978027,0.214844
1480692077413232,-0.0898438,-0.97168,0.208984
1480692077455845,-0.103027,-0.963379,0.208496
1480692077458853,-0.10791,-0.955566,0.211426
1480692077476903,-0.103516,-0.956055,0.213867
1480692077499463,-0.0961914,-0.955078,0.222656
1480692077513498,-0.0927734,-0.96875,0.224609
1480692077533051,-0.0966797,-0.990723,0.21875
1480692077555613,-0.0981445,-0.998535,0.212402
1480692077581179,-0.0986328,-0.992188,0.211914
1480692077593211,-0.0834961,-0.98584,0.216309
1480692077615770,-0.0844727,-0.972656,0.219727
1480692077639837,-0.078125,-0.977539,0.225586
1480692077655880,-0.0834961,-0.979004,0.232422
1480692077675931,-0.100098,-0.987305,0.228027
1480692077693979,-0.119141,-0.986816,0.236328
1480692077720551,-0.124512,-0.981934,0.230469
1480692077735589,-0.134766,-0.978516,0.232422
1480692077755647,-0.121582,-0.967285,0.218262
1480692077774693,-0.116699,-0.981445,0.212402
1480692077803270,-0.116211,-0.997559,0.206543
1480692077835354,-0.110352,-1.00684,0.202148
1480692077837862,-0.105957,-1.01807,0.197266
1480692077855409,-0.108887,-1.01367,0.20459
1480692077874459,-0.111328,-0.979004,0.19873
1480692077896018,-0.0864258,-0.944336,0.187988
1480692077923090,-0.0415039,-0.937988,0.19043
1480692077947655,-0.0356445,-0.940918,0.163086
1480692077954673,-0.0629883,-0.95752,0.152344
1480692077979237,-0.0732422,-0.981445,0.142578
1480692078002803,-0.0981445,-0.993164,0.14209
1480692078023356,-0.12207,-1.01318,0.145996
1480692078043407,-0.125977,-1.02686,0.175293
1480692078053442,-0.125,-1.02539,0.201172
1480692078082011,-0.106934,-1.00586,0.213867
1480692078095548,-0.101074,-0.993652,0.218262
1480692078114096,-0.103516,-1.01074,0.20752
1480692078143674,-0.113281,-1.01904,0.186523
1480692078157712,-0.103516,-1.02344,0.194336
1480692078173755,-0.120605,-0.980957,0.172852
1480692078217872,-0.125,-0.974121,0.158203
1480692078219878,-0.125,-0.955078,0.169434
1480692078233414,-0.120605,-0.946289,0.178711
1480692078255975,-0.111328,-0.943848,0.192383
1480692078279034,-0.10791,-0.952148,0.205078
1480692078305607,-0.111816,-0.955566,0.202148
1480692078316132,-0.115723,-0.971191,0.1875
1480692078335685,-0.125488,-0.96875,0.183105
1480692078361755,-0.128418,-0.991699,0.168457
1480692078376293,-0.125,-0.998535,0.172363
1480692078395845,-0.12793,-1.01074,0.182617
1480692078421413,-0.121094,-1.01416,0.193359
1480692078452497,-0.118164,-1.02979,0.207031
1480692078457008,-0.129883,-1.04297,0.216797
1480692078474053,-0.119629,-1.01953,0.194824
1480692078503632,-0.111328,-1.02734,0.204102
1480692078523184,-0.117188,-1.04785,0.193359
1480692078533712,-0.112793,-1.04248,0.194824
1480692078556272,-0.11084,-0.981934,0.196777
1480692078577328,-0.108398,-0.954102,0.195313
1480692078605904,-0.112305,-0.928711,0.194824
1480692078615930,-0.118164,-0.938965,0.189941
1480692078638998,-0.114258,-0.948242,0.18457
1480692078658042,-0.124023,-0.97168,0.180176
1480692078676090,-0.126953,-0.996582,0.187988
1480692078695643,-0.12207,-0.978027,0.200684
1480692078722714,-0.104004,-0.977051,0.209473
1480692078736753,-0.0966797,-0.966797,0.203613
1480692078755802,-0.0859375,-0.974121,0.210938
1480692078778362,-0.0761719,-0.966797,0.213867
1480692078795909,-0.0859375,-0.97998,0.217773
1480692078818469,-0.0966797,-0.987305,0.228516
1480692078838024,-0.107422,-0.996094,0.229492
1480692078856070,-0.101074,-0.980469,0.224121
1480692078883142,-0.109375,-0.97168,0.229492
1480692078899685,-0.109863,-0.96875,0.229492
1480692078916228,-0.108887,-0.958496,0.227051
1480692078944804,-0.130859,-0.972656,0.229004
1480692078958843,-0.109375,-0.964355,0.20752
1480692078975889,-0.121094,-1.03857,0.214844
1480692079004465,-0.0932617,-1.0332,0.211914
1480692079018001,-0.101074,-0.976563,0.18457
1480692079036550,-0.126465,-0.963379,0.183105
1480692079063621,-0.090332,-0.911133,0.166992
1480692079088687,-0.0693359,-0.927246,0.15625
1480692079096208,-0.0668945,-1.01807,0.180176
1480692079118769,-0.100098,-1.00195,0.211426
1480692079140826,-0.0859375,-1.00098,0.255371
1480692079155866,-0.107422,-0.968262,0.318848
1480692079183440,-0.143066,-0.934082,0.338867
1480692079197978,-0.145996,-0.956543,0.329102
1480692079220537,-0.144043,-1.00049,0.302246
1480692079238586,-0.125977,-1.00635,0.275879
1480692079258146,-0.128906,-0.991699,0.251953
1480692079276687,-0.112305,-0.962891,0.232422
1480692079298746,-0.100098,-0.941895,0.228516
1480692079335348,-0.0976563,-0.90918,0.219727
1480692079337349,-0.104492,-0.914063,0.230957
1480692079365925,-0.131836,-0.930664,0.24707
1480692079380464,-0.102051,-0.944336,0.266602
1480692079396506,-0.11377,-0.95752,0.266602
1480692079418564,-0.109863,-0.950684,0.26416
1480692079445636,-0.109375,-0.969727,0.263184
1480692079456164,-0.101074,-1.00146,0.255371
1480692079481237,-0.107422,-0.994141,0.234863
1480692079499781,-0.108398,-0.969238,0.227051
1480692079528358,-0.122559,-0.969238,0.21875
1480692079539386,-0.116211,-0.975586,0.225586
1480692079557962,-0.11084,-1.01904,0.227539
1480692079581999,-0.140625,-0.986816,0.225098
1480692079606064,-0.150879,-1.00635,0.234863
1480692079618098,-0.13623,-1.01074,0.267578
1480692079643664,-0.166016,-1,0.273926
1480692079659706,-0.171875,-1.02881,0.240234
1480692079679759,-0.163086,-1.00342,0.226563
1480692079700818,-0.153809,-0.990723,0.213867
1480692079718863,-0.150879,-0.991699,0.204102
1480692079754959,-0.148438,-0.981934,0.204102
1480692079757466,-0.141602,-0.983398,0.188477
1480692079778522,-0.123535,-0.952148,0.205566
1480692079805594,-0.137207,-0.927734,0.202148
1480692079816121,-0.139648,-0.930176,0.211426
1480692079838682,-0.133789,-0.930176,0.212402
1480692079859738,-0.121094,-0.929199,0.224609
1480692079880794,-0.128418,-0.943359,0.220703
1480692079898340,-0.13916,-0.989258,0.23584
1480692079919396,-0.130859,-1.00928,0.227051
1480692079950481,-0.120117,-1.03418,0.229004
1480692079960005,-0.135254,-1.0166,0.242188
1480692079980057,-0.172852,-1.01221,0.239746
1480692080008132,-0.169922,-0.995605,0.241211
1480692080031695,-0.185059,-0.984375,0.270996
1480692080041221,-0.17627,-0.993164,0.268066
1480692080060773,-0.214355,-0.989258,0.254395
1480692080084837,-0.203125,-0.98584,0.240723
1480692080106896,-0.187988,-0.963379,0.23877
1480692080137978,-0.156738,-0.972656,0.23877
1480692080142991,-0.14209,-0.987793,0.249512
1480692080161542,-0.13916,-0.990723,0.258301
1480692080180591,-0.138672,-0.978516,0.261719
1480692080200144,-0.134766,-0.953125,0.273926
1480692080221199,-0.140137,-0.939941,0.290039
1480692080240751,-0.152344,-0.925293,0.287109
1480692080258298,-0.17041,-0.915527,0.297363
1480692080280858,-0.169434,-0.914551,0.289063
1480692080307929,-0.168945,-0.918457,0.275879
1480692080323972,-0.164551,-0.937012,0.271973
1480692080341520,-0.170898,-0.947754,0.26123
1480692080360570,-0.168945,-0.975098,0.247559
1480692080392154,-0.151367,-0.97168,0.259277
1480692080405690,-0.140625,-0.928711,0.248535
1480692080420730,-0.138672,-0.883789,0.263184
1480692080447802,-0.138672,-0.86377,0.277832
1480692080468357,-0.139648,-0.896484,0.300293
1480692080480890,-0.143066,-0.925293,0.328613
1480692080498436,-0.172852,-0.964355,0.352051
1480692080520494,-0.210449,-1.00684,0.375488
1480692080548068,-0.227051,-1.0459,0.391602
1480692080558598,-0.222168,-1.0498,0.39209
1480692080580655,-0.203125,-1.02246,0.383789
1480692080602215,-0.19043,-0.969727,0.369629
1480692080617756,-0.17334,-0.958984,0.311523
1480692080640314,-0.166992,-0.92627,0.259766
1480692080668890,-0.163086,-0.870605,0.245605
1480692080685433,-0.15625,-0.858887,0.252441
1480692080700474,-0.134766,-0.87793,0.239258
1480692080721530,-0.120605,-0.919434,0.248535
1480692080737572,-0.11377,-0.944824,0.249512
1480692080783193,-0.117188,-0.939941,0.258789
1480692080788709,-0.129395,-0.937988,0.280273
1480692080805253,-0.153809,-0.956543,0.293945
1480692080834333,-0.169434,-0.989258,0.310547
1480692080842351,-0.196289,-1.02246,0.316895
1480692080865918,-0.179688,-1.01855,0.311035
1480692080880452,-0.191895,-1.0166,0.32666
1480692080909030,-0.185547,-0.988281,0.313477
1480692080917555,-0.186035,-0.947754,0.318359
1480692080946126,-0.187012,-0.918945,0.308594
1480692080961168,-0.179688,-0.905762,0.291504
1480692080977710,-0.17627,-0.944336,0.276367
1480692081000271,-0.162109,-0.980957,0.272461
1480692081030852,-0.149414,-1.00635,0.265625
1480692081038373,-0.139648,-1.00537,0.262695
1480692081060932,-0.138672,-0.984863,0.26709
1480692081090009,-0.143555,-0.992676,0.272461
1480692081097028,-0.147949,-0.973633,0.286621
1480692081121594,-0.151367,-0.962891,0.30127
1480692081144154,-0.155273,-0.95752,0.308105
1480692081163710,-0.163086,-0.947266,0.319336
1480692081195290,-0.171875,-0.948242,0.317383
1480692081209828,-0.171387,-0.888184,0.304688
1480692081218351,-0.177246,-0.904785,0.299805
1480692081248430,-0.171875,-0.945801,0.299316
1480692081268986,-0.161621,-0.951172,0.281738
1480692081291546,-0.144043,-0.935059,0.267578
1480692081300570,-0.159668,-0.970215,0.25
1480692081323632,-0.150391,-0.995117,0.266113
1480692081337167,-0.161621,-0.98291,0.258789
1480692081360228,-0.162598,-0.956055,0.250977
1480692081405349,-0.161621,-0.949219,0.253906
1480692081412867,-0.155762,-0.94873,0.253906
1480692081420388,-0.138672,-0.953613,0.257813
1480692081442948,-0.137207,-0.955078,0.253906
1480692081463508,-0.138672,-0.972656,0.256348
1480692081480046,-0.147461,-0.963867,0.265625
1480692081505615,-0.147461,-0.963867,0.25
1480692081526671,-0.15332,-0.95166,0.231934
1480692081548228,-0.160156,-0.924805,0.21582
1480692081564271,-0.160156,-0.936035,0.210449
1480692081591342,-0.154297,-0.944336,0.210449
1480692081600873,-0.152832,-0.95459,0.218262
1480692081622926,-0.150391,-0.966309,0.236328
1480692081643983,-0.152344,-0.932617,0.234375
1480692081666041,-0.157715,-0.929199,0.224121
1480692081682585,-0.157227,-0.940918,0.232422
1480692081706149,-0.155762,-0.970703,0.243652
1480692081720185,-0.160645,-0.997559,0.258301
1480692081742745,-0.174316,-1.00049,0.254883
1480692081763861,-0.17627,-1.00391,0.258789
1480692081787865,-0.169434,-1.02393,0.260742
1480692081803907,-0.183105,-1.03223,0.26709
1480692081823961,-0.186035,-1.04688,0.257324
1480692081840003,-0.195313,-1.04736,0.255859
1480692081871588,-0.206055,-1.03467,0.255371
1480692081887130,-0.217285,-1.02148,0.243652
1480692081899662,-0.200195,-1.00732,0.240234
1480692081922725,-0.175293,-0.983887,0.23877
1480692081943780,-0.151855,-0.961426,0.23877
1480692081959322,-0.151855,-0.950684,0.249512
1480692081982884,-0.147461,-0.938477,0.252441
1480692082005444,-0.141113,-0.928223,0.252441
1480692082019481,-0.129883,-0.921387,0.261719
1480692082057583,-0.121094,-0.931641,0.267578
1480692082065102,-0.111816,-0.927246,0.270996
1480692082087663,-0.125,-0.936523,0.266602
1480692082108718,-0.132813,-0.947266,0.262695
1480692082141806,-0.126465,-0.956055,0.258301
1480692082146319,-0.134277,-0.966797,0.274414
1480692082163364,-0.14502,-0.975586,0.285156
1480692082186926,-0.151855,-0.990723,0.297363
1480692082199962,-0.142578,-0.983398,0.312988
1480692082222522,-0.151367,-0.964355,0.335449
1480692082245080,-0.15625,-0.94873,0.34668
1480692082259619,-0.16748,-0.938477,0.34375
1480692082283684,-0.167969,-0.93457,0.364746
1480692082306244,-0.152832,-0.918945,0.358398
1480692082335321,-0.150391,-0.928711,0.359863
1480692082356376,-0.147461,-0.938477,0.350586
1480692082365402,-0.136719,-0.92041,0.341309
1480692082387961,-0.133789,-0.902344,0.319824
1480692082419044,-0.108887,-0.902344,0.314941
1480692082441102,-0.0976563,-0.916504,0.303711
1480692082446115,-0.0942383,-0.92627,0.288086
1480692082463161,-0.0913086,-0.924316,0.281738
1480692082493241,-0.0966797,-0.929199,0.271973
1480692082506304,-0.0996094,-0.935547,0.259766
1480692082522848,-0.0942383,-0.941406,0.269043
1480692082551425,-0.116211,-0.953125,0.277344
1480692082566463,-0.135254,-0.959473,0.282227
1480692082583008,-0.147949,-0.97998,0.288574
1480692082612586,-0.152832,-0.997559,0.304688
1480692082635147,-0.152832,-0.97168,0.295898
1480692082642666,-0.149414,-0.957031,0.293945
1480692082666232,-0.152832,-0.943359,0.286621
1480692082702326,-0.151367,-0.937012,0.282715
1480692082708845,-0.149902,-0.943359,0.274902
1480692082726893,-0.141602,-0.972168,0.265625
1480692082746442,-0.142578,-0.989258,0.260742
1480692082769504,-0.140137,-0.987793,0.256348
1480692082785045,-0.140625,-1.00391,0.254883
1480692082806101,-0.135742,-1.00488,0.258789
1480692082822143,-0.128418,-1,0.259277
1480692082845205,-0.132813,-0.991211,0.268066
1480692082866262,-0.145508,-0.974121,0.28418
1480692082892331,-0.155273,-0.96875,0.283203
1480692082920907,-0.16748,-0.964355,0.270996
1480692082943968,-0.168945,-0.962891,0.261719
1480692082948981,-0.161133,-0.963379,0.245605
1480692082973045,-0.161621,-0.974121,0.229492
1480692082989088,-0.160645,-0.967773,0.224609
1480692083002624,-0.14502,-0.967285,0.224121
1480692083025184,-0.144043,-0.965332,0.230957
1480692083047743,-0.145996,-0.969238,0.241211
1480692083062282,-0.158691,-0.959961,0.244629
1480692083085346,-0.153809,-0.959961,0.23877
1480692083107903,-0.154297,-0.968262,0.254395
1480692083121942,-0.160645,-0.979004,0.251465
1480692083145504,-0.153809,-0.952637,0.25
1480692083167566,-0.162109,-0.963867,0.254883
1480692083196640,-0.15625,-0.972656,0.245117
1480692083220202,-0.155273,-0.983398,0.233887
1480692083227723,-0.152832,-0.990234,0.242188
1480692083250284,-0.149902,-0.992676,0.259766
1480692083265322,-0.152832,-0.97998,0.260254
1480692083287882,-0.162109,-0.962402,0.265137
1480692083301920,-0.174316,-0.95166,0.267578
1480692083327488,-0.160156,-0.94873,0.265625
1480692083348042,-0.161133,-0.955566,0.266113
1480692083362080,-0.15918,-0.966309,0.265625
1480692083385141,-0.162109,-0.961426,0.26123
1480692083407701,-0.175293,-0.960938,0.261719
1480692083436278,-0.176758,-0.949707,0.249023
1480692083475882,-0.182129,-0.938965,0.240234
1480692083478388,-0.164063,-0.94043,0.237305
1480692083488919,-0.165039,-0.958984,0.239258
1480692083505461,-0.162598,-0.960938,0.23877
1480692083527520,-0.15332,-0.971191,0.24707
1480692083557098,-0.17041,-0.974609,0.249023
1480692083565621,-0.175293,-0.972168,0.251953
1480692083588683,-0.175781,-0.964355,0.256836
1480692083610240,-0.178223,-0.962891,0.258301
1480692083625281,-0.171875,-0.955078,0.258301
1480692083647839,-0.17334,-0.952637,0.257324
1480692083668895,-0.182129,-0.970215,0.265137
1480692083698975,-0.170898,-0.980469,0.251953
1480692083716021,-0.166504,-0.974609,0.254395
1480692083745600,-0.164551,-0.979492,0.247559
1480692083748106,-0.168457,-0.976074,0.243652
1480692083775178,-0.163574,-0.972656,0.244141
1480692083788714,-0.159668,-0.962402,0.239258
1480692083811274,-0.163574,-0.962402,0.233398
1480692083827818,-0.162598,-0.970215,0.234863
1480692083848873,-0.168945,-0.976563,0.23584
1480692083865919,-0.172363,-0.979492,0.231934
1480692083887479,-0.182617,-0.974121,0.237305
1480692083910041,-0.1875,-0.969727,0.234863
1480692083925077,-0.186523,-0.963379,0.233887
1480692083947636,-0.189941,-0.952637,0.248047
1480692083970196,-0.185059,-0.955566,0.239258
1480692084000780,-0.179199,-0.957031,0.220703
1480692084007796,-0.17627,-0.97168,0.218262
1480692084030357,-0.165527,-0.979004,0.223145
1480692084052917,-0.170898,-0.977539,0.233398
1480692084067956,-0.172363,-0.972168,0.236816
1480692084090016,-0.163086,-0.957031,0.239746
1480692084112574,-0.178223,-0.953125,0.233887
1480692084135135,-0.166016,-0.97168,0.243164
1480692084150184,-0.164551,-0.979004,0.251465
1480692084164714,-0.161133,-0.96875,0.25
1480692084187775,-0.169922,-0.978516,0.242188
1480692084211337,-0.166016,-0.984375,0.236328
1480692084226378,-0.174805,-0.966309,0.226074
1480692084247935,-0.173828,-0.962402,0.233398
1480692084269994,-0.172363,-0.956543,0.241211
1480692084298571,-0.177246,-0.957031,0.250488
1480692084307594,-0.172852,-0.973145,0.253906
1480692084331158,-0.175781,-0.978027,0.247559
1480692084351210,-0.175293,-0.976074,0.236816
1480692084367757,-0.169434,-0.969238,0.243652
1480692084390313,-0.169922,-0.972656,0.239258
1480692084411370,-0.170898,-0.962891,0.237793
1480692084427926,-0.161621,-0.943359,0.230957
1480692084450473,-0.175781,-0.950684,0.238281
1480692084472532,-0.17627,-0.969238,0.232422
1480692084495093,-0.165039,-0.969238,0.238281
1480692084525674,-0.175781,-0.970215,0.242188
1480692084531189,-0.174316,-0.971191,0.237305
1480692084548735,-0.16748,-0.961914,0.241211
1480692084570294,-0.165039,-0.952148,0.23877
1480692084591348,-0.162109,-0.953613,0.239746
1480692084609898,-0.160645,-0.959473,0.242188
1480692084637471,-0.164551,-0.966797,0.241211
1480692084652511,-0.177734,-0.977539,0.240234
1480692084667553,-0.181152,-0.984863,0.244629
1480692084690111,-0.17334,-0.969238,0.245117
1480692084711167,-0.173828,-0.962891,0.242676
1480692084727712,-0.174316,-0.956055,0.234863
1480692084750274,-0.169434,-0.95752,0.244629
1480692084773332,-0.169922,-0.959473,0.240234
1480692084795391,-0.160645,-0.96582,0.241699
1480692084810431,-0.175293,-0.980957,0.233398
1480692084833495,-0.180176,-0.988281,0.230469
1480692084848033,-0.177246,-0.976074,0.236816
1480692084870091,-0.174805,-0.972168,0.232422
1480692084892650,-0.168945,-0.964844,0.241699
1480692084907690,-0.169922,-0.95166,0.234863
1480692084930250,-0.17041,-0.950195,0.230469
1480692084952809,-0.17334,-0.963379,0.233398
1480692084973866,-0.17627,-0.978516,0.226563
1480692084997428,-0.177734,-0.981445,0.236328
1480692085027511,-0.169922,-0.972656,0.248535
1480692085030018,-0.183594,-0.959473,0.245605
1480692085051070,-0.161621,-0.958496,0.23291
1480692085078644,-0.162598,-0.973145,0.22168
1480692085087167,-0.171387,-0.973145,0.216309
1480692085110228,-0.16748,-0.97168,0.223145
1480692085133806,-0.168457,-0.972168,0.237305
1480692085146825,-0.186523,-0.979492,0.239258
1480692085170890,-0.182129,-0.981934,0.24707
1480692085192447,-0.180664,-0.970215,0.240234
1480692085207486,-0.172363,-0.961914,0.234375
1480692085232052,-0.172852,-0.95752,0.236816
1480692085252607,-0.165527,-0.958984,0.23584
1480692085267149,-0.167969,-0.968262,0.231934
1480692085296226,-0.176758,-0.977051,0.22998
1480692085329812,-0.17041,-0.979004,0.23291
1480692085335326,-0.17627,-0.969238,0.232422
1480692085350371,-0.175781,-0.958984,0.234863
1480692085372926,-0.166992,-0.958008,0.231445
1480692085401503,-0.170898,-0.962402,0.237793
1480692085411529,-0.165039,-0.966309,0.234375
1480692085432586,-0.167969,-0.967773,0.233398
1480692085462669,-0.17627,-0.975098,0.236816
1480692085470188,-0.175293,-0.970703,0.233887
1480692085492746,-0.172363,-0.970703,0.227051
1480692085513300,-0.177246,-0.962891,0.225586
1480692085531348,-0.17041,-0.963379,0.232422
1480692085552905,-0.163086,-0.956543,0.236328
1480692085582988,-0.166504,-0.95752,0.231934
1480692085590004,-0.175781,-0.975098,0.23584
1480692085613066,-0.17041,-0.984863,0.237793
1480692085633624,-0.171875,-0.976074,0.234863
1480692085650168,-0.170898,-0.970215,0.240234
1480692085680244,-0.175781,-0.958008,0.234375
1480692085693780,-0.169922,-0.951172,0.228027
1480692085710323,-0.172852,-0.950684,0.23584
1480692085733890,-0.172852,-0.962891,0.233398
1480692085755444,-0.181152,-0.979492,0.231934
1480692085780010,-0.17334,-0.97998,0.23584
1480692085800566,-0.167969,-0.976563,0.233887
1480692085831646,-0.180664,-0.972656,0.239746
1480692085836660,-0.17334,-0.959961,0.240234
1480692085853705,-0.169922,-0.959961,0.241699
1480692085881279,-0.166016,-0.956543,0.236328
1480692085890303,-0.174316,-0.965332,0.236816
1480692085912863,-0.183594,-0.969238,0.251465
1480692085942440,-0.177734,-0.984375,0.236328
1480692085949461,-0.166992,-0.97168,0.233887
1480692085972521,-0.168945,-0.972168,0.231445
1480692085995082,-0.158691,-0.965332,0.235352
1480692086009620,-0.167969,-0.945801,0.217773
1480692086032682,-0.180664,-0.948242,0.224609
1480692086055742,-0.179688,-0.964844,0.241699
1480692086077800,-0.179199,-0.973633,0.23877
1480692086093343,-0.180176,-0.98877,0.244141
1480692086115402,-0.177246,-0.97998,0.234863
1480692086129438,-0.168945,-0.960938,0.227539
1480692086152499,-0.16748,-0.959473,0.230957
1480692086175060,-0.166504,-0.95752,0.230957
1480692086189599,-0.170898,-0.956543,0.236328
1480692086212660,-0.172363,-0.960938,0.231934
1480692086236222,-0.178223,-0.979004,0.231934
1480692086256275,-0.183594,-0.983887,0.23291
1480692086272820,-0.173828,-0.97998,0.233398
1480692086302900,-0.173828,-0.969238,0.23584
1480692086323454,-0.172363,-0.965332,0.237305
1480692086335987,-0.171875,-0.961426,0.23291
1480692086356041,-0.161133,-0.958984,0.23877
1480692086376596,-0.171875,-0.966309,0.228027
1480692086392639,-0.177246,-0.979492,0.240234
1480692086415199,-0.175293,-0.971191,0.230957
1480692086436256,-0.181152,-0.974609,0.23291
1480692086453801,-0.172363,-0.968262,0.229004
1480692086481876,-0.168945,-0.955078,0.230957
1480692086496415,-0.172852,-0.956543,0.233887
1480692086512958,-0.169922,-0.958984,0.231445
1480692086535518,-0.174805,-0.970703,0.233887
1480692086556073,-0.173828,-0.978027,0.22998
1480692086578633,-0.175781,-0.983887,0.231445
1480692086612223,-0.175781,-0.980469,0.228516
1480692086616235,-0.17334,-0.969238,0.226563
1480692086632777,-0.173828,-0.959961,0.228027
1480692086655337,-0.165527,-0.958984,0.235352
1480692086683913,-0.166504,-0.963867,0.23291
1480692086692435,-0.171387,-0.969727,0.230957
1480692086714997,-0.179688,-0.973145,0.231934
1480692086737555,-0.176758,-0.978027,0.230957
1480692086752598,-0.179688,-0.977539,0.232422
1480692086776158,-0.172363,-0.964844,0.238281
1480692086797717,-0.169922,-0.956543,0.233887
1480692086826291,-0.168945,-0.956543,0.231934
1480692086835316,-0.169434,-0.967285,0.228516
1480692086857875,-0.17627,-0.973633,0.227051
1480692086886451,-0.181152,-0.986816,0.225098
1480692086901491,-0.178223,-0.989746,0.238281
1480692086917534,-0.165039,-0.958496,0.232422
1480692086940094,-0.172852,-0.960449,0.224121
1480692086955135,-0.160156,-0.978516,0.230469
1480692086978696,-0.166016,-0.947266,0.222656
1480692086992233,-0.175293,-0.947754,0.224609
1480692087022814,-0.178711,-0.969727,0.231445
1480692087038857,-0.182129,-0.987305,0.227051
1480692087051892,-0.179688,-0.98291,0.227539
1480692087082975,-0.17334,-0.98291,0.231445
1480692087105033,-0.174316,-0.958984,0.228516
1480692087112051,-0.166016,-0.955078,0.233887
1480692087135113,-0.166992,-0.961914,0.228027
1480692087166199,-0.169434,-0.966797,0.231445
1480692087172212,-0.174805,-0.96875,0.235352
1480692087195275,-0.176758,-0.978516,0.230957
1480692087217832,-0.173828,-0.977539,0.224121
1480692087239891,-0.175293,-0.972168,0.231445
1480692087255432,-0.17334,-0.958496,0.225098
1480692087278494,-0.174316,-0.950684,0.227051
1480692087300054,-0.166992,-0.962402,0.234863
1480692087315593,-0.172852,-0.970215,0.224609
1480692087338654,-0.17334,-0.979492,0.233398
1480692087358707,-0.179688,-0.98291,0.234375
1480692087375252,-0.174805,-0.977051,0.224609
1480692087398313,-0.178223,-0.96875,0.234863
1480692087419369,-0.177246,-0.960449,0.226074
1480692087435412,-0.172363,-0.953125,0.22998
1480692087464990,-0.170898,-0.960449,0.225586
1480692087479027,-0.166992,-0.966797,0.230469
1480692087495071,-0.177246,-0.972168,0.224121
1480692087517630,-0.181152,-0.980469,0.232422
1480692087546205,-0.17627,-0.97998,0.234863
1480692087557236,-0.177246,-0.970215,0.231934
1480692087578291,-0.171875,-0.959961,0.230957
1480692087599351,-0.166992,-0.956543,0.228027
1480692087615391,-0.177246,-0.962891,0.227539
1480692087638452,-0.171387,-0.975098,0.226563
1480692087660511,-0.175293,-0.978027,0.229004
1480692087675049,-0.179688,-0.976074,0.231934
1480692087697608,-0.174805,-0.975098,0.224609
1480692087720670,-0.17334,-0.963867,0.227539
1480692087736211,-0.174316,-0.956055,0.22998
1480692087757768,-0.17334,-0.955566,0.224609
1480692087780328,-0.171387,-0.960938,0.224121
1480692087802888,-0.174805,-0.964355,0.222168
1480692087817427,-0.179199,-0.974609,0.226563
1480692087840488,-0.178223,-0.982422,0.227539
1480692087855529,-0.180664,-0.978027,0.234863
1480692087878590,-0.176758,-0.974121,0.229004
1480692087900148,-0.171387,-0.965332,0.225586
1480692087914685,-0.169922,-0.955078,0.230469
1480692087937747,-0.168457,-0.966309,0.226074
1480692087966830,-0.174316,-0.972168,0.224121
1480692087980861,-0.174805,-0.980469,0.231934
1480692087997907,-0.176758,-0.979004,0.228027
1480692088020968,-0.174805,-0.97168,0.224609
1480692088034505,-0.176758,-0.960938,0.222656
1480692088080627,-0.174805,-0.95752,0.22998
1480692088083137,-0.174805,-0.959473,0.223633
1480692088094666,-0.171387,-0.966309,0.229492
1480692088117727,-0.166504,-0.967285,0.225098
1480692088148309,-0.174805,-0.98291,0.228027
1480692088161342,-0.174316,-0.98291,0.228027
1480692088183401,-0.178711,-0.976074,0.227051
1480692088217491,-0.175293,-0.961426,0.23291
1480692088222505,-0.175781,-0.959473,0.231934
1480692088237544,-0.184082,-0.95752,0.228027
1480692088261107,-0.172852,-0.975586,0.225586
1480692088281662,-0.171875,-0.967285,0.221191
1480692088299209,-0.175293,-0.96875,0.230469
1480692088326279,-0.182129,-0.976074,0.231445
1480692088348340,-0.17627,-0.976074,0.23291
1480692088360371,-0.184082,-0.973633,0.227539
1480692088380926,-0.17334,-0.950195,0.234375
1480692088402986,-0.171387,-0.955566,0.226563
1480692088418527,-0.168457,-0.976074,0.222168
1480692088440082,-0.169922,-0.979004,0.227051
1480692088468658,-0.180176,-0.976074,0.230957
1480692088483698,-0.174316,-0.977051,0.225098
1480692088500247,-0.171875,-0.964844,0.227539
1480692088522302,-0.17041,-0.957031,0.22168
1480692088545362,-0.178223,-0.956055,0.222168
1480692088566421,-0.17334,-0.959961,0.226563
1480692088581459,-0.169922,-0.963867,0.222168
1480692088597503,-0.175293,-0.977539,0.226074
1480692088627582,-0.179199,-0.980469,0.23584
1480692088645128,-0.172852,-0.979004,0.228027
1480692088657663,-0.175781,-0.976563,0.222656
1480692088687741,-0.17627,-0.969238,0.227539
1480692088711805,-0.180176,-0.963867,0.224121
1480692088719325,-0.172363,-0.958496,0.235352
1480692088741885,-0.171875,-0.964844,0.22998
1480692088762941,-0.174316,-0.969238,0.227051
1480692088783496,-0.177246,-0.973633,0.224609
1480692088800040,-0.178711,-0.973145,0.220215
1480692088823101,-0.174316,-0.965332,0.218262
1480692088837138,-0.17627,-0.955566,0.224121
1480692088874238,-0.175293,-0.95752,0.22168
1480692088884264,-0.170898,-0.960938,0.228027
1480692088896797,-0.172363,-0.972168,0.227539
1480692088919861,-0.17334,-0.98291,0.22998
1480692088942419,-0.175781,-0.980469,0.230957
1480692088964980,-0.174316,-0.977539,0.22998
1480692088980018,-0.175293,-0.968262,0.222168
1480692089002578,-0.175781,-0.960449,0.226563
1480692089018120,-0.178223,-0.959961,0.222168
1480692089047699,-0.17334,-0.961914,0.223633
1480692089063285,-0.175293,-0.970703,0.223633
1480692089079283,-0.175781,-0.97998,0.225098
1480692089106355,-0.177246,-0.98291,0.229492
1480692089122899,-0.176758,-0.977051,0.227051
1480692089143453,-0.177734,-0.968262,0.223633
1480692089166015,-0.173828,-0.961426,0.226563
1480692089183061,-0.17334,-0.962891,0.227051
1480692089205117,-0.172852,-0.960449,0.223633
1480692089220658,-0.172363,-0.96875,0.220703
1480692089243219,-0.174805,-0.975586,0.224609
1480692089278311,-0.177246,-0.986328,0.224121
1480692089289341,-0.17627,-0.98291,0.227539
1480692089302877,-0.175293,-0.967773,0.228516
1480692089323933,-0.180176,-0.960938,0.226074
1480692089339975,-0.168945,-0.955078,0.219238
1480692089370056,-0.172852,-0.965332,0.22168
1480692089383591,-0.177246,-0.968262,0.219238
1480692089400137,-0.177734,-0.974121,0.228027
1480692089422699,-0.184082,-0.982422,0.223633
1480692089443751,-0.182617,-0.981934,0.219727
1480692089460297,-0.178711,-0.973145,0.225586
1480692089482861,-0.171875,-0.957031,0.230957
1480692089503912,-0.171875,-0.955078,0.23584
1480692089520455,-0.170898,-0.960938,0.227051
1480692089543016,-0.171387,-0.970215,0.229492
1480692089581619,-0.181152,-0.980957,0.226074
1480692089603176,-0.174316,-0.978027,0.227539
1480692089605682,-0.17627,-0.963867,0.230469
1480692089625234,-0.179688,-0.95752,0.220215
1480692089655816,-0.171387,-0.95752,0.227539
1480692089665845,-0.170898,-0.960449,0.226563
1480692089685394,-0.168457,-0.96582,0.224609
1480692089706450,-0.176758,-0.975098,0.230469
1480692089723497,-0.175781,-0.98584,0.230957
1480692089745053,-0.182129,-0.987305,0.230957
1480692089759592,-0.178223,-0.977539,0.224121
1480692089782653,-0.177734,-0.959473,0.228027
1480692089805213,-0.169922,-0.953613,0.227539
1480692089819752,-0.166016,-0.95752,0.221191
1480692089857853,-0.171387,-0.96875,0.229004
1480692089866378,-0.17334,-0.975098,0.231934
1480692089879410,-0.178223,-0.981445,0.225586
1480692089902472,-0.183105,-0.98291,0.231445
1480692089925032,-0.186523,-0.991699,0.226074
1480692089940075,-0.20166,-0.99707,0.227051
1480692089962632,-0.188477,-0.983398,0.158203
1480692089985193,-0.219727,-0.980469,0.160156
1480692090000234,-0.225586,-1.01611,0.16748
1480692090022792,-0.196289,-1.00635,0.195801
1480692090046353,-0.166504,-0.948242,0.245605
1480692090066410,-0.164551,-0.916016,0.27832
1480692090082953,-0.158203,-0.92041,0.29541
1480692090107016,-0.144043,-0.926758,0.306641
1480692090127070,-0.126465,-0.944336,0.314453
1480692090143614,-0.115234,-0.938477,0.302734
1480692090165170,-0.116211,-0.910645,0.29248
1480692090186225,-0.143066,-0.911133,0.268066
1480692090202771,-0.177734,-0.965332,0.244629
1480692090225330,-0.184082,-0.993652,0.233887
1480692090246386,-0.165039,-0.992676,0.242188
1480692090269949,-0.166504,-0.966797,0.234863
1480692090291004,-0.164551,-0.944336,0.25
1480692090313564,-0.143555,-0.931641,0.262695
1480692090322589,-0.149414,-0.947266,0.27002
1480692090351165,-0.180664,-0.991211,0.254883
1480692090366707,-0.207031,-1.03271,0.241699
1480692090382750,-0.217773,-1.01172,0.219238
1480692090405309,-0.197266,-0.953613,0.233398
1480692090426365,-0.175293,-0.932129,0.258301
1480692090443410,-0.161621,-0.934082,0.255859
1480692090464968,-0.175293,-0.991699,0.239746
1480692090486025,-0.185547,-0.992188,0.233398
1480692090502568,-0.188965,-0.97998,0.234375
1480692090525127,-0.193848,-0.971191,0.240723
1480692090548189,-0.21582,-1.00732,0.23291
1480692090571250,-0.239746,-1.01611,0.205078
1480692090585287,-0.223145,-1.02441,0.210449
1480692090608349,-0.204102,-0.962891,0.230469
1480692090621885,-0.182129,-0.917969,0.27002
1480692090651463,-0.15625,-0.889648,0.298828
1480692090668008,-0.108398,-0.886719,0.317383
1480692090688562,-0.0688477,-0.893066,0.351563
1480692090712625,-0.0776367,-0.947754,0.32666
1480692090727666,-0.0805664,-0.913086,0.323242
1480692090744210,-0.106934,-0.922363,0.280273
1480692090765267,-0.157715,-0.950195,0.262207
1480692090787826,-0.157715,-0.978516,0.26123
1480692090801863,-0.180176,-0.986328,0.253418
1480692090824924,-0.198242,-1.01318,0.275391
1480692090847986,-0.205078,-1.01123,0.253906
1480692090862024,-0.195801,-0.959961,0.262695
1480692090885085,-0.195313,-0.931152,0.281738
1480692090907644,-0.164063,-0.919434,0.277832
1480692090922184,-0.152832,-0.933594,0.286621
1480692090951261,-0.182129,-0.968262,0.25
1480692090967804,-0.199219,-1.00391,0.23584
1480692090988861,-0.19873,-1.00293,0.225098
1480692091004903,-0.183105,-0.951172,0.24707
1480692091027965,-0.156738,-0.931641,0.26416
1480692091050024,-0.165527,-0.950195,0.269043
1480692091072584,-0.181641,-0.980957,0.248047
1480692091095144,-0.181152,-0.97168,0.251953
1480692091108680,-0.16748,-0.93457,0.265137
1480692091125222,-0.162109,-0.933594,0.271484
1480692091147785,-0.166992,-0.958984,0.269531
1480692091169340,-0.186523,-1.00098,0.249512
1480692091185383,-0.191406,-0.996582,0.233398
1480692091213959,-0.179199,-0.976074,0.237793
1480692091228499,-0.166016,-0.928711,0.252441
1480692091245543,-0.161621,-0.931641,0.250488
1480692091268604,-0.16748,-0.951172,0.244629
1480692091291164,-0.183594,-0.978516,0.250977
1480692091305201,-0.1875,-0.995117,0.244141
1480692091328263,-0.179688,-0.983398,0.243652
1480692091348820,-0.179688,-0.972656,0.249512
1480692091366369,-0.188477,-0.957031,0.251953
1480692091388423,-0.169922,-0.957031,0.243164
1480692091409479,-0.157227,-0.961426,0.241211
1480692091425522,-0.171875,-0.96875,0.229492
1480692091447581,-0.179688,-0.96875,0.233887
1480692091470140,-0.17334,-0.974609,0.23584
1480692091493703,-0.177246,-0.976074,0.242676
1480692091523783,-0.172363,-0.958008,0.245117
1480692091545841,-0.169434,-0.955078,0.251953
1480692091548348,-0.187012,-0.972168,0.241211
1480692091567400,-0.182617,-0.96582,0.246094
1480692091591463,-0.174805,-0.962402,0.238281
1480692091604498,-0.178711,-0.962891,0.23877
1480692091627559,-0.17334,-0.968262,0.243652
1480692091656135,-0.170898,-0.973633,0.242676
1480692091664658,-0.175781,-0.96875,0.238281
1480692091687719,-0.177734,-0.970215,0.235352
1480692091710279,-0.177246,-0.956543,0.23877
1480692091724818,-0.167969,-0.950195,0.244141
1480692091747879,-0.17041,-0.954102,0.250977
1480692091770439,-0.17334,-0.966309,0.244629
1480692091792498,-0.17334,-0.969727,0.242676
1480692091821073,-0.174316,-0.969238,0.23877
1480692091830098,-0.171387,-0.964355,0.240234
1480692091844636,-0.174316,-0.95459,0.237793
1480692091867697,-0.172852,-0.961914,0.235352
1480692091896274,-0.173828,-0.962891,0.231445
1480692091905798,-0.179688,-0.966309,0.236816
1480692091927857,-0.171875,-0.972168,0.242676
1480692091950919,-0.176758,-0.985352,0.240234
1480692091971475,-0.182617,-0.993652,0.226563
1480692091988519,-0.178711,-0.987793,0.233398
1480692092017596,-0.166504,-0.961914,0.240723
1480692092031133,-0.165527,-0.950195,0.265625
1480692092047676,-0.168945,-0.959961,0.260742
1480692092077255,-0.198242,-0.971191,0.244629
1480692092098815,-0.219238,-0.989746,0.217773
1480692092108337,-0.204102,-0.973633,0.219238
1480692092131400,-0.193359,-0.961914,0.223145
1480692092152956,-0.175293,-0.932129,0.22998
1480692092169500,-0.176758,-0.920898,0.230957
1480692092191058,-0.171387,-0.942871,0.243652
1480692092211111,-0.176758,-0.958984,0.231445
1480692092233671,-0.201172,-0.981445,0.229492
1480692092250215,-0.197266,-0.991699,0.228027
1480692092273276,-0.178223,-0.993652,0.24707
1480692092288316,-0.153809,-0.952637,0.253418
1480692092317894,-0.154297,-0.916504,0.262695
1480692092346470,-0.149902,-0.930176,0.269043
1480692092354993,-0.169434,-0.944336,0.245605
1480692092377554,-0.17627,-0.979492,0.243164
1480692092391089,-0.203125,-0.977051,0.231445
1480692092421169,-0.204102,-0.976074,0.209961
1480692092430194,-0.192383,-0.99707,0.22168
1480692092458769,-0.186035,-0.983398,0.234375
1480692092467793,-0.185547,-0.966309,0.241699
1480692092490354,-0.180664,-0.966309,0.244141
1480692092513414,-0.172363,-0.963867,0.250488
1480692092527955,-0.175781,-0.959473,0.24707
1480692092551016,-0.174805,-0.966309,0.238281
1480692092572572,-0.17334,-0.959961,0.235352
1480692092587110,-0.172852,-0.954102,0.225098
1480692092610172,-0.175293,-0.963379,0.22998
1480692092632735,-0.176758,-0.959961,0.224121
1480692092655293,-0.167969,-0.959961,0.233887
1480692092670332,-0.17627,-0.955566,0.232422
1480692092698913,-0.18457,-0.980469,0.229492
1480692092706930,-0.185059,-0.978027,0.233398
1480692092730994,-0.19043,-0.977051,0.23584
1480692092752550,-0.189941,-0.98291,0.23877
1480692092767090,-0.189941,-0.962891,0.231445
1480692092790151,-0.184082,-0.955566,0.233887
1480692092813714,-0.175293,-0.955566,0.234863
1480692092827250,-0.166992,-0.95166,0.234375
1480692092850310,-0.173828,-0.956543,0.238281
1480692092879890,-0.185547,-0.973145,0.227539
1480692092910471,-0.185547,-0.98291,0.223145
1480692092912978,-0.176758,-0.984863,0.231445
1480692092932534,-0.175781,-0.971191,0.241211
1480692092955089,-0.174316,-0.965332,0.236816
1480692092970129,-0.178223,-0.967773,0.236816
1480692092992689,-0.191406,-0.967285,0.232422
1480692093013745,-0.182129,-0.972656,0.226563
1480692093031292,-0.178223,-0.971191,0.227539
1480692093052849,-0.182129,-0.962891,0.232422
1480692093073905,-0.179688,-0.964355,0.23584
1480692093089948,-0.178223,-0.95459,0.23584
1480692093112507,-0.178711,-0.955566,0.237305
1480692093133564,-0.174805,-0.964844,0.237305
1480692093157628,-0.182617,-0.963379,0.236816
1480692093178683,-0.178711,-0.963867,0.238281
1480692093193725,-0.182617,-0.981445,0.241211
1480692093210267,-0.189941,-0.986328,0.232422
1480692093232834,-0.185547,-0.978516,0.241211
1480692093261905,-0.181641,-0.963379,0.241211
1480692093271430,-0.179199,-0.950195,0.242188
1480692093292486,-0.175293,-0.94043,0.236328
1480692093313541,-0.183594,-0.946777,0.233398
1480692093330086,-0.185547,-0.967285,0.231934
1480692093352646,-0.181152,-0.976074,0.234375
1480692093375206,-0.179199,-0.974121,0.237793
1480692093398268,-0.178711,-0.963867,0.24707
1480692093418822,-0.184082,-0.969238,0.23877
1480692093435366,-0.181152,-0.975098,0.239258
1480692093449905,-0.176758,-0.961914,0.228027
1480692093472464,-0.179688,-0.952148,0.236816
1480692093495026,-0.177734,-0.956543,0.236328
1480692093509564,-0.187988,-0.974609,0.22998
1480692093533127,-0.190918,-0.993164,0.232422
1480692093555686,-0.1875,-0.978516,0.22998
1480692093569724,-0.182617,-0.956055,0.234375
1480692093592784,-0.181641,-0.944336,0.23877
1480692093616347,-0.180176,-0.960449,0.229492
1480692093629384,-0.183594,-0.958008,0.221191
1480692093652443,-0.189941,-0.958984,0.222168
1480692093681020,-0.192383,-0.976074,0.219727
1480692093690043,-0.186523,-0.977051,0.229492
1480692093712603,-0.172852,-0.970703,0.237305
1480692093735164,-0.175293,-0.960938,0.23877
1480692093749703,-0.181641,-0.959473,0.237793
1480692093772763,-0.182617,-0.960449,0.227539
1480692093795825,-0.179688,-0.962891,0.240234
1480692093810363,-0.181641,-0.966309,0.223145
1480692093833926,-0.181152,-0.970703,0.222656
1480692093855986,-0.192383,-0.979004,0.229004
1480692093876038,-0.177246,-0.97998,0.232422
1480692093892582,-0.182617,-0.973633,0.221191
1480692093915144,-0.18457,-0.955078,0.223633
1480692093936198,-0.178711,-0.955566,0.214844
1480692093960262,-0.187988,-0.958496,0.216797
1480692093982321,-0.184082,-0.974121,0.222656
1480692094003878,-0.188477,-0.976074,0.227051
1480692094020422,-0.182617,-0.975586,0.233398
1480692094034961,-0.186035,-0.968262,0.220703
1480692094063537,-0.193359,-0.953613,0.214355
1480692094072560,-0.186035,-0.963379,0.21875
1480692094095121,-0.186035,-0.962891,0.217285
1480692094116176,-0.177246,-0.958984,0.222656
1480692094139238,-0.182129,-0.973633,0.224121
1480692094155281,-0.18457,-0.979492,0.226563
1480692094183860,-0.189453,-0.990234,0.229492
1480692094192881,-0.186035,-0.96875,0.224121
1480692094215441,-0.188477,-0.961426,0.217773
1480692094237499,-0.188477,-0.958496,0.213867
1480692094260059,-0.176758,-0.961914,0.214844
1480692094290641,-0.179199,-0.963867,0.220703
1480692094299665,-0.181641,-0.962402,0.226074
1480692094320218,-0.186035,-0.975586,0.219238
1480692094335259,-0.188965,-0.981934,0.21875
1480692094358321,-0.192383,-0.981934,0.215332
1480692094373861,-0.182129,-0.962891,0.216797
1480692094403943,-0.177734,-0.955078,0.222168
1480692094417477,-0.182617,-0.960938,0.222168
1480692094433520,-0.183105,-0.969727,0.208984
1480692094455078,-0.183594,-0.977051,0.21582
1480692094477638,-0.189453,-0.986816,0.219238
1480692094492176,-0.180664,-0.993652,0.237305
1480692094515742,-0.178223,-0.977539,0.211914
1480692094537803,-0.175781,-0.946777,0.216797
1480692094561366,-0.19043,-0.959473,0.203125
1480692094574905,-0.199219,-0.964844,0.208984
1480692094598966,-0.192383,-0.972656,0.208984
1480692094611999,-0.191406,-0.976074,0.214844
1480692094635062,-0.197754,-0.989258,0.214355
1480692094657621,-0.189941,-0.975586,0.205078
1480692094680181,-0.191895,-0.97998,0.217285
1480692094695222,-0.171875,-0.96875,0.237793
1480692094717780,-0.183594,-0.964355,0.226074
1480692094732321,-0.190918,-0.96875,0.203125
1480692094764407,-0.182617,-0.97998,0.198242
1480692094791978,-0.172852,-0.973145,0.208984
1480692094798501,-0.180176,-0.961914,0.211914
1480692094815044,-0.190918,-0.955078,0.227539
1480692094838102,-0.200195,-0.961914,0.222168
1480692094858656,-0.180176,-0.968262,0.219238
1480692094875200,-0.179199,-0.965332,0.213867
1480692094897760,-0.182129,-0.963379,0.220215
1480692094918816,-0.18457,-0.966797,0.227051
1480692094935360,-0.191895,-0.96582,0.231445
1480692094957419,-0.196777,-0.97168,0.232422
1480692094978474,-0.199707,-0.976563,0.239258
1480692094995019,-0.195801,-0.990723,0.208496
1480692095016576,-0.171387,-0.967773,0.206055
1480692095023093,-0.178223,-0.956055,0.218262
1480692095045654,-0.184082,-0.959473,0.216797
1480692095060694,-0.186523,-0.96875,0.22168
1480692095083253,-0.187012,-0.96582,0.228516
1480692095105313,-0.192383,-0.965332,0.230469
1480692095120351,-0.200684,-0.986816,0.21875
1480692095142912,-0.189941,-0.979004,0.219238
1480692095165477,-0.178223,-0.967285,0.219238
1480692095180512,-0.18457,-0.937012,0.228516
1480692095203072,-0.175781,-0.939941,0.233887
1480692095234155,-0.175781,-0.959961,0.231934
1480692095240672,-0.183594,-0.976563,0.225098
1480692095266240,-0.191406,-0.987305,0.213867
1480692095288299,-0.197754,-0.970703,0.214844
1480692095316874,-0.194824,-0.967285,0.219238
1480692095322891,-0.191406,-0.959473,0.227539
1480692095345450,-0.186035,-0.954102,0.233398
1480692095360491,-0.178223,-0.955566,0.227051
1480692095390570,-0.185547,-0.967773,0.236328
1480692095405611,-0.186523,-0.978516,0.227539
1480692095428171,-0.187012,-0.987793,0.224609
1480692095443210,-0.186523,-0.977539,0.226074
1480692095465775,-0.180664,-0.959473,0.220215
1480692095481816,-0.177734,-0.947266,0.229004
1480692095511392,-0.177246,-0.951172,0.226563
1480692095541473,-0.17334,-0.942871,0.224609
1480692095550998,-0.183105,-0.962891,0.223633
1480692095579572,-0.184082,-0.988281,0.223633
1480692095593611,-0.1875,-0.996094,0.223633
1480692095602133,-0.19043,-0.974609,0.224121
1480692095625696,-0.189453,-0.964844,0.227051
1480692095645749,-0.18457,-0.967285,0.228516
1480692095669311,-0.182129,-0.950195,0.231445
1480692095682848,-0.187988,-0.963867,0.232422
1480692095705408,-0.18457,-0.970703,0.229492
1480692095721953,-0.185547,-0.975586,0.21875
1480692095743008,-0.186035,-0.97998,0.222656
1480692095768576,-0.186035,-0.969727,0.218262
1480692095789632,-0.186523,-0.964355,0.217285
1480692095803167,-0.178223,-0.952637,0.224121
1480692095825727,-0.175781,-0.954102,0.229004
1480692095843274,-0.179199,-0.96875,0.227051
1480692095870347,-0.184082,-0.979492,0.219238
1480692095885386,-0.185059,-0.981445,0.224121
1480692095901930,-0.183594,-0.984863,0.217773
1480692095931514,-0.182129,-0.968262,0.221191
1480692095946048,-0.182129,-0.960449,0.215332
1480692095962091,-0.177246,-0.955078,0.223145
1480692095986154,-0.180664,-0.963379,0.229004
1480692096007211,-0.187012,-0.971191,0.223633
1480692096029770,-0.195313,-0.973145,0.219238
1480692096045813,-0.187012,-0.980469,0.218262
1480692096070379,-0.181152,-0.979004,0.21582
1480692096099458,-0.183594,-0.973633,0.217773
1480692096102965,-0.175781,-0.969238,0.22168
1480692096128533,-0.182617,-0.961914,0.223145
1480692096151594,-0.181152,-0.962402,0.21875
1480692096171146,-0.180176,-0.962402,0.227051
1480692096185685,-0.183594,-0.969727,0.216797
1480692096210751,-0.183105,-0.973145,0.216309
1480692096224288,-0.185059,-0.981445,0.216309
1480692096245844,-0.179688,-0.972656,0.221191
1480692096263893,-0.183105,-0.956055,0.217773
1480692096290965,-0.172852,-0.961426,0.223633
1480692096313024,-0.180664,-0.972656,0.220215
1480692096328064,-0.181641,-0.973145,0.213867
1480692096346112,-0.18457,-0.979492,0.21875
1480692096376191,-0.185059,-0.983398,0.224609
1480692096388224,-0.183105,-0.980957,0.224609
1480692096406271,-0.181152,-0.96582,0.223145
1480692096425321,-0.180664,-0.956543,0.222168
1480692096449386,-0.180176,-0.955078,0.219238
1480692096470442,-0.17627,-0.959961,0.222656
1480692096485482,-0.183594,-0.970703,0.219727
1480692096509045,-0.18457,-0.976074,0.218262
1480692096523082,-0.187988,-0.983887,0.219238
1480692096545642,-0.189453,-0.979492,0.217773
1480692096571210,-0.180176,-0.971191,0.22168
1480692096590763,-0.172852,-0.953613,0.222168
1480692096605301,-0.177246,-0.953613,0.220703
1480692096637391,-0.17627,-0.958496,0.21875
1480692096644410,-0.176758,-0.983398,0.212891
1480692096665467,-0.183594,-0.983887,0.219727
1480692096688526,-0.1875,-0.984863,0.21582
1480692096707077,-0.186035,-0.977539,0.225098
1480692096727132,-0.174805,-0.97168,0.223145
1480692096748188,-0.180664,-0.964355,0.21875
1480692096763225,-0.178223,-0.95166,0.216797
1480692096786788,-0.179688,-0.957031,0.212891
1480692096819375,-0.180664,-0.972168,0.216797
1480692096825391,-0.185547,-0.982422,0.212402
1480692096845444,-0.18457,-0.984863,0.214844
1480692096877028,-0.183594,-0.980957,0.217285
1480692096884549,-0.182129,-0.966309,0.220215
1480692096905605,-0.172363,-0.963867,0.218262
1480692096928165,-0.172852,-0.956543,0.223633
1480692096944708,-0.180176,-0.95752,0.213867
1480692096965765,-0.182617,-0.970215,0.21582
1480692096987823,-0.178711,-0.986816,0.214844
1480692097004368,-0.1875,-0.981934,0.219238
1480692097041967,-0.18457,-0.973633,0.212891
1480692097056506,-0.180664,-0.963379,0.215332
1480692097064531,-0.180664,-0.961426,0.216797
1480692097096111,-0.180176,-0.964355,0.219238
1480692097108142,-0.178223,-0.967773,0.22168
1480692097125690,-0.179199,-0.972168,0.223145
1480692097156271,-0.182129,-0.977539,0.216797
1480692097171813,-0.188477,-0.980469,0.213867
1480692097185849,-0.186523,-0.975098,0.216309
1480692097205402,-0.185547,-0.962402,0.21875
1480692097229466,-0.174805,-0.959473,0.213379
1480692097246010,-0.174805,-0.953613,0.223145
1480692097265565,-0.183105,-0.960938,0.223633
1480692097288121,-0.182617,-0.971191,0.216797
1480692097314693,-0.1875,-0.98291,0.217285
1480692097342265,-0.181152,-0.979004,0.212891
1480692097350789,-0.181152,-0.970703,0.220215
1480692097365829,-0.179688,-0.961426,0.212891
1480692097385380,-0.179199,-0.958008,0.22168
1480692097407940,-0.175781,-0.964844,0.220215
1480692097430501,-0.177246,-0.966797,0.21582
1480692097445539,-0.179688,-0.977539,0.219727
1480692097468101,-0.187988,-0.985352,0.214844
1480692097486148,-0.184082,-0.983398,0.223633
1480692097513220,-0.181152,-0.976074,0.219238
1480692097528261,-0.18457,-0.958496,0.219727
1480692097545806,-0.17627,-0.946289,0.223145
1480692097566863,-0.181641,-0.960938,0.213379
1480692097596943,-0.184082,-0.974121,0.214844
1480692097619522,-0.182129,-0.982422,0.217285
1480692097625519,-0.187012,-0.981934,0.222168
1480692097651086,-0.1875,-0.979004,0.22168
1480692097666126,-0.178223,-0.967285,0.225586
1480692097687182,-0.179688,-0.958496,0.227539
1480692097712249,-0.178223,-0.955078,0.220703
1480692097733305,-0.182129,-0.953125,0.220703
1480692097745337,-0.184082,-0.970215,0.217285
1480692097768399,-0.1875,-0.977539,0.214355
1480692097790457,-0.185547,-0.979492,0.221191
1480692097807002,-0.182617,-0.977051,0.222168
1480692097828058,-0.183105,-0.96875,0.227051
1480692097850617,-0.180176,-0.97168,0.221191
1480692097873177,-0.175781,-0.969727,0.230469
1480692097888217,-0.182129,-0.967285,0.223145
1480692097910777,-0.181152,-0.967285,0.215332
1480692097931335,-0.180664,-0.974121,0.216309
1480692097947878,-0.17627,-0.980957,0.223145
1480692097978457,-0.182617,-0.980957,0.219238
1480692097987983,-0.18457,-0.969727,0.21875
1480692098011545,-0.179199,-0.958008,0.210938
1480692098039119,-0.172852,-0.954102,0.212891
1480692098047140,-0.181152,-0.95166,0.213867
1480692098068196,-0.180664,-0.964844,0.212402
1480692098092260,-0.180176,-0.977051,0.211426
1480692098108302,-0.172363,-0.975098,0.212891
1480692098127855,-0.200684,-0.970703,0.22998
1480692098150414,-0.206543,-0.981445,0.219727
1480692098170970,-0.191895,-0.98291,0.210449
1480692098188014,-0.171875,-0.964355,0.200195
1480692098210574,-0.168945,-0.959961,0.213867
1480692098228624,-0.177734,-0.961426,0.213867
1480692098255694,-0.187988,-0.970215,0.22168
1480692098287780,-0.193359,-0.983887,0.214844
1480692098290286,-0.189453,-0.975098,0.20752
1480692098316858,-0.185059,-0.972168,0.206543
1480692098330394,-0.181152,-0.953125,0.209473
1480692098371503,-0.178223,-0.956055,0.207031
1480692098375513,-0.185547,-0.960938,0.223145
1480692098398074,-0.189941,-0.973145,0.217773
1480692098421635,-0.186035,-0.984375,0.217285
1480692098429658,-0.180664,-0.978516,0.224121
1480692098452218,-0.187988,-0.970215,0.215332
1480692098473774,-0.178223,-0.970215,0.208496
1480692098487812,-0.188477,-0.963867,0.216309
1480692098517891,-0.178711,-0.956055,0.209961
1480692098528420,-0.175293,-0.959961,0.21875
1480692098547972,-0.185547,-0.968262,0.208984
1480692098570532,-0.19043,-0.984375,0.208496
1480692098596101,-0.189453,-0.980469,0.211426
1480692098608132,-0.177246,-0.966309,0.210449
1480692098630692,-0.177734,-0.964844,0.224121
1480692098648739,-0.186523,-0.959961,0.217285
1480692098676814,-0.182129,-0.95752,0.21582
1480692098698374,-0.181152,-0.967285,0.213867
1480692098708398,-0.186035,-0.968262,0.212402
1480692098735470,-0.190918,-0.978516,0.213379
1480692098759534,-0.187988,-0.987305,0.214355
1480692098768558,-0.189941,-0.983398,0.212891
1480692098789614,-0.18457,-0.969238,0.21582
1480692098810670,-0.191406,-0.973633,0.210938
1480692098833230,-0.171875,-0.960449,0.222168
1480692098849273,-0.174805,-0.958496,0.223145
1480692098870329,-0.18457,-0.961914,0.222656
1480692098888377,-0.195801,-0.982422,0.210938
1480692098909434,-0.189941,-0.997559,0.208984
1480692098930489,-0.180176,-0.981934,0.207031
1480692098948538,-0.179199,-0.954102,0.212402
1480692098975610,-0.184082,-0.945801,0.215332
1480692098990649,-0.186035,-0.958984,0.226074
1480692099010201,-0.186035,-0.967773,0.217285
1480692099037273,-0.188965,-0.977539,0.224609
1480692099057827,-0.193848,-0.976563,0.224121
1480692099068355,-0.193848,-0.981934,0.217285
1480692099091919,-0.198242,-0.976074,0.210449
1480692099110467,-0.187988,-0.960938,0.213867
1480692099130521,-0.187012,-0.947266,0.209473
1480692099151075,-0.183105,-0.957031,0.215332
1480692099178147,-0.180664,-0.964844,0.223145
1480692099200707,-0.18457,-0.983398,0.21875
1480692099210734,-0.189941,-0.988281,0.220215
1480692099233294,-0.189453,-0.985352,0.225098
1480692099260367,-0.193848,-0.977051,0.209961
1480692099284431,-0.188965,-0.964355,0.208496
1480692099290447,-0.181152,-0.945313,0.217285
1480692099314014,-0.178711,-0.947266,0.218262
1480692099344089,-0.187988,-0.97168,0.211426
1480692099358127,-0.191406,-0.979492,0.213379
1480692099373165,-0.195801,-0.97998,0.210938
1480692099391214,-0.196777,-0.972168,0.225586
1480692099412270,-0.19043,-0.966797,0.212402
1480692099432824,-0.189453,-0.948242,0.215332
1480692099450872,-0.179688,-0.944336,0.227051
1480692099471928,-0.172852,-0.95166,0.217773
1480692099493487,-0.187988,-0.968262,0.213379
1480692099512035,-0.193359,-0.989746,0.218262
1480692099530588,-0.199707,-0.978516,0.213379
1480692099570691,-0.196777,-0.981934,0.20459
1480692099575203,-0.18457,-0.987305,0.203613
1480692099598264,-0.184082,-0.969727,0.210449
1480692099613304,-0.182129,-0.947266,0.213379
1480692099644387,-0.188477,-0.954102,0.21875
1480692099668952,-0.192871,-0.989746,0.211426
1480692099675973,-0.181152,-0.997559,0.224121
1480692099698536,-0.190918,-0.972168,0.216309
1480692099713575,-0.181641,-0.972168,0.209961
1480692099733123,-0.17334,-0.981445,0.213379
1480692099751171,-0.175293,-0.958496,0.210938
1480692099772227,-0.183594,-0.963867,0.206055
1480692099792782,-0.185059,-0.974121,0.200195
1480692099816846,-0.19043,-0.975586,0.198242
1480692099837902,-0.195313,-0.989746,0.202148
1480692099852942,-0.180664,-0.984375,0.214355
1480692099870990,-0.189453,-0.966797,0.216309
1480692099893550,-0.193848,-0.95459,0.218262
1480692099916109,-0.192383,-0.955566,0.220703
1480692099935662,-0.189453,-0.960449,0.21582
1480692099952221,-0.19043,-0.970215,0.208008
1480692099974264,-0.185059,-0.975586,0.204102
1480692099990808,-0.194336,-0.977051,0.208008
1480692100013872,-0.196289,-0.980957,0.21582
1480692100034424,-0.191406,-0.970703,0.224609
1480692100058489,-0.186523,-0.961426,0.214355
1480692100082051,-0.1875,-0.958008,0.228027
1480692100094586,-0.184082,-0.955566,0.21582
1480692100111129,-0.180176,-0.952148,0.223145
1480692100133689,-0.193848,-0.959473,0.210938
1480692100153240,-0.204102,-0.992676,0.206543
1480692100178307,-0.195801,-0.996094,0.206543
1480692100200868,-0.188477,-0.986816,0.208008
1480692100212899,-0.183594,-0.964355,0.218262
1480692100232952,-0.175781,-0.944336,0.216309
1480692100254509,-0.174805,-0.944336,0.220215
1480692100290104,-0.187012,-0.970703,0.208496
1480692100294616,-0.188477,-0.978516,0.202637
1480692100313673,-0.193848,-0.990234,0.205566
1480692100334223,-0.186035,-0.979492,0.214355
1480692100350766,-0.188477,-0.977539,0.215332
1480692100373827,-0.184082,-0.963867,0.220703
1480692100395886,-0.178711,-0.960938,0.21875
1480692100420451,-0.181152,-0.960449,0.220215
1480692100433987,-0.178711,-0.971191,0.211914
1480692100453039,-0.185547,-0.980469,0.209961
1480692100475599,-0.19043,-0.98291,0.219727
1480692100498161,-0.184082,-0.986328,0.218262
1480692100513197,-0.189941,-0.98291,0.216309
1480692100535256,-0.188477,-0.972656,0.218262
1480692100553304,-0.186035,-0.961914,0.215332
1480692100572856,-0.180176,-0.95459,0.214844
1480692100590905,-0.169434,-0.95459,0.213379
1480692100613467,-0.175293,-0.967773,0.219238
1480692100640536,-0.180176,-0.979492,0.21875
1480692100651064,-0.186035,-0.973145,0.209961
1480692100678136,-0.185547,-0.963867,0.216309
1480692100694681,-0.186035,-0.964355,0.219238
1480692100715736,-0.185059,-0.963379,0.226074
1480692100733283,-0.188477,-0.971191,0.222656
1480692100755843,-0.183105,-0.974121,0.21875
1480692100782914,-0.180176,-0.979004,0.224121
1480692100793443,-0.178223,-0.98291,0.222168
1480692100816003,-0.183105,-0.973633,0.214355
1480692100843075,-0.183105,-0.960938,0.214355
1480692100853603,-0.176758,-0.948242,0.216309
1480692100876162,-0.174316,-0.953125,0.220703
1480692100897223,-0.180176,-0.953613,0.214355
1480692100919277,-0.182129,-0.962891,0.21582
1480692100941839,-0.187012,-0.979004,0.21875
1480692100955878,-0.193359,-0.983398,0.221191
1480692100981443,-0.193359,-0.979492,0.217773
1480692101009517,-0.184082,-0.975098,0.219238
1480692101023053,-0.179199,-0.959961,0.217773
1480692101038093,-0.177734,-0.959961,0.212891
1480692101064164,-0.17334,-0.963379,0.212891
1480692101083213,-0.181152,-0.967285,0.218262
1480692101093741,-0.188477,-0.973633,0.210449
1480692101115800,-0.196777,-0.976074,0.210449
1480692101135853,-0.198242,-0.972168,0.206543
1480692101153400,-0.182617,-0.967285,0.206543
1480692101175960,-0.187012,-0.964355,0.210938
1480692101204536,-0.189453,-0.958984,0.208008
1480692101218071,-0.172852,-0.962891,0.212402
1480692101236120,-0.173828,-0.973633,0.213867
1480692101256173,-0.187988,-0.991699,0.213867
1480692101288761,-0.185059,-0.992676,0.212891
1480692101300291,-0.190918,-0.978516,0.213379
1480692101315831,-0.188477,-0.974121,0.208008
1480692101333379,-0.179688,-0.968262,0.205078
1480692101357944,-0.174805,-0.969238,0.200195
1480692101375491,-0.183105,-0.970703,0.203125
1480692101393539,-0.180664,-0.965332,0.208496
1480692101420610,-0.187988,-0.963379,0.204102
1480692101435650,-0.190918,-0.975586,0.211426
1480692101453699,-0.193848,-0.974609,0.205566
1480692101475757,-0.187012,-0.963867,0.213867
1480692101514861,-0.197754,-0.958496,0.216797
1480692101534914,-0.187988,-0.96582,0.204102
1480692101537421,-0.181641,-0.975098,0.201172
1480692101566498,-0.179688,-0.983398,0.20752
1480692101578029,-0.182129,-0.979004,0.219238
1480692101597084,-0.189941,-0.979004,0.212891
1480692101617135,-0.179199,-0.974609,0.213379
1480692101639693,-0.181152,-0.967773,0.208008
1480692101655736,-0.177246,-0.969238,0.200195
1480692101677293,-0.179688,-0.952637,0.20459
1480692101699352,-0.181641,-0.960938,0.20752
1480692101721914,-0.178711,-0.962402,0.210449
1480692101736952,-0.195313,-0.981445,0.213867
1480692101761518,-0.205078,-0.985352,0.211914
1480692101783575,-0.186035,-0.975098,0.20752
1480692101804632,-0.184082,-0.975586,0.211426
1480692101813661,-0.183105,-0.952637,0.208984
1480692101840728,-0.183594,-0.951172,0.201172
1480692101864291,-0.184082,-0.967773,0.20752
1480692101873314,-0.179199,-0.977051,0.205566
1480692101895876,-0.18457,-0.987305,0.206055
1480692101917933,-0.191895,-0.983887,0.205078
1480692101947512,-0.18457,-0.97168,0.211914
1480692101955032,-0.189453,-0.959473,0.214844
1480692101977591,-0.19043,-0.958496,0.212891
1480692102000151,-0.1875,-0.958008,0.206055
1480692102015191,-0.176758,-0.972656,0.202637
1480692102038253,-0.177734,-0.978027,0.206543
1480692102066328,-0.1875,-0.986328,0.208008
1480692102074852,-0.192383,-0.98584,0.206543
1480692102097414,-0.195313,-0.978027,0.204102
1480692102118466,-0.18457,-0.967773,0.211914
1480692102141527,-0.174316,-0.95166,0.210938
1480692102157570,-0.18457,-0.955566,0.211426
1480692102178626,-0.184082,-0.961426,0.208008
1480692102195172,-0.187012,-0.979492,0.204102
1480692102223746,-0.191406,-0.978516,0.203125
1480692102239789,-0.192871,-0.976074,0.205566
1480692102255330,-0.191406,-0.976074,0.203125
1480692102285410,-0.186523,-0.972656,0.205078
1480692102305965,-0.186523,-0.967285,0.20459
1480692102314988,-0.177734,-0.969238,0.216797
1480692102343565,-0.174316,-0.967285,0.208496
1480692102367629,-0.183594,-0.969727,0.200684
1480692102375149,-0.189453,-0.973633,0.212891
1480692102398211,-0.188477,-0.978027,0.206543
1480692102427789,-0.193848,-0.971191,0.206055
1480692102436312,-0.183105,-0.960449,0.214355
1480692102457367,-0.17334,-0.952637,0.223145
1480692102478925,-0.175781,-0.95459,0.21875
1480692102495970,-0.182129,-0.977051,0.218262
1480692102517528,-0.177734,-0.981445,0.214844
1480692102538584,-0.183594,-0.98291,0.209473
1480692102562648,-0.189453,-0.979492,0.214355
1480692102577688,-0.195313,-0.980469,0.207031
1480692102614287,-0.198242,-0.960938,0.200684
1480692102622808,-0.186035,-0.958984,0.217773
1480692102637848,-0.166504,-0.960449,0.214844
1480692102666425,-0.177734,-0.958496,0.213379
1480692102675949,-0.18457,-0.969238,0.208496
1480692102705026,-0.187012,-0.981445,0.206055
1480692102718561,-0.195801,-0.98291,0.20166
1480692102735106,-0.173828,-0.981934,0.211914
1480692102758670,-0.194336,-0.957031,0.213379
1480692102778723,-0.1875,-0.957031,0.208496
1480692102796770,-0.187012,-0.974121,0.202637
1480692102817826,-0.187012,-0.983398,0.206055
1480692102840386,-0.178711,-0.980957,0.213379
1480692102854925,-0.182617,-0.978027,0.219238
1480692102900546,-0.182617,-0.973633,0.208984
1480692102904055,-0.186523,-0.964355,0.215332
1480692102923106,-0.169434,-0.959961,0.219727
1480692102952686,-0.191895,-0.962402,0.213379
1480692102960204,-0.194824,-0.956543,0.208008
1480692102975747,-0.178711,-0.987793,0.211914
1480692102997807,-0.184082,-0.978027,0.216797
1480692103020364,-0.182129,-0.962402,0.219727
1480692103034402,-0.191895,-0.968262,0.208984
1480692103057463,-0.187012,-0.974121,0.200684
1480692103080028,-0.183594,-0.973145,0.211426
1480692103094564,-0.183594,-0.964355,0.209473
1480692103117623,-0.185547,-0.960449,0.21875
1480692103140684,-0.185547,-0.966309,0.217285
1480692103168759,-0.186035,-0.974121,0.217285
1480692103178285,-0.186035,-0.981445,0.218262
1480692103200343,-0.199219,-0.972656,0.190918
1480692103214381,-0.17627,-0.980469,0.21582
1480692103237442,-0.183105,-0.961914,0.220703
1480692103260504,-0.190918,-0.947754,0.20752
1480692103274540,-0.182617,-0.967285,0.20166
1480692103298106,-0.166016,-0.979004,0.207031
1480692103320161,-0.180176,-0.976074,0.208496
1480692103341218,-0.197754,-0.972168,0.219727
1480692103359265,-0.190918,-0.981445,0.212891
1480692103387842,-0.199707,-0.984375,0.208008
1480692103401377,-0.193359,-0.968262,0.213867
1480692103417420,-0.186035,-0.959473,0.209961
1480692103456022,-0.177734,-0.96582,0.210938
1480692103461037,-0.180176,-0.978027,0.209961
1480692103479084,-0.185547,-0.987793,0.216309
1480692103507661,-0.189453,-0.983887,0.211426
1480692103528717,-0.19043,-0.968262,0.211914
1480692103537741,-0.179199,-0.955078,0.217285
1480692103561305,-0.175781,-0.954102,0.219727
1480692103581356,-0.176758,-0.960938,0.211914
1480692103597902,-0.183105,-0.972168,0.208984
1480692103620961,-0.184082,-0.980957,0.208984
1480692103641014,-0.191895,-0.990234,0.217285
1480692103672599,-0.186035,-0.974121,0.220215
1480692103680123,-0.178223,-0.960938,0.213867
1480692103702680,-0.180176,-0.969238,0.208496
1480692103723234,-0.182129,-0.958984,0.206055
1480692103740279,-0.180664,-0.953613,0.218262
1480692103761837,-0.185059,-0.967773,0.211914
1480692103778380,-0.187988,-0.981445,0.216797
1480692103800940,-0.191895,-0.989746,0.207031
1480692103831524,-0.197754,-0.977051,0.213379
1480692103839041,-0.161133,-0.970215,0.25293
1480692103860098,-0.174316,-0.932129,0.23291
1480692103883660,-0.191895,-0.95459,0.200195
1480692103897697,-0.168945,-1.00391,0.177734
1480692103920260,-0.171387,-1.00049,0.163086
1480692103942317,-0.182129,-0.978027,0.202637
1480692103956855,-0.191406,-0.944824,0.226074
1480692103980419,-0.20752,-0.953613,0.23291
1480692104002978,-0.202148,-0.989258,0.219238
1480692104025538,-0.183105,-1,0.205078
1480692104040076,-0.175293,-0.952637,0.199707
1480692104062637,-0.171387,-0.92334,0.213867
1480692104077176,-0.181152,-0.947754,0.202637
1480692104100738,-0.188477,-0.998047,0.210938
1480692104122796,-0.203125,-0.997559,0.203613
1480692104143852,-0.206543,-0.985352,0.211914
1480692104159895,-0.208496,-0.976563,0.206543
1480692104182454,-0.186523,-0.963379,0.206543
1480692104196995,-0.17627,-0.955078,0.224121
1480692104227577,-0.180664,-0.952148,0.220215
1480692104248631,-0.182617,-0.970215,0.210938
1480692104265676,-0.183105,-0.986328,0.225098
1480692104280219,-0.181152,-0.976563,0.217773
1480692104302775,-0.1875,-0.965332,0.230469
1480692104323830,-0.17627,-0.956055,0.229492
1480692104340380,-0.200195,-0.953613,0.20459
1480692104363439,-0.188477,-0.98291,0.204102
1480692104384493,-0.182617,-0.967285,0.20459
1480692104400033,-0.186523,-0.969238,0.220703
1480692104422594,-0.198242,-0.978027,0.205566
1480692104443649,-0.191406,-0.971191,0.214355
1480692104460195,-0.188965,-0.969238,0.212891
1480692104482753,-0.181152,-0.964844,0.206055
1480692104503809,-0.17334,-0.971191,0.20752
1480692104535895,-0.184082,-0.959473,0.205078
1480692104548929,-0.201172,-0.961914,0.20752
1480692104564972,-0.205078,-0.975098,0.227051
1480692104581014,-0.200195,-0.991211,0.21875
1480692104610092,-0.19043,-0.998047,0.215332
1480692104623628,-0.17627,-0.981934,0.219238
1480692104647692,-0.176758,-0.949219,0.212402
1480692104670251,-0.180664,-0.943848,0.208008
1480692104685292,-0.182129,-0.952148,0.194336
1480692104700332,-0.185059,-0.956055,0.192383
1480692104729915,-0.192383,-0.974121,0.200684
1480692104752470,-0.196777,-0.982422,0.208496
1480692104759992,-0.192871,-0.987305,0.212891
1480692104783052,-0.192871,-0.977051,0.218262
1480692104813637,-0.196777,-0.965332,0.212402
1480692104836694,-0.189941,-0.95166,0.20752
1480692104842710,-0.185547,-0.960938,0.213867
1480692104865270,-0.188965,-0.96875,0.209473
1480692104880812,-0.185059,-0.969727,0.210938
1480692104915905,-0.17627,-0.956055,0.23877
1480692104924929,-0.188477,-0.974121,0.218262
1480692104939468,-0.200684,-1.00684,0.191406
1480692104976065,-0.212891,-1.01025,0.199707
1480692104985089,-0.194336,-0.958008,0.194336
1480692105008150,-0.17334,-0.944824,0.204102
1480692105031214,-0.176758,-0.955078,0.203125
1480692105051265,-0.200195,-0.995117,0.195313
1480692105059289,-0.188477,-1.00244,0.201172
1480692105083350,-0.189941,-0.988281,0.212891
1480692105104908,-0.183105,-0.928223,0.219238
1480692105119446,-0.182617,-0.929688,0.206543
1480692105142509,-0.199707,-0.964355,0.200195
1480692105165072,-0.189453,-0.982422,0.199219
1480692105187628,-0.184082,-0.966309,0.198242
1480692105202668,-0.186523,-0.968262,0.207031
1480692105225227,-0.193848,-0.978516,0.209473
1480692105253804,-0.191406,-0.983887,0.214355
1480692105262828,-0.19043,-0.976563,0.212402
1480692105284886,-0.191406,-0.959473,0.217285
1480692105307446,-0.191895,-0.953125,0.213379
1480692105322486,-0.182617,-0.956543,0.206543
1480692105345048,-0.178223,-0.96582,0.214844
1480692105366103,-0.187012,-0.981445,0.20459
1480692105382646,-0.196289,-0.983887,0.205566
1480692105405708,-0.198242,-0.98291,0.20459
1480692105426262,-0.19043,-0.97168,0.213867
1480692105442806,-0.18457,-0.957031,0.212402
1480692105465366,-0.182617,-0.956543,0.214844
1480692105485921,-0.187012,-0.960938,0.205566
1480692105502465,-0.185547,-0.971191,0.20166
1480692105526529,-0.193848,-0.978516,0.207031
1480692105546086,-0.196289,-0.98291,0.20166
1480692105563131,-0.194824,-0.987305,0.207031
1480692105585185,-0.188965,-0.968262,0.210449
1480692105613764,-0.190918,-0.960449,0.205566
1480692105636321,-0.191406,-0.96582,0.204102
1480692105646349,-0.181152,-0.96875,0.20752
1480692105665899,-0.18457,-0.975586,0.205078
1480692105682444,-0.189941,-0.987305,0.203125
1480692105706508,-0.193848,-0.984375,0.209473
1480692105727564,-0.1875,-0.978516,0.209961
1480692105742603,-0.186523,-0.969238,0.207031
1480692105765164,-0.186035,-0.949707,0.209473
1480692105787724,-0.185059,-0.95752,0.208496
1480692105810785,-0.182129,-0.961914,0.206543
1480692105830840,-0.192383,-0.974609,0.202637
1480692105862926,-0.192383,-0.983398,0.209961
1480692105868439,-0.192871,-0.978027,0.205078
1480692105885986,-0.194336,-0.970215,0.211914
1480692105908545,-0.190918,-0.966797,0.213867
1480692105922081,-0.191895,-0.960938,0.208496
1480692105944641,-0.181641,-0.963867,0.203125
1480692105967702,-0.183105,-0.970215,0.214844
1480692105991265,-0.191895,-0.976563,0.20166
1480692106005302,-0.188965,-0.980957,0.20752
1480692106035382,-0.189941,-0.985352,0.205566
1480692106041899,-0.194824,-0.976563,0.210938
1480692106064962,-0.202148,-0.963867,0.206055
1480692106088523,-0.17041,-0.960938,0.210938
1480692106110582,-0.16748,-0.958984,0.209961
1480692106126123,-0.192383,-0.970703,0.204102
1480692106147680,-0.181641,-0.979492,0.20166
1480692106170242,-0.183105,-0.970215,0.208008
1480692106185280,-0.193848,-0.96582,0.207031
1480692106215361,-0.196777,-0.971191,0.205566
1480692106229402,-0.198242,-0.974609,0.207031
1480692106250955,-0.179688,-0.955078,0.203613
1480692106267501,-0.181641,-0.958008,0.210449
1480692106288555,-0.187012,-0.962891,0.202148
1480692106312621,-0.185547,-0.975586,0.207031
1480692106335179,-0.192871,-0.978516,0.205566
1480692106355734,-0.197266,-0.980469,0.204102
1480692106367766,-0.193359,-0.976074,0.206055
1480692106395341,-0.191895,-0.962402,0.210938
1480692106408875,-0.181641,-0.960449,0.206055
1480692106425921,-0.182129,-0.958008,0.209961
1480692106447477,-0.182617,-0.966797,0.208984
1480692106468534,-0.187012,-0.977051,0.211426
1480692106485078,-0.194336,-0.981934,0.203125
1480692106507638,-0.194336,-0.981934,0.208984
1480692106528695,-0.195313,-0.971191,0.205566
1480692106560279,-0.189941,-0.966309,0.191895
1480692106567798,-0.192871,-0.95459,0.19873
1480692106589856,-0.184082,-0.955566,0.196289
1480692106604897,-0.193848,-0.962402,0.202637
1480692106640993,-0.192383,-0.987305,0.203613
1480692106651020,-0.188965,-0.987793,0.209473
1480692106665057,-0.179688,-0.967773,0.229004
1480692106693634,-0.198242,-0.970215,0.228516
1480692106710177,-0.198242,-0.983398,0.205078
1480692106725217,-0.190918,-1.00391,0.182617
1480692106747776,-0.189941,-0.984375,0.177734
1480692106769836,-0.199219,-0.98877,0.199219
1480692106784373,-0.222168,-0.958496,0.209961
1480692106807435,-0.205078,-0.946777,0.203125
1480692106837516,-0.175293,-0.948242,0.213867
1480692106845537,-0.185059,-0.95166,0.182617
1480692106867595,-0.182129,-0.973145,0.185547
1480692106890657,-0.191895,-0.963379,0.182617
1480692106904192,-0.184082,-0.947754,0.190918
1480692106928759,-0.185547,-0.97168,0.203613
1480692106950315,-0.200684,-0.982422,0.196777
1480692106972374,-0.20752,-0.98291,0.22168
1480692106987413,-0.210449,-0.989746,0.216309
1480692107009974,-0.211426,-0.984375,0.210938
1480692107025014,-0.196289,-0.975586,0.209473
1480692107048576,-0.19043,-0.96582,0.210449
1480692107070135,-0.19873,-0.958008,0.202637
1480692107084672,-0.189941,-0.960938,0.202637
1480692107107233,-0.197266,-0.981445,0.194336
1480692107145839,-0.196289,-0.995605,0.195313
1480692107151349,-0.187012,-0.980469,0.203125
1480692107168896,-0.189453,-0.960449,0.209473
1480692107191957,-0.177734,-0.941895,0.232422
1480692107211009,-0.191895,-0.953125,0.209473
1480692107228055,-0.199707,-0.975098,0.191406
1480692107250112,-0.196289,-0.995605,0.189453
1480692107272672,-0.192871,-0.967285,0.213867
1480692107287712,-0.203613,-0.951172,0.226074
1480692107310272,-0.203125,-0.969727,0.214355
1480692107340854,-0.195313,-0.977051,0.203613
1480692107361409,-0.190918,-0.968262,0.191895
1480692107369930,-0.178711,-0.948242,0.20166
1480692107390987,-0.179688,-0.935059,0.221191
1480692107407531,-0.201172,-0.954102,0.207031
1480692107430093,-0.197754,-1.0083,0.202148
1480692107451147,-0.195801,-0.994141,0.213379
1480692107467691,-0.190918,-0.958496,0.220703
1480692107498273,-0.186523,-0.958008,0.228516
1480692107522336,-0.190918,-0.955566,0.225586
1480692107527350,-0.197266,-0.968262,0.205566
1480692107549909,-0.191406,-0.97998,0.203613
1480692107588012,-0.196289,-0.976074,0.210938
1480692107590518,-0.187012,-0.975586,0.208496
1480692107612579,-0.186035,-0.966797,0.212402
1480692107640150,-0.199219,-0.963379,0.199707
1480692107648170,-0.201172,-0.963379,0.20166
1480692107670230,-0.187988,-0.966797,0.212402
1480692107692790,-0.19043,-0.964355,0.221191
1480692107707830,-0.19043,-0.970215,0.218262
1480692107730391,-0.191406,-0.967285,0.214844
1480692107758464,-0.204102,-0.977051,0.20166
1480692107774507,-0.188965,-0.980957,0.208496
1480692107790047,-0.182129,-0.964355,0.208496
1480692107812609,-0.191895,-0.95459,0.219238
1480692107833665,-0.1875,-0.956543,0.222656
1480692107857729,-0.190918,-0.958008,0.213379
1480692107896353,-0.199219,-0.975586,0.208496
1480692107901344,-0.194336,-0.974121,0.205566
1480692107911872,-0.196777,-0.977051,0.211426
1480692107932426,-0.202148,-0.976563,0.211426
1480692107947968,-0.195801,-0.967285,0.211914
1480692107970528,-0.186035,-0.958496,0.20752
1480692107993589,-0.191406,-0.956055,0.21875
1480692108007126,-0.199707,-0.974121,0.207031
1480692108030188,-0.195313,-0.991211,0.212402
1480692108058763,-0.20166,-0.982422,0.211426
1480692108067786,-0.191895,-0.969727,0.205566
1480692108089845,-0.192383,-0.975586,0.208984
1480692108112406,-0.1875,-0.967285,0.203125
1480692108141482,-0.189453,-0.965332,0.20166
1480692108165045,-0.19043,-0.947754,0.212891
1480692108173067,-0.196289,-0.956055,0.204102
1480692108195126,-0.199219,-0.967285,0.205566
1480692108210667,-0.203125,-0.983887,0.207031
1480692108238741,-0.203613,-0.992188,0.205078
1480692108255285,-0.194336,-0.984863,0.203125
1480692108278347,-0.179688,-0.975586,0.202637
1480692108292384,-0.187012,-0.957031,0.208984
1480692108313440,-0.195313,-0.962402,0.208496
1480692108337504,-0.1875,-0.970215,0.222168
1480692108353045,-0.200684,-0.989746,0.21875
1480692108374101,-0.195801,-0.990723,0.20752
1480692108390645,-0.204102,-1.00537,0.206055
1480692108421226,-0.188965,-0.972656,0.199219
1480692108437272,-0.171387,-0.942383,0.206055
1480692108450303,-0.203125,-0.922852,0.209961
1480692108472363,-0.211914,-0.938965,0.205078
1480692108493419,-0.202637,-0.976563,0.192871
1480692108509962,-0.19043,-1.01465,0.186523
1480692108532523,-0.190918,-1.00293,0.186523
1480692108555083,-0.187012,-0.972168,0.208984
1480692108571125,-0.209473,-0.969727,0.205566
1480692108592683,-0.202637,-0.955566,0.207031
1480692108615242,-0.192383,-0.938965,0.223633
1480692108636298,-0.180664,-0.943359,0.214355
1480692108682922,-0.175293,-0.973145,0.214355
1480692108685429,-0.188477,-0.973633,0.205566
1480692108696458,-0.203613,-0.984863,0.197754
1480692108750602,-0.200195,-0.98584,0.207031
1480692108753109,-0.202148,-0.980957,0.212891
1480692108760631,-0.195313,-0.966797,0.22168
1480692108780683,-0.193848,-0.954102,0.21582
1480692108801738,-0.194824,-0.961914,0.218262
1480692108810261,-0.190918,-0.964844,0.206543
1480692108832320,-0.19043,-0.982422,0.203125
1480692108862901,-0.199219,-0.98877,0.216797
1480692108871424,-0.19873,-0.974609,0.208984
1480692108892980,-0.193359,-0.963867,0.216797
1480692108915041,-0.199219,-0.960449,0.205078
1480692108945121,-0.192383,-0.967773,0.206055
1480692108954143,-0.191406,-0.961914,0.208984
1480692108975200,-0.191406,-0.967285,0.204102
1480692108997761,-0.196289,-0.973633,0.203125
1480692109018816,-0.185059,-0.981934,0.209473
1480692109034858,-0.194336,-0.977539,0.21582
1480692109056416,-0.196777,-0.970703,0.214844
1480692109085994,-0.189941,-0.973633,0.203613
1480692109111061,-0.1875,-0.972656,0.20459
1480692109116074,-0.176758,-0.965332,0.210938
1480692109140139,-0.180176,-0.951172,0.217773
1480692109155679,-0.187988,-0.970215,0.21582
1480692109177237,-0.192383,-0.99707,0.212402
1480692109192778,-0.194336,-0.986328,0.212402
1480692109230881,-0.193359,-0.958008,0.211914
1480692109235892,-0.188477,-0.947266,0.212891
1480692109252436,-0.1875,-0.942871,0.217773
1480692109275498,-0.186523,-0.961914,0.21582
1480692109296055,-0.195313,-0.968262,0.216309
1480692109312600,-0.192871,-0.976563,0.219238
1480692109335659,-0.20459,-0.981934,0.215332
1480692109356212,-0.203125,-0.972168,0.219238
1480692109373258,-0.191895,-0.961914,0.21582
1480692109395318,-0.187988,-0.953613,0.212891
1480692109416874,-0.181152,-0.955566,0.214355
1480692109432416,-0.1875,-0.968262,0.205078
1480692109456479,-0.1875,-0.977051,0.213379
1480692109476031,-0.192871,-0.976563,0.213379
1480692109500597,-0.199707,-0.976563,0.212891
1480692109516640,-0.197266,-0.989258,0.216797
1480692109553754,-0.194336,-0.978027,0.209961
1480692109559754,-0.189941,-0.963379,0.208984
1480692109582314,-0.19043,-0.964844,0.206055
1480692109597857,-0.188965,-0.96582,0.206055
1480692109618410,-0.185547,-0.97998,0.211914
1480692109642474,-0.188965,-0.980469,0.204102
1480692109665535,-0.187012,-0.975586,0.210938
1480692109672554,-0.196289,-0.973633,0.206543
1480692109702133,-0.192871,-0.969238,0.205078
1480692109719679,-0.195801,-0.961914,0.208008
1480692109747754,-0.189941,-0.958008,0.201172
1480692109755775,-0.183105,-0.965332,0.20752
1480692109778840,-0.189941,-0.97168,0.199707
1480692109793376,-0.189453,-0.981445,0.205078
1480692109820949,-0.198242,-0.981934,0.199707
1480692109838997,-0.202148,-0.980469,0.197754
1480692109858549,-0.199219,-0.971191,0.208008
1480692109889132,-0.192871,-0.956543,0.214355
1480692109903169,-0.188965,-0.955078,0.214844
1480692109918708,-0.19043,-0.972168,0.208008
1480692109934751,-0.197754,-0.980469,0.202637
1480692109972351,-0.207031,-0.988281,0.20459
1480692109987893,-0.205078,-0.97998,0.201172
1480692109996916,-0.195801,-0.972656,0.208496
1480692110018474,-0.179199,-0.955078,0.208984
1480692110038527,-0.17334,-0.946289,0.215332
1480692110055071,-0.180176,-0.953125,0.214355
1480692110083647,-0.181641,-0.961914,0.229492
1480692110100191,-0.200195,-0.961426,0.223145
1480692110115231,-0.209961,-0.993164,0.220215
1480692110137791,-0.195801,-1.01563,0.185547
1480692110159348,-0.202148,-1.00293,0.175293
1480692110175894,-0.174316,-0.963379,0.194824
1480692110197450,-0.182129,-0.939453,0.200195
1480692110219009,-0.20166,-0.942871,0.208496
1480692110242570,-0.197266,-0.969238,0.205566
1480692110263627,-0.19043,-0.980469,0.208496
1480692110278667,-0.199219,-0.977539,0.206543
1480692110302730,-0.195313,-0.967285,0.21875
1480692110323787,-0.20166,-0.962891,0.208496
1480692110338825,-0.199219,-0.966309,0.205078
1480692110363393,-0.19873,-0.961426,0.20166
1480692110383444,-0.195313,-0.96875,0.211426
1480692110398485,-0.193848,-0.982422,0.206543
1480692110415028,-0.183594,-0.979004,0.205566
1480692110443604,-0.185059,-0.974121,0.20752
1480692110467668,-0.197266,-0.970703,0.209961
1480692110475188,-0.192871,-0.967285,0.208984
1480692110497749,-0.185547,-0.958008,0.217285
1480692110520308,-0.188965,-0.961426,0.217773
1480692110535348,-0.186035,-0.96875,0.213867
1480692110557407,-0.187012,-0.96875,0.213379
1480692110579967,-0.195313,-0.981934,0.208984
1480692110594506,-0.200684,-0.985352,0.210449
1480692110619071,-0.195313,-0.978027,0.218262
1480692110640628,-0.19043,-0.963867,0.211426
1480692110670207,-0.187012,-0.952637,0.213379
1480692110677728,-0.188965,-0.95752,0.209961
1480692110700287,-0.184082,-0.962891,0.211914
1480692110746409,-0.185547,-0.965332,0.219238
1480692110751423,-0.199707,-0.96875,0.213379
1480692110775487,-0.190918,-0.97168,0.207031
1480692110781503,-0.187012,-0.978516,0.20752
1480692110822111,-0.184082,-0.980469,0.21875
1480692110827626,-0.202637,-0.968262,0.216797
1480692110841164,-0.177734,-0.958984,0.210938
1480692110857706,-0.193359,-0.973633,0.208984
1480692110886282,-0.194336,-0.984375,0.214844
1480692110894303,-0.197266,-0.99707,0.20752
1480692110917364,-0.206543,-0.978027,0.204102
1480692110940426,-0.202148,-0.96875,0.199707
1480692110969503,-0.200684,-0.935059,0.207031
1480692110977525,-0.201172,-0.93457,0.201172
1480692111000586,-0.182617,-0.947754,0.205078
1480692111021140,-0.179199,-0.963867,0.206543
1480692111038186,-0.186523,-0.972656,0.208008
1480692111066761,-0.195801,-0.977051,0.212402
1480692111083306,-0.203125,-0.977051,0.220215
1480692111106366,-0.202148,-0.974121,0.221191
1480692111119902,-0.202637,-0.964844,0.212891
1480692111140958,-0.192383,-0.956543,0.212402
1480692111164021,-0.194824,-0.952148,0.210449
1480692111180063,-0.188477,-0.975098,0.197266
1480692111202622,-0.192383,-0.989258,0.206543
1480692111217663,-0.18457,-0.990234,0.220703
1480692111246238,-0.21582,-0.983398,0.215332
1480692111261781,-0.202148,-0.970215,0.211426
1480692111278828,-0.181152,-0.965332,0.20166
1480692111303397,-0.182129,-0.958008,0.204102
1480692111322441,-0.197266,-0.952148,0.212891
1480692111338485,-0.188477,-0.962402,0.21582
1480692111360043,-0.197754,-0.969238,0.213379
1480692111382601,-0.205566,-0.980957,0.212402
1480692111404660,-0.202148,-0.990234,0.207031
1480692111420703,-0.204102,-0.983887,0.202148
1480692111443264,-0.189453,-0.933594,0.208984
1480692111457801,-0.182617,-0.928711,0.217285
1480692111479860,-0.213867,-0.956543,0.209473
1480692111503423,-0.20166,-0.987305,0.20459
1480692111516958,-0.194336,-0.984863,0.206543
1480692111553556,-0.196777,-0.985352,0.210938
1480692111564596,-0.20166,-0.980957,0.199219
1480692111577119,-0.199219,-0.964844,0.212891
1480692111600180,-0.20166,-0.950684,0.215332
1480692111622740,-0.196777,-0.959473,0.210449
1480692111637780,-0.196777,-0.967773,0.20752
1480692111659840,-0.194336,-0.982422,0.210938
1480692111688415,-0.182617,-0.972656,0.221191
1480692111696938,-0.198242,-0.982422,0.214355
1480692111721502,-0.206055,-0.979004,0.208984
1480692111742559,-0.195313,-0.981445,0.208496
1480692111757097,-0.210449,-0.964355,0.200684
1480692111780158,-0.185547,-0.944336,0.208496
1480692111803220,-0.191406,-0.943848,0.210449
1480692111833300,-0.196777,-0.976074,0.203125
1480692111841822,-0.206055,-0.979492,0.202148
1480692111862378,-0.205566,-0.967773,0.212891
1480692111884937,-0.205566,-0.960938,0.215332
1480692111899978,-0.19043,-0.959961,0.212891
1480692111922538,-0.217285,-0.960938,0.224121
1480692111943593,-0.206543,-0.967773,0.220703
1480692111966153,-0.197266,-0.959961,0.216797
1480692111982697,-0.189941,-0.970703,0.212891
1480692112005257,-0.188965,-0.980957,0.208008
1480692112020297,-0.202637,-0.991211,0.197266
1480692112049876,-0.195801,-0.977051,0.194824
1480692112070931,-0.205566,-0.96875,0.213867
1480692112079956,-0.191895,-0.970215,0.220703
1480692112110537,-0.180176,-0.941406,0.222168
1480692112138612,-0.183105,-0.93457,0.224121
1480692112150142,-0.197754,-0.972168,0.216797
1480692112163177,-0.212402,-0.99707,0.206543
1480692112183731,-0.209473,-0.992676,0.196777
1480692112208798,-0.208008,-0.970215,0.203613
1480692112223337,-0.203125,-0.96582,0.208496
1480692112243390,-0.183105,-0.958008,0.213379
1480692112259936,-0.187988,-0.949219,0.216309
1480692112288511,-0.196289,-0.951172,0.218262
1480692112303551,-0.195801,-0.969238,0.208496
1480692112335134,-0.200195,-0.984375,0.205078
1480692112356190,-0.19873,-0.998047,0.198242
1480692112365214,-0.206055,-0.96875,0.203613
1480692112388776,-0.200684,-0.953613,0.204102
1480692112419358,-0.200195,-0.956543,0.211426
1480692112424873,-0.186523,-0.971191,0.212402
1480692112445929,-0.188965,-0.961914,0.204102
1480692112462473,-0.194824,-0.97168,0.207031
1480692112485033,-0.200195,-0.972656,0.201172
1480692112499572,-0.208984,-0.982422,0.211426
1480692112522633,-0.20752,-0.986816,0.200195
1480692112545196,-0.194824,-0.979004,0.199219
1480692112559230,-0.194824,-0.960449,0.20459
1480692112582291,-0.195313,-0.944824,0.212891
1480692112611373,-0.194336,-0.95459,0.211426
1480692112627412,-0.1875,-0.976563,0.208008
1480692112642452,-0.175293,-0.986816,0.214844
1480692112666014,-0.214355,-0.976563,0.219727
1480692112695592,-0.211914,-0.967285,0.213379
1480692112716148,-0.202148,-0.975098,0.19043
1480692112732691,-0.195801,-0.965332,0.195313
1480692112739209,-0.177246,-0.956543,0.206543
1480692112770292,-0.190918,-0.954102,0.209473
1480692112785331,-0.195801,-0.970703,0.214355
1480692112806388,-0.20166,-0.976074,0.212891
1480692112822431,-0.202637,-0.983398,0.208496
1480692112845992,-0.19873,-0.974609,0.205566
1480692112866046,-0.190918,-0.971191,0.202637
1480692112882590,-0.189453,-0.963867,0.204102
1480692112905150,-0.192383,-0.952148,0.200684
1480692112926707,-0.19873,-0.961426,0.205078
1480692112949769,-0.194824,-0.975098,0.210938
1480692112973832,-0.197266,-0.979004,0.206543
1480692112985864,-0.195313,-0.977539,0.208008
1480692113003912,-0.197266,-0.970215,0.20752
1480692113032489,-0.19873,-0.964355,0.19873
1480692113046024,-0.197754,-0.958496,0.212402
1480692113062572,-0.195313,-0.958008,0.209473
1480692113085630,-0.196289,-0.964844,0.205566
1480692113113705,-0.197266,-0.977051,0.207031
1480692113122729,-0.195801,-0.987793,0.20166
1480692113160329,-0.196777,-0.980957,0.194336
1480692113168851,-0.200195,-0.970703,0.196777
1480692113190911,-0.194824,-0.962891,0.20459
1480692113233524,-0.187012,-0.954102,0.20752
1480692113245058,-0.19043,-0.96875,0.210938
1480692113250067,-0.196289,-0.967285,0.200684
1480692113265107,-0.19873,-0.970703,0.201172
1480692113286163,-0.201172,-0.990234,0.212891
1480692113310728,-0.195313,-0.993164,0.210938
1480692113332286,-0.208496,-0.976074,0.211914
1480692113347326,-0.211426,-0.955078,0.207031
1480692113362871,-0.197266,-0.94043,0.195313
1480692113384928,-0.19873,-0.954102,0.195313
1480692113415006,-0.201172,-0.973145,0.191406
1480692113428542,-0.202148,-0.980469,0.19043
1480692113445587,-0.193848,-0.979492,0.191895
1480692113467649,-0.197754,-0.971191,0.205566
1480692113528308,-0.205078,-0.961426,0.193848
1480692113530315,-0.209473,-0.966309,0.196289
1480692113535827,-0.200195,-0.964355,0.197266
1480692113541843,-0.20166,-0.969238,0.193848
1480692113565022,-0.200684,-0.969238,0.199219
1480692113587966,-0.19043,-0.983398,0.208496
1480692113608521,-0.201172,-0.977539,0.212891
1480692113626067,-0.202637,-0.978027,0.216309
1480692113665172,-0.199707,-0.970703,0.202148
1480692113668681,-0.197266,-0.96582,0.194336
1480692113684724,-0.194824,-0.964844,0.203613
1480692113723827,-0.188965,-0.950195,0.204102
1480692113735860,-0.199707,-0.963379,0.201172
1480692113744888,-0.214844,-0.990723,0.203125
1480692113767443,-0.208984,-1.00537,0.188477
1480692113788499,-0.212402,-0.993164,0.189941
1480692113805544,-0.205078,-0.962402,0.214844
1480692113829109,-0.201172,-0.93457,0.205078
1480692113850162,-0.20459,-0.944336,0.209961
1480692113872723,-0.191406,-0.976563,0.209961
1480692113887763,-0.194336,-0.977539,0.205078
1480692113908819,-0.189453,-0.974609,0.210938
1480692113932381,-0.196777,-0.97998,0.208008
1480692113947423,-0.207031,-0.982422,0.208984
1480692113969981,-0.201172,-0.960449,0.210449
1480692113998562,-0.200195,-0.96582,0.207031
1480692114007582,-0.197266,-0.95459,0.214355
1480692114028639,-0.194336,-0.96582,0.20752
1480692114046184,-0.194336,-0.97168,0.211914
1480692114068245,-0.19873,-0.981445,0.213867
1480692114089800,-0.204102,-0.980957,0.209473
1480692114104840,-0.200195,-0.97168,0.203125
1480692114127902,-0.20459,-0.962402,0.196777
1480692114148456,-0.202637,-0.947754,0.208496
1480692114165000,-0.199707,-0.959473,0.214355
1480692114187561,-0.200195,-0.953125,0.21582
1480692114208114,-0.195313,-0.974609,0.21875
1480692114225160,-0.20459,-0.982422,0.212402
1480692114247719,-0.204102,-0.997559,0.20459
1480692114270280,-0.202637,-0.98291,0.205078
1480692114285321,-0.203613,-0.951172,0.208008
1480692114307379,-0.191895,-0.942383,0.206543
1480692114330966,-0.188965,-0.959473,0.217773
1480692114345481,-0.201172,-0.960938,0.216309
1480692114367539,-0.187988,-0.981934,0.218262
1480692114390098,-0.19873,-0.990234,0.212891
1480692114404637,-0.198242,-0.972168,0.210449
1480692114435219,-0.203125,-0.95166,0.199707
1480692114450760,-0.192871,-0.946777,0.20752
1480692114466302,-0.195313,-0.949219,0.198242
1480692114494878,-0.197754,-0.955078,0.207031
1480692114525458,-0.205566,-0.97168,0.205078
1480692114530973,-0.203125,-0.983887,0.211914
1480692114548019,-0.20752,-0.987305,0.216797
1480692114570077,-0.20752,-0.971191,0.217773
1480692114586120,-0.208984,-0.963379,0.218262
1480692114615197,-0.197266,-0.957031,0.205566
1480692114630240,-0.20166,-0.949219,0.213867
1480692114645279,-0.205566,-0.956055,0.207031
1480692114667336,-0.19873,-0.976074,0.211914
1480692114698419,-0.202148,-0.988281,0.20166
1480692114718473,-0.210449,-0.984863,0.206055
1480692114728000,-0.208984,-0.976074,0.204102
1480692114750056,-0.195801,-0.976074,0.198242
1480692114779133,-0.191406,-0.966309,0.211914
1480692114789160,-0.208008,-0.95459,0.211914
1480692114816232,-0.188965,-0.964844,0.20752
1480692114831273,-0.20166,-0.970215,0.198242
1480692114847816,-0.194824,-0.990234,0.193848
1480692114869874,-0.182617,-0.944336,0.215332
1480692114892436,-0.216797,-0.937012,0.214844
1480692114907475,-0.227539,-0.980469,0.215332
1480692114930034,-0.210938,-0.99707,0.203613
1480692114951094,-0.206055,-0.953613,0.198242
1480692114975155,-0.200195,-0.939453,0.206543
1480692114997715,-0.210449,-0.960938,0.214355
1480692115011256,-0.210449,-0.971191,0.213379
1480692115027796,-0.208008,-0.98291,0.210449
1480692115049853,-0.20459,-0.970703,0.21582
1480692115070910,-0.19873,-0.963867,0.21875
1480692115094973,-0.195313,-0.95752,0.214355
1480692115110014,-0.188965,-0.965332,0.219238
1480692115134579,-0.194336,-0.968262,0.219727
1480692115147613,-0.197266,-0.974121,0.209961
1480692115170173,-0.20752,-0.979492,0.196777
1480692115192734,-0.211914,-0.970215,0.202148
1480692115207773,-0.197754,-0.955566,0.209961
1480692115243369,-0.197754,-0.952148,0.219238
1480692115252391,-0.19043,-0.961914,0.231445
1480692115273448,-0.190918,-0.944336,0.222168
1480692115297512,-0.213867,-0.947266,0.21582
1480692115313052,-0.211914,-0.975098,0.213379
1480692115327595,-0.20752,-1.00098,0.214844
1480692115349651,-0.20752,-0.984863,0.215332
1480692115372711,-0.199219,-0.964355,0.226563
1480692115388754,-0.197266,-0.944336,0.220215
1480692115409812,-0.194824,-0.936523,0.219238
1480692115432871,-0.199707,-0.952637,0.219238
1480692115447410,-0.199219,-0.972168,0.208984
1480692115469970,-0.199219,-0.982422,0.207031
1480692115493033,-0.199707,-0.989746,0.227051
1480692115523613,-0.196289,-0.977051,0.229004
1480692115531635,-0.199707,-0.961426,0.22998
1480692115553693,-0.193848,-0.955078,0.22168
1480692115575751,-0.1875,-0.961914,0.212891
1480692115589789,-0.185547,-0.960449,0.214355
1480692115612349,-0.188965,-0.961426,0.206543
1480692115626888,-0.200195,-0.977051,0.202637
1480692115650450,-0.217773,-0.987793,0.208008
1480692115680029,-0.171875,-0.97998,0.245605
1480692115693565,-0.19873,-0.915039,0.257324
1480692115717629,-0.210449,-0.945313,0.253906
1480692115733171,-0.20459,-0.996582,0.205078
1480692115753726,-0.203613,-1.01221,0.187988
1480692115771773,-0.202148,-0.976563,0.193848
1480692115808370,-0.209961,-0.937988,0.209961
1480692115813384,-0.214355,-0.945313,0.224121
1480692115829930,-0.20166,-0.976563,0.223145
1480692115852487,-0.176758,-0.973633,0.222656
1480692115881063,-0.195801,-0.959473,0.220215
1480692115890588,-0.192383,-0.950684,0.212891
1480692115913149,-0.20166,-0.950684,0.224121
1480692115934205,-0.207031,-0.964355,0.225586
1480692115950247,-0.208984,-0.980469,0.219727
1480692115972807,-0.208496,-0.973633,0.225586
1480692115993864,-0.206543,-0.972656,0.22998
1480692116010913,-0.197754,-0.961914,0.226074
1480692116032466,-0.190918,-0.954102,0.222168
1480692116054024,-0.190918,-0.953613,0.22168
1480692116072072,-0.198242,-0.958984,0.217285
1480692116107667,-0.192871,-0.988281,0.22168
1480692116116188,-0.196777,-0.977539,0.226563
1480692116129224,-0.208496,-0.958496,0.243164
1480692116152284,-0.226563,-0.953613,0.250977
1480692116183367,-0.202637,-0.977539,0.252441
1480692116189885,-0.210938,-0.988281,0.244141
1480692116212444,-0.206055,-0.978027,0.235352
1480692116235006,-0.17627,-0.948242,0.23584
1480692116250044,-0.183105,-0.924316,0.243164
1480692116272605,-0.189941,-0.95166,0.241211
1480692116303186,-0.207031,-0.970215,0.241699
1480692116309706,-0.210449,-0.966797,0.237305
1480692116332765,-0.20166,-0.953125,0.25
1480692116356327,-0.199707,-0.950684,0.254883
1480692116368359,-0.191406,-0.944824,0.246582
1480692116391922,-0.171387,-0.943359,0.255371
1480692116405959,-0.168945,-0.921387,0.255371
1480692116420498,-0.187012,-0.92334,0.26709
1480692116437042,-0.203613,-0.947754,0.238281
1480692116458098,-0.205566,-1.01904,0.233887
1480692116488679,-0.213379,-1.01172,0.226563
1480692116497706,-0.203125,-0.970215,0.216309
1480692116517756,-0.193359,-0.958984,0.231445
1480692116548839,-0.195313,-0.936035,0.242188
1480692116556860,-0.204102,-0.93457,0.240723
1480692116577921,-0.210938,-0.967285,0.25293
1480692116601981,-0.208008,-0.974121,0.248535
1480692116617021,-0.206055,-0.946289,0.244141
1480692116645597,-0.192383,-0.960449,0.228516
1480692116660637,-0.187988,-0.962891,0.237305
1480692116682695,-0.187988,-0.950684,0.220215
1480692116697736,-0.192383,-0.949707,0.226074
1480692116720296,-0.206055,-0.95459,0.224121
1480692116738344,-0.206543,-0.986816,0.212891
1480692116757895,-0.208008,-0.994141,0.214844
1480692116780454,-0.188477,-0.97998,0.223145
1480692116798504,-0.19043,-0.952637,0.232422
1480692116834100,-0.194824,-0.943848,0.225586
1480692116848135,-0.19873,-0.946777,0.223145
1480692116858163,-0.194824,-0.958496,0.21875
1480692116885234,-0.213379,-0.969238,0.220703
1480692116904785,-0.210938,-0.977051,0.217285
1480692116922834,-0.194336,-0.98291,0.216797
1480692116937874,-0.192871,-0.985352,0.21582
1480692116960435,-0.197266,-0.962891,0.217285
1480692116982993,-0.195313,-0.953125,0.225586
1480692116998033,-0.187012,-0.955078,0.224609
1480692117020593,-0.193359,-0.966797,0.220215
1480692117043153,-0.196777,-0.967773,0.21582
1480692117057692,-0.192871,-0.992188,0.229004
1480692117080754,-0.204102,-0.980957,0.22168
1480692117106826,-0.205078,-0.975586,0.212891
1480692117134396,-0.203125,-0.977539,0.217773
1480692117140416,-0.200195,-0.961426,0.223633
1480692117180017,-0.193848,-0.960449,0.234375
1480692117182524,-0.208984,-0.951172,0.22998
1480692117208092,-0.213867,-0.960938,0.220215
1480692117223132,-0.203613,-0.966797,0.220703
1480692117238172,-0.191895,-0.969727,0.219727
1480692117260735,-0.186523,-0.960938,0.220703
1480692117291815,-0.187012,-0.948242,0.219727
1480692117297831,-0.181641,-0.956543,0.212402
1480692117330920,-0.186523,-0.959961,0.211426
1480692117344457,-0.199707,-0.96875,0.219238
1480692117357991,-0.20166,-0.972168,0.227051
1480692117380551,-0.202148,-0.96875,0.223633
1480692117403111,-0.200684,-0.982422,0.226563
1480692117436199,-0.194336,-0.974121,0.231934
1480692117440212,-0.194336,-0.966797,0.227539
1480692117464274,-0.195313,-0.949219,0.223145
1480692117494354,-0.192871,-0.958496,0.222656
1480692117500369,-0.187012,-0.963867,0.217773
1480692117522930,-0.182129,-0.962402,0.224609
1480692117537969,-0.202148,-0.963379,0.223145
1480692117560530,-0.220703,-0.980469,0.224121
1480692117586599,-0.214844,-0.980957,0.225098
1480692117605649,-0.192871,-0.970703,0.226563
1480692117627709,-0.1875,-0.946289,0.223145
1480692117650769,-0.187988,-0.941406,0.220703
1480692117660796,-0.194336,-0.952148,0.216797
1480692117680349,-0.193848,-0.964844,0.214355
1480692117705916,-0.197266,-0.982422,0.216309
1480692117719953,-0.194824,-0.987793,0.216309
1480692117743517,-0.186035,-0.972656,0.225098
1480692117774599,-0.194336,-0.958496,0.232422
1480692117780615,-0.193848,-0.962402,0.220215
1480692117800167,-0.194336,-0.96875,0.222656
1480692117825735,-0.209473,-0.978027,0.217773
1480692117845788,-0.195801,-0.976563,0.219727
1480692117867846,-0.191895,-0.986328,0.206543
1480692117882886,-0.202148,-0.975586,0.212402
1480692117907452,-0.195313,-0.959473,0.225098
1480692117920487,-0.199219,-0.941895,0.22998
1480692117960093,-0.19873,-0.944336,0.220703
1480692117962600,-0.187988,-0.960449,0.224609
1480692117980646,-0.196777,-0.973633,0.216309
1480692118002705,-0.204102,-0.974609,0.215332
1480692118021255,-0.205566,-0.97998,0.213867
1480692118049329,-0.20459,-0.979004,0.214844
1480692118062866,-0.199707,-0.969727,0.222168
1480692118080913,-0.191406,-0.952637,0.220215
1480692118100465,-0.197266,-0.95166,0.220215
1480692118125030,-0.196289,-0.967773,0.215332
1480692118148092,-0.195801,-0.96875,0.212402
1480692118162131,-0.201172,-0.973633,0.220215
1480692118184188,-0.201172,-0.973145,0.22168
1480692118214770,-0.199707,-0.976074,0.227051
1480692118220284,-0.19873,-0.962402,0.230957
1480692118243345,-0.192871,-0.951172,0.236328
1480692118260894,-0.199707,-0.948242,0.236816
1480692118280444,-0.186523,-0.968262,0.229492
1480692118303004,-0.181641,-0.967285,0.217285
1480692118321052,-0.188477,-0.977051,0.219238
1480692118348124,-0.187988,-0.956055,0.225586
1480692118363165,-0.211914,-0.948242,0.222656
1480692118394247,-0.205566,-0.958008,0.218262
1480692118407783,-0.197266,-0.953125,0.22168
1480692118439367,-0.194824,-0.964355,0.224121
1480692118445383,-0.195313,-0.967285,0.221191
1480692118461929,-0.197754,-0.969727,0.225098
1480692118490502,-0.20459,-0.972168,0.227051
1480692118508550,-0.205566,-0.978516,0.229492
1480692118520582,-0.203125,-0.969238,0.224609
1480692118544647,-0.193359,-0.961914,0.219238
1480692118565200,-0.192383,-0.960938,0.21875
1480692118580241,-0.194824,-0.955566,0.214355
1480692118602802,-0.192383,-0.957031,0.21875
1480692118626865,-0.195801,-0.969238,0.22168
1480692118641905,-0.189941,-0.970703,0.224609
1480692118664466,-0.196289,-0.975098,0.227539
1480692118685521,-0.206055,-0.974609,0.223633
1480692118703571,-0.202148,-0.960938,0.220215
1480692118723121,-0.193359,-0.951172,0.22998
1480692118745180,-0.199707,-0.953613,0.219727
1480692118769245,-0.19043,-0.960449,0.221191
1480692118790300,-0.199707,-0.971191,0.217773
1480692118805341,-0.20166,-0.981445,0.210938
1480692118821883,-0.203613,-0.979004,0.215332
1480692118845948,-0.20166,-0.973145,0.214355
1480692118873521,-0.197754,-0.964355,0.217285
1480692118882044,-0.202637,-0.95752,0.216309
1480692118904604,-0.197754,-0.958984,0.221191
1480692118925158,-0.19043,-0.962402,0.214355
1480692118943207,-0.187988,-0.967285,0.216309
1480692118962758,-0.191406,-0.97168,0.216797
1480692118988828,-0.196777,-0.986328,0.220215
1480692119010890,-0.202148,-0.969727,0.214355
1480692119022918,-0.195801,-0.960938,0.208496
1480692119048486,-0.200684,-0.954102,0.212891
1480692119078065,-0.197754,-0.95459,0.217285
1480692119083078,-0.193848,-0.966797,0.216797
1480692119122182,-0.197754,-0.975098,0.213379
1480692119136219,-0.194336,-0.975586,0.218262
1480692119160785,-0.203125,-0.978516,0.211426
1480692119165296,-0.198242,-0.970215,0.216797
1480692119183344,-0.195313,-0.963867,0.206543
1480692119205905,-0.186035,-0.950195,0.216797
1480692119228468,-0.189453,-0.951172,0.220215
1480692119243508,-0.194824,-0.962402,0.210938
