timestamp,x,y,z
1480613047766334,0.25,-0.125,-0.0625
1480613047781375,0.1875,-0.1875,-0.25
1480613047803935,-0.8125,0.125,0
1480613047818473,-0.375,0.125,-0.0625
1480613047841033,0.375,0.3125,0
1480613047856075,0.375,0,-0.3125
1480613047878633,0.75,0.3125,-0.4375
1480613047908714,0.0625,0.375,-0.25
1480613047915732,-0.6875,0.5,-0.0625
1480613047953833,0.375,0.375,-0.125
1480613047961353,0.8125,0.25,-0.3125
1480613047983913,0.125,0.0625,-0.3125
1480613048007977,-0.8125,0.125,-0.1875
1480613048021012,-1,-0.1875,0
1480613048043572,-0.5,0,-0.25
1480613048059113,0.25,0.0625,-0.5
1480613048081673,0.125,-0.0625,-0.5
1480613048095711,-0.4375,-0.125,-0.1875
1480613048120778,-0.1875,-0.25,-0.375
1480613048141332,0.125,-0.4375,-0.375
1480613048155370,-0.125,-0.125,-0.5
1480613048185950,0.1875,0.125,-1
1480613048201993,-0.75,0.125,-0.6875
1480613048239094,-1,-0.0625,-1.125
1480613048241599,-0.5,-0.125,-0.5
1480613048261652,-0.3125,0.1875,0.0625
1480613048282207,0.5625,0.1875,0.375
1480613048299756,0.6875,0.25,0.375
1480613048321311,0.25,0.1875,0.5
1480613048342367,-0.125,0.0625,0.25
1480613048364927,0.1875,0.125,0.125
1480613048381972,0.9375,0.3125,-0.4375
1480613048403030,0.6875,0.0625,0.125
1480613048418569,-1.125,-0.4375,0.625
1480613048441129,-0.5,-0.1875,0.1875
1480613048462186,0.6875,0.1875,-0.375
1480613048478729,-0.75,0,-0.625
1480613048515326,-1.0625,0.1875,-0.625
1480613048522345,-0.75,-0.25,-0.25
1480613048538891,-0.5625,-0.1875,-0.5
1480613048561450,-0.1875,-0.0625,-0.625
1480613048582506,0.1875,0.125,-0.4375
1480613048598549,0.125,0.3125,0
1480613048627124,0.0625,0.4375,-0.125
1480613048643669,0.125,0.1875,-0.5
1480613048658709,0.125,0.3125,-0.25
1480613048682271,-0.25,0,0.3125
1480613048705335,0,0.3125,0.5
1480613048719872,0,0.1875,0.375
1480613048748948,0.125,0.1875,0.125
1480613048764490,0.125,0.0625,-0.1875
1480613048786047,-0.125,-0.0625,0
1480613048801588,-0.0625,-0.125,0.0625
1480613048824148,0.1875,-0.1875,0
1480613048838688,0.3125,-0.125,-0.4375
1480613048861247,-0.5,-0.125,-0.6875
1480613048883808,0,0.25,-0.75
1480613048906367,-0.5,0.0625,-0.625
1480613048927423,-0.9375,0.125,-0.9375
1480613048945972,-0.25,0.1875,-0.9375
1480613048972044,-0.875,-0.3125,-0.1875
1480613048981066,-0.1875,-0.0625,0.0625
1480613049003627,1.4375,0.0625,0.3125
1480613049018165,1.0625,-0.0625,0.25
1480613049041728,0.3125,0.1875,0.3125
1480613049065792,-0.3125,0.3125,0.3125
1480613049078826,-0.3125,0,0.25
1480613049101386,1.0625,0.25,0.125
1480613049123445,0.8125,0,0.5625
1480613049144501,-0.4375,0.0625,0.5625
1480613049161546,-0.0625,0.375,0.5625
1480613049183605,-0.5625,0.3125,0.5
1480613049204662,-0.8125,0.25,0.0625
1480613049221208,0.3125,0.1875,-0.25
1480613049243263,0.625,0.0625,-0.375
1480613049264822,0.25,0.1875,-0.625
1480613049286880,-0.125,0.5625,-0.6875
1480613049308436,-0.875,0.375,-0.375
1480613049324981,-0.625,0.5625,-0.625
1480613049341023,0.0625,-0.0625,-0.375
1480613049371104,-0.5625,0,0.1875
1480613049386144,-0.375,0.25,0.375
1480613049401183,-0.625,0.4375,0.5
1480613049432771,-0.6875,0.375,0.375
1480613049444800,0.0625,0.5,0.3125
1480613049469365,0.5625,0.0625,0.25
1480613049483904,0.1875,-0.3125,0.1875
1480613049504963,0.25,-0.5,0
1480613049521002,0.5625,-0.5,0.0625
1480613049551083,0,-0.375,0.0625
1480613049573642,-0.0625,-0.1875,-0.25
1480613049581163,0.5625,-0.0625,-0.125
1480613049603723,-0.25,-0.0625,-0.375
1480613049626283,-0.0625,0.25,0.0625
1480613049648842,-0.8125,0.25,0
1480613049663886,-0.75,0.375,-0.75
1480613049686945,-0.125,0.25,-1
1480613049709002,-0.375,0.0625,-0.3125
1480613049723541,0.3125,-0.375,-0.125
1480613049746101,1.0625,-0.375,0.1875
1480613049764150,0.375,-0.5625,0.0625
1480613049783702,-0.375,-0.4375,-0.0625
1480613049805761,0,0,-0.1875
1480613049828822,0.4375,-0.0625,0.0625
1480613049843866,0.8125,0,0.0625
1480613049868427,0.0625,-0.3125,0.75
1480613049880961,-0.875,-0.3125,0.625
1480613049903520,0.25,-0.0625,0.125
1480613049926581,0.25,-0.125,0.25
1480613049940621,-0.125,-0.125,0
1480613049964183,0.3125,-0.1875,-0.1875
1480613049986240,0.1875,-0.1875,-0.25
1480613050000278,0.3125,-0.25,-0.5
1480613050023841,0.4375,-0.1875,-0.4375
1480613050046400,-0.1875,-0.125,-0.3125
1480613050060438,-0.5625,-0.125,-0.1875
1480613050089516,-0.1875,-0.25,-0.1875
1480613050107062,0.375,0.125,-0.25
1480613050127116,0.0625,-0.125,0.25
1480613050143659,-0.1875,0.0625,0.375
1480613050173740,0.3125,0.125,0.0625
1480613050187275,0.4375,-0.25,-0.3125
1480613050211344,0.25,-0.5625,-0.3125
1480613050226380,0.625,-0.75,-0.6875
1480613050246934,0.8125,-0.8125,-0.6875
1480613050263478,1.0625,-0.5,-0.5
1480613050286540,0.6875,-0.3125,-0.25
1480613050314614,0.6875,-0.1875,0.25
1480613050323642,1,-0.125,-0.125
1480613050360736,1.3125,-0.125,0
1480613050368758,0.875,-0.375,0.0625
1480613050383798,0.625,-0.375,0.25
1480613050406359,0.3125,-0.125,0.5
1480613050426913,1.1875,0.1875,0.5
1480613050443457,0.8125,0.1875,0.25
1480613050467019,0.3125,-0.25,-0.5
1480613050487074,0.8125,-0.5625,-0.875
1480613050503616,0.5,-0.875,-0.1875
1480613050526176,0.9375,-0.8125,-0.125
1480613050549238,1.875,-1,0.25
1480613050563777,1.3125,-0.875,0.3125
1480613050594860,0.4375,-0.75,0
1480613050608900,0.375,-0.4375,0.1875
1480613050638475,0.25,-0.5625,0.25
1480613050645995,1.375,-0.6875,-0.1875
1480613050670561,1.25,-0.8125,0.875
1480613050683595,0.125,-0.8125,0.75
1480613050706157,0.8125,-0.3125,0.1875
1480613050729217,0.4375,-0.4375,0.125
1480613050743254,0.0625,0,0.125
1480613050773836,0.8125,-0.125,0
1480613050788374,1.0625,-0.125,0
1480613050802914,0.625,-0.25,-0.125
1480613050825974,0.625,0.125,-0.1875
1480613050872598,0.3125,-0.0625,-0.0625
1480613050877110,-0.3125,-0.0625,-0.3125
1480613050886135,-0.0625,0.0625,-0.375
1480613050908694,0.125,-0.0625,-0.1875
1480613050923233,0.3125,-0.1875,0.1875
1480613050953815,-0.3125,-0.25,0.3125
1480613050968854,-0.25,-0.4375,0.375
1480613050982891,-0.0625,-0.375,0.1875
1480613051005953,0.5625,-0.5625,0.0625
1480613051036034,0.8125,-0.625,-0.25
1480613051049569,0.375,-0.8125,-0.0625
1480613051066115,0.75,-0.375,-0.0625
1480613051103212,0.75,-0.25,-0.25
1480613051109729,0.5,-0.3125,-0.0625
1480613051126273,0.8125,-0.3125,-0.125
1480613051148833,0.8125,-0.4375,-0.375
1480613051169889,0.625,-0.1875,-0.125
1480613051185932,-0.3125,0.1875,0.0625
1480613051210998,0.25,0.25,0.0625
1480613051229549,0,0.25,-0.375
1480613051246091,-0.25,0,-1.1875
1480613051268652,-0.25,-0.25,-1.3125
1480613051290209,-1,-0.625,-0.5
1480613051313771,-0.1875,-0.6875,-0.25
1480613051344353,0.8125,-0.5625,-0.0625
1480613051349867,0.6875,-0.4375,-0.3125
1480613051382956,-0.25,-0.5,-0.5
1480613051388472,-0.125,-0.375,-0.625
1480613051418550,-0.25,-0.375,-0.4375
1480613051428578,0.6875,-0.5,-0.125
1480613051448630,0.3125,-0.125,0.75
1480613051471192,-0.3125,-0.3125,0.375
1480613051486230,0.875,0.0625,-0.0625
1480613051516311,0,-0.0625,0.375
1480613051531354,-0.875,0.1875,0.125
1480613051546892,0,-0.125,-0.125
1480613051568449,0.9375,-0.1875,-0.125
1480613051592012,0.0625,-0.25,-0.375
1480613051606056,-0.625,0,-0.125
1480613051634626,-0.25,0.3125,0.0625
1480613051651169,-0.1875,0.375,-0.25
1480613051666712,-0.5625,0.125,-0.125
1480613051694785,-0.375,0.375,-0.625
1480613051718849,-0.8125,0.125,-0.5625
1480613051725366,-1.3125,-0.0625,-0.75
1480613051748929,-0.6875,0,-0.625
1480613051770989,-0.125,0,-0.625
1480613051785527,0.1875,-0.125,-0.6875
1480613051809590,0.0625,0,-0.4375
1480613051837262,0.25,-0.0625,-0.0625
1480613051845687,0.3125,0.0625,0.1875
1480613051868749,0.5,-0.125,-0.0625
1480613051891308,0.9375,-0.125,-0.125
1480613051905347,0.3125,-0.1875,0
1480613051928407,-0.5,0.0625,-0.0625
1480613051983052,-0.1875,-0.0625,-0.125
1480613051988567,-0.6875,0.125,-0.625
1480613051991074,-0.75,0.3125,-1.5
1480613052017143,-0.8125,-0.0625,-1.25
1480613052033687,-1.3125,-0.3125,-0.5625
1480613052048733,-0.4375,-0.25,0.0625
1480613052071289,0.5,-0.125,0.25
1480613052099867,0.25,0,0.0625
1480613052108887,-0.25,0.0625,0
1480613052131948,-0.3125,0,0.3125
1480613052152503,0.25,-0.375,0.5625
1480613052168546,1,-0.1875,0.625
1480613052191106,0.625,-0.1875,1.1875
1480613052212161,-0.5625,-0.1875,1
1480613052236226,0.0625,0.0625,0.9375
1480613052251265,0.3125,0.125,0.75
1480613052272322,0.25,0.1875,0.5625
1480613052302402,0.4375,0,0.1875
1480613052310924,0.25,-0.1875,0
1480613052332984,0.25,-0.125,-0.375
1480613052350029,0.4375,0,-0.25
1480613052371086,0.1875,0.125,-0.125
1480613052392141,0,0.125,-0.125
1480613052408685,-0.0625,0.125,-0.125
1480613052431249,-0.0625,0.1875,0
1480613052453807,-0.4375,0.25,0.4375
1480613052468845,-0.25,0.4375,0.5
1480613052490903,0.25,0.375,0.5625
1480613052513469,-0.25,0.5,0.375
1480613052534519,0.0625,-0.125,0.625
1480613052551063,0.375,-0.0625,0.625
1480613052573623,0.5,-0.1875,0.3125
1480613052589667,0.4375,-0.3125,0
1480613052611224,0.625,-0.375,-0.25
1480613052635287,0.0625,-0.1875,0
1480613052647821,0.5,0.0625,0.375
1480613052671387,0.375,0.3125,0.25
1480613052700962,-0.5,0.0625,-0.25
1480613052717506,-0.375,0.0625,-0.875
1480613052731042,-0.75,-0.1875,-0.8125
1480613052753603,-0.4375,-0.1875,-0.25
1480613052768141,0.75,0,-0.0625
1480613052791202,0.6875,0.0625,0.125
1480613052813762,-0.0625,-0.0625,-0.25
1480613052828301,-0.5625,0,-0.3125
1480613052851362,-0.25,-0.25,-0.3125
1480613052873421,0.3125,-0.0625,-0.5625
1480613052894477,0.5625,-0.125,0.25
1480613052911021,-0.625,-0.25,0.6875
1480613052933581,-0.25,0.125,0.0625
1480613052957147,0.1875,0.125,-0.3125
1480613052977197,-0.4375,0.0625,-0.1875
1480613053001261,-0.375,-0.1875,0.0625
1480613053014797,-0.125,-0.25,0.1875
1480613053038861,0.3125,-0.125,-0.375
1480613053053903,0.625,0.0625,-0.5
1480613053074958,-0.3125,-0.0625,-0.3125
1480613053091000,-1,-0.0625,0.1875
1480613053113560,-0.8125,0.0625,0.25
1480613053136120,0.125,0.1875,0.25
1480613053151160,0.625,0.625,0.125
1480613053182744,0.3125,0.375,0.625
1480613053194776,-0.5,0.125,0.9375
1480613053219341,-0.125,0.1875,0.625
1480613053233880,0.8125,0.125,0.1875
1480613053256001,0.625,0.0625,0.1875
1480613053271044,0.5,-0.3125,0.25
1480613053294605,0.5625,-0.375,0.375
1480613053316161,0.75,-0.375,0
1480613053331203,0.625,-0.3125,-0.0625
1480613053367799,0.0625,-0.3125,-0.3125
1480613053375319,0.6875,-0.0625,-0.4375
1480613053391361,0.125,0.0625,-0.4375
1480613053413420,-0.5625,-0.375,-0.875
1480613053435980,0,-0.125,-1.25
1480613053452022,0.1875,-0.5625,-1
1480613053473582,0.4375,-0.5,-0.625
1480613053496140,1.0625,-0.6875,-0.375
1480613053511181,0.8125,-0.4375,0
1480613053533740,0.4375,-0.375,-0.0625
1480613053556300,0.9375,-0.0625,-0.4375
1480613053577356,0.9375,-0.125,-0.125
1480613053593900,1.0625,-0.1875,-0.0625
1480613053616962,0.6875,-0.3125,0.8125
1480613053630498,0,-0.875,0.9375
1480613053654067,0.6875,-0.625,0.3125
1480613053676119,0.6875,-0.5625,0.0625
1480613053691159,0.0625,-0.3125,0.25
1480613053713719,0.1875,-0.625,0.25
1480613053736279,0.5,-0.625,0.5625
1480613053750316,0.6875,-0.6875,0.1875
1480613053773378,0.5625,-0.5,-0.1875
1480613053797943,0.5625,-0.375,-0.125
1480613053810978,0.375,-0.4375,0.1875
1480613053833539,0.0625,-0.375,0.0625
1480613053856097,0.4375,-0.375,0.3125
1480613053871141,1.3125,-0.25,0.3125
1480613053894700,0.5625,0.125,0.5625
1480613053916258,-0.5625,0,0.6875
1480613053937317,-0.1875,-0.3125,0.625
1480613053967394,0.75,-0.25,0.375
1480613053976418,1,-0.125,-0.0625
1480613053996973,1.0625,-0.125,-0.125
1480613054013516,0.75,-0.5625,-0.125
1480613054036076,0.625,-1.0625,-0.3125
1480613054059138,0.8125,-0.6875,-0.375
1480613054073677,1.1875,-0.5,-0.6875
1480613054103758,0.5,-0.1875,-0.4375
1480613054117292,-0.1875,-0.5,-0.625
1480613054134338,-0.25,-0.3125,-0.8125
1480613054155895,-0.1875,-0.25,-0.4375
1480613054178455,0.1875,-0.125,-0.0625
1480613054193997,0.8125,-0.0625,0
1480613054216055,1.125,-0.25,0
1480613054244631,0,-0.3125,-0.125
1480613054253656,0.3125,-0.375,0.1875
1480613054276219,0.1875,-0.3125,0.4375
1480613054297272,0.75,-0.125,0.125
1480613054313815,0.875,-0.3125,0.5
1480613054335874,-0.4375,-0.6875,0.0625
1480613054382497,0.375,-0.4375,-0.3125
1480613054387010,0.0625,-0.125,0
1480613054396033,-1.0625,-0.125,0.0625
1480613054435138,-0.0625,-0.125,-0.1875
1480613054441659,0.9375,-0.25,-0.125
1480613054462210,0.8125,-0.25,-0.3125
1480613054478754,0.25,0.3125,-0.1875
1480613054501314,-0.0625,0.3125,-0.125
1480613054516353,-0.125,0.3125,-0.1875
1480613054538916,-0.0625,0.3125,-0.125
1480613054553453,-0.125,0.1875,0.125
1480613054576013,-0.0625,0.3125,0.25
1480613054622639,-0.1875,0.375,0.3125
1480613054627149,-0.25,0.3125,0.125
1480613054660237,-0.1875,0.375,0
1480613054673774,-0.0625,0.25,-0.125
1480613054676280,-0.125,-0.375,-0.1875
1480613054696333,-0.125,-0.625,-0.1875
1480613054720397,0.3125,-0.4375,-0.3125
1480613054734435,0.0625,-0.1875,-0.5
1480613054755993,0.375,0.25,-0.1875
1480613054778552,-0.625,-0.125,-0.125
1480613054793090,-1.125,-0.1875,-0.6875
1480613054816152,0.125,-0.0625,-0.6875
1480613054838715,-0.0625,-0.0625,-0.375
1480613054859768,-0.0625,-0.25,0.125
1480613054881826,0.6875,-0.1875,0.3125
1480613054900376,0.1875,-0.0625,0.0625
1480613054926947,-0.1875,0.0625,-0.25
1480613054937475,-0.25,0,-0.375
1480613054959032,-0.0625,-0.0625,-0.375
1480613054980589,0.75,0.125,0.0625
1480613054996130,-0.6875,-0.125,0.625
1480613055018693,-0.75,-0.0625,0.3125
1480613055039747,-0.0625,0.0625,-0.0625
1480613055056291,-0.6875,-0.0625,-0.0625
1480613055079853,-0.625,0.1875,-0.3125
1480613055099910,0.3125,0.1875,0
1480613055116951,0.1875,-0.0625,0
1480613055139012,-0.25,0,-0.0625
1480613055168590,0.125,0.125,-0.3125
1480613055177614,0,0.1875,-0.25
1480613055198676,-0.1875,0.25,-0.1875
1480613055228248,-0.25,0.1875,-0.125
1480613055242287,-0.375,0.125,0.1875
1480613055258835,-0.375,0.25,0.1875
1480613055279885,-0.125,0.25,0.375
1480613055296430,-0.0625,0.3125,0.1875
1480613055318488,-0.125,-0.0625,0
1480613055341051,-0.1875,0,0.25
1480613055356090,-0.0625,0.0625,0.0625
1480613055380152,0.5625,-0.125,0
1480613055408733,0.1875,-0.125,0
1480613055416248,0.0625,-0.0625,-0.125
1480613055445827,-0.5625,0.0625,-0.0625
1480613055460867,-0.4375,0.1875,-0.625
1480613055475405,0.1875,0.125,-0.875
1480613055498467,-0.5,-0.3125,-0.375
1480613055521528,-0.3125,-0.4375,0.25
1480613055542082,0.625,-0.3125,0.4375
1480613055558627,0.5,-0.125,0.375
1480613055589709,-0.25,-0.0625,0.1875
1480613055595726,0,-0.0625,0.0625
1480613055618788,0.375,0,0
1480613055641350,0.6875,0.125,0.0625
1480613055655385,-0.0625,0,0.6875
1480613055687470,-0.75,-0.125,0.625
1480613055702011,0.4375,0.125,-0.0625
1480613055723566,0.375,0.1875,-0.125
1480613055738606,-0.3125,0.0625,0
1480613055762168,0.125,-0.125,-0.375
1480613055775707,0.625,-0.25,-0.4375
1480613055798767,0.25,0.0625,-0.75
1480613055822330,0.6875,0.375,-0.6875
1480613055849901,0,0.6875,-0.25
1480613055858424,-0.125,0.4375,-0.1875
1480613055881988,1.625,0.625,0.125
1480613055920089,2.1875,1.25,-0.125
1480613055923599,0.8125,0.75,0.0625
1480613055966212,2.25,0.6875,1.25
1480613055971726,2.8125,0.875,1.25
1480613055991779,0.6875,1.1875,1.0625
1480613056003311,1.25,1,0.4375
1480613056029891,1.125,0.5625,0
1480613056044420,0.875,-0.125,0.125
1480613056061466,0.4375,-0.1875,0
1480613056082020,-0.25,-0.4375,-0.0625
1480613056100569,-0.25,-0.125,-0.75
1480613056121124,-1.0625,-0.4375,-1.375
1480613056142182,-0.8125,-0.9375,-1.5
1480613056158723,-1.1875,-0.875,-0.6875
1480613056187802,-0.875,-1,-0.0625
1480613056202340,0.75,-1.125,0.125
1480613056226404,1.25,-1.375,0.25
1480613056241446,0.75,-1.3125,0.25
1480613056263502,0.25,-1,0.375
1480613056280046,-0.125,-1,0.625
1480613056309624,0.5625,-0.875,0.5
1480613056323662,1.6875,-0.375,0.8125
1480613056338201,0.0625,-0.75,1
1480613056361262,-0.5,-0.875,0.8125
1480613056383822,0.5625,-0.9375,0.75
1480613056397860,-0.4375,-1.1875,0.625
1480613056420922,0.125,-1.1875,0.625
1480613056443482,0.6875,-0.9375,0.25
1480613056467043,0.375,-0.6875,0
1480613056481582,0.75,-1,-0.375
1480613056520185,1.1875,-1.0625,-0.25
1480613056524696,0.375,-0.9375,-0.125
1480613056541241,0.1875,-0.75,0.25
1480613056564808,0.6875,-0.75,0.3125
1480613056584857,0.5,-0.5,0.3125
1480613056601401,0.5625,-0.625,0.375
1480613056623459,0.125,-0.6875,0.5625
1480613056645520,-0.1875,-0.75,0.875
1480613056647022,0.25,-0.625,0.6875
1480613056666577,0.4375,-1.0625,0.6875
1480613056689134,0.875,-0.875,-0.375
1480613056705678,-2.125,0.125,0.6875
1480613056726234,0.6875,0.875,0.25
1480613056750297,2.4375,1.375,0.5
1480613056771354,0.25,1.3125,0.375
1480613056789401,0.25,0.6875,-0.1875
1480613056808953,-0.5625,0.9375,-0.375
1480613056827001,-1.1875,1,-0.125
1480613056846553,0.0625,1.25,-0.125
1480613056869616,0.1875,0.625,-0.125
1480613056887163,0,0.25,0.1875
1480613056906713,-0.875,0.0625,-0.125
1480613056928772,-0.25,0.3125,-0.5
1480613056978404,0.0625,0.3125,-0.625
1480613056984420,-0.375,0.25,-0.75
1480613056988932,-0.625,0.25,0.375
1480613057030042,-1.875,0,0.1875
1480613057034052,0.0625,0.8125,-0.1875
1480613057065639,0.1875,0.5625,-0.375
1480613057071652,-1.5,0.3125,-0.3125
1480613057094212,-1.8125,0.3125,-0.25
1480613057109253,-0.25,0.3125,-0.4375
1480613057140335,-0.125,0.4375,-0.4375
1480613057146351,0,0.5,-0.5625
1480613057169914,-0.3125,0.5,-0.375
1480613057191470,0.0625,0.625,0.125
1480613057206511,0.375,1.375,-0.0625
1480613057254639,-0.375,0.9375,-0.25
1480613057257145,0.6875,0.9375,0.375
1480613057266673,1.3125,1.0625,0.375
1480613057291737,-0.375,0.8125,0.3125
1480613057311291,0.25,1.0625,0.6875
1480613057326329,1.8125,1,0.625
1480613057348889,0.6875,0.4375,0.6875
1480613057371450,0.0625,0.3125,0.8125
1480613057386491,0.75,0.5625,0.5625
1480613057416569,-0.625,0.125,0
1480613057431611,-1.25,-0.25,0.125
1480613057446650,-0.8125,-0.25,-0.625
1480613057469209,-1.4375,-0.125,-1.125
1480613057491770,-1.875,-0.3125,-1.6875
1480613057532381,-1.75,-0.125,-2.1875
1480613057536389,-1.75,-0.375,-1.75
1480613057551429,-1.5625,-1.0625,-1.25
1480613057576998,-0.5625,-1.25,-0.8125
1480613057589028,0.5625,-0.875,-0.625
1480613057611588,0.5,-0.1875,-0.625
1480613057629136,-0.25,-0.1875,-0.375
1480613057649188,-0.125,-0.125,0.25
1480613057671750,0,-0.375,0.5
1480613057687791,0.8125,-0.25,0.6875
1480613057716367,0.25,-0.3125,0.8125
1480613057731410,-0.4375,-0.375,0.3125
1480613057765498,-0.5625,-0.625,0.1875
1480613057771016,-0.6875,-0.875,0.3125
1480613057791568,-0.6875,-0.875,0.0625
1480613057809616,0.5,-0.75,-0.0625
1480613057829168,0.5625,-0.875,-0.3125
1480613057853232,-0.125,-1,-0.6875
1480613057868271,-0.125,-0.875,-0.4375
1480613057897852,0.375,-0.0625,-0.5625
1480613057911386,0.375,0.3125,-0.25
1480613057927931,0.375,0.375,0.125
1480613057948986,0.5,0.5,0.4375
1480613057974554,0.4375,0.5,1.0625
1480613057988090,0.3125,0.375,1.125
1480613058009146,1.0625,0.8125,0.5
1480613058041233,0.8125,1,0.5
1480613058047749,-0.5,0.625,0.25
1480613058088356,0.0625,0.1875,0.375
1480613058095375,0.6875,-0.0625,0.0625
1480613058107910,0.625,-0.3125,-0.125
1480613058128965,0.1875,-0.3125,-0.1875
1480613058151527,-0.625,-1.1875,0.25
1480613058175589,1.1875,-1.625,0
1480613058189125,2.3125,-1.5625,-3
1480613058211685,-3.625,-0.25,0.625
1480613058229232,-0.5625,-0.125,-0.5625
1480613058250288,2.3125,1.375,-1.125
1480613058271345,-0.4375,0.75,-1.125
1480613058309445,1.625,1.1875,-2
1480613058319473,-1.5,1,-0.0625
1480613058365094,-3.375,0.4375,0.6875
1480613058368603,2,1.0625,0.375
1480613058372113,2.0625,0.625,0.5625
1480613058391664,-0.3125,0.625,0.5625
1480613058414224,0.25,0.75,0.5
1480613058429265,-0.375,0.5625,0.1875
1480613058451322,0,0.75,-0.5
1480613058475387,1.3125,0.8125,-0.4375
1480613058496443,-0.6875,0.3125,0.125
1480613058511482,-0.375,0.25,-0.1875
1480613058534043,-0.0625,0.25,-0.5
1480613058549083,-1.3125,0.3125,-0.5625
1480613058571643,-0.75,0.8125,-1.3125
1480613058597213,0,0.5625,-0.875
1480613058609243,0.25,0.125,-1.25
1480613058632805,-0.1875,-0.1875,-0.875
1480613058653865,-0.8125,0.125,-0.6875
1480613058668901,-0.3125,0.25,-0.1875
1480613058691461,0.125,0.1875,-0.1875
1480613058714021,0.4375,0.4375,-0.0625
1480613058729061,0.1875,0.3125,0.125
1480613058751622,-0.25,0.3125,0.4375
1480613058774182,0.125,0.4375,0.625
1480613058790727,0.375,0.25,0.625
1480613058821808,0.0625,0.3125,0.5625
1480613058833840,-0.125,0.0625,0.375
1480613058850384,0.375,0.0625,0.0625
1480613058874450,1.1875,0.1875,0
1480613058894001,0.25,-0.0625,-0.0625
1480613058918065,-0.3125,-0.125,0.125
1480613058931607,-0.1875,-0.0625,-0.1875
1480613058955665,-0.3125,-0.125,-0.5
1480613058970705,-0.1875,-0.4375,-0.375
1480613058991761,-0.3125,-0.5625,0.0625
1480613059014822,-0.3125,-0.5625,0.25
1480613059030364,-0.375,-0.25,0.4375
1480613059051420,0,-0.0625,0.5
1480613059081499,-0.0625,0.0625,0.1875
1480613059100551,-1.0625,-0.125,0.125
1480613059113083,-0.1875,-0.0625,-0.6875
1480613059151184,-0.3125,-0.125,-0.6875
1480613059155697,-0.125,-0.5625,-0.4375
1480613059171238,1.3125,-0.75,-0.625
1480613059193797,0.25,-1.1875,-0.375
1480613059214353,-0.25,-0.6875,-0.5625
1480613059231398,0.625,-0.3125,-0.25
1480613059253958,0.875,0.0625,-0.375
1480613059272006,0.625,-0.1875,-0.125
1480613059291558,1,-0.25,-0.25
1480613059321637,0.0625,-0.5,0.3125
1480613059332166,-1.375,-0.5,-0.0625
1480613059359238,-0.1875,-0.4375,0.1875
1480613059373777,0.3125,-0.125,0.125
1480613059394832,0.375,0.25,0.0625
1480613059418898,1.4375,0.125,-0.5
1480613059433938,1.375,-0.4375,0
1480613059456497,-1.1875,-0.75,0.375
1480613059471538,-0.75,-0.8125,0
1480613059494097,0.875,-0.625,-0.25
1480613059519666,0.375,-1.25,-0.25
1480613059531699,-1.125,-1.5,0.6875
1480613059554257,0.375,-2,1.25
1480613059588348,1.4375,-1.75,-0.1875
1480613059592859,-3.8125,-1.0625,0.5
1480613059613916,0.125,-0.1875,0.625
1480613059639484,2,0,0.75
1480613059652521,-0.1875,-0.3125,0.625
1480613059674075,1.5625,0.0625,0.625
1480613059706161,1.0625,0.0625,0.0625
1480613059713179,0.0625,0.5,0.4375
1480613059745266,1.0625,0.9375,-0.3125
1480613059751782,1.5,0.8125,-0.5
1480613059772839,-0.0625,0.375,-0.4375
1480613059793894,0.25,0.625,-0.6875
1480613059811943,0.9375,0.75,-0.5
1480613059832999,-0.125,0.375,-0.5625
1480613059854054,0.0625,0.5,-0.4375
1480613059872102,0.25,0.3125,-0.375
1480613059893159,-0.1875,0.375,-0.3125
1480613059915718,0.375,0.1875,-0.375
1480613059944796,-0.25,0.375,-0.8125
1480613059952818,-0.0625,0.125,-0.9375
1480613059974876,-0.5,-0.0625,-0.0625
1480613060004454,0,-0.1875,0.5625
1480613060012977,1.5,-0.4375,0.375
1480613060034033,1.3125,-0.25,0.625
1480613060056593,0.5,-0.3125,0.0625
1480613060074641,-0.0625,-0.3125,0.5625
1480613060095697,-0.5625,-0.5625,0.75
1480613060116753,0,-0.0625,0.5625
1480613060134300,0.5625,0.125,0.6875
1480613060153852,-0.375,0.1875,0.5
1480613060176412,-0.3125,0.3125,-0.0625
1480613060207996,-1.3125,-0.125,-0.0625
1480613060214014,-1.25,-0.125,-0.5625
1480613060236573,-0.125,-0.125,-1
1480613060259633,0.25,-0.3125,-1
1480613060274172,-0.75,-0.5625,-1.0625
1480613060306760,-0.625,-0.4375,-1
1480613060314279,-0.25,-0.4375,-0.9375
1480613060341351,-1,-0.625,-0.5625
1480613060356391,0.125,-0.75,-1
1480613060376444,-0.5,-0.6875,-1.4375
1480613060393991,-3.4375,-0.3125,-0.0625
1480613060416550,0.0625,0.3125,-0.25
1480613060440615,1.625,0.8125,0.1875
1480613060457159,0.6875,1.3125,0.25
1480613060493756,-0.0625,0.9375,0.4375
1480613060495761,-0.75,0.75,0.6875
1480613060530354,0,0.4375,0.5625
1480613060536374,2,0.5,0.375
1480613060554418,1.375,0.5,0.125
1480613060573969,-0.3125,0.1875,0.5
1480613060596529,-0.375,0.375,0.5
1480613060615580,-0.375,0.5,0.3125
1480613060634130,0.375,0.4375,-0.0625
1480613060665214,-0.125,0.5,-0.4375
1480613060674237,-1.1875,0.375,-0.625
1480613060696797,-0.9375,0.3125,-0.875
1480613060716348,-0.5,0,-0.25
1480613060734398,-0.5625,-0.125,-0.375
1480613060762973,0.5,-0.375,0
1480613060777511,1.0625,-0.125,-0.0625
1480613060807089,-0.125,-0.3125,-0.0625
1480613060815613,-0.375,-0.3125,0
1480613060844188,-0.25,-0.125,0.1875
1480613060858727,-0.125,-0.0625,0.4375
1480613060875271,0.6875,0,0.5625
1480613060896327,-0.5,-0.375,0.625
1480613060914375,-0.1875,-0.4375,0.375
1480613060935933,-0.3125,-0.375,0.25
1480613060956487,-1.0625,-0.125,0.375
1480613060980551,0.5625,0.25,0.0625
1480613060997599,0.4375,0,-0.125
1480613061016647,-0.5625,-0.375,-0.3125
1480613061046727,-0.0625,-0.4375,-0.3125
1480613061056754,0,-0.3125,-0.125
1480613061083825,-0.0625,-0.125,-0.1875
1480613061094354,0.0625,-0.5,-0.0625
1480613061130450,1.0625,-0.3125,0.375
1480613061136468,2.125,0.125,0.8125
1480613061155517,1.4375,0.5625,1.25
1480613061179148,1.4375,0.75,1.5625
1480613061196695,0.9375,0.625,1.9375
1480613061220758,0,0.375,1.75
1480613061236802,0.5,0.0625,1.5
1480613061256353,0.125,-0.125,1.1875
1480613061274402,-0.9375,-0.125,0.875
1480613061304984,-1,-0.125,0.5625
1480613061316513,-2.25,-0.625,-0.3125
1480613061339074,-1.6875,-1.25,-1
1480613061361634,-0.6875,-1.1875,-1.875
1480613061376673,-1.6875,-1.375,-1.75
1480613061399234,-0.75,-1.375,-1.3125
1480613061417281,-0.75,-1.1875,-1.9375
1480613061445356,-1.8125,-0.4375,-2.5625
1480613061458892,0,1.4375,-1.5
1480613061476940,2.25,1.8125,-1.375
1480613061504013,2.125,1.9375,-0.8125
1480613061519053,1.375,1,0.625
1480613061537101,0.6875,0.5625,0.625
1480613061558157,-0.5625,0.9375,1.0625
1480613061581719,0.3125,1.125,0.125
1480613061596759,0.9375,0.5625,0.125
1480613061617815,0.9375,0,0.25
1480613061649399,0,-0.25,0.8125
1480613061658423,-0.625,-0.125,0.5
1480613061677975,0.0625,-0.0625,-0.0625
1480613061706551,0.125,-0.125,-0.1875
1480613061717079,0,-0.5625,-0.125
1480613061739639,0.125,-0.5625,-0.375
1480613061759191,0.1875,-0.6875,-0.6875
1480613061782753,0.0625,-0.5625,-0.8125
1480613061797795,0.375,-0.5625,-0.75
1480613061827874,-0.1875,-0.4375,-0.0625
1480613061837900,-0.0625,-0.25,-0.0625
1480613061872993,0.4375,0.25,0
1480613061879010,0.4375,0.125,0.3125
1480613061909591,0.1875,0.0625,0.5625
1480613061918114,-0.125,0.0625,0.25
1480613061939173,-0.1875,0.5,0.4375
1480613061971757,0.375,0.25,0.3125
1480613061979276,0.6875,0.0625,0.3125
1480613061999836,0.6875,-0.125,0.125
1480613062016877,0.625,0,0.125
1480613062039938,0.6875,0.125,0
1480613062069519,1.3125,-0.125,0.4375
1480613062077538,1.75,-0.1875,0.3125
1480613062100099,1.625,0,0.375
1480613062121655,1.6875,0.25,0.9375
1480613062136696,2.4375,0.625,1.5
1480613062163768,1,0.5625,2.1875
1480613062178807,0.6875,-0.125,1.625
1480613062204376,2.125,-0.0625,1.125
1480613062219417,0.5,-0.6875,1.25
1480613062238968,-1.4375,-0.875,1.25
1480613062257017,-1,-1.1875,0.75
1480613062279576,0,-1.75,-0.125
1480613062299628,0.5,-1.75,-1
1480613062316674,-0.8125,-1.9375,-1.4375
1480613062339235,-3,-2.25,-1.3125
1480613062359288,-2.25,-2,-1.5625
1480613062376834,-0.1875,-1.625,-1.0625
1480613062415938,-0.5625,-1.25,-0.8125
1480613062420450,-0.8125,-0.875,-1.1875
1480613062436994,-1.1875,-0.75,-0.875
1480613062460056,-0.25,-0.625,-0.625
1480613062482114,0.6875,-0.3125,-0.25
1480613062501667,0,-0.5,0.1875
1480613062525229,-0.3125,-0.5,0.625
1480613062549293,0.3125,-0.0625,0.1875
1480613062561325,0.3125,-0.125,0.5
1480613062580376,0.875,-0.25,-0.1875
1480613062617475,-0.5,0,-1.125
1480613062621485,-0.75,-0.375,-1.8125
1480613062639534,0.25,-0.6875,-2
1480613062669616,0.5625,-1.9375,-1.9375
1480613062689165,-0.375,-2.3125,-1
1480613062700200,0.5,-1.9375,-0.625
1480613062720247,1.5,-0.25,-0.6875
1480613062736793,1.6875,0.125,-0.875
1480613062759352,0.75,-0.25,-0.3125
1480613062780408,-0.125,-0.9375,0.25
1480613062796952,0.875,-1,0.625
1480613062820013,0.9375,-1.0625,0.875
1480613062840569,1.125,-0.125,0.5625
1480613062861624,1,0.125,0.625
1480613062894211,0.6875,0.125,0.1875
1480613062901731,-0.375,-0.5,-0.0625
1480613062926296,-0.375,-0.4375,0.4375
1480613062940334,0.25,-0.4375,0.1875
1480613062975426,0.75,-0.375,0.1875
1480613062981442,0.5625,-0.625,-0.25
1480613062999492,-0.25,-0.4375,-0.625
1480613063027064,0,-0.75,-0.8125
1480613063044110,-0.3125,-0.6875,-1.1875
1480613063059651,-0.4375,-0.25,-1.1875
1480613063081710,-1.25,-0.5,-0.5
1480613063101262,-1.125,-0.5,-1
1480613063123821,0.125,-0.5625,-0.9375
1480613063141872,-0.75,-0.5625,-0.625
1480613063170447,-1.8125,-0.3125,-0.9375
1480613063179471,-0.25,-0.125,-0.6875
1480613063202531,0.6875,0.125,-0.625
1480613063221582,-0.5625,-0.0625,-0.4375
1480613063246648,-0.875,-0.125,-0.3125
1480613063269208,0.125,0,-0.625
1480613063289763,-0.125,0.0625,-0.5625
1480613063299291,-1.3125,-0.3125,-0.5
1480613063321849,-1.625,-0.1875,-1.0625
1480613063341400,-1,0.5625,-2.125
1480613063359448,-0.4375,0.5,-1.75
1480613063382008,-0.8125,0.125,-1.5
1480613063401560,0.375,0.5625,-2.1875
1480613063418605,2.6875,0.9375,-2.875
1480613063449689,2.6875,0.8125,-3
1480613063462724,0.875,1.0625,-2.3125
1480613063484280,0.8125,1.3125,-2
1480613063502329,2.25,1.9375,-2
1480613063524387,1.8125,1.625,-2.0625
1480613063545944,0.75,1,-1.875
1480613063562990,-0.125,0.625,-1
1480613063589563,-0.4375,-0.0625,0.1875
1480613063598587,0.5625,0.0625,0.5
1480613063621148,0.75,-0.125,0.9375
1480613063642201,-0.3125,-0.9375,1.1875
1480613063658745,-0.0625,-1.625,1
1480613063681806,0.5,-1.625,0.6875
1480613063702366,-0.3125,-2.125,0.625
1480613063724421,0.6875,-2.0625,1.3125
1480613063740963,0.875,-1.875,2
1480613063764527,0.875,-1.5625,1.9375
1480613063785080,2.125,-1.5625,1.75
1480613063826695,0.6875,-1.5625,1.875
1480613063830702,-0.5,-1.3125,1.875
1480613063838724,1,-0.625,1.4375
1480613063868804,0.8125,-0.8125,1.3125
1480613063883843,-0.375,-0.5625,1.3125
1480613063898383,-0.5625,-0.125,0.8125
1480613063920943,-1.4375,-0.1875,-0.125
1480613063943502,-1.4375,-0.4375,-0.625
1480613063958041,-1.375,-0.5,-0.8125
1480613063981103,-2.375,-0.5625,-0.6875
1480613064003678,-2.3125,-0.1875,-0.875
1480613064024217,-1.5,-0.25,-1.5625
1480613064057304,-1.25,-0.5,-1.8125
1480613064063823,-1,-0.75,-1.5625
1480613064102425,-1.4375,-1.0625,-1.125
1480613064106937,-1,-0.875,-0.875
1480613064123983,-0.1875,-0.5625,-0.9375
1480613064138020,-0.3125,-0.5,-1.0625
1480613064161081,-0.375,-0.5625,-0.6875
1480613064183641,-0.5,-0.75,-0.8125
1480613064198199,-0.875,-0.625,-1.5
1480613064221242,-1.1875,-0.75,-1.1875
1480613064243802,-0.3125,-1.125,-0.6875
1480613064257838,0,-1.25,-0.5625
1480613064280899,-0.1875,-1.1875,0
1480613064303461,-0.375,-1.25,0.3125
1480613064317998,-0.1875,-1,0.25
1480613064354597,-0.5625,-0.5,0.25
1480613064380665,-0.1875,-0.375,0.1875
1480613064386181,0.25,-0.4375,0.5625
1480613064424783,0.3125,-0.75,0.625
1480613064429796,0,-0.5625,0.1875
1480613064444836,0.0625,-0.125,0.4375
1480613064460879,-1.0625,-0.1875,0.25
1480613064483439,-0.3125,-0.125,0.625
1480613064504495,0.6875,-0.0625,0.625
1480613064521039,0.0625,0,0.625
1480613064544100,0,0.3125,0.375
1480613064564655,0.375,0.5625,0.3125
1480613064581199,0.625,0.3125,0.3125
1480613064603259,0.5,-0.25,0.3125
1480613064656400,-0.0625,0.1875,0.625
1480613064659909,0.375,0.375,0.625
1480613064664921,0.375,0.625,0.625
1480613064693999,0.25,0.1875,0.5625
1480613064703541,-0.375,-0.25,0.625
1480613064724079,-0.5625,-0.125,0.5625
1480613064746137,0.0625,-0.0625,0.4375
1480613064761179,0.0625,-0.125,0.3125
1480613064783739,-0.9375,-0.5,0.125
1480613064806298,-0.5625,-0.75,0.0625
1480613064820837,0,-0.625,0
1480613064843397,-0.125,-1.125,-0.875
1480613064865957,-0.125,-1.9375,-0.875
1480613064887015,-0.375,-3.3125,-0.25
1480613064919599,2.5625,-2.6875,-0.5
1480613064935141,-1.375,-1.9375,-1.25
1480613064940657,-2.375,-0.0625,0.6875
1480613064976975,0.5625,0.625,1.875
1480613064986000,-1.5,0.375,0.9375
1480613065000539,-1.6875,0.1875,1.625
1480613065023600,2.375,1.6875,0.625
1480613065046160,-1.0625,1.0625,0.9375
1480613065062203,-3.6875,0.125,0.5625
1480613065083762,1.0625,-0.125,-0.5625
1480613065114341,-0.3125,-1.125,-0.6875
1480613065120358,-2.3125,-2,-0.125
1480613065143920,-0.1875,-0.75,0.75
1480613065166983,0.3125,0.8125,0.75
1480613065188543,-0.375,1.4375,0.625
1480613065205083,-0.875,1.0625,0.3125
1480613065226138,-1.125,-0.5,0.625
1480613065256219,-1.875,-0.75,0.875
1480613065263739,-0.125,0.5,0.625
1480613065287302,0.1875,1.5,0.3125
1480613065307856,-2,0.5625,0.3125
1480613065323397,-1.75,0,0.125
1480613065346960,-0.0625,-0.6875,0.375
1480613065367013,-0.1875,-0.4375,0.5625
1480613065398603,-0.125,0.125,0.875
1480613065406120,1.6875,-0.1875,0.5625
1480613065436701,1.3125,0.0625,0.625
1480613065443717,0.4375,-0.4375,0.875
1480613065473798,0.375,0,0.375
1480613065487334,-0.375,-0.0625,-0.375
1480613065503386,-1.125,-0.375,-1.1875
1480613065525936,-0.75,-0.8125,-1.4375
1480613065546992,-0.75,-1,-0.875
1480613065580581,0,-0.3125,-0.25
1480613065586097,1.875,0.9375,-0.4375
1480613065607152,1.5625,0.8125,-0.6875
1480613065623697,0.8125,0.875,-0.875
1480613065646257,-0.25,1.5,-1.5625
1480613065674835,-0.8125,1.0625,-1.125
1480613065699400,0.0625,0.375,-0.75
1480613065720456,0.1875,0.6875,0.875
1480613065727974,-0.6875,1.0625,1.0625
1480613065744518,2.9375,1.5625,0.5
1480613065766075,2.75,1,0.5
1480613065789137,-0.6875,-0.1875,0.125
1480613065803676,0,-0.375,-0.5
1480613065826235,1.1875,-0.75,-0.0625
1480613065848798,1.0625,-0.3125,0.4375
1480613065864840,1,-0.75,0.625
1480613065887402,0.9375,-0.75,1.3125
1480613065908453,1.1875,-0.5,1.25
1480613065922992,0.9375,0.0625,1.5625
1480613065947561,0.75,-0.375,1.5
1480613065969617,1.3125,-1.125,1.375
1480613065991174,1.875,-1,0.3125
1480613066006214,-1.0625,-0.6875,-0.3125
1480613066036295,-1.1875,-0.5625,-1.0625
1480613066042811,0.3125,-1.3125,-1
1480613066066876,0.875,-1.5625,-0.6875
1480613066089436,0.5625,-1.3125,-0.3125
1480613066103475,0.5625,-0.875,-0.25
1480613066132053,1,-0.75,-0.625
1480613066149094,1.25,-0.5,-0.5
1480613066163633,0.6875,-0.9375,0.0625
1480613066186194,0.25,-1.25,0.6875
1480613066222790,0.125,-1.8125,0.9375
1480613066229810,3.25,-3.8125,0.4375
1480613066245852,4.8125,-3.5,-2.1875
1480613066268913,-1.625,-1.125,1.75
1480613066296988,0,-1.125,1.9375
1480613066306013,-0.6875,0.5,0.5
1480613066328571,0.3125,0.3125,1.6875
1480613066357149,1.625,-0.1875,-0.4375
1480613066372190,-0.5,-0.875,0.6875
1480613066388736,-0.6875,-0.0625,0.75
1480613066409787,0.3125,0.375,0.0625
1480613066426331,0.3125,0.5,0.6875
1480613066462929,0.5,-0.3125,0.3125
1480613066469447,0.375,-0.125,0
1480613066502033,0.75,-0.3125,0.25
1480613066508551,3.25,0.4375,-1.9375
1480613066530108,0.5625,-0.625,-2.625
1480613066546652,1.0625,1.1875,-3.9375
1480613066574726,2,1.75,-2.375
1480613066589766,-2.25,1.4375,-1
1480613066606310,0.3125,2.1875,0.1875
1480613066628369,0.625,2.0625,3.125
1480613066649425,3.4375,2.5625,3
1480613066665981,0.9375,3.3125,2.3125
1480613066688530,-0.125,2.5625,2.125
1480613066726630,0.6875,2.4375,0.875
1480613066735655,-0.3125,1.5625,0.6875
1480613066748689,0.5625,1.5,0.5625
1480613066771250,1.125,0.9375,-0.8125
1480613066787293,0.625,0.8125,-1.0625
1480613066808348,0.125,1.0625,-1
1480613066830909,-0.0625,0.4375,-0.375
1480613066853469,0.125,0.0625,0.375
1480613066869511,0.6875,-0.0625,0.125
1480613066891570,1.6875,0.5625,0.4375
1480613066913629,0.4375,0.8125,0.3125
1480613066928668,-0.8125,0.5625,0.625
1480613066951228,0.0625,0.25,0.8125
1480613066965266,0.625,0.25,1.3125
1480613067010887,0.0625,0.625,0.625
1480613067016904,-0.25,0.6875,0.5
1480613067025426,0.6875,0.9375,0.625
1480613067054517,0.6875,1,0.75
1480613067071062,-0.5625,1.1875,0.5
1480613067086604,-0.1875,2.0625,0.375
1480613067110165,0.3125,1.8125,0
1480613067131727,0.6875,1.5625,0.1875
1480613067145259,1.25,0.9375,0.125
1480613067168319,0.5625,1.1875,0.1875
1480613067191381,-0.3125,0.9375,-0.0625
1480613067213439,0.25,0.5,-0.0625
1480613067245023,0.625,0.375,0.375
1480613067251039,0.875,0.75,0.125
1480613067287640,0.4375,0.875,0.125
1480613067296159,0.3125,0.4375,-0.0625
1480613067311199,0.6875,0.1875,0.3125
1480613067332255,1.125,-0.0625,0.625
1480613067348299,0.875,0.4375,0.375
1480613067370861,0.75,0.3125,0
1480613067391914,-0.25,-0.125,0.1875
1480613067421995,-0.75,-0.4375,-0.625
1480613067431019,0.0625,-0.4375,-0.6875
1480613067476639,0.0625,-0.8125,-0.5625
1480613067479146,-0.0625,-1.25,0
1480613067491179,0.8125,-1.25,0.625
1480613067519758,0.1875,-1,0.4375
1480613067528778,-0.5,-1.4375,0.4375
1480613067551340,0.9375,-1.625,0.75
1480613067572896,0.875,-1.9375,0.875
1480613067588439,0.375,-1.6875,0.3125
1480613067610997,0.25,-1.3125,0.625
1480613067640075,-0.1875,-0.5625,-0.1875
1480613067650101,0,-0.375,0
1480613067671659,-0.9375,-0.8125,0.0625
1480613067694719,0.3125,-0.25,0.375
1480613067708757,1,0.6875,1
1480613067731319,0,1,1.375
1480613067753377,1.5625,0.625,-0.1875
1480613067769420,1.6875,0.125,-1.5625
1480613067798496,-0.625,-0.625,-1.5
1480613067814037,-0.0625,-1.6875,-0.5
1480613067843616,0.625,-0.625,-0.375
1480613067851136,-0.375,0.375,-0.375
1480613067881717,-0.6875,0.75,-0.9375
1480613067889238,-0.0625,0.25,-0.125
1480613067911296,0.375,-1.0625,0.625
1480613067933355,-0.6875,-1.3125,0.9375
1480613067947893,0.125,-1.125,0.5
1480613067979478,0.3125,-1,-0.1875
1480613067994016,-0.75,-1.375,0
1480613068008053,-1.375,-1.875,-0.3125
1480613068039138,-0.3125,-2.0625,0.25
1480613068054179,-1.0625,-1.875,1.25
1480613068074731,1.125,-1.125,0.5
1480613068091777,-1.1875,-1.5625,-2.375
1480613068114336,-3.625,-1.1875,-2.625
1480613068135894,0.3125,-1.1875,-3.5
1480613068165975,-0.75,-1.25,-2.25
1480613068174500,-2,-0.125,-0.0625
1480613068195051,0.75,1.4375,0.3125
1480613068211093,3.4375,1,0.9375
1480613068249196,3.0625,1.5,0.5625
1480613068254710,1.5,2.5,-0.3125
1480613068271256,0.375,3.375,-0.625
1480613068307852,1.5,0.8125,0.25
1480613068314869,2.625,-3.25,-0.375
1480613068345953,10.0625,-2.75,-4.625
1480613068354976,4.8125,2.9375,1
1480613068374528,-0.1875,2.5,3.25
1480613068391574,-5.875,-0.5,1.0625
1480613068413632,-3.3125,-5.75,-0.9375
1480613068435189,16.3125,-2.5625,-4.375
1480613068451233,9.125,0,-3.625
1480613068473793,-4.4375,1.4375,0
1480613068497366,-4.3125,1.9375,2.9375
1480613068517408,-1.25,2.5625,3.25
1480613068533452,-2.5625,2.4375,4.6875
1480613068554509,0.25,2.5,3.375
1480613068585088,-2.125,3.1875,0.625
1480613068595617,-1.3125,3.1875,-0.375
1480613068631712,4.125,3.1875,-0.25
1480613068634220,1.125,2.8125,0.125
1480613068653772,-0.6875,2.625,0.75
1480613068676334,-1.375,1.875,0.4375
1480613068690869,-0.5,1.25,0.0625
1480613068713430,2.0625,0.5625,0.8125
1480613068735991,1.1875,-0.4375,1.0625
1480613068759051,-0.4375,-0.875,1.375
1480613068773591,-1.25,-0.9375,0.625
1480613068797153,-0.75,-0.9375,0.5
1480613068810187,-0.5,-1.5,1.25
1480613068833750,0.6875,-2.375,2.375
1480613068866338,2.125,-2.9375,0.875
1480613068871852,-2.4375,-1.125,-1.25
1480613068901431,-3.125,0.125,-2.1875
1480613068916971,1.625,-0.9375,-2.1875
1480613068931510,0.6875,-4,-0.4375
1480613068953569,-1.6875,-3.125,0.5625
1480613068976630,0.625,0.25,0.5
1480613068990166,-1.25,2.125,-0.3125
1480613069013729,-2.75,2,0.1875
1480613069036292,-0.875,1.125,1.125
1480613069051830,0.75,1.25,1.8125
1480613069081910,1.75,1.3125,2.3125
1480613069096951,0.6875,0.6875,0.9375
1480613069124524,-1.6875,-0.0625,0.25
1480613069141068,-2.375,-0.875,-0.3125
1480613069156108,0.8125,-0.125,-0.1875
1480613069186187,0.5,0.8125,-0.5625
1480613069193708,-0.5625,0.875,-1.5625
1480613069218274,-1.4375,-0.1875,-0.375
1480613069237325,0.1875,-1.125,-0.9375
1480613069253366,-1.25,-0.1875,0.125
1480613069275926,-1.375,1.125,0.625
1480613069296983,0.875,2.625,0
1480613069313526,-0.125,2.4375,0.25
1480613069336087,0,2.5,-0.5
1480613069369174,-0.25,2.1875,-0.8125
1480613069375692,-0.625,2,-0.625
1480613069397252,-0.0625,2.375,-1.375
1480613069417304,0.6875,2.5,-1.25
1480613069433346,-0.625,1.875,-1.75
1480613069463425,-0.375,0.6875,-2.25
1480613069476960,0.75,-0.0625,-2.0625
1480613069501025,1.5,-0.125,-1.5
1480613069516066,1.25,-0.125,-0.75
1480613069538625,0.375,-0.125,0.1875
1480613069553665,0.1875,-0.1875,0.6875
1480613069576225,2.0625,-0.1875,0.4375
1480613069598786,2.5,-0.1875,0.6875
1480613069613324,-0.1875,-0.5,1.4375
1480613069636386,-0.4375,-1,2.5625
1480613069658444,1.3125,-1.3125,3.0625
1480613069681004,3.25,-1.5625,1.6875
1480613069696044,-0.9375,-1.3125,0.375
1480613069718604,-2.8125,-0.6875,0.0625
1480613069741164,0,-0.875,-0.375
1480613069756204,0.1875,-1.25,-0.25
1480613069785782,-0.1875,-0.8125,-0.375
1480613069792801,-1.375,-0.75,-0.625
1480613069815863,-0.9375,-0.625,-0.625
1480613069838423,0.5,-0.1875,-0.5
1480613069866999,0.875,-0.0625,-0.6875
1480613069879030,-0.875,-0.125,-0.125
1480613069898584,-1.4375,-0.0625,0.1875
1480613069913122,0.0625,0.25,-0.25
1480613069936183,1.25,-0.0625,-0.375
1480613069965261,0.5,-0.25,0.75
1480613069976290,-0.8125,-0.5,1.125
1480613070009377,0.1875,0,0.3125
1480613070018402,1.3125,0.4375,0.0625
1480613070039458,0.9375,0.1875,0.1875
1480613070065026,-0.25,-0.1875,0.3125
1480613070079564,0.0625,-0.5625,-0.25
1480613070107138,1.0625,0.0625,-1.3125
1480613070116161,0.0625,0.4375,-1.1875
1480613070146743,-0.375,0.5625,-0.75
1480613070159778,-0.0625,1.3125,-0.9375
1480613070183844,0.1875,1.875,-0.6875
1480613070198883,-0.625,1,-0.4375
1480613070219437,-1.0625,-0.125,-1.375
1480613070241997,-0.3125,-0.9375,-1.6875
1480613070259041,1.875,-0.8125,-0.75
1480613070279596,1.3125,-0.5,-0.0625
1480613070296141,-2.3125,-0.625,0.625
1480613070319703,-0.5,-0.875,0.625
1480613070339756,2.625,-0.125,0.375
1480613070355799,1.4375,0.1875,1.375
1480613070378359,-0.8125,0.5625,1.5625
1480613070399917,0.75,0.25,1.25
1480613070415960,3.75,0,0.4375
1480613070438519,3.0625,-0.4375,0.4375
1480613070459575,3.5,-0.5625,1.1875
1480613070476119,3,0.3125,1.6875
1480613070500184,1.5625,0.6875,1.0625
1480613070526753,1,0.5625,1.1875
1480613070537783,0.625,-0.125,1.1875
1480613070565860,1.125,-0.375,0.75
1480613070580898,-0.625,-0.375,0.5625
1480613070595938,-2.4375,-0.625,0.0625
1480613070618999,-2.3125,-1,-0.625
1480613070641560,-1.125,-1.6875,-1
1480613070655600,-1.125,-1.9375,-1.1875
1480613070678662,-1.375,-1.5625,-0.6875
1480613070701222,-1.4375,-1.375,0.0625
1480613070739319,0.3125,-1.625,-0.375
1480613070741325,1.875,-1.5,-0.625
1480613070761879,0.4375,-1.625,-0.125
1480613070775416,-0.625,-1.25,0.6875
1480613070804492,-0.5,-0.9375,0.625
1480613070821037,0.125,-0.875,-0.0625
1480613070835576,-0.0625,-1.25,0
1480613070858637,-0.125,-1.4375,0
1480613070888717,0.6875,-1.125,0.5625
1480613070897240,-0.375,-0.4375,0.4375
1480613070919799,-0.6875,-0.125,-0.1875
1480613070941859,1,-0.125,-0.3125
1480613070956397,1.625,-0.625,0.0625
1480613070978456,0.75,-0.6875,0.3125
1480613071001019,1.4375,-0.875,0.25
1480613071022071,1.1875,-1.5625,-0.875
1480613071038615,-0.25,-2.5,-0.875
1480613071061176,-0.1875,-4,0
1480613071082232,3.875,-2.6875,-1.875
1480613071098777,-1.6875,-0.5625,0.9375
1480613071128354,-2.625,-0.375,1.1875
1480613071141890,-1.125,0.125,0.0625
1480613071158434,0.1875,0.0625,-0.4375
1480613071181998,1,-0.125,-0.8125
1480613071203054,-1.9375,-0.4375,-0.25
1480613071218595,-3.5625,-1.4375,-0.125
1480613071241155,-0.4375,-1.25,-1
1480613071262210,0,-0.75,-1.4375
1480613071278755,-1.5,-0.8125,-0.6875
1480613071307331,-1.75,-1,-0.8125
1480613071322371,-1.875,-0.6875,-0.25
1480613071339416,-1,-0.3125,0.1875
1480613071361475,-1.6875,0.5,-0.125
1480613071389551,-2.6875,0.3125,-0.1875
1480613071398697,-1.9375,0.8125,-0.0625
1480613071421133,-2,0.25,0
1480613071443694,-1.9375,0.375,0.625
1480613071458733,-1.6875,0.75,0.375
1480613071481294,-2,0.6875,-0.125
1480613071503352,-1.9375,0.4375,-0.375
1480613071542456,-0.375,0.4375,-0.3125
1480613071546968,-0.875,0.8125,-0.25
1480613071587576,-0.25,1.1875,-0.125
1480613071593091,1.125,1.0625,-0.125
1480613071601116,1,0.875,-0.5
1480613071631193,0.4375,0.625,-0.25
1480613071637710,-0.875,0.625,-0.75
1480613071662275,-0.8125,-0.375,-1.375
1480613071683835,-0.4375,-1.1875,-1.6875
1480613071697870,1.3125,-0.1875,-1
1480613071720931,2.25,1.6875,-0.1875
1480613071743491,0.25,2.1875,0.8125
1480613071758029,0.1875,1.75,0.75
1480613071781091,-0.1875,0.75,0.5
1480613071819694,0.1875,0.625,0.3125
1480613071824707,0.75,0.3125,0.25
1480613071864814,-0.25,0.125,0.75
1480613071869827,-0.625,-0.5,1.4375
1480613071877848,0.6875,-0.6875,0.8125
1480613071914446,-0.0625,-0.375,0.75
1480613071923470,-0.8125,0.1875,0.9375
1480613071946030,0.4375,0.25,0.6875
1480613071961070,0.75,-0.125,-0.5
1480613072006691,-2.1875,-0.6875,-1.5
1480613072009198,-1.875,-1,-2
1480613072022734,-0.5625,-1.4375,-1.4375
1480613072057827,-0.25,-1.25,-0.75
1480613072071865,0,-1.125,-0.5625
1480613072096931,-1.75,-1.375,-0.375
1480613072103449,-1.25,-1.125,0
1480613072142553,1.9375,-0.8125,-0.3125
1480613072148067,1.3125,-0.125,-0.3125
1480613072163609,-1.875,-0.3125,-0.125
1480613072192184,-2,-0.5,0.0625
1480613072207726,0.5,-0.0625,-0.125
1480613072239311,1.375,0,0.3125
1480613072244826,0,0.4375,0.1875
1480613072283929,-1.75,0.25,-0.25
1480613072286436,-0.75,-0.125,-0.0625
1480613072304483,0.375,0.3125,0.0625
1480613072328547,0.25,0.6875,1.125
1480613072343587,-0.6875,1.0625,0.4375
1480613072366148,-1.875,0.75,-1
1480613072381187,-1.25,-0.75,-0.6875
1480613072426808,-0.25,-0.6875,0.625
1480613072428815,2.9375,-0.5,-0.3125
1480613072440846,-3.875,-1.1875,0.9375
1480613072469422,-1.5,0.125,-0.1875
1480613072485967,2.5,1.4375,-0.0625
1480613072516046,-0.5,1.125,-0.25
1480613072523566,1.125,1.9375,0.5
1480613072546127,-1.1875,2.5,-0.875
1480613072560164,-2.25,0.625,-1
1480613072584228,0.875,0.3125,-1.875
1480613072607794,-0.125,0.25,-1.375
1480613072620325,-1.4375,0.4375,0.8125
1480613072649401,-0.8125,-0.0625,0.8125
1480613072665945,1.0625,1.8125,1.0625
1480613072694521,0.9375,1.5625,0.4375
1480613072703545,0.75,1.9375,0.5
1480613072750670,0.0625,1.625,0.5625
1480613072754681,-0.125,0.5625,0.25
1480613072763706,-0.8125,-1.0625,-0.5625
1480613072794788,1.3125,-1.4375,-0.25
1480613072806819,2,-1.6875,0.4375
1480613072840910,0.625,-0.875,1.75
1480613072847428,-0.0625,-0.3125,1.8125
1480613072861465,-0.4375,0.375,1.25
1480613072883525,2.1875,0.4375,0.625
1480613072921625,2.5,0.0625,1.3125
1480613072929647,0.6875,-0.625,1.8125
1480613072943684,0.125,-0.3125,1.25
1480613072967250,0.3125,-0.0625,0.25
1480613072987300,1.625,-0.25,-0.5
1480613073011364,1.5,-0.8125,-0.25
1480613073025903,0.1875,-1,0.125
1480613073054479,0.4375,-0.75,0.125
1480613073073028,0.8125,-0.0625,-0.875
1480613073086063,0.75,0,-1.125
1480613073116143,-0.125,-0.375,-0.3125
1480613073123162,0.6875,-0.8125,0.375
1480613073161764,1.75,-1.4375,1
1480613073167282,2.8125,-1.1875,0.0625
1480613073183823,-0.125,-0.75,-0.9375
1480613073207386,-0.9375,-1.125,-1.3125
1480613073226937,0.6875,-1.5625,-0.8125
1480613073257017,0.9375,-1.5625,-0.3125
1480613073267547,1.8125,-0.9375,0.375
1480613073288101,0.6875,-0.4375,-0.0625
1480613073304644,0.4375,-0.3125,-0.125
1480613073339739,1.625,-0.125,-0.0625
1480613073348762,0.375,-0.4375,0.1875
1480613073363301,-0.5625,-0.625,0.125
1480613073387365,0.4375,-1.125,-0.25
1480613073408921,0.6875,-1.25,-0.6875
1480613073429476,1,-0.9375,-0.5625
1480613073446522,0.875,-0.875,0
1480613073476101,-0.3125,-0.875,0.1875
1480613073491140,-0.25,-0.75,-0.4375
1480613073531247,0.6875,-0.8125,-0.75
1480613073535258,1.0625,-1.25,0
1480613073551300,0.375,-1.5,0.8125
1480613073579375,-0.6875,-1.5,0.5
1480613073588900,-0.5625,-1.375,0
1480613073610959,1.125,-1.75,-0.9375
1480613073626003,-1.4375,-2.625,-0.375
1480613073664603,-1.375,-2.75,0.6875
1480613073667111,1.0625,-1.625,0.8125
1480613073686159,0.1875,-0.8125,0
1480613073716243,-0.4375,0.125,-0.1875
1480613073722756,0.3125,0.25,-0.1875
1480613073753339,0.4375,0,0.5625
1480613073769381,0.125,-1.0625,0.4375
1480613073815002,-0.125,-0.5625,-0.6875
1480613073819514,-0.25,-0.1875,-1.1875
1480613073859120,0.3125,-0.0625,-0.4375
1480613073861625,0.125,-0.125,0.3125
1480613073868145,0.3125,-0.5,0.75
1480613073889201,1.125,0.25,-0.0625
1480613073909754,0.1875,0.3125,-0.625
1480613073925796,0.5625,0.25,-0.8125
1480613073948357,1.6875,-0.25,-0.375
1480613073969413,2.5625,0.5625,0.3125
1480613073993476,3.25,1.125,1.75
1480613074008517,1.75,0.8125,0.6875
1480613074031077,-1.125,1,0.8125
1480613074046116,-0.5,0,-0.0625
1480613074084219,-1.25,-0.6875,-0.875
1480613074097755,0.8125,0.125,-1.4375
1480613074106278,2.0625,1.5,-1.25
1480613074135354,-0.8125,1.75,-0.1875
1480613074149395,-0.875,0.4375,0.3125
1480613074173456,0.75,-0.125,0.1875
1480613074190000,0.4375,0.5625,0
1480613074209552,-1.875,0.4375,0.0625
1480613074226096,0,0.5625,1.0625
1480613074248656,-1.875,-0.1875,0.75
1480613074269714,-0.5,-1,0
1480613074286255,2.0625,-1.0625,-0.3125
1480613074308816,0.6875,-0.625,-0.125
1480613074330875,-1.0625,-1,0.5
1480613074370480,-1.875,-1,0.9375
1480613074374992,-1.75,-0.5,0.75
1480613074404069,-0.6875,-0.125,-0.875
1480613074416101,2.3125,1.625,-1.5
1480613074428634,0.25,1.4375,-0.625
1480613074458715,-0.625,0.125,0.125
1480613074472250,0,-0.0625,-0.5625
1480613074494812,-1.5,0.0625,-0.8125
1480613074511856,1.625,0.5625,-1.625
1480613074531909,2.5625,0.0625,-0.6875
1480613074548453,0.9375,-0.5,0.625
1480613074586053,0.125,-0.5,0.6875
1480613074588560,-0.5,-0.1875,0.5
1480613074608614,0.25,-0.125,0.5
1480613074648219,1.0625,-0.375,1
1480613074652229,-0.3125,-1,1.25
1480613074691333,-3.25,-0.375,0.4375
1480613074693840,-2.125,0.5625,-0.5
1480613074711888,1.125,-0.375,-0.125
1480613074734449,0.4375,-1.25,-0.125
1480613074750995,-1.875,-1.125,-0.25
1480613074765531,-0.4375,-0.6875,-0.375
1480613074789093,1.0625,-0.125,-0.9375
1480613074819173,1.5625,0,-0.375
1480613074832210,1.1875,-0.3125,0.25
1480613074849759,-0.4375,-0.375,0.6875
1480613074884848,-0.6875,0.0625,0.8125
1480613074917434,1.5625,0.4375,0.3125
1480613074938993,1.3125,0.8125,0.25
1480613074941498,-1.25,0.1875,0.4375
1480613074970076,-1.8125,0.25,0.6875
1480613074982107,-0.5625,0.0625,0
1480613074990630,1.625,-0.125,-0.1875
1480613075012186,0.6875,-0.125,-0.1875
1480613075028730,-1.875,-0.125,0.5625
1480613075050789,-2.125,0,0.375
1480613075080368,1.5,0.625,-0.4375
1480613075097417,0.6875,0.1875,-0.875
1480613075111451,-1.3125,0,-0.75
1480613075132507,-1,0.1875,-0.25
1480613075154566,-0.5625,0.3125,-0.125
1480613075193169,0.6875,-0.4375,0
1480613075203195,-0.125,-0.25,0.875
1480613075216234,-0.125,-1.125,1.6875
1480613075230769,2.75,-2.5625,0.1875
1480613075254331,-2.3125,-1,1.4375
1480613075276891,-1.8125,-0.8125,-0.5
1480613075290928,-1.125,0.4375,-0.875
1480613075321008,-0.3125,-0.75,-1.0625
1480613075328027,-0.375,-1.125,-1.5625
1480613075352592,-3.0625,-1,-0.375
1480613075373648,-2.9375,0.625,-1.25
1480613075387686,-1.375,1.6875,-1.9375
1480613075431803,-1.875,0.9375,-1.0625
1480613075443835,-2.625,-0.0625,-0.0625
1480613075478929,-1.5,0.375,-0.6875
1480613075481435,-0.875,0.75,-1.375
1480613075493467,-0.625,1,-0.5625
1480613075516027,-1.25,0.3125,-0.875
1480613075531069,-1.4375,0.1875,-1.0625
1480613075553627,0.75,0.6875,-0.25
1480613075568169,0.75,1.375,0.3125
1480613075591227,0,2.5,0.25
1480613075614791,0.0625,-0.0625,-1
1480613075627824,0.8125,-1.75,-2
1480613075666930,3.4375,-0.125,-1.625
1480613075673447,1.75,0.25,0.75
1480613075696507,0.3125,0.375,1.125
1480613075711050,-2.8125,0.875,1.375
1480613075756667,-1.3125,0.375,0.625
1480613075759175,2.3125,0.0625,0.125
1480613075770708,1.375,0.25,0.1875
1480613075794769,0.6875,0.1875,0.5625
1480613075814823,-0.3125,-0.4375,0.5625
1480613075838385,1.3125,-0.5625,0.3125
1480613075853425,2.8125,-1.3125,0.0625
1480613075882503,1.875,-1.25,0.125
1480613075891024,0.75,-0.4375,0.3125
1480613075914588,-0.3125,-0.375,0.0625
1480613075934643,1.625,-0.5625,0.0625
1480613075951185,3.5,-1.25,0
1480613075973745,1.125,-2.0625,0.25
1480613075994801,1,-1.625,0.25
1480613076025884,2,-0.875,0.25
1480613076033406,2.125,-1.1875,0.1875
1480613076070001,2.25,-1.4375,0.875
1480613076083537,1.375,-1,0.8125
1480613076099581,0.9375,-0.0625,0.375
1480613076114619,1.25,-0.125,0.25
1480613076130161,2,-0.875,0.0625
1480613076154225,1,-1.6875,0.0625
1480613076174780,-0.125,-1.1875,0.0625
1480613076190822,0.5625,-0.25,0.1875
1480613076213382,1,-0.125,-0.125
1480613076266524,1.375,-0.875,0.25
1480613076269030,-0.3125,-1.125,0.875
1480613076275047,0.1875,-0.375,0.9375
1480613076302118,1.875,0.4375,1.125
1480613076311143,1.75,0.4375,0.5
1480613076341724,0.8125,0.25,0.125
1480613076356764,1.1875,-0.125,0.25
1480613076370801,2.5,-0.375,-0.125
1480613076399883,0.75,-0.6875,-0.125
1480613076415922,-1.0625,-1.0625,-0.4375
1480613076430460,0.75,-0.1875,-0.5625
1480613076457532,1.4375,0.75,-0.5625
1480613076491121,0.6875,0.625,-0.5625
1480613076493630,0.625,0.25,-0.4375
1480613076535740,0.375,-0.5625,-0.4375
1480613076543761,-0.25,-1.0625,-0.9375
1480613076550279,0.875,-0.6875,-1.125
1480613076583368,-0.375,0.1875,-0.75
1480613076595900,-0.8125,0.3125,-0.625
1480613076626984,-0.3125,0.25,0.875
1480613076633503,-0.3125,0.1875,0.5625
1480613076664082,0.375,0.3125,0.375
1480613076671602,-0.75,0.375,0.375
1480613076693660,-0.625,0,0.5
1480613076730258,0.75,-0.125,0.625
1480613076737277,0.3125,0,0.75
1480613076777884,0.125,0.1875,0.4375
1480613076781897,0.5,0.1875,-0.125
1480613076804455,0.6875,0,-0.125
1480613076813479,-0.25,0.0625,0.3125
1480613076851580,-0.375,-0.0625,0.8125
1480613076857598,0.375,0.3125,0.4375
1480613076879655,0.125,0.6875,0.1875
1480613076896200,-0.6875,0.5625,0.0625
1480613076917756,-0.4375,-0.125,-0.0625
1480613076934300,0,-0.125,0.125
1480613076956359,0.6875,-0.25,0.25
1480613076976914,1.6875,0.125,0.1875
1480613077000978,-0.5,-0.0625,0.5625
1480613077016021,-0.8125,0.1875,0.375
1480613077046098,0.25,0.125,0.3125
1480613077059633,-0.25,0.5,-0.375
1480613077083698,0.125,0.5,-0.25
1480613077097235,-0.5,0.1875,0
1480613077138845,-0.4375,-0.375,0.25
1480613077143356,0.875,-0.9375,0.3125
1480613077173938,0.9375,-0.625,0.5625
1480613077178951,0.6875,0.0625,0.5
1480613077195997,0.3125,0.5625,-0.0625
1480613077218557,-0.1875,0,0.125
1480613077233599,0.6875,-0.375,0.5625
1480613077286738,0.375,-0.3125,1
1480613077289251,-0.8125,-0.125,0.125
1480613077294759,0.625,-0.1875,-0.4375
1480613077323335,-0.125,-0.125,-0.0625
1480613077338375,-1.4375,-0.0625,0.625
1480613077353415,-0.0625,0.0625,0.5625
1480613077375975,1.375,0.5625,0.5625
1480613077407058,0.6875,0.25,0.125
1480613077413074,-0.25,-0.4375,0.0625
1480613077436135,-0.9375,-0.375,-0.25
1480613077466216,0,-0.3125,-0.0625
1480613077473735,0.5,-0.1875,-0.1875
1480613077510834,-0.6875,-0.6875,0
1480613077518354,-0.1875,-0.9375,0.125
1480613077557460,1.0625,-0.25,-0.0625
1480613077561971,0.1875,-0.375,0.6875
1480613077586536,-1.5,-0.625,0.6875
1480613077602578,-0.75,-0.6875,0.125
1480613077606589,0.6875,-0.625,-0.4375
1480613077622632,0.6875,-1.0625,-0.375
1480613077648701,-0.125,-1.375,0.125
1480613077662739,-0.8125,-1.4375,0.0625
1480613077684296,0.1875,-0.625,-0.25
1480613077703848,1.125,-0.4375,-0.5
1480613077737939,0.3125,-0.4375,-0.5625
1480613077742952,-1.4375,-0.625,-0.25
1480613077790077,-0.8125,-0.4375,0.0625
1480613077794589,0.25,-0.25,-0.375
1480613077804115,0.0625,-1.375,0.875
1480613077833693,0.75,-1.9375,0.125
1480613077846731,-1.375,-1.0625,-0.75
1480613077861266,-2.3125,-1.25,-0.375
1480613077891346,0.1875,-0.625,-0.25
1480613077915411,-0.125,-2.375,-0.6875
1480613077921426,-2.375,-2.25,0.125
1480613077960029,-3.25,-1.8125,0.5625
1480613077966664,0.6875,0.1875,-0.25
1480613077989110,-0.0625,0.9375,-0.3125
1480613078007656,-1.375,0.625,-0.125
1480613078026206,-1.75,0.4375,-0.1875
1480613078050269,-1.875,1,0
1480613078063806,1.5,1.875,-0.375
1480613078086365,2.8125,-2.6875,-1.125
1480613078111933,2.8125,-0.3125,-0.6875
1480613078123965,2.1875,2.25,1.125
1480613078148030,0.375,4.9375,1.6875
1480613078169086,-1.5625,4.0625,0
1480613078185631,-3.375,2.5625,0.375
1480613078209192,1.125,2,0.625
1480613078221223,1,1.4375,1.6875
1480613078243784,-0.1875,1.0625,1.625
1480613078266848,0.375,1.375,1.25
1480613078297928,0.8125,1.1875,1.6875
1480613078303945,-0.5625,1.4375,1.3125
1480613078345555,1.0625,1.625,0.75
1480613078350568,1.625,1.5625,0.9375
1480613078364106,0,1.0625,0
1480613078386664,-0.5,0.25,-0.375
1480613078402706,0.0625,-0.3125,0.0625
1480613078423765,0.1875,0.3125,-0.3125
1480613078446323,-0.125,-0.125,-0.5
1480613078470387,1.25,0.25,-1.0625
1480613078491443,1.4375,-0.125,-1
1480613078518014,-0.75,-1.5,-0.375
1480613078523028,-0.4375,-2.375,-0.125
1480613078544083,0.8125,-2.4375,-0.1875
1480613078578676,0.5625,-1.8125,0.5625
1480613078584691,0.5625,-1.3125,0.0625
1480613078605246,0,-1.5625,0
1480613078626302,0.5625,-1.8125,0
1480613078667411,1.8125,-1.125,0.75
1480613078671422,0.5625,-1.3125,1.1875
1480613078687464,-0.1875,-1.6875,1.3125
1480613078703006,1.3125,-1.375,0.5625
1480613078724061,0.625,-1.4375,0.4375
1480613078749633,-1.1875,-0.9375,-0.0625
1480613078763167,-0.25,-0.5,0.1875
1480613078794249,0.125,-1.0625,0
1480613078806281,0.8125,-1.5,-0.125
1480613078822825,1.75,-1.1875,-0.5
1480613078851401,0,-1.1875,-0.4375
1480613078866447,-1.125,-1.25,0.0625
1480613078897523,0.6875,-1.1875,0.0625
1480613078904041,1.5625,-0.3125,-0.5625
1480613078934125,-0.6875,-0.125,-0.8125
1480613078944148,-1.5625,-0.9375,-0.75
1480613078964202,0.875,-1.5625,-0.75
1480613078986259,0.75,-1.5625,-2
1480613079003305,-1.1875,-0.6875,-1.25
1480613079027870,-0.625,-0.125,-0.6875
1480613079046419,-0.125,0.6875,-0.3125
1480613079079006,-0.125,0.8125,-0.8125
1480613079091539,1.0625,0.25,-1.375
1480613079123624,0.5625,-0.3125,-0.5625
1480613079125630,-0.0625,-0.625,-0.1875
1480613079143678,1.125,-0.5625,-0.1875
1480613079170249,1.625,-0.1875,0
1480613079184289,0.4375,-0.25,0.5625
1480613079211358,-0.3125,-0.625,0.875
1480613079226398,1.5,-0.1875,0.625
1480613079244447,1.8125,0.1875,0.25
1480613079263999,-1.1875,-0.75,-0.0625
1480613079286558,-0.6875,-1.25,1.0625
1480613079311625,1.25,-0.625,1
1480613079348222,0.6875,0,1.25
1480613079350729,0.6875,-0.1875,0.6875
1480613079368778,-0.5,-0.9375,0.375
1480613079387326,0.375,-0.875,0.5625
1480613079407881,1.0625,0.1875,0.75
1480613079428937,-1,0.5625,1.1875
1480613079451497,-1.375,0.625,0.125
1480613079466537,-1.75,0.6875,-1.0625
1480613079499628,-0.5625,-0.0625,-1.875
1480613079505140,-0.25,0.0625,-1.75
1480613079533715,-1.25,-0.625,-1.9375
1480613079548757,-0.1875,-0.1875,-1.4375
1480613079581343,1.0625,0.4375,-1.5625
1480613079586356,0.5625,0.625,-0.8125
1480613079625961,0.125,1,-0.25
1480613079628468,-1.5625,1,0
1480613079646515,-0.125,1.3125,-0.125
1480613079670580,2,0.6875,0.0625
1480613079685621,0.25,0.3125,0.4375
1480613079722719,-1.3125,0,0.9375
1480613079728735,-0.6875,0.3125,0.1875
1480613079746783,0.4375,-0.0625,0.0625
1480613079782878,0.625,-0.25,0.375
1480613079788894,-0.4375,-0.3125,0.75
1480613079805443,-0.3125,-0.125,0.9375
1480613079826495,0.1875,-0.625,0.1875
1480613079864095,0.1875,-1.125,0
1480613079874623,-0.8125,-0.9375,0.5
1480613079911721,-1.25,-0.375,0.6875
1480613079915233,-0.5,0.1875,0.3125
1480613079925758,-1.5625,0.1875,-0.3125
1480613079955338,-1.75,-0.1875,-0.5
1480613079968878,-0.125,-0.0625,-0.125
1480613079986922,0.6875,0.1875,0.0625
1480613080006473,-0.5625,-0.125,-0.3125
1480613080029033,-0.6875,-0.4375,-0.5
1480613080054099,0.25,-0.875,-0.25
1480613080066135,0.6875,-0.375,-0.0625
1480613080088692,-0.375,0.0625,0.4375
1480613080106740,-1.625,0.5625,-0.5
1480613080142839,0.5,0.9375,-0.375
1480613080148855,0.8125,0.8125,0.0625
1480613080189962,-0.5,1.125,0.625
1480613080193972,-0.3125,1.3125,1.25
1480613080209012,0.75,0.6875,1.75
1480613080235583,1.5,0.375,2.1875
1480613080250122,1,0.75,1.5
1480613080270175,0.0625,1.5625,0.875
1480613080286719,0.1875,1.125,0
1480613080306271,0.25,0.25,-0.5
1480613080328831,1.0625,-1.375,-0.3125
1480613080346889,0.875,-1.1875,-0.0625
1480613080366437,-0.25,-0.9375,0.125
1480613080391999,-0.0625,-0.125,0.375
1480613080423082,0.6875,0.0625,0.5625
1480613080434112,1.25,0.3125,0.25
1480613080456169,0,0.125,0.3125
1480613080472714,-1.0625,-0.25,0.5
1480613080511819,-0.3125,-0.375,0
1480613080517333,0.5625,-0.125,-0.25
1480613080526857,0,-0.375,0.0625
1480613080546409,0.5,-0.0625,0.375
1480613080568971,0.25,0.125,0.375
1480613080599554,0.625,-0.3125,0.625
1480613080607573,0.9375,-0.1875,0.4375
1480613080629130,0.1875,-0.125,0.625
1480613080652692,1.1875,0.3125,0.5
1480613080667732,0.9375,-0.0625,0.75
1480613080702324,0.25,-0.25,0.5625
1480613080719370,0.75,-0.1875,-0.0625
1480613080743935,0.4375,-0.1875,-0.25
1480613080748949,0.6875,0,-0.25
1480613080773018,1.25,0.0625,-0.0625
1480613080790559,-0.1875,-0.125,-0.3125
1480613080809108,-0.5,-0.6875,0.0625
1480613080842197,0.875,-0.25,-0.25
1480613080847711,0.9375,-0.125,0.0625
1480613080868767,0.5625,0,-0.1875
1480613080891329,0.3125,-0.125,0.25
1480613080907872,-0.75,-0.5,0.625
1480613080931937,0.0625,-0.25,0.125
1480613080951490,0.6875,-0.1875,0.1875
1480613080974049,-0.0625,-0.9375,0
1480613081021173,-0.375,-1,-0.5
1480613081028191,-0.5625,-1.125,-1
1480613081030699,-0.0625,-1.5,-0.75
1480613081048746,1.1875,-0.9375,-1.0625
1480613081071306,0.25,-0.625,-1.125
1480613081089856,-1.625,-1.1875,-0.75
1480613081108907,0.25,-1.625,0.1875
1480613081131466,0.1875,-1.3125,0.125
1480613081149515,1.0625,-1.3125,0.4375
1480613081169074,0.75,-1.0625,-0.25
1480613081191626,-1.875,-3.125,-0.75
1480613081209173,-1.8125,-3.5,-0.125
1480613081228725,0.3125,-4.4375,0.4375
1480613081251286,-1.875,-2.6875,1.3125
1480613081283873,-0.0625,-0.1875,-1.625
1480613081290389,-0.9375,-1.9375,-0.1875
1480613081311445,-6.875,-3.75,1.5
1480613081353056,-3.4375,-4.9375,2.5
1480613081357567,0.6875,-0.9375,1.625
1480613081371606,-0.4375,1.125,0.625
1480613081389152,-1.875,1.125,0.625
1480613081409207,-2.0625,-0.125,0.625
1480613081431264,-0.4375,-0.8125,0.5625
1480613081449312,1.9375,0.875,0.25
1480613081485415,-0.75,1.5625,-0.6875
1480613081498951,-3.9375,1.3125,-0.6875
1480613081509473,-1.375,0.9375,0.625
1480613081529024,2.3125,0.125,1
1480613081561611,1.875,0.625,1.5625
1480613081569132,1.0625,1.5,0.6875
1480613081590187,-0.75,1.75,-0.5
1480613081612747,0.5,0.75,-1.0625
1480613081629291,3,0.3125,-1.1875
1480613081656362,1.375,0.0625,-0.3125
1480613081671403,-0.75,0.4375,-1.3125
1480613081689451,-3.125,0.875,-1.25
1480613081719531,-0.5,1.25,-1.9375
1480613081731564,3.1875,1.9375,-2.375
1480613081751617,1.3125,2,-3.0625
1480613081776182,1.625,3.375,-2.5
1480613081808270,2.75,3.5625,-0.5
1480613081810774,2.75,2.75,1.375
1480613081855393,-2.75,1.0625,2.9375
1480613081861910,0.8125,1.625,3
1480613081873942,2,2.3125,1.0625
1480613081896504,1.25,1.625,0.375
1480613081911542,0.0625,-0.25,0.25
1480613081934102,-1.6875,-1.5,0.5
1480613081951649,-0.8125,-2.375,0.9375
1480613081971201,0.875,-3.4375,0.9375
1480613081989248,0.1875,-4.9375,0.625
1480613082011809,-1.625,-8.9375,-0.5625
1480613082031363,2.5,-5.875,-0.9375
1480613082049409,-2.375,0.25,-1.0625
1480613082082496,-7.9375,0.5625,1.5625
1480613082091521,-6.75,2.6875,1.625
1480613082136648,1.375,1.6875,1.0625
1480613082148172,-2.375,-0.5625,0.0625
1480613082152685,-1.625,-1.375,0.625
1480613082177249,1.75,-0.1875,-0.75
1480613082191787,-3.4375,0.125,0
1480613082227884,-3.0625,0.875,-0.1875
1480613082233899,0.6875,0.9375,-0.5
1480613082251949,-2.1875,1.5625,-1.0625
1480613082271502,-2.25,2.25,-0.6875
1480613082294059,0.125,2.375,-0.3125
1480613082311606,0.9375,1.625,-0.1875
1480613082331660,3.625,-1.25,-0.1875
1480613082361238,3.375,-0.875,-1.25
1480613082371766,3,2.1875,-0.1875
1480613082400342,1.75,2.625,2.5625
1480613082413878,-0.25,2.3125,2.5625
1480613082465014,-3.5625,0.1875,3.0625
1480613082469528,1.5,1.8125,2.375
1480613082474038,0.6875,3.125,0.5
1480613082491585,-1.375,2.1875,0.4375
1480613082512644,-0.5625,0.25,-0.375
1480613082535202,1.5625,1.125,-0.75
1480613082552249,1.8125,1,-1.125
1480613082578820,0.3125,1.3125,-0.9375
1480613082601379,0.0625,2,-0.8125
1480613082611906,1.125,2.6875,-0.125
1480613082634467,1.125,2.9375,-0.3125
1480613082654018,1.125,2.4375,-0.5625
1480613082679585,2.0625,2.5625,0.625
1480613082692621,2.6875,2.75,0.625
1480613082721195,3.4375,3.4375,1.375
1480613082731724,4.625,4.1875,0.6875
1480613082752780,3.8125,4.375,1.125
1480613082784364,3.3125,4.1875,2.25
1480613082791884,6,4.875,1.5625
1480613082818956,9.0625,5.3125,0.625
1480613082833998,6,4.125,1.25
1480613082852045,0.1875,2.3125,2.1875
1480613082874102,-0.5625,1.875,1.625
1480613082910700,2.25,1.625,0.125
1480613082913207,1,1.4375,-1.75
1480613082934263,-0.75,0.4375,-1.75
1480613082961334,-3.375,-0.9375,-2.125
1480613082973366,-6.125,-1.75,-2.3125
1480613083007457,-3.375,-1.3125,-2.625
1480613083013975,0.125,-1,-2.5
1480613083032023,0.0625,-0.6875,-1.625
1480613083060599,-1.8125,-0.75,-0.4375
1480613083073633,-4.0625,-0.6875,-0.375
1480613083099704,-1.6875,-0.5625,-0.25
1480613083114244,0.1875,-0.1875,0.4375
1480613083141313,-0.625,-0.625,0.625
1480613083151846,-1.25,-1.125,0.75
1480613083195959,-1.5,-1.5625,0.4375
1480613083198465,-2.4375,-1.8125,0
1480613083212001,-2.125,-2.1875,0.0625
1480613083249602,-0.75,-1.75,-0.8125
1480613083253612,-1.0625,-1.6875,-0.875
1480613083293217,-1.75,-1.6875,-1.25
1480613083295725,-2.3125,-1.875,-1
1480613083313772,-1.25,-2,-1.0625
1480613083339340,0.3125,-1.1875,-1.375
1480613083354380,0.25,-0.5,-1.1875
1480613083381452,0,-0.5,-0.875
1480613083391980,0.25,-0.9375,-0.1875
1480613083415041,1.1875,-1,0.125
1480613083444120,2.5625,-0.6875,0.1875
1480613083457655,2.125,-0.3125,0.625
1480613083480215,0.75,-0.6875,0.9375
1480613083527841,1.25,-0.75,1.25
1480613083533360,2.3125,-1.125,1.125
1480613083535864,1.8125,-0.75,0.625
1480613083572963,1.5625,-0.125,0.3125
1480613083577976,1.1875,-0.5,-0.0625
1480613083596525,1.0625,-1.125,-0.3125
1480613083615074,1.4375,-1.5,-0.1875
1480613083631630,1.8125,-1.0625,-0.3125
1480613083654178,0.5625,-1,-0.25
1480613083675234,-0.5,-1.1875,-0.75
1480613083704313,0.875,-1.5,-1.125
1480613083714338,1,-1.6875,-0.5
1480613083735395,0.375,-1.375,-0.125
1480613083756449,0.8125,-0.9375,0.0625
1480613083794552,1.6875,-1.375,0.25
1480613083804577,1.5625,-1.75,-0.1875
1480613083816610,0.9375,-1.5,-0.125
1480613083859224,0.5625,-1.25,0.5625
1480613083864739,0.6875,-1.1875,0.3125
1480613083876770,1.375,-0.9375,0.5625
1480613083894317,1.4375,-0.9375,0.875
1480613083916876,0.1875,-1.1875,0.375
1480613083936434,0.25,-1.125,0.3125
1480613083954978,-0.125,-1.0625,0.0625
1480613083981564,0.5625,-0.5625,-0.0625
1480613083998596,0.9375,-0.4375,0
1480613084015140,0.125,-0.75,0.625
1480613084036696,0.375,-0.625,0.3125
1480613084082818,1.1875,-0.8125,-0.8125
1480613084087832,0,-1.1875,-1.4375
1480613084096856,-0.5625,-1.125,-1.625
1480613084123927,-1.125,-1.375,-1.4375
1480613084134456,0.25,-0.6875,-1.125
1480613084157517,0.3125,-0.3125,-1.125
1480613084176568,-1.125,-0.75,-0.4375
1480613084194114,-1.3125,-1.1875,-0.3125
1480613084216675,0.375,-0.1875,-0.5
1480613084236227,0.375,-0.6875,-0.8125
1480613084260297,-1.1875,-3.6875,-0.125
1480613084276835,2.9375,-4.0625,-1.375
1480613084296889,0.4375,-2.8125,-2.125
1480613084359053,-2,-1.8125,0.5
1480613084360557,-0.1875,0.5625,2.75
1480613084366072,-1.3125,1.4375,0.9375
1480613084374594,1.5625,2,-0.5
1480613084403672,0.3125,0.875,-2
1480613084417208,-2.375,-0.875,-0.9375
1480613084433250,-3.375,-0.1875,-0.125
1480613084456813,-0.4375,0.625,-0.25
1480613084476866,-3.6875,-0.75,-0.4375
1480613084495917,-2.4375,-1.875,-0.1875
1480613084516472,0.8125,-1.3125,-0.1875
1480613084537026,-1.8125,0,1
1480613084554573,-3.0625,0.75,1.25
1480613084576632,-2.5,1.0625,0.9375
1480613084626765,1.125,2.1875,-0.4375
1480613084638296,4.375,2.9375,-0.0625
1480613084642807,-1.5,2,0
1480613084673891,-3,0.5625,-0.375
1480613084676400,-0.1875,0.5625,-1.9375
1480613084695950,2.75,0.9375,-2.625
1480613084726030,1.375,-1.0625,-1.5625
1480613084733550,-1.9375,-2.375,0.625
1480613084763630,-0.8125,-1.0625,1.5
1480613084779171,1.125,0.875,1
1480613084792707,-1.25,0.375,0.75
1480613084815768,0.3125,-1.6875,0.375
1480613084838328,2.0625,-2.9375,2.0625
1480613084852868,2.125,-2.8125,0.5
1480613084875932,-3,-0.1875,-0.25
1480613084898492,-3.4375,1.0625,-2
1480613084919551,-1.0625,1.5625,-1.75
1480613084935593,-1.9375,-0.875,-1.6875
1480613084958654,-2.5,-2.375,-0.8125
1480613084972692,-1.3125,-1.75,0.5
1480613084995754,0.25,0.4375,2.875
1480613085018313,-0.0625,2.5,3.5
1480613085033855,0.25,3.25,3.75
1480613085056414,1.5625,3.0625,1.4375
1480613085079476,-1.6875,2.125,-0.5625
1480613085100063,-1.5,0.5625,-1.625
1480613085116073,-0.5625,-0.5625,-1.8125
1480613085138633,-3,-2.0625,-1.3125
1480613085153172,-1.6875,-2.3125,-0.9375
1480613085190771,1.9375,-0.8125,-1.625
1480613085198292,2,0.9375,-0.6875
1480613085213834,-1.1875,1.375,0.5
1480613085235892,-1.75,1.75,1.1875
1480613085258953,-0.8125,2,1.125
1480613085279508,1.6875,1.3125,-0.25
1480613085297056,2.0625,0.4375,-0.125
1480613085325130,1.5625,-0.375,-0.125
1480613085339668,-1.0625,-1.0625,-0.75
1480613085363231,-0.5,-1.3125,-1.375
1480613085388297,1.5,-0.875,-1.6875
1480613085416372,1.5,-0.0625,-2
1480613085431412,-0.4375,-0.1875,-0.75
1480613085469513,-0.6875,-0.5625,-0.375
1480613085484052,1.4375,-0.0625,-0.8125
1480613085486559,1.625,-0.1875,-0.4375
1480613085512628,0.4375,-0.375,0
1480613085527668,-0.6875,-0.4375,-0.0625
1480613085543210,0.0625,-0.625,-0.25
1480613085558250,0.4375,-0.125,-0.1875
1480613085579306,0.375,0.0625,0.3125
1480613085595851,0.25,0.3125,0.4375
1480613085618410,0.1875,-0.0625,0.75
1480613085656511,-0.0625,-0.4375,0.25
1480613085659018,-0.3125,-0.6875,0.625
1480613085702132,0,-0.125,0.375
1480613085707145,-0.375,0.0625,0.375
1480613085739732,-0.625,0.25,0.1875
1480613085744745,-0.5625,-0.25,0.25
1480613085769311,-0.375,-0.5,0.3125
1480613085776831,0.25,0.1875,0.4375
1480613085798392,-0.1875,0.75,0.6875
1480613085820950,-1.125,0.4375,0.4375
1480613085835488,0.375,0,-0.1875
1480613085866574,1.625,-0.125,-0.4375
1480613085881108,1.1875,0.5,0.375
1480613085896150,-1.125,0.3125,1.25
1480613085929238,-1.5,0.0625,0.8125
1480613085969344,1.125,0.4375,0.1875
1480613085980874,1.875,0.4375,-0.0625
1480613085985385,0,0.5,0.5625
1480613086017475,-0.8125,-0.125,0.875
1480613086021983,0.125,-0.875,0.3125
1480613086038527,2.125,-0.9375,-0.0625
1480613086061088,3,-0.3125,-0.125
1480613086082143,0.1875,-0.1875,0.6875
1480613086105706,-1.375,-0.125,1.0625
1480613086120745,1.625,-0.0625,1
1480613086159349,2.625,-0.75,0.9375
1480613086164364,1.125,-0.8125,1
1480613086180908,0,-0.625,1.5
1480613086201963,-0.6875,-0.5,1.5
1480613086218506,0.9375,-1.0625,-0.0625
1480613086247082,1.125,-1.3125,-0.625
1480613086262122,-0.0625,-1.0625,-0.75
1480613086293205,-0.5,-0.75,-0.25
1480613086301226,-0.5625,-0.5625,0.0625
1480613086322783,1,-0.5625,-0.4375
1480613086338325,1.875,-0.4375,-0.75
1480613086360885,0.25,-0.25,-0.625
1480613086381940,0.125,-0.5,0.125
1480613086398487,1.125,-0.375,0.375
1480613086421045,1,-0.625,0.0625
1480613086442101,0.625,-0.875,-0.0625
1480613086458645,-0.625,-1.5,-0.1875
1480613086481209,-0.8125,-2.6875,0.125
1480613086501760,1,-4.5625,0.4375
1480613086518804,3.0625,-4.3125,-2.375
1480613086540864,-0.4375,-2.125,1.1875
1480613086570944,-1.875,-0.5625,0.625
1480613086578464,-0.25,0.6875,-0.4375
1480613086616565,0.75,0.0625,0.25
1480613086623584,0.6875,0.625,-0.5
1480613086644639,-3.1875,-0.6875,-0.375
1480613086661685,-3.1875,-0.375,-1.4375
1480613086683242,-0.3125,-0.625,-1.5625
1480613086713323,-0.375,-0.875,-0.6875
1480613086720842,-1.75,-0.375,0.5
1480613086745407,-0.1875,0.875,0.625
1480613086767968,-0.4375,2.1875,0.375
1480613086789028,-0.25,1.6875,0.5
1480613086803562,-0.0625,0.5625,0.9375
1480613086817599,-0.5625,0.1875,1.875
1480613086841163,-0.8125,0.3125,1.875
1480613086863723,-1.5,0.8125,1.125
1480613086877760,-0.8125,1.625,0.4375
1480613086900821,-0.6875,1.6875,0.625
1480613086931405,-1.0625,1.5,1.0625
1480613086937920,-0.6875,1.9375,0.25
1480613086960984,-1,1.375,-0.25
1480613086989558,-0.75,0.5625,-0.75
1480613086997579,-0.75,0.5,-0.625
1480613087035680,-0.875,1.4375,-0.4375
1480613087044704,-2.3125,2.3125,-1
1480613087057739,-2.1875,1.125,-0.9375
1480613087082805,-0.5,0.3125,-1.1875
1480613087118901,0.5,0.375,-1.4375
1480613087124917,0.375,0.6875,-2.0625
1480613087140960,0.6875,2,-2.4375
1480613087170539,-0.375,2,-1.8125
1480613087184576,-1.5625,1.25,-0.9375
1480613087207137,-2.3125,-0.0625,-1.1875
1480613087223680,1.6875,1.125,-0.9375
1480613087259777,0.875,1,-0.25
1480613087268298,-1.625,0.75,0.5
1480613087284843,-0.4375,2.125,0.25
1480613087311914,-0.75,2.375,0.3125
1480613087320938,0.4375,1.5625,0.25
1480613087344502,1.75,0.9375,0.625
1480613087364555,0.5,1.125,1
1480613087381600,0.625,1.3125,0.6875
1480613087404662,2,0.875,-0.25
1480613087424214,0.5,-0.125,-0.625
1480613087442261,0.5625,-0.4375,-0.5
1480613087463320,0.25,-0.6875,-1.1875
1480613087484374,-0.4375,-0.875,-1
1480613087501419,2,-0.8125,-0.8125
1480613087523478,1.4375,-0.5,-0.25
1480613087546038,0,-0.25,-0.5
1480613087561579,0.125,-0.125,-0.1875
1480613087583637,0.5,-0.1875,0.1875
1480613087605696,0.375,-1.0625,0.625
1480613087627755,0.25,-0.9375,0.5
1480613087644300,0.625,-0.5625,0.5625
1480613087666358,-0.3125,-0.5625,0.25
1480613087681902,-0.9375,-0.9375,0.6875
1480613087703958,1.1875,-0.75,1
1480613087726016,1.8125,-0.5,1.5625
1480613087740054,0.6875,-0.25,1.5625
1480613087779159,0.6875,0.25,0.6875
1480613087786177,-0.1875,0.125,-0.5625
1480613087800214,-0.3125,-0.375,-1
1480613087823275,-0.6875,-1.125,-0.625
1480613087845836,-0.3125,-1.0625,-0.375
1480613087866891,0.5,-0.5625,-0.25
1480613087883937,0.375,-0.125,-1
1480613087906998,-0.25,-0.3125,-0.625
1480613087920032,0.3125,-0.5,-0.75
1480613087944598,0.625,0,-0.25
1480613087972173,0.4375,0.3125,-0.25
1480613087986709,0.0625,0.3125,-0.125
1480613088003755,-0.1875,0.0625,-1.4375
1480613088025814,-0.1875,-0.3125,-1
1480613088047879,0.375,-0.75,-0.25
1480613088063915,0.875,-0.6875,0.75
1480613088091993,0.875,-0.5,0.8125
1480613088107030,0.6875,-0.125,0.4375
1480613088124075,0.3125,-0.375,0.125
1480613088146135,1.375,-0.6875,0.4375
1480613088167692,-0.1875,-0.75,1
1480613088192257,-0.8125,-0.1875,1
1480613088205793,0.6875,0,0.6875
1480613088227350,0.625,-0.125,0
1480613088243393,0.3125,-0.5625,-0.125
1480613088265953,-0.25,-0.6875,0.5
1480613088289014,-0.75,-0.125,0.3125
1480613088305057,0.4375,-0.1875,-0.1875
1480613088326615,0.6875,-0.1875,-0.875
1480613088347170,-0.375,-0.5625,-0.8125
1480613088377249,0.125,-0.25,-0.5
1480613088385771,0.5,0.125,-0.125
1480613088406829,0.625,0.25,0.25
1480613088424876,-0.0625,0.25,0
1480613088445933,-0.375,0,0.125
1480613088466989,0.0625,-0.125,-0.125
1480613088484033,0.4375,0.125,-0.25
1480613088513611,-0.5,0,0
1480613088528652,-1.1875,-0.4375,0.0625
1480613088567255,0.1875,-0.6875,-0.625
1480613088571767,-0.4375,-0.6875,-0.5625
1480613088604356,0,-0.125,-0.4375
1480613088609367,-1.875,0.125,-1.0625
1480613088625911,-1.8125,-1.75,-0.25
1480613088648972,-1.25,-1.4375,0.4375
1480613088663511,-1.75,-0.75,-0.375
1480613088686070,-2.0625,-0.8125,0.25
1480613088709134,-1.0625,-0.1875,-0.25
1480613088731694,-1.0625,-0.125,-0.8125
1480613088746231,-3.5,-1.375,-0.8125
1480613088775810,-2.3125,-1.125,0.25
1480613088782828,0.75,-1,0.9375
1480613088806390,-1.5,-1.375,1.3125
1480613088843489,-2.0625,-0.25,0.9375
1480613088845998,-0.6875,0.25,-0.3125
1480613088866051,-1.1875,-0.3125,-0.4375
1480613088888609,-1.6875,-1.0625,0.5
1480613088902646,0,-0.375,1.1875
1480613088934231,-0.0625,0,0.8125
1480613088948268,0.125,0.75,-0.375
1480613088969826,-1,0.375,-0.3125
1480613088985868,-2.125,-0.4375,0.625
1480613089008427,-0.5,-0.25,0.8125
1480613089029486,0.4375,-0.0625,-0.0625
1480613089052050,-0.625,0.25,-0.5
1480613089068588,-2.1875,0.0625,-0.5625
1480613089089143,-1.3125,0,0.0625
1480613089107191,0.6875,0.375,0.875
1480613089128247,-1.125,0.875,0.5625
1480613089166350,-2.875,1.8125,0.125
1480613089168855,-1.375,1.5,-0.625
1480613089194423,-1.0625,0.4375,-0.1875
1480613089209463,-2.3125,-0.125,0.3125
1480613089226007,-1.6875,0.5,0.9375
1480613089248567,-1.625,1.1875,0.625
1480613089270126,-1.875,1.25,0.1875
1480613089287171,-0.9375,0.625,0.125
1480613089308226,-1.6875,0.0625,0.4375
1480613089338306,-1.9375,0.125,0.875
1480613089353346,-0.125,1,0.1875
1480613089368385,0.0625,0.5,-0.75
1480613089389442,-0.875,-0.625,-0.3125
1480613089405987,-0.6875,-0.5,0
1480613089428546,-1.0625,-0.4375,0.0625
1480613089449602,-0.5625,-0.375,-1.0625
1480613089466648,0.625,-0.1875,-2.0625
1480613089488204,0.9375,-0.625,-1.75
1480613089510765,0.4375,-0.6875,-1.5625
1480613089533325,2.125,-0.75,-1.4375
1480613089548866,2.375,-0.5,-2.125
1480613089579948,2.9375,-0.625,-2.0625
1480613089586466,3.3125,-1.1875,-2.3125
1480613089614542,1.3125,-1.625,-1.8125
1480613089631086,1.9375,-0.3125,-1.4375
1480613089645122,3.75,0.875,0.25
1480613089669186,4.4375,0.625,1.6875
1480613089690743,2.6875,0.125,1.875
1480613089705282,2.1875,0.0625,2.125
1480613089728846,3.8125,-0.1875,0.9375
1480613089758423,3.5625,-0.9375,-0.25
1480613089765443,3.1875,-2.5,-1.0625
1480613089788503,2.125,-3.5625,-1.3125
1480613089811063,2.4375,-2.6875,-1.0625
1480613089848162,3.1875,-1.6875,-1.0625
1480613089857688,1.25,-1.5,-0.5625
1480613089871725,1.3125,-1.25,-0.0625
1480613089899299,3.3125,-0.625,0.3125
1480613089908824,2.5,-0.5,0.9375
1480613089944919,-0.125,-0.875,1.125
1480613089953442,-0.9375,-1.1875,1.0625
1480613089968483,1.125,-1.5625,-0.125
1480613089998562,0.875,-1.1875,-0.8125
1480613090019618,-0.8125,-1.5625,-1.8125
1480613090044185,-0.3125,-1.9375,-1.0625
1480613090051705,0.4375,-2.0625,-1.0625
1480613090079277,2.25,-0.3125,-1
1480613090089806,0.3125,0.5,-0.75
1480613090124396,-1.1875,0,-0.8125
1480613090134925,0.875,-0.375,-0.6875
1480613090171522,2.3125,-0.9375,-0.5625
1480613090174030,1.125,-1.375,-0.5
1480613090192579,-0.9375,-2.0625,0.1875
1480613090214637,3.1875,-1.0625,-0.9375
1480613090231182,0.375,-1.375,0.5625
1480613090251735,0.9375,-2.25,0.8125
1480613090275800,-0.25,0.375,2.375
1480613090290840,-2.5,1.4375,0.1875
1480613090311896,3.4375,1.4375,0.625
1480613090328440,0.625,-0.8125,0.625
1480613090351501,-1.8125,-0.875,0.875
1480613090371555,-0.75,0.5,0.1875
1480613090388600,-1.4375,-0.375,0
1480613090411163,-1.9375,-1.5625,0.1875
1480613090439234,-1.3125,-2.0625,0.9375
1480613090457282,1.125,-0.9375,0.8125
1480613090471822,-0.1875,0.8125,-0.5625
1480613090494882,-2.625,1.125,-1.3125
1480613090508419,-0.4375,-2.625,-2.4375
1480613090531480,3.8125,-2.375,-4.5625
1480613090554541,11.5,0.8125,-2.25
1480613090567576,7.0625,3.25,1.3125
1480613090590637,-2.125,2.125,4.1875
1480613090613702,-4.5625,-0.125,2.375
1480613090641773,-2.375,-0.1875,0.5625
1480613090650797,0.3125,0.125,1.4375
1480613090673858,2.125,1.75,2.0625
1480613090687896,-1.5,1.3125,2.9375
1480613090710958,-2.3125,0.5625,1.8125
1480613090734019,-0.875,1,0.75
1480613090755576,0.25,1.3125,-0.3125
1480613090770616,1.25,2.25,-1.125
1480613090793678,-0.375,2.75,-0.125
1480613090807715,-2,2.75,-0.1875
1480613090834787,-2.0625,1.9375,-0.4375
1480613090853336,-0.9375,1.8125,0.0625
1480613090867875,1.5625,2.1875,-0.125
1480613090890936,1.5625,1.375,0.375
1480613090913998,-0.9375,0.5625,1.0625
1480613090936056,0.25,0.1875,0.75
1480613090951598,2.3125,0.4375,0.4375
1480613090973656,1.8125,-0.1875,0.375
1480613090996216,0.9375,-0.375,-0.5
1480613091010756,-0.5625,-0.6875,-0.75
1480613091040835,0,-0.75,-1
1480613091054372,2,-0.5,-1.375
1480613091076932,1.0625,-0.5625,-0.375
1480613091093475,-1.25,-0.375,-0.3125
1480613091114532,-1.6875,-0.1875,-0.75
1480613091131076,-0.125,-0.25,-0.875
1480613091153635,0.6875,-0.1875,-1.3125
1480613091174691,-0.25,-0.5625,-0.1875
1480613091198258,-1.3125,-0.625,0.125
1480613091213800,-0.25,-0.125,-0.25
1480613091242873,-0.6875,-0.5,-0.625
1480613091250894,-0.625,-0.125,-0.5625
1480613091288494,0.0625,-0.125,-0.5
1480613091294510,-0.375,0,0.125
1480613091311054,-0.5625,-0.125,0.125
1480613091333615,-0.5625,-0.125,0.25
1480613091354670,0.375,-0.125,0.3125
1480613091372718,0.6875,-0.125,0.375
1480613091393273,-0.3125,-0.125,0.125
1480613091422350,-0.5625,0.1875,-0.75
1480613091432378,0.25,0.4375,-1
1480613091453934,0.0625,0.125,0.125
1480613091476496,0.5,-0.1875,0.1875
1480613091491033,0.6875,-0.1875,0.3125
1480613091521614,0.5,0.4375,0.375
1480613091536654,0.4375,0.375,-0.125
1480613091564228,-0.75,-0.0625,0.375
1480613091573753,-0.3125,0.375,0.5
1480613091596816,1.1875,1.0625,0.5625
1480613091618372,-1.25,0.625,1
1480613091633412,-2.3125,0.1875,0.625
1480613091661989,-0.6875,0,0.0625
1480613091670510,-0.0625,0.5625,0.3125
1480613091693165,0,0.625,0.4375
1480613091715724,-0.5,0.8125,0.875
1480613091730263,-0.6875,0.75,0.125
1480613091754829,-0.625,0.75,0.1875
1480613091775884,0.625,0.875,0.0625
1480613091797947,0.125,0.4375,0.4375
1480613091813486,-0.25,0.1875,0.625
1480613091836045,0.3125,0.375,0.125
1480613091850081,-0.9375,0.375,-0.25
1480613091887181,-0.375,-0.0625,-0.3125
1480613091895704,1.5625,-0.125,0.1875
1480613091917261,0.625,-0.25,0.625
1480613091940322,-0.25,-0.125,0.375
1480613091956866,0.3125,0.0625,-0.0625
1480613091985943,1,-0.375,-1.125
1480613091994466,1.375,-0.625,-1.0625
1480613092017027,-0.875,-0.4375,-0.5
1480613092037079,-0.9375,0.0625,-0.3125
1480613092053122,0.6875,-0.1875,-1.125
1480613092076686,0.75,-0.125,-1.5
1480613092096739,-0.1875,-0.5,-1.1875
1480613092113282,-1.6875,-0.75,-0.3125
1480613092135842,0.1875,-1.0625,-0.125
1480613092156899,3.1875,-1.5625,-0.3125
1480613092173442,2.1875,-1.1875,0.5625
1480613092196504,0.4375,-1.125,1.6875
1480613092217058,1,-0.875,0.5
1480613092233603,1.375,-1,-0.0625
1480613092255661,1.5625,-1.4375,-1.0625
1480613092276717,0.8125,-1.125,-0.25
1480613092293261,-1.8125,-1.375,0.125
1480613092315822,0.4375,-0.75,-0.125
1480613092340387,1.8125,-0.8125,0.0625
1480613092353421,0.125,-1,0.1875
1480613092384002,-0.0625,-0.5625,-0.125
1480613092399043,-0.25,-0.5,-0.375
1480613092413585,-0.25,-0.5625,-0.875
1480613092442158,0.125,-0.9375,-1
1480613092459203,0.3125,-1.1875,-0.9375
1480613092472739,-0.625,-1.375,-1.125
1480613092495812,-0.875,-1.25,-0.8125
1480613092518371,0.6875,-0.625,-0.8125
1480613092540932,0.3125,-0.6875,-0.3125
1480613092555972,-1.8125,-0.8125,-0.25
1480613092587556,-1.125,-0.6875,0.0625
1480613092592569,1.25,-1.875,-0.8125
1480613092617134,-2.3125,-2.125,0.4375
1480613092638191,-0.6875,-1.0625,0.4375
1480613092661755,0.4375,0.25,0.25
1480613092675790,-1.75,-0.125,-0.5
1480613092704868,0.625,0.1875,-0.25
1480613092720911,-0.625,-0.5625,0.0625
1480613092741970,-2.375,-0.75,1.1875
1480613092759012,0.25,0.0625,0.4375
1480613092772548,0.6875,0.625,-1.125
1480613092796111,-1,0.375,-1.625
1480613092818169,-2,-0.3125,-0.9375
1480613092839226,-1.6875,-0.9375,-0.3125
1480613092857775,-0.3125,0.1875,-0.0625
1480613092878331,-0.9375,0.5,-0.125
1480613092899386,-0.875,0.6875,-0.3125
1480613092915929,-0.6875,0.75,-0.5625
1480613092946514,-0.1875,0.4375,-0.1875
1480613092959545,-1,0.5,0.6875
1480613092976593,-1.875,0.625,0.9375
1480613092998651,0.6875,0.9375,0.1875
1480613093019706,0.5,1.4375,0
1480613093041764,-1.375,1.625,-0.1875
1480613093058308,-1.625,1.4375,-0.25
1480613093079865,-0.625,0.625,-0.5625
1480613093095909,-0.375,0.4375,-0.5625
1480613093118468,-1.0625,1,-0.25
1480613093139524,-0.5,1.0625,-0.6875
1480613093156071,-0.1875,1.125,-1
1480613093178128,-0.5,0.1875,-1.6875
1480613093199684,1.25,0.625,-2.3125
1480613093217231,2.5,2.3125,-1
1480613093238287,-1,2.9375,0.4375
1480613093259343,-1.25,0.625,1.875
1480613093276389,1.125,-0.5,0.625
1480613093298449,3.5,0.25,0.125
1480613093329029,1,1,0.25
1480613093337551,-0.875,0.625,0.4375
1480613093358606,-0.125,-0.25,-0.125
1480613093380666,0.5,-1.0625,0.4375
1480613093395706,1.1875,-0.9375,-0.25
1480613093418266,-0.25,-0.3125,-0.3125
1480613093443333,-1.3125,-0.625,-0.375
1480613093455364,0.9375,0.125,-0.875
1480613093478427,0.875,-0.125,-0.1875
1480613093517028,-0.375,-0.1875,0.4375
1480613093522042,-0.0625,-0.125,0.9375
1480613093538586,1.4375,-0.25,0.25
1480613093561647,2.4375,-0.5625,-0.8125
1480613093575183,1.9375,-0.75,-1.125
1480613093598246,0.125,-0.3125,-0.5
1480613093620804,-0.125,0.0625,-0.125
1480613093641860,0.8125,-0.5,0.625
1480613093658404,2.4375,-0.125,0
1480613093686981,2.625,0.625,0.0625
1480613093695002,-0.875,-0.1875,0.4375
1480613093718564,-0.9375,-0.375,0.75
1480613093741125,1.5625,-0.125,0.3125
1480613093755162,0.5625,-0.4375,-0.0625
1480613093787247,-1.1875,-0.9375,-0.5625
1480613093800783,0.5,-1.125,-0.0625
1480613093829360,0.3125,-0.8125,0.375
1480613093838384,-0.3125,-0.8125,1.3125
1480613093860952,0.625,-0.25,0.375
1480613093881999,-1.25,0.1875,-0.75
1480613093898545,-1.9375,-0.6875,-1.5625
1480613093929126,-0.9375,-1.3125,-1.5625
1480613093942161,-1.0625,-2.0625,-0.625
1480613093958202,-0.75,-2.1875,-0.875
1480613093980762,-2.5625,-2.4375,-0.875
1480613094001818,-2.1875,-1.6875,-0.8125
1480613094019369,2.4375,-2.5625,-2
1480613094040922,-2.1875,-0.5,-0.375
1480613094072006,-7.0625,0.8125,1
1480613094078523,-2,2.625,-0.1875
1480613094115119,-0.8125,0.75,-0.75
1480613094122138,0.6875,-0.375,0
1480613094138683,-1.875,-0.625,0.1875
1480613094160741,-5.25,-1.5625,0.9375
1480613094181796,0,-0.9375,-0.25
1480613094198343,2.3125,-0.625,0
1480613094220902,0.0625,-0.375,0.5
1480613094243461,-2.4375,-0.125,1.25
1480613094258502,-1.6875,0.25,1.375
1480613094282064,0.4375,0.5625,0.5
1480613094304122,1.0625,1.0625,0.75
1480613094318159,-1.5,1.5625,2.25
1480613094348240,-1.6875,1.9375,1.5
1480613094363280,0.625,1.8125,0.8125
1480613094392858,1.375,0.375,0.125
1480613094400880,-0.75,0.5,0.625
1480613094438981,-0.5,1.1875,0.4375
1480613094441488,0.125,1.5625,-1
1480613094461541,-0.0625,0.3125,-1.8125
1480613094483600,1.25,0.0625,-1.625
1480613094497638,0.25,0.375,-0.75
1480613094520698,0.75,0.6875,-0.625
1480613094544261,0.6875,0.75,-1.5625
1480613094557797,0.0625,-0.1875,-1.75
1480613094581359,0.4375,-0.3125,-1.4375
1480613094610944,0.6875,-0.125,-0.9375
1480613094617957,0.5,-0.5625,-0.3125
1480613094642022,1.6875,-0.5,-0.875
1480613094671098,1.0625,-0.375,-2.0625
1480613094679120,-0.4375,-0.875,-2.25
1480613094700677,0.125,-1.125,-2.125
1480613094723237,2.25,-0.125,-1.5625
1480613094744293,2.625,0,-2.3125
1480613094760838,0,-0.6875,-2.3125
1480613094783397,0.875,0.5,-1.6875
1480613094804454,1.8125,0.8125,-0.75
1480613094820998,0,0.8125,0.125
1480613094843559,-0.25,0.375,1
1480613094866118,3.5,0.5625,1
1480613094905723,1.125,0.1875,1.0625
1480613094910743,1.75,0.3125,0.75
1480613094924273,2.0625,-0.125,0
1480613094946834,0.4375,-1,-0.25
1480613094963377,0.9375,-2.4375,-0.1875
1480613094993563,2.1875,-3,-0.4375
1480613095001083,3.125,-2.375,-0.4375
1480613095029660,1.8125,-1.875,0.1875
1480613095044198,0.3125,-1.3125,0.5625
1480613095060742,0.6875,-0.8125,0.5625
1480613095083302,0.6875,-1,0.125
1480613095104358,1.1875,-0.875,0.125
1480613095120901,1.1875,-0.5625,-0.125
1480613095143462,-0.0625,-0.375,-0.1875
1480613095189083,0.25,-0.9375,-0.75
1480613095191589,0.9375,-1.5,-0.375
1480613095209638,0.6875,-1.125,-0.4375
1480613095227686,0.4375,-0.125,-0.125
1480613095240721,0.875,0.3125,-0.5
1480613095270800,0.75,-0.1875,-0.125
1480613095285840,0.625,-1.0625,0.4375
1480613095301383,1.1875,-1.0625,1.375
1480613095323942,1.9375,-0.375,0.8125
1480613095346503,0.4375,-0.125,-0.4375
1480613095361042,-0.9375,-0.625,-1.3125
1480613095383600,0.6875,-1.3125,-0.9375
1480613095406161,1.625,-1.75,-0.375
1480613095421201,0,-1.625,0.4375
1480613095458299,-1.125,-0.8125,0.5
1480613095465820,1,0.125,-0.1875
1480613095486875,1,0.1875,-0.1875
1480613095503420,-0.8125,-0.3125,-0.4375
1480613095525979,-0.6875,-0.4375,-0.3125
1480613095540016,-0.3125,-0.9375,-0.3125
1480613095564081,-0.125,-1.1875,0.1875
1480613095586139,1.9375,-0.75,0.125
1480613095600178,0.6875,0.0625,0.0625
1480613095623238,-1,-0.3125,0.4375
1480613095645798,0.8125,-0.625,0.625
1480613095684902,2.375,-0.1875,0.75
1480613095690418,2.0625,-0.125,0.75
1480613095719995,0,-0.25,1.3125
1480613095734534,-1.4375,-0.6875,0.375
1480613095743558,0.9375,-0.25,-0.0625
1480613095773639,1.375,0.0625,-0.0625
1480613095787675,-1.375,-0.1875,0.3125
1480613095803718,-1.0625,-0.0625,0.0625
1480613095825777,1.1875,0.375,-0.375
1480613095846836,0.5,0.125,-0.4375
1480613095863377,-0.625,-0.125,-0.1875
1480613095886939,0.125,-0.3125,-0.6875
1480613095914513,-0.75,-0.0625,-1.25
1480613095923537,-0.0625,-0.6875,-0.8125
1480613095962642,-0.1875,-0.5625,0.1875
1480613095967153,-0.375,-0.75,0.625
1480613096007761,2.3125,-1.3125,-1.75
1480613096011772,-2.125,-1.4375,0.5
1480613096026812,-2.8125,-2.125,0.9375
1480613096043357,-2.0625,-0.125,1.625
1480613096065916,-0.875,-0.5625,0.8125
1480613096088475,2.25,-0.4375,0.0625
1480613096103516,0.25,-0.875,-0.875
1480613096126076,-1.375,-1.875,0.25
1480613096148636,-0.5625,-1.1875,0.1875
1480613096172198,-2.4375,-0.875,0.5
1480613096186236,-2.875,-0.8125,-0.4375
1480613096208294,-0.5625,-0.625,-1.3125
1480613096236870,-0.625,-0.75,-0.1875
1480613096245895,-2.125,-0.9375,1.1875
1480613096268956,-1.9375,0.5625,2.125
1480613096282994,-0.4375,1.6875,1.5
1480613096306055,0.1875,1.6875,0.3125
1480613096328614,-0.5,0.625,0.5
1480613096342657,-2.0625,0,1.3125
1480613096373736,-0.6875,1.375,1.3125
1480613096388273,0.0625,2.375,1.125
1480613096402812,-1.75,1.875,0.5625
1480613096425873,0.5625,2.5,-0.125
1480613096448433,1.4375,1.5625,0.4375
1480613096469490,-0.9375,0.5625,0.75
1480613096517116,-2.0625,0.5,0.4375
1480613096524135,0.0625,0.375,0.5
1480613096526641,0.8125,0.1875,0.3125
1480613096547697,1.3125,0.75,-0.3125
1480613096568252,0.0625,1.0625,0
1480613096582790,-1.3125,0.6875,0.0625
1480613096607857,-0.875,-0.125,-0.5
1480613096634429,0.625,-0.375,-0.4375
1480613096649468,1.0625,0.125,0.6875
1480613096666013,-0.875,1,0.375
1480613096688572,-0.0625,1.125,-0.5625
1480613096709628,1.25,0.5,-0.625
1480613096726172,0.375,0.125,-0.1875
1480613096755751,0.0625,0.375,0.375
1480613096769286,-0.1875,0.5,0.25
1480613096791847,-0.125,0.625,-0.9375
1480613096822930,0.9375,0.5,-1.375
1480613096830952,0.5,-0.375,-1.0625
1480613096845991,-0.375,0.4375,-0.0625
1480613096869554,-1.8125,1.5,0.0625
1480613096890108,-2.1875,1.0625,-0.6875
1480613096905650,0.5,1.8125,-1.4375
1480613096934226,3.375,1.4375,-0.8125
1480613096949266,1.75,1.1875,-1.375
1480613096965810,0.125,1.1875,-1.5
1480613096988370,0.0625,0,-1.3125
1480613097009427,0.625,-1.625,-0.9375
1480613097025468,-1.5,-3.25,0.25
1480613097048529,2.25,-1.125,0.3125
1480613097071090,1.375,0.5625,-0.25
1480613097086130,0.0625,0.375,0.375
1480613097108689,-0.5,-0.3125,-0.0625
1480613097130750,0.3125,-1,-0.125
1480613097145291,2.5,-0.1875,0.625
1480613097168348,1.875,-0.125,1.0625
1480613097198429,0.6875,-0.125,1.5625
1480613097205949,1.75,0.3125,1
1480613097229018,1.5,0.4375,-0.125
1480613097257085,1.875,-0.1875,-1.375
1480613097265108,1.8125,-1.125,-1.25
1480613097301704,0.3125,-2,-1.5
1480613097310729,-0.125,-1.8125,-0.875
1480613097325266,1.125,-1.1875,-0.1875
1480613097348327,1.4375,-0.25,-0.0625
1480613097378407,0.1875,-0.1875,0.4375
1480613097385425,1.25,0.0625,-0.1875
1480613097408487,2.5625,0.625,-0.5
1480613097431049,1,0.5625,0.125
1480613097446090,-0.25,0.375,0
1480613097468146,-0.125,-0.125,-0.4375
1480613097490707,1.625,-0.5,-1.3125
1480613097505244,0.75,-1.125,-1.8125
1480613097528306,-0.625,-1.3125,-0.875
1480613097550867,-0.6875,-0.125,-1.1875
1480613097580946,1.1875,1,-1
1480613097588466,0.8125,0.9375,-0.6875
1480613097611031,-1.625,0.5,-0.5625
1480613097632083,-1.875,-0.5,0.125
1480613097656647,1.0625,-0.125,0.25
1480613097670686,2.25,0.125,0.125
1480613097691742,-0.125,0.1875,0.9375
1480613097723325,-1.6875,-0.25,1.375
1480613097736861,0.0625,-0.125,1.4375
1480613097768946,2.875,0.3125,0
1480613097772456,1.125,0.3125,-0.125
1480613097814568,-1.75,-0.9375,0.625
1480613097819581,-1.8125,-2.0625,0.625
1480613097829109,0,-1.6875,-0.0625
1480613097851165,0.5625,-1.125,0.1875
1480613097872723,-1.6875,-0.3125,0.9375
1480613097888765,-1.4375,-0.0625,0.875
1480613097910829,-0.25,0.4375,0
1480613097933885,-0.8125,-0.6875,0.3125
1480613097948423,-1,-0.875,0.3125
1480613097979509,0.625,-1.3125,-0.8125
1480613097992039,0.75,-1.5625,-1.1875
1480613098008583,-1.875,-0.25,0.5
1480613098046184,-2.25,-0.6875,1.0625
1480613098053202,-1.375,0.9375,0.875
1480613098092306,2.625,1.5,-0.25
1480613098097320,1.125,0.8125,-0.875
1480613098113365,-2.125,-0.4375,0.3125
1480613098135922,-1.3125,-0.8125,0.1875
1480613098150964,0.375,-0.8125,-0.3125
1480613098174024,0.1875,-0.875,-0.3125
1480613098187560,0.875,-0.4375,-0.75
1480613098211625,-0.6875,-0.375,-0.875
1480613098233683,-2,-1.1875,-0.375
1480613098247720,-0.375,-0.1875,-0.3125
1480613098270781,1.875,0.25,0.25
1480613098293341,0.8125,0.5,-0.1875
1480613098321917,-0.6875,0.6875,-0.1875
1480613098330942,-2.75,0.375,0
1480613098369043,-1.625,0.125,-0.625
1480613098378568,1.0625,0.8125,-0.625
1480613098391604,1.4375,1.25,-0.9375
1480613098415166,0.3125,0.9375,-0.75
1480613098427702,-1.625,-0.125,-0.5
1480613098451261,-0.75,-0.5625,-0.625
1480613098479336,1.4375,-0.125,-1.125
1480613098487859,1.5,0.5,-1.1875
1480613098512425,0.75,-0.0625,-1.875
1480613098516435,1.6875,0.3125,-1.875
1480613098538995,1.1875,0.4375,-0.5625
1480613098557043,-1.3125,-0.625,0.25
1480613098601662,-1.875,0.5,1.875
1480613098603667,-0.625,1.3125,2.5
1480613098616702,1.3125,0.625,0.9375
1480613098638761,2.1875,0.9375,1.5625
1480613098658814,1.8125,1.125,1.5625
1480613098689896,-1.0625,0.3125,1.3125
1480613098696915,-0.25,-1.125,0.3125
1480613098718974,1.0625,-1.4375,-1.4375
1480613098750056,1,-1.75,-1.3125
1480613098763594,0.6875,-1,-0.375
1480613098781640,-0.8125,-0.5,0.125
1480613098801192,-2,-0.5625,0.5
1480613098832777,-0.5625,-0.8125,0.3125
1480613098839294,1.1875,-0.125,-0.25
1480613098878900,0.5625,0.0625,0.1875
1480613098880904,-1.5625,-0.125,0.5625
1480613098898953,-1.75,-0.5,0.5625
1480613098933043,0.625,-0.375,-0.5
1480613098937556,0.875,-0.1875,-0.875
1480613098958612,-0.5,-0.625,-0.625
1480613098981171,0.0625,-0.75,-0.1875
1480613098996211,1.3125,-0.8125,-0.125
1480613099018771,0.6875,-0.3125,0.125
1480613099052862,-0.875,-0.6875,-0.1875
1480613099057876,0.625,-0.125,-0.3125
1480613099078933,1.125,0.125,-0.5625
1480613099111519,0.6875,0.375,0
1480613099116030,0.6875,0.125,0.3125
1480613099155134,0.75,-0.125,0.125
1480613099161651,1.125,-0.25,-0.25
1480613099176191,1.125,-0.0625,-0.4375
1480613099198751,0.125,0.125,0.125
1480613099221311,-0.3125,0.0625,0.0625
1480613099236350,0.375,0.375,-0.25
1480613099258910,-0.6875,-0.0625,0.25
1480613099281470,-1.0625,-0.375,0.5625
1480613099296010,0.5625,-0.125,0.8125
1480613099323081,0.375,-0.125,0.75
1480613099342633,-0.25,0.1875,0.25
1480613099356670,-0.375,-0.125,0.25
1480613099382238,-0.375,-1.0625,0
1480613099401289,-0.25,-1.3125,-0.0625
1480613099416329,0.3125,-0.75,0.1875
1480613099438889,0.5,-0.125,0.625
1480613099469471,-0.4375,0.25,0.5625
1480613099484008,-0.5625,-0.25,0.375
1480613099499049,0.625,-0.3125,-0.125
1480613099522611,0.3125,-0.125,0
1480613099537652,-1.25,-0.125,0.4375
1480613099567732,-0.4375,-0.125,0.625
1480613099581270,0.3125,0.25,-0.3125
1480613099605332,-0.4375,0.4375,-0.4375
1480613099618868,-0.0625,-0.3125,0.25
1480613099645944,0.25,-0.5625,0.75
1480613099666495,0.8125,-0.1875,0.1875
1480613099679028,0.5625,-0.0625,-0.9375
1480613099701087,-1.75,-0.25,-1
1480613099717631,-1.125,-1,-0.125
1480613099754228,2.0625,0.0625,0.625
1480613099766764,0.5,-0.125,0.6875
1480613099778293,-1.4375,-0.125,0.5
1480613099798847,0.8125,0.5,0.0625
1480613099821406,1.75,-0.3125,-0.5
1480613099843982,0.375,-1.4375,0.0625
1480613099858505,0.1875,-2.0625,1.0625
1480613099881065,0.625,-1.5,0.8125
1480613099897614,1,-0.8125,0.1875
1480613099918665,0.1875,-1.5,0.625
1480613099944235,-0.625,-1.6875,0.625
1480613099959273,2.0625,-1.0625,0.0625
1480613099988350,-3.8125,-1.6875,1.5625
1480613100001386,-1.3125,-1.3125,1.125
1480613100019433,2.375,1.5625,0.625
1480613100041492,0.3125,2.0625,0.125
1480613100061044,0.4375,1.5625,0.1875
1480613100080099,-1.4375,0.9375,-0.125
1480613100098645,-0.5,0.4375,-0.1875
1480613100121204,1.625,0.5,-1.5
1480613100159305,-1.4375,-0.375,-0.6875
1480613100176351,-1.0625,-0.375,-0.5
1480613100181364,0.6875,-0.375,-0.9375
1480613100211449,-1.875,-1,0
1480613100221973,-1.5,0.125,-0.3125
1480613100243536,0.75,0.875,-0.3125
1480613100264085,1.6875,-0.125,-0.5
1480613100278623,5.875,-0.125,-1.9375
1480613100312713,9.6875,-0.125,-1.1875
1480613100323743,4.625,0.75,-0.8125
1480613100338784,-6.4375,0.6875,-0.25
1480613100368863,-7.9375,0.875,-0.0625
1480613100383903,-0.6875,2.1875,-0.375
1480613100398944,3.9375,2.25,0.6875
1480613100421503,0.4375,1.625,1.125
1480613100444067,-3,2.5,0.5625
1480613100459103,-3.125,1.875,-0.6875
1480613100491690,-1.0625,0.6875,-1.0625
1480613100503723,0.75,-0.5,-0.125
1480613100520266,1.1875,-0.5625,-1.125
1480613100541328,-0.3125,-0.6875,-1.4375
1480613100563882,-2,-2,-1.375
1480613100587946,-2,-1.1875,-0.25
1480613100601482,0.6875,0.0625,0.5625
1480613100625045,0.9375,-0.3125,1.125
1480613100640085,0.5,-1.1875,1
1480613100661646,1.5625,-0.9375,0.75
1480613100683701,1.8125,-0.375,1
1480613100706261,0.6875,0.5,1.3125
1480613100721301,-0.375,0.875,1.5
1480613100743861,-0.125,0.875,0.6875
1480613100767926,1.4375,1.5,-0.5
1480613100781462,2.1875,1.75,-0.375
1480613100805023,0.1875,1.5,0.25
1480613100821567,-1.375,0.6875,0.5625
1480613100841120,0.9375,0.375,-0.125
1480613100863680,1.875,0.6875,-1.4375
1480613100889249,1.8125,0.1875,-1.0625
1480613100908800,1.25,-0.0625,-0.1875
1480613100923840,-0.125,-0.375,-0.125
1480613100956427,0.4375,-0.3125,-0.4375
1480613100963947,3.0625,0.875,-1
1480613100986505,2.6875,0.625,-1.125
1480613101006058,-1.0625,-0.6875,-0.25
1480613101023605,-1.0625,-0.875,-0.375
1480613101043659,1.5,0.0625,-1.1875
1480613101061709,1.875,0.375,-1.1875
1480613101082762,-0.4375,0.0625,-1.1875
1480613101103818,-1.125,-1,-0.75
1480613101121866,1.3125,-0.5625,-0.8125
1480613101144426,2.8125,0.0625,-0.0625
1480613101163980,0.875,0.1875,0.25
1480613101187541,-0.1875,0.3125,0.5625
1480613101201077,1.0625,0.625,0
1480613101225141,1.5625,0.625,-0.25
1480613101241686,0.5,0.6875,-0.5
1480613101262741,-0.375,0.125,-0.0625
1480613101283798,0.375,0.0625,0.3125
1480613101314880,2,0.75,0.3125
1480613101321398,1.375,1.0625,0.625
1480613101343958,-0.0625,0.5625,0.5625
1480613101369525,-0.6875,0.3125,0.125
1480613101381055,1.0625,1,-0.375
1480613101405623,2.5,1.375,-0.3125
1480613101421664,-0.25,0.875,1
1480613101441216,-3.125,0.0625,1.25
1480613101463776,-0.9375,0.625,-0.1875
1480613101481825,2.8125,1.5625,-0.875
1480613101502880,0.4375,1.1875,-0.0625
1480613101523937,-2.75,0.375,0.625
1480613101542990,-2,0.25,0.5625
1480613101562539,0.875,0.875,-0.6875
1480613101585099,2.125,1.5625,-1
1480613101606155,-0.1875,1.25,0
1480613101622699,-3.1875,0.9375,0.875
1480613101643755,-1.75,0.875,0.625
1480613101666823,1.625,1.1875,-0.375
1480613101682859,0.625,0.9375,0.25
1480613101703915,-1.25,0.875,0.8125
1480613101734497,-1.75,1.0625,1.5
1480613101743022,-1.25,1.0625,0.75
1480613101763575,0.875,0.6875,0.25
1480613101786136,1.1875,0.625,-0.125
1480613101802678,-0.5,0.4375,0.25
1480613101823733,-1.3125,0.0625,0.6875
1480613101846296,-0.375,0.125,0.1875
1480613101871862,1,-0.125,-0.3125
1480613101883893,1.125,0,-0.9375
1480613101906955,-1.9375,-0.125,-0.5
1480613101930017,-2.8125,-0.125,-1.125
1480613101943554,0.125,-0.5625,-1.3125
1480613101973632,1.8125,-0.8125,-1.625
1480613101984661,0.125,-0.8125,-0.875
1480613102012741,-1.5625,-0.9375,-0.125
1480613102026272,-0.9375,-0.4375,0.0625
1480613102046827,2.1875,-0.125,-0.5625
1480613102065377,1.375,-1,0
1480613102086433,-0.5625,-1.5,0.5
1480613102114005,0,-1.125,1.25
1480613102124033,0.25,-0.6875,1.75
1480613102153612,1.125,-0.8125,0.8125
1480613102164641,1.4375,-1.0625,-0.5
1480613102191212,-1.9375,-1.8125,-1.25
1480613102207755,-1.1875,-1.625,-0.9375
1480613102224300,1.625,-0.6875,-1.0625
1480613102246860,1.1875,-0.125,-0.9375
1480613102266412,-0.4375,-0.375,-0.75
1480613102285462,-0.5625,-1.1875,-0.6875
1480613102305014,-0.25,-1.75,-0.9375
1480613102326070,-0.875,-2.3125,-1.1875
1480613102350134,-2.4375,-2.5625,-0.4375
1480613102380214,-1.8125,-3.625,-1.1875
1480613102386229,-1.5625,-3.25,-1.1875
1480613102404278,-1.75,-3.0625,0.5
1480613102431890,-3.75,-1.3125,1.6875
1480613102446392,-3.8125,0.5625,-0.625
1480613102470454,-0.1875,1.1875,-1
1480613102487500,-0.8125,-0.3125,-1.6875
1480613102507553,-3.1875,-1.1875,-0.125
1480613102531618,-2.8125,-0.375,0.375
1480613102545155,-0.375,1.25,-0.625
1480613102573729,0.8125,1.9375,-0.625
1480613102584257,-2.4375,1.875,0
1480613102605313,-4.125,1.125,0.375
1480613102626369,-0.625,1.0625,-0.1875
1480613102660460,1.5625,1.1875,-0.625
1480613102664972,-0.75,1.1875,-0.5
1480613102686529,-2.8125,0.5,0.125
1480613102704076,-2.25,-0.3125,0.6875
1480613102725132,0.8125,0.25,0.3125
1480613102746188,-0.0625,0.125,-0.3125
1480613102764236,-3.1875,0.3125,-0.1875
1480613102799329,-2.4375,0.75,0.625
1480613102809357,0,0.8125,0.875
1480613102828909,-0.6875,-0.0625,1.3125
1480613102846454,-0.625,0.25,0.0625
1480613102866006,-1.3125,0.4375,-0.3125
1480613102884557,-1.25,-0.625,0.625
1480613102909624,-0.6875,-1.5,0.5625
1480613102927670,0.4375,-1.1875,0.25
1480613102944217,-0.5625,0.1875,-0.25
1480613102972791,-1.4375,0.625,-0.4375
1480613102986326,-1.0625,-0.0625,-0.75
1480613103004374,1.125,-0.4375,0.3125
1480613103039969,0.0625,-0.25,0.6875
1480613103045986,-0.5625,0.875,-0.0625
1480613103064034,0.5,0.9375,-1.5625
1480613103086594,1.75,-0.625,-2.375
1480613103106145,1.125,-0.625,-2.125
1480613103128706,0.1875,0.875,-2.1875
1480613103146754,-0.125,1.375,-2.5625
1480613103166305,0.3125,-0.125,-2.375
1480613103205911,-1.125,-2.6875,-2.4375
1480613103211427,3.5,-2.5,-1.3125
1480613103226465,4,-0.6875,-0.6875
1480613103256044,1.0625,-0.3125,1.125
1480613103274093,1.5,-1.3125,1.5
1480613103286124,3.3125,-1.75,1.125
1480613103316203,4.625,-1.5625,-0.125
1480613103329240,2.9375,-1.3125,-0.8125
1480613103353805,0.6875,-1.4375,-0.5625
1480613103368844,1.375,-1.625,-0.6875
1480613103392908,3.6875,-2.3125,-1.25
1480613103407447,2.9375,-2.4375,-0.25
1480613103436022,1.625,-1.25,1
1480613103452674,0.9375,-0.125,1.5
1480613103467716,0.5625,-0.125,0.9375
1480613103508322,2.375,-0.375,0.125
1480613103512834,3.6875,-1.4375,0.75
1480613103552439,0.8125,-1.625,1.8125
1480613103556952,0.5,-1.3125,0.9375
1480613103566477,0.6875,-1,0.3125
1480613103595055,0.9375,-0.5625,-0.375
1480613103608588,2,-0.9375,-1.4375
1480613103628642,0.5,-1.625,-1.6875
1480613103647692,-0.6875,-2.25,-1.125
1480613103668749,1.25,-1.75,-1.25
1480613103687298,1.75,-1.625,-0.625
1480613103707853,1.3125,-0.75,-0.0625
1480613103728908,0.5625,0.125,0
1480613103751469,-0.8125,-0.125,-0.4375
1480613103782558,0.5625,-1.125,-0.125
1480613103789069,1.25,-0.8125,0.5625
1480613103828179,-0.5625,-0.25,1.1875
1480613103830681,-1.1875,0.0625,1
1480613103880813,0.3125,0.1875,0.1875
1480613103883320,0.5,-0.0625,0.1875
1480613103888834,-0.1875,-0.3125,0.6875
1480613103908895,-0.375,0.0625,0.9375
1480613103926435,0,0.8125,0.25
1480613103948994,-1.0625,0.25,-0.3125
1480613103968546,-1.5,-0.5,-1
1480613103986594,-1.25,-0.875,-0.6875
1480613104009155,-0.9375,-0.9375,0.1875
1480613104054776,-0.625,-0.625,0.3125
1480613104058786,-0.4375,-1.5625,0.125
1480613104069314,-1.625,-2,-0.1875
1480613104097891,-1,-1.3125,-0.375
1480613104113933,-1.125,-1.0625,1.25
1480613104128974,-0.625,0,0.75
1480613104150530,-1.8125,1.5625,0.625
1480613104166573,-3.0625,0.8125,0.875
1480613104189133,-0.75,1.25,-0.125
1480613104208685,0.8125,0.875,0.625
1480613104226734,-1.375,0.5625,0.625
1480613104249794,-1.875,0.5,-0.375
1480613104277870,0.25,0.375,-0.75
1480613104288397,-0.4375,-0.0625,-0.6875
1480613104339032,-1.25,0.6875,-0.25
1480613104345050,-0.625,1,0.375
1480613104358584,-0.8125,0.75,0.3125
1480613104369112,-0.125,0.875,-0.25
1480613104390168,-0.0625,1.25,0.125
1480613104428269,-1.75,2.0625,0.25
1480613104430776,-1.5,1.4375,0.4375
1480613104450328,-0.5625,0.3125,0.6875
1480613104471384,0.625,-0.125,-0.0625
1480613104491939,0,0.5625,-0.875
1480613104511996,-1.5,1.25,-0.4375
1480613104526531,-2.5,0.625,0.1875
1480613104549090,-1.6875,0.5625,-0.125
1480613104570146,1.375,0.3125,-0.5
1480613104610255,-0.5625,0.125,-0.125
1480613104615266,-2.4375,0.25,0.1875
1480613104653368,-1.0625,0.5625,-0.125
1480613104655875,-0.4375,0.5,-0.25
1480613104669411,-0.5625,0.1875,-0.75
1480613104708516,0.3125,0,-0.1875
1480613104712529,0.375,0.25,-0.0625
1480613104729070,-0.5,0.4375,0.3125
1480613104752633,-1.125,-0.0625,-0.1875
1480613104771182,-1.1875,-0.0625,-0.8125
1480613104789730,0.4375,0,-0.5625
1480613104811794,-0.5,-0.0625,-0.1875
1480613104840368,0.125,0.0625,-0.875
1480613104849390,1.5625,-0.5625,-1.25
1480613104886488,-0.0625,-0.375,-1.1875
1480613104891502,-2.125,0.5625,-0.75
1480613104909049,-0.0625,1.125,-0.3125
1480613104937625,0.3125,0.1875,0.625
1480613104951160,1.6875,0.5625,0.625
1480613104984750,1.75,1.75,1.5
1480613104991769,-0.75,1.5,1.1875
1480613105011322,0,0.625,0.375
1480613105029369,1.5,-0.5,-0.4375
1480613105051427,0.9375,-1.125,-1.0625
1480613105071480,-1,-1.0625,-0.5625
1480613105089027,-0.875,-1.0625,-0.5625
1480613105111593,1.125,-1.25,-0.0625
1480613105131139,1.9375,-0.9375,0.25
1480613105170744,0.625,-0.75,0.5
1480613105173252,-1.4375,-0.625,0.5
1480613105191299,-0.9375,-0.3125,0.125
1480613105209348,1.1875,0.0625,-0.0625
1480613105230906,0.6875,0.0625,-0.4375
1480613105251459,-0.3125,-0.125,-0.375
1480613105268505,-0.9375,-0.1875,-0.8125
1480613105293070,-0.25,-0.1875,-0.3125
1480613105312128,1.3125,-0.5,-0.1875
1480613105328664,1.75,-0.125,0.25
1480613105350724,0.75,0.25,0.625
1480613105371779,0.5625,0.25,1.125
1480613105395843,0,-0.25,1.3125
1480613105410885,0.75,-0.5625,0.9375
1480613105440963,1.1875,-0.25,0.6875
1480613105449988,-0.3125,-0.5625,1.3125
1480613105471043,-0.375,-0.125,1
1480613105491598,0.5625,-0.125,0.3125
1480613105508646,0.3125,-0.6875,0.4375
1480613105530703,-0.25,-0.5625,0.5625
1480613105551758,0.25,-0.375,0.5625
1480613105576324,0.125,-0.375,0.25
1480613105591363,-0.3125,-0.375,0.25
1480613105611926,0,-0.25,0.25
1480613105627460,-0.5,-0.1875,0.25
1480613105651022,-0.1875,-0.5,0.3125
1480613105673584,-1.375,-2.0625,0.1875
1480613105687620,1.875,-1.625,-2.3125
1480613105716696,-3.625,0.3125,-1.625
1480613105733742,-3.625,-0.5625,-0.8125
1480613105747780,0.25,0.125,-0.625
1480613105770843,-0.8125,-0.0625,-2.1875
1480613105795406,1.375,-0.5625,-1.125
1480613105807438,-0.375,-1.125,0.25
1480613105831002,-2.5625,-1.625,0.5
1480613105853561,-0.1875,-1,-0.5625
1480613105867598,2.0625,-0.9375,-1.3125
1480613105891663,-0.6875,-0.75,-0.8125
1480613105918736,-3.3125,-2,-0.25
1480613105927759,-1.125,-1.5,0.375
1480613105950820,-0.1875,-0.5625,0.625
1480613106004964,0.5,0.125,0.9375
1480613106011983,-0.375,-0.125,0.75
1480613106014489,-0.75,-0.875,0
1480613106033541,-1.625,-0.8125,-0.25
1480613106048079,-0.125,-1,0.375
1480613106070639,0.25,-1,0.625
1480613106094205,1,-0.25,0.1875
1480613106114254,-0.1875,0,0.0625
1480613106138318,-3.5,-0.75,0.25
1480613106153359,-1.6875,-0.5625,0.0625
1480613106181935,1.125,-0.125,-0.125
1480613106191961,0.3125,0.75,0.1875
1480613106227562,-1.4375,1.1875,-0.5
1480613106234073,-1.8125,0.375,-0.75
1480613106257134,0.4375,-0.25,-0.9375
1480613106273177,1.1875,-0.3125,-0.75
1480613106294234,0.5625,-0.375,-0.8125
1480613106318297,-1.375,-0.125,-1.0625
1480613106334341,-0.625,-0.1875,-1.5625
1480613106354895,3,-1,-1.25
1480613106371940,2.5625,0.375,-1
1480613106401519,4.8125,1.3125,0.1875
1480613106414554,4.1875,1.875,1.5625
1480613106430596,2.625,1.9375,3.8125
1480613106460676,2.5625,2.375,4
1480613106474212,0.625,2.5,3.125
1480613106496773,-2.1875,1.6875,1.5
1480613106513321,-0.625,1,0.625
1480613106536377,3.3125,-0.3125,-0.125
1480613106551919,2,-1.75,0.6875
1480613106573477,0.625,-2.0625,1.125
1480613106602052,0.6875,-0.375,1.8125
1480613106611080,2.5625,0.375,0.9375
1480613106633636,1.5625,0.5625,-0.25
1480613106655695,0.8125,0.6875,-0.25
1480613106671744,0.6875,0.3125,0
1480613106693296,0.1875,0.5,0.0625
1480613106715856,0.875,0.5625,-0.125
1480613106738415,1.1875,0.9375,-0.5625
1480613106753461,1.625,0,-0.8125
1480613106782031,0.6875,-0.125,-0.625
1480613106790052,-0.4375,-0.375,-0.4375
1480613106815119,0.4375,0.375,0.25
1480613106836175,1,0.5625,0.3125
1480613106850212,-0.25,0.375,-0.375
1480613106874778,-0.375,-0.0625,-0.4375
1480613106895834,0.1875,-0.3125,-0.25
1480613106916890,0.1875,0.3125,-0.0625
1480613106933935,0.625,0.3125,-0.625
1480613106956997,-0.0625,-0.25,-0.1875
1480613106970031,-1.3125,-1.0625,-0.75
1480613106994095,-0.625,-1.125,-0.5625
1480613107023172,0.4375,-1.4375,0.5625
1480613107036708,1.375,-2,-0.375
1480613107060773,0.25,-3.625,-1
1480613107076816,-2.3125,-5,-2.8125
1480613107096869,-5.1875,-3.1875,0.1875
1480613107113413,0.1875,-1.0625,-0.5625
1480613107136975,1.3125,0.1875,-0.25
1480613107157028,-3,1.0625,0.0625
1480613107173071,-2.0625,1.4375,0.5
1480613107203152,-1.125,0.5625,1.125
1480613107216688,0.4375,0.125,1.5
1480613107240752,2.3125,0.5625,0.4375
1480613107255791,0.625,-0.9375,-0.125
1480613107291888,-2.875,-1.5625,-0.875
1480613107303920,-0.125,-0.875,-0.8125
1480613107323471,0.25,-0.625,-0.0625
1480613107337008,-1.0625,-0.0625,-0.25
1480613107353552,-0.0625,0.75,-0.8125
1480613107375610,-0.125,-0.125,-1.75
1480613107396666,2.4375,-0.3125,-2.1875
1480613107414213,3.625,0.125,-0.5625
1480613107435770,0.5625,-0.0625,2.1875
1480613107457327,-1.375,0.5625,2.375
1480613107473371,-3.8125,1.375,0.6875
1480613107495931,1,1.6875,-2.25
1480613107526010,5.9375,1.875,-3.125
1480613107533530,-0.8125,1.1875,0.5625
1480613107563110,-1.125,2.0625,1.25
1480613107579655,2,0.875,0.9375
1480613107593190,-1.5,-0.75,-0.0625
1480613107615749,-3.4375,-0.4375,0.3125
1480613107668890,0.875,0.875,0.5
1480613107671397,2.1875,0.5,0.9375
1480613107677915,-1.3125,-1.25,0.3125
1480613107697969,-1.1875,-2.0625,-0.75
1480613107715013,1.125,-0.75,-1.375
1480613107749104,1.125,0.1875,-0.5625
1480613107760134,-2.3125,-0.0625,0.375
1480613107772667,-2.9375,-0.0625,0.5625
1480613107803251,0.8125,-0.25,-0.5
1480613107818288,0.8125,0.25,-0.5625
1480613107856389,-1.875,-0.25,0.125
1480613107858898,-1.125,-0.25,0.6875
1480613107878454,1.375,0.375,0.4375
1480613107892485,2.125,0.625,0
1480613107916049,0.4375,-0.375,0.3125
1480613107938609,-0.4375,-0.5625,0.625
1480613107953648,0.3125,-0.5,0.375
1480613107975708,3.0625,0.3125,0.25
1480613107999270,1.8125,0.3125,0.5625
1480613108019323,-1.25,-1.1875,1.25
1480613108035867,0.625,-1.625,1.875
1480613108058427,4.8125,-1.0625,-0.6875
1480613108080987,-3.4375,-0.8125,-2.4375
1480613108096027,-6.9375,-1.3125,-3.375
1480613108118086,0.25,-0.625,-2.375
1480613108139643,-0.25,-0.6875,-2.4375
1480613108155686,-2,-0.625,-1.25
1480613108179248,-1.4375,-0.0625,-0.375
1480613108207824,0.125,-0.375,1.25
1480613108215846,3.9375,0.3125,1.1875
1480613108238907,1.5625,0.375,1.625
1480613108262470,-2.5,0.0625,1.6875
1480613108276006,-0.875,0.0625,0.4375
1480613108314107,1.75,0.1875,-0.5
1480613108319622,1.0625,-1.1875,-1.5625
1480613108335665,-1.6875,-2.6875,-1.1875
1480613108358224,-2.1875,-3.8125,-0.5625
1480613108379281,1.5625,-2.3125,-0.375
1480613108395824,2.75,-0.125,0.5
1480613108418385,-0.125,-0.125,1.75
1480613108440944,-1.875,-1.5,1.625
1480613108455985,-0.4375,-1.25,1.0625
1480613108479047,2.625,-1.75,1.25
1480613108500603,3.5,-2.625,0.625
1480613108515643,-6,-2.5,-0.4375
1480613108538203,-5.8125,-0.6875,-0.8125
1480613108560764,1.9375,-1,-1.9375
1480613108583324,-3.625,-4.5625,-3.0625
1480613108599366,-1.875,-3,-0.0625
1480613108636966,2.6875,-0.1875,0.125
1480613108641979,-1.0625,-0.0625,1.6875
1480613108658523,-1.875,-1.0625,2.125
1480613108680584,0.0625,-0.3125,1.625
1480613108695121,1.375,0.1875,0.9375
1480613108718182,0.0625,-1.125,0.75
1480613108740742,0.625,-1.625,0.625
1480613108755782,0.875,-1.375,0.625
1480613108778847,0.375,-0.5625,0.875
1480613108802406,0.0625,0.375,0.875
1480613108815943,-0.8125,0.1875,0.8125
1480613108838001,0.625,-0.375,0
1480613108860561,1.9375,-0.8125,-0.125
1480613108875101,0.5,-0.125,0.5625
1480613108905680,-1.4375,0.75,0.625
1480613108920721,0.1875,-0.125,-0.375
1480613108941777,1.625,-0.25,-0.625
1480613108958322,1.3125,-0.125,-0.125
1480613108980881,1.3125,-0.0625,-0.0625
1480613109001937,-0.25,-0.125,-0.4375
1480613109018481,1.3125,0.1875,-0.6875
1480613109048060,2.5625,0.0625,-0.6875
1480613109062096,-0.3125,-0.4375,0.4375
1480613109079149,1.3125,0.1875,-0.5
1480613109101201,2.4375,-0.125,-1.375
1480613109121755,1.125,-1,-2.125
1480613109144319,1.9375,-1.1875,-2
1480613109160860,1.4375,-1.8125,-2.125
1480613109181915,-0.4375,-0.3125,-1.5625
1480613109198962,2.375,1.3125,-1.1875
1480613109221019,4.0625,1.875,-0.4375
1480613109242075,3.6875,2.625,-1.125
1480613109259121,3.1875,2.5,-1.5625
1480613109280678,1.5625,3.0625,-0.0625
1480613109326301,5.625,4.625,0.75
1480613109328806,3.3125,5.1875,1.6875
1480613109346854,0.0625,3.9375,1.75
1480613109361894,0.75,4,0.875
1480613109380444,1.9375,4.375,0.5625
1480613109401500,2.25,3.75,0.6875
1480613109423558,1.5625,1.0625,1.5
1480613109438097,0.4375,-0.0625,1.5
1480613109460657,0.6875,-0.0625,0.625
1480613109483217,1.25,0.625,0.5625
1480613109504273,0.625,0.1875,0.6875
1480613109520817,-0.3125,-0.3125,1.125
1480613109543879,0.6875,-0.4375,0.25
1480613109557920,0.1875,0.8125,-0.1875
1480613109586993,-0.125,-0.25,-0.3125
1480613109605041,0.1875,-1.375,0
1480613109617575,1.4375,-2.125,0.5
1480613109640636,0.3125,-1.5625,0.6875
1480613109664200,-1.625,-0.375,0.625
1480613109677735,-0.625,-0.75,0.1875
1480613109706811,0.375,-1.3125,0.1875
1480613109723356,0.9375,-1.25,1.5625
1480613109740902,1.0625,-1,2.25
1480613109765969,-1.4375,-0.5,0.9375
1480613109783516,-3.375,-0.4375,-0.4375
1480613109819110,0.125,-0.3125,-1.4375
1480613109827131,0.125,-0.9375,-1.1875
1480613109843175,-1.375,-0.9375,0.125
1480613109883281,-2.125,0.0625,0.6875
1480613109883281,-1.25,0.25,0.3125
1480613109903335,0.875,1,0
1480613109952466,0.6875,1,-0.125
1480613109952466,-1.625,0.8125,0.1875
1480613109966002,-1.9375,0.375,-0.125
1480613109984553,-1,-0.375,-0.0625
1480613110000593,1,-1,-0.25
1480613110029671,0.6875,-0.8125,0
1480613110044713,-1.875,-0.125,-0.125
1480613110060754,-1.5625,0.1875,0.125
1480613110083314,0.375,0.5625,-0.0625
1480613110111889,0.8125,-0.25,0.625
1480613110120913,0.3125,-0.5625,0.9375
1480613110143975,-1.5625,-0.125,0.75
1480613110165031,-1.6875,0.0625,0.3125
1480613110187090,0.0625,0.5625,-0.0625
1480613110203636,-0.3125,-0.125,-0.875
1480613110224189,-0.375,-0.5,-0.1875
1480613110240732,-0.75,-0.0625,0.3125
1480613110263292,-0.25,0.1875,0.4375
1480613110284349,0.6875,0.0625,0.0625
1480613110300892,0.5,0,-0.125
1480613110323954,-0.75,-0.1875,-0.25
1480613110344508,0.0625,-0.125,-0.1875
1480613110361052,0.6875,-0.125,-0.0625
1480613110383111,0,-0.5625,-0.0625
1480613110405671,0,0.25,0
1480613110426727,-0.6875,0.125,0.4375
1480613110443275,0.6875,0.5625,-0.0625
1480613110465831,1.1875,0.75,-0.5
1480613110486888,-0.4375,0.0625,-0.4375
1480613110503431,-1.25,-0.0625,-0.5
1480613110525491,-0.0625,-0.0625,-0.5625
1480613110540530,0.9375,0,-0.75
1480613110569607,-0.6875,0,-0.375
1480613110587154,-0.9375,0.125,-0.3125
1480613110600189,-0.4375,0.125,-0.1875
1480613110623250,0.625,0,-0.4375
1480613110645810,-0.375,-0.125,0
1480613110666866,-1.4375,0,0.0625
1480613110683410,-0.9375,0.1875,-0.0625
1480613110705970,-0.0625,-0.0625,-0.5
1480613110720007,-0.125,-0.25,-0.3125
1480613110766632,-1.0625,-0.375,0.0625
1480613110771144,-0.8125,0.0625,0.4375
1480613110780168,0.1875,0.5,0.0625
1480613110803229,0.5625,0.25,0
1480613110825789,-0.0625,0,0.375
1480613110840328,-1.3125,-0.125,0.4375
1480613110863389,-0.6875,0.3125,-0.0625
1480613110886951,0.0625,0.75,-0.4375
1480613110907006,-0.4375,0.5625,-0.9375
1480613110923048,-0.75,0.375,-0.875
1480613110945609,-0.5625,-0.375,-0.6875
1480613110974686,-0.375,-0.4375,-0.1875
1480613110983208,0.875,-0.375,-0.3125
1480613111005768,0.6875,-0.1875,-0.0625
1480613111035347,-0.0625,-0.125,-0.125
1480613111044872,0.5,-0.25,-0.25
1480613111065928,0.3125,-0.8125,0.5625
1480613111086984,-0.1875,-0.625,0.5
1480613111103528,0.375,-0.3125,0.4375
1480613111126088,-0.0625,-0.75,0.4375
1480613111146643,0.25,-0.75,-0.375
1480613111170707,1,-0.9375,-0.375
1480613111191763,-0.5625,-1.0625,0.3125
1480613111207304,0.375,-0.9375,0.125
1480613111223347,1.3125,-0.6875,0.0625
1480613111252424,0.875,-0.6875,0.1875
1480613111266963,0.6875,-0.75,0.375
1480613111283507,0.5625,-0.5,-0.25
1480613111305565,0.5,-0.125,-0.1875
1480613111329129,-0.25,-0.1875,0.25
1480613111344169,0.9375,-0.1875,0.375
1480613111366729,2.625,0.8125,0.625
1480613111388285,2,1.4375,-0.5625
1480613111403325,-1.3125,0.625,-0.1875
1480613111425885,-0.6875,1.1875,-0.5
1480613111448446,2.0625,2.5625,-1
1480613111462483,2.125,2.9375,-0.6875
1480613111492062,0.25,3.8125,-0.625
1480613111508105,-1.125,4.5,-0.5
1480613111529662,2.8125,6.125,-1.1875
1480613111545704,3.25,7.25,-2.125
1480613111574280,0.0625,7.6875,-1.875
1480613111582803,-1.25,8.25,-1.375
1480613111606868,1.5625,9.3125,-1.375
1480613111635944,2.375,9.25,-1.5
1480613111643465,1.625,9.5,-1.625
1480613111666026,0.5,7.5625,0.3125
1480613111689086,-0.125,5.6875,1.125
1480613111702622,2.375,3.875,1.375
1480613111725684,3.875,2.4375,0.6875
1480613111748243,1,0.9375,0.8125
1480613111762782,-1.0625,-0.4375,0.625
1480613111787347,0.8125,-0.5625,0.4375
1480613111815923,1.75,-0.9375,0.125
1480613111829464,0.125,-0.5625,-0.375
1480613111845501,-2.4375,-0.5625,0.4375
1480613111868564,-2.375,-0.75,-0.0625
1480613111889118,1.5625,-1.0625,-1
1480613111905669,0.9375,-1.4375,-0.8125
1480613111928224,-2.25,-0.9375,-0.75
1480613111957299,-3.1875,-0.1875,-1.25
1480613111966324,-1.625,0.5,-1.5
1480613111988382,1.625,1.25,-2.125
1480613112010942,1.125,1.625,-1.6875
1480613112026988,-2.625,1.6875,-1.0625
1480613112055560,-3.25,2.375,-0.375
1480613112069598,-0.125,3.1875,-0.8125
1480613112095166,0.5,3.8125,-1.125
1480613112115721,-1.375,3.625,-1.125
1480613112129257,-2.6875,2.8125,-0.75
1480613112145800,-1.1875,1.5625,-0.9375
1480613112169363,0.6875,0.9375,-1.0625
1480613112189417,0.5625,1.1875,-0.4375
1480613112211976,-1,0.9375,0.5625
1480613112235038,-1.4375,0.8125,0.625
1480613112249076,0,1,0.25
1480613112265619,-0.125,0.4375,0.1875
1480613112288180,0.5,0.625,0
1480613112310739,-0.6875,-0.1875,0.0625
1480613112325780,-1.25,-0.6875,-0.375
1480613112348340,0.6875,-0.125,-1.125
1480613112378419,-0.0625,-0.125,-0.8125
1480613112386942,-0.625,-0.375,0.1875
1480613112409504,-0.0625,0.0625,0.375
1480613112431060,1.1875,0.9375,0.875
1480613112445097,1.0625,0.9375,0.5625
1480613112475678,-0.3125,0.625,0.875
1480613112490718,-1.75,0.125,0.875
1480613112505257,-0.125,0.125,0.75
1480613112528318,0.3125,0.25,0.875
1480613112550878,0.25,0.3125,0.5625
1480613112564916,0.0625,0.125,0.5625
1480613112588980,-0.875,-0.5625,0.625
1480613112611039,-0.3125,-0.3125,-0.0625
1480613112626580,0.625,0.8125,-0.5
1480613112655657,-0.125,0.3125,-0.3125
1480613112670697,-0.5625,-0.125,0.4375
1480613112691753,0.875,-0.3125,0.0625
1480613112708297,1.125,-0.5625,-0.0625
1480613112730858,-0.375,-0.0625,-0.3125
1480613112745396,-0.875,0.6875,0.25
1480613112768457,1.1875,0.5,-0.5625
1480613112797033,-1.1875,-1.625,-1
1480613112812073,-1,-0.9375,-0.5625
1480613112828116,2.9375,0.1875,-0.875
1480613112850677,-1.25,1.3125,0
1480613112879252,-2.9375,1.3125,0.1875
1480613112888276,0.875,2.25,-0.3125
1480613112918356,2.125,3.3125,-1.375
1480613112933397,-1.4375,3.4375,-1
1480613112948436,-3.75,3.5625,-0.3125
1480613112985033,-2.625,4.25,-0.6875
1480613112992053,-0.0625,4.625,-1.4375
1480613113008095,1.25,6.4375,-2.4375
1480613113030655,-1.1875,6.4375,-1.0625
1480613113052212,-5.0625,4.875,0.4375
1480613113074271,-3,3.9375,0.8125
1480613113090815,2.0625,3,0.625
1480613113113374,2.0625,2.5,1.1875
1480613113128415,-1.5,1.375,2.75
1480613113150975,-4,0.5,3.875
1480613113172031,-1.875,-0.125,3.25
1480613113199103,3.1875,-0.4375,2.1875
1480613113212137,1.8125,-0.875,1.5
1480613113239210,-1.6875,-1.375,1.25
1480613113261769,-1.6875,-1.4375,0.4375
1480613113271796,-0.0625,-2,-0.125
1480613113293354,1.5,-2.4375,-1.1875
1480613113308393,-0.5,-3.5625,-0.8125
1480613113331455,-5,-3.9375,-0.5
1480613113356020,-3.4375,-3.8125,-0.875
1480613113374573,3,-2.8125,-2.8125
1480613113391615,0.4375,-1.3125,-3.8125
1480613113413178,-5.4375,-0.125,-1.75
1480613113427711,-5.0625,-0.5,0.625
1480613113450772,-1.3125,-1.4375,0.6875
1480613113473836,2,-2.125,-0.5625
1480613113487871,1.8125,-2.125,-1.75
1480613113518953,-4.1875,-3.375,-0.5
