timestamp,roll,pitch,yaw
1480613047766334,-1.17254,-0.0249408,2.01061
1480613047781375,-1.17254,-0.0249408,2.01061
1480613047803935,-1.17254,-0.0249408,2.01061
1480613047818473,-1.17251,-0.0249759,2.01048
1480613047841033,-1.17262,-0.0248553,2.01059
1480613047856075,-1.17254,-0.0249408,2.01061
1480613047878633,-1.17254,-0.0249408,2.01061
1480613047908714,-1.17254,-0.0249408,2.01061
1480613047915732,-1.17251,-0.0249759,2.01048
1480613047953833,-1.17273,-0.024888,2.01058
1480613047961353,-1.17273,-0.024888,2.01058
1480613047983913,-1.17281,-0.0248025,2.01056
1480613048007977,-1.17273,-0.024888,2.01058
1480613048021012,-1.17273,-0.024888,2.01058
1480613048043572,-1.17273,-0.024888,2.01058
1480613048059113,-1.17273,-0.024888,2.01058
1480613048081673,-1.17273,-0.024888,2.01058
1480613048095711,-1.17287,-0.0249432,2.01067
1480613048120778,-1.17287,-0.0249432,2.01067
1480613048141332,-1.17287,-0.0249432,2.01067
1480613048155370,-1.17287,-0.0249432,2.01067
1480613048185950,-1.17284,-0.0249783,2.01054
1480613048201993,-1.17284,-0.0249783,2.01054
1480613048239094,-1.17337,-0.0250785,2.01037
1480613048241599,-1.17337,-0.0250785,2.01037
1480613048261652,-1.17337,-0.0250785,2.01037
1480613048282207,-1.17337,-0.0250785,2.01037
1480613048299756,-1.17339,-0.0250434,2.0105
1480613048321311,-1.17339,-0.0250434,2.0105
1480613048342367,-1.17339,-0.0250434,2.0105
1480613048364927,-1.17339,-0.0250434,2.0105
1480613048381972,-1.17348,-0.024958,2.01047
1480613048403030,-1.17339,-0.0250434,2.0105
1480613048418569,-1.17392,-0.0249,2.0107
1480613048441129,-1.17383,-0.0249854,2.01072
1480613048462186,-1.17389,-0.0249352,2.01057
1480613048478729,-1.17403,-0.0249904,2.01065
1480613048515326,-1.17437,-0.0251435,2.01051
1480613048522345,-1.17428,-0.0252289,2.01054
1480613048538891,-1.17428,-0.0252289,2.01054
1480613048561450,-1.17428,-0.0252289,2.01054
1480613048582506,-1.1744,-0.0253192,2.01049
1480613048598549,-1.17428,-0.0252289,2.01054
1480613048627124,-1.17437,-0.0251435,2.01051
1480613048643669,-1.17437,-0.0251435,2.01051
1480613048658709,-1.17437,-0.0251435,2.01051
1480613048682271,-1.17437,-0.0251435,2.01051
1480613048705335,-1.17437,-0.0251435,2.01051
1480613048719872,-1.17437,-0.0251435,2.01051
1480613048748948,-1.17437,-0.0251435,2.01051
1480613048764490,-1.17435,-0.0250857,2.01055
1480613048786047,-1.17451,-0.0251987,2.0106
1480613048801588,-1.17437,-0.0251435,2.01051
1480613048824148,-1.1744,-0.0253192,2.01049
1480613048838688,-1.17449,-0.0252339,2.01047
1480613048861247,-1.17449,-0.0252339,2.01047
1480613048883808,-1.17463,-0.025289,2.01056
1480613048906367,-1.17461,-0.0252312,2.0106
1480613048927423,-1.17461,-0.0252312,2.0106
1480613048945972,-1.1746,-0.0253242,2.01043
1480613048972044,-1.1746,-0.0253242,2.01043
1480613048981066,-1.17463,-0.025289,2.01056
1480613049003627,-1.17424,-0.0249954,2.01059
1480613049018165,-1.17409,-0.0247293,2.01065
1480613049041728,-1.17394,-0.0246163,2.01059
1480613049065792,-1.17395,-0.0246741,2.01056
1480613049078826,-1.17405,-0.0247067,2.01055
1480613049101386,-1.17386,-0.0247595,2.01058
1480613049123445,-1.17393,-0.0247093,2.01043
1480613049144501,-1.17407,-0.0247644,2.01052
1480613049161546,-1.17407,-0.0247644,2.01052
1480613049183605,-1.17407,-0.0247644,2.01052
1480613049204662,-1.17407,-0.0247644,2.01052
1480613049221208,-1.17407,-0.0247644,2.01052
1480613049243263,-1.17407,-0.0247644,2.01052
1480613049264822,-1.17418,-0.0248548,2.01047
1480613049286880,-1.17418,-0.0248548,2.01047
1480613049308436,-1.17418,-0.0248548,2.01047
1480613049324981,-1.17427,-0.0247694,2.01045
1480613049341023,-1.17426,-0.0247116,2.01049
1480613049371104,-1.17426,-0.0247116,2.01049
1480613049386144,-1.17426,-0.0247116,2.01049
1480613049401183,-1.17434,-0.0246263,2.01046
1480613049432771,-1.17434,-0.0246263,2.01046
1480613049444800,-1.17434,-0.0246263,2.01046
1480613049469365,-1.17434,-0.0246263,2.01046
1480613049483904,-1.17434,-0.0246263,2.01046
1480613049504963,-1.17434,-0.0246263,2.01046
1480613049521002,-1.17448,-0.0246815,2.01055
1480613049551083,-1.17448,-0.0246815,2.01055
1480613049573642,-1.17453,-0.0245735,2.01043
1480613049581163,-1.17453,-0.0245735,2.01043
1480613049603723,-1.17467,-0.0246287,2.01052
1480613049626283,-1.17459,-0.024714,2.01055
1480613049648842,-1.17479,-0.024719,2.01048
1480613049663886,-1.17479,-0.024719,2.01048
1480613049686945,-1.17479,-0.024719,2.01048
1480613049709002,-1.17479,-0.024719,2.01048
1480613049723541,-1.17479,-0.024719,2.01048
1480613049746101,-1.17427,-0.0246187,2.01065
1480613049764150,-1.17427,-0.0246187,2.01065
1480613049783702,-1.17427,-0.0246187,2.01065
1480613049805761,-1.17449,-0.0245885,2.01072
1480613049828822,-1.17448,-0.0245307,2.01075
1480613049843866,-1.17448,-0.0245307,2.01075
1480613049868427,-1.17446,-0.0245658,2.01062
1480613049880961,-1.17446,-0.0245658,2.01062
1480613049903520,-1.17459,-0.024621,2.01071
1480613049926581,-1.17459,-0.024621,2.01071
1480613049940621,-1.17459,-0.024621,2.01071
1480613049964183,-1.17468,-0.0245357,2.01069
1480613049986240,-1.17468,-0.0245357,2.01069
1480613050000278,-1.17457,-0.0246562,2.01058
1480613050023841,-1.1748,-0.024626,2.01065
1480613050046400,-1.1748,-0.024626,2.01065
1480613050060438,-1.17478,-0.0245682,2.01068
1480613050089516,-1.17487,-0.0244828,2.01066
1480613050107062,-1.17501,-0.024538,2.01075
1480613050127116,-1.17501,-0.024538,2.01075
1480613050143659,-1.17501,-0.024538,2.01075
1480613050173740,-1.17501,-0.024538,2.01075
1480613050187275,-1.17501,-0.024538,2.01075
1480613050211344,-1.17501,-0.024538,2.01075
1480613050226380,-1.17501,-0.024538,2.01075
1480613050246934,-1.17499,-0.0245732,2.01062
1480613050263478,-1.17485,-0.0247665,2.01076
1480613050286540,-1.17485,-0.0247665,2.01076
1480613050314614,-1.17485,-0.0247665,2.01076
1480613050323642,-1.17472,-0.0246184,2.01084
1480613050360736,-1.1746,-0.024528,2.01088
1480613050368758,-1.1746,-0.024528,2.01088
1480613050383798,-1.1746,-0.024528,2.01088
1480613050406359,-1.1746,-0.024528,2.01088
1480613050426913,-1.17407,-0.0245208,2.01089
1480613050443457,-1.17407,-0.0245208,2.01089
1480613050467019,-1.17414,-0.0243776,2.0109
1480613050487074,-1.17426,-0.0244679,2.01086
1480613050503616,-1.17426,-0.0244679,2.01086
1480613050526176,-1.17427,-0.0245257,2.01082
1480613050549238,-1.17329,-0.0246768,2.01113
1480613050563777,-1.17296,-0.0247726,2.01151
1480613050594860,-1.17282,-0.0247174,2.01142
1480613050608900,-1.1728,-0.0246597,2.01146
1480613050638475,-1.17303,-0.0246294,2.01152
1480613050645995,-1.1726,-0.0249036,2.01176
1480613050670561,-1.172,-0.0247964,2.01212
1480613050683595,-1.172,-0.0247964,2.01212
1480613050706157,-1.172,-0.0247964,2.01212
1480613050729217,-1.17212,-0.0248867,2.01208
1480613050743254,-1.17212,-0.0248867,2.01208
1480613050773836,-1.17212,-0.0248867,2.01208
1480613050788374,-1.17184,-0.0250251,2.01214
1480613050802914,-1.17176,-0.0251106,2.01216
1480613050825974,-1.17184,-0.0250251,2.01214
1480613050872598,-1.17184,-0.0250251,2.01214
1480613050877110,-1.17192,-0.0248819,2.01215
1480613050886135,-1.17206,-0.0249371,2.01224
1480613050908694,-1.17206,-0.0249371,2.01224
1480613050923233,-1.17206,-0.0249371,2.01224
1480613050953815,-1.17192,-0.0248819,2.01215
1480613050968854,-1.17192,-0.0248819,2.01215
1480613050982891,-1.17206,-0.0249371,2.01224
1480613051005953,-1.17192,-0.0248819,2.01215
1480613051036034,-1.17192,-0.0248819,2.01215
1480613051049569,-1.17192,-0.0248819,2.01215
1480613051066115,-1.17192,-0.0248819,2.01215
1480613051103212,-1.17192,-0.0248819,2.01215
1480613051109729,-1.17206,-0.0249371,2.01224
1480613051126273,-1.17214,-0.0248516,2.01221
1480613051148833,-1.17213,-0.0247939,2.01225
1480613051169889,-1.17213,-0.0247939,2.01225
1480613051185932,-1.17212,-0.0248867,2.01208
1480613051210998,-1.17203,-0.0249721,2.01211
1480613051229549,-1.17212,-0.0248867,2.01208
1480613051246091,-1.1723,-0.0252681,2.01195
1480613051268652,-1.17244,-0.0258755,2.01196
1480613051290209,-1.17244,-0.0258755,2.01196
1480613051313771,-1.17244,-0.0258755,2.01196
1480613051344353,-1.1723,-0.0258204,2.01187
1480613051349867,-1.17232,-0.0257853,2.012
1480613051382956,-1.1723,-0.0258204,2.01187
1480613051388472,-1.1723,-0.0258204,2.01187
1480613051418550,-1.17239,-0.0257349,2.01184
1480613051428578,-1.17239,-0.0257349,2.01184
1480613051448630,-1.1723,-0.0258204,2.01187
1480613051471192,-1.1723,-0.0258204,2.01187
1480613051486230,-1.1723,-0.0258204,2.01187
1480613051516311,-1.17244,-0.0258755,2.01196
1480613051531354,-1.17244,-0.0258755,2.01196
1480613051546892,-1.17244,-0.0258755,2.01196
1480613051568449,-1.17244,-0.0258755,2.01196
1480613051592012,-1.17244,-0.0258755,2.01196
1480613051606056,-1.17244,-0.0258755,2.01196
1480613051634626,-1.17242,-0.0259106,2.01183
1480613051651169,-1.17242,-0.0259106,2.01183
1480613051666712,-1.17242,-0.0259106,2.01183
1480613051694785,-1.1725,-0.0258252,2.0118
1480613051718849,-1.17242,-0.0259106,2.01183
1480613051725366,-1.17272,-0.0262894,2.01182
1480613051748929,-1.17272,-0.0262894,2.01182
1480613051770989,-1.17272,-0.0262894,2.01182
1480613051785527,-1.17272,-0.0262894,2.01182
1480613051809590,-1.17272,-0.0262894,2.01182
1480613051837262,-1.17272,-0.0262894,2.01182
1480613051845687,-1.17272,-0.0262894,2.01182
1480613051868749,-1.17272,-0.0262894,2.01182
1480613051891308,-1.17272,-0.0262894,2.01182
1480613051905347,-1.17272,-0.0262894,2.01182
1480613051928407,-1.1728,-0.026204,2.0118
1480613051983052,-1.17294,-0.0262592,2.01189
1480613051988567,-1.17292,-0.0262942,2.01176
1480613051991074,-1.17323,-0.0268238,2.01155
1480613052017143,-1.17352,-0.0272956,2.01138
1480613052033687,-1.17411,-0.0274434,2.01149
1480613052048733,-1.17411,-0.0274434,2.01149
1480613052071289,-1.17405,-0.0273028,2.01137
1480613052099867,-1.17405,-0.0273028,2.01137
1480613052108887,-1.17405,-0.0273028,2.01137
1480613052131948,-1.17405,-0.0273028,2.01137
1480613052152503,-1.17404,-0.0272449,2.01141
1480613052168546,-1.17372,-0.0271498,2.01151
1480613052191106,-1.17355,-0.0266753,2.01181
1480613052212161,-1.17391,-0.0263008,2.01194
1480613052236226,-1.17391,-0.0263008,2.01194
1480613052251265,-1.17391,-0.0263008,2.01194
1480613052272322,-1.17382,-0.0263862,2.01196
1480613052302402,-1.17382,-0.0263862,2.01196
1480613052310924,-1.17396,-0.0264414,2.01205
1480613052332984,-1.17403,-0.0263911,2.0119
1480613052350029,-1.17394,-0.0264764,2.01192
1480613052371086,-1.17403,-0.0263911,2.0119
1480613052392141,-1.17403,-0.0263911,2.0119
1480613052408685,-1.17403,-0.0263911,2.0119
1480613052431249,-1.17403,-0.0263911,2.0119
1480613052453807,-1.17415,-0.0263884,2.01202
1480613052468845,-1.1741,-0.0262478,2.01191
1480613052490903,-1.1741,-0.0262478,2.01191
1480613052513469,-1.1741,-0.0262478,2.01191
1480613052534519,-1.17405,-0.026356,2.01203
1480613052551063,-1.17403,-0.0263911,2.0119
1480613052573623,-1.17412,-0.0262127,2.01204
1480613052589667,-1.17412,-0.0262127,2.01204
1480613052611224,-1.17412,-0.0262127,2.01204
1480613052635287,-1.1741,-0.0262478,2.01191
1480613052647821,-1.1741,-0.0262478,2.01191
1480613052671387,-1.1741,-0.0262478,2.01191
1480613052700962,-1.1741,-0.0262478,2.01191
1480613052717506,-1.17417,-0.0261046,2.01192
1480613052731042,-1.17431,-0.0261597,2.01201
1480613052753603,-1.17431,-0.0261597,2.01201
1480613052768141,-1.17431,-0.0261597,2.01201
1480613052791202,-1.17419,-0.0261624,2.01188
1480613052813762,-1.17419,-0.0261624,2.01188
1480613052828301,-1.17417,-0.0261046,2.01192
1480613052851362,-1.17426,-0.0260192,2.01189
1480613052873421,-1.1744,-0.0260744,2.01198
1480613052894477,-1.1744,-0.0260744,2.01198
1480613052911021,-1.1744,-0.0260744,2.01198
1480613052933581,-1.1744,-0.0260744,2.01198
1480613052957147,-1.17438,-0.0260165,2.01202
1480613052977197,-1.17447,-0.0259311,2.012
1480613053001261,-1.17447,-0.0259311,2.012
1480613053014797,-1.17447,-0.0259311,2.012
1480613053038861,-1.17459,-0.0260213,2.01195
1480613053053903,-1.17459,-0.0260213,2.01195
1480613053074958,-1.17459,-0.0260213,2.01195
1480613053091000,-1.17467,-0.025936,2.01193
1480613053113560,-1.17466,-0.0258781,2.01197
1480613053136120,-1.17475,-0.0257927,2.01194
1480613053151160,-1.17475,-0.0257927,2.01194
1480613053182744,-1.17475,-0.0257927,2.01194
1480613053194776,-1.17475,-0.0257927,2.01194
1480613053219341,-1.17475,-0.0257927,2.01194
1480613053233880,-1.17475,-0.0257927,2.01194
1480613053256001,-1.17475,-0.0257927,2.01194
1480613053271044,-1.17473,-0.0257349,2.01198
1480613053294605,-1.17473,-0.0257349,2.01198
1480613053316161,-1.17473,-0.0257349,2.01198
1480613053331203,-1.17473,-0.0257349,2.01198
1480613053367799,-1.17496,-0.0257046,2.01204
1480613053375319,-1.17496,-0.0257046,2.01204
1480613053391361,-1.17496,-0.0257046,2.01204
1480613053413420,-1.17504,-0.0256192,2.01202
1480613053435980,-1.17502,-0.025996,2.01195
1480613053452022,-1.17488,-0.0259409,2.01186
1480613053473582,-1.17488,-0.0259409,2.01186
1480613053496140,-1.17447,-0.0259311,2.012
1480613053511181,-1.17447,-0.0259311,2.012
1480613053533740,-1.17443,-0.0256976,2.01205
1480613053556300,-1.17443,-0.0256976,2.01205
1480613053577356,-1.17443,-0.0256976,2.01205
1480613053593900,-1.17392,-0.0258663,2.01204
1480613053616962,-1.17406,-0.0259214,2.01213
1480613053630498,-1.17415,-0.025836,2.0121
1480613053654067,-1.17415,-0.025836,2.0121
1480613053676119,-1.17415,-0.025836,2.0121
1480613053691159,-1.17415,-0.025836,2.0121
1480613053713719,-1.17415,-0.025836,2.0121
1480613053736279,-1.17415,-0.025836,2.0121
1480613053750316,-1.17415,-0.025836,2.0121
1480613053773378,-1.17415,-0.025836,2.0121
1480613053797943,-1.17415,-0.025836,2.0121
1480613053810978,-1.17415,-0.025836,2.0121
1480613053833539,-1.17422,-0.0256928,2.01212
1480613053856097,-1.17422,-0.0256928,2.01212
1480613053871141,-1.17371,-0.0256508,2.01225
1480613053894700,-1.17357,-0.0255956,2.01216
1480613053916258,-1.17356,-0.0255378,2.0122
1480613053937317,-1.17356,-0.0255378,2.0122
1480613053967394,-1.17356,-0.0255378,2.0122
1480613053976418,-1.17309,-0.0257293,2.01228
1480613053996973,-1.17249,-0.0258656,2.01228
1480613054013516,-1.17249,-0.0258656,2.01228
1480613054036076,-1.17246,-0.0259989,2.01258
1480613054059138,-1.17254,-0.0258557,2.0126
1480613054073677,-1.17218,-0.0260797,2.01267
1480613054103758,-1.17224,-0.0260292,2.01252
1480613054117292,-1.17238,-0.0260843,2.01261
1480613054134338,-1.17238,-0.0260843,2.01261
1480613054155895,-1.17238,-0.0260843,2.01261
1480613054178455,-1.17238,-0.0260843,2.01261
1480613054193997,-1.17231,-0.025886,2.01253
1480613054216055,-1.17187,-0.0257009,2.01268
1480613054244631,-1.17187,-0.0257009,2.01268
1480613054253656,-1.17187,-0.0257009,2.01268
1480613054276219,-1.17187,-0.0257009,2.01268
1480613054297272,-1.17187,-0.0257009,2.01268
1480613054313815,-1.17187,-0.0257009,2.01268
1480613054335874,-1.17196,-0.0256155,2.01266
1480613054382497,-1.1721,-0.0256706,2.01274
1480613054387010,-1.17201,-0.0257561,2.01277
1480613054396033,-1.17234,-0.0257581,2.01283
1480613054435138,-1.17234,-0.0257581,2.01283
1480613054441659,-1.17234,-0.0257581,2.01283
1480613054462210,-1.1722,-0.025703,2.01274
1480613054478754,-1.1722,-0.025703,2.01274
1480613054501314,-1.1722,-0.025703,2.01274
1480613054516353,-1.1722,-0.025703,2.01274
1480613054538916,-1.1722,-0.025703,2.01274
1480613054553453,-1.1722,-0.025703,2.01274
1480613054576013,-1.17229,-0.0256175,2.01271
1480613054622639,-1.17228,-0.0255598,2.01275
1480613054627149,-1.17228,-0.0255598,2.01275
1480613054660237,-1.17229,-0.0256175,2.01271
1480613054673774,-1.1722,-0.025703,2.01274
1480613054676280,-1.1722,-0.025703,2.01274
1480613054696333,-1.1722,-0.025703,2.01274
1480613054720397,-1.17229,-0.0256175,2.01271
1480613054734435,-1.17228,-0.0255598,2.01275
1480613054755993,-1.17228,-0.0255598,2.01275
1480613054778552,-1.17216,-0.0254696,2.01279
1480613054793090,-1.17251,-0.0257401,2.01267
1480613054816152,-1.1726,-0.0256546,2.01264
1480613054838715,-1.17274,-0.0257098,2.01273
1480613054859768,-1.1726,-0.0256546,2.01264
1480613054881826,-1.17262,-0.0256196,2.01277
1480613054900376,-1.17262,-0.0256196,2.01277
1480613054926947,-1.17262,-0.0256196,2.01277
1480613054937475,-1.17262,-0.0256196,2.01277
1480613054959032,-1.1727,-0.0255341,2.01275
1480613054980589,-1.17267,-0.0255114,2.01266
1480613054996130,-1.17267,-0.0255114,2.01266
1480613055018693,-1.17275,-0.0254259,2.01263
1480613055039747,-1.17289,-0.0254811,2.01272
1480613055056291,-1.17267,-0.0255114,2.01266
1480613055079853,-1.17267,-0.0255114,2.01266
1480613055099910,-1.17281,-0.0255665,2.01275
1480613055116951,-1.17289,-0.0254811,2.01272
1480613055139012,-1.17289,-0.0254811,2.01272
1480613055168590,-1.17275,-0.0254259,2.01263
1480613055177614,-1.17278,-0.0253909,2.01276
1480613055198676,-1.17275,-0.0254259,2.01263
1480613055228248,-1.17288,-0.0254233,2.01276
1480613055242287,-1.17297,-0.0253378,2.01273
1480613055258835,-1.17297,-0.0253378,2.01273
1480613055279885,-1.17297,-0.0253378,2.01273
1480613055296430,-1.17297,-0.0253378,2.01273
1480613055318488,-1.17297,-0.0253378,2.01273
1480613055341051,-1.17297,-0.0253378,2.01273
1480613055356090,-1.17297,-0.0253378,2.01273
1480613055380152,-1.17297,-0.0253378,2.01273
1480613055408733,-1.17304,-0.0251946,2.01274
1480613055416248,-1.17304,-0.0251946,2.01274
1480613055445827,-1.17304,-0.0251946,2.01274
1480613055460867,-1.17304,-0.0251946,2.01274
1480613055475405,-1.17318,-0.0252497,2.01283
1480613055498467,-1.17316,-0.0252848,2.0127
1480613055521528,-1.17324,-0.0251993,2.01268
1480613055542082,-1.17324,-0.0251993,2.01268
1480613055558627,-1.17326,-0.0251642,2.01281
1480613055589709,-1.17325,-0.0251064,2.01285
1480613055595726,-1.17325,-0.0251064,2.01285
1480613055618788,-1.17331,-0.025056,2.01269
1480613055641350,-1.17345,-0.0251112,2.01278
1480613055655385,-1.17345,-0.0251112,2.01278
1480613055687470,-1.17345,-0.0251112,2.01278
1480613055702011,-1.17345,-0.0251112,2.01278
1480613055723566,-1.17345,-0.0251112,2.01278
1480613055738606,-1.17345,-0.0251112,2.01278
1480613055762168,-1.17345,-0.0251112,2.01278
1480613055775707,-1.17353,-0.0249679,2.01279
1480613055798767,-1.17364,-0.0250581,2.01275
1480613055822330,-1.1735,-0.025003,2.01266
1480613055849901,-1.17353,-0.0249679,2.01279
1480613055858424,-1.17353,-0.0249679,2.01279
1480613055881988,-1.17297,-0.0245945,2.01254
1480613055920089,-1.17215,-0.02451,2.01215
1480613055923599,-1.17223,-0.0244245,2.01212
1480613055966212,-1.17135,-0.0238983,2.01202
1480613055971726,-1.17024,-0.023249,2.01197
1480613055991779,-1.16977,-0.0227895,2.0117
1480613056003311,-1.16941,-0.0227041,2.01149
1480613056029891,-1.1689,-0.0225633,2.01119
1480613056044420,-1.16902,-0.022561,2.01132
1480613056061466,-1.16902,-0.022561,2.01132
1480613056082020,-1.16911,-0.0224754,2.01129
1480613056100569,-1.16909,-0.0225105,2.01116
1480613056121124,-1.16958,-0.0228366,2.01113
1480613056142182,-1.17014,-0.0232682,2.01133
1480613056158723,-1.17044,-0.0234967,2.01153
1480613056187802,-1.17044,-0.0234967,2.01153
1480613056202340,-1.17003,-0.023337,2.01187
1480613056226404,-1.16967,-0.0233182,2.01232
1480613056241446,-1.16921,-0.023267,2.01278
1480613056263502,-1.16928,-0.0231238,2.01279
1480613056280046,-1.1694,-0.023214,2.01275
1480613056309624,-1.1694,-0.023214,2.01275
1480613056323662,-1.16909,-0.0230266,2.01302
1480613056338201,-1.16928,-0.0227308,2.01337
1480613056361262,-1.16942,-0.0227859,2.01345
1480613056383822,-1.16942,-0.0227859,2.01345
1480613056397860,-1.16963,-0.0229496,2.01388
1480613056420922,-1.16973,-0.0230808,2.01431
1480613056443482,-1.16981,-0.0229951,2.01429
1480613056467043,-1.1698,-0.0229375,2.01433
1480613056481582,-1.1698,-0.0229375,2.01433
1480613056520185,-1.1695,-0.02321,2.01469
1480613056524696,-1.16936,-0.023155,2.0146
1480613056541241,-1.16936,-0.023155,2.0146
1480613056564808,-1.1695,-0.02321,2.01469
1480613056584857,-1.16959,-0.0231244,2.01466
1480613056601401,-1.16959,-0.0231244,2.01466
1480613056623459,-1.16959,-0.0231244,2.01466
1480613056645520,-1.16945,-0.0230694,2.01457
1480613056647022,-1.16936,-0.023155,2.0146
1480613056666577,-1.1693,-0.0229629,2.01513
1480613056689134,-1.16939,-0.0228772,2.0151
1480613056705678,-1.17016,-0.0229707,2.01518
1480613056726234,-1.17025,-0.0228851,2.01515
1480613056750297,-1.16929,-0.0226534,2.01484
1480613056771354,-1.16921,-0.0222383,2.0143
1480613056789401,-1.16935,-0.0222933,2.01439
1480613056808953,-1.16935,-0.0222933,2.01439
1480613056827001,-1.16991,-0.0221659,2.01408
1480613056846553,-1.1698,-0.0220348,2.01365
1480613056869616,-1.1698,-0.0220348,2.01365
1480613056887163,-1.16959,-0.022123,2.01355
1480613056906713,-1.16959,-0.022123,2.01355
1480613056928772,-1.16967,-0.0219798,2.01356
1480613056978404,-1.1698,-0.0220348,2.01365
1480613056984420,-1.1698,-0.0220348,2.01365
1480613056988932,-1.16978,-0.0220699,2.01351
1480613057030042,-1.17061,-0.0219026,2.01358
1480613057034052,-1.17073,-0.0219927,2.01354
1480613057065639,-1.17061,-0.0219026,2.01358
1480613057071652,-1.17112,-0.0219442,2.01344
1480613057094212,-1.1718,-0.0218147,2.01326
1480613057109253,-1.17183,-0.0217796,2.01339
1480613057140335,-1.17169,-0.0217246,2.0133
1480613057146351,-1.17169,-0.0217246,2.0133
1480613057169914,-1.17169,-0.0217246,2.0133
1480613057191470,-1.17169,-0.0217246,2.0133
1480613057206511,-1.17188,-0.0214201,2.01294
1480613057254639,-1.17186,-0.0214553,2.01281
1480613057257145,-1.17195,-0.0213697,2.01279
1480613057266673,-1.1714,-0.0209962,2.01254
1480613057291737,-1.17141,-0.0210538,2.01251
1480613057311291,-1.1713,-0.0207726,2.01228
1480613057326329,-1.17063,-0.0203087,2.01208
1480613057348889,-1.17072,-0.0202231,2.01205
1480613057371450,-1.17084,-0.0203133,2.01201
1480613057386491,-1.17084,-0.0203133,2.01201
1480613057416569,-1.17084,-0.0203133,2.01201
1480613057431611,-1.17138,-0.0202274,2.01217
1480613057446650,-1.17136,-0.0202627,2.01204
1480613057469209,-1.17186,-0.0206461,2.01197
1480613057491770,-1.17274,-0.0212653,2.0119
1480613057532381,-1.17349,-0.0218871,2.0117
1480613057536389,-1.17385,-0.0222158,2.01154
1480613057551429,-1.17408,-0.0225871,2.01173
1480613057576998,-1.17417,-0.0228104,2.01199
1480613057589028,-1.17417,-0.0228104,2.01199
1480613057611588,-1.17403,-0.0227554,2.0119
1480613057629136,-1.17404,-0.0226624,2.01207
1480613057649188,-1.1741,-0.0226121,2.01191
1480613057671750,-1.1741,-0.0226121,2.01191
1480613057687791,-1.17424,-0.0226672,2.012
1480613057716367,-1.17424,-0.0226672,2.012
1480613057731410,-1.17424,-0.0226672,2.012
1480613057765498,-1.17438,-0.0227222,2.01209
1480613057771016,-1.17445,-0.022672,2.01194
1480613057791568,-1.17445,-0.022672,2.01194
1480613057809616,-1.17436,-0.0227575,2.01196
1480613057829168,-1.17436,-0.0227575,2.01196
1480613057853232,-1.17436,-0.0227575,2.01196
1480613057868271,-1.17436,-0.0227575,2.01196
1480613057897852,-1.1745,-0.0228125,2.01205
1480613057911386,-1.17459,-0.0227271,2.01203
1480613057927931,-1.17457,-0.0226693,2.01206
1480613057948986,-1.17457,-0.0226693,2.01206
1480613057974554,-1.17434,-0.0222403,2.01191
1480613057988090,-1.17445,-0.0217782,2.01195
1480613058009146,-1.17415,-0.0215501,2.01176
1480613058041233,-1.17389,-0.021096,2.01142
1480613058047749,-1.17403,-0.021151,2.01151
1480613058088356,-1.17394,-0.0212365,2.01153
1480613058095375,-1.1738,-0.0211815,2.01144
1480613058107910,-1.1738,-0.0211815,2.01144
1480613058128965,-1.17394,-0.0212365,2.01153
1480613058151527,-1.17424,-0.0213139,2.01194
1480613058175589,-1.17409,-0.0212059,2.01249
1480613058189125,-1.17342,-0.021945,2.01256
1480613058211685,-1.17455,-0.0225585,2.01274
1480613058229232,-1.17449,-0.0223603,2.01266
1480613058250288,-1.17342,-0.0227409,2.0121
1480613058271345,-1.17385,-0.0226175,2.01166
1480613058309445,-1.17326,-0.0232055,2.01105
1480613058319473,-1.17364,-0.0227911,2.0107
1480613058365094,-1.17493,-0.022434,2.01068
1480613058368603,-1.17418,-0.022206,2.0103
1480613058372113,-1.17326,-0.0218445,2.01028
1480613058391664,-1.17326,-0.0218445,2.01028
1480613058414224,-1.17324,-0.0217868,2.01032
1480613058429265,-1.17324,-0.0217868,2.01032
1480613058451322,-1.17331,-0.0217367,2.01016
1480613058475387,-1.1729,-0.0219702,2.00992
1480613058496443,-1.17305,-0.022083,2.00998
1480613058511482,-1.17303,-0.0221183,2.00985
1480613058534043,-1.17324,-0.0220303,2.00995
1480613058549083,-1.17364,-0.0221333,2.00965
1480613058571643,-1.17396,-0.0223795,2.00933
1480613058597213,-1.17394,-0.0224148,2.0092
1480613058609243,-1.1739,-0.0226733,2.00912
1480613058632805,-1.1739,-0.0226733,2.00912
1480613058653865,-1.1739,-0.0226733,2.00912
1480613058668901,-1.1739,-0.0226733,2.00912
1480613058691461,-1.17397,-0.0225302,2.00913
1480613058714021,-1.17392,-0.0223896,2.00902
1480613058729061,-1.17392,-0.0223896,2.00902
1480613058751622,-1.17406,-0.0224448,2.00911
1480613058774182,-1.17406,-0.0224448,2.00911
1480613058790727,-1.17406,-0.0224448,2.00911
1480613058821808,-1.17403,-0.0224801,2.00898
1480613058833840,-1.17402,-0.0224224,2.00901
1480613058850384,-1.17402,-0.0224224,2.00901
1480613058874450,-1.17359,-0.022387,2.00896
1480613058894001,-1.17359,-0.022387,2.00896
1480613058918065,-1.17373,-0.0224422,2.00905
1480613058931607,-1.17373,-0.0224422,2.00905
1480613058955665,-1.1738,-0.0222991,2.00906
1480613058970705,-1.1738,-0.0222991,2.00906
1480613058991761,-1.17366,-0.0222439,2.00897
1480613059014822,-1.1738,-0.0222991,2.00906
1480613059030364,-1.1738,-0.0222991,2.00906
1480613059051420,-1.17371,-0.0223845,2.00908
1480613059081499,-1.17369,-0.0224198,2.00895
1480613059100551,-1.1743,-0.0222845,2.00896
1480613059113083,-1.17444,-0.0223397,2.00905
1480613059151184,-1.17444,-0.0223397,2.00905
1480613059155697,-1.17444,-0.0223397,2.00905
1480613059171238,-1.174,-0.022706,2.00911
1480613059193797,-1.1741,-0.0228365,2.00955
1480613059214353,-1.1741,-0.0228365,2.00955
1480613059231398,-1.17419,-0.0227511,2.00952
1480613059253958,-1.17419,-0.0227511,2.00952
1480613059272006,-1.17419,-0.0227511,2.00952
1480613059291558,-1.17382,-0.0229745,2.0096
1480613059321637,-1.17394,-0.0230649,2.00956
1480613059332166,-1.17467,-0.0229268,2.00969
1480613059359238,-1.1749,-0.0228966,2.00975
1480613059373777,-1.17475,-0.0227837,2.0097
1480613059394832,-1.17489,-0.0228389,2.00979
1480613059418898,-1.17415,-0.022977,2.00966
1480613059433938,-1.17353,-0.0230549,2.00969
1480613059456497,-1.174,-0.0229618,2.01004
1480613059471538,-1.17409,-0.0228764,2.01002
1480613059494097,-1.17407,-0.0228187,2.01006
1480613059519666,-1.17393,-0.0228613,2.0104
1480613059531699,-1.17437,-0.022901,2.01106
1480613059554257,-1.17441,-0.0225893,2.01179
1480613059588348,-1.1738,-0.0228836,2.01228
1480613059592859,-1.175,-0.0232032,2.01268
1480613059613916,-1.17514,-0.0232582,2.01277
1480613059639484,-1.17438,-0.0227294,2.01279
1480613059652521,-1.17439,-0.0227872,2.01275
1480613059674075,-1.17385,-0.0227227,2.0128
1480613059706161,-1.17338,-0.0229142,2.01288
1480613059713179,-1.17337,-0.0230072,2.01271
1480613059745266,-1.1734,-0.022874,2.01241
1480613059751782,-1.17316,-0.022937,2.01212
1480613059772839,-1.17316,-0.022937,2.01212
1480613059793894,-1.17316,-0.022937,2.01212
1480613059811943,-1.1733,-0.0229921,2.01221
1480613059832999,-1.1733,-0.0229921,2.01221
1480613059854054,-1.17328,-0.0230273,2.01208
1480613059872102,-1.17326,-0.0229696,2.01212
1480613059893159,-1.17335,-0.0228841,2.01209
1480613059915718,-1.17349,-0.0229392,2.01218
1480613059944796,-1.17335,-0.0228841,2.01209
1480613059952818,-1.17335,-0.0228841,2.01209
1480613059974876,-1.17335,-0.0228841,2.01209
1480613060004454,-1.17335,-0.0228841,2.01209
1480613060012977,-1.17287,-0.0224654,2.01229
1480613060034033,-1.1724,-0.0221648,2.01252
1480613060056593,-1.17235,-0.0220243,2.0124
1480613060074641,-1.17249,-0.0220793,2.01249
1480613060095697,-1.17249,-0.0220793,2.01249
1480613060116753,-1.17249,-0.0220793,2.01249
1480613060134300,-1.17263,-0.0221344,2.01258
1480613060153852,-1.1726,-0.0221696,2.01245
1480613060176412,-1.17274,-0.0222246,2.01254
1480613060207996,-1.17319,-0.0223169,2.01256
1480613060214014,-1.17373,-0.0228761,2.01247
1480613060236573,-1.17373,-0.0228761,2.01247
1480613060259633,-1.17373,-0.0228761,2.01247
1480613060274172,-1.1741,-0.0231116,2.01247
1480613060306760,-1.1741,-0.0231116,2.01247
1480613060314279,-1.1741,-0.0231116,2.01247
1480613060341351,-1.1741,-0.0231116,2.01247
1480613060356391,-1.17419,-0.0230262,2.01245
1480613060376444,-1.17411,-0.023571,2.01256
1480613060393991,-1.17549,-0.0238704,2.01271
1480613060416550,-1.17555,-0.0238202,2.01255
1480613060440615,-1.17481,-0.0235,2.01234
1480613060457159,-1.17458,-0.0232217,2.01198
1480613060493756,-1.17458,-0.0232217,2.01198
1480613060495761,-1.17458,-0.0232217,2.01198
1480613060530354,-1.17458,-0.0232217,2.01198
1480613060536374,-1.17408,-0.0229888,2.01185
1480613060554418,-1.17383,-0.0229012,2.01177
1480613060573969,-1.17392,-0.0228157,2.01174
1480613060596529,-1.17404,-0.022906,2.0117
1480613060615580,-1.17404,-0.022906,2.0117
1480613060634130,-1.17404,-0.022906,2.0117
1480613060665214,-1.17418,-0.0229611,2.01179
1480613060674237,-1.17482,-0.0231515,2.01157
1480613060696797,-1.1749,-0.0230661,2.01155
1480613060716348,-1.17488,-0.0231013,2.01142
1480613060734398,-1.1749,-0.0230661,2.01155
1480613060762973,-1.1749,-0.0230661,2.01155
1480613060777511,-1.17415,-0.0230893,2.01149
1480613060807089,-1.17423,-0.0230039,2.01147
1480613060815613,-1.17437,-0.023059,2.01155
1480613060844188,-1.17423,-0.0230039,2.01147
1480613060858727,-1.17446,-0.0229735,2.01153
1480613060875271,-1.17437,-0.023059,2.01155
1480613060896327,-1.17444,-0.0229158,2.01157
1480613060914375,-1.17444,-0.0229158,2.01157
1480613060935933,-1.17456,-0.0230061,2.01153
1480613060956487,-1.17505,-0.0227797,2.01157
1480613060980551,-1.17505,-0.0227797,2.01157
1480613060997599,-1.17505,-0.0227797,2.01157
1480613061016647,-1.17505,-0.0227797,2.01157
1480613061046727,-1.17505,-0.0227797,2.01157
1480613061056754,-1.17504,-0.0227219,2.01161
1480613061083825,-1.17512,-0.0226365,2.01158
1480613061094354,-1.17512,-0.0226365,2.01158
1480613061130450,-1.17479,-0.0224835,2.01173
1480613061136468,-1.17409,-0.0221527,2.01183
1480613061155517,-1.17357,-0.021651,2.01188
1480613061179148,-1.1731,-0.0210414,2.01182
1480613061196695,-1.17303,-0.0202908,2.01182
1480613061220758,-1.17334,-0.0196828,2.012
1480613061236802,-1.17338,-0.0192133,2.01224
1480613061256353,-1.17337,-0.0191557,2.01227
1480613061274402,-1.17337,-0.0191557,2.01227
1480613061304984,-1.17337,-0.0191557,2.01227
1480613061316513,-1.17415,-0.0191571,2.01252
1480613061339074,-1.17489,-0.0194773,2.01273
1480613061361634,-1.17535,-0.0203703,2.0129
1480613061376673,-1.17578,-0.0212055,2.0131
1480613061399234,-1.17595,-0.0218377,2.0133
1480613061417281,-1.17617,-0.0225502,2.01355
1480613061445356,-1.17682,-0.0232926,2.01325
1480613061458892,-1.17728,-0.0238379,2.01266
1480613061476940,-1.17668,-0.0236265,2.01189
1480613061504013,-1.17608,-0.0234147,2.01112
1480613061519053,-1.17582,-0.0228099,2.01099
1480613061537101,-1.1759,-0.0227245,2.01096
1480613061558157,-1.17614,-0.0221623,2.01069
1480613061581719,-1.17605,-0.0219392,2.01043
1480613061596759,-1.17614,-0.0218538,2.0104
1480613061617815,-1.17614,-0.0218538,2.0104
1480613061649399,-1.17612,-0.0218892,2.01027
1480613061658423,-1.17612,-0.0218892,2.01027
1480613061677975,-1.17603,-0.0219746,2.0103
1480613061706551,-1.17603,-0.0219746,2.0103
1480613061717079,-1.17617,-0.0220296,2.01039
1480613061739639,-1.17617,-0.0220296,2.01039
1480613061759191,-1.17617,-0.0220296,2.01039
1480613061782753,-1.17626,-0.0219443,2.01036
1480613061797795,-1.17612,-0.0218892,2.01027
1480613061827874,-1.17614,-0.0218538,2.0104
1480613061837900,-1.17614,-0.0218538,2.0104
1480613061872993,-1.17612,-0.0218892,2.01027
1480613061879010,-1.17612,-0.0218892,2.01027
1480613061909591,-1.17614,-0.0218538,2.0104
1480613061918114,-1.17614,-0.0218538,2.0104
1480613061939173,-1.17614,-0.0218538,2.0104
1480613061971757,-1.17614,-0.0218538,2.0104
1480613061979276,-1.17605,-0.0219392,2.01043
1480613061999836,-1.17614,-0.0218538,2.0104
1480613062016877,-1.17614,-0.0218538,2.0104
1480613062039938,-1.17614,-0.0218538,2.0104
1480613062069519,-1.17568,-0.0217033,2.01042
1480613062077538,-1.17515,-0.0216029,2.0106
1480613062100099,-1.17448,-0.0215405,2.01051
1480613062121655,-1.17422,-0.0211839,2.01062
1480613062136696,-1.17366,-0.0206594,2.01057
1480613062163768,-1.17342,-0.0195272,2.01071
1480613062178807,-1.1735,-0.0187387,2.01098
1480613062204376,-1.17279,-0.0183501,2.01112
1480613062219417,-1.17267,-0.0180163,2.01153
1480613062238968,-1.1732,-0.0177222,2.01193
1480613062257017,-1.17358,-0.0176212,2.01248
1480613062279576,-1.17362,-0.0174605,2.013
1480613062299628,-1.17338,-0.0178726,2.01347
1480613062316674,-1.17339,-0.0186409,2.01385
1480613062339235,-1.17448,-0.0193289,2.01437
1480613062359288,-1.17531,-0.0203059,2.01475
1480613062376834,-1.17521,-0.0209837,2.01517
1480613062415938,-1.1755,-0.0212112,2.01536
1480613062420450,-1.17585,-0.021672,2.01551
1480613062436994,-1.17649,-0.0219588,2.01573
1480613062460056,-1.17649,-0.0219588,2.01573
1480613062482114,-1.17649,-0.0219588,2.01573
1480613062501667,-1.1766,-0.0220488,2.01569
1480613062525229,-1.1766,-0.0220488,2.01569
1480613062549293,-1.17674,-0.0221036,2.01578
1480613062561325,-1.17673,-0.0220457,2.01582
1480613062580376,-1.17674,-0.0221036,2.01578
1480613062617475,-1.17667,-0.0228925,2.01552
1480613062621485,-1.17664,-0.0238217,2.01537
1480613062639534,-1.17691,-0.024519,2.01534
1480613062669616,-1.17682,-0.0252543,2.01572
1480613062689165,-1.17722,-0.0256111,2.01635
1480613062700200,-1.17718,-0.0258765,2.01697
1480613062720247,-1.17624,-0.0260129,2.0169
1480613062736793,-1.1755,-0.0262467,2.0166
1480613062759352,-1.17549,-0.0261887,2.01664
1480613062780408,-1.1756,-0.0260682,2.01674
1480613062796952,-1.1756,-0.0260682,2.01674
1480613062820013,-1.17547,-0.0256764,2.01719
1480613062840569,-1.17515,-0.0255822,2.0173
1480613062861624,-1.17469,-0.0254331,2.01732
1480613062894211,-1.17469,-0.0254331,2.01732
1480613062901731,-1.17469,-0.0254331,2.01732
1480613062926296,-1.17481,-0.0255229,2.01728
1480613062940334,-1.17481,-0.0255229,2.01728
1480613062975426,-1.17481,-0.0255229,2.01728
1480613062981442,-1.17467,-0.025468,2.01719
1480613062999492,-1.17469,-0.0254331,2.01732
1480613063027064,-1.17467,-0.025468,2.01719
1480613063044110,-1.17482,-0.0259822,2.01736
1480613063059651,-1.17514,-0.0264183,2.01732
1480613063081710,-1.17569,-0.0265413,2.01734
1480613063101262,-1.17632,-0.0269207,2.01739
1480613063123821,-1.17633,-0.0269788,2.01736
1480613063141872,-1.17625,-0.0270642,2.01738
1480613063170447,-1.17686,-0.0274786,2.01731
1480613063179471,-1.17686,-0.0274786,2.01731
1480613063202531,-1.17686,-0.0274786,2.01731
1480613063221582,-1.17686,-0.0274786,2.01731
1480613063246648,-1.17686,-0.0274786,2.01731
1480613063269208,-1.17686,-0.0274786,2.01731
1480613063289763,-1.17686,-0.0274786,2.01731
1480613063299291,-1.17757,-0.0277144,2.01738
1480613063321849,-1.17861,-0.0281028,2.01731
1480613063341400,-1.1794,-0.0290502,2.0169
1480613063359448,-1.17979,-0.0295879,2.0165
1480613063382008,-1.1798,-0.0302917,2.01622
1480613063401560,-1.17906,-0.0312292,2.01564
1480613063418605,-1.17781,-0.0322183,2.01502
1480613063449689,-1.17673,-0.0330361,2.01435
1480613063462724,-1.17645,-0.0336631,2.01366
1480613063484280,-1.17632,-0.0340612,2.01296
1480613063502329,-1.17562,-0.0343698,2.01212
1480613063524387,-1.1749,-0.0346196,2.0113
1480613063545944,-1.17486,-0.0347809,2.01078
1480613063562990,-1.17486,-0.0347809,2.01078
1480613063589563,-1.17485,-0.0347228,2.01082
1480613063598587,-1.17479,-0.0345821,2.0107
1480613063621148,-1.17479,-0.0345821,2.0107
1480613063642201,-1.17456,-0.0338159,2.01109
1480613063658745,-1.17443,-0.033615,2.01181
1480613063681806,-1.174,-0.0335875,2.01245
1480613063702366,-1.17412,-0.0335323,2.01321
1480613063724421,-1.17387,-0.033301,2.01403
1480613063740963,-1.17368,-0.0328091,2.01484
1480613063764527,-1.17357,-0.032232,2.01562
1480613063785080,-1.17301,-0.0320578,2.01634
1480613063826695,-1.17286,-0.0317999,2.0171
1480613063830702,-1.17317,-0.0316911,2.01783
1480613063838724,-1.17311,-0.0315912,2.01819
1480613063868804,-1.17289,-0.0312855,2.01867
1480613063883843,-1.17324,-0.0311013,2.01906
1480613063898383,-1.17324,-0.0311013,2.01906
1480613063920943,-1.17374,-0.0313325,2.0192
1480613063943502,-1.17424,-0.0316565,2.01917
1480613063958041,-1.17473,-0.0319805,2.01914
1480613063981103,-1.17558,-0.0322708,2.0193
1480613064003678,-1.17626,-0.0325407,2.01924
1480613064024217,-1.1767,-0.0330667,2.01916
1480613064057304,-1.17705,-0.0336781,2.0191
1480613064063823,-1.17709,-0.0344052,2.01901
1480613064102425,-1.17758,-0.0349203,2.01925
1480613064106937,-1.17758,-0.0349203,2.01925
1480613064123983,-1.17758,-0.0349203,2.01925
1480613064138020,-1.17775,-0.0351504,2.01933
1480613064161081,-1.17784,-0.035065,2.0193
1480613064183641,-1.17781,-0.0350996,2.01917
1480613064198199,-1.17845,-0.0358212,2.0193
1480613064221242,-1.17877,-0.0363158,2.01933
1480613064243802,-1.17906,-0.0368265,2.01963
1480613064257838,-1.1793,-0.0371038,2.01999
1480613064280899,-1.17945,-0.0371236,2.02031
1480613064303461,-1.17943,-0.0371046,2.02082
1480613064317998,-1.17943,-0.0371046,2.02082
1480613064354597,-1.17944,-0.0371631,2.02078
1480613064380665,-1.17944,-0.0371631,2.02078
1480613064386181,-1.17944,-0.0371631,2.02078
1480613064424783,-1.17943,-0.0371046,2.02082
1480613064429796,-1.17952,-0.0370193,2.0208
1480613064444836,-1.17943,-0.0371046,2.02082
1480613064460879,-1.17969,-0.0372491,2.02087
1480613064483439,-1.17983,-0.0373041,2.02096
1480613064504495,-1.17983,-0.0373041,2.02096
1480613064521039,-1.17981,-0.0373386,2.02083
1480613064544100,-1.1799,-0.0371603,2.02097
1480613064564655,-1.1799,-0.0371603,2.02097
1480613064581199,-1.17988,-0.0371948,2.02084
1480613064603259,-1.17976,-0.0371053,2.02088
1480613064656400,-1.1799,-0.0371603,2.02097
1480613064659909,-1.17988,-0.0371948,2.02084
1480613064664921,-1.17995,-0.037051,2.02086
1480613064693999,-1.17995,-0.037051,2.02086
1480613064703541,-1.17995,-0.037051,2.02086
1480613064724079,-1.17995,-0.037051,2.02086
1480613064746137,-1.17995,-0.037051,2.02086
1480613064761179,-1.17995,-0.037051,2.02086
1480613064783739,-1.18009,-0.037106,2.02095
1480613064806298,-1.18018,-0.0370207,2.02092
1480613064820837,-1.18018,-0.0370207,2.02092
1480613064843397,-1.18025,-0.0372772,2.02106
1480613064865957,-1.1803,-0.0379503,2.02161
1480613064887015,-1.18078,-0.0382592,2.0227
1480613064919599,-1.17979,-0.0387961,2.02356
1480613064935141,-1.17994,-0.0396517,2.0239
1480613064940657,-1.18102,-0.0395669,2.02407
1480613064976975,-1.18089,-0.0385827,2.02411
1480613064986000,-1.18106,-0.0380691,2.024
1480613065000539,-1.18182,-0.037548,2.0242
1480613065023600,-1.18095,-0.0372953,2.0238
1480613065046160,-1.1812,-0.0367896,2.02349
1480613065062203,-1.18252,-0.0365408,2.02351
1480613065083762,-1.18223,-0.0367739,2.0234
1480613065114341,-1.1823,-0.0368209,2.02368
1480613065120358,-1.18337,-0.0371749,2.02445
1480613065143920,-1.18337,-0.0371749,2.02445
1480613065166983,-1.18337,-0.0371749,2.02445
1480613065188543,-1.18356,-0.0365293,2.02402
1480613065205083,-1.18402,-0.0360281,2.02364
1480613065226138,-1.18462,-0.0357362,2.02386
1480613065256219,-1.18549,-0.0354947,2.02429
1480613065263739,-1.18549,-0.0354947,2.02429
1480613065287302,-1.18512,-0.0352229,2.0238
1480613065307856,-1.1859,-0.0349126,2.02376
1480613065323397,-1.18671,-0.0347771,2.02371
1480613065346960,-1.18665,-0.0346371,2.02359
1480613065367013,-1.18657,-0.0347223,2.02362
1480613065398603,-1.18657,-0.0347223,2.02362
1480613065406120,-1.18589,-0.0343605,2.02384
1480613065436701,-1.18538,-0.0339789,2.0239
1480613065443717,-1.18538,-0.0339789,2.0239
1480613065473798,-1.18538,-0.0339789,2.0239
1480613065487334,-1.18538,-0.0339789,2.0239
1480613065503386,-1.186,-0.0343911,2.02383
1480613065525936,-1.18648,-0.034998,2.02391
1480613065546992,-1.18639,-0.0350832,2.02394
1480613065580581,-1.18653,-0.0351379,2.02403
1480613065586097,-1.18589,-0.0350061,2.02359
1480613065607152,-1.18533,-0.0347889,2.02313
1480613065623697,-1.18533,-0.0347889,2.02313
1480613065646257,-1.18519,-0.035132,2.02247
1480613065674835,-1.18556,-0.0352116,2.02198
1480613065699400,-1.18556,-0.0352116,2.02198
1480613065720456,-1.18556,-0.0352116,2.02198
1480613065727974,-1.18613,-0.0341551,2.02181
1480613065744518,-1.18515,-0.0334699,2.02139
1480613065766075,-1.18413,-0.0330097,2.02111
1480613065789137,-1.18413,-0.0330097,2.02111
1480613065803676,-1.18413,-0.0330097,2.02111
1480613065826235,-1.1839,-0.0332307,2.02131
1480613065848798,-1.18386,-0.0329038,2.02153
1480613065864840,-1.18366,-0.0327475,2.0218
1480613065887402,-1.18338,-0.0320897,2.0223
1480613065908453,-1.18298,-0.0316455,2.02253
1480613065922992,-1.18269,-0.0311745,2.0227
1480613065947561,-1.1824,-0.0306104,2.02303
1480613065969617,-1.18231,-0.0302988,2.02364
1480613065991174,-1.18169,-0.0305708,2.02394
1480613066006214,-1.18198,-0.031139,2.0242
1480613066036295,-1.1824,-0.0315472,2.0242
1480613066042811,-1.18204,-0.0321728,2.02441
1480613066066876,-1.18161,-0.0326399,2.02491
1480613066089436,-1.1813,-0.0328538,2.02531
1480613066103475,-1.1813,-0.0328538,2.02531
1480613066132053,-1.18116,-0.0329902,2.02549
1480613066149094,-1.18074,-0.0330757,2.02546
1480613066163633,-1.18074,-0.0330757,2.02546
1480613066186194,-1.18072,-0.0330565,2.02597
1480613066222790,-1.18084,-0.0329988,2.02674
1480613066229810,-1.17995,-0.033265,2.028
1480613066245852,-1.17861,-0.0340899,2.0289
1480613066268913,-1.1794,-0.0343334,2.02949
1480613066296988,-1.17959,-0.0333887,2.03008
1480613066306013,-1.17951,-0.0334744,2.0301
1480613066328571,-1.17961,-0.0329528,2.03018
1480613066357149,-1.1793,-0.0329193,2.03024
1480613066372190,-1.1793,-0.0329193,2.03024
1480613066388736,-1.17927,-0.0329537,2.03012
1480613066409787,-1.1794,-0.0329496,2.03024
1480613066426331,-1.17927,-0.0329537,2.03012
1480613066462929,-1.17927,-0.0329537,2.03012
1480613066469447,-1.17928,-0.0328607,2.03028
1480613066502033,-1.17937,-0.032775,2.03026
1480613066508551,-1.17821,-0.0332516,2.02971
1480613066530108,-1.17818,-0.0339133,2.02975
1480613066546652,-1.17783,-0.0353901,2.02877
1480613066574726,-1.1769,-0.0360787,2.02791
1480613066589766,-1.17729,-0.0364226,2.02724
1480613066606310,-1.17727,-0.0360161,2.02651
1480613066628369,-1.17743,-0.0345498,2.02634
1480613066649425,-1.17581,-0.0331454,2.0258
1480613066665981,-1.17543,-0.0315184,2.02514
1480613066688530,-1.17506,-0.0305012,2.02446
1480613066726630,-1.17488,-0.0301143,2.02389
1480613066735655,-1.17484,-0.0298407,2.02347
1480613066748689,-1.17455,-0.0294229,2.023
1480613066771250,-1.17467,-0.0292621,2.02263
1480613066787293,-1.17454,-0.0295092,2.02213
1480613066808348,-1.17481,-0.0296131,2.0217
1480613066830909,-1.17481,-0.0296131,2.0217
1480613066853469,-1.17483,-0.0295784,2.02183
1480613066869511,-1.17483,-0.0295784,2.02183
1480613066891570,-1.17407,-0.0292035,2.02165
1480613066913629,-1.17407,-0.0292035,2.02165
1480613066928668,-1.17412,-0.0290945,2.02153
1480613066951228,-1.17412,-0.0290945,2.02153
1480613066965266,-1.17418,-0.028741,2.02169
1480613067010887,-1.17417,-0.0286829,2.02172
1480613067016904,-1.17418,-0.028741,2.02169
1480613067025426,-1.17418,-0.028741,2.02169
1480613067054517,-1.17402,-0.0282269,2.02151
1480613067071062,-1.17432,-0.0279538,2.02115
1480613067086604,-1.17456,-0.0274814,2.02061
1480613067110165,-1.17441,-0.026927,2.01996
1480613067131727,-1.17418,-0.0268001,2.0194
1480613067145259,-1.17362,-0.0267705,2.01922
1480613067168319,-1.17347,-0.026407,2.01884
1480613067191381,-1.17354,-0.0262635,2.01885
1480613067213439,-1.17363,-0.0261778,2.01883
1480613067245023,-1.17363,-0.0261778,2.01883
1480613067251039,-1.17363,-0.0261778,2.01883
1480613067287640,-1.17363,-0.0261778,2.01883
1480613067296159,-1.17363,-0.0261778,2.01883
1480613067311199,-1.17362,-0.0261199,2.01886
1480613067332255,-1.17331,-0.0257421,2.01887
1480613067348299,-1.1734,-0.0256564,2.01884
1480613067370861,-1.1734,-0.0256564,2.01884
1480613067391914,-1.1734,-0.0256564,2.01884
1480613067421995,-1.17341,-0.0255636,2.01901
1480613067431019,-1.17338,-0.0255985,2.01888
1480613067476639,-1.17347,-0.0255129,2.01885
1480613067479146,-1.17365,-0.0254995,2.0193
1480613067491179,-1.1731,-0.0251931,2.01972
1480613067519758,-1.17313,-0.0251582,2.01985
1480613067528778,-1.17316,-0.0250901,2.0202
1480613067551340,-1.17296,-0.025034,2.02091
1480613067572896,-1.17289,-0.0246908,2.02165
1480613067588439,-1.17292,-0.024814,2.02227
1480613067610997,-1.17275,-0.0247421,2.0227
1480613067640075,-1.17275,-0.0247421,2.0227
1480613067650101,-1.17275,-0.0247421,2.0227
1480613067671659,-1.17275,-0.0247421,2.0227
1480613067694719,-1.17289,-0.0247968,2.02279
1480613067708757,-1.17247,-0.0244227,2.02267
1480613067731319,-1.17235,-0.0235897,2.02252
1480613067753377,-1.17172,-0.0233624,2.02226
1480613067769420,-1.17067,-0.0240564,2.02199
1480613067798496,-1.17083,-0.024379,2.02189
1480613067814037,-1.17104,-0.0248832,2.02239
1480613067843616,-1.17095,-0.024969,2.02241
1480613067851136,-1.17106,-0.0248485,2.02252
1480613067881717,-1.17111,-0.0247396,2.0224
1480613067889238,-1.17111,-0.0247396,2.0224
1480613067911296,-1.17131,-0.0246917,2.02297
1480613067933355,-1.17156,-0.0245348,2.02343
1480613067947893,-1.17173,-0.0245215,2.02388
1480613067979478,-1.17185,-0.0246109,2.02384
1480613067994016,-1.1723,-0.0244573,2.02423
1480613068008053,-1.17298,-0.0246736,2.02481
1480613068039138,-1.17321,-0.0246496,2.02558
1480613068054179,-1.17371,-0.0244848,2.02629
1480613068074731,-1.17346,-0.0248411,2.0268
1480613068091777,-1.17374,-0.0259959,2.02686
1480613068114336,-1.17527,-0.0274446,2.02694
1480613068135894,-1.17522,-0.0290349,2.02683
1480613068165975,-1.17515,-0.0295798,2.02694
1480613068174500,-1.17542,-0.0294392,2.02689
1480613068195051,-1.17474,-0.0285796,2.02655
1480613068211093,-1.17335,-0.0278297,2.02631
1480613068249196,-1.17195,-0.0275726,2.02594
1480613068254710,-1.17126,-0.0270475,2.02506
1480613068271256,-1.17107,-0.0266527,2.02389
1480613068307852,-1.17052,-0.0257879,2.02368
1480613068314869,-1.17021,-0.0256107,2.02466
1480613068345953,-1.16714,-0.0273164,2.02484
1480613068354976,-1.16538,-0.0276176,2.024
1480613068374528,-1.16601,-0.025955,2.02376
1480613068391574,-1.16883,-0.0251599,2.02402
1480613068413632,-1.17148,-0.0255779,2.02593
1480613068435189,-1.16577,-0.028221,2.02608
1480613068451233,-1.16166,-0.0304635,2.02548
1480613068473793,-1.16235,-0.0310302,2.02501
1480613068497366,-1.16357,-0.0301208,2.02475
1480613068517408,-1.16336,-0.0290631,2.02434
1480613068533452,-1.16425,-0.0271099,2.02426
1480613068554509,-1.16381,-0.0255317,2.02387
1480613068585088,-1.1646,-0.0245829,2.02295
1480613068595617,-1.16515,-0.0241,2.02187
1480613068631712,-1.16386,-0.0238015,2.02084
1480613068634220,-1.16348,-0.0233068,2.0199
1480613068653772,-1.16401,-0.0224068,2.01921
1480613068676334,-1.16489,-0.0216266,2.0186
1480613068690869,-1.16515,-0.021177,2.01826
1480613068713430,-1.1648,-0.0206584,2.01815
1480613068735991,-1.16444,-0.0202395,2.01849
1480613068759051,-1.16451,-0.0197969,2.01891
1480613068773591,-1.16504,-0.0195599,2.01928
1480613068797153,-1.16511,-0.0194166,2.01929
1480613068810187,-1.16551,-0.0192241,2.02
1480613068833750,-1.16531,-0.0185866,2.02102
1480613068866338,-1.16396,-0.0189208,2.02207
1480613068871852,-1.16422,-0.0203611,2.02221
1480613068901431,-1.16575,-0.0212189,2.02188
1480613068916971,-1.16588,-0.0217681,2.02192
1480613068931510,-1.16621,-0.0218785,2.02312
1480613068953569,-1.16698,-0.0220783,2.02433
1480613068976630,-1.16696,-0.022113,2.0242
1480613068990166,-1.1673,-0.0218195,2.02346
1480613069013729,-1.16834,-0.0217027,2.02281
1480613069036292,-1.16879,-0.0210489,2.02265
1480613069051830,-1.16875,-0.0200722,2.02251
1480613069081910,-1.16821,-0.019114,2.02249
1480613069096951,-1.16807,-0.0190594,2.0224
1480613069124524,-1.16836,-0.019379,2.02243
1480613069141068,-1.16945,-0.0197543,2.02266
1480613069156108,-1.16945,-0.0197543,2.02266
1480613069186187,-1.16945,-0.0197543,2.02266
1480613069193708,-1.16957,-0.0201442,2.02221
1480613069218274,-1.17037,-0.0199509,2.02218
1480613069237325,-1.17039,-0.0203177,2.02243
1480613069253366,-1.17072,-0.0203183,2.02249
1480613069275926,-1.17123,-0.0199556,2.02223
1480613069296983,-1.17099,-0.0195192,2.02138
1480613069313526,-1.17093,-0.018971,2.02054
1480613069336087,-1.17103,-0.0185928,2.01971
1480613069369174,-1.17121,-0.0184731,2.01902
1480613069375692,-1.17124,-0.0186403,2.0183
1480613069397252,-1.17098,-0.0191322,2.0173
1480613069417304,-1.17088,-0.0193949,2.01629
1480613069433346,-1.1711,-0.0196015,2.01538
1480613069463425,-1.17143,-0.0199967,2.01486
1480613069476960,-1.17129,-0.0204336,2.01463
1480613069501025,-1.1706,-0.0208066,2.01445
1480613069516066,-1.16998,-0.0209787,2.01431
1480613069538625,-1.17,-0.0209436,2.01445
1480613069553665,-1.17,-0.0209436,2.01445
1480613069576225,-1.16941,-0.0206465,2.01454
1480613069598786,-1.16886,-0.0200305,2.01467
1480613069613324,-1.16899,-0.0193831,2.01505
1480613069636386,-1.16928,-0.0187586,2.01574
1480613069658444,-1.16897,-0.0178376,2.01654
1480613069681004,-1.16777,-0.0176278,2.01728
1480613069696044,-1.1679,-0.0179349,2.01769
1480613069718604,-1.16894,-0.0180794,2.01798
1480613069741164,-1.16906,-0.0181693,2.01794
1480613069756204,-1.169,-0.0185296,2.01838
1480613069785782,-1.16887,-0.0185323,2.01826
1480613069792801,-1.16901,-0.0189892,2.01846
1480613069815863,-1.16901,-0.0189892,2.01846
1480613069838423,-1.1691,-0.0189033,2.01844
1480613069866999,-1.1691,-0.0189033,2.01844
1480613069879030,-1.16908,-0.0188458,2.01848
1480613069898584,-1.1695,-0.0187612,2.01851
1480613069913122,-1.1695,-0.0187612,2.01851
1480613069936183,-1.16917,-0.01876,2.01845
1480613069965261,-1.16917,-0.01876,2.01845
1480613069976290,-1.16954,-0.018292,2.01875
1480613070009377,-1.16954,-0.018292,2.01875
1480613070018402,-1.16895,-0.0181463,2.01864
1480613070039458,-1.16896,-0.0182038,2.0186
1480613070065026,-1.16896,-0.0182038,2.0186
1480613070079564,-1.1691,-0.0182585,2.01869
1480613070107138,-1.16877,-0.0189021,2.01838
1480613070116161,-1.16894,-0.0193753,2.01808
1480613070146743,-1.16908,-0.01943,2.01817
1480613070159778,-1.16894,-0.0197681,2.0175
1480613070183844,-1.16879,-0.0196464,2.01675
1480613070198883,-1.1689,-0.0194268,2.01642
1480613070219437,-1.16928,-0.0197191,2.01639
1480613070241997,-1.16941,-0.0202687,2.01643
1480613070259041,-1.16899,-0.0205442,2.01666
1480613070279596,-1.16841,-0.0203054,2.01673
1480613070296141,-1.16922,-0.0199291,2.01703
1480613070319703,-1.16922,-0.0199291,2.01703
1480613070339756,-1.16849,-0.0199195,2.01711
1480613070355799,-1.16795,-0.0193618,2.0172
1480613070378359,-1.16826,-0.018846,2.01722
1480613070399917,-1.16803,-0.0183247,2.01724
1480613070415960,-1.16673,-0.0181341,2.01734
1480613070438519,-1.16552,-0.0182601,2.01754
1480613070459575,-1.16448,-0.0180649,2.0179
1480613070476119,-1.1634,-0.017445,2.01805
1480613070500184,-1.16283,-0.0170149,2.01784
1480613070526753,-1.16284,-0.0165199,2.01789
1480613070537783,-1.16287,-0.0159942,2.01817
1480613070565860,-1.16262,-0.0157575,2.01829
1480613070580898,-1.16253,-0.0158435,2.01832
1480613070595938,-1.16338,-0.0160418,2.01863
1480613070618999,-1.16407,-0.0162202,2.01873
1480613070641560,-1.16454,-0.0165864,2.01916
1480613070655600,-1.16466,-0.0171782,2.01967
1480613070678662,-1.16472,-0.0176292,2.02008
1480613070701222,-1.16494,-0.0178507,2.02046
1480613070739319,-1.16484,-0.017979,2.02096
1480613070741325,-1.16424,-0.0184281,2.02125
1480613070761879,-1.16435,-0.0184679,2.02185
1480613070775416,-1.16493,-0.0183135,2.02237
1480613070804492,-1.16493,-0.0183135,2.02237
1480613070821037,-1.1649,-0.0183483,2.02224
1480613070835576,-1.16521,-0.0184834,2.0226
1480613070858637,-1.16548,-0.0188453,2.0231
1480613070888717,-1.1655,-0.019063,2.02356
1480613070897240,-1.1655,-0.019063,2.02356
1480613070919799,-1.16564,-0.0191176,2.02365
1480613070941859,-1.16531,-0.0191171,2.02359
1480613070956397,-1.16455,-0.0193368,2.02381
1480613070978456,-1.16455,-0.0193368,2.02381
1480613071001019,-1.16387,-0.0194706,2.024
1480613071022071,-1.1635,-0.0197398,2.02456
1480613071038615,-1.16376,-0.0200444,2.0251
1480613071061176,-1.1644,-0.02044,2.02645
1480613071082232,-1.1631,-0.0212527,2.02707
1480613071098777,-1.16357,-0.0217094,2.02734
1480613071128354,-1.16438,-0.0213296,2.02765
1480613071141890,-1.16472,-0.021045,2.02761
1480613071158434,-1.16481,-0.0209588,2.02758
1480613071181998,-1.16464,-0.0212809,2.02743
1480613071203054,-1.16544,-0.0213351,2.02763
1480613071218595,-1.16697,-0.0216468,2.02809
1480613071241155,-1.16702,-0.0221893,2.02832
1480613071262210,-1.16698,-0.0228504,2.02836
1480613071278755,-1.16759,-0.023111,2.02848
1480613071307331,-1.16856,-0.0233942,2.02876
1480613071322371,-1.16941,-0.023246,2.02902
1480613071339416,-1.16939,-0.0232806,2.02889
1480613071361475,-1.16988,-0.0232006,2.02873
1480613071389551,-1.17085,-0.0233842,2.02857
1480613071398697,-1.17159,-0.0235405,2.02829
1480613071421133,-1.17246,-0.0236008,2.0283
1480613071443694,-1.17304,-0.0234943,2.02818
1480613071458733,-1.17369,-0.023185,2.028
1480613071481294,-1.17423,-0.0229964,2.02773
1480613071503352,-1.17484,-0.0230063,2.02753
1480613071542456,-1.17462,-0.0230377,2.02746
1480613071546968,-1.17462,-0.0230377,2.02746
1480613071587576,-1.17498,-0.0229622,2.02718
1480613071593091,-1.17465,-0.0227122,2.02679
1480613071601116,-1.17412,-0.0226106,2.02636
1480613071631193,-1.17412,-0.0226106,2.02636
1480613071637710,-1.17412,-0.0226106,2.02636
1480613071662275,-1.17456,-0.0230417,2.02644
1480613071683835,-1.17516,-0.0237373,2.02647
1480613071697870,-1.17484,-0.0241967,2.02649
1480613071720931,-1.17391,-0.0238376,2.02586
1480613071743491,-1.1737,-0.0229331,2.02525
1480613071758029,-1.17367,-0.0221653,2.02487
1480613071781091,-1.17367,-0.0221653,2.02487
1480613071819694,-1.17376,-0.0220795,2.02484
1480613071824707,-1.17374,-0.0220216,2.02488
1480613071864814,-1.17374,-0.0220216,2.02488
1480613071869827,-1.17409,-0.021494,2.02521
1480613071877848,-1.17418,-0.0214081,2.02519
1480613071914446,-1.17418,-0.0214081,2.02519
1480613071923470,-1.17409,-0.021494,2.02521
1480613071946030,-1.17421,-0.0215833,2.02517
1480613071961070,-1.17421,-0.0215833,2.02517
1480613072006691,-1.17515,-0.0223372,2.02522
1480613072009198,-1.17612,-0.0232662,2.02525
1480613072022734,-1.17643,-0.0239513,2.02554
1480613072057827,-1.17645,-0.0242593,2.02583
1480613072071865,-1.17649,-0.0245907,2.02621
1480613072096931,-1.17695,-0.0244356,2.02661
1480613072103449,-1.17758,-0.0243187,2.0268
1480613072142553,-1.17697,-0.0243083,2.027
1480613072148067,-1.17639,-0.0244143,2.02713
1480613072163609,-1.17691,-0.0243593,2.02716
1480613072192184,-1.17762,-0.0244987,2.02739
1480613072207726,-1.17762,-0.0244987,2.02739
1480613072239311,-1.17711,-0.0242116,2.0273
1480613072244826,-1.17711,-0.0242116,2.0273
1480613072283929,-1.17784,-0.0242181,2.02723
1480613072286436,-1.17798,-0.0242725,2.02731
1480613072304483,-1.1779,-0.0243582,2.02734
1480613072328547,-1.17774,-0.0238448,2.02716
1480613072343587,-1.17785,-0.0236263,2.02683
1480613072366148,-1.17842,-0.023555,2.02648
1480613072381187,-1.17911,-0.0237294,2.02658
1480613072426808,-1.17911,-0.0237294,2.02658
1480613072428815,-1.17756,-0.0238597,2.02672
1480613072440846,-1.17861,-0.0238475,2.02722
1480613072469422,-1.17946,-0.0239434,2.02711
1480613072485967,-1.17865,-0.0235822,2.0266
1480613072516046,-1.17917,-0.0232779,2.0263
1480613072523566,-1.17882,-0.0230636,2.02578
1480613072546127,-1.17904,-0.0233305,2.02483
1480613072560164,-1.18009,-0.0235245,2.02448
1480613072584228,-1.18006,-0.0241463,2.02405
1480613072607794,-1.17998,-0.0243834,2.02387
1480613072620325,-1.18082,-0.0238703,2.02387
1480613072649401,-1.18076,-0.0237303,2.02376
1480613072665945,-1.18039,-0.0229056,2.02335
1480613072694521,-1.17988,-0.0223682,2.02293
1480613072703545,-1.17915,-0.0220131,2.02223
1480613072750670,-1.17889,-0.0216194,2.02185
1480613072754681,-1.17888,-0.0215613,2.02189
1480613072763706,-1.17932,-0.0215,2.02211
1480613072794788,-1.17906,-0.0214533,2.0225
1480613072806819,-1.17851,-0.0213371,2.02319
1480613072840910,-1.17818,-0.0209413,2.02371
1480613072847428,-1.17817,-0.0202378,2.024
1480613072861465,-1.17839,-0.0198065,2.02403
1480613072883525,-1.17794,-0.0197169,2.02401
1480613072921625,-1.17732,-0.0192466,2.02413
1480613072929647,-1.17719,-0.018855,2.02458
1480613072943684,-1.17695,-0.018525,2.02487
1480613072967250,-1.17688,-0.0186687,2.02486
1480613072987300,-1.17637,-0.0191822,2.02491
1480613073011364,-1.17606,-0.0195483,2.02511
1480613073025903,-1.17606,-0.0195483,2.02511
1480613073054479,-1.17605,-0.0194904,2.02514
1480613073073028,-1.17614,-0.0194046,2.02512
1480613073086063,-1.1759,-0.0198709,2.02495
1480613073116143,-1.17604,-0.0199253,2.02504
1480613073123162,-1.1759,-0.0198709,2.02495
1480613073161764,-1.17534,-0.0198495,2.02547
1480613073167282,-1.17401,-0.0197972,2.02588
1480613073183823,-1.17401,-0.0197972,2.02588
1480613073207386,-1.17427,-0.0203423,2.02605
1480613073226937,-1.17396,-0.020558,2.02645
1480613073257017,-1.17372,-0.0209721,2.02693
1480613073267547,-1.17305,-0.0210133,2.02728
1480613073288101,-1.17298,-0.0208151,2.02721
1480613073304644,-1.17298,-0.0208151,2.02721
1480613073339739,-1.17259,-0.0208665,2.0273
1480613073348762,-1.17259,-0.0208665,2.0273
1480613073363301,-1.17259,-0.0208665,2.0273
1480613073387365,-1.17241,-0.0212298,2.02763
1480613073408921,-1.17223,-0.0215933,2.02795
1480613073429476,-1.172,-0.0218164,2.02815
1480613073446522,-1.172,-0.0218164,2.02815
1480613073476101,-1.172,-0.0218164,2.02815
1480613073491140,-1.17208,-0.0217305,2.02813
1480613073531247,-1.17222,-0.0217848,2.02822
1480613073535258,-1.17169,-0.022033,2.02855
1480613073551300,-1.17174,-0.0218723,2.02908
1480613073579375,-1.1722,-0.0216249,2.02964
1480613073588900,-1.17242,-0.0218438,2.03004
1480613073610959,-1.17212,-0.0223102,2.03067
1480613073626003,-1.17217,-0.022893,2.03138
1480613073664603,-1.1728,-0.0231245,2.03235
1480613073667111,-1.17238,-0.0231602,2.03296
1480613073686159,-1.17238,-0.0231602,2.03296
1480613073716243,-1.17238,-0.0231602,2.03296
1480613073722756,-1.17238,-0.0231602,2.03296
1480613073753339,-1.17238,-0.0231602,2.03296
1480613073769381,-1.17242,-0.0230918,2.03332
1480613073815002,-1.17256,-0.023146,2.03341
1480613073819514,-1.17263,-0.0236462,2.03317
1480613073859120,-1.1727,-0.0238445,2.03325
1480613073861625,-1.17277,-0.0237004,2.03326
1480613073868145,-1.17263,-0.0236462,2.03317
1480613073889201,-1.17208,-0.023528,2.03315
1480613073909754,-1.172,-0.0236141,2.03318
1480613073925796,-1.172,-0.0236141,2.03318
1480613073948357,-1.17172,-0.0237556,2.03324
1480613073969413,-1.17123,-0.0235857,2.03306
1480613073993476,-1.1701,-0.0226407,2.03282
1480613074008517,-1.16948,-0.0223239,2.03273
1480613074031077,-1.16979,-0.0220139,2.03249
1480613074046116,-1.16979,-0.0220139,2.03249
1480613074084219,-1.17046,-0.0225636,2.03253
1480613074097755,-1.17029,-0.0232286,2.03244
1480613074106278,-1.16945,-0.0236789,2.03177
1480613074135354,-1.16956,-0.0232666,2.03116
1480613074149395,-1.16964,-0.0231805,2.03114
1480613074173456,-1.16964,-0.0231805,2.03114
1480613074190000,-1.16964,-0.0231805,2.03114
1480613074209552,-1.17029,-0.0232714,2.03109
1480613074226096,-1.17036,-0.0227259,2.03098
1480613074248656,-1.17101,-0.022324,2.03107
1480613074269714,-1.17101,-0.022324,2.03107
1480613074286255,-1.17019,-0.0226552,2.0314
1480613074308816,-1.16997,-0.022687,2.03134
1480613074330875,-1.17023,-0.0225873,2.03176
1480613074370480,-1.17094,-0.0225753,2.0322
1480613074374992,-1.17168,-0.0223366,2.0325
1480613074404069,-1.17168,-0.0223366,2.0325
1480613074416101,-1.17065,-0.0230521,2.03171
1480613074428634,-1.17056,-0.0229797,2.03124
1480613074458715,-1.1707,-0.023034,2.03133
1480613074472250,-1.17069,-0.0231265,2.03116
1480613074494812,-1.17122,-0.0231285,2.03115
1480613074511856,-1.17073,-0.0236024,2.03073
1480613074531909,-1.16978,-0.0232857,2.03058
1480613074548453,-1.16978,-0.0232857,2.03058
1480613074586053,-1.16987,-0.0231996,2.03055
1480613074588560,-1.16986,-0.0231417,2.03059
1480613074608614,-1.17006,-0.0231445,2.03053
1480613074648219,-1.17006,-0.0229017,2.0309
1480613074652229,-1.17019,-0.0227477,2.03123
1480613074691333,-1.17135,-0.0229743,2.03148
1480613074693840,-1.17211,-0.0232465,2.03122
1480613074711888,-1.17171,-0.0232988,2.03132
1480613074734449,-1.17112,-0.0237497,2.03161
1480613074750995,-1.17162,-0.0238274,2.03195
1480613074765531,-1.17162,-0.0238274,2.03195
1480613074789093,-1.17129,-0.0241708,2.03195
1480613074819173,-1.17062,-0.0241147,2.03187
1480613074832210,-1.1703,-0.0240232,2.03198
1480613074849759,-1.17038,-0.0239371,2.03195
1480613074884848,-1.17052,-0.0239914,2.03204
1480613074917434,-1.17035,-0.0237623,2.03197
1480613074938993,-1.17005,-0.0235367,2.03177
1480613074941498,-1.17037,-0.0232859,2.0316
1480613074970076,-1.17104,-0.023342,2.03168
1480613074982107,-1.17104,-0.023342,2.03168
1480613074990630,-1.17044,-0.0234842,2.03167
1480613075012186,-1.17044,-0.0234842,2.03167
1480613075028730,-1.17117,-0.0233383,2.03181
1480613075050789,-1.17219,-0.023109,2.03184
1480613075080368,-1.17171,-0.0231482,2.03153
1480613075097417,-1.17179,-0.0230622,2.0315
1480613075111451,-1.17218,-0.0233522,2.03147
1480613075132507,-1.17218,-0.0233522,2.03147
1480613075154566,-1.17218,-0.0233522,2.03147
1480613075193169,-1.17203,-0.0232399,2.03142
1480613075203195,-1.17203,-0.0232399,2.03142
1480613075216234,-1.1722,-0.022674,2.03195
1480613075230769,-1.17153,-0.0223236,2.03289
1480613075254331,-1.17219,-0.0229143,2.0334
1480613075276891,-1.17314,-0.0232295,2.03355
1480613075290928,-1.17345,-0.023756,2.03334
1480613075321008,-1.17391,-0.0243026,2.03345
1480613075328027,-1.17418,-0.0248465,2.03362
1480613075352592,-1.17542,-0.0249854,2.03385
1480613075373648,-1.17622,-0.0255828,2.03337
1480613075387686,-1.17671,-0.0258977,2.03263
1480613075431803,-1.17751,-0.0260023,2.0322
1480613075443835,-1.17853,-0.0257729,2.03224
1480613075478929,-1.17905,-0.0259609,2.0319
1480613075481435,-1.17927,-0.0261737,2.03159
1480613075493467,-1.17931,-0.0257568,2.03117
1480613075516027,-1.1795,-0.0258531,2.03094
1480613075531069,-1.17985,-0.0257194,2.03069
1480613075553627,-1.17985,-0.0257194,2.03069
1480613075568169,-1.17938,-0.0254171,2.03021
1480613075591227,-1.17926,-0.024981,2.02948
1480613075614791,-1.17926,-0.024981,2.02948
1480613075627824,-1.17909,-0.0258955,2.02972
1480613075666930,-1.17782,-0.0263812,2.02966
1480613075673447,-1.17693,-0.0258621,2.02955
1480613075696507,-1.17683,-0.025396,2.02966
1480613075711050,-1.17786,-0.0249767,2.02943
1480613075756667,-1.17862,-0.0246053,2.02942
1480613075759175,-1.17797,-0.0245137,2.02947
1480613075770708,-1.17737,-0.0246552,2.02946
1480613075794769,-1.17738,-0.0247135,2.02943
1480613075814823,-1.17734,-0.02469,2.02933
1480613075838385,-1.17716,-0.024652,2.02953
1480613075853425,-1.17628,-0.0246323,2.02999
1480613075882503,-1.17559,-0.024616,2.03038
1480613075891024,-1.17554,-0.0247254,2.0305
1480613075914588,-1.17554,-0.0247254,2.0305
1480613075934643,-1.17505,-0.0248052,2.03066
1480613075951185,-1.17406,-0.0247557,2.03113
1480613075973745,-1.17349,-0.0246784,2.03169
1480613075994801,-1.17319,-0.0248025,2.03226
1480613076025884,-1.1723,-0.0248775,2.03255
1480613076033406,-1.17177,-0.0249752,2.033
1480613076070001,-1.17087,-0.0249003,2.0335
1480613076083537,-1.1704,-0.0247964,2.03399
1480613076099581,-1.1704,-0.0247964,2.03399
1480613076114619,-1.17028,-0.0247078,2.03404
1480613076130161,-1.1698,-0.0246966,2.03436
1480613076154225,-1.16971,-0.0248246,2.03487
1480613076174780,-1.16986,-0.0251877,2.03525
1480613076190822,-1.16986,-0.0251877,2.03525
1480613076213382,-1.16962,-0.0250106,2.03533
1480613076266524,-1.16922,-0.0248556,2.03567
1480613076269030,-1.16929,-0.0244688,2.03606
1480613076275047,-1.16929,-0.0244688,2.03606
1480613076302118,-1.16834,-0.0240043,2.03612
1480613076311143,-1.16744,-0.0238305,2.03609
1480613076341724,-1.16735,-0.024009,2.03594
1480613076356764,-1.16715,-0.0240068,2.03601
1480613076370801,-1.16649,-0.0242024,2.03616
1480613076399883,-1.16647,-0.0241445,2.0362
1480613076415922,-1.16691,-0.0244239,2.03649
1480613076430460,-1.16691,-0.0244239,2.03649
1480613076457532,-1.16638,-0.0246656,2.03612
1480613076491121,-1.16638,-0.0246656,2.03612
1480613076493630,-1.16638,-0.0246656,2.03612
1480613076535740,-1.16646,-0.0245793,2.0361
1480613076543761,-1.16645,-0.0249229,2.03626
1480613076550279,-1.1661,-0.0254939,2.0364
1480613076583368,-1.16624,-0.0255481,2.03649
1480613076595900,-1.16624,-0.0255481,2.03649
1480613076626984,-1.1663,-0.025496,2.03633
1480613076633503,-1.16628,-0.0254381,2.03637
1480613076664082,-1.16637,-0.0253518,2.03635
1480613076671602,-1.16631,-0.0254039,2.0365
1480613076693660,-1.16617,-0.0253497,2.03641
1480613076730258,-1.16618,-0.0254076,2.03638
1480613076737277,-1.16618,-0.0254076,2.03638
1480613076777884,-1.16617,-0.0253497,2.03641
1480613076781897,-1.16625,-0.0252634,2.03639
1480613076804455,-1.16625,-0.0252634,2.03639
1480613076813479,-1.16617,-0.0253497,2.03641
1480613076851580,-1.16617,-0.0253497,2.03641
1480613076857598,-1.16639,-0.0253176,2.03648
1480613076879655,-1.16617,-0.0253497,2.03641
1480613076896200,-1.16639,-0.0253176,2.03648
1480613076917756,-1.16639,-0.0253176,2.03648
1480613076934300,-1.16639,-0.0253176,2.03648
1480613076956359,-1.16639,-0.0253176,2.03648
1480613076976914,-1.16562,-0.0252323,2.0364
1480613077000978,-1.16562,-0.0252323,2.0364
1480613077016021,-1.16562,-0.0252323,2.0364
1480613077046098,-1.16558,-0.0252086,2.03631
1480613077059633,-1.16566,-0.0251223,2.03628
1480613077083698,-1.16566,-0.0251223,2.03628
1480613077097235,-1.1656,-0.0251744,2.03644
1480613077138845,-1.16558,-0.0252086,2.03631
1480613077143356,-1.16566,-0.0251223,2.03628
1480613077173938,-1.16569,-0.0250881,2.03641
1480613077178951,-1.16569,-0.0250881,2.03641
1480613077195997,-1.16576,-0.0249439,2.03643
1480613077218557,-1.16562,-0.0248897,2.03634
1480613077233599,-1.16576,-0.0249439,2.03643
1480613077286738,-1.1657,-0.0246535,2.03652
1480613077289251,-1.16568,-0.0245956,2.03656
1480613077294759,-1.16577,-0.0245093,2.03653
1480613077323335,-1.16577,-0.0245093,2.03653
1480613077338375,-1.16631,-0.0244176,2.03669
1480613077353415,-1.16631,-0.0244176,2.03669
1480613077375975,-1.16567,-0.0240441,2.03664
1480613077407058,-1.16576,-0.0239577,2.03662
1480613077413074,-1.16576,-0.0239577,2.03662
1480613077436135,-1.16584,-0.0238714,2.03659
1480613077466216,-1.16583,-0.0238135,2.03663
1480613077473735,-1.16591,-0.0237271,2.0366
1480613077510834,-1.16577,-0.023673,2.03651
1480613077518354,-1.16591,-0.0237271,2.0366
1480613077557460,-1.16571,-0.0237251,2.03667
1480613077561971,-1.16556,-0.0236131,2.03662
1480613077586536,-1.16633,-0.0233971,2.03701
1480613077602578,-1.16619,-0.023343,2.03692
1480613077606589,-1.16611,-0.0234293,2.03695
1480613077622632,-1.16593,-0.0237947,2.03727
1480613077648701,-1.16604,-0.0239257,2.03771
1480613077662739,-1.16655,-0.0239106,2.03821
1480613077684296,-1.16655,-0.0239106,2.03821
1480613077703848,-1.16635,-0.0239087,2.03828
1480613077737939,-1.16621,-0.0238546,2.03819
1480613077742952,-1.16677,-0.0242219,2.03844
1480613077790077,-1.16677,-0.0242219,2.03844
1480613077794589,-1.16677,-0.0242219,2.03844
1480613077804115,-1.16704,-0.0240299,2.03903
1480613077833693,-1.16671,-0.0241333,2.03951
1480613077846731,-1.16741,-0.0245542,2.03985
1480613077861266,-1.16828,-0.0248608,2.04019
1480613077891346,-1.16828,-0.0248608,2.04019
1480613077915411,-1.16842,-0.0253584,2.04088
1480613077921426,-1.16927,-0.0257406,2.04158
1480613077960029,-1.17054,-0.0257485,2.0422
1480613077966664,-1.17054,-0.0257485,2.0422
1480613077989110,-1.17054,-0.0257485,2.0422
1480613078007656,-1.17077,-0.0255236,2.04199
1480613078026206,-1.17138,-0.0255289,2.04179
1480613078050269,-1.172,-0.0252496,2.04149
1480613078063806,-1.17194,-0.024667,2.04077
1480613078086365,-1.1715,-0.0249314,2.04152
1480613078111933,-1.17064,-0.0249346,2.04147
1480613078123965,-1.16946,-0.0244047,2.04092
1480613078148030,-1.16869,-0.0234345,2.03964
1480613078169086,-1.16879,-0.0226702,2.03826
1480613078185631,-1.17025,-0.0221735,2.03755
1480613078209192,-1.16995,-0.0213553,2.03695
1480613078221223,-1.1694,-0.0201518,2.03669
1480613078243784,-1.1694,-0.019408,2.0365
1480613078266848,-1.16892,-0.0189543,2.03623
1480613078297928,-1.16865,-0.0186947,2.03617
1480613078303945,-1.16901,-0.0182744,2.03581
1480613078345555,-1.16886,-0.0179113,2.03543
1480613078350568,-1.16856,-0.0172845,2.03511
1480613078364106,-1.16851,-0.0169521,2.03473
1480613078386664,-1.16873,-0.0169198,2.03479
1480613078402706,-1.16851,-0.0169521,2.03473
1480613078423765,-1.16866,-0.0170639,2.03478
1480613078446323,-1.16873,-0.0169198,2.03479
1480613078470387,-1.16851,-0.0171023,2.03452
1480613078491443,-1.16804,-0.0173918,2.03444
1480613078518014,-1.16835,-0.0175247,2.03481
1480613078523028,-1.16854,-0.0178204,2.03554
1480613078544083,-1.16823,-0.0181386,2.03639
1480613078578676,-1.16788,-0.0179745,2.03705
1480613078584691,-1.16759,-0.0179088,2.03735
1480613078605246,-1.16779,-0.0178606,2.03793
1480613078626302,-1.16779,-0.0180198,2.03843
1480613078667411,-1.16732,-0.0179179,2.03893
1480613078671422,-1.16703,-0.0177025,2.03944
1480613078687464,-1.16722,-0.0175044,2.04023
1480613078703006,-1.16713,-0.0176333,2.04074
1480613078724061,-1.16695,-0.0178488,2.04127
1480613078749633,-1.16743,-0.0183016,2.04154
1480613078763167,-1.16743,-0.0183016,2.04154
1480613078794249,-1.16746,-0.0185765,2.04196
1480613078806281,-1.167,-0.0190271,2.04238
1480613078822825,-1.16623,-0.0195383,2.0427
1480613078851401,-1.16621,-0.0196731,2.043
1480613078866447,-1.16678,-0.0196044,2.04336
1480613078897523,-1.1667,-0.0194488,2.04376
1480613078904041,-1.16603,-0.0197391,2.04374
1480613078934125,-1.16594,-0.0198257,2.04377
1480613078944148,-1.16663,-0.0203374,2.04393
1480613078964202,-1.16621,-0.0209631,2.04433
1480613078986259,-1.16606,-0.0219383,2.04453
1480613079003305,-1.16658,-0.0222216,2.04463
1480613079027870,-1.16644,-0.0221678,2.04454
1480613079046419,-1.16646,-0.0221337,2.04467
1480613079079006,-1.16638,-0.0222203,2.04469
1480613079091539,-1.16603,-0.0227501,2.04436
1480613079123624,-1.16603,-0.0227501,2.04436
1480613079125630,-1.16603,-0.0227501,2.04436
1480613079143678,-1.1659,-0.0226043,2.04444
1480613079170249,-1.16532,-0.0223735,2.0445
1480613079184289,-1.16533,-0.0222815,2.04467
1480613079211358,-1.16541,-0.0221949,2.04465
1480613079226398,-1.16494,-0.0219941,2.04471
1480613079244447,-1.16421,-0.0221444,2.04458
1480613079263999,-1.16471,-0.0222199,2.04492
1480613079286558,-1.16517,-0.021971,2.04548
1480613079311625,-1.1647,-0.0219635,2.04581
1480613079348222,-1.1644,-0.0214978,2.04599
1480613079350729,-1.16441,-0.0215557,2.04595
1480613079368778,-1.1644,-0.0214978,2.04599
1480613079387326,-1.16452,-0.0215855,2.04595
1480613079407881,-1.16454,-0.0215515,2.04608
1480613079428937,-1.16504,-0.0210322,2.04603
1480613079451497,-1.16535,-0.021213,2.04575
1480613079466537,-1.16579,-0.0218826,2.04545
1480613079499628,-1.16599,-0.02287,2.04519
1480613079505140,-1.16608,-0.0234268,2.04491
1480613079533715,-1.16663,-0.0240344,2.04478
1480613079548757,-1.16675,-0.0241223,2.04473
1480613079581343,-1.1663,-0.0242794,2.04434
1480613079586356,-1.1663,-0.0242794,2.04434
1480613079625961,-1.166,-0.0242053,2.04393
1480613079628468,-1.1665,-0.0238366,2.04367
1480613079646515,-1.16678,-0.0236508,2.04313
1480613079670580,-1.1664,-0.0230196,2.043
1480613079685621,-1.1666,-0.0230211,2.04294
1480613079722719,-1.16687,-0.022728,2.04309
1480613079728735,-1.16687,-0.022728,2.04309
1480613079746783,-1.16675,-0.02264,2.04313
1480613079782878,-1.16683,-0.0225535,2.0431
1480613079788894,-1.16682,-0.0224956,2.04314
1480613079805443,-1.16682,-0.0224956,2.04314
1480613079826495,-1.16688,-0.0224432,2.04299
1480613079864095,-1.16679,-0.0225724,2.04349
1480613079874623,-1.16694,-0.0226842,2.04354
1480613079911721,-1.16737,-0.0227114,2.0436
1480613079915233,-1.16729,-0.0227979,2.04362
1480613079925758,-1.1683,-0.022655,2.04349
1480613079955338,-1.1693,-0.0227047,2.04363
1480613079968878,-1.16927,-0.0227389,2.0435
1480613079986922,-1.16927,-0.0227389,2.0435
1480613080006473,-1.16921,-0.0227912,2.04366
1480613080029033,-1.16921,-0.0227912,2.04366
1480613080054099,-1.16919,-0.0228253,2.04353
1480613080066135,-1.16927,-0.0227389,2.0435
1480613080088692,-1.1693,-0.0227047,2.04363
1480613080106740,-1.16988,-0.0227435,2.0433
1480613080142839,-1.1698,-0.0228299,2.04332
1480613080148855,-1.16994,-0.0228837,2.04341
1480613080189962,-1.17018,-0.0223739,2.0431
1480613080193972,-1.17054,-0.0214588,2.04279
1480613080209012,-1.17057,-0.0202456,2.04284
1480613080235583,-1.16983,-0.0193508,2.04294
1480613080250122,-1.16933,-0.019033,2.04298
1480613080270175,-1.16919,-0.0187283,2.04256
1480613080286719,-1.169,-0.0186847,2.04215
1480613080306271,-1.169,-0.0186847,2.04215
1480613080328831,-1.16885,-0.018673,2.04254
1480613080346889,-1.16884,-0.0187151,2.04302
1480613080366437,-1.16893,-0.0186286,2.04299
1480613080391999,-1.16893,-0.0186286,2.04299
1480613080423082,-1.1689,-0.018663,2.04286
1480613080434112,-1.16838,-0.018722,2.04283
1480613080456169,-1.16846,-0.0185776,2.04284
1480613080472714,-1.16898,-0.0184262,2.04304
1480613080511819,-1.16918,-0.0184278,2.04297
1480613080517333,-1.1691,-0.0185143,2.043
1480613080526857,-1.16897,-0.0185185,2.04287
1480613080546409,-1.16911,-0.0185722,2.04296
1480613080568971,-1.16911,-0.0185722,2.04296
1480613080599554,-1.1691,-0.0185143,2.043
1480613080607573,-1.1691,-0.0185143,2.043
1480613080629130,-1.1691,-0.0185143,2.043
1480613080652692,-1.16865,-0.018429,2.04298
1480613080667732,-1.16865,-0.018429,2.04298
1480613080702324,-1.16865,-0.018429,2.04298
1480613080719370,-1.16865,-0.018429,2.04298
1480613080743935,-1.16874,-0.0183424,2.04296
1480613080748949,-1.16874,-0.0183424,2.04296
1480613080773018,-1.168,-0.0184343,2.04287
1480613080790559,-1.168,-0.0184343,2.04287
1480613080809108,-1.168,-0.0184343,2.04287
1480613080842197,-1.16808,-0.0183478,2.04284
1480613080847711,-1.16808,-0.0183478,2.04284
1480613080868767,-1.16807,-0.0182899,2.04288
1480613080891329,-1.16815,-0.0182033,2.04285
1480613080907872,-1.16815,-0.0182033,2.04285
1480613080931937,-1.16817,-0.018169,2.04298
1480613080951490,-1.16817,-0.018169,2.04298
1480613080974049,-1.16817,-0.018169,2.04298
1480613081021173,-1.16803,-0.0181153,2.0429
1480613081028191,-1.16832,-0.0186241,2.04319
1480613081030699,-1.16826,-0.018735,2.04341
1480613081048746,-1.16782,-0.0193937,2.04358
1480613081071306,-1.16758,-0.020054,2.04368
1480613081089856,-1.16821,-0.0202752,2.04394
1480613081108907,-1.16837,-0.0201449,2.04447
1480613081131466,-1.16872,-0.0198652,2.04504
1480613081149515,-1.16844,-0.019708,2.04551
1480613081169074,-1.16802,-0.0199903,2.04575
1480613081191626,-1.16831,-0.0205995,2.04659
1480613081209173,-1.16894,-0.0214557,2.04772
1480613081228725,-1.16904,-0.0217284,2.04918
1480613081251286,-1.17001,-0.0214586,2.05026
1480613081283873,-1.17023,-0.0220107,2.05011
1480613081290389,-1.17062,-0.0223972,2.05062
1480613081311445,-1.17302,-0.0223306,2.0522
1480613081353056,-1.17423,-0.0225228,2.05401
1480613081357567,-1.17354,-0.0228,2.05452
1480613081371606,-1.17362,-0.0225209,2.05422
1480613081389152,-1.1746,-0.022007,2.05383
1480613081409207,-1.17554,-0.0214176,2.054
1480613081431264,-1.17576,-0.0213842,2.05406
1480613081449312,-1.17498,-0.0213987,2.05381
1480613081485415,-1.17487,-0.0214211,2.05317
1480613081498951,-1.17606,-0.0214602,2.05263
1480613081509473,-1.17685,-0.0209124,2.05244
1480613081529024,-1.17618,-0.0202186,2.05261
1480613081561611,-1.17535,-0.0199076,2.05258
1480613081569132,-1.17474,-0.0194635,2.05218
1480613081590187,-1.17475,-0.0195733,2.05149
1480613081612747,-1.17457,-0.0195896,2.05104
1480613081629291,-1.17381,-0.0195686,2.05092
1480613081656362,-1.17356,-0.0191431,2.05078
1480613081671403,-1.17371,-0.0199911,2.0504
1480613081689451,-1.17504,-0.0200849,2.04995
1480613081719531,-1.17557,-0.0204768,2.04936
1480613081731564,-1.17439,-0.0210909,2.04841
1480613081751617,-1.17376,-0.0219101,2.04732
1480613081776182,-1.17305,-0.0226235,2.04587
1480613081808270,-1.17196,-0.0224042,2.04471
1480613081810774,-1.17068,-0.0212193,2.04401
1480613081855393,-1.17181,-0.0196842,2.04406
1480613081861910,-1.17124,-0.0184247,2.04384
1480613081873942,-1.17034,-0.0177536,2.04324
1480613081896504,-1.17003,-0.0171285,2.04292
1480613081911542,-1.17009,-0.0170764,2.04276
1480613081934102,-1.17113,-0.0169073,2.04347
1480613081951649,-1.17192,-0.0165035,2.0443
1480613081971201,-1.17172,-0.0162663,2.04546
1480613081989248,-1.17201,-0.0161789,2.0472
1480613082011809,-1.17321,-0.0174101,2.05
1480613082031363,-1.17251,-0.0194067,2.05174
1480613082049409,-1.17362,-0.0205609,2.05152
1480613082082496,-1.17615,-0.0195626,2.05153
1480613082091521,-1.17798,-0.0189443,2.05076
1480613082136648,-1.17714,-0.0183251,2.05044
1480613082148172,-1.17753,-0.0184607,2.05061
1480613082152685,-1.17818,-0.0189858,2.05117
1480613082177249,-1.17721,-0.019457,2.05108
1480613082191787,-1.1785,-0.0190745,2.05106
1480613082227884,-1.17966,-0.0187903,2.05075
1480613082233899,-1.17974,-0.0187039,2.05072
1480613082251949,-1.1802,-0.019242,2.05012
1480613082271502,-1.18074,-0.0194441,2.04925
1480613082294059,-1.18081,-0.0190111,2.04845
1480613082311606,-1.1808,-0.0185128,2.04788
1480613082331660,-1.17981,-0.018128,2.04829
1480613082361238,-1.17885,-0.018848,2.04843
1480613082371766,-1.17736,-0.018938,2.0477
1480613082400342,-1.17666,-0.0173428,2.04717
1480613082413878,-1.17636,-0.0160341,2.04672
1480613082465014,-1.17776,-0.0149462,2.04712
1480613082469528,-1.17725,-0.0139791,2.0468
1480613082474038,-1.1766,-0.0133536,2.04581
1480613082491585,-1.17705,-0.0125967,2.0451
1480613082512644,-1.17711,-0.0127364,2.04521
1480613082535202,-1.17678,-0.0130419,2.04473
1480613082552249,-1.17645,-0.013289,2.0443
1480613082578820,-1.17664,-0.0136276,2.04368
1480613082601379,-1.17693,-0.0135957,2.04294
1480613082611906,-1.17669,-0.0132223,2.04204
1480613082634467,-1.17632,-0.0127951,2.04106
1480613082654018,-1.17566,-0.0124519,2.04017
1480613082679585,-1.17486,-0.011752,2.03951
1480613082692621,-1.17367,-0.0114076,2.03864
1480613082721195,-1.17223,-0.0104259,2.03776
1480613082731724,-1.17046,-0.00968769,2.03646
1480613082752780,-1.16883,-0.00865911,2.03518
1480613082784364,-1.16748,-0.0073371,2.03406
1480613082791884,-1.16546,-0.00644983,2.03273
1480613082818956,-1.16241,-0.00576318,2.03118
1480613082833998,-1.16048,-0.00463398,2.03004
1480613082852045,-1.16088,-0.00343472,2.02964
1480613082874102,-1.16143,-0.00250063,2.02918
1480613082910700,-1.16102,-0.00187364,2.02874
1480613082913207,-1.16071,-0.00198007,2.028
1480613082934263,-1.16075,-0.00245407,2.02757
1480613082961334,-1.16208,-0.00306255,2.02766
1480613082973366,-1.16443,-0.0039031,2.02786
1480613083007457,-1.16558,-0.00477673,2.02783
1480613083013975,-1.16546,-0.00558087,2.02785
1480613083032023,-1.16526,-0.0061302,2.02783
1480613083060599,-1.16551,-0.00612391,2.02808
1480613083073633,-1.16705,-0.00630106,2.02822
1480613083099704,-1.16792,-0.00621058,2.02843
1480613083114244,-1.1679,-0.00624586,2.0283
1480613083141313,-1.16799,-0.00615949,2.02827
1480613083151846,-1.16856,-0.00600237,2.02879
1480613083195959,-1.16898,-0.006075,2.02931
1480613083198465,-1.16979,-0.00634436,2.02997
1480613083212001,-1.17077,-0.00684261,2.0307
1480613083249602,-1.17105,-0.00775417,2.03112
1480613083253612,-1.1716,-0.00852443,2.03148
1480613083293217,-1.17217,-0.00935205,2.0318
1480613083295725,-1.17327,-0.0100306,2.03232
1480613083313772,-1.17371,-0.0106181,2.0329
1480613083339340,-1.17357,-0.0113075,2.033
1480613083354380,-1.17341,-0.0118796,2.03307
1480613083381452,-1.17339,-0.0119147,2.03294
1480613083391980,-1.17347,-0.0118285,2.03291
1480613083415041,-1.1732,-0.0117264,2.03335
1480613083444120,-1.17229,-0.0116848,2.03362
1480613083457655,-1.17142,-0.0115345,2.03378
1480613083480215,-1.17142,-0.0115345,2.03378
1480613083527841,-1.17129,-0.0111448,2.03424
1480613083533360,-1.17063,-0.0107544,2.03471
1480613083535864,-1.1701,-0.0106032,2.03493
1480613083572963,-1.16959,-0.0105674,2.03507
1480613083577976,-1.16917,-0.0105052,2.03525
1480613083596525,-1.16877,-0.01075,2.03562
1480613083615074,-1.16826,-0.0109663,2.03609
1480613083631630,-1.16756,-0.0110463,2.03632
1480613083654178,-1.16765,-0.0109598,2.0363
1480613083675234,-1.16796,-0.0110925,2.03666
1480613083704313,-1.16764,-0.0114037,2.0369
1480613083714338,-1.16706,-0.0117647,2.03736
1480613083735395,-1.16682,-0.0121816,2.03783
1480613083756449,-1.16668,-0.0121278,2.03775
1480613083794552,-1.16641,-0.0119356,2.03835
1480613083804577,-1.16602,-0.0122415,2.03878
1480613083816610,-1.16558,-0.0123151,2.03926
1480613083859224,-1.16557,-0.0123576,2.03974
1480613083864739,-1.16538,-0.0126656,2.0401
1480613083876770,-1.16489,-0.0129414,2.04054
1480613083894317,-1.16455,-0.0129865,2.04096
1480613083916876,-1.16458,-0.0129196,2.04132
1480613083936434,-1.16476,-0.0129063,2.04177
1480613083954978,-1.16474,-0.0130413,2.04208
1480613083981564,-1.16467,-0.0131856,2.04206
1480613083998596,-1.16458,-0.0132723,2.04209
1480613084015140,-1.16458,-0.0132723,2.04209
1480613084036696,-1.16458,-0.0132723,2.04209
1480613084082818,-1.16411,-0.0134137,2.04221
1480613084087832,-1.16418,-0.0140136,2.04241
1480613084096856,-1.16446,-0.0146149,2.04254
1480613084123927,-1.16486,-0.0152121,2.04279
1480613084134456,-1.16486,-0.0159563,2.04298
1480613084157517,-1.16496,-0.0164212,2.04286
1480613084176568,-1.16519,-0.0164475,2.04299
1480613084194114,-1.16591,-0.0164903,2.04339
1480613084216675,-1.16599,-0.0164037,2.04336
1480613084236227,-1.16599,-0.0164037,2.04336
1480613084260297,-1.16648,-0.0167735,2.04451
1480613084276835,-1.16518,-0.0176399,2.04561
1480613084296889,-1.16485,-0.0189238,2.04617
1480613084359053,-1.16604,-0.0193598,2.04688
1480613084360557,-1.16612,-0.0182869,2.04705
1480613084366072,-1.16663,-0.0176326,2.04668
1480613084374594,-1.16569,-0.0176231,2.04612
1480613084403672,-1.16541,-0.0182503,2.04542
1480613084417208,-1.16627,-0.0189896,2.04565
1480613084433250,-1.16729,-0.0192469,2.04564
1480613084456813,-1.1674,-0.0193347,2.0456
1480613084476866,-1.16906,-0.0190343,2.04579
1480613084495917,-1.17019,-0.0193289,2.04639
1480613084516472,-1.17008,-0.0198345,2.04682
1480613084537026,-1.17052,-0.0193675,2.04692
1480613084554573,-1.17159,-0.0190785,2.0468
1480613084576632,-1.17264,-0.0182726,2.04664
1480613084626765,-1.17264,-0.017981,2.04582
1480613084638296,-1.17082,-0.0173263,2.04485
1480613084642807,-1.17077,-0.0167434,2.04414
1480613084673891,-1.17168,-0.0171221,2.04392
1480613084676400,-1.17156,-0.0181133,2.04361
1480613084695950,-1.1706,-0.0190323,2.04289
1480613084726030,-1.1699,-0.0192064,2.04295
1480613084733550,-1.17079,-0.0191758,2.04384
1480613084763630,-1.17104,-0.0190164,2.0443
1480613084779171,-1.17057,-0.0184723,2.0442
1480613084792707,-1.17107,-0.0179537,2.04415
1480613084815768,-1.17144,-0.0180743,2.04484
1480613084838328,-1.17128,-0.0175184,2.04602
1480613084852868,-1.17042,-0.0177237,2.04696
1480613084875932,-1.17111,-0.0183264,2.04695
1480613084898492,-1.17252,-0.0191715,2.04649
1480613084919551,-1.17285,-0.0197129,2.04575
1480613084935593,-1.17361,-0.0198286,2.0457
1480613084958654,-1.17473,-0.0195705,2.04639
1480613084972692,-1.17545,-0.0191169,2.04693
1480613084995754,-1.17522,-0.0179542,2.04721
1480613085018313,-1.17497,-0.0162917,2.04691
1480613085033855,-1.17451,-0.0148713,2.04631
1480613085056414,-1.17334,-0.0141534,2.0455
1480613085079476,-1.17363,-0.0144626,2.04482
1480613085100063,-1.17432,-0.0150251,2.04433
1480613085116073,-1.1745,-0.0154039,2.0442
1480613085138633,-1.17563,-0.0156979,2.0448
1480613085153172,-1.17636,-0.0161391,2.04532
1480613085190771,-1.17585,-0.0169423,2.04548
1480613085198292,-1.17498,-0.0171909,2.04505
1480613085213834,-1.17547,-0.016916,2.04462
1480613085235892,-1.17634,-0.0163192,2.04427
1480613085258953,-1.17674,-0.0157305,2.04374
1480613085279508,-1.17608,-0.0159803,2.04325
1480613085297056,-1.17509,-0.0159891,2.04307
1480613085325130,-1.17421,-0.0162775,2.04312
1480613085339668,-1.17431,-0.0164992,2.04339
1480613085363231,-1.17479,-0.0169506,2.04366
1480613085388297,-1.17454,-0.0176106,2.04376
1480613085416372,-1.17404,-0.0183725,2.04344
1480613085431412,-1.17396,-0.0184588,2.04347
1480613085469513,-1.17396,-0.0184588,2.04347
1480613085484052,-1.1736,-0.0188389,2.04334
1480613085486559,-1.17305,-0.0191247,2.04345
1480613085512628,-1.17314,-0.0190382,2.04343
1480613085527668,-1.17314,-0.0190382,2.04343
1480613085543210,-1.17314,-0.0190382,2.04343
1480613085558250,-1.17314,-0.0190382,2.04343
1480613085579306,-1.17312,-0.0190727,2.0433
1480613085595851,-1.17312,-0.0190727,2.0433
1480613085618410,-1.17312,-0.0190727,2.0433
1480613085656511,-1.17319,-0.0189282,2.04331
1480613085659018,-1.17319,-0.0189282,2.04331
1480613085702132,-1.17319,-0.0189282,2.04331
1480613085707145,-1.17319,-0.0189282,2.04331
1480613085739732,-1.17319,-0.0189282,2.04331
1480613085744745,-1.17319,-0.0189282,2.04331
1480613085769311,-1.17333,-0.0189818,2.0434
1480613085776831,-1.17333,-0.0189818,2.0434
1480613085798392,-1.17333,-0.0189818,2.0434
1480613085820950,-1.17372,-0.0184335,2.04334
1480613085835488,-1.17372,-0.0184335,2.04334
1480613085866574,-1.17289,-0.018612,2.04328
1480613085881108,-1.17254,-0.0184985,2.0432
1480613085896150,-1.173,-0.0177476,2.0432
1480613085929238,-1.17381,-0.0171683,2.04324
1480613085969344,-1.17352,-0.0168522,2.04321
1480613085980874,-1.17279,-0.0170023,2.04308
1480613085985385,-1.1728,-0.0170604,2.04304
1480613086017475,-1.17266,-0.0170068,2.04295
1480613086021983,-1.17265,-0.0169487,2.04299
1480613086038527,-1.17207,-0.0169093,2.04332
1480613086061088,-1.17114,-0.0169653,2.04343
1480613086082143,-1.17114,-0.0169653,2.04343
1480613086105706,-1.17168,-0.016529,2.04353
1480613086120745,-1.17123,-0.0162933,2.04372
1480613086159349,-1.17045,-0.0159102,2.04406
1480613086164364,-1.17018,-0.0158104,2.0445
1480613086180908,-1.17034,-0.0153365,2.04486
1480613086201963,-1.17082,-0.0148015,2.04532
1480613086218506,-1.1705,-0.0151133,2.04556
1480613086247082,-1.16991,-0.0155685,2.04585
1480613086262122,-1.16986,-0.0163645,2.04619
1480613086293205,-1.16986,-0.0163645,2.04619
1480613086301226,-1.16986,-0.0163645,2.04619
1480613086322783,-1.16954,-0.0162754,2.0463
1480613086338325,-1.16893,-0.0164221,2.0463
1480613086360885,-1.16878,-0.0163106,2.04625
1480613086381940,-1.16892,-0.0163641,2.04634
1480613086398487,-1.16867,-0.0161305,2.04646
1480613086421045,-1.16839,-0.0161237,2.04673
1480613086442101,-1.16848,-0.016037,2.0467
1480613086458645,-1.16885,-0.0163083,2.04718
1480613086481209,-1.16922,-0.0164877,2.04794
1480613086501760,-1.16918,-0.0169573,2.04954
1480613086518804,-1.16802,-0.0184643,2.05052
1480613086540864,-1.16821,-0.0191014,2.05133
1480613086570944,-1.16894,-0.0187981,2.05167
1480613086578464,-1.16902,-0.0187114,2.05164
1480613086616565,-1.16916,-0.0187647,2.05173
1480613086623584,-1.16916,-0.0187647,2.05173
1480613086644639,-1.17019,-0.0189265,2.05189
1480613086661685,-1.1715,-0.0196458,2.0517
1480613086683242,-1.17186,-0.0201588,2.05181
1480613086713323,-1.17195,-0.0200721,2.05178
1480613086720842,-1.17256,-0.0198314,2.05195
1480613086745407,-1.17256,-0.0198314,2.05195
1480613086767968,-1.17275,-0.0193317,2.05132
1480613086789028,-1.17262,-0.0187437,2.05079
1480613086803562,-1.17262,-0.0187437,2.05079
1480613086817599,-1.17292,-0.01813,2.05098
1480613086841163,-1.17341,-0.017459,2.05113
1480613086863723,-1.17404,-0.0170845,2.05099
1480613086877760,-1.17442,-0.0167202,2.0506
1480613086900821,-1.17474,-0.0165591,2.05015
1480613086931405,-1.1751,-0.0161369,2.0498
1480613086937920,-1.17541,-0.0160689,2.04919
1480613086960984,-1.17576,-0.0157397,2.04866
1480613086989558,-1.17598,-0.0157064,2.04873
1480613086997579,-1.17598,-0.0157064,2.04873
1480613087035680,-1.17604,-0.0158982,2.04819
1480613087044704,-1.17678,-0.0161006,2.04726
1480613087057739,-1.17788,-0.0160215,2.04689
1480613087082805,-1.17836,-0.0160311,2.04656
1480613087118901,-1.17836,-0.0161824,2.04635
1480613087124917,-1.17829,-0.0163799,2.04569
1480613087140960,-1.17772,-0.0168469,2.04475
1480613087170539,-1.17774,-0.0171092,2.04386
1480613087184576,-1.17797,-0.0171291,2.04327
1480613087207137,-1.17889,-0.0174161,2.04323
1480613087223680,-1.17834,-0.0177545,2.04269
1480613087259777,-1.17807,-0.0173053,2.04235
1480613087268298,-1.17861,-0.0171131,2.04207
1480613087284843,-1.1788,-0.0166165,2.04144
1480613087311914,-1.17898,-0.0160038,2.04078
1480613087320938,-1.17889,-0.0155914,2.04025
1480613087344502,-1.17848,-0.0153378,2.04005
1480613087364555,-1.1782,-0.0148301,2.03975
1480613087381600,-1.17814,-0.0142896,2.03951
1480613087404662,-1.17704,-0.014017,2.0391
1480613087424214,-1.17712,-0.0139307,2.03907
1480613087442261,-1.17704,-0.014017,2.0391
1480613087463320,-1.17693,-0.0143874,2.03923
1480613087484374,-1.17714,-0.0143897,2.03916
1480613087501419,-1.17679,-0.0145251,2.03941
1480613087523478,-1.17647,-0.0144345,2.03952
1480613087546038,-1.17647,-0.0144345,2.03952
1480613087561579,-1.1765,-0.0146092,2.03951
1480613087583637,-1.17651,-0.0146673,2.03947
1480613087605696,-1.17669,-0.0146516,2.03991
1480613087627755,-1.17669,-0.0146516,2.03991
1480613087644300,-1.17669,-0.0146516,2.03991
1480613087666358,-1.17669,-0.0146516,2.03991
1480613087681902,-1.17669,-0.0146516,2.03991
1480613087703958,-1.17634,-0.0146361,2.04037
1480613087726016,-1.17555,-0.0142509,2.04071
1480613087740054,-1.17558,-0.0137808,2.04095
1480613087779159,-1.1755,-0.0138672,2.04098
1480613087786177,-1.17558,-0.0137808,2.04095
1480613087800214,-1.17564,-0.0139207,2.04106
1480613087823275,-1.17578,-0.0143751,2.04128
1480613087845836,-1.17581,-0.0147411,2.04153
1480613087866891,-1.17572,-0.0148275,2.04156
1480613087883937,-1.17572,-0.0148275,2.04156
1480613087906998,-1.17581,-0.0147411,2.04153
1480613087920032,-1.17581,-0.0147411,2.04153
1480613087944598,-1.17581,-0.0147411,2.04153
1480613087972173,-1.17581,-0.0147411,2.04153
1480613087986709,-1.17572,-0.0148275,2.04156
1480613088003755,-1.17585,-0.0150667,2.04131
1480613088025814,-1.17599,-0.0151202,2.04139
1480613088047879,-1.17599,-0.0151202,2.04139
1480613088063915,-1.17607,-0.0150339,2.04137
1480613088091993,-1.17607,-0.0150339,2.04137
1480613088107030,-1.17599,-0.0151202,2.04139
1480613088124075,-1.17585,-0.0150667,2.04131
1480613088146135,-1.17565,-0.0149719,2.04154
1480613088167692,-1.17592,-0.0145274,2.0419
1480613088192257,-1.17633,-0.0142873,2.04215
1480613088205793,-1.17633,-0.0142873,2.04215
1480613088227350,-1.17633,-0.0142873,2.04215
1480613088243393,-1.17626,-0.0144318,2.04213
1480613088265953,-1.17626,-0.0144318,2.04213
1480613088289014,-1.17626,-0.0144318,2.04213
1480613088305057,-1.17626,-0.0144318,2.04213
1480613088326615,-1.17626,-0.0144318,2.04213
1480613088347170,-1.17626,-0.0144318,2.04213
1480613088377249,-1.1764,-0.0144853,2.04222
1480613088385771,-1.1764,-0.0144853,2.04222
1480613088406829,-1.17631,-0.0145716,2.04225
1480613088424876,-1.1764,-0.0144853,2.04222
1480613088445933,-1.1764,-0.0144853,2.04222
1480613088466989,-1.1764,-0.0144853,2.04222
1480613088484033,-1.17626,-0.0144318,2.04213
1480613088513611,-1.17617,-0.0145181,2.04216
1480613088528652,-1.17663,-0.0148532,2.04241
1480613088567255,-1.17661,-0.0148879,2.04228
1480613088571767,-1.17661,-0.0148879,2.04228
1480613088604356,-1.17661,-0.0148879,2.04228
1480613088609367,-1.1772,-0.0151779,2.04217
1480613088625911,-1.17779,-0.0155662,2.04261
1480613088648972,-1.17847,-0.0157749,2.0432
1480613088663511,-1.1791,-0.016088,2.04329
1480613088686070,-1.18013,-0.0161601,2.04362
1480613088709134,-1.18081,-0.0162124,2.0437
1480613088731694,-1.18127,-0.0160132,2.04362
1480613088746231,-1.18241,-0.0164572,2.04401
1480613088775810,-1.18317,-0.0166713,2.0444
1480613088782828,-1.18309,-0.0167575,2.04443
1480613088806390,-1.18336,-0.0162176,2.04496
1480613088843489,-1.18419,-0.0158866,2.04523
1480613088845998,-1.18419,-0.0158866,2.04523
1480613088866051,-1.18464,-0.0159713,2.04525
1480613088888609,-1.18528,-0.0160965,2.04568
1480613088902646,-1.18518,-0.0159719,2.04596
1480613088934231,-1.1852,-0.0160305,2.04592
1480613088948268,-1.18505,-0.0159773,2.04583
1480613088969826,-1.1852,-0.0160305,2.04592
1480613088985868,-1.18618,-0.0156184,2.04607
1480613089008427,-1.18618,-0.0156184,2.04607
1480613089029486,-1.18618,-0.0156184,2.04607
1480613089052050,-1.18621,-0.0156421,2.04616
1480613089068588,-1.18695,-0.0161355,2.04605
1480613089089143,-1.18755,-0.0160826,2.04589
1480613089107191,-1.18768,-0.016077,2.04602
1480613089128247,-1.18784,-0.0156557,2.04573
1480613089166350,-1.18876,-0.0154462,2.04512
1480613089168855,-1.18932,-0.0154658,2.0446
1480613089194423,-1.18977,-0.0157031,2.04441
1480613089209463,-1.19059,-0.0154655,2.04452
1480613089226007,-1.19115,-0.0151803,2.04441
1480613089248567,-1.19154,-0.0147268,2.04419
1480613089270126,-1.19207,-0.0146298,2.04374
1480613089287171,-1.192,-0.0147745,2.04373
1480613089308226,-1.19263,-0.0145936,2.04387
1480613089338306,-1.19324,-0.0144478,2.04387
1480613089353346,-1.19291,-0.0142614,2.04354
1480613089368385,-1.19291,-0.0142614,2.04354
1480613089389442,-1.193,-0.0141755,2.04351
1480613089405987,-1.193,-0.0141755,2.04351
1480613089428546,-1.19341,-0.0139333,2.04376
1480613089449602,-1.19337,-0.0142523,2.04373
1480613089466648,-1.19341,-0.0149221,2.04358
1480613089488204,-1.19309,-0.0154775,2.04344
1480613089510765,-1.19319,-0.0158496,2.0435
1480613089533325,-1.19245,-0.0161909,2.04364
1480613089548866,-1.19153,-0.0169508,2.04345
1480613089579948,-1.19025,-0.0179389,2.04335
1480613089586466,-1.18898,-0.0188332,2.04341
1480613089614542,-1.18858,-0.0195709,2.04374
1480613089631086,-1.18818,-0.0197189,2.04366
1480613089645122,-1.1872,-0.0189514,2.04342
1480613089669186,-1.18591,-0.0176569,2.04338
1480613089690743,-1.1848,-0.0169899,2.04355
1480613089705282,-1.18392,-0.0166331,2.04385
1480613089728846,-1.18259,-0.0166849,2.04409
1480613089758423,-1.18143,-0.0169647,2.0444
1480613089765443,-1.1806,-0.0176417,2.0449
1480613089788503,-1.18015,-0.0185883,2.04588
1480613089811063,-1.17963,-0.01928,2.04673
1480613089848162,-1.17862,-0.0198238,2.04699
1480613089857688,-1.1786,-0.0201485,2.04757
1480613089871725,-1.17843,-0.0201699,2.04783
1480613089899299,-1.17769,-0.0203624,2.04818
1480613089908824,-1.17722,-0.0200687,2.0484
1480613089944919,-1.17744,-0.0197332,2.04888
1480613089953442,-1.17795,-0.0197126,2.04939
1480613089968483,-1.17739,-0.0205334,2.04994
1480613089998562,-1.17679,-0.021366,2.05017
1480613090019618,-1.17732,-0.0223912,2.05045
1480613090044185,-1.17738,-0.0227797,2.0509
1480613090051705,-1.17747,-0.023134,2.05148
1480613090079277,-1.17651,-0.0236639,2.05135
1480613090089806,-1.17651,-0.0236639,2.05135
1480613090124396,-1.17687,-0.0239262,2.05123
1480613090134925,-1.17709,-0.0238932,2.05129
1480613090171522,-1.17612,-0.0242132,2.05141
1480613090174030,-1.17549,-0.0244365,2.05175
1480613090192579,-1.17579,-0.0246071,2.0526
1480613090214637,-1.17453,-0.0246133,2.05269
1480613090231182,-1.17391,-0.0247449,2.0532
1480613090251735,-1.17389,-0.0244846,2.0541
1480613090275800,-1.17395,-0.0237883,2.05419
1480613090290840,-1.17501,-0.0236806,2.05374
1480613090311896,-1.17404,-0.022975,2.05345
1480613090328440,-1.17404,-0.022975,2.05345
1480613090351501,-1.17472,-0.0232737,2.05387
1480613090371555,-1.1747,-0.0233077,2.05374
1480613090388600,-1.17538,-0.0232646,2.05399
1480613090411163,-1.17632,-0.0233599,2.0544
1480613090439234,-1.17718,-0.0231482,2.05531
1480613090457282,-1.17678,-0.0229957,2.05565
1480613090471822,-1.17669,-0.0230822,2.05568
1480613090494882,-1.17748,-0.0232701,2.05507
1480613090508419,-1.17767,-0.0240889,2.05555
1480613090531480,-1.17694,-0.0257647,2.05567
1480613090554541,-1.17318,-0.026359,2.0552
1480613090567576,-1.17004,-0.0255464,2.05432
1480613090590637,-1.1702,-0.0237007,2.05422
1480613090613702,-1.17131,-0.0227875,2.05455
1480613090641773,-1.17207,-0.0228071,2.05467
1480613090650797,-1.17208,-0.0227148,2.05484
1480613090673858,-1.17127,-0.0222703,2.0545
1480613090687896,-1.17194,-0.0211399,2.0545
1480613090710958,-1.17306,-0.0204355,2.05458
1480613090734019,-1.17348,-0.0201518,2.05434
1480613090755576,-1.17383,-0.0201641,2.05388
1480613090770616,-1.17365,-0.020482,2.05301
1480613090793678,-1.17363,-0.0202251,2.05206
1480613090807715,-1.17444,-0.0197868,2.05118
1480613090834787,-1.17509,-0.0194297,2.05053
1480613090853336,-1.17528,-0.0189309,2.04989
1480613090867875,-1.17454,-0.0185837,2.04919
1480613090890936,-1.17368,-0.0180557,2.04871
1480613090913998,-1.17379,-0.017592,2.04875
1480613090936056,-1.17379,-0.017592,2.04875
1480613090951598,-1.17317,-0.0172804,2.04866
1480613090973656,-1.17257,-0.0169923,2.04876
1480613090996216,-1.17252,-0.0168524,2.04865
1480613091010756,-1.17243,-0.016939,2.04867
1480613091040835,-1.17243,-0.016939,2.04867
1480613091054372,-1.17209,-0.0175702,2.04878
1480613091076932,-1.17166,-0.0176024,2.04879
1480613091093475,-1.17232,-0.0179378,2.04897
1480613091114532,-1.17287,-0.0181438,2.04881
1480613091131076,-1.17301,-0.0181971,2.0489
1480613091153635,-1.17257,-0.0186646,2.0488
1480613091174691,-1.17257,-0.0186646,2.0488
1480613091198258,-1.17307,-0.0188885,2.04893
1480613091213800,-1.17307,-0.0188885,2.04893
1480613091242873,-1.17307,-0.0188885,2.04893
1480613091250894,-1.17322,-0.0189418,2.04902
1480613091288494,-1.17313,-0.0190284,2.04905
1480613091294510,-1.17313,-0.0190284,2.04905
1480613091311054,-1.17314,-0.0190866,2.04901
1480613091333615,-1.17306,-0.0191732,2.04903
1480613091354670,-1.17314,-0.0190866,2.04901
1480613091372718,-1.17311,-0.0190627,2.04892
1480613091393273,-1.17311,-0.0190627,2.04892
1480613091422350,-1.17311,-0.0190627,2.04892
1480613091432378,-1.17318,-0.0192608,2.04899
1480613091453934,-1.17318,-0.0192608,2.04899
1480613091476496,-1.17318,-0.0192608,2.04899
1480613091491033,-1.17318,-0.0192608,2.04899
1480613091521614,-1.17325,-0.019116,2.049
1480613091536654,-1.17319,-0.0189761,2.04889
1480613091564228,-1.17333,-0.0190295,2.04898
1480613091573753,-1.17333,-0.0190295,2.04898
1480613091596816,-1.17282,-0.0188982,2.04868
1480613091618372,-1.17354,-0.0183453,2.04868
1480613091633412,-1.17452,-0.0180838,2.04863
1480613091661989,-1.17452,-0.0180838,2.04863
1480613091670510,-1.17452,-0.0180838,2.04863
1480613091693165,-1.17454,-0.0181421,2.04859
1480613091715724,-1.17445,-0.0182286,2.04862
1480613091730263,-1.17445,-0.0182286,2.04862
1480613091754829,-1.17448,-0.0181942,2.04874
1480613091775884,-1.17456,-0.0181077,2.04872
1480613091797947,-1.1744,-0.0179961,2.04867
1480613091813486,-1.1744,-0.0179961,2.04867
1480613091836045,-1.1744,-0.0179961,2.04867
1480613091850081,-1.1744,-0.0179961,2.04867
1480613091887181,-1.17455,-0.0180494,2.04876
1480613091895704,-1.17429,-0.0179084,2.04871
1480613091917261,-1.17417,-0.0178207,2.04875
1480613091940322,-1.17429,-0.0179084,2.04871
1480613091956866,-1.17417,-0.0178207,2.04875
1480613091985943,-1.17387,-0.0183416,2.04874
1480613091994466,-1.17349,-0.018949,2.04875
1480613092017027,-1.17349,-0.018949,2.04875
1480613092037079,-1.17348,-0.0188907,2.04879
1480613092053122,-1.17347,-0.0189833,2.04863
1480613092076686,-1.17334,-0.0193311,2.04856
1480613092096739,-1.17331,-0.0196501,2.04853
1480613092113282,-1.17392,-0.0199033,2.04866
1480613092135842,-1.17397,-0.0198923,2.04899
1480613092156899,-1.17304,-0.0199925,2.04957
1480613092173442,-1.17218,-0.0197561,2.0499
1480613092196504,-1.17202,-0.0190424,2.05058
1480613092217058,-1.17154,-0.0190348,2.05091
1480613092233603,-1.17099,-0.0191723,2.05123
1480613092255661,-1.17071,-0.020002,2.05152
1480613092276717,-1.1707,-0.0201364,2.05183
1480613092293261,-1.17156,-0.0203789,2.05221
1480613092315822,-1.17163,-0.0202339,2.05223
1480613092340387,-1.17108,-0.0203718,2.05255
1480613092353421,-1.1711,-0.02043,2.05251
1480613092384002,-1.17124,-0.0204833,2.05259
1480613092399043,-1.17124,-0.0204833,2.05259
1480613092413585,-1.17122,-0.0204251,2.05263
1480613092442158,-1.17129,-0.0203725,2.05248
1480613092459203,-1.17125,-0.020884,2.05272
1480613092472739,-1.17144,-0.0214196,2.05309
1480613092495812,-1.17192,-0.021869,2.05337
1480613092518371,-1.17192,-0.021869,2.05337
1480613092540932,-1.17201,-0.0217824,2.05334
1480613092555972,-1.17291,-0.0218557,2.05354
1480613092587556,-1.17362,-0.0219281,2.05382
1480613092592569,-1.17297,-0.0224377,2.05427
1480613092617134,-1.17359,-0.0226381,2.05505
1480613092638191,-1.17375,-0.0226557,2.05537
1480613092661755,-1.1739,-0.0227674,2.05542
1480613092675790,-1.17454,-0.0227918,2.05541
1480613092704868,-1.17454,-0.0227918,2.05541
1480613092720911,-1.17454,-0.0227918,2.05541
1480613092741970,-1.17545,-0.0227128,2.05583
1480613092759012,-1.17545,-0.0227128,2.05583
1480613092772548,-1.17539,-0.0230676,2.05557
1480613092796111,-1.17573,-0.0238577,2.05517
1480613092818169,-1.17652,-0.0240865,2.05504
1480613092839226,-1.17736,-0.0242111,2.0554
1480613092857775,-1.17722,-0.024158,2.05532
1480613092878331,-1.17722,-0.024158,2.05532
1480613092899386,-1.17722,-0.024158,2.05532
1480613092915929,-1.17722,-0.024158,2.05532
1480613092946514,-1.17722,-0.024158,2.05532
1480613092959545,-1.17736,-0.0242111,2.0554
1480613092976593,-1.17805,-0.0236317,2.05532
1480613092998651,-1.17805,-0.0236317,2.05532
1480613093019706,-1.17788,-0.0237077,2.05483
1480613093041764,-1.17817,-0.0235812,2.05425
1480613093058308,-1.17891,-0.0235378,2.0537
1480613093079865,-1.17905,-0.023591,2.05379
1480613093095909,-1.1791,-0.0234799,2.05367
1480613093118468,-1.17946,-0.0234008,2.05338
1480613093139524,-1.17948,-0.0234193,2.05286
1480613093156071,-1.17942,-0.023524,2.05237
1480613093178128,-1.17994,-0.023957,2.05226
1480613093199684,-1.17984,-0.0248169,2.05163
1480613093217231,-1.17875,-0.024912,2.05076
1480613093238287,-1.17884,-0.0239088,2.04975
1480613093259343,-1.17909,-0.0226623,2.04986
1480613093276389,-1.17876,-0.022422,2.05017
1480613093298449,-1.17742,-0.0226642,2.05007
1480613093329029,-1.17698,-0.0224472,2.04974
1480613093337551,-1.17698,-0.0224472,2.04974
1480613093358606,-1.17712,-0.0225006,2.04983
1480613093380666,-1.17709,-0.0225755,2.05018
1480613093395706,-1.1769,-0.0229745,2.05038
1480613093418266,-1.17699,-0.0228881,2.05035
1480613093443333,-1.17766,-0.0227872,2.05064
1480613093455364,-1.17766,-0.0227872,2.05064
1480613093478427,-1.17766,-0.0227872,2.05064
1480613093517028,-1.17767,-0.0228457,2.0506
1480613093522042,-1.17753,-0.0227924,2.05051
1480613093538586,-1.17689,-0.0226151,2.05073
1480613093561647,-1.176,-0.0228484,2.05082
1480613093575183,-1.17527,-0.0234018,2.05081
1480613093598246,-1.17536,-0.0233153,2.05079
1480613093620804,-1.1755,-0.0233687,2.05087
1480613093641860,-1.1755,-0.0233687,2.05087
1480613093658404,-1.17476,-0.0233708,2.05095
1480613093686981,-1.17376,-0.0234754,2.0506
1480613093695002,-1.17376,-0.0234754,2.0506
1480613093718564,-1.17391,-0.0235289,2.05069
1480613093741125,-1.17344,-0.023387,2.05071
1480613093755162,-1.17344,-0.023387,2.05071
1480613093787247,-1.17389,-0.0236628,2.051
1480613093800783,-1.17386,-0.0237383,2.05135
1480613093829360,-1.17387,-0.0237967,2.05131
1480613093838384,-1.17414,-0.0233508,2.05167
1480613093860952,-1.17405,-0.0234374,2.0517
1480613093881999,-1.1746,-0.0234925,2.05165
1480613093898545,-1.17548,-0.0240364,2.05162
1480613093929126,-1.17606,-0.0249505,2.05179
1480613093942161,-1.17656,-0.025707,2.05237
1480613093958202,-1.17669,-0.026294,2.0529
1480613093980762,-1.17748,-0.0268131,2.05359
1480613094001818,-1.17854,-0.0268463,2.05406
1480613094019369,-1.17787,-0.027581,2.05465
1480613094040922,-1.17843,-0.0280356,2.05473
1480613094072006,-1.18077,-0.027677,2.05458
1480613094078523,-1.18135,-0.0272742,2.05364
1480613094115119,-1.18135,-0.0272742,2.05364
1480613094122138,-1.18149,-0.0273275,2.05373
1480613094138683,-1.18221,-0.027114,2.05391
1480613094160741,-1.18438,-0.0268755,2.05446
1480613094181796,-1.18441,-0.0268413,2.05459
1480613094198343,-1.18312,-0.0267891,2.0547
1480613094220902,-1.18312,-0.0267891,2.0547
1480613094243461,-1.18388,-0.0262563,2.0549
1480613094258502,-1.18464,-0.0257824,2.05507
1480613094282064,-1.18462,-0.0258165,2.05494
1480613094304122,-1.18442,-0.0254754,2.05483
1480613094318159,-1.18473,-0.0248208,2.05453
1480613094348240,-1.18533,-0.0240812,2.05414
1480613094363280,-1.18537,-0.0237233,2.05368
1480613094392858,-1.1851,-0.0240196,2.05353
1480613094400880,-1.18524,-0.0240727,2.05362
1480613094438981,-1.18553,-0.0237964,2.05325
1480613094441488,-1.18533,-0.0240016,2.05246
1480613094461541,-1.18538,-0.0243864,2.0522
1480613094483600,-1.1849,-0.025118,2.05201
1480613094497638,-1.1849,-0.025118,2.05201
1480613094520698,-1.18489,-0.025059,2.05205
1480613094544261,-1.18469,-0.0251707,2.05143
1480613094557797,-1.18497,-0.0253704,2.05144
1480613094581359,-1.18489,-0.0256088,2.05126
1480613094610944,-1.18487,-0.0255498,2.0513
1480613094617957,-1.18487,-0.0255498,2.0513
1480613094642022,-1.18411,-0.0259292,2.05131
1480613094671098,-1.18383,-0.0265097,2.05126
1480613094679120,-1.18397,-0.0271486,2.05114
1480613094700677,-1.18426,-0.0278067,2.05124
1480613094723237,-1.18343,-0.0284243,2.05107
1480613094744293,-1.18235,-0.0295111,2.05073
1480613094760838,-1.18249,-0.0304936,2.05067
1480613094783397,-1.18239,-0.0312614,2.05022
1480613094804454,-1.18189,-0.0311902,2.04988
1480613094820998,-1.18184,-0.0309576,2.04993
1480613094843559,-1.18217,-0.0301175,2.04996
1480613094866118,-1.18062,-0.0295808,2.04986
1480613094905723,-1.17978,-0.0292099,2.04986
1480613094910743,-1.17887,-0.028984,2.04986
1480613094924273,-1.17794,-0.029043,2.04996
1480613094946834,-1.17794,-0.029043,2.04996
1480613094963377,-1.1779,-0.029251,2.05062
1480613094993563,-1.17742,-0.0296831,2.05156
1480613095001083,-1.17651,-0.0301839,2.05227
1480613095029660,-1.17606,-0.0305421,2.05286
1480613095044198,-1.17618,-0.0306705,2.0533
1480613095060742,-1.17631,-0.0306653,2.05343
1480613095083302,-1.17631,-0.0306653,2.05343
1480613095104358,-1.17608,-0.0308907,2.05364
1480613095120901,-1.17572,-0.0314066,2.05382
1480613095143462,-1.17563,-0.0314929,2.05385
1480613095189083,-1.17563,-0.0314929,2.05385
1480613095191589,-1.17526,-0.0318577,2.05424
1480613095209638,-1.17491,-0.0319375,2.05453
1480613095227686,-1.17499,-0.031851,2.0545
1480613095240721,-1.17501,-0.0318174,2.05463
1480613095270800,-1.17501,-0.0318174,2.05463
1480613095285840,-1.17472,-0.0317521,2.05494
1480613095301383,-1.1742,-0.0313617,2.05553
1480613095323942,-1.17355,-0.0311866,2.05574
1480613095346503,-1.17355,-0.0311866,2.05574
1480613095361042,-1.17382,-0.0318193,2.05575
1480613095383600,-1.17378,-0.032331,2.056
1480613095406161,-1.17319,-0.0329226,2.0566
1480613095421201,-1.17318,-0.0329059,2.05712
1480613095458299,-1.17372,-0.032658,2.05749
1480613095465820,-1.17359,-0.0326634,2.05736
1480613095486875,-1.17333,-0.0325231,2.05732
1480613095503420,-1.17341,-0.0324365,2.05729
1480613095525979,-1.17341,-0.0324365,2.05729
1480613095540016,-1.17333,-0.0325231,2.05732
1480613095564081,-1.17345,-0.0327108,2.05772
1480613095586139,-1.17269,-0.0328831,2.05797
1480613095600178,-1.17254,-0.0328297,2.05788
1480613095623238,-1.17263,-0.0327431,2.05786
1480613095645798,-1.17263,-0.0327431,2.05786
1480613095684902,-1.17197,-0.0325103,2.05811
1480613095690418,-1.17126,-0.0324817,2.05831
1480613095719995,-1.17122,-0.0321575,2.05854
1480613095734534,-1.172,-0.0320831,2.05883
1480613095743558,-1.172,-0.0320831,2.05883
1480613095773639,-1.17172,-0.0323205,2.05871
1480613095787675,-1.17226,-0.0322232,2.05888
1480613095803718,-1.17263,-0.0323913,2.05892
1480613095825777,-1.17222,-0.0326341,2.05868
1480613095846836,-1.17222,-0.0326341,2.05868
1480613095863377,-1.17222,-0.0326341,2.05868
1480613095886939,-1.17222,-0.0326341,2.05868
1480613095914513,-1.17255,-0.0327798,2.05853
1480613095923537,-1.17263,-0.0326932,2.05851
1480613095962642,-1.17255,-0.0327798,2.05853
1480613095967153,-1.17263,-0.0326932,2.05851
1480613096007761,-1.17193,-0.0331568,2.05867
1480613096011772,-1.17267,-0.0335941,2.05921
1480613096026812,-1.17403,-0.0333517,2.06003
1480613096043357,-1.17466,-0.032731,2.06027
1480613096065916,-1.17466,-0.032731,2.06027
1480613096088475,-1.17366,-0.0328818,2.0604
1480613096103516,-1.17372,-0.0330217,2.06051
1480613096126076,-1.17433,-0.0333124,2.06113
1480613096148636,-1.1747,-0.0333288,2.06139
1480613096172198,-1.1755,-0.0332193,2.06181
1480613096186236,-1.17653,-0.033375,2.06199
1480613096208294,-1.17671,-0.0336013,2.06207
1480613096236870,-1.17671,-0.0336013,2.06207
1480613096245895,-1.17731,-0.0334913,2.06255
1480613096268956,-1.17794,-0.0326767,2.06252
1480613096282994,-1.17809,-0.03176,2.06227
1480613096306055,-1.17798,-0.031347,2.06173
1480613096328614,-1.17798,-0.031347,2.06173
1480613096342657,-1.17912,-0.0310973,2.0619
1480613096373736,-1.17943,-0.0307848,2.06166
1480613096388273,-1.17937,-0.0301125,2.0611
1480613096402812,-1.18021,-0.0296022,2.06059
1480613096425873,-1.1802,-0.0293141,2.05976
1480613096448433,-1.17972,-0.0286749,2.05921
1480613096469490,-1.17972,-0.0286749,2.05921
1480613096517116,-1.18012,-0.0286756,2.05908
1480613096524135,-1.18012,-0.0286756,2.05908
1480613096526641,-1.18012,-0.0286756,2.05908
1480613096547697,-1.17974,-0.0286005,2.05886
1480613096568252,-1.17978,-0.0282411,2.0584
1480613096582790,-1.18053,-0.0279518,2.05823
1480613096607857,-1.18053,-0.0279518,2.05823
1480613096634429,-1.18053,-0.0279518,2.05823
1480613096649468,-1.1802,-0.0278644,2.05833
1480613096666013,-1.18042,-0.0277317,2.05795
1480613096688572,-1.18057,-0.0277444,2.05756
1480613096709628,-1.18031,-0.027756,2.0573
1480613096726172,-1.18031,-0.027756,2.0573
1480613096755751,-1.18031,-0.027756,2.0573
1480613096769286,-1.18024,-0.0279014,2.05729
1480613096791847,-1.18024,-0.0279014,2.05729
1480613096822930,-1.18023,-0.0281458,2.05691
1480613096830952,-1.1803,-0.0283444,2.05699
1480613096845991,-1.1803,-0.0283444,2.05699
1480613096869554,-1.1807,-0.0282464,2.05642
1480613096890108,-1.18146,-0.0281687,2.05599
1480613096905650,-1.18147,-0.0282804,2.0553
1480613096934226,-1.18045,-0.028425,2.05471
1480613096949266,-1.17951,-0.0286312,2.054
1480613096965810,-1.17922,-0.0286202,2.05354
1480613096988370,-1.17902,-0.0287709,2.0534
1480613097009427,-1.17871,-0.0290824,2.05364
1480613097025468,-1.1796,-0.0291771,2.05485
1480613097048529,-1.17897,-0.0294007,2.0552
1480613097071090,-1.17885,-0.0294652,2.05503
1480613097086130,-1.17883,-0.029499,2.0549
1480613097108689,-1.17896,-0.0294934,2.05503
1480613097130750,-1.17904,-0.0294071,2.055
1480613097145291,-1.17871,-0.0292603,2.05515
1480613097168348,-1.17829,-0.0287077,2.05536
1480613097198429,-1.17806,-0.028097,2.05554
1480613097205949,-1.17701,-0.0277279,2.05562
1480613097229018,-1.1763,-0.0276565,2.05534
1480613097257085,-1.17568,-0.0281834,2.05527
1480613097265108,-1.17516,-0.0289313,2.05547
1480613097301704,-1.1749,-0.0296685,2.05593
1480613097310729,-1.17491,-0.0302612,2.05633
1480613097325266,-1.17468,-0.030336,2.05675
1480613097348327,-1.17436,-0.0302486,2.05685
1480613097378407,-1.17436,-0.0302486,2.05685
1480613097385425,-1.17403,-0.0302536,2.05679
1480613097408487,-1.17304,-0.0307045,2.0565
1480613097431049,-1.17251,-0.0308599,2.0563
1480613097446090,-1.17242,-0.0309465,2.05633
1480613097468146,-1.17242,-0.0309465,2.05633
1480613097490707,-1.17172,-0.0315602,2.05628
1480613097505244,-1.17149,-0.0322225,2.05639
1480613097528306,-1.17169,-0.0327575,2.05676
1480613097550867,-1.17192,-0.0333674,2.05657
1480613097580946,-1.17152,-0.0337605,2.05612
1480613097588466,-1.17172,-0.0337609,2.05605
1480613097611031,-1.17246,-0.0338157,2.05594
1480613097632083,-1.17338,-0.0336025,2.05605
1480613097656647,-1.17304,-0.0335485,2.05603
1480613097670686,-1.17206,-0.0334708,2.05601
1480613097691742,-1.172,-0.0335239,2.05617
1480613097723325,-1.17249,-0.0328511,2.05632
1480613097736861,-1.17259,-0.0322362,2.05657
1480613097768946,-1.17189,-0.0320724,2.05646
1480613097772456,-1.17154,-0.0321107,2.05627
1480613097814568,-1.17233,-0.0320036,2.05669
1480613097819581,-1.17317,-0.0321118,2.05758
1480613097829109,-1.17312,-0.0324139,2.05807
1480613097851165,-1.17302,-0.0326348,2.05841
1480613097872723,-1.1737,-0.0322469,2.0586
1480613097888765,-1.1743,-0.0319454,2.05882
1480613097910829,-1.17438,-0.0318588,2.05879
1480613097933885,-1.17438,-0.0318588,2.05879
1480613097948423,-1.1743,-0.0319454,2.05882
1480613097979509,-1.17416,-0.0320851,2.059
1480613097992039,-1.1741,-0.0328233,2.05939
1480613098008583,-1.17487,-0.0328404,2.05951
1480613098046184,-1.17603,-0.0320632,2.05996
1480613098053202,-1.17674,-0.0315996,2.0598
1480613098092306,-1.17572,-0.0313087,2.05931
1480613098097320,-1.17509,-0.0317364,2.0588
1480613098113365,-1.17601,-0.0318658,2.05897
1480613098135922,-1.1766,-0.0318491,2.05929
1480613098150964,-1.1766,-0.0318491,2.05929
1480613098174024,-1.17648,-0.0317623,2.05933
1480613098187560,-1.17646,-0.0317959,2.0592
1480613098211625,-1.17646,-0.0317959,2.0592
1480613098233683,-1.17716,-0.032151,2.05958
1480613098247720,-1.1773,-0.0322043,2.05967
1480613098270781,-1.17671,-0.0320698,2.05956
1480613098293341,-1.17671,-0.0320698,2.05956
1480613098321917,-1.17663,-0.0321563,2.05959
1480613098330942,-1.17772,-0.0319196,2.05944
1480613098369043,-1.17828,-0.0321803,2.05925
1480613098378568,-1.17784,-0.0323094,2.05898
1480613098391604,-1.17722,-0.0327963,2.05842
1480613098415166,-1.17708,-0.032743,2.05834
1480613098427702,-1.1777,-0.0326516,2.0583
1480613098451261,-1.17768,-0.0325927,2.05834
1480613098479336,-1.17723,-0.0329477,2.05822
1480613098487859,-1.17642,-0.0333414,2.0579
1480613098512425,-1.17638,-0.0340967,2.05777
1480613098516435,-1.17601,-0.0346642,2.0573
1480613098538995,-1.17564,-0.0346472,2.05705
1480613098557043,-1.17618,-0.0343989,2.05742
1480613098601662,-1.17693,-0.0336729,2.05735
1480613098603667,-1.17734,-0.0327453,2.05736
1480613098616702,-1.1769,-0.0323783,2.05723
1480613098638761,-1.17608,-0.0317841,2.0571
1480613098658814,-1.17534,-0.0311034,2.05693
1480613098689896,-1.17559,-0.0304075,2.05696
1480613098696915,-1.17577,-0.0306758,2.05751
1480613098718974,-1.17553,-0.0311869,2.05783
1480613098750056,-1.17519,-0.0318182,2.05804
1480613098763594,-1.17519,-0.0318182,2.05804
1480613098781640,-1.17518,-0.0317593,2.05808
1480613098801192,-1.17635,-0.0314782,2.05838
1480613098832777,-1.17633,-0.0314194,2.05842
1480613098839294,-1.17578,-0.0318019,2.05836
1480613098878900,-1.17578,-0.0318019,2.05836
1480613098880904,-1.17617,-0.0319365,2.05854
1480613098898953,-1.17675,-0.0320124,2.05869
1480613098933043,-1.17687,-0.0320992,2.05865
1480613098937556,-1.17675,-0.0320124,2.05869
1480613098958612,-1.17674,-0.0319535,2.05873
1480613098981171,-1.17682,-0.031867,2.0587
1480613098996211,-1.17618,-0.0321848,2.05888
1480613099018771,-1.17618,-0.0321848,2.05888
1480613099052862,-1.17618,-0.0321848,2.05888
1480613099057876,-1.17618,-0.0321848,2.05888
1480613099078933,-1.17613,-0.0323891,2.05882
1480613099111519,-1.17613,-0.0323891,2.05882
1480613099116030,-1.1759,-0.0324223,2.05876
1480613099155134,-1.17592,-0.0324812,2.05872
1480613099161651,-1.17564,-0.0326263,2.05878
1480613099176191,-1.17535,-0.0328049,2.0587
1480613099198751,-1.17543,-0.0327184,2.05868
1480613099221311,-1.17558,-0.0327717,2.05876
1480613099236350,-1.17546,-0.0326849,2.0588
1480613099258910,-1.17546,-0.0326849,2.0588
1480613099281470,-1.1759,-0.0326152,2.05903
1480613099296010,-1.1759,-0.0326152,2.05903
1480613099323081,-1.1759,-0.0326152,2.05903
1480613099342633,-1.1759,-0.0326152,2.05903
1480613099356670,-1.1759,-0.0326152,2.05903
1480613099382238,-1.17608,-0.0326904,2.05932
1480613099401289,-1.1761,-0.0329976,2.05962
1480613099416329,-1.17625,-0.0330509,2.05971
1480613099438889,-1.17625,-0.0330509,2.05971
1480613099469471,-1.17623,-0.032992,2.05975
1480613099484008,-1.17631,-0.0329054,2.05972
1480613099499049,-1.17631,-0.0329054,2.05972
1480613099522611,-1.17631,-0.0329054,2.05972
1480613099537652,-1.1766,-0.0326678,2.05984
1480613099567732,-1.1766,-0.0326678,2.05984
1480613099581270,-1.1766,-0.0326678,2.05984
1480613099605332,-1.1766,-0.0326678,2.05984
1480613099618868,-1.17667,-0.0325223,2.05985
1480613099645944,-1.17681,-0.0325756,2.05994
1480613099666495,-1.1766,-0.0326678,2.05984
1480613099679028,-1.1766,-0.0326678,2.05984
1480613099701087,-1.1773,-0.0329814,2.05974
1480613099717631,-1.17796,-0.0328189,2.06007
1480613099754228,-1.17741,-0.0322733,2.06015
1480613099766764,-1.17741,-0.0322733,2.06015
1480613099778293,-1.17769,-0.0320355,2.06027
1480613099798847,-1.17761,-0.032122,2.0603
1480613099821406,-1.17693,-0.0324184,2.06028
1480613099843982,-1.17696,-0.032574,2.06079
1480613099858505,-1.17716,-0.0320274,2.06151
1480613099881065,-1.1773,-0.0316852,2.06219
1480613099897614,-1.17696,-0.0318249,2.06244
1480613099918665,-1.17686,-0.031894,2.06299
1480613099944235,-1.17724,-0.0320101,2.06369
1480613099959273,-1.17654,-0.0323826,2.06402
1480613099988350,-1.1779,-0.0322278,2.06468
1480613100001386,-1.17889,-0.0319056,2.06528
1480613100019433,-1.17805,-0.0318439,2.06487
1480613100041492,-1.17763,-0.0315553,2.06418
1480613100061044,-1.17714,-0.0315459,2.06379
1480613100080099,-1.17727,-0.0314985,2.06344
1480613100098645,-1.17725,-0.0315319,2.06331
1480613100121204,-1.17674,-0.0318075,2.06303
1480613100159305,-1.17746,-0.0317423,2.063
1480613100176351,-1.17798,-0.0319624,2.06314
1480613100181364,-1.17806,-0.0318759,2.06311
1480613100211449,-1.17875,-0.0318852,2.06343
1480613100221973,-1.17929,-0.031879,2.06343
1480613100243536,-1.17937,-0.0317925,2.0634
1480613100264085,-1.17877,-0.0319443,2.06339
1480613100278623,-1.17695,-0.0324921,2.0632
1480613100312713,-1.17352,-0.0334357,2.06296
1480613100323743,-1.17114,-0.0339666,2.06257
1480613100338784,-1.17274,-0.0340994,2.06235
1480613100368863,-1.17574,-0.0335854,2.06201
1480613100383903,-1.17633,-0.032993,2.0614
1480613100398944,-1.17497,-0.0316792,2.06056
1480613100421503,-1.17486,-0.0309664,2.06032
1480613100444067,-1.17561,-0.0307855,2.05946
1480613100459103,-1.17652,-0.0314022,2.05887
1480613100491690,-1.17717,-0.032072,2.05851
1480613100503723,-1.17713,-0.0320466,2.05843
1480613100520266,-1.17696,-0.0317275,2.05852
1480613100541328,-1.17693,-0.0320463,2.05849
1480613100563882,-1.17769,-0.0325413,2.05899
1480613100587946,-1.17806,-0.0329018,2.05932
1480613100601482,-1.17806,-0.0329018,2.05932
1480613100625045,-1.17762,-0.0322913,2.05957
1480613100640085,-1.17778,-0.0316638,2.06014
1480613100661646,-1.17732,-0.0312798,2.06053
1480613100683701,-1.17679,-0.0311339,2.06075
1480613100706261,-1.1765,-0.0307283,2.06088
1480613100721301,-1.17645,-0.0303034,2.06066
1480613100743861,-1.17645,-0.0303034,2.06066
1480613100767926,-1.17606,-0.0304719,2.06007
1480613100781462,-1.17544,-0.0304666,2.05955
1480613100805023,-1.17515,-0.0301116,2.05903
1480613100821567,-1.17551,-0.0295947,2.05885
1480613100841120,-1.17551,-0.0295947,2.05885
1480613100863680,-1.17471,-0.0300471,2.05849
1480613100889249,-1.17389,-0.0303818,2.05821
1480613100908800,-1.17356,-0.030387,2.05815
1480613100923840,-1.17364,-0.0303004,2.05812
1480613100956427,-1.17363,-0.0302417,2.05817
1480613100963947,-1.17265,-0.0304667,2.05773
1480613100986505,-1.17162,-0.0307445,2.05746
1480613101006058,-1.17197,-0.0308543,2.05754
1480613101023605,-1.17257,-0.0311826,2.05792
1480613101043659,-1.17201,-0.0313717,2.05759
1480613101061709,-1.1715,-0.031586,2.05735
1480613101082762,-1.17153,-0.0318516,2.05717
1480613101103818,-1.17214,-0.0324456,2.05737
1480613101121866,-1.17186,-0.032876,2.05752
1480613101144426,-1.17079,-0.0329776,2.05737
1480613101163980,-1.17093,-0.0330311,2.05746
1480613101187541,-1.17093,-0.0330311,2.05746
1480613101201077,-1.17062,-0.0328093,2.05725
1480613101225141,-1.17025,-0.0327328,2.05704
1480613101241686,-1.17025,-0.0327328,2.05704
1480613101262741,-1.17002,-0.0327659,2.05697
1480613101283798,-1.17018,-0.0328781,2.05702
1480613101314880,-1.16954,-0.032661,2.05676
1480613101321398,-1.16886,-0.0322117,2.05655
1480613101343958,-1.16878,-0.032013,2.05647
1480613101369525,-1.16878,-0.032013,2.05647
1480613101381055,-1.16847,-0.0322267,2.05616
1480613101405623,-1.16756,-0.0323964,2.05557
1480613101421664,-1.16765,-0.0320243,2.05544
1480613101441216,-1.16908,-0.0312565,2.05562
1480613101463776,-1.16908,-0.0312565,2.05562
1480613101481825,-1.16817,-0.031426,2.05504
1480613101502880,-1.16793,-0.0312089,2.05464
1480613101523937,-1.16888,-0.0311137,2.05467
1480613101542990,-1.16954,-0.0309114,2.05452
1480613101562539,-1.16954,-0.0309114,2.05452
1480613101585099,-1.16878,-0.0308489,2.05391
