timestamp,x,y,z,w
1480613047766334,-0.287659,-0.472656,0.699585,0.452148
1480613047781375,-0.287659,-0.472656,0.699585,0.452148
1480613047803935,-0.287659,-0.472656,0.699585,0.452148
1480613047818473,-0.287659,-0.472656,0.699524,0.452148
1480613047841033,-0.28772,-0.472656,0.699585,0.452148
1480613047856075,-0.287659,-0.472656,0.699585,0.452148
1480613047878633,-0.287659,-0.472656,0.699585,0.452148
1480613047908714,-0.287659,-0.472656,0.699585,0.452148
1480613047915732,-0.287659,-0.472656,0.699524,0.452148
1480613047953833,-0.28772,-0.472717,0.699524,0.452087
1480613047961353,-0.28772,-0.472717,0.699524,0.452087
1480613047983913,-0.287781,-0.472717,0.699524,0.452087
1480613048007977,-0.28772,-0.472717,0.699524,0.452087
1480613048021012,-0.28772,-0.472717,0.699524,0.452087
1480613048043572,-0.28772,-0.472717,0.699524,0.452087
1480613048059113,-0.28772,-0.472717,0.699524,0.452087
1480613048081673,-0.28772,-0.472717,0.699524,0.452087
1480613048095711,-0.28772,-0.472778,0.699524,0.452087
1480613048120778,-0.28772,-0.472778,0.699524,0.452087
1480613048141332,-0.28772,-0.472778,0.699524,0.452087
1480613048155370,-0.28772,-0.472778,0.699524,0.452087
1480613048185950,-0.28772,-0.472778,0.699463,0.452087
1480613048201993,-0.28772,-0.472778,0.699463,0.452087
1480613048239094,-0.287842,-0.472961,0.69928,0.452087
1480613048241599,-0.287842,-0.472961,0.69928,0.452087
1480613048261652,-0.287842,-0.472961,0.69928,0.452087
1480613048282207,-0.287842,-0.472961,0.69928,0.452087
1480613048299756,-0.287842,-0.472961,0.699341,0.452087
1480613048321311,-0.287842,-0.472961,0.699341,0.452087
1480613048342367,-0.287842,-0.472961,0.699341,0.452087
1480613048364927,-0.287842,-0.472961,0.699341,0.452087
1480613048381972,-0.287903,-0.472961,0.699341,0.452087
1480613048403030,-0.287842,-0.472961,0.699341,0.452087
1480613048418569,-0.287964,-0.473145,0.69928,0.451904
1480613048441129,-0.287903,-0.473145,0.69928,0.451904
1480613048462186,-0.287964,-0.473145,0.699219,0.451904
1480613048478729,-0.287964,-0.473206,0.699219,0.451904
1480613048515326,-0.288025,-0.473328,0.699097,0.451965
1480613048522345,-0.287964,-0.473328,0.699097,0.451965
1480613048538891,-0.287964,-0.473328,0.699097,0.451965
1480613048561450,-0.287964,-0.473328,0.699097,0.451965
1480613048582506,-0.287964,-0.473389,0.699036,0.451965
1480613048598549,-0.287964,-0.473328,0.699097,0.451965
1480613048627124,-0.288025,-0.473328,0.699097,0.451965
1480613048643669,-0.288025,-0.473328,0.699097,0.451965
1480613048658709,-0.288025,-0.473328,0.699097,0.451965
1480613048682271,-0.288025,-0.473328,0.699097,0.451965
1480613048705335,-0.288025,-0.473328,0.699097,0.451965
1480613048719872,-0.288025,-0.473328,0.699097,0.451965
1480613048748948,-0.288025,-0.473328,0.699097,0.451965
1480613048764490,-0.288025,-0.473328,0.699097,0.451904
1480613048786047,-0.288025,-0.473389,0.699097,0.451965
1480613048801588,-0.288025,-0.473328,0.699097,0.451965
1480613048824148,-0.287964,-0.473389,0.699036,0.451965
1480613048838688,-0.288025,-0.473389,0.699036,0.451965
1480613048861247,-0.288025,-0.473389,0.699036,0.451965
1480613048883808,-0.288025,-0.47345,0.699036,0.451965
1480613048906367,-0.288025,-0.47345,0.699036,0.451904
1480613048927423,-0.288025,-0.47345,0.699036,0.451904
1480613048945972,-0.288025,-0.47345,0.698975,0.451965
1480613048972044,-0.288025,-0.47345,0.698975,0.451965
1480613048981066,-0.288025,-0.47345,0.699036,0.451965
1480613049003627,-0.288025,-0.473267,0.699158,0.451904
1480613049018165,-0.288086,-0.473145,0.69928,0.451904
1480613049041728,-0.288086,-0.473083,0.69928,0.451843
1480613049065792,-0.288086,-0.473083,0.69928,0.451904
1480613049078826,-0.288086,-0.473145,0.699219,0.451843
1480613049101386,-0.288025,-0.473083,0.69928,0.451904
1480613049123445,-0.288086,-0.473083,0.699219,0.451904
1480613049144501,-0.288086,-0.473145,0.699219,0.451904
1480613049161546,-0.288086,-0.473145,0.699219,0.451904
1480613049183605,-0.288086,-0.473145,0.699219,0.451904
1480613049204662,-0.288086,-0.473145,0.699219,0.451904
1480613049221208,-0.288086,-0.473145,0.699219,0.451904
1480613049243263,-0.288086,-0.473145,0.699219,0.451904
1480613049264822,-0.288086,-0.473206,0.699158,0.451904
1480613049286880,-0.288086,-0.473206,0.699158,0.451904
1480613049308436,-0.288086,-0.473206,0.699158,0.451904
1480613049324981,-0.288147,-0.473206,0.699158,0.451904
1480613049341023,-0.288147,-0.473206,0.699158,0.451843
1480613049371104,-0.288147,-0.473206,0.699158,0.451843
1480613049386144,-0.288147,-0.473206,0.699158,0.451843
1480613049401183,-0.288208,-0.473206,0.699158,0.451843
1480613049432771,-0.288208,-0.473206,0.699158,0.451843
1480613049444800,-0.288208,-0.473206,0.699158,0.451843
1480613049469365,-0.288208,-0.473206,0.699158,0.451843
1480613049483904,-0.288208,-0.473206,0.699158,0.451843
1480613049504963,-0.288208,-0.473206,0.699158,0.451843
1480613049521002,-0.288208,-0.473267,0.699158,0.451843
1480613049551083,-0.288208,-0.473267,0.699158,0.451843
1480613049573642,-0.288269,-0.473267,0.699097,0.451782
1480613049581163,-0.288269,-0.473267,0.699097,0.451782
1480613049603723,-0.288269,-0.473328,0.699097,0.451782
1480613049626283,-0.288208,-0.473328,0.699097,0.451782
1480613049648842,-0.288269,-0.473389,0.699036,0.451782
1480613049663886,-0.288269,-0.473389,0.699036,0.451782
1480613049686945,-0.288269,-0.473389,0.699036,0.451782
1480613049709002,-0.288269,-0.473389,0.699036,0.451782
1480613049723541,-0.288269,-0.473389,0.699036,0.451782
1480613049746101,-0.288147,-0.473206,0.699219,0.451782
1480613049764150,-0.288147,-0.473206,0.699219,0.451782
1480613049783702,-0.288147,-0.473206,0.699219,0.451782
1480613049805761,-0.288208,-0.473267,0.699219,0.451782
1480613049828822,-0.288208,-0.473267,0.699219,0.451721
1480613049843866,-0.288208,-0.473267,0.699219,0.451721
1480613049868427,-0.288208,-0.473267,0.699158,0.451721
1480613049880961,-0.288208,-0.473267,0.699158,0.451721
1480613049903520,-0.288208,-0.473328,0.699158,0.451721
1480613049926581,-0.288208,-0.473328,0.699158,0.451721
1480613049940621,-0.288208,-0.473328,0.699158,0.451721
1480613049964183,-0.288269,-0.473328,0.699158,0.451721
1480613049986240,-0.288269,-0.473328,0.699158,0.451721
1480613050000278,-0.288208,-0.473328,0.699097,0.451721
1480613050023841,-0.288269,-0.473389,0.699097,0.451721
1480613050046400,-0.288269,-0.473389,0.699097,0.451721
1480613050060438,-0.288269,-0.473389,0.699097,0.45166
1480613050089516,-0.28833,-0.473389,0.699097,0.45166
1480613050107062,-0.28833,-0.47345,0.699097,0.45166
1480613050127116,-0.28833,-0.47345,0.699097,0.45166
1480613050143659,-0.28833,-0.47345,0.699097,0.45166
1480613050173740,-0.28833,-0.47345,0.699097,0.45166
1480613050187275,-0.28833,-0.47345,0.699097,0.45166
1480613050211344,-0.28833,-0.47345,0.699097,0.45166
1480613050226380,-0.28833,-0.47345,0.699097,0.45166
1480613050246934,-0.28833,-0.47345,0.699036,0.45166
1480613050263478,-0.288208,-0.47345,0.699097,0.451721
1480613050286540,-0.288208,-0.47345,0.699097,0.451721
1480613050314614,-0.288208,-0.47345,0.699097,0.451721
1480613050323642,-0.288208,-0.473389,0.699158,0.45166
1480613050360736,-0.288208,-0.473328,0.699219,0.45166
1480613050368758,-0.288208,-0.473328,0.699219,0.45166
1480613050383798,-0.288208,-0.473328,0.699219,0.45166
1480613050406359,-0.288208,-0.473328,0.699219,0.45166
1480613050426913,-0.288086,-0.473145,0.699341,0.451721
1480613050443457,-0.288086,-0.473145,0.699341,0.451721
1480613050467019,-0.288147,-0.473145,0.699341,0.45166
1480613050487074,-0.288147,-0.473206,0.69928,0.45166
1480613050503616,-0.288147,-0.473206,0.69928,0.45166
1480613050526176,-0.288147,-0.473206,0.69928,0.451721
1480613050549238,-0.287781,-0.472961,0.699524,0.451721
1480613050563777,-0.287598,-0.4729,0.699707,0.451721
1480613050594860,-0.287598,-0.472839,0.699707,0.451721
1480613050608900,-0.287598,-0.472839,0.699707,0.45166
1480613050638475,-0.287659,-0.4729,0.699707,0.45166
1480613050645995,-0.287415,-0.472839,0.699829,0.451721
1480613050670561,-0.287231,-0.472656,0.700073,0.45166
1480613050683595,-0.287231,-0.472656,0.700073,0.45166
1480613050706157,-0.287231,-0.472656,0.700073,0.45166
1480613050729217,-0.287231,-0.472717,0.700012,0.45166
1480613050743254,-0.287231,-0.472717,0.700012,0.45166
1480613050773836,-0.287231,-0.472717,0.700012,0.45166
1480613050788374,-0.287109,-0.472656,0.700073,0.451721
1480613050802914,-0.287048,-0.472656,0.700073,0.451721
1480613050825974,-0.287109,-0.472656,0.700073,0.451721
1480613050872598,-0.287109,-0.472656,0.700073,0.451721
1480613050877110,-0.28717,-0.472656,0.700073,0.45166
1480613050886135,-0.28717,-0.472717,0.700073,0.45166
1480613050908694,-0.28717,-0.472717,0.700073,0.45166
1480613050923233,-0.28717,-0.472717,0.700073,0.45166
1480613050953815,-0.28717,-0.472656,0.700073,0.45166
1480613050968854,-0.28717,-0.472656,0.700073,0.45166
1480613050982891,-0.28717,-0.472717,0.700073,0.45166
1480613051005953,-0.28717,-0.472656,0.700073,0.45166
1480613051036034,-0.28717,-0.472656,0.700073,0.45166
1480613051049569,-0.28717,-0.472656,0.700073,0.45166
1480613051066115,-0.28717,-0.472656,0.700073,0.45166
1480613051103212,-0.28717,-0.472656,0.700073,0.45166
1480613051109729,-0.28717,-0.472717,0.700073,0.45166
1480613051126273,-0.287231,-0.472717,0.700073,0.45166
1480613051148833,-0.287231,-0.472717,0.700073,0.451599
1480613051169889,-0.287231,-0.472717,0.700073,0.451599
1480613051185932,-0.287231,-0.472717,0.700012,0.45166
1480613051210998,-0.28717,-0.472717,0.700012,0.45166
1480613051229549,-0.287231,-0.472717,0.700012,0.45166
1480613051246091,-0.28717,-0.472839,0.69989,0.451782
1480613051268652,-0.286987,-0.473022,0.699768,0.451904
1480613051290209,-0.286987,-0.473022,0.699768,0.451904
1480613051313771,-0.286987,-0.473022,0.699768,0.451904
1480613051344353,-0.286987,-0.472961,0.699768,0.451904
1480613051349867,-0.286987,-0.472961,0.699829,0.451904
1480613051382956,-0.286987,-0.472961,0.699768,0.451904
1480613051388472,-0.286987,-0.472961,0.699768,0.451904
1480613051418550,-0.287048,-0.472961,0.699768,0.451904
1480613051428578,-0.287048,-0.472961,0.699768,0.451904
1480613051448630,-0.286987,-0.472961,0.699768,0.451904
1480613051471192,-0.286987,-0.472961,0.699768,0.451904
1480613051486230,-0.286987,-0.472961,0.699768,0.451904
1480613051516311,-0.286987,-0.473022,0.699768,0.451904
1480613051531354,-0.286987,-0.473022,0.699768,0.451904
1480613051546892,-0.286987,-0.473022,0.699768,0.451904
1480613051568449,-0.286987,-0.473022,0.699768,0.451904
1480613051592012,-0.286987,-0.473022,0.699768,0.451904
1480613051606056,-0.286987,-0.473022,0.699768,0.451904
1480613051634626,-0.286987,-0.473022,0.699707,0.451904
1480613051651169,-0.286987,-0.473022,0.699707,0.451904
1480613051666712,-0.286987,-0.473022,0.699707,0.451904
1480613051694785,-0.287048,-0.473022,0.699707,0.451904
1480613051718849,-0.286987,-0.473022,0.699707,0.451904
1480613051725366,-0.286926,-0.473206,0.699585,0.451965
1480613051748929,-0.286926,-0.473206,0.699585,0.451965
1480613051770989,-0.286926,-0.473206,0.699585,0.451965
1480613051785527,-0.286926,-0.473206,0.699585,0.451965
1480613051809590,-0.286926,-0.473206,0.699585,0.451965
1480613051837262,-0.286926,-0.473206,0.699585,0.451965
1480613051845687,-0.286926,-0.473206,0.699585,0.451965
1480613051868749,-0.286926,-0.473206,0.699585,0.451965
1480613051891308,-0.286926,-0.473206,0.699585,0.451965
1480613051905347,-0.286926,-0.473206,0.699585,0.451965
1480613051928407,-0.286987,-0.473206,0.699585,0.451965
1480613051983052,-0.286987,-0.473267,0.699585,0.451965
1480613051988567,-0.286987,-0.473267,0.699524,0.451965
1480613051991074,-0.286926,-0.47345,0.699341,0.452148
1480613052017143,-0.286865,-0.473633,0.699158,0.452271
1480613052033687,-0.286926,-0.473877,0.699036,0.452209
1480613052048733,-0.286926,-0.473877,0.699036,0.452209
1480613052071289,-0.286987,-0.473816,0.699036,0.452209
1480613052099867,-0.286987,-0.473816,0.699036,0.452209
1480613052108887,-0.286987,-0.473816,0.699036,0.452209
1480613052131948,-0.286987,-0.473816,0.699036,0.452209
1480613052152503,-0.286987,-0.473816,0.699036,0.452148
1480613052168546,-0.286926,-0.473694,0.699158,0.452148
1480613052191106,-0.286987,-0.473572,0.699341,0.451965
1480613052212161,-0.28717,-0.473633,0.699341,0.451782
1480613052236226,-0.28717,-0.473633,0.699341,0.451782
1480613052251265,-0.28717,-0.473633,0.699341,0.451782
1480613052272322,-0.287109,-0.473633,0.699341,0.451782
1480613052302402,-0.287109,-0.473633,0.699341,0.451782
1480613052310924,-0.287109,-0.473694,0.699341,0.451782
1480613052332984,-0.28717,-0.473694,0.69928,0.451782
1480613052350029,-0.287109,-0.473694,0.69928,0.451782
1480613052371086,-0.28717,-0.473694,0.69928,0.451782
1480613052392141,-0.28717,-0.473694,0.69928,0.451782
1480613052408685,-0.28717,-0.473694,0.69928,0.451782
1480613052431249,-0.28717,-0.473694,0.69928,0.451782
1480613052453807,-0.28717,-0.473755,0.69928,0.451721
1480613052468845,-0.287231,-0.473694,0.69928,0.451721
1480613052490903,-0.287231,-0.473694,0.69928,0.451721
1480613052513469,-0.287231,-0.473694,0.69928,0.451721
1480613052534519,-0.28717,-0.473694,0.699341,0.451782
1480613052551063,-0.28717,-0.473694,0.69928,0.451782
1480613052573623,-0.287231,-0.473694,0.699341,0.451721
1480613052589667,-0.287231,-0.473694,0.699341,0.451721
1480613052611224,-0.287231,-0.473694,0.699341,0.451721
1480613052635287,-0.287231,-0.473694,0.69928,0.451721
1480613052647821,-0.287231,-0.473694,0.69928,0.451721
1480613052671387,-0.287231,-0.473694,0.69928,0.451721
1480613052700962,-0.287231,-0.473694,0.69928,0.451721
1480613052717506,-0.287292,-0.473694,0.69928,0.45166
1480613052731042,-0.287292,-0.473755,0.69928,0.45166
1480613052753603,-0.287292,-0.473755,0.69928,0.45166
1480613052768141,-0.287292,-0.473755,0.69928,0.45166
1480613052791202,-0.287292,-0.473694,0.69928,0.451721
1480613052813762,-0.287292,-0.473694,0.69928,0.451721
1480613052828301,-0.287292,-0.473694,0.69928,0.45166
1480613052851362,-0.287354,-0.473694,0.69928,0.45166
1480613052873421,-0.287354,-0.473755,0.69928,0.45166
1480613052894477,-0.287354,-0.473755,0.69928,0.45166
1480613052911021,-0.287354,-0.473755,0.69928,0.45166
1480613052933581,-0.287354,-0.473755,0.69928,0.45166
1480613052957147,-0.287354,-0.473755,0.69928,0.451599
1480613052977197,-0.287415,-0.473755,0.69928,0.451599
1480613053001261,-0.287415,-0.473755,0.69928,0.451599
1480613053014797,-0.287415,-0.473755,0.69928,0.451599
1480613053038861,-0.287415,-0.473816,0.699219,0.451599
1480613053053903,-0.287415,-0.473816,0.699219,0.451599
1480613053074958,-0.287415,-0.473816,0.699219,0.451599
1480613053091000,-0.287476,-0.473816,0.699219,0.451599
1480613053113560,-0.287476,-0.473816,0.699219,0.451538
1480613053136120,-0.287537,-0.473816,0.699219,0.451538
1480613053151160,-0.287537,-0.473816,0.699219,0.451538
1480613053182744,-0.287537,-0.473816,0.699219,0.451538
1480613053194776,-0.287537,-0.473816,0.699219,0.451538
1480613053219341,-0.287537,-0.473816,0.699219,0.451538
1480613053233880,-0.287537,-0.473816,0.699219,0.451538
1480613053256001,-0.287537,-0.473816,0.699219,0.451538
1480613053271044,-0.287537,-0.473816,0.699219,0.451477
1480613053294605,-0.287537,-0.473816,0.699219,0.451477
1480613053316161,-0.287537,-0.473816,0.699219,0.451477
1480613053331203,-0.287537,-0.473816,0.699219,0.451477
1480613053367799,-0.287598,-0.473877,0.699219,0.451477
1480613053375319,-0.287598,-0.473877,0.699219,0.451477
1480613053391361,-0.287598,-0.473877,0.699219,0.451477
1480613053413420,-0.287659,-0.473877,0.699219,0.451477
1480613053435980,-0.287537,-0.473938,0.699158,0.451599
1480613053452022,-0.287537,-0.473877,0.699158,0.451599
1480613053473582,-0.287537,-0.473877,0.699158,0.451599
1480613053496140,-0.287415,-0.473755,0.69928,0.451599
1480613053511181,-0.287415,-0.473755,0.69928,0.451599
1480613053533740,-0.287476,-0.473694,0.699341,0.451538
1480613053556300,-0.287476,-0.473694,0.699341,0.451538
1480613053577356,-0.287476,-0.473694,0.699341,0.451538
1480613053593900,-0.287292,-0.473572,0.699402,0.451599
1480613053616962,-0.287292,-0.473633,0.699402,0.451599
1480613053630498,-0.287354,-0.473633,0.699402,0.451599
1480613053654067,-0.287354,-0.473633,0.699402,0.451599
1480613053676119,-0.287354,-0.473633,0.699402,0.451599
1480613053691159,-0.287354,-0.473633,0.699402,0.451599
1480613053713719,-0.287354,-0.473633,0.699402,0.451599
1480613053736279,-0.287354,-0.473633,0.699402,0.451599
1480613053750316,-0.287354,-0.473633,0.699402,0.451599
1480613053773378,-0.287354,-0.473633,0.699402,0.451599
1480613053797943,-0.287354,-0.473633,0.699402,0.451599
1480613053810978,-0.287354,-0.473633,0.699402,0.451599
1480613053833539,-0.287415,-0.473633,0.699402,0.451538
1480613053856097,-0.287415,-0.473633,0.699402,0.451538
1480613053871141,-0.287292,-0.47345,0.699585,0.451599
1480613053894700,-0.287292,-0.473389,0.699585,0.451599
1480613053916258,-0.287292,-0.473389,0.699585,0.451538
1480613053937317,-0.287292,-0.473389,0.699585,0.451538
1480613053967394,-0.287292,-0.473389,0.699585,0.451538
1480613053976418,-0.287109,-0.473267,0.699707,0.45166
1480613053996973,-0.286926,-0.473083,0.699829,0.451782
1480613054013516,-0.286926,-0.473083,0.699829,0.451782
1480613054036076,-0.286804,-0.473145,0.69989,0.451721
1480613054059138,-0.286865,-0.473145,0.69989,0.45166
1480613054073677,-0.286682,-0.473083,0.699951,0.451721
1480613054103758,-0.286743,-0.473083,0.69989,0.451721
1480613054117292,-0.286743,-0.473145,0.69989,0.451721
1480613054134338,-0.286743,-0.473145,0.69989,0.451721
1480613054155895,-0.286743,-0.473145,0.69989,0.451721
1480613054178455,-0.286743,-0.473145,0.69989,0.451721
1480613054193997,-0.286804,-0.473083,0.69989,0.45166
1480613054216055,-0.286743,-0.4729,0.700073,0.45166
1480613054244631,-0.286743,-0.4729,0.700073,0.45166
1480613054253656,-0.286743,-0.4729,0.700073,0.45166
1480613054276219,-0.286743,-0.4729,0.700073,0.45166
1480613054297272,-0.286743,-0.4729,0.700073,0.45166
1480613054313815,-0.286743,-0.4729,0.700073,0.45166
1480613054335874,-0.286804,-0.4729,0.700073,0.45166
1480613054382497,-0.286804,-0.472961,0.700073,0.45166
1480613054387010,-0.286743,-0.472961,0.700073,0.45166
1480613054396033,-0.286804,-0.473083,0.700012,0.451599
1480613054435138,-0.286804,-0.473083,0.700012,0.451599
1480613054441659,-0.286804,-0.473083,0.700012,0.451599
1480613054462210,-0.286804,-0.473022,0.700012,0.451599
1480613054478754,-0.286804,-0.473022,0.700012,0.451599
1480613054501314,-0.286804,-0.473022,0.700012,0.451599
1480613054516353,-0.286804,-0.473022,0.700012,0.451599
1480613054538916,-0.286804,-0.473022,0.700012,0.451599
1480613054553453,-0.286804,-0.473022,0.700012,0.451599
1480613054576013,-0.286865,-0.473022,0.700012,0.451599
1480613054622639,-0.286865,-0.473022,0.700012,0.451538
1480613054627149,-0.286865,-0.473022,0.700012,0.451538
1480613054660237,-0.286865,-0.473022,0.700012,0.451599
1480613054673774,-0.286804,-0.473022,0.700012,0.451599
1480613054676280,-0.286804,-0.473022,0.700012,0.451599
1480613054696333,-0.286804,-0.473022,0.700012,0.451599
1480613054720397,-0.286865,-0.473022,0.700012,0.451599
1480613054734435,-0.286865,-0.473022,0.700012,0.451538
1480613054755993,-0.286865,-0.473022,0.700012,0.451538
1480613054778552,-0.286865,-0.472961,0.700073,0.451538
1480613054793090,-0.286865,-0.473145,0.69989,0.451538
1480613054816152,-0.286926,-0.473145,0.69989,0.451538
1480613054838715,-0.286926,-0.473206,0.69989,0.451538
1480613054859768,-0.286926,-0.473145,0.69989,0.451538
1480613054881826,-0.286926,-0.473145,0.699951,0.451538
1480613054900376,-0.286926,-0.473145,0.699951,0.451538
1480613054926947,-0.286926,-0.473145,0.699951,0.451538
1480613054937475,-0.286926,-0.473145,0.699951,0.451538
1480613054959032,-0.286987,-0.473145,0.699951,0.451538
1480613054980589,-0.286987,-0.473145,0.69989,0.451477
1480613054996130,-0.286987,-0.473145,0.69989,0.451477
1480613055018693,-0.287048,-0.473145,0.69989,0.451477
1480613055039747,-0.287048,-0.473206,0.69989,0.451477
1480613055056291,-0.286987,-0.473145,0.69989,0.451477
1480613055079853,-0.286987,-0.473145,0.69989,0.451477
1480613055099910,-0.286987,-0.473206,0.69989,0.451477
1480613055116951,-0.287048,-0.473206,0.69989,0.451477
1480613055139012,-0.287048,-0.473206,0.69989,0.451477
1480613055168590,-0.287048,-0.473145,0.69989,0.451477
1480613055177614,-0.287048,-0.473145,0.699951,0.451477
1480613055198676,-0.287048,-0.473145,0.69989,0.451477
1480613055228248,-0.287048,-0.473206,0.69989,0.451416
1480613055242287,-0.287109,-0.473206,0.69989,0.451416
1480613055258835,-0.287109,-0.473206,0.69989,0.451416
1480613055279885,-0.287109,-0.473206,0.69989,0.451416
1480613055296430,-0.287109,-0.473206,0.69989,0.451416
1480613055318488,-0.287109,-0.473206,0.69989,0.451416
1480613055341051,-0.287109,-0.473206,0.69989,0.451416
1480613055356090,-0.287109,-0.473206,0.69989,0.451416
1480613055380152,-0.287109,-0.473206,0.69989,0.451416
1480613055408733,-0.28717,-0.473206,0.69989,0.451355
1480613055416248,-0.28717,-0.473206,0.69989,0.451355
1480613055445827,-0.28717,-0.473206,0.69989,0.451355
1480613055460867,-0.28717,-0.473206,0.69989,0.451355
1480613055475405,-0.28717,-0.473267,0.69989,0.451355
1480613055498467,-0.28717,-0.473267,0.699829,0.451355
1480613055521528,-0.287231,-0.473267,0.699829,0.451355
1480613055542082,-0.287231,-0.473267,0.699829,0.451355
1480613055558627,-0.287231,-0.473267,0.69989,0.451355
1480613055589709,-0.287231,-0.473267,0.69989,0.451294
1480613055595726,-0.287231,-0.473267,0.69989,0.451294
1480613055618788,-0.287292,-0.473267,0.699829,0.451294
1480613055641350,-0.287292,-0.473328,0.699829,0.451294
1480613055655385,-0.287292,-0.473328,0.699829,0.451294
1480613055687470,-0.287292,-0.473328,0.699829,0.451294
1480613055702011,-0.287292,-0.473328,0.699829,0.451294
1480613055723566,-0.287292,-0.473328,0.699829,0.451294
1480613055738606,-0.287292,-0.473328,0.699829,0.451294
1480613055762168,-0.287292,-0.473328,0.699829,0.451294
1480613055775707,-0.287354,-0.473328,0.699829,0.451233
1480613055798767,-0.287354,-0.473389,0.699768,0.451233
1480613055822330,-0.287354,-0.473328,0.699768,0.451233
1480613055849901,-0.287354,-0.473328,0.699829,0.451233
1480613055858424,-0.287354,-0.473328,0.699829,0.451233
1480613055881988,-0.287415,-0.473022,0.699951,0.451294
1480613055920089,-0.287354,-0.472656,0.700073,0.451538
1480613055923599,-0.287415,-0.472656,0.700073,0.451538
1480613055966212,-0.287415,-0.472229,0.700317,0.451538
1480613055971726,-0.287415,-0.47168,0.700684,0.451599
1480613055991779,-0.287537,-0.471375,0.700806,0.45166
1480613056003311,-0.287537,-0.471191,0.700867,0.451782
1480613056029891,-0.287537,-0.470947,0.700928,0.451904
1480613056044420,-0.287537,-0.471008,0.700928,0.451843
1480613056061466,-0.287537,-0.471008,0.700928,0.451843
1480613056082020,-0.287598,-0.471008,0.700928,0.451843
1480613056100569,-0.287598,-0.471008,0.700867,0.451843
1480613056121124,-0.287598,-0.471252,0.700684,0.451843
1480613056142182,-0.287537,-0.471558,0.700562,0.451843
1480613056158723,-0.287476,-0.471741,0.7005,0.451782
1480613056187802,-0.287476,-0.471741,0.7005,0.451782
1480613056202340,-0.287354,-0.471619,0.700684,0.45166
1480613056226404,-0.28717,-0.471558,0.700867,0.451538
1480613056241446,-0.286987,-0.471436,0.701111,0.451477
1480613056263502,-0.287048,-0.471436,0.701111,0.451416
1480613056280046,-0.287048,-0.471497,0.70105,0.451416
1480613056309624,-0.287048,-0.471497,0.70105,0.451416
1480613056323662,-0.286987,-0.471375,0.701233,0.451355
1480613056338201,-0.287048,-0.471436,0.701294,0.451111
1480613056361262,-0.287048,-0.471497,0.701294,0.451111
1480613056383822,-0.287048,-0.471497,0.701294,0.451111
1480613056397860,-0.286926,-0.47168,0.701294,0.450928
1480613056420922,-0.286804,-0.471802,0.701355,0.450806
1480613056443482,-0.286865,-0.471802,0.701355,0.450806
1480613056467043,-0.286865,-0.471802,0.701355,0.450745
1480613056481582,-0.286865,-0.471802,0.701355,0.450745
1480613056520185,-0.286621,-0.471802,0.701477,0.450745
1480613056524696,-0.286621,-0.471741,0.701477,0.450745
1480613056541241,-0.286621,-0.471741,0.701477,0.450745
1480613056564808,-0.286621,-0.471802,0.701477,0.450745
1480613056584857,-0.286682,-0.471802,0.701477,0.450745
1480613056601401,-0.286682,-0.471802,0.701477,0.450745
1480613056623459,-0.286682,-0.471802,0.701477,0.450745
1480613056645520,-0.286682,-0.471741,0.701477,0.450745
1480613056647022,-0.286621,-0.471741,0.701477,0.450745
1480613056666577,-0.28656,-0.471741,0.70166,0.450562
1480613056689134,-0.286621,-0.471741,0.70166,0.450562
1480613056705678,-0.286743,-0.472046,0.701477,0.450439
1480613056726234,-0.286804,-0.472046,0.701477,0.450439
1480613056750297,-0.286743,-0.471619,0.70166,0.450623
1480613056771354,-0.286987,-0.471436,0.701599,0.450684
1480613056789401,-0.286987,-0.471497,0.701599,0.450684
1480613056808953,-0.286987,-0.471497,0.701599,0.450684
1480613056827001,-0.287231,-0.471619,0.701416,0.450684
1480613056846553,-0.287354,-0.471497,0.701355,0.450806
1480613056869616,-0.287354,-0.471497,0.701355,0.450806
1480613056887163,-0.287292,-0.471436,0.701355,0.450867
1480613056906713,-0.287292,-0.471436,0.701355,0.450867
1480613056928772,-0.287354,-0.471436,0.701355,0.450806
1480613056978404,-0.287354,-0.471497,0.701355,0.450806
1480613056984420,-0.287354,-0.471497,0.701355,0.450806
1480613056988932,-0.287354,-0.471497,0.701294,0.450806
1480613057030042,-0.287598,-0.471741,0.701172,0.450684
1480613057034052,-0.287598,-0.471802,0.701111,0.450684
1480613057065639,-0.287598,-0.471741,0.701172,0.450684
1480613057071652,-0.28772,-0.471924,0.700989,0.450623
1480613057094212,-0.287964,-0.472107,0.700806,0.450562
1480613057109253,-0.287964,-0.472107,0.700867,0.450562
1480613057140335,-0.287964,-0.472046,0.700867,0.450562
1480613057146351,-0.287964,-0.472046,0.700867,0.450562
1480613057169914,-0.287964,-0.472046,0.700867,0.450562
1480613057191470,-0.287964,-0.472046,0.700867,0.450562
1480613057206511,-0.288208,-0.471985,0.700806,0.450623
1480613057254639,-0.288208,-0.471985,0.700745,0.450623
1480613057257145,-0.288269,-0.471985,0.700745,0.450623
1480613057266673,-0.28833,-0.47168,0.700867,0.450684
1480613057291737,-0.28833,-0.47168,0.700867,0.450745
1480613057311291,-0.288452,-0.471558,0.700867,0.450745
1480613057326329,-0.288513,-0.471191,0.70105,0.450806
1480613057348889,-0.288574,-0.471191,0.70105,0.450806
1480613057371450,-0.288574,-0.471252,0.700989,0.450806
1480613057386491,-0.288574,-0.471252,0.700989,0.450806
1480613057416569,-0.288574,-0.471252,0.700989,0.450806
1480613057431611,-0.288696,-0.471436,0.700928,0.450684
1480613057446650,-0.288696,-0.471436,0.700867,0.450684
1480613057469209,-0.288696,-0.47168,0.700684,0.450745
1480613057491770,-0.288696,-0.472107,0.700378,0.450806
1480613057532381,-0.288696,-0.472473,0.700073,0.450928
1480613057536389,-0.288696,-0.472656,0.69989,0.450989
1480613057551429,-0.288574,-0.472839,0.699829,0.450989
1480613057576998,-0.288452,-0.472961,0.699829,0.450928
1480613057589028,-0.288452,-0.472961,0.699829,0.450928
1480613057611588,-0.288452,-0.4729,0.699829,0.450928
1480613057629136,-0.288452,-0.4729,0.69989,0.450867
1480613057649188,-0.288513,-0.4729,0.699829,0.450867
1480613057671750,-0.288513,-0.4729,0.699829,0.450867
1480613057687791,-0.288513,-0.472961,0.699829,0.450867
1480613057716367,-0.288513,-0.472961,0.699829,0.450867
1480613057731410,-0.288513,-0.472961,0.699829,0.450867
1480613057765498,-0.288513,-0.473022,0.699829,0.450867
1480613057771016,-0.288574,-0.473022,0.699768,0.450867
1480613057791568,-0.288574,-0.473022,0.699768,0.450867
1480613057809616,-0.288513,-0.473022,0.699768,0.450867
1480613057829168,-0.288513,-0.473022,0.699768,0.450867
1480613057853232,-0.288513,-0.473022,0.699768,0.450867
1480613057868271,-0.288513,-0.473022,0.699768,0.450867
1480613057897852,-0.288513,-0.473083,0.699768,0.450867
1480613057911386,-0.288574,-0.473083,0.699768,0.450867
1480613057927931,-0.288574,-0.473083,0.699768,0.450806
1480613057948986,-0.288574,-0.473083,0.699768,0.450806
1480613057974554,-0.288696,-0.4729,0.699829,0.450745
1480613057988090,-0.288879,-0.472839,0.69989,0.450623
1480613058009146,-0.28894,-0.472656,0.699951,0.450684
1480613058041233,-0.289124,-0.472412,0.700012,0.450745
1480613058047749,-0.289124,-0.472473,0.700012,0.450745
1480613058088356,-0.289063,-0.472473,0.700012,0.450745
1480613058095375,-0.289063,-0.472412,0.700012,0.450745
1480613058107910,-0.289063,-0.472412,0.700012,0.450745
1480613058128965,-0.289063,-0.472473,0.700012,0.450745
1480613058151527,-0.289001,-0.472656,0.700012,0.450562
1480613058175589,-0.288879,-0.472656,0.700195,0.450378
1480613058189125,-0.288452,-0.472595,0.700256,0.450623
1480613058211685,-0.288452,-0.473145,0.699951,0.450562
1480613058229232,-0.288513,-0.473083,0.699951,0.4505
1480613058250288,-0.288269,-0.472717,0.700012,0.450928
1480613058271345,-0.288513,-0.472778,0.699829,0.450989
1480613058309445,-0.28833,-0.472595,0.699768,0.451477
1480613058319473,-0.288635,-0.472595,0.699646,0.451416
1480613058365094,-0.289063,-0.472961,0.699402,0.451172
1480613058368603,-0.289063,-0.472595,0.699524,0.451355
1480613058372113,-0.289001,-0.472168,0.699829,0.451477
1480613058391664,-0.289001,-0.472168,0.699829,0.451477
1480613058414224,-0.289001,-0.472168,0.699829,0.451416
1480613058429265,-0.289001,-0.472168,0.699829,0.451416
1480613058451322,-0.289063,-0.472168,0.699768,0.451416
1480613058475387,-0.28894,-0.472046,0.699768,0.451599
1480613058496443,-0.28894,-0.472107,0.699768,0.45166
1480613058511482,-0.28894,-0.472107,0.699707,0.45166
1480613058534043,-0.289001,-0.472168,0.699707,0.451599
1480613058549083,-0.289124,-0.47229,0.699524,0.45166
1480613058571643,-0.289185,-0.472412,0.699341,0.451782
1480613058597213,-0.289185,-0.472412,0.69928,0.451782
1480613058609243,-0.289124,-0.472412,0.69928,0.451965
1480613058632805,-0.289124,-0.472412,0.69928,0.451965
1480613058653865,-0.289124,-0.472412,0.69928,0.451965
1480613058668901,-0.289124,-0.472412,0.69928,0.451965
1480613058691461,-0.289185,-0.472412,0.69928,0.451904
1480613058714021,-0.289246,-0.472351,0.69928,0.451904
1480613058729061,-0.289246,-0.472351,0.69928,0.451904
1480613058751622,-0.289246,-0.472412,0.69928,0.451904
1480613058774182,-0.289246,-0.472412,0.69928,0.451904
1480613058790727,-0.289246,-0.472412,0.69928,0.451904
1480613058821808,-0.289246,-0.472412,0.699219,0.451904
1480613058833840,-0.289246,-0.472412,0.699219,0.451843
1480613058850384,-0.289246,-0.472412,0.699219,0.451843
1480613058874450,-0.289185,-0.472229,0.699341,0.451965
1480613058894001,-0.289185,-0.472229,0.699341,0.451965
1480613058918065,-0.289185,-0.47229,0.699341,0.451965
1480613058931607,-0.289185,-0.47229,0.699341,0.451965
1480613058955665,-0.289246,-0.47229,0.699341,0.451904
1480613058970705,-0.289246,-0.47229,0.699341,0.451904
1480613058991761,-0.289246,-0.472229,0.699341,0.451904
1480613059014822,-0.289246,-0.47229,0.699341,0.451904
1480613059030364,-0.289246,-0.47229,0.699341,0.451904
1480613059051420,-0.289185,-0.47229,0.699341,0.451904
1480613059081499,-0.289185,-0.47229,0.69928,0.451904
1480613059100551,-0.289368,-0.472473,0.699158,0.451782
1480613059113083,-0.289368,-0.472534,0.699158,0.451782
1480613059151184,-0.289368,-0.472534,0.699158,0.451782
1480613059155697,-0.289368,-0.472534,0.699158,0.451782
1480613059171238,-0.289124,-0.472473,0.699219,0.451904
1480613059193797,-0.289001,-0.472595,0.69928,0.451782
1480613059214353,-0.289001,-0.472595,0.69928,0.451782
1480613059231398,-0.289063,-0.472595,0.69928,0.451782
1480613059253958,-0.289063,-0.472595,0.69928,0.451782
1480613059272006,-0.289063,-0.472595,0.69928,0.451782
1480613059291558,-0.288879,-0.472534,0.699341,0.451843
1480613059321637,-0.288879,-0.472595,0.69928,0.451843
1480613059332166,-0.289063,-0.472839,0.699158,0.45166
1480613059359238,-0.289124,-0.4729,0.699158,0.45166
1480613059373777,-0.289124,-0.472839,0.699158,0.451599
1480613059394832,-0.289124,-0.4729,0.699158,0.451599
1480613059418898,-0.28894,-0.472656,0.69928,0.451782
1480613059433938,-0.288757,-0.472473,0.699402,0.451843
1480613059456497,-0.288818,-0.472656,0.699402,0.45166
1480613059471538,-0.288879,-0.472656,0.699402,0.45166
1480613059494097,-0.288879,-0.472656,0.699402,0.451599
1480613059519666,-0.288757,-0.472656,0.699524,0.451538
1480613059531699,-0.288696,-0.4729,0.699585,0.451294
1480613059554257,-0.288635,-0.472961,0.699768,0.450928
1480613059588348,-0.288269,-0.4729,0.699951,0.450867
1480613059592859,-0.28833,-0.47345,0.699707,0.450623
1480613059613916,-0.28833,-0.473511,0.699707,0.450623
1480613059639484,-0.28833,-0.473145,0.699951,0.450562
1480613059652521,-0.28833,-0.473145,0.699951,0.450623
1480613059674075,-0.288208,-0.472961,0.700073,0.450623
1480613059706161,-0.288025,-0.472839,0.700195,0.450745
1480613059713179,-0.288025,-0.472839,0.700134,0.450806
1480613059745266,-0.288147,-0.472778,0.700073,0.450867
1480613059751782,-0.288147,-0.472656,0.700073,0.45105
1480613059772839,-0.288147,-0.472656,0.700073,0.45105
1480613059793894,-0.288147,-0.472656,0.700073,0.45105
1480613059811943,-0.288147,-0.472717,0.700073,0.45105
1480613059832999,-0.288147,-0.472717,0.700073,0.45105
1480613059854054,-0.288147,-0.472717,0.700012,0.45105
1480613059872102,-0.288147,-0.472717,0.700012,0.450989
1480613059893159,-0.288208,-0.472717,0.700012,0.450989
1480613059915718,-0.288208,-0.472778,0.700012,0.450989
1480613059944796,-0.288208,-0.472717,0.700012,0.450989
1480613059952818,-0.288208,-0.472717,0.700012,0.450989
1480613059974876,-0.288208,-0.472717,0.700012,0.450989
1480613060004454,-0.288208,-0.472717,0.700012,0.450989
1480613060012977,-0.288208,-0.472473,0.700256,0.450928
1480613060034033,-0.288147,-0.47229,0.700439,0.450806
1480613060056593,-0.288208,-0.472229,0.700439,0.450806
1480613060074641,-0.288208,-0.47229,0.700439,0.450806
1480613060095697,-0.288208,-0.47229,0.700439,0.450806
1480613060116753,-0.288208,-0.47229,0.700439,0.450806
1480613060134300,-0.288208,-0.472351,0.700439,0.450806
1480613060153852,-0.288208,-0.472351,0.700378,0.450806
1480613060176412,-0.288208,-0.472412,0.700378,0.450806
1480613060207996,-0.288269,-0.472595,0.700256,0.450745
1480613060214014,-0.288208,-0.4729,0.700012,0.450806
1480613060236573,-0.288208,-0.4729,0.700012,0.450806
1480613060259633,-0.288208,-0.4729,0.700012,0.450806
1480613060274172,-0.288208,-0.473083,0.69989,0.450806
1480613060306760,-0.288208,-0.473083,0.69989,0.450806
1480613060314279,-0.288208,-0.473083,0.69989,0.450806
1480613060341351,-0.288208,-0.473083,0.69989,0.450806
1480613060356391,-0.288269,-0.473083,0.69989,0.450806
1480613060376444,-0.288025,-0.473206,0.699829,0.450867
1480613060393991,-0.288208,-0.473755,0.699524,0.450745
1480613060416550,-0.288269,-0.473755,0.699463,0.450745
1480613060440615,-0.288269,-0.473389,0.699646,0.450867
1480613060457159,-0.288391,-0.473206,0.699646,0.450928
1480613060493756,-0.288391,-0.473206,0.699646,0.450928
1480613060495761,-0.288391,-0.473206,0.699646,0.450928
1480613060530354,-0.288391,-0.473206,0.699646,0.450928
1480613060536374,-0.288391,-0.472961,0.699768,0.450989
1480613060554418,-0.288391,-0.472839,0.699829,0.45105
1480613060573969,-0.288452,-0.472839,0.699829,0.45105
1480613060596529,-0.288452,-0.4729,0.699768,0.45105
1480613060615580,-0.288452,-0.4729,0.699768,0.45105
1480613060634130,-0.288452,-0.4729,0.699768,0.45105
1480613060665214,-0.288452,-0.472961,0.699768,0.45105
1480613060674237,-0.288574,-0.473206,0.699524,0.45105
1480613060696797,-0.288635,-0.473206,0.699524,0.45105
1480613060716348,-0.288635,-0.473206,0.699463,0.45105
1480613060734398,-0.288635,-0.473206,0.699524,0.45105
1480613060762973,-0.288635,-0.473206,0.699524,0.45105
1480613060777511,-0.288452,-0.472961,0.699646,0.451111
1480613060807089,-0.288513,-0.472961,0.699646,0.451111
1480613060815613,-0.288513,-0.473022,0.699646,0.451111
1480613060844188,-0.288513,-0.472961,0.699646,0.451111
1480613060858727,-0.288574,-0.473022,0.699646,0.451111
1480613060875271,-0.288513,-0.473022,0.699646,0.451111
1480613060896327,-0.288574,-0.473022,0.699646,0.45105
1480613060914375,-0.288574,-0.473022,0.699646,0.45105
1480613060935933,-0.288574,-0.473083,0.699585,0.45105
1480613060956487,-0.288757,-0.473206,0.699524,0.450928
1480613060980551,-0.288757,-0.473206,0.699524,0.450928
1480613060997599,-0.288757,-0.473206,0.699524,0.450928
1480613061016647,-0.288757,-0.473206,0.699524,0.450928
1480613061046727,-0.288757,-0.473206,0.699524,0.450928
1480613061056754,-0.288757,-0.473206,0.699524,0.450867
1480613061083825,-0.288818,-0.473206,0.699524,0.450867
1480613061094354,-0.288818,-0.473206,0.699524,0.450867
1480613061130450,-0.288757,-0.473083,0.699646,0.450806
1480613061136468,-0.288696,-0.472778,0.69989,0.450806
1480613061155517,-0.288757,-0.472473,0.700134,0.450806
1480613061179148,-0.288879,-0.472168,0.700317,0.450745
1480613061196695,-0.289124,-0.471985,0.700439,0.450562
1480613061220758,-0.289368,-0.471985,0.7005,0.450317
1480613061236802,-0.28949,-0.471924,0.700623,0.450134
1480613061256353,-0.28949,-0.471924,0.700623,0.450073
1480613061274402,-0.28949,-0.471924,0.700623,0.450073
1480613061304984,-0.28949,-0.471924,0.700623,0.450073
1480613061316513,-0.289612,-0.472229,0.7005,0.44989
1480613061339074,-0.289612,-0.472595,0.700317,0.449768
1480613061361634,-0.289368,-0.472961,0.700134,0.44989
1480613061376673,-0.289124,-0.473328,0.699951,0.449951
1480613061399234,-0.288879,-0.473572,0.699829,0.449951
1480613061417281,-0.288635,-0.473816,0.699768,0.450073
1480613061445356,-0.288574,-0.474182,0.699402,0.450195
1480613061458892,-0.288635,-0.474365,0.699097,0.4505
1480613061476940,-0.288757,-0.473999,0.699097,0.450806
1480613061504013,-0.288879,-0.473633,0.699097,0.451111
1480613061519053,-0.289063,-0.473389,0.699219,0.45105
1480613061537101,-0.289124,-0.473389,0.699219,0.45105
1480613061558157,-0.289429,-0.473328,0.699158,0.450928
1480613061581719,-0.289551,-0.473206,0.699158,0.450989
1480613061596759,-0.289612,-0.473206,0.699158,0.450989
1480613061617815,-0.289612,-0.473206,0.699158,0.450989
1480613061649399,-0.289612,-0.473206,0.699097,0.450989
1480613061658423,-0.289612,-0.473206,0.699097,0.450989
1480613061677975,-0.289551,-0.473206,0.699097,0.450989
1480613061706551,-0.289551,-0.473206,0.699097,0.450989
1480613061717079,-0.289551,-0.473267,0.699097,0.450989
1480613061739639,-0.289551,-0.473267,0.699097,0.450989
1480613061759191,-0.289551,-0.473267,0.699097,0.450989
1480613061782753,-0.289612,-0.473267,0.699097,0.450989
1480613061797795,-0.289612,-0.473206,0.699097,0.450989
1480613061827874,-0.289612,-0.473206,0.699158,0.450989
1480613061837900,-0.289612,-0.473206,0.699158,0.450989
1480613061872993,-0.289612,-0.473206,0.699097,0.450989
1480613061879010,-0.289612,-0.473206,0.699097,0.450989
1480613061909591,-0.289612,-0.473206,0.699158,0.450989
1480613061918114,-0.289612,-0.473206,0.699158,0.450989
1480613061939173,-0.289612,-0.473206,0.699158,0.450989
1480613061971757,-0.289612,-0.473206,0.699158,0.450989
1480613061979276,-0.289551,-0.473206,0.699158,0.450989
1480613061999836,-0.289612,-0.473206,0.699158,0.450989
1480613062016877,-0.289612,-0.473206,0.699158,0.450989
1480613062039938,-0.289612,-0.473206,0.699158,0.450989
1480613062069519,-0.289551,-0.473022,0.69928,0.450989
1480613062077538,-0.289429,-0.472839,0.699463,0.450989
1480613062100099,-0.289307,-0.472595,0.699585,0.45105
1480613062121655,-0.289368,-0.472412,0.699768,0.45105
1480613062136696,-0.289429,-0.472107,0.699951,0.450989
1480613062163768,-0.289734,-0.471802,0.700195,0.450684
1480613062178807,-0.289978,-0.47168,0.700378,0.450439
1480613062204376,-0.289917,-0.471375,0.700623,0.450378
1480613062219417,-0.289917,-0.471313,0.700806,0.450195
1480613062238968,-0.290039,-0.471497,0.700806,0.44989
1480613062257017,-0.290039,-0.47168,0.700867,0.449646
1480613062279576,-0.289978,-0.471741,0.700989,0.449402
1480613062299628,-0.289673,-0.471802,0.701111,0.449402
1480613062316674,-0.289307,-0.472046,0.70105,0.449402
1480613062339235,-0.289185,-0.472656,0.700806,0.449219
1480613062359288,-0.28894,-0.473206,0.700562,0.449219
1480613062376834,-0.288574,-0.473389,0.700562,0.449219
1480613062415938,-0.288513,-0.473572,0.7005,0.449158
1480613062420450,-0.288391,-0.473816,0.700378,0.449158
1480613062436994,-0.288391,-0.474121,0.700256,0.449097
1480613062460056,-0.288391,-0.474121,0.700256,0.449097
1480613062482114,-0.288391,-0.474121,0.700256,0.449097
1480613062501667,-0.288391,-0.474182,0.700195,0.449097
1480613062525229,-0.288391,-0.474182,0.700195,0.449097
1480613062549293,-0.288391,-0.474243,0.700195,0.449097
1480613062561325,-0.288391,-0.474243,0.700195,0.449036
1480613062580376,-0.288391,-0.474243,0.700195,0.449097
1480613062617475,-0.288147,-0.474365,0.700012,0.449341
1480613062621485,-0.287842,-0.474548,0.699829,0.449585
1480613062639534,-0.287659,-0.474792,0.699646,0.449707
1480613062669616,-0.287292,-0.474976,0.699646,0.449768
1480613062689165,-0.287109,-0.475281,0.699646,0.449585
1480613062700200,-0.286865,-0.475403,0.699768,0.449463
1480613062720247,-0.286621,-0.475098,0.699951,0.449646
1480613062736793,-0.286438,-0.474854,0.700012,0.44989
1480613062759352,-0.286438,-0.474854,0.700012,0.449829
1480613062780408,-0.286499,-0.474854,0.700073,0.449829
1480613062796952,-0.286499,-0.474854,0.700073,0.449829
1480613062820013,-0.286499,-0.474792,0.700256,0.449585
1480613062840569,-0.286438,-0.47467,0.700378,0.449585
1480613062861624,-0.286377,-0.474487,0.7005,0.449585
1480613062894211,-0.286377,-0.474487,0.7005,0.449585
1480613062901731,-0.286377,-0.474487,0.7005,0.449585
1480613062926296,-0.286377,-0.474548,0.700439,0.449585
1480613062940334,-0.286377,-0.474548,0.700439,0.449585
1480613062975426,-0.286377,-0.474548,0.700439,0.449585
1480613062981442,-0.286377,-0.474487,0.700439,0.449585
1480613062999492,-0.286377,-0.474487,0.7005,0.449585
1480613063027064,-0.286377,-0.474487,0.700439,0.449585
1480613063044110,-0.286194,-0.47467,0.700378,0.449646
1480613063059651,-0.286133,-0.474854,0.700256,0.449768
1480613063081710,-0.286194,-0.475098,0.700073,0.449646
1480613063101262,-0.286194,-0.475403,0.69989,0.449646
1480613063123821,-0.286194,-0.475403,0.69989,0.449707
1480613063141872,-0.286133,-0.475403,0.69989,0.449707
1480613063170447,-0.286133,-0.475708,0.699646,0.449707
1480613063179471,-0.286133,-0.475708,0.699646,0.449707
1480613063202531,-0.286133,-0.475708,0.699646,0.449707
1480613063221582,-0.286133,-0.475708,0.699646,0.449707
1480613063246648,-0.286133,-0.475708,0.699646,0.449707
1480613063269208,-0.286133,-0.475708,0.699646,0.449707
1480613063289763,-0.286133,-0.475708,0.699646,0.449707
1480613063299291,-0.286194,-0.476013,0.699463,0.449646
1480613063321849,-0.286316,-0.47644,0.699158,0.449646
1480613063341400,-0.286255,-0.476868,0.69873,0.44989
1480613063359448,-0.286255,-0.477051,0.698486,0.450134
1480613063382008,-0.286072,-0.477173,0.698303,0.450378
1480613063401560,-0.285706,-0.477051,0.698181,0.450867
1480613063418605,-0.285217,-0.476746,0.698181,0.451477
1480613063449689,-0.284851,-0.47644,0.698181,0.452087
1480613063462724,-0.284729,-0.476379,0.697998,0.452515
1480613063484280,-0.284729,-0.476318,0.697815,0.452881
1480613063502329,-0.284668,-0.476013,0.697754,0.453369
1480613063524387,-0.284607,-0.475708,0.697693,0.453796
1480613063545944,-0.284668,-0.475647,0.697571,0.454041
1480613063562990,-0.284668,-0.475647,0.697571,0.454041
1480613063589563,-0.284668,-0.475647,0.697571,0.453979
1480613063598587,-0.284729,-0.475586,0.697571,0.453979
1480613063621148,-0.284729,-0.475586,0.697571,0.453979
1480613063642201,-0.284851,-0.475403,0.697815,0.453674
1480613063658745,-0.284729,-0.475403,0.698059,0.45343
1480613063681806,-0.284485,-0.475342,0.698303,0.453247
1480613063702366,-0.284363,-0.475464,0.698486,0.453003
1480613063724421,-0.28418,-0.475464,0.69873,0.452637
1480613063740963,-0.284119,-0.475403,0.699036,0.452271
1480613063764527,-0.284119,-0.475342,0.699341,0.451904
1480613063785080,-0.283875,-0.47522,0.699646,0.45166
1480613063826695,-0.283752,-0.47522,0.69989,0.451355
1480613063830702,-0.283691,-0.475403,0.700012,0.45105
1480613063838724,-0.28363,-0.475403,0.700134,0.450928
1480613063868804,-0.283569,-0.475342,0.700317,0.450684
1480613063883843,-0.28363,-0.475464,0.700378,0.4505
1480613063898383,-0.28363,-0.475464,0.700378,0.4505
1480613063920943,-0.28363,-0.475708,0.700256,0.450439
1480613063943502,-0.28363,-0.475952,0.700073,0.450439
1480613063958041,-0.28363,-0.476196,0.69989,0.450439
1480613063981103,-0.283691,-0.476563,0.699707,0.450378
1480613064003678,-0.283752,-0.476868,0.699463,0.450317
1480613064024217,-0.283691,-0.477112,0.69928,0.450439
1480613064057304,-0.283569,-0.477356,0.699097,0.450562
1480613064063823,-0.283325,-0.477539,0.698914,0.450684
1480613064102425,-0.283203,-0.477844,0.698792,0.450684
1480613064106937,-0.283203,-0.477844,0.698792,0.450684
1480613064123983,-0.283203,-0.477844,0.698792,0.450684
1480613064138020,-0.283142,-0.477966,0.69873,0.450684
1480613064161081,-0.283203,-0.477966,0.69873,0.450684
1480613064183641,-0.283203,-0.477966,0.698669,0.450684
1480613064198199,-0.283081,-0.478333,0.698486,0.450806
1480613064221242,-0.282959,-0.478577,0.698303,0.450806
1480613064243802,-0.282776,-0.478821,0.698242,0.450806
1480613064257838,-0.282654,-0.479004,0.698242,0.450745
1480613064280899,-0.282593,-0.479126,0.698242,0.450562
1480613064303461,-0.282471,-0.479187,0.698364,0.450378
1480613064317998,-0.282471,-0.479187,0.698364,0.450378
1480613064354597,-0.282471,-0.479187,0.698364,0.450439
1480613064380665,-0.282471,-0.479187,0.698364,0.450439
1480613064386181,-0.282471,-0.479187,0.698364,0.450439
1480613064424783,-0.282471,-0.479187,0.698364,0.450378
1480613064429796,-0.282532,-0.479187,0.698364,0.450378
1480613064444836,-0.282471,-0.479187,0.698364,0.450378
1480613064460879,-0.282471,-0.479309,0.698303,0.450378
1480613064483439,-0.282471,-0.47937,0.698303,0.450378
1480613064504495,-0.282471,-0.47937,0.698303,0.450378
1480613064521039,-0.282471,-0.47937,0.698242,0.450378
1480613064544100,-0.282532,-0.47937,0.698303,0.450317
1480613064564655,-0.282532,-0.47937,0.698303,0.450317
1480613064581199,-0.282532,-0.47937,0.698242,0.450317
1480613064603259,-0.282532,-0.479309,0.698303,0.450317
1480613064656400,-0.282532,-0.47937,0.698303,0.450317
1480613064659909,-0.282532,-0.47937,0.698242,0.450317
1480613064664921,-0.282593,-0.47937,0.698242,0.450256
1480613064693999,-0.282593,-0.47937,0.698242,0.450256
1480613064703541,-0.282593,-0.47937,0.698242,0.450256
1480613064724079,-0.282593,-0.47937,0.698242,0.450256
1480613064746137,-0.282593,-0.47937,0.698242,0.450256
1480613064761179,-0.282593,-0.47937,0.698242,0.450256
1480613064783739,-0.282593,-0.479431,0.698242,0.450256
1480613064806298,-0.282654,-0.479431,0.698242,0.450256
1480613064820837,-0.282654,-0.479431,0.698242,0.450256
1480613064843397,-0.282532,-0.479553,0.698181,0.450195
1480613064865957,-0.282166,-0.479797,0.698181,0.450134
1480613064887015,-0.281921,-0.480164,0.698303,0.449829
1480613064919599,-0.281311,-0.480042,0.698669,0.449829
1480613064935141,-0.280945,-0.480347,0.698547,0.449829
1480613064940657,-0.281189,-0.480713,0.698364,0.449646
1480613064976975,-0.281494,-0.480469,0.698547,0.449402
1480613064986000,-0.281738,-0.480408,0.698547,0.44928
1480613065000539,-0.282043,-0.480591,0.698486,0.448975
1480613065023600,-0.282043,-0.480164,0.698669,0.449219
1480613065046160,-0.282349,-0.480103,0.698608,0.449158
1480613065062203,-0.282715,-0.48053,0.698303,0.448853
1480613065083762,-0.282593,-0.480469,0.698303,0.448975
1480613065114341,-0.282532,-0.48053,0.698364,0.448914
1480613065120358,-0.282471,-0.481079,0.698242,0.448608
1480613065143920,-0.282471,-0.481079,0.698242,0.448608
1480613065166983,-0.282471,-0.481079,0.698242,0.448608
1480613065188543,-0.282837,-0.480957,0.698181,0.448547
1480613065205083,-0.283203,-0.480957,0.698059,0.448486
1480613065226138,-0.283386,-0.48114,0.697998,0.448242
1480613065256219,-0.283569,-0.481445,0.697937,0.447937
1480613065263739,-0.283569,-0.481445,0.697937,0.447937
1480613065287302,-0.283691,-0.481201,0.697937,0.448059
1480613065307856,-0.283997,-0.481384,0.697815,0.447937
1480613065323397,-0.284241,-0.481628,0.697632,0.447815
1480613065346960,-0.284302,-0.481567,0.697632,0.447815
1480613065367013,-0.284241,-0.481567,0.697632,0.447815
1480613065398603,-0.284241,-0.481567,0.697632,0.447815
1480613065406120,-0.28418,-0.481262,0.697937,0.447815
1480613065436701,-0.28418,-0.481018,0.69812,0.447754
1480613065443717,-0.28418,-0.481018,0.69812,0.447754
1480613065473798,-0.28418,-0.481018,0.69812,0.447754
1480613065487334,-0.28418,-0.481018,0.69812,0.447754
1480613065503386,-0.28418,-0.481323,0.697876,0.447754
1480613065525936,-0.284058,-0.481628,0.697693,0.447815
1480613065546992,-0.283997,-0.481628,0.697693,0.447815
1480613065580581,-0.283997,-0.481689,0.697693,0.447815
1480613065586097,-0.283997,-0.481384,0.697754,0.447998
1480613065607152,-0.284058,-0.481079,0.697815,0.448181
1480613065623697,-0.284058,-0.481079,0.697815,0.448181
1480613065646257,-0.284058,-0.481018,0.697632,0.448486
1480613065674835,-0.284241,-0.481079,0.697449,0.448669
1480613065699400,-0.284241,-0.481079,0.697449,0.448669
1480613065720456,-0.284241,-0.481079,0.697449,0.448669
1480613065727974,-0.28479,-0.481018,0.697449,0.448425
1480613065744518,-0.284912,-0.480469,0.697693,0.448547
1480613065766075,-0.284912,-0.47998,0.697937,0.448669
1480613065789137,-0.284912,-0.47998,0.697937,0.448669
1480613065803676,-0.284912,-0.47998,0.697937,0.448669
1480613065826235,-0.284729,-0.47998,0.697998,0.448669
1480613065848798,-0.28479,-0.479919,0.69812,0.448547
1480613065864840,-0.284729,-0.479858,0.698242,0.448425
1480613065887402,-0.28479,-0.479675,0.698547,0.448181
1480613065908453,-0.28479,-0.479492,0.69873,0.447998
1480613065922992,-0.284851,-0.479309,0.698914,0.447876
1480613065947561,-0.284912,-0.479126,0.699158,0.447693
1480613065969617,-0.284851,-0.479126,0.699341,0.447388
1480613065991174,-0.284546,-0.479004,0.699524,0.447449
1480613066006214,-0.284363,-0.479248,0.699463,0.44751
1480613066036295,-0.284302,-0.479492,0.69928,0.44751
1480613066042811,-0.283936,-0.479553,0.69928,0.447571
1480613066066876,-0.283569,-0.479553,0.699463,0.447632
1480613066089436,-0.283325,-0.479553,0.699585,0.447571
1480613066103475,-0.283325,-0.479553,0.699585,0.447571
1480613066132053,-0.283203,-0.479553,0.699646,0.447571
1480613066149094,-0.283081,-0.479431,0.699707,0.447632
1480613066163633,-0.283081,-0.479431,0.699707,0.447632
1480613066186194,-0.282959,-0.479492,0.699829,0.447449
1480613066222790,-0.282837,-0.479614,0.700012,0.447205
1480613066229810,-0.282227,-0.479553,0.700439,0.446899
1480613066245852,-0.281433,-0.47937,0.700867,0.447021
1480613066268913,-0.281372,-0.479797,0.700745,0.446716
1480613066296988,-0.281616,-0.479736,0.700989,0.446289
1480613066306013,-0.281555,-0.479736,0.700989,0.446289
1480613066328571,-0.281738,-0.479675,0.70105,0.446106
1480613066357149,-0.281677,-0.479553,0.701172,0.446167
1480613066372190,-0.281677,-0.479553,0.701172,0.446167
1480613066388736,-0.281677,-0.479553,0.701111,0.446167
1480613066409787,-0.281677,-0.479614,0.701111,0.446106
1480613066426331,-0.281677,-0.479553,0.701111,0.446167
1480613066462929,-0.281677,-0.479553,0.701111,0.446167
1480613066469447,-0.281677,-0.479553,0.701172,0.446106
1480613066502033,-0.281738,-0.479553,0.701172,0.446106
1480613066508551,-0.281433,-0.479187,0.701233,0.446533
1480613066530108,-0.281189,-0.479309,0.701172,0.446716
1480613066546652,-0.280823,-0.47937,0.700806,0.447449
1480613066574726,-0.280579,-0.479065,0.700745,0.448059
1480613066589766,-0.280701,-0.479187,0.700439,0.448303
1480613066606310,-0.281006,-0.479004,0.700317,0.448425
1480613066628369,-0.281616,-0.478699,0.7005,0.448181
1480613066649425,-0.28186,-0.477783,0.700928,0.448181
1480613066665981,-0.282532,-0.477173,0.701172,0.448181
1480613066688530,-0.282959,-0.476746,0.701233,0.448181
1480613066726630,-0.283203,-0.476501,0.701233,0.448364
1480613066735655,-0.283386,-0.476379,0.701172,0.448425
1480613066748689,-0.283569,-0.476135,0.701172,0.448486
1480613066771250,-0.283752,-0.476074,0.701111,0.448608
1480613066787293,-0.283752,-0.476013,0.700989,0.448853
1480613066808348,-0.283875,-0.476074,0.700806,0.448975
1480613066830909,-0.283875,-0.476074,0.700806,0.448975
1480613066853469,-0.283875,-0.476074,0.700867,0.448975
1480613066869511,-0.283875,-0.476074,0.700867,0.448975
1480613066891570,-0.283875,-0.475708,0.70105,0.449036
1480613066913629,-0.283875,-0.475708,0.70105,0.449036
1480613066928668,-0.283936,-0.475708,0.700989,0.448975
1480613066951228,-0.283936,-0.475708,0.700989,0.448975
1480613066965266,-0.284058,-0.475647,0.701111,0.448914
1480613067010887,-0.284058,-0.475647,0.701111,0.448853
1480613067016904,-0.284058,-0.475647,0.701111,0.448914
1480613067025426,-0.284058,-0.475647,0.701111,0.448914
1480613067054517,-0.284241,-0.475464,0.701172,0.448853
1480613067071062,-0.284485,-0.475464,0.70105,0.448853
1480613067086604,-0.284851,-0.475342,0.700989,0.448975
1480613067110165,-0.285156,-0.475098,0.700928,0.449036
1480613067131727,-0.285278,-0.474915,0.700867,0.449219
1480613067145259,-0.285217,-0.47467,0.700989,0.449402
1480613067168319,-0.2854,-0.474487,0.700989,0.449463
1480613067191381,-0.285461,-0.474487,0.700989,0.449402
1480613067213439,-0.285522,-0.474487,0.700989,0.449402
1480613067245023,-0.285522,-0.474487,0.700989,0.449402
1480613067251039,-0.285522,-0.474487,0.700989,0.449402
1480613067287640,-0.285522,-0.474487,0.700989,0.449402
1480613067296159,-0.285522,-0.474487,0.700989,0.449402
1480613067311199,-0.285522,-0.474487,0.700989,0.449341
1480613067332255,-0.285583,-0.474304,0.701111,0.44928
1480613067348299,-0.285645,-0.474304,0.701111,0.44928
1480613067370861,-0.285645,-0.474304,0.701111,0.44928
1480613067391914,-0.285645,-0.474304,0.701111,0.44928
1480613067421995,-0.285645,-0.474304,0.701172,0.449219
1480613067431019,-0.285645,-0.474304,0.701111,0.449219
1480613067476639,-0.285706,-0.474304,0.701111,0.449219
1480613067479146,-0.285645,-0.474426,0.701172,0.449036
1480613067491179,-0.285522,-0.474243,0.701416,0.448853
1480613067519758,-0.285522,-0.474243,0.701477,0.448853
1480613067528778,-0.285461,-0.474304,0.701538,0.448669
1480613067551340,-0.285278,-0.474304,0.701782,0.448486
1480613067572896,-0.285217,-0.474304,0.702026,0.448181
1480613067588439,-0.285034,-0.474426,0.702148,0.447998
1480613067610997,-0.284912,-0.474426,0.702271,0.447815
1480613067640075,-0.284912,-0.474426,0.702271,0.447815
1480613067650101,-0.284912,-0.474426,0.702271,0.447815
1480613067671659,-0.284912,-0.474426,0.702271,0.447815
1480613067694719,-0.284912,-0.474487,0.702271,0.447815
1480613067708757,-0.284973,-0.474243,0.702393,0.447815
1480613067731319,-0.285278,-0.473999,0.702515,0.447693
1480613067753377,-0.285278,-0.473694,0.702637,0.447815
1480613067769420,-0.284851,-0.47345,0.702698,0.448181
1480613067798496,-0.28479,-0.473572,0.702576,0.448242
1480613067814037,-0.284546,-0.473816,0.702576,0.448181
1480613067843616,-0.284485,-0.473816,0.702576,0.448181
1480613067851136,-0.284546,-0.473816,0.702637,0.448181
1480613067881717,-0.284607,-0.473816,0.702576,0.44812
1480613067889238,-0.284607,-0.473816,0.702576,0.44812
1480613067911296,-0.284546,-0.473938,0.702698,0.447937
1480613067933355,-0.284546,-0.47406,0.702759,0.447693
1480613067947893,-0.284485,-0.474182,0.70282,0.44751
1480613067979478,-0.284485,-0.474243,0.702759,0.44751
1480613067994016,-0.284546,-0.474426,0.702759,0.447266
1480613068008053,-0.284485,-0.474792,0.702698,0.447021
1480613068039138,-0.284363,-0.474976,0.70282,0.446716
1480613068054179,-0.284363,-0.47522,0.702881,0.44635
1480613068074731,-0.284058,-0.475281,0.703003,0.446289
1480613068091777,-0.283691,-0.475647,0.702759,0.446472
1480613068114336,-0.283508,-0.476501,0.702209,0.446594
1480613068135894,-0.282959,-0.476807,0.701965,0.447021
1480613068165975,-0.282715,-0.476929,0.701904,0.447083
1480613068174500,-0.282837,-0.47699,0.701843,0.447021
1480613068195051,-0.283081,-0.476501,0.702087,0.447083
1480613068211093,-0.283081,-0.47583,0.702454,0.447144
1480613068249196,-0.282959,-0.47522,0.702759,0.447449
1480613068254710,-0.283203,-0.474731,0.70282,0.447754
1480613068271256,-0.283569,-0.474426,0.702637,0.448059
1480613068307852,-0.283813,-0.473999,0.702881,0.448059
1480613068314869,-0.283569,-0.473999,0.703186,0.447693
1480613068345953,-0.282227,-0.473328,0.703674,0.448425
1480613068354976,-0.281921,-0.472656,0.703857,0.449036
1480613068374528,-0.282715,-0.472473,0.703918,0.448669
1480613068391574,-0.283569,-0.473328,0.70343,0.447998
1480613068413632,-0.283569,-0.474609,0.703186,0.447083
1480613068435189,-0.281311,-0.473206,0.704163,0.448425
1480613068451233,-0.279724,-0.472168,0.704651,0.449707
1480613068473793,-0.279785,-0.472473,0.704285,0.44989
1480613068497366,-0.280457,-0.472656,0.704102,0.449646
1480613068517408,-0.280884,-0.47229,0.704224,0.449585
1480613068533452,-0.281799,-0.472168,0.704285,0.449036
1480613068554509,-0.282349,-0.471619,0.704529,0.448853
1480613068585088,-0.283081,-0.471558,0.704285,0.448853
1480613068595617,-0.28363,-0.471497,0.703979,0.449036
1480613068631712,-0.283691,-0.470825,0.704102,0.449524
1480613068634220,-0.283997,-0.470459,0.704041,0.449768
1480613068653772,-0.284607,-0.470337,0.703918,0.449768
1480613068676334,-0.285217,-0.470398,0.703674,0.449646
1480613068690869,-0.285522,-0.470337,0.703613,0.449646
1480613068713430,-0.285645,-0.470093,0.703735,0.449585
1480613068735991,-0.285645,-0.46991,0.703979,0.449463
1480613068759051,-0.285706,-0.46991,0.704102,0.449158
1480613068773591,-0.285828,-0.470093,0.704102,0.448914
1480613068797153,-0.285889,-0.470093,0.704102,0.448853
1480613068810187,-0.285889,-0.470276,0.704224,0.448547
1480613068833750,-0.285828,-0.470215,0.70459,0.448059
1480613068866338,-0.285156,-0.469971,0.705078,0.447937
1480613068871852,-0.284668,-0.470398,0.704834,0.448181
1480613068901431,-0.28479,-0.471069,0.704285,0.448303
1480613068916971,-0.284607,-0.471252,0.704163,0.448364
1480613068931510,-0.284363,-0.471558,0.704346,0.447937
1480613068953569,-0.28418,-0.472046,0.704407,0.447449
1480613068976630,-0.28418,-0.472046,0.704346,0.447449
1480613068990166,-0.284546,-0.471985,0.704163,0.447632
1480613069013729,-0.284973,-0.472229,0.703796,0.447693
1480613069036292,-0.285339,-0.472229,0.703735,0.44751
1480613069051830,-0.285706,-0.471985,0.703857,0.447327
1480613069081910,-0.28595,-0.471558,0.704163,0.447266
1480613069096951,-0.28595,-0.471497,0.704163,0.447266
1480613069124524,-0.285889,-0.47168,0.704041,0.447266
1480613069141068,-0.28595,-0.472168,0.703796,0.447144
1480613069156108,-0.28595,-0.472168,0.703796,0.447144
1480613069186187,-0.28595,-0.472168,0.703796,0.447144
1480613069193708,-0.28595,-0.472229,0.703613,0.447388
1480613069218274,-0.286194,-0.472473,0.70343,0.447205
1480613069237325,-0.286011,-0.472595,0.70343,0.447205
1480613069253366,-0.286072,-0.472717,0.703369,0.447144
1480613069275926,-0.286377,-0.472778,0.703247,0.447083
1480613069296983,-0.286682,-0.472473,0.703186,0.447327
1480613069313526,-0.287048,-0.472229,0.703064,0.447449
1480613069336087,-0.287415,-0.472046,0.702942,0.447693
1480613069369174,-0.287659,-0.471985,0.702759,0.447876
1480613069375692,-0.287781,-0.471924,0.702576,0.448181
1480613069397252,-0.287781,-0.471802,0.702332,0.448669
1480613069417304,-0.287903,-0.47168,0.702087,0.449097
1480613069433346,-0.288086,-0.47168,0.701782,0.449402
1480613069463425,-0.288147,-0.471802,0.701538,0.449646
1480613069476960,-0.288025,-0.471802,0.701477,0.44989
1480613069501025,-0.287781,-0.471619,0.701538,0.450134
1480613069516066,-0.287598,-0.471436,0.701599,0.450256
1480613069538625,-0.287598,-0.471436,0.70166,0.450256
1480613069553665,-0.287598,-0.471436,0.70166,0.450256
1480613069576225,-0.287537,-0.471191,0.701843,0.450195
1480613069598786,-0.287598,-0.470886,0.702087,0.450073
1480613069613324,-0.287781,-0.470825,0.702271,0.449829
1480613069636386,-0.287903,-0.470886,0.702454,0.449402
1480613069658444,-0.287964,-0.470703,0.70282,0.448914
1480613069681004,-0.287598,-0.470337,0.703308,0.448792
1480613069696044,-0.287415,-0.47052,0.703308,0.448669
1480613069718604,-0.287537,-0.470947,0.703125,0.448486
1480613069741164,-0.287537,-0.471008,0.703064,0.448486
1480613069756204,-0.287292,-0.47113,0.703125,0.448425
1480613069785782,-0.287292,-0.471069,0.703125,0.448486
1480613069792801,-0.287109,-0.471252,0.703064,0.448486
1480613069815863,-0.287109,-0.471252,0.703064,0.448486
1480613069838423,-0.28717,-0.471252,0.703064,0.448486
1480613069866999,-0.28717,-0.471252,0.703064,0.448486
1480613069879030,-0.28717,-0.471252,0.703064,0.448425
1480613069898584,-0.287292,-0.471375,0.703003,0.448364
1480613069913122,-0.287292,-0.471375,0.703003,0.448364
1480613069936183,-0.287231,-0.471252,0.703064,0.448425
1480613069965261,-0.287231,-0.471252,0.703064,0.448425
1480613069976290,-0.287415,-0.471313,0.703125,0.448181
1480613070009377,-0.287415,-0.471313,0.703125,0.448181
1480613070018402,-0.287354,-0.471069,0.703247,0.448242
1480613070039458,-0.287354,-0.471069,0.703247,0.448303
1480613070065026,-0.287354,-0.471069,0.703247,0.448303
1480613070079564,-0.287354,-0.47113,0.703247,0.448303
1480613070107138,-0.287109,-0.47113,0.703125,0.448547
1480613070116161,-0.287048,-0.471252,0.702942,0.44873
1480613070146743,-0.287048,-0.471313,0.702942,0.44873
1480613070159778,-0.287048,-0.471252,0.702759,0.449036
1480613070183844,-0.287231,-0.471069,0.702637,0.44928
1480613070198883,-0.287415,-0.471008,0.702576,0.449341
1480613070219437,-0.287415,-0.471191,0.702454,0.449402
1480613070241997,-0.287231,-0.471375,0.702332,0.449463
1480613070259041,-0.286987,-0.471313,0.702454,0.449524
1480613070279596,-0.286926,-0.471069,0.702637,0.449524
1480613070296141,-0.28717,-0.471313,0.702576,0.449219
1480613070319703,-0.28717,-0.471313,0.702576,0.449219
1480613070339756,-0.286987,-0.471069,0.702759,0.44928
1480613070355799,-0.287048,-0.470764,0.703003,0.449219
1480613070378359,-0.287292,-0.470764,0.703003,0.449036
1480613070399917,-0.287415,-0.470581,0.703125,0.448914
1480613070415960,-0.28717,-0.470093,0.703491,0.449036
1480613070438519,-0.286804,-0.469727,0.703796,0.449158
1480613070459575,-0.28656,-0.46936,0.704163,0.449158
1480613070476119,-0.286499,-0.468872,0.704529,0.449097
1480613070500184,-0.28656,-0.468567,0.704651,0.449097
1480613070526753,-0.286743,-0.468445,0.704773,0.449036
1480613070537783,-0.286865,-0.468384,0.704895,0.448792
1480613070565860,-0.286865,-0.468262,0.705017,0.44873
1480613070580898,-0.286804,-0.468262,0.705017,0.44873
1480613070595938,-0.286865,-0.468628,0.704895,0.448608
1480613070618999,-0.286926,-0.468933,0.704712,0.448486
1480613070641560,-0.286804,-0.469238,0.704651,0.448364
1480613070655600,-0.286499,-0.469482,0.704651,0.448303
1480613070678662,-0.286255,-0.469666,0.704651,0.448242
1480613070701222,-0.286133,-0.469849,0.704651,0.44812
1480613070739319,-0.28595,-0.46991,0.704773,0.447998
1480613070741325,-0.285583,-0.469849,0.704895,0.448059
1480613070761879,-0.285461,-0.469971,0.705017,0.447876
1480613070775416,-0.285522,-0.470215,0.705017,0.447571
1480613070804492,-0.285522,-0.470215,0.705017,0.447571
1480613070821037,-0.285522,-0.470215,0.704956,0.447571
1480613070835576,-0.285461,-0.470398,0.704956,0.447449
1480613070858637,-0.285278,-0.470642,0.704956,0.447327
1480613070888717,-0.285095,-0.470764,0.705017,0.447205
1480613070897240,-0.285095,-0.470764,0.705017,0.447205
1480613070919799,-0.285095,-0.470825,0.705017,0.447205
1480613070941859,-0.285034,-0.470703,0.705078,0.447266
1480613070956397,-0.284729,-0.47052,0.705261,0.447327
1480613070978456,-0.284729,-0.47052,0.705261,0.447327
1480613071001019,-0.284485,-0.470337,0.705444,0.447388
1480613071022071,-0.28418,-0.470337,0.705627,0.447327
1480613071038615,-0.283997,-0.470581,0.705627,0.447144
1480613071061176,-0.283691,-0.471069,0.70575,0.446716
1480613071082232,-0.282959,-0.470886,0.706055,0.446838
1480613071098777,-0.282837,-0.471191,0.705933,0.446777
1480613071128354,-0.283081,-0.471436,0.705872,0.446472
1480613071141890,-0.283264,-0.471497,0.705811,0.44635
1480613071158434,-0.283325,-0.471497,0.705811,0.44635
1480613071181998,-0.283203,-0.471497,0.70575,0.446472
1480613071203054,-0.283325,-0.471802,0.705627,0.44635
1480613071218595,-0.283447,-0.472473,0.705322,0.446045
1480613071241155,-0.283203,-0.472656,0.705261,0.446045
1480613071262210,-0.282959,-0.472778,0.7052,0.446228
1480613071278755,-0.282959,-0.473083,0.705017,0.446106
1480613071307331,-0.28302,-0.473511,0.704834,0.445984
1480613071322371,-0.283203,-0.473816,0.704712,0.44574
1480613071339416,-0.283203,-0.473816,0.704651,0.44574
1480613071361475,-0.283386,-0.473938,0.704529,0.44574
1480613071389551,-0.283569,-0.474304,0.704224,0.445679
1480613071398697,-0.283752,-0.474548,0.703979,0.44574
1480613071421133,-0.283936,-0.474854,0.703796,0.445679
1480613071443694,-0.284119,-0.475037,0.703613,0.445557
1480613071458733,-0.284424,-0.475159,0.703491,0.445496
1480613071481294,-0.284668,-0.475281,0.703308,0.445435
1480613071503352,-0.284851,-0.475464,0.703125,0.445435
1480613071542456,-0.28479,-0.475403,0.703125,0.445435
1480613071546968,-0.28479,-0.475403,0.703125,0.445435
1480613071587576,-0.284973,-0.475464,0.703003,0.445496
1480613071593091,-0.285095,-0.47522,0.703064,0.445679
1480613071601116,-0.285095,-0.474976,0.703064,0.445801
1480613071631193,-0.285095,-0.474976,0.703064,0.445801
1480613071637710,-0.285095,-0.474976,0.703064,0.445801
1480613071662275,-0.285034,-0.47522,0.702942,0.445862
1480613071683835,-0.284912,-0.475586,0.702698,0.445923
1480613071697870,-0.284668,-0.475586,0.702698,0.446045
1480613071720931,-0.284729,-0.475098,0.70282,0.446289
1480613071743491,-0.285156,-0.474731,0.702881,0.44635
1480613071758029,-0.285522,-0.474487,0.702942,0.44635
1480613071781091,-0.285522,-0.474487,0.702942,0.44635
1480613071819694,-0.285583,-0.474487,0.702942,0.44635
1480613071824707,-0.285583,-0.474487,0.702942,0.446289
1480613071864814,-0.285583,-0.474487,0.702942,0.446289
1480613071869827,-0.285767,-0.474548,0.703003,0.445984
1480613071877848,-0.285828,-0.474548,0.703003,0.445984
1480613071914446,-0.285828,-0.474548,0.703003,0.445984
1480613071923470,-0.285767,-0.474548,0.703003,0.445984
1480613071946030,-0.285767,-0.474609,0.702942,0.445984
1480613071961070,-0.285767,-0.474609,0.702942,0.445984
1480613072006691,-0.285706,-0.475098,0.702637,0.446045
1480613072009198,-0.285583,-0.475647,0.702271,0.446106
1480613072022734,-0.285339,-0.475952,0.702148,0.446106
1480613072057827,-0.285156,-0.476074,0.702148,0.446045
1480613072071865,-0.284973,-0.476196,0.702209,0.446045
1480613072096931,-0.285034,-0.476379,0.702209,0.445801
1480613072103449,-0.285156,-0.476624,0.702087,0.445557
1480613072142553,-0.284973,-0.47644,0.702271,0.445557
1480613072148067,-0.28479,-0.476257,0.702454,0.445679
1480613072163609,-0.284912,-0.47644,0.702332,0.445557
1480613072192184,-0.284973,-0.476746,0.702209,0.445435
1480613072207726,-0.284973,-0.476746,0.702209,0.445435
1480613072239311,-0.284973,-0.476501,0.702332,0.445435
1480613072244826,-0.284973,-0.476501,0.702332,0.445435
1480613072283929,-0.285156,-0.476746,0.702148,0.445374
1480613072286436,-0.285156,-0.476807,0.702148,0.445374
1480613072304483,-0.285095,-0.476807,0.702148,0.445374
1480613072328547,-0.285278,-0.476624,0.702209,0.445313
1480613072343587,-0.285461,-0.476563,0.702148,0.445374
1480613072366148,-0.285706,-0.476685,0.701965,0.445435
1480613072381187,-0.285767,-0.47699,0.701782,0.445313
1480613072426808,-0.285767,-0.47699,0.701782,0.445313
1480613072428815,-0.285339,-0.476501,0.702148,0.445496
1480613072440846,-0.285461,-0.476929,0.702026,0.44519
1480613072469422,-0.285645,-0.477234,0.701782,0.445129
1480613072485967,-0.285706,-0.476807,0.701904,0.445313
1480613072516046,-0.286011,-0.476868,0.701782,0.445313
1480613072523566,-0.286133,-0.476624,0.701782,0.445496
1480613072546127,-0.286316,-0.476624,0.701477,0.445862
1480613072560164,-0.28656,-0.47699,0.701111,0.445862
1480613072584228,-0.286438,-0.477051,0.700928,0.446167
1480613072607794,-0.286377,-0.477051,0.700867,0.446289
1480613072620325,-0.286743,-0.477234,0.700745,0.446045
1480613072649401,-0.286804,-0.477173,0.700745,0.446045
1480613072665945,-0.287109,-0.476807,0.700867,0.446045
1480613072694521,-0.287292,-0.47644,0.700989,0.446167
1480613072703545,-0.287415,-0.476013,0.70105,0.446411
1480613072750670,-0.287598,-0.475769,0.701111,0.446533
1480613072754681,-0.287598,-0.475769,0.701111,0.446472
1480613072763706,-0.287659,-0.475952,0.70105,0.446289
1480613072794788,-0.287537,-0.475891,0.701233,0.446228
1480613072806819,-0.287292,-0.475769,0.701538,0.446045
1480613072840910,-0.287231,-0.475647,0.701782,0.445801
1480613072847428,-0.287415,-0.475525,0.701965,0.445557
1480613072861465,-0.287598,-0.475525,0.701965,0.445374
1480613072883525,-0.287537,-0.475342,0.702087,0.445435
1480613072921625,-0.287537,-0.475037,0.702332,0.445374
1480613072929647,-0.287537,-0.474976,0.702515,0.445129
1480613072943684,-0.287537,-0.474854,0.702698,0.445007
1480613072967250,-0.287476,-0.474854,0.702698,0.445068
1480613072987300,-0.28717,-0.474792,0.702759,0.445251
1480613073011364,-0.286926,-0.474792,0.70282,0.445313
1480613073025903,-0.286926,-0.474792,0.70282,0.445313
1480613073054479,-0.286926,-0.474792,0.70282,0.445251
1480613073073028,-0.286987,-0.474792,0.70282,0.445251
1480613073086063,-0.286804,-0.474792,0.702759,0.445435
1480613073116143,-0.286804,-0.474854,0.702759,0.445435
1480613073123162,-0.286804,-0.474792,0.702759,0.445435
1480613073161764,-0.28656,-0.47467,0.703003,0.445313
1480613073167282,-0.286194,-0.474243,0.70343,0.445374
1480613073183823,-0.286194,-0.474243,0.70343,0.445374
1480613073207386,-0.286011,-0.474487,0.703308,0.445374
1480613073226937,-0.285767,-0.474487,0.70343,0.445313
1480613073257017,-0.285461,-0.474548,0.703552,0.445313
1480613073267547,-0.285217,-0.474365,0.703796,0.445313
1480613073288101,-0.285278,-0.474304,0.703796,0.445251
1480613073304644,-0.285278,-0.474304,0.703796,0.445251
1480613073339739,-0.285156,-0.474182,0.703918,0.445313
1480613073348762,-0.285156,-0.474182,0.703918,0.445313
1480613073363301,-0.285156,-0.474182,0.703918,0.445313
1480613073387365,-0.284912,-0.474243,0.703979,0.445313
1480613073408921,-0.284668,-0.474304,0.704041,0.445313
1480613073429476,-0.284485,-0.474304,0.704102,0.445313
1480613073446522,-0.284485,-0.474304,0.704102,0.445313
1480613073476101,-0.284485,-0.474304,0.704102,0.445313
1480613073491140,-0.284546,-0.474304,0.704102,0.445313
1480613073531247,-0.284546,-0.474365,0.704102,0.445313
1480613073535258,-0.284241,-0.474304,0.704224,0.445251
1480613073551300,-0.28418,-0.474365,0.704346,0.445007
1480613073579375,-0.284241,-0.474548,0.704407,0.444702
1480613073588900,-0.284119,-0.474731,0.704407,0.44458
1480613073610959,-0.283752,-0.474792,0.70459,0.44458
1480613073626003,-0.283386,-0.475037,0.704651,0.444458
1480613073664603,-0.283203,-0.475464,0.704651,0.444031
1480613073667111,-0.282959,-0.475403,0.704895,0.443909
1480613073686159,-0.282959,-0.475403,0.704895,0.443909
1480613073716243,-0.282959,-0.475403,0.704895,0.443909
1480613073722756,-0.282959,-0.475403,0.704895,0.443909
1480613073753339,-0.282959,-0.475403,0.704895,0.443909
1480613073769381,-0.282898,-0.475464,0.704956,0.443726
1480613073815002,-0.282898,-0.475525,0.704956,0.443726
1480613073819514,-0.282776,-0.475647,0.704773,0.443848
1480613073859120,-0.282715,-0.475708,0.704773,0.443909
1480613073861625,-0.282776,-0.475708,0.704773,0.443848
1480613073868145,-0.282776,-0.475647,0.704773,0.443848
1480613073889201,-0.282715,-0.475403,0.704956,0.44397
1480613073909754,-0.282654,-0.475403,0.704956,0.44397
1480613073925796,-0.282654,-0.475403,0.704956,0.44397
1480613073948357,-0.282532,-0.475342,0.705017,0.444031
1480613073969413,-0.282532,-0.475098,0.705139,0.444153
1480613073993476,-0.282654,-0.474487,0.705444,0.444092
1480613074008517,-0.282654,-0.474182,0.705627,0.444153
1480613074031077,-0.282898,-0.474182,0.705566,0.444153
1480613074046116,-0.282898,-0.474182,0.705566,0.444153
1480613074084219,-0.282837,-0.474548,0.705322,0.444153
1480613074097755,-0.282593,-0.474609,0.705261,0.444397
1480613074106278,-0.28241,-0.474304,0.705261,0.444885
1480613074135354,-0.282715,-0.474182,0.705139,0.444946
1480613074149395,-0.282776,-0.474182,0.705139,0.444946
1480613074173456,-0.282776,-0.474182,0.705139,0.444946
1480613074190000,-0.282776,-0.474182,0.705139,0.444946
1480613074209552,-0.282898,-0.474426,0.704956,0.444885
1480613074226096,-0.283142,-0.474304,0.705017,0.444824
1480613074248656,-0.283386,-0.474487,0.704895,0.444519
1480613074269714,-0.283386,-0.474487,0.704895,0.444519
1480613074286255,-0.28302,-0.474304,0.705139,0.444641
1480613074308816,-0.282959,-0.474243,0.705139,0.444641
1480613074330875,-0.282959,-0.474365,0.7052,0.444458
1480613074370480,-0.28302,-0.47467,0.705139,0.444214
1480613074374992,-0.283203,-0.474915,0.705078,0.44397
1480613074404069,-0.283203,-0.474915,0.705078,0.44397
1480613074416101,-0.282898,-0.474609,0.705017,0.444519
1480613074428634,-0.28302,-0.474487,0.704956,0.444702
1480613074458715,-0.28302,-0.474548,0.704956,0.444702
1480613074472250,-0.28302,-0.474548,0.704895,0.444763
1480613074494812,-0.283142,-0.474731,0.704773,0.444702
1480613074511856,-0.282959,-0.474609,0.704712,0.445007
1480613074531909,-0.282898,-0.474182,0.704956,0.445129
1480613074548453,-0.282898,-0.474182,0.704956,0.445129
1480613074586053,-0.282959,-0.474182,0.704956,0.445129
1480613074588560,-0.282959,-0.474182,0.704956,0.445068
1480613074608614,-0.28302,-0.474243,0.704895,0.445068
1480613074648219,-0.28302,-0.474243,0.705017,0.444885
1480613074652229,-0.28302,-0.474304,0.705078,0.444702
1480613074691333,-0.283142,-0.474792,0.704834,0.444519
1480613074693840,-0.283264,-0.475098,0.704529,0.444519
1480613074711888,-0.283142,-0.474976,0.704651,0.44458
1480613074734449,-0.282776,-0.474915,0.704773,0.444641
1480613074750995,-0.282776,-0.475159,0.704712,0.444458
1480613074765531,-0.282776,-0.475159,0.704712,0.444458
1480613074789093,-0.282593,-0.475098,0.704773,0.444641
1480613074819173,-0.282471,-0.474854,0.704895,0.444702
1480613074832210,-0.28241,-0.474731,0.705017,0.444702
1480613074849759,-0.282471,-0.474731,0.705017,0.444702
1480613074884848,-0.282471,-0.474792,0.705017,0.444702
1480613074917434,-0.282532,-0.47467,0.705078,0.444702
1480613074938993,-0.282593,-0.474487,0.705139,0.444763
1480613074941498,-0.282776,-0.474548,0.705017,0.444641
1480613074970076,-0.282898,-0.474792,0.704895,0.44458
1480613074982107,-0.282898,-0.474792,0.704895,0.44458
1480613074990630,-0.282715,-0.474609,0.705017,0.444702
1480613075012186,-0.282715,-0.474609,0.705017,0.444702
1480613075028730,-0.282898,-0.474854,0.704895,0.444519
1480613075050789,-0.283203,-0.475159,0.704712,0.444336
1480613075080368,-0.283142,-0.474976,0.704712,0.444458
1480613075097417,-0.283203,-0.474976,0.704712,0.444458
1480613075111451,-0.283203,-0.475159,0.70459,0.444519
1480613075132507,-0.283203,-0.475159,0.70459,0.444519
1480613075154566,-0.283203,-0.475159,0.70459,0.444519
1480613075193169,-0.283203,-0.475098,0.70459,0.444458
1480613075203195,-0.283203,-0.475098,0.70459,0.444458
1480613075216234,-0.283325,-0.475098,0.704773,0.444153
1480613075230769,-0.283081,-0.474915,0.7052,0.443848
1480613075254331,-0.282898,-0.475342,0.705078,0.443726
1480613075276891,-0.282959,-0.475769,0.704834,0.443604
1480613075290928,-0.282898,-0.475952,0.704651,0.443787
1480613075321008,-0.282776,-0.476257,0.704468,0.443787
1480613075328027,-0.282593,-0.476501,0.704346,0.443787
1480613075352592,-0.282776,-0.47699,0.704102,0.443604
1480613075373648,-0.282837,-0.477356,0.703674,0.443726
1480613075387686,-0.28302,-0.477478,0.703369,0.444031
1480613075431803,-0.283264,-0.477722,0.703064,0.444092
1480613075443835,-0.283569,-0.478027,0.702881,0.443909
1480613075478929,-0.283691,-0.47821,0.702637,0.44397
1480613075481435,-0.283752,-0.478271,0.702515,0.444153
1480613075493467,-0.283997,-0.478149,0.702454,0.444153
1480613075516027,-0.284058,-0.47821,0.702332,0.444214
1480613075531069,-0.284241,-0.478271,0.702209,0.444214
1480613075553627,-0.284241,-0.478271,0.702209,0.444214
1480613075568169,-0.284363,-0.477966,0.702271,0.444397
1480613075591227,-0.284668,-0.477722,0.702209,0.44458
1480613075614791,-0.284668,-0.477722,0.702209,0.44458
1480613075627824,-0.284241,-0.477905,0.702148,0.444702
1480613075666930,-0.283813,-0.477539,0.702393,0.445068
1480613075673447,-0.283813,-0.477112,0.702637,0.445068
1480613075696507,-0.283936,-0.47699,0.702759,0.444946
1480613075711050,-0.284363,-0.477234,0.702515,0.444763
1480613075756667,-0.284668,-0.477417,0.702393,0.44458
1480613075759175,-0.284546,-0.477173,0.702576,0.444641
1480613075770708,-0.284363,-0.47699,0.702698,0.444763
1480613075794769,-0.284363,-0.47699,0.702698,0.444824
1480613075814823,-0.284363,-0.47699,0.702637,0.444763
1480613075838385,-0.284302,-0.476929,0.702759,0.444763
1480613075853425,-0.283997,-0.476685,0.703064,0.444702
1480613075882503,-0.283752,-0.476501,0.703308,0.444641
1480613075891024,-0.283691,-0.476501,0.703369,0.444702
1480613075914588,-0.283691,-0.476501,0.703369,0.444702
1480613075934643,-0.283508,-0.476379,0.703491,0.444702
1480613075951185,-0.283203,-0.476074,0.703857,0.444702
1480613075973745,-0.282959,-0.475952,0.704102,0.444519
1480613075994801,-0.282715,-0.475952,0.704285,0.444397
1480613076025884,-0.28241,-0.475708,0.704529,0.444397
1480613076033406,-0.282166,-0.475586,0.704773,0.444397
1480613076070001,-0.28186,-0.475342,0.705078,0.444275
1480613076083537,-0.281677,-0.47522,0.705322,0.444153
1480613076099581,-0.281677,-0.47522,0.705322,0.444153
1480613076114619,-0.281677,-0.475159,0.705383,0.444153
1480613076130161,-0.281494,-0.475037,0.705566,0.444092
1480613076154225,-0.281311,-0.475098,0.705688,0.44397
1480613076174780,-0.281128,-0.475281,0.705688,0.443909
1480613076190822,-0.281128,-0.475281,0.705688,0.443909
1480613076213382,-0.281128,-0.475159,0.705811,0.443909
1480613076266524,-0.281006,-0.475037,0.705994,0.443787
1480613076269030,-0.281067,-0.475037,0.706116,0.443542
1480613076275047,-0.281067,-0.475037,0.706116,0.443542
1480613076302118,-0.281006,-0.474609,0.706421,0.443542
1480613076311143,-0.280884,-0.474243,0.706665,0.443665
1480613076341724,-0.280823,-0.474243,0.706604,0.443726
1480613076356764,-0.280762,-0.474182,0.706665,0.443726
1480613076370801,-0.280518,-0.473999,0.706848,0.443848
1480613076399883,-0.280518,-0.473999,0.706848,0.443787
1480613076415922,-0.280457,-0.474243,0.706787,0.443726
1480613076430460,-0.280457,-0.474243,0.706787,0.443726
1480613076457532,-0.280334,-0.47406,0.706787,0.44397
1480613076491121,-0.280334,-0.47406,0.706787,0.44397
1480613076493630,-0.280334,-0.47406,0.706787,0.44397
1480613076535740,-0.280396,-0.47406,0.706787,0.44397
1480613076543761,-0.280212,-0.474182,0.706726,0.443909
1480613076550279,-0.279907,-0.474182,0.706787,0.444092
1480613076583368,-0.279907,-0.474243,0.706787,0.444092
1480613076595900,-0.279907,-0.474243,0.706787,0.444092
1480613076626984,-0.279968,-0.474243,0.706726,0.444092
1480613076633503,-0.279968,-0.474243,0.706726,0.444031
1480613076664082,-0.280029,-0.474243,0.706726,0.444031
1480613076671602,-0.279968,-0.474243,0.706787,0.444031
1480613076693660,-0.279968,-0.474182,0.706787,0.444031
1480613076730258,-0.279968,-0.474182,0.706787,0.444092
1480613076737277,-0.279968,-0.474182,0.706787,0.444092
1480613076777884,-0.279968,-0.474182,0.706787,0.444031
1480613076781897,-0.280029,-0.474182,0.706787,0.444031
1480613076804455,-0.280029,-0.474182,0.706787,0.444031
1480613076813479,-0.279968,-0.474182,0.706787,0.444031
1480613076851580,-0.279968,-0.474182,0.706787,0.444031
1480613076857598,-0.280029,-0.474243,0.706787,0.444031
1480613076879655,-0.279968,-0.474182,0.706787,0.444031
1480613076896200,-0.280029,-0.474243,0.706787,0.444031
1480613076917756,-0.280029,-0.474243,0.706787,0.444031
1480613076934300,-0.280029,-0.474243,0.706787,0.444031
1480613076956359,-0.280029,-0.474243,0.706787,0.444031
1480613076976914,-0.279907,-0.473938,0.70697,0.444153
1480613077000978,-0.279907,-0.473938,0.70697,0.444153
1480613077016021,-0.279907,-0.473938,0.70697,0.444153
1480613077046098,-0.279907,-0.473938,0.706909,0.444092
1480613077059633,-0.279968,-0.473938,0.706909,0.444092
1480613077083698,-0.279968,-0.473938,0.706909,0.444092
1480613077097235,-0.279907,-0.473938,0.70697,0.444092
1480613077138845,-0.279907,-0.473938,0.706909,0.444092
1480613077143356,-0.279968,-0.473938,0.706909,0.444092
1480613077173938,-0.279968,-0.473938,0.70697,0.444092
1480613077178951,-0.279968,-0.473938,0.70697,0.444092
1480613077195997,-0.280029,-0.473938,0.70697,0.444031
1480613077218557,-0.280029,-0.473877,0.70697,0.444031
1480613077233599,-0.280029,-0.473938,0.70697,0.444031
1480613077286738,-0.28009,-0.473877,0.707031,0.443909
1480613077289251,-0.28009,-0.473877,0.707031,0.443848
1480613077294759,-0.280151,-0.473877,0.707031,0.443848
1480613077323335,-0.280151,-0.473877,0.707031,0.443848
1480613077338375,-0.280273,-0.47406,0.70697,0.443726
1480613077353415,-0.280273,-0.47406,0.70697,0.443726
1480613077375975,-0.280273,-0.473755,0.707153,0.443726
1480613077407058,-0.280334,-0.473755,0.707153,0.443726
1480613077413074,-0.280334,-0.473755,0.707153,0.443726
1480613077436135,-0.280396,-0.473755,0.707153,0.443726
1480613077466216,-0.280396,-0.473755,0.707153,0.443665
1480613077473735,-0.280457,-0.473755,0.707153,0.443665
1480613077510834,-0.280457,-0.473694,0.707153,0.443665
1480613077518354,-0.280457,-0.473755,0.707153,0.443665
1480613077557460,-0.280396,-0.473694,0.707214,0.443665
1480613077561971,-0.280396,-0.473633,0.707214,0.443604
1480613077586536,-0.280579,-0.473877,0.707214,0.44342
1480613077602578,-0.280579,-0.473816,0.707214,0.44342
1480613077606589,-0.280518,-0.473816,0.707214,0.44342
1480613077622632,-0.280273,-0.473877,0.707275,0.44342
1480613077648701,-0.280151,-0.473999,0.707336,0.443298
1480613077662739,-0.280151,-0.474243,0.707336,0.443054
1480613077684296,-0.280151,-0.474243,0.707336,0.443054
1480613077703848,-0.28009,-0.474182,0.707397,0.443054
1480613077737939,-0.28009,-0.474121,0.707397,0.443054
1480613077742952,-0.280029,-0.474426,0.707275,0.442993
1480613077790077,-0.280029,-0.474426,0.707275,0.442993
1480613077794589,-0.280029,-0.474426,0.707275,0.442993
1480613077804115,-0.280029,-0.474548,0.707397,0.442749
1480613077833693,-0.279785,-0.474548,0.70752,0.442566
1480613077846731,-0.279724,-0.474915,0.707397,0.442505
1480613077861266,-0.279724,-0.475342,0.707214,0.442322
1480613077891346,-0.279724,-0.475342,0.707214,0.442322
1480613077915411,-0.279419,-0.475586,0.707275,0.4422
1480613077921426,-0.279297,-0.476074,0.707153,0.441895
1480613077960029,-0.279419,-0.476624,0.70697,0.441467
1480613077966664,-0.279419,-0.476624,0.70697,0.441467
1480613077989110,-0.279419,-0.476624,0.70697,0.441467
1480613078007656,-0.279602,-0.476624,0.706909,0.441467
1480613078026206,-0.279785,-0.476807,0.706726,0.441467
1480613078050269,-0.28009,-0.476929,0.706543,0.441406
1480613078063806,-0.280457,-0.476685,0.706482,0.441528
1480613078086365,-0.28009,-0.476685,0.706726,0.441406
1480613078111933,-0.279907,-0.476379,0.706909,0.441528
1480613078123965,-0.279968,-0.475769,0.707153,0.441772
1480613078148030,-0.280457,-0.475098,0.707214,0.442139
1480613078169086,-0.281067,-0.474792,0.70697,0.442383
1480613078185631,-0.281738,-0.475098,0.706543,0.442322
1480613078209192,-0.282104,-0.474731,0.706604,0.442383
1480613078221223,-0.282471,-0.474243,0.706848,0.442261
1480613078243784,-0.282776,-0.47406,0.706909,0.442139
1480613078266848,-0.282898,-0.473755,0.707031,0.4422
1480613078297928,-0.282959,-0.473572,0.707153,0.442261
1480613078303945,-0.283264,-0.473572,0.707031,0.4422
1480613078345555,-0.283447,-0.473389,0.707031,0.442261
1480613078350568,-0.283691,-0.473083,0.707153,0.442322
1480613078364106,-0.283875,-0.472961,0.707092,0.442322
1480613078386664,-0.283936,-0.473022,0.707092,0.442322
1480613078402706,-0.283875,-0.472961,0.707092,0.442322
1480613078423765,-0.283875,-0.473022,0.707092,0.442383
1480613078446323,-0.283936,-0.473022,0.707092,0.442322
1480613078470387,-0.283875,-0.472961,0.707031,0.442444
1480613078491443,-0.283691,-0.472839,0.707092,0.442627
1480613078518014,-0.28363,-0.473022,0.707092,0.442505
1480613078523028,-0.283386,-0.473267,0.707153,0.442261
1480613078544083,-0.28302,-0.473328,0.707397,0.442139
1480613078578676,-0.282837,-0.473267,0.707642,0.441895
1480613078584691,-0.282715,-0.473206,0.707764,0.441772
1480613078605246,-0.282654,-0.473328,0.707886,0.441589
1480613078626302,-0.282471,-0.47345,0.707947,0.441406
1480613078667411,-0.282288,-0.473328,0.708191,0.441284
1480613078671422,-0.282166,-0.473267,0.708374,0.44104
1480613078687464,-0.282104,-0.473389,0.708557,0.440735
1480613078703006,-0.281921,-0.47345,0.708679,0.440613
1480613078724061,-0.281677,-0.473511,0.708801,0.440491
1480613078749633,-0.281555,-0.473816,0.708679,0.44043
1480613078763167,-0.281555,-0.473816,0.708679,0.44043
1480613078794249,-0.281372,-0.473938,0.70874,0.440369
1480613078806281,-0.281006,-0.473938,0.708862,0.440369
1480613078822825,-0.280579,-0.473816,0.709045,0.440491
1480613078851401,-0.280457,-0.473877,0.709106,0.44043
1480613078866447,-0.280518,-0.474121,0.709045,0.440186
1480613078897523,-0.280457,-0.474121,0.709167,0.440002
1480613078904041,-0.280212,-0.473938,0.70929,0.440186
1480613078934125,-0.280151,-0.473938,0.70929,0.440186
1480613078944148,-0.28009,-0.474304,0.709106,0.440186
1480613078964202,-0.279663,-0.474365,0.709167,0.440186
1480613078986259,-0.279236,-0.474548,0.709106,0.440369
1480613079003305,-0.279236,-0.474792,0.708984,0.440369
1480613079027870,-0.279236,-0.474731,0.708984,0.440369
1480613079046419,-0.279236,-0.474731,0.709045,0.440369
1480613079079006,-0.279175,-0.474731,0.709045,0.440369
1480613079091539,-0.278992,-0.47467,0.708984,0.440674
1480613079123624,-0.278992,-0.47467,0.708984,0.440674
1480613079125630,-0.278992,-0.47467,0.708984,0.440674
1480613079143678,-0.278992,-0.474609,0.709045,0.440613
1480613079170249,-0.278931,-0.474365,0.709229,0.440613
1480613079184289,-0.278931,-0.474365,0.70929,0.440552
1480613079211358,-0.278992,-0.474365,0.70929,0.440552
1480613079226398,-0.278931,-0.474182,0.709412,0.440491
1480613079244447,-0.278748,-0.473938,0.709534,0.440674
1480613079263999,-0.278748,-0.474182,0.709473,0.440491
1480613079286558,-0.278809,-0.474365,0.709534,0.440186
1480613079311625,-0.278625,-0.474243,0.709717,0.440125
1480613079348222,-0.278687,-0.47406,0.7099,0.440002
1480613079350729,-0.278687,-0.47406,0.7099,0.440063
1480613079368778,-0.278687,-0.47406,0.7099,0.440002
1480613079387326,-0.278687,-0.474121,0.709839,0.440002
1480613079407881,-0.278687,-0.474121,0.7099,0.440002
1480613079428937,-0.278992,-0.474182,0.709839,0.439819
1480613079451497,-0.279053,-0.474304,0.709656,0.43988
1480613079466537,-0.278992,-0.474548,0.709412,0.440125
1480613079499628,-0.278748,-0.474792,0.709167,0.44043
1480613079505140,-0.278625,-0.474915,0.708984,0.440613
1480613079533715,-0.278564,-0.47522,0.70874,0.440735
1480613079548757,-0.278564,-0.475281,0.708679,0.440735
1480613079581343,-0.278503,-0.475098,0.708679,0.440979
1480613079586356,-0.278503,-0.475098,0.708679,0.440979
1480613079625961,-0.278564,-0.474915,0.708679,0.441162
1480613079628468,-0.27887,-0.474976,0.708557,0.441101
1480613079646515,-0.279114,-0.474976,0.708374,0.441162
1480613079670580,-0.279297,-0.47467,0.708557,0.441162
1480613079685621,-0.279358,-0.474731,0.708496,0.441162
1480613079722719,-0.27948,-0.474792,0.708496,0.440979
1480613079728735,-0.27948,-0.474792,0.708496,0.440979
1480613079746783,-0.27948,-0.474731,0.708557,0.440979
1480613079782878,-0.279541,-0.474731,0.708557,0.440979
1480613079788894,-0.279541,-0.474731,0.708557,0.440918
1480613079805443,-0.279541,-0.474731,0.708557,0.440918
1480613079826495,-0.279602,-0.474731,0.708496,0.440918
1480613079864095,-0.279419,-0.474792,0.708618,0.440796
1480613079874623,-0.279419,-0.474854,0.708618,0.440857
1480613079911721,-0.27948,-0.475037,0.708496,0.440735
1480613079915233,-0.279419,-0.475037,0.708496,0.440735
1480613079925758,-0.279724,-0.475342,0.708252,0.440613
1480613079955338,-0.279907,-0.475708,0.708069,0.440491
1480613079968878,-0.279907,-0.475708,0.708008,0.440491
1480613079986922,-0.279907,-0.475708,0.708008,0.440491
1480613080006473,-0.279846,-0.475708,0.708069,0.440491
1480613080029033,-0.279846,-0.475708,0.708069,0.440491
1480613080054099,-0.279846,-0.475708,0.708008,0.440491
1480613080066135,-0.279907,-0.475708,0.708008,0.440491
1480613080088692,-0.279907,-0.475708,0.708069,0.440491
1480613080106740,-0.28009,-0.475891,0.707825,0.440491
1480613080142839,-0.280029,-0.475891,0.707825,0.440491
1480613080148855,-0.280029,-0.475952,0.707825,0.440491
1480613080189962,-0.280334,-0.475891,0.707764,0.44043
1480613080193972,-0.280823,-0.475769,0.707764,0.440308
1480613080209012,-0.28125,-0.475525,0.707947,0.440002
1480613080235583,-0.281372,-0.475098,0.708252,0.439819
1480613080250122,-0.281372,-0.474854,0.708435,0.439819
1480613080270175,-0.281555,-0.47467,0.708435,0.439941
1480613080286719,-0.281616,-0.474548,0.708374,0.440063
1480613080306271,-0.281616,-0.474548,0.708374,0.440063
1480613080328831,-0.281494,-0.474548,0.708496,0.439941
1480613080346889,-0.281372,-0.474609,0.708618,0.439819
1480613080366437,-0.281433,-0.474609,0.708618,0.439819
1480613080391999,-0.281433,-0.474609,0.708618,0.439819
1480613080423082,-0.281433,-0.474609,0.708557,0.439819
1480613080434112,-0.281311,-0.474426,0.708679,0.439941
1480613080456169,-0.281372,-0.474426,0.708679,0.43988
1480613080472714,-0.281494,-0.474609,0.708618,0.439697
1480613080511819,-0.281555,-0.47467,0.708557,0.439697
1480613080517333,-0.281494,-0.47467,0.708557,0.439697
1480613080526857,-0.281494,-0.474609,0.708557,0.439758
1480613080546409,-0.281494,-0.47467,0.708557,0.439758
1480613080568971,-0.281494,-0.47467,0.708557,0.439758
1480613080599554,-0.281494,-0.47467,0.708557,0.439697
1480613080607573,-0.281494,-0.47467,0.708557,0.439697
1480613080629130,-0.281494,-0.47467,0.708557,0.439697
1480613080652692,-0.281433,-0.474487,0.708679,0.439758
1480613080667732,-0.281433,-0.474487,0.708679,0.439758
1480613080702324,-0.281433,-0.474487,0.708679,0.439758
1480613080719370,-0.281433,-0.474487,0.708679,0.439758
1480613080743935,-0.281494,-0.474487,0.708679,0.439758
1480613080748949,-0.281494,-0.474487,0.708679,0.439758
1480613080773018,-0.281311,-0.474243,0.708801,0.43988
1480613080790559,-0.281311,-0.474243,0.708801,0.43988
1480613080809108,-0.281311,-0.474243,0.708801,0.43988
1480613080842197,-0.281372,-0.474243,0.708801,0.43988
1480613080847711,-0.281372,-0.474243,0.708801,0.43988
1480613080868767,-0.281372,-0.474243,0.708801,0.439819
1480613080891329,-0.281433,-0.474243,0.708801,0.439819
1480613080907872,-0.281433,-0.474243,0.708801,0.439819
1480613080931937,-0.281433,-0.474243,0.708862,0.439819
1480613080951490,-0.281433,-0.474243,0.708862,0.439819
1480613080974049,-0.281433,-0.474243,0.708862,0.439819
1480613081021173,-0.281433,-0.474182,0.708862,0.439819
1480613081028191,-0.28125,-0.474426,0.708801,0.439819
1480613081030699,-0.281128,-0.474487,0.708801,0.439697
1480613081048746,-0.280762,-0.474487,0.708862,0.43988
1480613081071306,-0.280457,-0.474548,0.708862,0.440063
1480613081089856,-0.280457,-0.474854,0.70874,0.439941
1480613081108907,-0.280396,-0.474976,0.708801,0.439636
1480613081131466,-0.280457,-0.475098,0.708923,0.439392
1480613081149515,-0.280334,-0.475037,0.709106,0.439209
1480613081169074,-0.28009,-0.474976,0.709229,0.43927
1480613081191626,-0.279724,-0.475342,0.709229,0.439026
1480613081209173,-0.279297,-0.475891,0.709229,0.438782
1480613081228725,-0.27887,-0.476196,0.709473,0.438293
1480613081251286,-0.278931,-0.476624,0.709534,0.437744
1480613081283873,-0.278809,-0.476807,0.709351,0.437866
1480613081290389,-0.278625,-0.477112,0.70929,0.437683
1480613081311445,-0.278809,-0.478149,0.709106,0.436829
1480613081353056,-0.278564,-0.478882,0.709167,0.436035
1480613081357567,-0.278198,-0.47876,0.709412,0.436035
1480613081371606,-0.278381,-0.478699,0.709351,0.436035
1480613081389152,-0.27887,-0.478882,0.709106,0.435913
1480613081409207,-0.279236,-0.479126,0.708984,0.435547
1480613081431264,-0.279297,-0.479187,0.708984,0.435547
1480613081449312,-0.279175,-0.478882,0.709106,0.43573
1480613081485415,-0.279297,-0.47876,0.708984,0.435974
1480613081498951,-0.279663,-0.479126,0.708557,0.435974
1480613081509473,-0.28009,-0.479248,0.708435,0.435852
1480613081529024,-0.280151,-0.478882,0.70874,0.43573
1480613081561611,-0.28009,-0.478516,0.708984,0.435791
1480613081569132,-0.280212,-0.478149,0.709106,0.435913
1480613081590187,-0.280334,-0.478088,0.708923,0.436157
1480613081612747,-0.280396,-0.477966,0.708862,0.43634
1480613081629291,-0.280273,-0.477661,0.709045,0.436523
1480613081656362,-0.280396,-0.477478,0.709106,0.436462
1480613081671403,-0.280212,-0.477661,0.708862,0.436768
1480613081689451,-0.280579,-0.478088,0.708435,0.436768
1480613081719531,-0.280701,-0.478271,0.70813,0.437012
1480613081731564,-0.280457,-0.477844,0.70813,0.437683
1480613081751617,-0.280273,-0.477661,0.707886,0.438293
1480613081776182,-0.280212,-0.477356,0.707642,0.439087
1480613081808270,-0.280334,-0.476746,0.707703,0.439636
1480613081810774,-0.28064,-0.475952,0.708008,0.439758
1480613081855393,-0.281433,-0.476013,0.708008,0.43927
1480613081861910,-0.281799,-0.475525,0.708252,0.439087
1480613081873942,-0.281982,-0.474976,0.708435,0.43927
1480613081896504,-0.282227,-0.47467,0.708557,0.439331
1480613081911542,-0.282288,-0.47467,0.708496,0.439331
1480613081934102,-0.28241,-0.475098,0.708435,0.438904
1480613081951649,-0.282532,-0.475403,0.708496,0.438416
1480613081971201,-0.282288,-0.475464,0.708801,0.437927
1480613081989248,-0.281982,-0.475769,0.709167,0.437317
1480613082011809,-0.281128,-0.476868,0.70929,0.436401
1480613082031363,-0.279846,-0.477295,0.709534,0.43634
1480613082049409,-0.279724,-0.477905,0.709045,0.436523
1480613082082496,-0.28064,-0.478577,0.708618,0.435974
1480613082091521,-0.281433,-0.479004,0.708069,0.435791
1480613082136648,-0.281555,-0.478516,0.708313,0.435913
1480613082148172,-0.281555,-0.478699,0.708252,0.435852
1480613082152685,-0.281372,-0.479126,0.70813,0.435669
1480613082177249,-0.281006,-0.478882,0.708252,0.435913
1480613082191787,-0.281433,-0.479248,0.708008,0.435669
1480613082227884,-0.28186,-0.479553,0.707703,0.435547
1480613082233899,-0.281921,-0.479553,0.707703,0.435547
1480613082251949,-0.281982,-0.479736,0.707397,0.435852
1480613082271502,-0.282227,-0.479858,0.707031,0.436096
1480613082294059,-0.282593,-0.479675,0.706909,0.436279
1480613082311606,-0.282898,-0.479492,0.706848,0.43634
1480613082331660,-0.282715,-0.479126,0.707214,0.436218
1480613082361238,-0.282227,-0.478943,0.707397,0.436523
1480613082371766,-0.282043,-0.478333,0.707581,0.437012
1480613082400342,-0.282593,-0.477661,0.707886,0.436951
1480613082413878,-0.283081,-0.477234,0.708008,0.436768
1480613082465014,-0.283691,-0.477539,0.707947,0.436218
1480613082469528,-0.283997,-0.477112,0.70813,0.436157
1480613082474038,-0.284302,-0.476624,0.70813,0.436401
1480613082491585,-0.284851,-0.476501,0.708008,0.436462
1480613082512644,-0.28479,-0.476563,0.708008,0.436462
1480613082535202,-0.284729,-0.47644,0.707947,0.436768
1480613082552249,-0.284668,-0.476318,0.707886,0.437012
1480613082578820,-0.284729,-0.476379,0.707642,0.437256
1480613082601379,-0.284973,-0.476379,0.707397,0.437439
1480613082611906,-0.285278,-0.476074,0.707336,0.437744
1480613082634467,-0.285583,-0.475708,0.707275,0.438049
1480613082654018,-0.285767,-0.475281,0.707275,0.438354
1480613082679585,-0.286011,-0.474731,0.707458,0.438599
1480613082692621,-0.286072,-0.474121,0.707581,0.438965
1480613082721195,-0.286316,-0.473267,0.707886,0.43927
1480613082731724,-0.286499,-0.47229,0.70813,0.439819
1480613082752780,-0.286804,-0.471313,0.708374,0.440247
1480613082784364,-0.287231,-0.470398,0.708618,0.440491
1480613082791884,-0.287415,-0.469299,0.708923,0.44104
1480613082818956,-0.287354,-0.467834,0.709412,0.441895
1480613082833998,-0.287598,-0.466736,0.709778,0.442322
1480613082852045,-0.288208,-0.466553,0.709778,0.442139
1480613082874102,-0.288757,-0.466492,0.709656,0.441956
1480613082910700,-0.289001,-0.466125,0.709778,0.442078
1480613082913207,-0.289063,-0.465942,0.709656,0.442383
1480613082934263,-0.289001,-0.466003,0.709473,0.442627
1480613082961334,-0.289063,-0.466614,0.709106,0.442566
1480613082973366,-0.289246,-0.467651,0.708496,0.442383
1480613083007457,-0.289185,-0.468262,0.708069,0.442383
1480613083013975,-0.288879,-0.468384,0.708008,0.442627
1480613083032023,-0.288635,-0.468445,0.707947,0.442749
1480613083060599,-0.288635,-0.468567,0.707947,0.442627
1480613083073633,-0.288879,-0.469177,0.707581,0.442383
1480613083099704,-0.289063,-0.469482,0.707458,0.4422
1480613083114244,-0.289063,-0.469482,0.707397,0.4422
1480613083141313,-0.289124,-0.469482,0.707397,0.4422
1480613083151846,-0.289185,-0.469727,0.707397,0.441895
1480613083195959,-0.289124,-0.469971,0.707397,0.44165
1480613083198465,-0.289063,-0.470398,0.707336,0.441406
1480613083212001,-0.28894,-0.470947,0.707214,0.441162
1480613083249602,-0.288574,-0.471313,0.707092,0.441162
1480613083253612,-0.28833,-0.471741,0.706909,0.441101
1480613083293217,-0.288086,-0.472168,0.706726,0.441101
1480613083295725,-0.287964,-0.472778,0.706482,0.440918
1480613083313772,-0.28772,-0.473145,0.706421,0.440796
1480613083339340,-0.287415,-0.473267,0.70636,0.440918
1480613083354380,-0.28717,-0.473328,0.70636,0.441101
1480613083381452,-0.28717,-0.473328,0.706299,0.441101
1480613083391980,-0.287231,-0.473328,0.706299,0.441101
1480613083415041,-0.287109,-0.473267,0.706482,0.440979
1480613083444120,-0.286865,-0.472961,0.706787,0.44104
1480613083457655,-0.286682,-0.472656,0.707031,0.44104
1480613083480215,-0.286682,-0.472656,0.707031,0.44104
1480613083527841,-0.286682,-0.472595,0.707214,0.440796
1480613083533360,-0.28656,-0.472351,0.70752,0.440613
1480613083535864,-0.286438,-0.472168,0.707703,0.440552
1480613083572963,-0.286316,-0.471985,0.707886,0.440613
1480613083577976,-0.286194,-0.471863,0.708008,0.440552
1480613083596525,-0.28595,-0.471802,0.708191,0.440613
1480613083615074,-0.285645,-0.471741,0.708374,0.440552
1480613083631630,-0.2854,-0.471558,0.708557,0.440552
1480613083654178,-0.285461,-0.471558,0.708557,0.440552
1480613083675234,-0.2854,-0.471741,0.708557,0.44043
1480613083704313,-0.285156,-0.471741,0.708618,0.44043
1480613083714338,-0.28479,-0.47168,0.708801,0.44043
1480613083735395,-0.284485,-0.471741,0.708923,0.44043
1480613083756449,-0.284485,-0.47168,0.708923,0.44043
1480613083794552,-0.284363,-0.471619,0.709167,0.440247
1480613083804577,-0.284058,-0.471619,0.70929,0.440186
1480613083816610,-0.283813,-0.471558,0.709473,0.440063
1480613083859224,-0.283691,-0.471619,0.709595,0.439941
1480613083864739,-0.283447,-0.47168,0.709656,0.43988
1480613083876770,-0.283142,-0.471619,0.709839,0.43988
1480613083894317,-0.282959,-0.471558,0.710022,0.439819
1480613083916876,-0.282898,-0.471619,0.710083,0.439636
1480613083936434,-0.282837,-0.471741,0.710144,0.439453
1480613083954978,-0.282715,-0.471802,0.710205,0.439392
1480613083981564,-0.282654,-0.471802,0.710205,0.439453
1480613083998596,-0.282593,-0.471802,0.710205,0.439453
1480613084015140,-0.282593,-0.471802,0.710205,0.439453
1480613084036696,-0.282593,-0.471802,0.710205,0.439453
1480613084082818,-0.28241,-0.47168,0.710327,0.439514
1480613084087832,-0.282166,-0.471863,0.710266,0.439575
1480613084096856,-0.281982,-0.472107,0.710144,0.439636
1480613084123927,-0.281799,-0.472412,0.710022,0.439636
1480613084134456,-0.281494,-0.472595,0.709961,0.439758
1480613084157517,-0.281372,-0.472717,0.709839,0.43988
1480613084176568,-0.281372,-0.472839,0.709778,0.439758
1480613084194114,-0.281433,-0.473145,0.709717,0.439575
1480613084216675,-0.281494,-0.473145,0.709717,0.439575
1480613084236227,-0.281494,-0.473145,0.709717,0.439575
1480613084260297,-0.281189,-0.473572,0.709778,0.439148
1480613084276835,-0.280334,-0.47345,0.710205,0.439148
1480613084296889,-0.279663,-0.473694,0.710205,0.43927
1480613084359053,-0.279602,-0.474304,0.710022,0.438965
1480613084360557,-0.279968,-0.474121,0.710205,0.43866
1480613084366072,-0.280396,-0.474121,0.710083,0.438538
1480613084374594,-0.280334,-0.473694,0.710205,0.438904
1480613084403672,-0.280212,-0.473633,0.710022,0.439331
1480613084417208,-0.28009,-0.474121,0.709778,0.439331
1480613084433250,-0.280212,-0.474548,0.709473,0.439209
1480613084456813,-0.280212,-0.474609,0.709412,0.439209
1480613084476866,-0.28064,-0.475159,0.709106,0.438843
1480613084495917,-0.28064,-0.475708,0.708923,0.438538
1480613084516472,-0.280334,-0.47583,0.708984,0.438538
1480613084537026,-0.280579,-0.475891,0.708984,0.438354
1480613084554573,-0.280945,-0.476196,0.70874,0.438171
1480613084576632,-0.281494,-0.476379,0.708557,0.437866
1480613084626765,-0.281799,-0.476196,0.708435,0.43811
1480613084638296,-0.28186,-0.475281,0.70874,0.438538
1480613084642807,-0.282227,-0.475037,0.708679,0.43866
1480613084673891,-0.282349,-0.475403,0.708374,0.438721
1480613084676400,-0.282043,-0.475525,0.708191,0.439087
1480613084695950,-0.281677,-0.475281,0.70813,0.439697
1480613084726030,-0.281433,-0.475098,0.708252,0.439758
1480613084733550,-0.281433,-0.475525,0.708252,0.439331
1480613084763630,-0.281433,-0.475647,0.708313,0.439087
1480613084779171,-0.281555,-0.475342,0.708496,0.439087
1480613084792707,-0.28186,-0.475403,0.708435,0.438904
1480613084815768,-0.281738,-0.475647,0.708496,0.43866
1480613084838328,-0.281616,-0.475647,0.708862,0.43811
1480613084852868,-0.281128,-0.475525,0.709229,0.437927
1480613084875932,-0.281067,-0.475891,0.708984,0.437988
1480613084898492,-0.281189,-0.476501,0.708435,0.438171
1480613084919551,-0.28125,-0.476624,0.70813,0.438538
1480613084935593,-0.281372,-0.476929,0.707886,0.438416
1480613084958654,-0.281555,-0.477356,0.707825,0.437988
1480613084972692,-0.281738,-0.4776,0.707825,0.437561
1480613084995754,-0.282043,-0.477295,0.70813,0.437256
1480613085018313,-0.282654,-0.476807,0.708374,0.437012
1480613085033855,-0.283203,-0.476257,0.708557,0.436951
1480613085056414,-0.283386,-0.475586,0.70874,0.437195
1480613085079476,-0.283508,-0.475647,0.708496,0.4375
1480613085100063,-0.283569,-0.475952,0.70813,0.437683
1480613085116073,-0.283508,-0.476074,0.708008,0.437805
1480613085138633,-0.283508,-0.476624,0.707825,0.4375
1480613085153172,-0.283386,-0.477051,0.707703,0.437317
1480613085190771,-0.282959,-0.477051,0.707764,0.437561
1480613085198292,-0.282776,-0.476746,0.707825,0.437866
1480613085213834,-0.283081,-0.476807,0.707642,0.437866
1480613085235892,-0.283569,-0.476929,0.707458,0.437744
1480613085258953,-0.283997,-0.476868,0.707336,0.437744
1480613085279508,-0.283875,-0.476624,0.707336,0.438049
1480613085297056,-0.283691,-0.476257,0.70752,0.438232
1480613085325130,-0.283386,-0.476013,0.707703,0.438416
1480613085339668,-0.283264,-0.476135,0.707703,0.438354
1480613085363231,-0.283142,-0.47644,0.707581,0.438293
1480613085388297,-0.282837,-0.476501,0.707581,0.438477
1480613085416372,-0.282532,-0.47644,0.70752,0.438843
1480613085431412,-0.282471,-0.47644,0.70752,0.438843
1480613085469513,-0.282471,-0.47644,0.70752,0.438843
1480613085484052,-0.282288,-0.476379,0.70752,0.439026
1480613085486559,-0.282043,-0.476257,0.707642,0.439148
1480613085512628,-0.282104,-0.476257,0.707642,0.439148
1480613085527668,-0.282104,-0.476257,0.707642,0.439148
1480613085543210,-0.282104,-0.476257,0.707642,0.439148
1480613085558250,-0.282104,-0.476257,0.707642,0.439148
1480613085579306,-0.282104,-0.476257,0.707581,0.439148
1480613085595851,-0.282104,-0.476257,0.707581,0.439148
1480613085618410,-0.282104,-0.476257,0.707581,0.439148
1480613085656511,-0.282166,-0.476257,0.707581,0.439087
1480613085659018,-0.282166,-0.476257,0.707581,0.439087
1480613085702132,-0.282166,-0.476257,0.707581,0.439087
1480613085707145,-0.282166,-0.476257,0.707581,0.439087
1480613085739732,-0.282166,-0.476257,0.707581,0.439087
1480613085744745,-0.282166,-0.476257,0.707581,0.439087
1480613085769311,-0.282166,-0.476318,0.707581,0.439087
1480613085776831,-0.282166,-0.476318,0.707581,0.439087
1480613085798392,-0.282166,-0.476318,0.707581,0.439087
1480613085820950,-0.282471,-0.476318,0.707581,0.438965
1480613085835488,-0.282471,-0.476318,0.707581,0.438965
1480613085866574,-0.282227,-0.476074,0.707703,0.439087
1480613085881108,-0.282227,-0.475891,0.707825,0.439209
1480613085896150,-0.282593,-0.475891,0.707825,0.438965
1480613085929238,-0.282959,-0.476074,0.707703,0.43866
1480613085969344,-0.28302,-0.475891,0.707825,0.43866
1480613085980874,-0.282837,-0.475647,0.707947,0.438843
1480613085985385,-0.282837,-0.475647,0.707947,0.438904
1480613086017475,-0.282837,-0.475586,0.707947,0.438904
1480613086021983,-0.282837,-0.475586,0.707947,0.438843
1480613086038527,-0.282654,-0.475403,0.708191,0.438843
1480613086061088,-0.28241,-0.475098,0.708435,0.438965
1480613086082143,-0.28241,-0.475098,0.708435,0.438965
1480613086105706,-0.282654,-0.47522,0.708374,0.438721
1480613086120745,-0.282593,-0.475037,0.708557,0.43866
1480613086159349,-0.282471,-0.474731,0.708862,0.438538
1480613086164364,-0.282349,-0.47467,0.709045,0.438416
1480613086180908,-0.282471,-0.47467,0.709167,0.438171
1480613086201963,-0.282654,-0.474792,0.709229,0.437805
1480613086218506,-0.28241,-0.474792,0.70929,0.437805
1480613086247082,-0.282043,-0.474731,0.709412,0.437866
1480613086262122,-0.281677,-0.474915,0.709412,0.437988
1480613086293205,-0.281677,-0.474915,0.709412,0.437988
1480613086301226,-0.281677,-0.474915,0.709412,0.437988
1480613086322783,-0.281616,-0.474792,0.709534,0.437988
1480613086338325,-0.281433,-0.474609,0.709656,0.43811
1480613086360885,-0.281433,-0.474548,0.709656,0.438049
1480613086381940,-0.281433,-0.474609,0.709656,0.438049
1480613086398487,-0.281433,-0.474487,0.709778,0.437988
1480613086421045,-0.281311,-0.474426,0.7099,0.437927
1480613086442101,-0.281372,-0.474426,0.7099,0.437927
1480613086458645,-0.28125,-0.47467,0.7099,0.437805
1480613086481209,-0.281067,-0.474976,0.7099,0.437439
1480613086501760,-0.280518,-0.475281,0.710205,0.437012
1480613086518804,-0.27948,-0.475342,0.710449,0.437134
1480613086540864,-0.279114,-0.475647,0.71051,0.437012
1480613086570944,-0.279297,-0.475891,0.710449,0.436707
1480613086578464,-0.279358,-0.475891,0.710449,0.436707
1480613086616565,-0.279358,-0.475952,0.710449,0.436707
1480613086623584,-0.279358,-0.475952,0.710449,0.436707
1480613086644639,-0.27948,-0.476379,0.710205,0.436523
1480613086661685,-0.279541,-0.47699,0.709717,0.436523
1480613086683242,-0.279419,-0.477234,0.709595,0.436584
1480613086713323,-0.27948,-0.477234,0.709595,0.436584
1480613086720842,-0.279663,-0.477417,0.709534,0.436401
1480613086745407,-0.279663,-0.477417,0.709534,0.436401
1480613086767968,-0.280029,-0.477295,0.709412,0.436462
1480613086789028,-0.280334,-0.477051,0.709412,0.436523
1480613086803562,-0.280334,-0.477051,0.709412,0.436523
1480613086817599,-0.280579,-0.477051,0.709473,0.436279
1480613086841163,-0.280884,-0.477112,0.709473,0.435974
1480613086863723,-0.281189,-0.477234,0.709351,0.435852
1480613086877760,-0.281494,-0.477234,0.709229,0.435852
1480613086900821,-0.281738,-0.477234,0.709106,0.435974
1480613086931405,-0.282043,-0.477234,0.708984,0.435913
1480613086937920,-0.282288,-0.477234,0.708801,0.436096
1480613086960984,-0.282593,-0.477234,0.708618,0.436096
1480613086989558,-0.282654,-0.477295,0.708618,0.436096
1480613086997579,-0.282654,-0.477295,0.708618,0.436096
1480613087035680,-0.282715,-0.477295,0.708435,0.436279
1480613087044704,-0.28302,-0.477478,0.708008,0.436523
1480613087057739,-0.283386,-0.477783,0.707703,0.436523
1480613087082805,-0.283569,-0.477905,0.70752,0.436584
1480613087118901,-0.283569,-0.477905,0.707458,0.436707
1480613087124917,-0.28363,-0.477844,0.707275,0.436951
1480613087140960,-0.283569,-0.4776,0.707153,0.4375
1480613087170539,-0.283691,-0.477539,0.706909,0.437866
1480613087184576,-0.283875,-0.477539,0.706726,0.438049
1480613087207137,-0.283997,-0.477905,0.706482,0.438049
1480613087223680,-0.283875,-0.477722,0.706421,0.438354
1480613087259777,-0.284058,-0.477478,0.706482,0.438416
1480613087268298,-0.284302,-0.4776,0.706299,0.438354
1480613087284843,-0.284668,-0.477478,0.706177,0.438416
1480613087311914,-0.285095,-0.477295,0.706116,0.438538
1480613087320938,-0.285339,-0.477112,0.706055,0.438599
1480613087344502,-0.2854,-0.476868,0.706177,0.438721
1480613087364555,-0.285583,-0.476624,0.706238,0.438721
1480613087381600,-0.285828,-0.47644,0.706299,0.438721
1480613087404662,-0.285767,-0.475952,0.706482,0.438904
1480613087424214,-0.285828,-0.475952,0.706482,0.438904
1480613087442261,-0.285767,-0.475952,0.706482,0.438904
1480613087463320,-0.285583,-0.476013,0.706482,0.438965
1480613087484374,-0.285645,-0.476074,0.706421,0.438965
1480613087501419,-0.285461,-0.476013,0.706543,0.438965
1480613087523478,-0.2854,-0.475891,0.706665,0.438965
1480613087546038,-0.2854,-0.475891,0.706665,0.438965
1480613087561579,-0.285339,-0.475952,0.706604,0.438965
1480613087583637,-0.285339,-0.475952,0.706604,0.439026
1480613087605696,-0.285278,-0.476074,0.706665,0.438843
1480613087627755,-0.285278,-0.476074,0.706665,0.438843
1480613087644300,-0.285278,-0.476074,0.706665,0.438843
1480613087666358,-0.285278,-0.476074,0.706665,0.438843
1480613087681902,-0.285278,-0.476074,0.706665,0.438843
1480613087703958,-0.285095,-0.476013,0.706848,0.438721
1480613087726016,-0.284973,-0.475708,0.707153,0.438599
1480613087740054,-0.285095,-0.475647,0.707275,0.438416
1480613087779159,-0.285034,-0.475647,0.707275,0.438416
1480613087786177,-0.285095,-0.475647,0.707275,0.438416
1480613087800214,-0.285034,-0.475708,0.707275,0.438416
1480613087823275,-0.284851,-0.475891,0.707214,0.438416
1480613087845836,-0.284668,-0.476013,0.707214,0.438416
1480613087866891,-0.284607,-0.476013,0.707214,0.438416
1480613087883937,-0.284607,-0.476013,0.707214,0.438416
1480613087906998,-0.284668,-0.476013,0.707214,0.438416
1480613087920032,-0.284668,-0.476013,0.707214,0.438416
1480613087944598,-0.284668,-0.476013,0.707214,0.438416
1480613087972173,-0.284668,-0.476013,0.707214,0.438416
1480613087986709,-0.284607,-0.476013,0.707214,0.438416
1480613088003755,-0.284607,-0.476074,0.707092,0.438538
1480613088025814,-0.284607,-0.476135,0.707092,0.438538
1480613088047879,-0.284607,-0.476135,0.707092,0.438538
1480613088063915,-0.284668,-0.476135,0.707092,0.438538
1480613088091993,-0.284668,-0.476135,0.707092,0.438538
1480613088107030,-0.284607,-0.476135,0.707092,0.438538
1480613088124075,-0.284607,-0.476074,0.707092,0.438538
1480613088146135,-0.284546,-0.476013,0.707214,0.438477
1480613088167692,-0.284668,-0.476074,0.707275,0.438171
1480613088192257,-0.28479,-0.476196,0.707275,0.437988
1480613088205793,-0.28479,-0.476196,0.707275,0.437988
1480613088227350,-0.28479,-0.476196,0.707275,0.437988
1480613088243393,-0.284729,-0.476196,0.707275,0.438049
1480613088265953,-0.284729,-0.476196,0.707275,0.438049
1480613088289014,-0.284729,-0.476196,0.707275,0.438049
1480613088305057,-0.284729,-0.476196,0.707275,0.438049
1480613088326615,-0.284729,-0.476196,0.707275,0.438049
1480613088347170,-0.284729,-0.476196,0.707275,0.438049
1480613088377249,-0.284729,-0.476257,0.707275,0.438049
1480613088385771,-0.284729,-0.476257,0.707275,0.438049
1480613088406829,-0.284668,-0.476257,0.707275,0.438049
1480613088424876,-0.284729,-0.476257,0.707275,0.438049
1480613088445933,-0.284729,-0.476257,0.707275,0.438049
1480613088466989,-0.284729,-0.476257,0.707275,0.438049
1480613088484033,-0.284729,-0.476196,0.707275,0.438049
1480613088513611,-0.284668,-0.476196,0.707275,0.438049
1480613088528652,-0.284607,-0.47644,0.707214,0.438049
1480613088567255,-0.284607,-0.47644,0.707153,0.438049
1480613088571767,-0.284607,-0.47644,0.707153,0.438049
1480613088604356,-0.284607,-0.47644,0.707153,0.438049
1480613088609367,-0.284668,-0.476685,0.70697,0.43811
1480613088625911,-0.284546,-0.477051,0.706848,0.437927
1480613088648972,-0.284485,-0.477417,0.706787,0.437683
1480613088663511,-0.284485,-0.477722,0.706604,0.437622
1480613088686070,-0.284607,-0.478149,0.706421,0.437378
1480613088709134,-0.284729,-0.478394,0.706299,0.437317
1480613088731694,-0.284912,-0.478516,0.706177,0.437195
1480613088746231,-0.284912,-0.479065,0.705933,0.437012
1480613088775810,-0.284912,-0.479431,0.705811,0.436829
1480613088782828,-0.284851,-0.479431,0.705811,0.436829
1480613088806390,-0.284973,-0.479492,0.705933,0.436462
1480613088843489,-0.285217,-0.479736,0.705872,0.436218
1480613088845998,-0.285217,-0.479736,0.705872,0.436218
1480613088866051,-0.285278,-0.479919,0.70575,0.436157
1480613088888609,-0.285278,-0.480225,0.705688,0.435974
1480613088902646,-0.285217,-0.480225,0.70575,0.435791
1480613088934231,-0.285217,-0.480225,0.70575,0.435852
1480613088948268,-0.285217,-0.480164,0.70575,0.435852
1480613088969826,-0.285217,-0.480225,0.70575,0.435852
1480613088985868,-0.285522,-0.48053,0.705566,0.435486
1480613089008427,-0.285522,-0.48053,0.705566,0.435486
1480613089029486,-0.285522,-0.48053,0.705566,0.435486
1480613089052050,-0.285522,-0.48053,0.705627,0.435547
1480613089068588,-0.285522,-0.480896,0.705322,0.435547
1480613089089143,-0.285706,-0.481079,0.705139,0.435486
1480613089107191,-0.285706,-0.48114,0.705139,0.435425
1480613089128247,-0.28595,-0.481079,0.705078,0.435364
1480613089166350,-0.286377,-0.481262,0.704773,0.435425
1480613089168855,-0.286621,-0.481384,0.704529,0.435547
1480613089194423,-0.286682,-0.481567,0.704346,0.435608
1480613089209463,-0.286926,-0.481812,0.704224,0.435425
1480613089226007,-0.28717,-0.481934,0.704102,0.435303
1480613089248567,-0.287476,-0.481934,0.704041,0.435242
1480613089270126,-0.28772,-0.482056,0.703796,0.435242
1480613089287171,-0.287659,-0.482056,0.703796,0.435303
1480613089308226,-0.287842,-0.482239,0.703735,0.435181
1480613089338306,-0.288025,-0.482422,0.703613,0.435059
1480613089353346,-0.288086,-0.482239,0.703613,0.43512
1480613089368385,-0.288086,-0.482239,0.703613,0.43512
1480613089389442,-0.288147,-0.482239,0.703613,0.43512
1480613089405987,-0.288147,-0.482239,0.703613,0.43512
1480613089428546,-0.288269,-0.482361,0.703613,0.434937
1480613089449602,-0.288147,-0.482422,0.703552,0.434998
1480613089466648,-0.287964,-0.482544,0.70343,0.435242
1480613089488204,-0.28772,-0.482544,0.703369,0.435425
1480613089510765,-0.287598,-0.482666,0.703308,0.435486
1480613089533325,-0.287292,-0.482483,0.703491,0.435669
1480613089548866,-0.286865,-0.4823,0.703552,0.436035
1480613089579948,-0.286255,-0.482056,0.703674,0.436462
1480613089586466,-0.285645,-0.481812,0.703857,0.436829
1480613089614542,-0.285217,-0.481873,0.703918,0.436951
1480613089631086,-0.285095,-0.48175,0.703979,0.437073
1480613089645122,-0.285217,-0.481201,0.704285,0.437134
1480613089669186,-0.2854,-0.480469,0.704773,0.437012
1480613089690743,-0.285339,-0.47998,0.705139,0.43689
1480613089705282,-0.285217,-0.479614,0.705505,0.43689
1480613089728846,-0.284851,-0.479187,0.705872,0.437012
1480613089758423,-0.284424,-0.478882,0.706177,0.437134
1480613089765443,-0.283875,-0.478821,0.70636,0.437195
1480613089788503,-0.283203,-0.479004,0.706543,0.437134
1480613089811063,-0.282654,-0.479065,0.706787,0.437134
1480613089848162,-0.282166,-0.478882,0.70697,0.437256
1480613089857688,-0.281921,-0.479004,0.707092,0.437195
1480613089871725,-0.281799,-0.479004,0.707153,0.437073
1480613089899299,-0.281494,-0.478821,0.707397,0.437134
1480613089908824,-0.281433,-0.478638,0.707581,0.437012
1480613089944919,-0.281494,-0.478699,0.707703,0.436768
1480613089953442,-0.281494,-0.478943,0.707703,0.436523
1480613089968483,-0.280945,-0.479004,0.707825,0.436584
1480613089998562,-0.280457,-0.479004,0.707886,0.436768
1480613090019618,-0.280151,-0.479431,0.707703,0.43689
1480613090044185,-0.279907,-0.479614,0.707703,0.436768
1480613090051705,-0.279663,-0.479797,0.707764,0.436646
1480613090079277,-0.279297,-0.479553,0.707886,0.436951
1480613090089806,-0.279297,-0.479553,0.707886,0.436951
1480613090124396,-0.279297,-0.479736,0.707703,0.436951
1480613090134925,-0.279358,-0.479797,0.707703,0.436951
1480613090171522,-0.278992,-0.479553,0.707886,0.437073
1480613090174030,-0.278687,-0.479431,0.708069,0.437073
1480613090192579,-0.278503,-0.479675,0.708191,0.436829
1480613090214637,-0.278198,-0.479248,0.708496,0.436951
1480613090231182,-0.277893,-0.479126,0.70874,0.43689
1480613090251735,-0.277771,-0.479187,0.708984,0.436523
1480613090275800,-0.278015,-0.479065,0.709106,0.43634
1480613090290840,-0.278381,-0.47937,0.70874,0.436279
1480613090311896,-0.278503,-0.478821,0.709045,0.436401
1480613090328440,-0.278503,-0.478821,0.709045,0.436401
1480613090351501,-0.278442,-0.479187,0.708923,0.436218
1480613090371555,-0.278442,-0.479187,0.708862,0.436218
1480613090388600,-0.278564,-0.479431,0.708801,0.436096
1480613090411163,-0.278625,-0.479858,0.708618,0.435791
1480613090439234,-0.278687,-0.480225,0.708679,0.435364
1480613090457282,-0.278564,-0.480103,0.708862,0.435242
1480613090471822,-0.278503,-0.480103,0.708862,0.435242
1480613090494882,-0.278748,-0.480347,0.708496,0.435364
1480613090508419,-0.278381,-0.480652,0.708435,0.435364
1480613090531480,-0.277588,-0.480774,0.708374,0.435791
1480613090554541,-0.276672,-0.479492,0.709106,0.436646
1480613090567576,-0.276489,-0.478088,0.709778,0.437195
1480613090590637,-0.277222,-0.477722,0.710022,0.436829
1480613090613702,-0.27771,-0.477966,0.709961,0.43634
1480613090641773,-0.277832,-0.478271,0.709778,0.436157
1480613090650797,-0.277832,-0.478271,0.709839,0.436096
1480613090673858,-0.277893,-0.477844,0.710022,0.436218
1480613090687896,-0.278442,-0.477844,0.710022,0.435852
1480613090710958,-0.278931,-0.478088,0.7099,0.435547
1480613090734019,-0.279175,-0.478149,0.709778,0.435486
1480613090755576,-0.279358,-0.47821,0.709595,0.435608
1480613090770616,-0.279419,-0.478088,0.709412,0.436035
1480613090793678,-0.279724,-0.477905,0.709229,0.436279
1480613090807715,-0.280273,-0.477966,0.708923,0.436401
1480613090834787,-0.280701,-0.478027,0.708679,0.436462
1480613090853336,-0.281067,-0.477905,0.708557,0.436523
1480613090867875,-0.281189,-0.477478,0.708618,0.436768
1480613090890936,-0.281311,-0.47699,0.708801,0.436951
1480613090913998,-0.281494,-0.476929,0.708862,0.436829
1480613090936056,-0.281494,-0.476929,0.708862,0.436829
1480613090951598,-0.281494,-0.476624,0.709045,0.43689
1480613090973656,-0.281433,-0.476379,0.709229,0.436829
1480613090996216,-0.281494,-0.476318,0.709229,0.436829
1480613091010756,-0.281433,-0.476318,0.709229,0.436829
1480613091040835,-0.281433,-0.476318,0.709229,0.436829
1480613091054372,-0.281128,-0.476318,0.70929,0.437073
1480613091076932,-0.281006,-0.476196,0.709351,0.437073
1480613091093475,-0.281006,-0.476501,0.709229,0.437073
1480613091114532,-0.281067,-0.476746,0.708984,0.437012
1480613091131076,-0.281067,-0.476807,0.708984,0.437012
1480613091153635,-0.280823,-0.476746,0.708984,0.437195
1480613091174691,-0.280823,-0.476746,0.708984,0.437195
1480613091198258,-0.280823,-0.47699,0.708862,0.437134
1480613091213800,-0.280823,-0.47699,0.708862,0.437134
1480613091242873,-0.280823,-0.47699,0.708862,0.437134
1480613091250894,-0.280823,-0.477051,0.708862,0.437134
1480613091288494,-0.280762,-0.477051,0.708862,0.437134
1480613091294510,-0.280762,-0.477051,0.708862,0.437134
1480613091311054,-0.280762,-0.477051,0.708862,0.437195
1480613091333615,-0.280701,-0.477051,0.708862,0.437195
1480613091354670,-0.280762,-0.477051,0.708862,0.437195
1480613091372718,-0.280762,-0.477051,0.708801,0.437134
1480613091393273,-0.280762,-0.477051,0.708801,0.437134
1480613091422350,-0.280762,-0.477051,0.708801,0.437134
1480613091432378,-0.280701,-0.477112,0.708801,0.437195
1480613091453934,-0.280701,-0.477112,0.708801,0.437195
1480613091476496,-0.280701,-0.477112,0.708801,0.437195
1480613091491033,-0.280701,-0.477112,0.708801,0.437195
1480613091521614,-0.280762,-0.477112,0.708801,0.437134
1480613091536654,-0.280823,-0.477051,0.708801,0.437134
1480613091564228,-0.280823,-0.477112,0.708801,0.437134
1480613091573753,-0.280823,-0.477112,0.708801,0.437134
1480613091596816,-0.280823,-0.476868,0.708862,0.437256
1480613091618372,-0.281189,-0.47699,0.708801,0.437073
1480613091633412,-0.281494,-0.477295,0.708557,0.436829
1480613091661989,-0.281494,-0.477295,0.708557,0.436829
1480613091670510,-0.281494,-0.477295,0.708557,0.436829
1480613091693165,-0.281494,-0.477295,0.708557,0.43689
1480613091715724,-0.281433,-0.477295,0.708557,0.43689
1480613091730263,-0.281433,-0.477295,0.708557,0.43689
1480613091754829,-0.281433,-0.477295,0.708618,0.43689
1480613091775884,-0.281494,-0.477295,0.708618,0.43689
1480613091797947,-0.281494,-0.477234,0.708618,0.436829
