timestamp,x,y,z
1480690430139803,0.268066,-0.518066,0.8125
1480690430144817,0.268555,-0.522949,0.808594
1480690430161361,0.270996,-0.520508,0.80957
1480690430183921,0.267578,-0.529297,0.808594
1480690430204480,0.260742,-0.541504,0.807617
1480690430221019,0.265137,-0.542969,0.810547
1480690430244081,0.263672,-0.539551,0.814453
1480690430272156,0.270508,-0.525391,0.8125
1480690430288702,0.273926,-0.515137,0.806152
1480690430303740,0.272461,-0.519043,0.805176
1480690430326298,0.266602,-0.533203,0.805664
1480690430341339,0.263672,-0.543945,0.810547
1480690430363900,0.265137,-0.544434,0.810059
1480690430384954,0.262207,-0.529297,0.809082
1480690430415034,0.271973,-0.516602,0.809082
1480690430429573,0.26709,-0.519043,0.805664
1480690430446117,0.27002,-0.529785,0.805176
1480690430461157,0.26709,-0.541992,0.807617
1480690430483717,0.266113,-0.547363,0.80957
1480690430505275,0.259766,-0.532715,0.807129
1480690430527337,0.266602,-0.523926,0.807129
1480690430543878,0.268066,-0.524902,0.813477
1480690430564933,0.266113,-0.526367,0.808594
1480690430580976,0.268555,-0.530273,0.806152
1480690430619580,0.26416,-0.538574,0.805664
1480690430624592,0.260742,-0.547363,0.8125
1480690430647152,0.260742,-0.540039,0.807617
1480690430663711,0.262207,-0.52002,0.8125
1480690430686257,0.274902,-0.517578,0.804688
1480690430701296,0.270996,-0.540039,0.800293
1480690430730373,0.266113,-0.540039,0.806641
1480690430745915,0.262207,-0.538086,0.807617
1480690430774491,0.260742,-0.54541,0.796387
1480690430783516,0.265137,-0.539063,0.811035
1480690430806075,0.26416,-0.519531,0.805664
1480690430827632,0.268066,-0.51709,0.80127
1480690430844176,0.275391,-0.538574,0.800781
1480690430866235,0.263184,-0.547363,0.807617
1480690430887292,0.26123,-0.550781,0.821777
1480690430909851,0.256836,-0.530762,0.820313
1480690430925893,0.257813,-0.533691,0.804688
1480690430940433,0.269531,-0.51416,0.811523
1480690430963494,0.266602,-0.53418,0.812012
1480690430994575,0.255371,-0.536621,0.814453
1480690431000593,0.26123,-0.532715,0.797363
1480690431023654,0.258789,-0.54834,0.803223
1480690431046715,0.26123,-0.543457,0.817871
1480690431060251,0.271973,-0.526855,0.802734
1480690431083814,0.26123,-0.512695,0.804199
1480690431106486,0.264648,-0.528809,0.803223
1480690431128432,0.269043,-0.547363,0.805664
1480690431144475,0.255371,-0.54834,0.807129
1480690431166032,0.262695,-0.534668,0.803223
1480690431188593,0.270996,-0.533203,0.806641
1480690431205135,0.264648,-0.522949,0.804688
1480690431233713,0.270508,-0.519531,0.806152
1480690431247248,0.268066,-0.536621,0.80127
1480690431271312,0.26416,-0.544434,0.805664
1480690431293871,0.27002,-0.547852,0.808594
1480690431306906,0.260254,-0.540039,0.803711
1480690431330971,0.273438,-0.513672,0.809082
1480690431347514,0.269043,-0.522949,0.795898
1480690431368070,0.265625,-0.539063,0.805664
1480690431385114,0.267578,-0.540527,0.798828
1480690431413691,0.265137,-0.540527,0.804688
1480690431434747,0.256836,-0.53418,0.808594
1480690431444773,0.268066,-0.531738,0.806641
1480690431466330,0.268066,-0.527344,0.799805
1480690431487387,0.26709,-0.524414,0.810059
1480690431503933,0.271484,-0.522949,0.808105
1480690431527493,0.258789,-0.541016,0.803711
1480690431548550,0.259766,-0.554199,0.797363
1480690431564090,0.262207,-0.524414,0.804199
1480690431586651,0.28418,-0.535645,0.819824
1480690431608709,0.237793,-0.525879,0.818848
1480690431623749,0.276855,-0.494629,0.791504
1480690431646309,0.267578,-0.534668,0.76709
1480690431668369,0.280762,-0.583496,0.813965
1480690431683909,0.269531,-0.575195,0.833496
1480690431706469,0.242676,-0.494629,0.794922
1480690431736048,0.269531,-0.485352,0.791504
1480690431744571,0.290039,-0.534668,0.807129
1480690431766128,0.264648,-0.573242,0.820313
1480690431803730,0.257813,-0.527832,0.809082
1480690431805733,0.26709,-0.53418,0.800781
1480690431826789,0.258301,-0.530273,0.804199
1480690431856368,0.27002,-0.536621,0.8125
1480690431879429,0.258301,-0.522461,0.80127
1480690431887454,0.286133,-0.528809,0.806641
1480690431908507,0.268555,-0.526855,0.809082
1480690431923045,0.258301,-0.54541,0.799805
1480690431946106,0.261719,-0.541992,0.803223
1480690431968666,0.266602,-0.547363,0.812012
1480690431983210,0.26123,-0.529785,0.810059
1480690432006271,0.26709,-0.505371,0.800781
1480690432028832,0.271484,-0.520508,0.807129
1480690432042869,0.268555,-0.548828,0.812988
1480690432080970,0.259766,-0.549316,0.803223
1480690432103531,0.255859,-0.525391,0.808594
1480690432134110,0.26416,-0.529297,0.808105
1480690432136621,0.27002,-0.528809,0.809082
1480690432162686,0.268066,-0.527832,0.8125
1480690432169705,0.26709,-0.521484,0.803711
1480690432186251,0.26416,-0.538574,0.808594
1480690432218336,0.262207,-0.539063,0.812012
1480690432230869,0.26123,-0.544922,0.804688
1480690432246410,0.265625,-0.530273,0.802734
1480690432269472,0.276367,-0.519043,0.805176
1480690432289524,0.271973,-0.526855,0.808105
1480690432306068,0.265137,-0.527832,0.80957
1480690432330633,0.261719,-0.541016,0.805664
1480690432358722,0.257324,-0.542969,0.807129
1480690432372244,0.26416,-0.539063,0.807617
1480690432388788,0.26709,-0.521484,0.807617
1480690432411349,0.272461,-0.518555,0.806152
1480690432442432,0.269531,-0.532715,0.803711
1480690432448948,0.267578,-0.528809,0.810547
1480690432469503,0.262207,-0.536621,0.806641
1480690432486047,0.258301,-0.540527,0.804688
1480690432508607,0.268066,-0.536621,0.809082
1480690432538688,0.266113,-0.522461,0.804688
1480690432546207,0.266602,-0.512695,0.802246
1480690432568767,0.268555,-0.531738,0.805176
1480690432591828,0.263672,-0.544434,0.808594
1480690432627424,0.263184,-0.548828,0.807617
1480690432636449,0.257813,-0.537598,0.810547
1480690432658505,0.262695,-0.526855,0.803711
1480690432666026,0.271484,-0.527344,0.80957
1480690432688585,0.268066,-0.520996,0.805664
1480690432711146,0.262207,-0.525391,0.800293
1480690432725183,0.260254,-0.544434,0.811035
1480690432748745,0.265137,-0.547852,0.810059
1480690432771306,0.263672,-0.537598,0.812012
1480690432785343,0.263672,-0.519531,0.807617
1480690432808404,0.270508,-0.517578,0.805176
1480690432830965,0.27002,-0.532715,0.803711
1480690432845503,0.265625,-0.54248,0.812988
1480690432869569,0.256836,-0.54834,0.807129
1480690432897641,0.266113,-0.537598,0.808594
1480690432913684,0.267578,-0.530762,0.809082
1480690432936244,0.269043,-0.516113,0.798828
1480690432968329,0.267578,-0.525391,0.806152
1480690432971839,0.266113,-0.535645,0.804688
1480690432997407,0.269043,-0.547363,0.803711
1480690433010942,0.260742,-0.541504,0.812988
1480690433033502,0.265625,-0.53418,0.807129
1480690433049545,0.267578,-0.533203,0.807129
1480690433071103,0.265625,-0.526855,0.807129
1480690433092661,0.266602,-0.525879,0.802734
1480690433108702,0.27002,-0.537598,0.805176
1480690433131263,0.261719,-0.540527,0.807617
1480690433159838,0.262695,-0.543457,0.807617
1480690433193428,0.258789,-0.536621,0.804688
1480690433197942,0.272949,-0.523438,0.808594
1480690433215487,0.271484,-0.523926,0.808594
1480690433228521,0.261719,-0.529297,0.803711
1480690433251081,0.26709,-0.540039,0.805664
1480690433272137,0.262207,-0.546875,0.809082
1480690433288681,0.262207,-0.547852,0.80957
1480690433311241,0.262695,-0.527832,0.8125
1480690433332297,0.271484,-0.521973,0.804199
1480690433355872,0.277832,-0.525391,0.806152
1480690433371401,0.268555,-0.535156,0.810547
1480690433391956,0.265137,-0.543945,0.805176
1480690433408513,0.260254,-0.541992,0.812988
1480690433438581,0.264648,-0.539551,0.808105
1480690433470165,0.265137,-0.520508,0.804688
1480690433491721,0.272461,-0.519531,0.805176
1480690433495230,0.268555,-0.529785,0.806641
1480690433521300,0.26709,-0.543457,0.808105
1480690433538345,0.261719,-0.543945,0.808105
1480690433550879,0.255859,-0.539063,0.806152
1480690433573438,0.26709,-0.530762,0.802246
1480690433588478,0.264648,-0.524902,0.805664
1480690433611038,0.270508,-0.524414,0.805176
1480690433633600,0.266113,-0.53125,0.800293
1480690433648137,0.263672,-0.541992,0.79834
1480690433686740,0.260742,-0.547852,0.801758
1480690433688244,0.266113,-0.541016,0.809082
1480690433699775,0.263672,-0.526367,0.801758
1480690433715316,0.271484,-0.519043,0.808105
1480690433745396,0.264648,-0.524414,0.806641
1480690433758931,0.26416,-0.536133,0.808105
1480690433781492,0.26123,-0.537598,0.808594
1480690433796532,0.263184,-0.543457,0.806152
1480690433822099,0.260254,-0.539063,0.804199
1480690433835636,0.265137,-0.523926,0.808594
1480690433856691,0.273438,-0.520508,0.803223
1480690433879253,0.26416,-0.532715,0.803711
1480690433898803,0.263672,-0.543457,0.806641
1480690433916350,0.263672,-0.549805,0.801758
1480690433938911,0.263672,-0.540527,0.806152
1480690433964479,0.268066,-0.52832,0.804199
1480690433976511,0.266113,-0.523438,0.804688
1480690434016117,0.27002,-0.520508,0.809082
1480690434019627,0.26416,-0.537109,0.811523
1480690434036676,0.259766,-0.54248,0.800293
1480690434059232,0.262695,-0.543945,0.80957
1480690434075273,0.266602,-0.537109,0.809082
1480690434096328,0.265137,-0.520508,0.803711
1480690434118890,0.270996,-0.522949,0.813965
1480690434136938,0.268555,-0.530273,0.807129
1480690434156489,0.268555,-0.537109,0.807617
1480690434179049,0.259766,-0.539063,0.810059
1480690434211635,0.259277,-0.536133,0.807617
1480690434216649,0.264648,-0.53418,0.807129
1480690434239209,0.269043,-0.524902,0.801758
1480690434261267,0.271484,-0.520508,0.809082
1480690434276307,0.269043,-0.532227,0.807617
1480690434301876,0.262207,-0.537109,0.803223
1480690434316916,0.26416,-0.543457,0.806152
1480690434336468,0.260254,-0.535645,0.805664
1480690434359027,0.265625,-0.529297,0.813965
1480690434381588,0.270508,-0.523926,0.806641
1480690434396627,0.273926,-0.513672,0.812988
1480690434426707,0.268555,-0.523438,0.806152
1480690434441246,0.26416,-0.538086,0.803711
1480690434463806,0.268066,-0.544922,0.808594
1480690434486366,0.265137,-0.537109,0.803223
1480690434509427,0.266602,-0.515625,0.811035
1480690434519455,0.271484,-0.509766,0.805176
1480690434549534,0.272461,-0.525391,0.808594
1480690434571593,0.267578,-0.537598,0.805176
1480690434578110,0.262695,-0.541992,0.802734
1480690434599167,0.265625,-0.530762,0.808594
1480690434621732,0.266602,-0.521973,0.819824
1480690434643784,0.268555,-0.519043,0.812012
1480690434658824,0.270996,-0.521484,0.808594
1480690434681384,0.272461,-0.522949,0.805176
1480690434696424,0.265137,-0.531738,0.807617
1480690434735529,0.265625,-0.538086,0.80957
1480690434741546,0.263672,-0.535645,0.808594
1480690434765609,0.27002,-0.51709,0.811523
1480690434795187,0.266113,-0.516113,0.803711
1480690434801704,0.269043,-0.51709,0.807129
1480690434823763,0.274902,-0.52832,0.80957
1480690434841811,0.266602,-0.540039,0.808105
1480690434861369,0.258789,-0.529785,0.807129
1480690434879912,0.266602,-0.526367,0.8125
1480690434898963,0.271973,-0.524414,0.812988
1480690434921523,0.265625,-0.52002,0.815918
1480690434936563,0.264648,-0.519531,0.806641
1480690434960126,0.266602,-0.529785,0.804688
1480690434990206,0.265137,-0.539551,0.811523
1480690434996222,0.262207,-0.535156,0.807129
1480690435023795,0.265625,-0.523926,0.813965
1480690435044350,0.266113,-0.520508,0.807617
1480690435072926,0.272949,-0.516602,0.811523
1480690435079443,0.269043,-0.525879,0.806641
1480690435104587,0.26709,-0.541504,0.811035
1480690435120052,0.258789,-0.543457,0.808105
1480690435139102,0.263184,-0.537109,0.814453
1480690435161661,0.262207,-0.51709,0.806641
1480690435179709,0.270508,-0.508789,0.806152
1480690435202773,0.273438,-0.520996,0.80127
1480690435221320,0.268555,-0.543457,0.806641
1480690435237864,0.262207,-0.546875,0.807617
1480690435269449,0.260254,-0.537109,0.812012
1480690435281481,0.265137,-0.523438,0.807129
1480690435298024,0.270508,-0.520996,0.810059
1480690435322089,0.27002,-0.522461,0.806641
1480690435341640,0.268066,-0.53125,0.810547
1480690435373726,0.260742,-0.544922,0.80957
1480690435380244,0.260742,-0.541504,0.806641
1480690435401298,0.266113,-0.529785,0.805176
1480690435425363,0.262207,-0.526367,0.806641
1480690435438900,0.268555,-0.514648,0.802246
1480690435461458,0.273926,-0.526367,0.811523
1480690435479508,0.260742,-0.53418,0.805664
1480690435499058,0.26416,-0.537598,0.803223
1480690435529138,0.262695,-0.543945,0.808105
1480690435544179,0.263672,-0.532715,0.806641
1480690435578270,0.269531,-0.517578,0.807129
1480690435583784,0.266113,-0.526367,0.80957
1480690435600329,0.266602,-0.531738,0.810059
1480690435618878,0.263672,-0.544434,0.807617
1480690435642942,0.258301,-0.547363,0.800293
1480690435659487,0.261719,-0.533203,0.811035
1480690435679037,0.262207,-0.526367,0.811035
1480690435701598,0.269043,-0.519043,0.802734
1480690435724158,0.269043,-0.52832,0.805664
1480690435739197,0.264648,-0.52832,0.805664
1480690435761276,0.260254,-0.539063,0.807617
1480690435792840,0.260254,-0.54541,0.8125
1480690435798856,0.264648,-0.538086,0.807129
1480690435824424,0.265137,-0.528809,0.807129
1480690435839464,0.270508,-0.517578,0.806641
1480690435860520,0.27002,-0.523926,0.805664
1480690435881576,0.265137,-0.538086,0.811035
1480690435907144,0.256348,-0.547363,0.810059
1480690435919176,0.26416,-0.539551,0.807129
1480690435941235,0.263184,-0.53125,0.80957
1480690435963795,0.269531,-0.520508,0.808105
1480690435978835,0.27002,-0.525391,0.808594
1480690436001395,0.260254,-0.535645,0.804688
1480690436023955,0.260254,-0.541016,0.810059
1480690436049523,0.258301,-0.545898,0.803711
1480690436069075,0.261719,-0.534668,0.805664
1480690436084115,0.26416,-0.531738,0.803223
1480690436102165,0.268066,-0.519043,0.807617
1480690436130237,0.267578,-0.525391,0.808105
1480690436144275,0.263184,-0.532227,0.802246
1480690436160317,0.263672,-0.538086,0.806641
1480690436181374,0.256836,-0.552734,0.805176
1480690436203938,0.260742,-0.543457,0.802246
1480690436220478,0.271484,-0.521484,0.806152
1480690436241534,0.26709,-0.519531,0.810547
1480690436264093,0.26416,-0.518555,0.804199
1480690436280638,0.262695,-0.538086,0.804688
1480690436301695,0.261719,-0.546387,0.804688
1480690436323751,0.26123,-0.542969,0.805176
1480690436346314,0.258789,-0.524414,0.805664
1480690436377896,0.26416,-0.510742,0.802734
1480690436400957,0.273438,-0.519531,0.80957
1480690436403464,0.257813,-0.52832,0.811523
1480690436424519,0.259277,-0.541504,0.810059
1480690436444072,0.257324,-0.537598,0.797852
1480690436462120,0.260742,-0.531738,0.804688
1480690436482674,0.260254,-0.523438,0.803223
1480690436505234,0.263672,-0.51123,0.80957
1480690436521778,0.265137,-0.505371,0.804199
1480690436541330,0.260742,-0.527832,0.803223
1480690436571410,0.255371,-0.535156,0.812988
1480690436605501,0.251465,-0.539551,0.812988
1480690436617032,0.252441,-0.526855,0.814453
1480690436632586,0.25,-0.514648,0.803223
1480690436658141,0.237793,-0.520508,0.80957
1480690436664157,0.235352,-0.53125,0.805176
1480690436684212,0.22998,-0.537598,0.800781
1480690436701759,0.231445,-0.540527,0.789063
1480690436721310,0.234375,-0.545898,0.808594
1480690436744872,0.231445,-0.532715,0.799805
1480690436761917,0.237793,-0.508789,0.790527
1480690436781469,0.244629,-0.507324,0.785156
1480690436804030,0.223633,-0.555176,0.812012
1480690436822077,0.209961,-0.580566,0.814453
1480690436849149,0.219238,-0.570313,0.806152
1480690436882237,0.223145,-0.547852,0.793457
1480690436886251,0.214844,-0.527832,0.783203
1480690436904296,0.20752,-0.554199,0.798828
1480690436931368,0.187012,-0.582031,0.801758
1480690436942397,0.185059,-0.611816,0.80127
1480690436962952,0.191895,-0.61084,0.79834
1480690436984008,0.182617,-0.621094,0.8125
1480690437002057,0.17627,-0.611328,0.806152
1480690437023112,0.186523,-0.592285,0.795898
1480690437044168,0.195313,-0.591309,0.800293
1480690437064222,0.195313,-0.595215,0.793457
1480690437099314,0.191895,-0.607422,0.795898
1480690437104329,0.183105,-0.619629,0.79248
1480690437129395,0.184082,-0.626465,0.788086
1480690437148946,0.17627,-0.629395,0.789551
1480690437163987,0.171387,-0.632324,0.811523
1480690437183037,0.173828,-0.631348,0.804688
1480690437210610,0.185059,-0.616699,0.801758
1480690437231666,0.17627,-0.623535,0.796387
1480690437242712,0.185059,-0.619141,0.788574
1480690437262750,0.202148,-0.61084,0.779297
1480690437284306,0.188965,-0.610352,0.780762
1480690437301853,0.174805,-0.61084,0.79541
1480690437324415,0.174316,-0.60791,0.791992
1480690437354995,0.17334,-0.609375,0.786621
1480690437363015,0.174316,-0.604004,0.781738
1480690437384572,0.177734,-0.59082,0.781738
1480690437404130,0.189453,-0.590332,0.772461
1480690437426684,0.192383,-0.595703,0.769531
1480690437445234,0.182129,-0.588379,0.76416
1480690437463783,0.193359,-0.581543,0.753418
1480690437487851,0.195801,-0.588379,0.754395
1480690437504391,0.194336,-0.588379,0.754395
1480690437523943,0.192871,-0.589844,0.76416
1480690437546503,0.187012,-0.590332,0.759766
1480690437566556,0.195801,-0.593262,0.76416
1480690437584103,0.191406,-0.59375,0.771973
1480690437606663,0.179688,-0.60498,0.77832
1480690437624211,0.177246,-0.613281,0.778809
1480690437645266,0.173828,-0.620605,0.78418
1480690437666324,0.164063,-0.618652,0.779785
1480690437686380,0.168945,-0.611328,0.771973
1480690437703922,0.172363,-0.606934,0.762207
1480690437726482,0.168945,-0.623047,0.754883
1480690437744530,0.163086,-0.640137,0.742676
1480690437764084,0.166992,-0.64502,0.742188
1480690437786643,0.157715,-0.645996,0.746094
1480690437820733,0.158203,-0.655273,0.740234
1480690437825245,0.160645,-0.657715,0.753906
1480690437849309,0.15918,-0.667969,0.75293
1480690437877885,0.150879,-0.676758,0.755371
1480690437883901,0.144531,-0.689453,0.758301
1480690437906461,0.145508,-0.681152,0.759766
1480690437924509,0.141602,-0.671387,0.750488
1480690437947069,0.139648,-0.663086,0.745117
1480690437967123,0.14209,-0.655273,0.745605
1480690437990183,0.140137,-0.667969,0.739746
1480690438005223,0.149902,-0.683594,0.740234
1480690438043325,0.151367,-0.693848,0.744629
1480690438048338,0.141113,-0.695801,0.739746
1480690438074407,0.145508,-0.687988,0.745117
1480690438086442,0.142578,-0.676758,0.747559
1480690438104488,0.130371,-0.673828,0.745605
1480690438127047,0.126465,-0.674805,0.738281
1480690438154122,0.125488,-0.671387,0.751953
1480690438170163,0.126953,-0.671875,0.74707
1480690438187208,0.129395,-0.667969,0.740723
1480690438206761,0.134766,-0.668945,0.728027
1480690438227314,0.145508,-0.660156,0.710938
1480690438245363,0.149902,-0.666992,0.704102
1480690438269430,0.155762,-0.66748,0.702637
1480690438288979,0.158691,-0.67334,0.710938
1480690438307027,0.149414,-0.697754,0.723145
1480690438326579,0.145508,-0.69873,0.739258
1480690438349138,0.154297,-0.696289,0.756836
1480690438372701,0.152344,-0.696289,0.759277
1480690438393756,0.143555,-0.688477,0.776367
1480690438404285,0.131348,-0.688965,0.777832
1480690438431357,0.125,-0.687012,0.769043
1480690438446396,0.12793,-0.668945,0.756348
1480690438464445,0.128906,-0.646484,0.755371
1480690438487005,0.134277,-0.640625,0.754883
1480690438514076,0.136719,-0.648926,0.753418
1480690438524605,0.134766,-0.660156,0.737305
1480690438547666,0.143555,-0.65625,0.731934
1480690438566215,0.139648,-0.647949,0.725586
1480690438584263,0.141602,-0.634277,0.72168
1480690438606824,0.14502,-0.615723,0.731934
1480690438626375,0.157715,-0.635254,0.730957
1480690438644423,0.163574,-0.651855,0.733398
1480690438671496,0.163574,-0.671875,0.743652
1480690438686536,0.142578,-0.675781,0.754883
1480690438705085,0.132813,-0.696289,0.769531
1480690438727143,0.15332,-0.6875,0.752441
1480690438746695,0.163574,-0.647949,0.756348
1480690438768755,0.161621,-0.628418,0.742676
1480690438789813,0.157715,-0.636719,0.749512
1480690438806357,0.151855,-0.663086,0.768555
1480690438824402,0.155273,-0.688965,0.771484
1480690438846962,0.161133,-0.644531,0.769531
1480690438868018,0.162598,-0.606445,0.758789
1480690438884562,0.164551,-0.597168,0.744629
1480690438907121,0.164551,-0.633301,0.775391
1480690438928177,0.148438,-0.670898,0.796387
1480690438956257,0.126953,-0.654785,0.793457
1480690438972797,0.136719,-0.633789,0.788086
1480690438989343,0.152832,-0.612793,0.767578
1480690439012903,0.160645,-0.602539,0.769531
1480690439031452,0.164063,-0.61084,0.755371
1480690439047996,0.172363,-0.619141,0.754883
1480690439069052,0.151855,-0.633789,0.774414
1480690439087102,0.140625,-0.656738,0.785156
1480690439115676,0.146973,-0.648926,0.794434
1480690439129212,0.163574,-0.628906,0.797852
1480690439152775,0.167969,-0.613281,0.783203
1480690439167815,0.188965,-0.612793,0.783691
1480690439188871,0.198242,-0.616699,0.778809
1480690439206923,0.185547,-0.609375,0.785156
1480690439229480,0.172363,-0.603516,0.793945
1480690439249031,0.164063,-0.611328,0.790527
1480690439267079,0.174316,-0.61084,0.790527
1480690439290641,0.170898,-0.602051,0.79248
1480690439309193,0.16748,-0.587402,0.797363
1480690439326737,0.165039,-0.591309,0.796387
1480690439349299,0.1875,-0.578613,0.790527
1480690439368851,0.193848,-0.561523,0.783691
1480690439386898,0.185547,-0.558594,0.783691
1480690439409959,0.19873,-0.566406,0.78125
1480690439429010,0.195801,-0.562012,0.791992
1480690439448061,0.192383,-0.561035,0.79248
1480690439469618,0.196289,-0.566895,0.78418
1480690439489172,0.199707,-0.567383,0.783691
1480690439507222,0.195313,-0.558105,0.787598
1480690439529276,0.214355,-0.551758,0.780273
1480690439556353,0.228516,-0.546387,0.789063
1480690439571389,0.220703,-0.55127,0.785645
1480690439589436,0.20166,-0.572754,0.79248
1480690439608987,0.193848,-0.59082,0.803223
1480690439627036,0.196289,-0.600098,0.80127
1480690439655612,0.211426,-0.584473,0.811035
1480690439676667,0.210938,-0.556641,0.802734
1480690439688202,0.213379,-0.547363,0.799316
1480690439709255,0.220703,-0.571289,0.802246
1480690439728807,0.220703,-0.577148,0.797363
1480690439747356,0.21582,-0.575195,0.793457
1480690439769917,0.211914,-0.573242,0.796875
1480690439790470,0.209961,-0.567871,0.795898
1480690439807018,0.212891,-0.552246,0.797852
1480690439834086,0.205078,-0.548828,0.793945
1480690439850630,0.203613,-0.568848,0.785645
1480690439871687,0.210449,-0.578125,0.783203
1480690439898759,0.216309,-0.577148,0.787598
1480690439926833,0.20752,-0.572754,0.791504
1480690439928838,0.20459,-0.569336,0.793945
1480690439950399,0.220703,-0.56543,0.79248
1480690439970501,0.222168,-0.56543,0.789551
1480690439987044,0.222168,-0.573242,0.792969
1480690440009604,0.209473,-0.584473,0.783691
1480690440030158,0.202637,-0.59668,0.792969
1480690440047705,0.208496,-0.584473,0.787598
1480690440070767,0.211914,-0.574219,0.788086
1480690440090318,0.206055,-0.5625,0.787598
1480690440121903,0.205078,-0.571777,0.787598
1480690440128419,0.195313,-0.591797,0.789063
1480690440151983,0.188965,-0.606934,0.796387
1480690440171535,0.189453,-0.611328,0.797852
1480690440188581,0.194336,-0.61377,0.799805
1480690440211140,0.196777,-0.599609,0.796387
1480690440232195,0.198242,-0.589355,0.80127
1480690440262776,0.197754,-0.591309,0.791504
1480690440271300,0.191895,-0.598145,0.780273
1480690440292356,0.19043,-0.603516,0.779785
1480690440314916,0.203125,-0.604492,0.775391
1480690440330958,0.203613,-0.592773,0.765625
1480690440352015,0.192871,-0.583984,0.768066
1480690440368559,0.197754,-0.59375,0.770996
1480690440391619,0.201172,-0.610352,0.768066
1480690440412175,0.181641,-0.614258,0.772949
1480690440428718,0.184082,-0.621094,0.778809
1480690440451279,0.194824,-0.618164,0.777344
1480690440472336,0.189453,-0.603516,0.787598
1480690440488377,0.185059,-0.622559,0.776855
1480690440510937,0.206055,-0.630371,0.773926
1480690440531993,0.205078,-0.627441,0.772949
1480690440549038,0.189941,-0.626465,0.772949
1480690440571098,0.202637,-0.628418,0.766113
1480690440592153,0.212891,-0.617676,0.766602
1480690440616217,0.206543,-0.605469,0.76416
1480690440632775,0.199219,-0.608398,0.770508
1480690440652313,0.195801,-0.60791,0.769043
1480690440668858,0.202637,-0.617676,0.763184
1480690440692419,0.194336,-0.619141,0.770996
1480690440712473,0.190918,-0.613281,0.777344
1480690440728515,0.189941,-0.603516,0.777832
1480690440751075,0.194336,-0.602051,0.768555
1480690440772132,0.202637,-0.600586,0.769043
1480690440788676,0.19873,-0.614746,0.766602
1480690440818756,0.191406,-0.628418,0.765625
1480690440832292,0.197266,-0.630371,0.76123
1480690440848334,0.192383,-0.622559,0.766602
1480690440870898,0.196777,-0.604004,0.755859
1480690440891950,0.205566,-0.599121,0.751953
1480690440908494,0.20459,-0.608398,0.758301
1480690440931055,0.199707,-0.622559,0.758789
1480690440952110,0.196289,-0.634766,0.76123
1480690440983694,0.186523,-0.625,0.768555
1480690440991214,0.20166,-0.608887,0.767578
1480690441012270,0.197266,-0.597656,0.769531
1480690441029318,0.186523,-0.608887,0.774414
1480690441050873,0.185547,-0.637207,0.77832
1480690441071931,0.184082,-0.649414,0.78125
1480690441094488,0.175781,-0.638184,0.76709
1480690441111033,0.183594,-0.627441,0.77002
1480690441133592,0.192383,-0.61377,0.768066
1480690441148633,0.187012,-0.621094,0.765625
1480690441171193,0.195313,-0.615234,0.757324
1480690441194755,0.201172,-0.632324,0.755371
1480690441208793,0.183594,-0.634766,0.750977
1480690441231853,0.192871,-0.625488,0.752441
1480690441260930,0.192383,-0.622559,0.757813
1480690441267951,0.19043,-0.62793,0.757813
1480690441291011,0.195801,-0.626953,0.766602
1480690441313572,0.204102,-0.62793,0.754883
1480690441328110,0.189941,-0.632324,0.762207
1480690441351171,0.189941,-0.635254,0.759277
1480690441373732,0.185547,-0.644043,0.763184
1480690441394787,0.181641,-0.640137,0.76123
1480690441410831,0.195313,-0.616699,0.756836
1480690441433893,0.193848,-0.616211,0.753906
1480690441448430,0.189453,-0.622559,0.759766
1480690441470990,0.191895,-0.63916,0.758789
1480690441507087,0.182129,-0.641602,0.755859
1480690441517614,0.170898,-0.639648,0.767578
1480690441538678,0.178711,-0.630859,0.770996
1480690441569754,0.188965,-0.620605,0.763184
1480690441574767,0.189453,-0.632813,0.76709
1480690441590808,0.191895,-0.640625,0.76123
1480690441614371,0.184082,-0.653809,0.762695
1480690441634926,0.184082,-0.650391,0.760254
1480690441650969,0.188965,-0.633789,0.756348
1480690441673528,0.189941,-0.623535,0.760742
1480690441694584,0.192383,-0.62207,0.759277
1480690441711129,0.195313,-0.632324,0.757813
1480690441733688,0.188477,-0.640137,0.755371
1480690441754749,0.1875,-0.643066,0.763184
1480690441771289,0.183105,-0.635742,0.759277
1480690441793347,0.183594,-0.620117,0.749512
1480690441815907,0.194824,-0.605957,0.755859
1480690441845987,0.195801,-0.609375,0.758789
1480690441853507,0.190918,-0.636719,0.762207
1480690441875065,0.190918,-0.648438,0.76416
1480690441891107,0.188965,-0.645508,0.771484
1480690441913667,0.195801,-0.625488,0.767578
1480690441934723,0.206543,-0.612793,0.766113
1480690441957282,0.210449,-0.608887,0.772461
1480690441973829,0.202637,-0.623535,0.772461
1480690441994382,0.181641,-0.617188,0.769043
1480690442010925,0.189941,-0.601563,0.764648
1480690442033485,0.196289,-0.592773,0.769043
1480690442072595,0.187988,-0.594238,0.771973
1480690442077101,0.185059,-0.593262,0.762207
1480690442095150,0.193359,-0.595703,0.762695
1480690442125229,0.193359,-0.637207,0.761719
1480690442144781,0.166016,-0.666992,0.766113
1480690442153807,0.150391,-0.666016,0.763184
1480690442175864,0.162598,-0.660156,0.762207
1480690442190403,0.176758,-0.644043,0.755371
1480690442214467,0.197266,-0.615234,0.748535
1480690442236024,0.20459,-0.59375,0.757813
1480690442250569,0.207031,-0.608398,0.750977
1480690442282147,0.20459,-0.624023,0.755859
1480690442295682,0.203125,-0.626953,0.756836
1480690442310221,0.197266,-0.613281,0.761719
1480690442347321,0.191406,-0.611328,0.766602
1480690442356344,0.189453,-0.611816,0.765625
1480690442370385,0.183105,-0.617188,0.770996
1480690442402468,0.185547,-0.635742,0.774902
1480690442422522,0.1875,-0.654785,0.762695
1480690442430542,0.190918,-0.648926,0.758301
1480690442453603,0.187988,-0.631348,0.759766
1480690442476664,0.191406,-0.629395,0.762695
1480690442490702,0.194824,-0.640625,0.782227
1480690442513763,0.204102,-0.65918,0.793457
1480690442535822,0.180664,-0.656738,0.801758
1480690442556880,0.171875,-0.63623,0.797363
1480690442573923,0.179199,-0.611816,0.787109
1480690442595981,0.178711,-0.598145,0.777344
1480690442624558,0.186035,-0.588867,0.777344
1480690442633582,0.186035,-0.59082,0.768066
1480690442656144,0.189941,-0.598145,0.778809
1480690442677197,0.195313,-0.611328,0.78125
1480690442699758,0.188477,-0.625488,0.783691
1480690442717806,0.189453,-0.603516,0.776367
1480690442737357,0.195801,-0.586426,0.772461
1480690442753401,0.196289,-0.577148,0.76709
1480690442781977,0.20166,-0.585449,0.780273
1480690442797015,0.203125,-0.593262,0.779297
1480690442813560,0.201172,-0.57373,0.782227
1480690442836622,0.217285,-0.570313,0.786133
1480690442874222,0.216797,-0.568848,0.791992
1480690442876728,0.220215,-0.568848,0.794922
1480690442903801,0.222168,-0.57373,0.796875
1480690442924354,0.206543,-0.586914,0.797363
1480690442933379,0.201172,-0.586914,0.804688
1480690442955943,0.208984,-0.581543,0.797363
1480690442976994,0.224121,-0.574707,0.793457
1480690442995043,0.214355,-0.559082,0.790527
1480690443016101,0.220215,-0.55127,0.791992
1480690443038660,0.223145,-0.573242,0.800781
1480690443053701,0.21582,-0.596191,0.805176
1480690443076258,0.212402,-0.581543,0.814453
1480690443098818,0.217285,-0.566895,0.808594
1480690443113357,0.21875,-0.555176,0.80957
1480690443135917,0.225586,-0.557617,0.802734
1480690443181542,0.228516,-0.549316,0.797852
1480690443185048,0.216797,-0.556641,0.791504
1480690443205105,0.214844,-0.553711,0.80957
1480690443224152,0.221191,-0.571777,0.824219
1480690443234179,0.225098,-0.560547,0.821777
1480690443256237,0.218262,-0.534668,0.808594
1480690443284813,0.219238,-0.523438,0.804199
1480690443292835,0.227539,-0.523438,0.79541
1480690443316899,0.227539,-0.54541,0.793945
1480690443344472,0.227051,-0.552734,0.782227
1480690443353496,0.228027,-0.547363,0.782227
1480690443376056,0.238281,-0.541016,0.78418
1480690443399618,0.237305,-0.541504,0.789063
1480690443412653,0.242188,-0.541016,0.787109
1480690443459277,0.240723,-0.540039,0.781738
1480690443461784,0.23291,-0.547852,0.785156
1480690443481336,0.226563,-0.555664,0.786621
1480690443495874,0.231934,-0.561035,0.779297
1480690443518434,0.236328,-0.541016,0.769043
1480690443539992,0.222168,-0.524414,0.769531
1480690443557036,0.216309,-0.544434,0.781738
1480690443578092,0.210449,-0.578125,0.777344
1480690443600152,0.216797,-0.615723,0.778809
1480690443616194,0.208008,-0.631348,0.779785
1480690443646281,0.189941,-0.637695,0.788086
1480690443659810,0.202637,-0.624512,0.785156
1480690443677859,0.206543,-0.627441,0.784668
1480690443705936,0.208008,-0.629395,0.790527
1480690443736515,0.201172,-0.648438,0.788574
1480690443739022,0.20166,-0.656738,0.786621
1480690443758573,0.217773,-0.646973,0.768555
1480690443787152,0.219238,-0.62793,0.763672
1480690443796173,0.212891,-0.613281,0.76709
1480690443818735,0.206543,-0.624023,0.765625
1480690443839792,0.194824,-0.642578,0.771484
1480690443856336,0.182129,-0.650879,0.770508
1480690443878392,0.17627,-0.646484,0.780762
1480690443899447,0.186035,-0.638184,0.779297
1480690443924012,0.205078,-0.620605,0.772461
1480690443938554,0.222168,-0.602539,0.757324
1480690443961111,0.226563,-0.60791,0.747559
1480690443983672,0.219727,-0.623535,0.744141
1480690444004227,0.208008,-0.633789,0.739746
1480690444021273,0.206543,-0.633301,0.742188
1480690444036313,0.201172,-0.631836,0.747559
1480690444059372,0.207031,-0.629395,0.747559
1480690444080930,0.204102,-0.618164,0.758789
1480690444095470,0.191895,-0.620117,0.759277
1480690444120034,0.186523,-0.629883,0.759277
1480690444141093,0.186523,-0.625977,0.750488
1480690444162146,0.187012,-0.630371,0.76123
1480690444179191,0.200195,-0.621094,0.75293
1480690444201251,0.200684,-0.632324,0.768066
1480690444229826,0.208984,-0.651367,0.768066
1480690444238853,0.213867,-0.64502,0.757813
1480690444260908,0.216309,-0.628418,0.749512
1480690444276951,0.210938,-0.61377,0.743652
1480690444299511,0.200195,-0.61377,0.745605
1480690444321069,0.202148,-0.614258,0.75
1480690444335608,0.208496,-0.628906,0.752441
1480690444358669,0.221191,-0.646484,0.749512
1480690444381228,0.21875,-0.636719,0.743652
1480690444395266,0.213379,-0.630859,0.739258
1480690444418327,0.217285,-0.641602,0.737793
1480690444456429,0.220703,-0.640137,0.742676
1480690444461943,0.225586,-0.623535,0.745117
1480690444478487,0.21875,-0.613281,0.74707
1480690444508568,0.204102,-0.62793,0.753906
1480690444525112,0.197754,-0.634277,0.752441
1480690444538648,0.195801,-0.647949,0.763672
1480690444561207,0.188477,-0.64209,0.753418
1480690444582263,0.193359,-0.633789,0.757813
1480690444598305,0.207031,-0.635742,0.74707
1480690444620867,0.212402,-0.641602,0.759766
1480690444641922,0.205078,-0.642578,0.758789
1480690444665986,0.204102,-0.645996,0.754395
1480690444681026,0.219727,-0.630371,0.746582
1480690444703586,0.223145,-0.626465,0.744629
1480690444734669,0.214844,-0.625977,0.73877
1480690444742188,0.214355,-0.618652,0.741211
1480690444762242,0.207031,-0.624023,0.740723
1480690444786307,0.199219,-0.626953,0.753906
1480690444807363,0.20459,-0.621582,0.756836
1480690444829420,0.201172,-0.627441,0.761719
1480690444838448,0.198242,-0.617188,0.768066
1480690444862007,0.197754,-0.611328,0.771484
1480690444882563,0.190918,-0.622559,0.766113
1480690444898604,0.200684,-0.635742,0.760742
1480690444928685,0.200195,-0.653809,0.760742
1480690444943724,0.182617,-0.650391,0.750977
1480690444958766,0.178711,-0.645996,0.748535
1480690444980823,0.194336,-0.640625,0.753418
1480690445010402,0.206543,-0.632324,0.753906
1480690445018924,0.216797,-0.623047,0.753418
1480690445040985,0.209961,-0.628418,0.754395
1480690445063543,0.207031,-0.635742,0.755859
1480690445078081,0.214844,-0.630859,0.757813
1480690445116185,0.214355,-0.614746,0.745117
1480690445123703,0.197266,-0.611816,0.758301
1480690445144759,0.195313,-0.625,0.751465
1480690445161804,0.199707,-0.628906,0.746582
1480690445190881,0.201172,-0.634766,0.753906
1480690445197902,0.185547,-0.649414,0.752441
1480690445228482,0.187012,-0.645996,0.761719
1480690445260066,0.189453,-0.63623,0.76709
1480690445264582,0.193848,-0.620605,0.756836
1480690445288645,0.208496,-0.620117,0.754395
1480690445311202,0.210938,-0.623535,0.75293
1480690445318722,0.206055,-0.642578,0.751953
1480690445341282,0.204102,-0.650391,0.75
1480690445371365,0.210449,-0.623047,0.738281
1480690445377878,0.21582,-0.60791,0.744629
1480690445402446,0.210449,-0.618164,0.746094
1480690445424503,0.192871,-0.629883,0.748047
1480690445444557,0.177734,-0.646973,0.761719
1480690445461601,0.183594,-0.638672,0.752441
1480690445483660,0.203125,-0.635742,0.752441
1480690445504720,0.191406,-0.613281,0.741211
1480690445536301,0.195313,-0.609375,0.747559
1480690445543318,0.194824,-0.630859,0.760742
1480690445564374,0.19043,-0.667969,0.777344
1480690445580919,0.186035,-0.684082,0.779297
1480690445603479,0.195313,-0.673828,0.776855
1480690445624535,0.185059,-0.666016,0.776855
1480690445641081,0.185547,-0.656738,0.767578
1480690445663639,0.202148,-0.633301,0.745605
1480690445684695,0.20459,-0.619141,0.73584
1480690445701240,0.206543,-0.627441,0.717285
1480690445723297,0.212402,-0.632813,0.703613
1480690445751874,0.195313,-0.631348,0.70459
1480690445761900,0.173828,-0.657715,0.731445
1480690445784460,0.183594,-0.650879,0.745605
1480690445804523,0.194824,-0.640137,0.753418
1480690445821058,0.187988,-0.634766,0.758301
1480690445844621,0.208496,-0.65332,0.769043
1480690445866178,0.20459,-0.674316,0.771484
1480690445881217,0.179199,-0.67627,0.762695
1480690445903779,0.178711,-0.652344,0.770996
1480690445925836,0.196289,-0.641602,0.751953
1480690445940876,0.200195,-0.621582,0.740723
1480690445963436,0.194336,-0.623535,0.737305
1480690445985998,0.188965,-0.630371,0.736328
1480690446000535,0.183105,-0.644043,0.738281
1480690446039137,0.187012,-0.651367,0.739258
1480690446062199,0.201172,-0.633789,0.728516
1480690446067213,0.199219,-0.615723,0.735352
1480690446089771,0.189453,-0.621094,0.739258
1480690446105815,0.187012,-0.649414,0.750977
1480690446120855,0.192871,-0.658691,0.745117
1480690446143415,0.195313,-0.653809,0.743652
1480690446166476,0.195313,-0.650391,0.730469
1480690446180514,0.199219,-0.645508,0.724609
1480690446203575,0.20166,-0.640625,0.728027
1480690446226134,0.189453,-0.666016,0.731934
1480690446248695,0.187988,-0.681641,0.72998
1480690446264236,0.199219,-0.681641,0.727051
1480690446286296,0.188477,-0.658691,0.727539
1480690446315874,0.185059,-0.652344,0.728027
1480690446323395,0.188965,-0.655762,0.729492
1480690446345953,0.189941,-0.668945,0.73291
1480690446368514,0.191895,-0.661621,0.730469
1480690446383553,0.187012,-0.680664,0.732422
1480690446406114,0.180664,-0.683594,0.73877
1480690446427168,0.188965,-0.681152,0.738281
1480690446449729,0.187988,-0.669434,0.731934
1480690446466273,0.191895,-0.657227,0.732422
1480690446487329,0.198242,-0.657227,0.731445
1480690446509388,0.186523,-0.677734,0.722656
1480690446526934,0.183594,-0.679688,0.722656
1480690446546988,0.18457,-0.683594,0.722168
1480690446565537,0.181152,-0.67334,0.717773
1480690446586097,0.186035,-0.670898,0.73291
1480690446616173,0.189941,-0.660645,0.728516
1480690446624194,0.194336,-0.658203,0.728027
1480690446646252,0.189453,-0.666992,0.722168
1480690446667308,0.192383,-0.676758,0.712402
1480690446684353,0.188477,-0.678223,0.720703
1480690446705911,0.177734,-0.671387,0.720703
1480690446726967,0.186035,-0.654785,0.725586
1480690446743510,0.189453,-0.665527,0.728027
1480690446773590,0.181152,-0.675293,0.733398
1480690446787127,0.189941,-0.679688,0.728027
1480690446811190,0.186035,-0.675293,0.730469
1480690446841270,0.174805,-0.683105,0.728027
1480690446848289,0.192871,-0.660156,0.717285
1480690446870852,0.195313,-0.655762,0.715332
1480690446893409,0.182129,-0.665527,0.723633
1480690446908449,0.1875,-0.671875,0.727051
1480690446922988,0.187012,-0.674805,0.724121
1480690446946048,0.181641,-0.67334,0.729492
1480690446968610,0.185059,-0.664063,0.719238
1480690446983148,0.19043,-0.661133,0.722168
1480690447006209,0.18457,-0.660645,0.725586
1480690447036291,0.1875,-0.666992,0.719727
1480690447049324,0.1875,-0.678223,0.725586
1480690447065867,0.183105,-0.681641,0.724121
1480690447088434,0.182129,-0.674316,0.725098
1480690447117008,0.1875,-0.666992,0.724609
1480690447149595,0.187988,-0.661133,0.725586
1480690447151600,0.187988,-0.662109,0.722656
1480690447163131,0.187012,-0.668457,0.726074
1480690447186194,0.179688,-0.687988,0.72168
1480690447208751,0.185059,-0.683594,0.725098
1480690447222789,0.185547,-0.679199,0.736328
1480690447246854,0.181641,-0.678223,0.728027
1480690447268410,0.187012,-0.667969,0.720703
1480690447289466,0.194336,-0.662598,0.720703
1480690447312111,0.184082,-0.676758,0.725586
1480690447328655,0.184082,-0.683105,0.71875
1480690447349714,0.187012,-0.681641,0.71582
1480690447366256,0.182129,-0.671387,0.71875
1480690447388314,0.187012,-0.665039,0.726074
1480690447409871,0.19043,-0.653809,0.717773
1480690447425914,0.183594,-0.662598,0.725586
1480690447448473,0.181641,-0.686035,0.720215
1480690447469530,0.183594,-0.684082,0.723633
1480690447486575,0.181641,-0.6875,0.726563
1480690447508634,0.182617,-0.669434,0.726563
1480690447529690,0.192383,-0.655273,0.720215
1480690447559770,0.18457,-0.662109,0.721191
1480690447568794,0.184082,-0.677734,0.723633
1480690447589348,0.18457,-0.683594,0.716797
1480690447605894,0.17627,-0.687012,0.723145
1480690447628452,0.177246,-0.675293,0.730957
1480690447649509,0.175293,-0.659668,0.746582
1480690447666553,0.19043,-0.673828,0.734863
1480690447688615,0.18457,-0.67041,0.734863
1480690447710169,0.190918,-0.675781,0.730957
1480690447726212,0.188965,-0.690918,0.728027
1480690447748271,0.191895,-0.693848,0.731445
1480690447778853,0.183594,-0.675293,0.729004
1480690447785872,0.177246,-0.650391,0.726074
1480690447810436,0.182129,-0.641113,0.720215
1480690447837009,0.184082,-0.651367,0.720703
1480690447846030,0.185547,-0.67334,0.71582
1480690447869595,0.197754,-0.670898,0.710449
1480690447891653,0.210938,-0.663574,0.719727
1480690447905190,0.199707,-0.656738,0.716309
1480690447929252,0.202148,-0.647949,0.713379
1480690447950809,0.206055,-0.64502,0.722656
1480690447972377,0.194336,-0.651855,0.739746
1480690447988409,0.195313,-0.681152,0.736816
1480690448010969,0.213867,-0.686523,0.751953
1480690448025508,0.200195,-0.677246,0.739258
1480690448048569,0.186035,-0.646484,0.72998
1480690448071132,0.174805,-0.635742,0.73584
1480690448085668,0.155273,-0.644043,0.730469
1480690448114745,0.172852,-0.662598,0.728027
1480690448130788,0.187012,-0.694336,0.725586
1480690448145327,0.192383,-0.681152,0.715332
1480690448168891,0.187012,-0.655762,0.724121
1480690448190948,0.175781,-0.658203,0.729004
1480690448205487,0.203613,-0.685547,0.728027
1480690448230053,0.223145,-0.696777,0.72998
1480690448257124,0.197266,-0.679199,0.733398
1480690448272164,0.184082,-0.670898,0.733398
1480690448288708,0.19043,-0.682617,0.732422
1480690448312290,0.195801,-0.680176,0.733887
1480690448332324,0.200684,-0.651367,0.724609
1480690448348366,0.195801,-0.646973,0.724121
1480690448370928,0.195313,-0.656738,0.720215
1480690448391983,0.202637,-0.666992,0.717773
1480690448408527,0.197754,-0.668945,0.711914
1480690448437103,0.197266,-0.661133,0.716797
1480690448452144,0.196777,-0.662109,0.709961
1480690448474702,0.191895,-0.664063,0.719727
1480690448498768,0.200195,-0.671387,0.712891
1480690448512302,0.202148,-0.677734,0.717285
1480690448528345,0.191406,-0.681641,0.727051
1480690448551406,0.188965,-0.671875,0.725586
1480690448573465,0.200684,-0.664551,0.72998
1480690448588505,0.199707,-0.65918,0.725098
1480690448610564,0.202148,-0.666992,0.730957
1480690448639641,0.200684,-0.669922,0.716309
1480690448648666,0.187988,-0.664063,0.71875
1480690448672229,0.169922,-0.674805,0.744141
1480690448693785,0.171875,-0.716309,0.753906
1480690448721859,0.195801,-0.696777,0.755859
1480690448731886,0.219727,-0.651855,0.739746
1480690448753444,0.215332,-0.627441,0.728027
1480690448774500,0.20752,-0.645996,0.73291
1480690448791043,0.219727,-0.651855,0.731445
1480690448813604,0.221191,-0.647461,0.726074
1480690448834660,0.213379,-0.628418,0.722168
1480690448851706,0.211914,-0.616699,0.729492
1480690448873763,0.208984,-0.628906,0.733887
1480690448888803,0.197754,-0.651367,0.727539
1480690448911865,0.1875,-0.661133,0.733887
1480690448934425,0.180176,-0.666016,0.730469
1480690448947961,0.194824,-0.664551,0.743652
1480690448978542,0.206543,-0.658203,0.741699
1480690448993582,0.202637,-0.637695,0.742188
1480690449008121,0.195801,-0.625488,0.74707
1480690449031182,0.191895,-0.64209,0.736328
1480690449053742,0.180176,-0.669434,0.733887
1480690449067779,0.193359,-0.67334,0.722656
1480690449092345,0.203613,-0.63623,0.725098
1480690449113401,0.209961,-0.598145,0.724609
1480690449128942,0.221191,-0.585938,0.731445
1480690449151502,0.234375,-0.600098,0.722168
1480690449173561,0.214355,-0.621094,0.725098
1480690449194616,0.180176,-0.642578,0.730957
1480690449211161,0.183594,-0.643555,0.747559
1480690449235225,0.198242,-0.63916,0.76123
1480690449254777,0.202148,-0.663574,0.773926
1480690449270845,0.204102,-0.703125,0.781738
1480690449293379,0.162598,-0.712402,0.775391
1480690449314437,0.116211,-0.708984,0.77002
1480690449338500,0.135254,-0.718262,0.752441
1480690449361059,0.170898,-0.687012,0.737305
1480690449374595,0.195801,-0.643066,0.742188
1480690449391139,0.185547,-0.644531,0.739258
1480690449414201,0.179199,-0.663574,0.73291
1480690449434755,0.168457,-0.675293,0.734863
1480690449451299,0.15625,-0.677734,0.735352
1480690449473359,0.172363,-0.649414,0.724121
1480690449494414,0.192871,-0.613281,0.714844
1480690449510958,0.191895,-0.60791,0.718262
1480690449533522,0.20166,-0.631348,0.722656
1480690449557582,0.20166,-0.652344,0.728516
1480690449571620,0.177734,-0.660645,0.727539
1480690449593678,0.163086,-0.675293,0.740723
1480690449616238,0.169434,-0.677246,0.741211
1480690449636792,0.175781,-0.671387,0.739258
1480690449654841,0.166992,-0.677246,0.736328
1480690449675897,0.181152,-0.677246,0.731934
1480690449690937,0.179688,-0.676758,0.742676
1480690449713497,0.157227,-0.685547,0.742676
1480690449736057,0.160156,-0.672363,0.744141
1480690449751097,0.180176,-0.660156,0.731934
1480690449773657,0.188477,-0.656738,0.720703
1480690449796216,0.189941,-0.663086,0.717773
1480690449810254,0.188477,-0.664551,0.717285
1480690449840835,0.175781,-0.682617,0.723145
1480690449864398,0.163086,-0.6875,0.726074
1480690449871918,0.172852,-0.689941,0.725098
1480690449893476,0.178711,-0.687988,0.73291
1480690449922052,0.178223,-0.683105,0.730469
1480690449931075,0.176758,-0.669434,0.727051
1480690449954137,0.171875,-0.673828,0.718262
1480690449976195,0.168457,-0.682617,0.720215
1480690449990235,0.174316,-0.683105,0.714355
1480690450013795,0.180664,-0.672363,0.722168
1480690450035854,0.182129,-0.665039,0.715332
1480690450056911,0.186035,-0.657227,0.717285
1480690450073454,0.189453,-0.661133,0.720215
1480690450096516,0.180176,-0.680176,0.724121
1480690450110552,0.17627,-0.690918,0.725098
1480690450140131,0.175293,-0.686035,0.731934
1480690450156174,0.182617,-0.672363,0.727051
1480690450178233,0.177734,-0.65625,0.72998
1480690450193774,0.185547,-0.651367,0.725098
1480690450216843,0.178711,-0.666992,0.721191
1480690450237390,0.178223,-0.680176,0.719238
1480690450253432,0.178711,-0.68457,0.720215
1480690450284015,0.182129,-0.672852,0.714844
1480690450297048,0.179199,-0.664551,0.720703
1480690450313593,0.181152,-0.664063,0.722656
1480690450336153,0.187988,-0.666992,0.723633
1480690450357208,0.183594,-0.680176,0.729004
1480690450374755,0.177734,-0.689941,0.726563
1480690450395811,0.183594,-0.687012,0.720703
1480690450418371,0.178711,-0.671387,0.72168
1480690450446947,0.174805,-0.663086,0.709961
1480690450455971,0.186035,-0.659668,0.703125
1480690450477027,0.193359,-0.660156,0.692383
1480690450494072,0.186523,-0.660156,0.683105
1480690450516632,0.161621,-0.691895,0.695313
1480690450536686,0.165527,-0.73291,0.717285
1480690450553731,0.168945,-0.708496,0.71875
1480690450582308,0.174316,-0.685547,0.729004
1480690450598350,0.178223,-0.67041,0.729004
1480690450613390,0.175781,-0.684082,0.727539
1480690450635950,0.168457,-0.711426,0.729004
1480690450659011,0.166992,-0.717285,0.721191
1480690450673550,0.167969,-0.708008,0.709961
1480690450697112,0.168945,-0.686523,0.698242
1480690450726190,0.168945,-0.681641,0.693848
1480690450733211,0.170898,-0.691895,0.692383
1480690450757774,0.17334,-0.700684,0.694824
1480690450778328,0.172363,-0.717773,0.698242
1480690450792867,0.166992,-0.717285,0.70459
1480690450815929,0.174805,-0.704102,0.705566
1480690450838488,0.169434,-0.691406,0.709961
1480690450853027,0.173828,-0.681152,0.706055
1480690450876088,0.175293,-0.689941,0.702148
1480690450898649,0.172363,-0.70166,0.70166
1480690450912685,0.17041,-0.709961,0.704102
1480690450942264,0.170898,-0.702637,0.699707
1480690450958313,0.165527,-0.696777,0.70166
1480690450972846,0.169434,-0.684082,0.699707
1480690451001924,0.180176,-0.677734,0.696289
1480690451018467,0.169922,-0.699707,0.693848
1480690451033005,0.167969,-0.712891,0.701172
1480690451056066,0.166992,-0.716309,0.702637
1480690451086149,0.168945,-0.707031,0.70459
1480690451099684,0.17334,-0.688965,0.703613
1480690451116228,0.175781,-0.690918,0.708496
1480690451138286,0.172363,-0.696289,0.707031
1480690451159343,0.174805,-0.706543,0.705566
1480690451175885,0.168945,-0.711914,0.699707
1480690451198445,0.161621,-0.709473,0.708496
1480690451219501,0.159668,-0.699219,0.708984
1480690451236046,0.170898,-0.682129,0.703613
1480690451258605,0.180664,-0.6875,0.703125
1480690451279662,0.174805,-0.693359,0.697754
1480690451304227,0.179688,-0.693359,0.700684
1480690451319267,0.17627,-0.694824,0.700684
1480690451339822,0.171875,-0.703613,0.69873
1480690451355864,0.177246,-0.691406,0.699219
1480690451379929,0.174316,-0.684082,0.708496
1480690451399482,0.169434,-0.689941,0.70166
1480690451417027,0.176758,-0.696289,0.708496
1480690451446606,0.171875,-0.706055,0.708008
1480690451459640,0.167969,-0.712891,0.716797
1480690451476184,0.166504,-0.711914,0.71875
1480690451498745,0.168457,-0.689941,0.708984
1480690451526819,0.180176,-0.680664,0.704102
1480690451537347,0.178223,-0.68457,0.704102
1480690451558403,0.166992,-0.703125,0.700195
1480690451588482,0.169434,-0.713867,0.708984
1480690451596002,0.164063,-0.702637,0.70166
1480690451618562,0.169922,-0.689453,0.70166
1480690451641123,0.17627,-0.685059,0.714355
1480690451656162,0.182129,-0.682129,0.707031
1480690451679725,0.180176,-0.689941,0.70752
1480690451700781,0.174316,-0.702637,0.708496
1480690451721837,0.170898,-0.70166,0.710449
1480690451746904,0.174805,-0.696289,0.708008
1480690451768461,0.171875,-0.684082,0.705566
1480690451781997,0.17627,-0.678223,0.704102
1480690451804557,0.181641,-0.688477,0.705078
1480690451837645,0.177246,-0.695801,0.707031
1480690451866723,0.173828,-0.694824,0.705566
1480690451868727,0.169434,-0.692871,0.707031
1480690451880760,0.177246,-0.683594,0.705078
1480690451895298,0.179688,-0.688965,0.711914
1480690451918360,0.179199,-0.688477,0.714844
1480690451941421,0.180664,-0.689453,0.711914
1480690451956962,0.174805,-0.687988,0.713867
1480690451978519,0.177246,-0.697754,0.706055
1480690452001079,0.17627,-0.689941,0.709473
1480690452022136,0.178711,-0.683594,0.707031
1480690452046200,0.173828,-0.677246,0.70752
1480690452061240,0.183105,-0.687012,0.711426
1480690452083299,0.178711,-0.6875,0.709473
1480690452111874,0.175293,-0.695801,0.709473
1480690452120898,0.169434,-0.70166,0.714844
1480690452141954,0.17627,-0.697754,0.714844
1480690452165517,0.186035,-0.686035,0.709473
1480690452181560,0.175781,-0.685059,0.711914
1480690452202115,0.181152,-0.67627,0.708496
1480690452218658,0.183594,-0.69043,0.70459
1480690452242722,0.17334,-0.704102,0.708496
1480690452262776,0.171875,-0.697266,0.705078
1480690452278317,0.180176,-0.680176,0.708496
1480690452300877,0.179199,-0.680176,0.708008
1480690452321933,0.179688,-0.679199,0.700684
1480690452338477,0.181641,-0.682129,0.706543
1480690452363042,0.171875,-0.703613,0.706543
1480690452383598,0.173828,-0.708984,0.713379
1480690452422202,0.178711,-0.697266,0.708008
1480690452444258,0.173828,-0.674805,0.709961
1480690452449773,0.17627,-0.680664,0.710938
1480690452458296,0.18457,-0.687012,0.708008
1480690452480856,0.183105,-0.690918,0.70459
1480690452503416,0.172852,-0.702148,0.704102
1480690452525978,0.169434,-0.70166,0.711914
1480690452541016,0.18457,-0.692383,0.705078
1480690452563576,0.17041,-0.679688,0.708496
1480690452579117,0.182129,-0.682129,0.707031
1480690452601175,0.180176,-0.690918,0.706543
1480690452638274,0.176758,-0.697754,0.707031
1480690452640782,0.174316,-0.707031,0.703125
1480690452666850,0.17041,-0.706055,0.708008
1480690452698436,0.17627,-0.689453,0.70459
1480690452700942,0.178223,-0.682617,0.710938
1480690452721059,0.178711,-0.682129,0.702637
1480690452743618,0.181641,-0.688965,0.708984
1480690452758658,0.175781,-0.70166,0.703613
1480690452782222,0.171875,-0.700195,0.699707
1480690452803278,0.175781,-0.689941,0.706543
1480690452817815,0.173828,-0.691895,0.710938
1480690452840877,0.171875,-0.690918,0.708496
1480690452865945,0.178223,-0.687988,0.708496
1480690452877976,0.181152,-0.695801,0.704102
1480690452901037,0.172363,-0.699707,0.69873
1480690452923597,0.170898,-0.708984,0.710449
1480690452937636,0.173828,-0.697754,0.700684
1480690452960695,0.177246,-0.684082,0.704102
1480690452999799,0.178711,-0.675781,0.708008
1480690453004312,0.179199,-0.685059,0.705078
1480690453020856,0.17627,-0.692871,0.704102
1480690453045421,0.166504,-0.710938,0.701172
1480690453064472,0.168945,-0.705566,0.708496
1480690453081015,0.176758,-0.694824,0.711914
1480690453103575,0.177246,-0.686523,0.705566
1480690453124632,0.181641,-0.682617,0.706055
1480690453141176,0.176758,-0.689453,0.705078
1480690453164237,0.169922,-0.709473,0.709473
1480690453184290,0.172852,-0.708496,0.705078
1480690453201337,0.171875,-0.695801,0.69873
1480690453223395,0.17627,-0.688965,0.698242
1480690453245954,0.181641,-0.680176,0.708984
1480690453261496,0.175293,-0.698242,0.705566
1480690453283554,0.175781,-0.70166,0.706055
1480690453304610,0.177734,-0.703125,0.706055
1480690453321154,0.168945,-0.703125,0.704102
1480690453343213,0.171387,-0.702637,0.712891
1480690453364770,0.172852,-0.688477,0.706055
1480690453382821,0.19043,-0.682617,0.699707
1480690453416909,0.181641,-0.689453,0.702637
1480690453425933,0.169434,-0.712402,0.701172
1480690453448495,0.171875,-0.702637,0.703125
1480690453466042,0.174316,-0.69043,0.709961
1480690453487099,0.167969,-0.683594,0.704102
1480690453501134,0.176758,-0.678223,0.70752
1480690453529709,0.181152,-0.685059,0.706055
1480690453552269,0.175293,-0.69873,0.706055
1480690453561292,0.171875,-0.708496,0.709473
1480690453583352,0.172363,-0.704102,0.708008
1480690453605912,0.177246,-0.698242,0.713379
1480690453620451,0.171875,-0.691895,0.706543
1480690453643512,0.184082,-0.680664,0.70459
1480690453667075,0.188477,-0.682617,0.706055
1480690453694648,0.172852,-0.695313,0.700684
1480690453726732,0.171875,-0.705078,0.70752
1480690453729239,0.174805,-0.702148,0.708984
1480690453750796,0.17041,-0.684082,0.708984
1480690453753805,0.172852,-0.689453,0.705566
1480690453768844,0.17627,-0.681641,0.70166
1480690453791405,0.18457,-0.688965,0.70752
1480690453807948,0.172363,-0.706543,0.707031
1480690453829004,0.168457,-0.708984,0.709961
1480690453851564,0.174316,-0.694824,0.70752
1480690453868108,0.180176,-0.686523,0.708496
1480690453888663,0.178711,-0.683105,0.708496
1480690453911223,0.182617,-0.686523,0.699707
1480690453942807,0.176758,-0.698242,0.707031
1480690453948823,0.175293,-0.701172,0.703125
1480690453972888,0.174805,-0.699707,0.705566
1480690454003970,0.168457,-0.695313,0.705566
1480690454026031,0.174805,-0.687988,0.706543
1480690454031543,0.181152,-0.688477,0.702637
1480690454056610,0.178711,-0.69043,0.705078
1480690454069145,0.171875,-0.697754,0.706055
1480690454091202,0.172852,-0.709961,0.70166
1480690454109250,0.172852,-0.702148,0.70459
1480690454128802,0.175781,-0.689941,0.70752
1480690454151362,0.174316,-0.6875,0.711914
1480690454169410,0.183594,-0.683594,0.70752
1480690454188962,0.177246,-0.690918,0.700684
1480690454213026,0.17041,-0.704102,0.703613
1480690454251127,0.174805,-0.702148,0.70459
1480690454253131,0.174316,-0.693848,0.703125
1480690454281711,0.178711,-0.6875,0.703613
1480690454293740,0.176758,-0.684082,0.707031
1480690454308781,0.183594,-0.687988,0.702148
1480690454331340,0.168945,-0.706055,0.711914
1480690454353900,0.174805,-0.706543,0.710449
1480690454368941,0.179688,-0.701172,0.708984
1480690454391500,0.166992,-0.698242,0.701172
1480690454414061,0.173828,-0.685547,0.704102
1480690454429099,0.19043,-0.681152,0.709473
1480690454451158,0.175781,-0.688477,0.705078
1480690454473719,0.172363,-0.697266,0.706543
1480690454499290,0.174316,-0.708984,0.700195
1480690454518838,0.17041,-0.699219,0.709473
1480690454534380,0.175781,-0.6875,0.700195
1480690454557943,0.177734,-0.688965,0.704102
1480690454571478,0.185547,-0.683594,0.709473
1480690454594038,0.181641,-0.691895,0.698242
1480690454609079,0.172363,-0.703613,0.708008
1480690454631639,0.170898,-0.702148,0.705566
1480690454655201,0.169922,-0.699707,0.70459
1480690454670241,0.180176,-0.682617,0.70752
1480690454691297,0.180664,-0.681152,0.705566
1480690454713857,0.178223,-0.693359,0.699219
1480690454728897,0.175293,-0.692871,0.709961
1480690454751458,0.179688,-0.700195,0.708008
1480690454776524,0.177246,-0.69873,0.708008
1480690454806103,0.178223,-0.693359,0.700684
1480690454811116,0.175781,-0.686523,0.709473
1480690454835181,0.176758,-0.681641,0.705566
1480690454849222,0.177246,-0.691406,0.709473
1480690454871277,0.176758,-0.705078,0.703613
1480690454893839,0.176758,-0.70459,0.704102
1480690454908876,0.172852,-0.692871,0.703613
1480690454931436,0.17627,-0.682617,0.701172
1480690454953996,0.182129,-0.678711,0.70459
1480690454970541,0.181641,-0.683105,0.706055
1480690455000119,0.172852,-0.697754,0.708496
1480690455022178,0.172363,-0.697754,0.705078
1480690455030199,0.175781,-0.705078,0.712402
1480690455055265,0.174805,-0.696777,0.710449
1480690455075318,0.184082,-0.682617,0.709473
1480690455090358,0.182129,-0.685059,0.708984
1480690455111415,0.181152,-0.689941,0.703613
1480690455135479,0.184082,-0.696289,0.703613
1480690455150519,0.174805,-0.69873,0.705566
1480690455171575,0.172363,-0.705566,0.707031
1480690455194134,0.180176,-0.688477,0.708984
1480690455210177,0.179199,-0.67041,0.699707
1480690455231234,0.177246,-0.677246,0.710938
1480690455254300,0.178223,-0.693848,0.701172
1480690455270338,0.181152,-0.704102,0.70459
1480690455298914,0.172363,-0.703613,0.708008
1480690455330998,0.17334,-0.694824,0.702637
1480690455333506,0.174805,-0.681641,0.708008
1480690455352056,0.177734,-0.682129,0.709473
1480690455374114,0.180664,-0.685059,0.70752
1480690455391660,0.17627,-0.694824,0.708496
1480690455411212,0.176758,-0.70459,0.710449
1480690455433772,0.176758,-0.704102,0.702637
1480690455457835,0.178711,-0.689941,0.703613
1480690455471372,0.177734,-0.681152,0.710938
1480690455493932,0.182617,-0.674316,0.702637
1480690455511980,0.181152,-0.689453,0.709473
1480690455531532,0.174316,-0.707031,0.70752
1480690455556598,0.172363,-0.703125,0.706543
1480690455576652,0.17334,-0.699707,0.710449
1480690455598711,0.176758,-0.687988,0.703613
1480690455613750,0.181152,-0.687988,0.709473
1480690455632300,0.180176,-0.68457,0.70752
1480690455651352,0.176758,-0.693359,0.703613
1480690455673910,0.17334,-0.706543,0.706543
1480690455696470,0.17334,-0.699707,0.707031
1480690455711510,0.17627,-0.695801,0.702148
1480690455734071,0.178223,-0.687012,0.704102
1480690455756130,0.17627,-0.68457,0.713379
1480690455771169,0.174805,-0.688477,0.700195
1480690455801250,0.173828,-0.699219,0.714355
1480690455824812,0.174805,-0.708984,0.707031
1480690455834339,0.180176,-0.702637,0.706543
1480690455853889,0.177734,-0.695313,0.709961
1480690455876450,0.172363,-0.681152,0.704102
1480690455891489,0.183105,-0.681152,0.705078
1480690455914050,0.182617,-0.6875,0.708984
1480690455936614,0.17334,-0.703613,0.708984
1480690455953655,0.174805,-0.703125,0.709473
1480690455973708,0.178223,-0.696289,0.708008
1480690455996267,0.174316,-0.6875,0.707031
1480690456012812,0.179199,-0.677734,0.708008
1480690456033868,0.179688,-0.6875,0.705566
1480690456056431,0.176758,-0.699219,0.697754
1480690456080493,0.179688,-0.705078,0.702637
1480690456094027,0.174316,-0.69873,0.708496
1480690456116587,0.174316,-0.694336,0.708984
1480690456132636,0.179199,-0.688965,0.708496
1480690456153689,0.177734,-0.673828,0.70752
1480690456176246,0.183105,-0.685059,0.714844
1480690456192791,0.175293,-0.699707,0.709473
1480690456213847,0.175293,-0.70459,0.706055
1480690456236411,0.171387,-0.70166,0.700684
1480690456252952,0.171875,-0.691406,0.705566
1480690456274007,0.177734,-0.679688,0.705566
1480690456296566,0.177734,-0.687012,0.705078
1480690456316119,0.180176,-0.691406,0.705566
1480690456333665,0.176758,-0.70459,0.70166
1480690456357733,0.171875,-0.700195,0.712402
1480690456389314,0.176758,-0.694336,0.703125
1480690456393824,0.172363,-0.688477,0.709961
1480690456416385,0.181641,-0.676758,0.70459
1480690456434934,0.186035,-0.684082,0.706055
1480690456453989,0.168945,-0.701172,0.706543
1480690456476544,0.172363,-0.698242,0.701172
1480690456494091,0.17334,-0.701172,0.708496
1480690456513645,0.174316,-0.694824,0.708984
1480690456536206,0.181152,-0.682617,0.704102
1480690456554252,0.181641,-0.679688,0.706543
1480690456574307,0.176758,-0.690918,0.708496
1480690456596363,0.178711,-0.700195,0.707031
1480690456614412,0.177246,-0.698242,0.712402
1480690456635471,0.17334,-0.705566,0.703125
1480690456656522,0.173828,-0.689453,0.70752
1480690456676077,0.181152,-0.680176,0.708984
1480690456694130,0.178711,-0.675293,0.705078
1480690456720193,0.177246,-0.689453,0.708496
1480690456734230,0.174805,-0.703125,0.708984
1480690456753784,0.170898,-0.703125,0.708984
1480690456776341,0.177734,-0.695801,0.709961
1480690456794390,0.176758,-0.688477,0.70459
1480690456813942,0.177734,-0.682617,0.708984
1480690456836503,0.185059,-0.680176,0.709961
1480690456860566,0.174805,-0.6875,0.710938
1480690456881622,0.17627,-0.70166,0.706055
1480690456903682,0.175781,-0.69873,0.705566
1480690456914212,0.17041,-0.697266,0.710449
1480690456935268,0.180176,-0.686523,0.706543
1480690456956321,0.185059,-0.679199,0.710449
1480690456974368,0.174805,-0.688965,0.706543
1480690456996928,0.178223,-0.697266,0.709473
1480690457016482,0.180664,-0.70459,0.710938
1480690457034530,0.172852,-0.703125,0.710449
1480690457055585,0.17627,-0.686523,0.714355
1480690457076140,0.182617,-0.681641,0.711914
1480690457107223,0.179688,-0.680664,0.708984
1480690457115245,0.178223,-0.69043,0.702637
1480690457137803,0.178223,-0.700195,0.704102
1480690457154347,0.177734,-0.701172,0.706055
1480690457183927,0.173828,-0.698242,0.706543
1480690457196459,0.181152,-0.683594,0.710938
1480690457220523,0.181641,-0.668945,0.708008
1480690457236566,0.183594,-0.684082,0.706543
1480690457256117,0.178711,-0.69043,0.701172
1480690457278678,0.17627,-0.710449,0.709961
1480690457298732,0.175293,-0.703613,0.712891
1480690457323798,0.178223,-0.686035,0.713379
1480690457346358,0.181641,-0.669434,0.708984
1480690457356886,0.185547,-0.682617,0.710449
1480690457383958,0.188965,-0.685059,0.711426
1480690457402007,0.180176,-0.695801,0.703613
1480690457417046,0.171387,-0.691406,0.706055
1480690457436097,0.174316,-0.700684,0.711914
1480690457458661,0.176758,-0.682617,0.709473
1480690457476704,0.183594,-0.672363,0.709961
1480690457496256,0.180664,-0.679688,0.708008
1480690457521824,0.18457,-0.697266,0.712402
1480690457536867,0.182129,-0.700684,0.710449
1480690457556416,0.173828,-0.697266,0.710938
1480690457578976,0.179688,-0.686523,0.708984
1480690457603041,0.181641,-0.686035,0.709961
1480690457618081,0.179199,-0.680664,0.710938
1480690457639138,0.186035,-0.68457,0.702637
1480690457662698,0.180176,-0.694336,0.705078
1480690457676736,0.177734,-0.69873,0.708008
1480690457698795,0.178223,-0.700684,0.717773
1480690457716843,0.177246,-0.687012,0.710938
1480690457736397,0.182129,-0.677246,0.713379
1480690457758955,0.182129,-0.682129,0.713867
1480690457777003,0.179199,-0.690918,0.714355
1480690457796554,0.174316,-0.697754,0.708984
1480690457819117,0.175781,-0.69873,0.704102
1480690457837664,0.175293,-0.696289,0.714355
1480690457859221,0.181641,-0.6875,0.708008
1480690457878773,0.183105,-0.672363,0.704102
1480690457896822,0.183594,-0.67334,0.709473
1480690457917877,0.177734,-0.694336,0.712402
1480690457938933,0.174316,-0.701172,0.710938
1480690457956983,0.172363,-0.70166,0.710449
1480690457984055,0.17334,-0.690918,0.708984
1480690457998592,0.178223,-0.687012,0.708496
1480690458016645,0.185547,-0.675781,0.711914
1480690458037698,0.187012,-0.683105,0.712402
1480690458058752,0.180176,-0.70166,0.711914
1480690458081312,0.172363,-0.706543,0.705566
1480690458097858,0.175781,-0.700684,0.708984
1480690458118914,0.180176,-0.687012,0.709961
1480690458137461,0.17627,-0.670898,0.708496
1480690458164032,0.187988,-0.670898,0.709961
1480690458179072,0.178223,-0.698242,0.711426
1480690458197121,0.175293,-0.697754,0.712891
1480690458219181,0.171387,-0.697754,0.71582
1480690458238731,0.172363,-0.690918,0.710449
1480690458257280,0.183105,-0.68457,0.712402
1480690458279339,0.181641,-0.687988,0.711914
1480690458298891,0.181641,-0.685547,0.709961
1480690458324459,0.177734,-0.69043,0.708496
1480690458339500,0.175781,-0.699707,0.708008
1480690458359050,0.174805,-0.696777,0.710449
1480690458384118,0.182617,-0.688477,0.711426
1480690458403686,0.181641,-0.680176,0.70752
1480690458418709,0.176758,-0.68457,0.708984
1480690458436758,0.176758,-0.682617,0.709473
1480690458466838,0.179688,-0.688477,0.710449
1480690458478870,0.172852,-0.702148,0.714355
1480690458497419,0.174316,-0.706543,0.71582
1480690458523990,0.181152,-0.686035,0.709961
1480690458546549,0.18457,-0.675293,0.706543
1480690458556576,0.181641,-0.681152,0.710938
1480690458579136,0.177246,-0.691406,0.709961
1480690458598689,0.178711,-0.702148,0.70459
1480690458616741,0.172363,-0.701172,0.702148
1480690458639299,0.180664,-0.691895,0.70752
1480690458660352,0.185547,-0.677246,0.711914
1480690458676897,0.180176,-0.67627,0.710449
1480690458699456,0.183594,-0.684082,0.712891
1480690458720513,0.177734,-0.700195,0.711426
1480690458741568,0.176758,-0.700684,0.70459
1480690458759115,0.180176,-0.697754,0.70459
1480690458786187,0.179688,-0.691406,0.711914
1480690458806241,0.1875,-0.682617,0.712402
1480690458826795,0.184082,-0.686035,0.714844
1480690458840833,0.180176,-0.6875,0.70752
1480690458861386,0.178711,-0.699707,0.702637
1480690458886956,0.175293,-0.702637,0.711426
1480690458900491,0.179688,-0.694336,0.705566
1480690458921546,0.181152,-0.679688,0.708496
1480690458939093,0.177734,-0.672363,0.708008
1480690458966165,0.180176,-0.682129,0.705078
1480690458990232,0.176758,-0.700684,0.705566
1480690459000757,0.171875,-0.699219,0.709961
1480690459020309,0.173828,-0.70166,0.710449
1480690459053898,0.179199,-0.693848,0.708496
1480690459066933,0.175293,-0.686523,0.708496
1480690459081979,0.179199,-0.684082,0.705566
1480690459101526,0.182617,-0.679688,0.707031
1480690459119573,0.175293,-0.696777,0.709961
1480690459163189,0.173828,-0.703613,0.708008
1480690459167200,0.178711,-0.697266,0.700195
1480690459179232,0.178711,-0.687012,0.709961
1480690459201792,0.176758,-0.686523,0.714355
1480690459238389,0.179199,-0.672852,0.709473
1480690459240897,0.183594,-0.68457,0.709961
1480690459261951,0.17627,-0.70166,0.708496
1480690459281504,0.17041,-0.713379,0.713379
1480690459299551,0.171387,-0.69043,0.715332
1480690459326122,0.18457,-0.680176,0.709961
1480690459348696,0.178223,-0.672363,0.705078
1480690459359210,0.181641,-0.68457,0.703125
1480690459381773,0.187988,-0.699219,0.707031
1480690459408842,0.177734,-0.707031,0.708496
1480690459419370,0.171875,-0.693359,0.703125
1480690459441930,0.175781,-0.678711,0.712402
1480690459461487,0.183594,-0.677734,0.711426
1480690459480534,0.179688,-0.69043,0.713379
1480690459501590,0.185547,-0.687988,0.706543
1480690459523648,0.180664,-0.688965,0.709961
1480690459540192,0.179688,-0.699707,0.708984
1480690459561748,0.169922,-0.703613,0.713867
1480690459582304,0.175781,-0.691406,0.714844
1480690459599350,0.182617,-0.67334,0.711914
1480690459626421,0.182129,-0.682617,0.710449
1480690459641462,0.181152,-0.687988,0.707031
1480690459659007,0.186035,-0.695313,0.702148
1480690459686581,0.178711,-0.687012,0.711426
1480690459709140,0.172852,-0.691406,0.717773
1480690459719168,0.183105,-0.682617,0.711426
1480690459741727,0.183105,-0.674805,0.709961
1480690459770303,0.181641,-0.671875,0.700195
1480690459779328,0.182129,-0.689453,0.704102
1480690459802892,0.18457,-0.704102,0.715332
1480690459821941,0.183594,-0.706543,0.719238
1480690459839989,0.185547,-0.681641,0.717773
1480690459863551,0.181152,-0.669434,0.71875
1480690459882602,0.181152,-0.677734,0.713379
1480690459906666,0.192871,-0.679199,0.703613
1480690459922207,0.183594,-0.70459,0.706055
1480690459942762,0.185547,-0.681641,0.700195
1480690459963819,0.1875,-0.685547,0.710449
1480690459981869,0.182129,-0.670898,0.708984
1480690460002922,0.192871,-0.66748,0.706543
1480690460020468,0.188965,-0.679199,0.713379
1480690460042026,0.18457,-0.688477,0.717773
1480690460071612,0.188477,-0.693848,0.717285
1480690460079125,0.180664,-0.694824,0.71582
1480690460102187,0.17627,-0.686523,0.709961
1480690460131769,0.188965,-0.673828,0.716309
1480690460139285,0.19043,-0.671875,0.713867
1480690460162848,0.190918,-0.671875,0.712891
1480690460190421,0.18457,-0.689453,0.715332
1480690460211477,0.181641,-0.693359,0.717285
1480690460222005,0.188477,-0.688477,0.713867
1480690460253088,0.192383,-0.678223,0.713867
1480690460266122,0.189941,-0.67334,0.708984
1480690460281665,0.193848,-0.67041,0.710449
1480690460303221,0.195801,-0.679199,0.717773
1480690460324276,0.187988,-0.693359,0.722168
1480690460341825,0.187012,-0.695801,0.720215
1480690460377919,0.188965,-0.685547,0.715332
1480690460384436,0.193359,-0.671387,0.713379
1480690460401482,0.193359,-0.666504,0.709961
1480690460426048,0.193359,-0.667969,0.713379
1480690460444597,0.194824,-0.674316,0.714355
1480690460461140,0.1875,-0.692383,0.712891
1480690460489716,0.188965,-0.681641,0.711426
1480690460504758,0.183594,-0.68457,0.719238
1480690460520799,0.19043,-0.671387,0.717285
1480690460543359,0.203125,-0.672852,0.720703
1480690460564415,0.188965,-0.67334,0.713379
1480690460581461,0.189453,-0.681641,0.712402
1480690460603519,0.189941,-0.678711,0.712891
1480690460624575,0.181152,-0.680176,0.715332
1480690460641119,0.187988,-0.678711,0.716309
1480690460663679,0.199219,-0.666992,0.714844
1480690460684735,0.197754,-0.671387,0.711914
1480690460700778,0.184082,-0.679199,0.716797
1480690460723337,0.192383,-0.679199,0.715332
1480690460744394,0.190918,-0.6875,0.725098
1480690460760939,0.183594,-0.6875,0.717773
1480690460789513,0.191895,-0.674805,0.716797
1480690460804554,0.189453,-0.668945,0.717285
1480690460822100,0.196289,-0.669434,0.712891
1480690460844159,0.194336,-0.675781,0.711914
1480690460864713,0.190918,-0.69043,0.716309
1480690460881764,0.183105,-0.691406,0.712402
1480690460910836,0.189941,-0.681641,0.712891
1480690460924873,0.189941,-0.666992,0.708984
1480690460940916,0.188965,-0.657715,0.708984
1480690460963977,0.194824,-0.678711,0.719238
1480690460984533,0.193848,-0.700195,0.717773
1480690461008596,0.183105,-0.695313,0.719727
1480690461023636,0.185059,-0.689941,0.721191
1480690461046196,0.185547,-0.683105,0.718262
1480690461060735,0.191895,-0.67334,0.712402
1480690461083294,0.191895,-0.67627,0.709473
1480690461105855,0.185547,-0.681641,0.717285
1480690461128415,0.187012,-0.697754,0.710938
1480690461143455,0.183594,-0.690918,0.711426
1480690461166517,0.181152,-0.686035,0.714355
1480690461180555,0.1875,-0.670898,0.717285
1480690461203616,0.191406,-0.672852,0.711914
1480690461234697,0.186035,-0.680176,0.717773
1480690461240213,0.182129,-0.687012,0.713867
1480690461265282,0.184082,-0.696289,0.707031
1480690461293855,0.183105,-0.701172,0.712402
1480690461301878,0.184082,-0.688965,0.70752
1480690461323433,0.189453,-0.669922,0.706543
1480690461345994,0.182617,-0.673828,0.715332
1480690461360533,0.178711,-0.686035,0.713867
1480690461383595,0.188965,-0.696289,0.713867
1480690461406155,0.180664,-0.703125,0.708496
1480690461420191,0.179199,-0.69043,0.703613
1480690461450772,0.188477,-0.674805,0.708008
1480690461496393,0.188477,-0.675293,0.713379
1480690461498900,0.182617,-0.67627,0.709961
1480690461504916,0.187012,-0.682129,0.711914
1480690461525972,0.178223,-0.696289,0.716309
1480690461548532,0.175293,-0.702148,0.713867
1480690461564074,0.187988,-0.694336,0.716309
1480690461586634,0.183594,-0.676758,0.710938
1480690461607690,0.185547,-0.673828,0.713379
1480690461623231,0.184082,-0.685547,0.709473
1480690461645790,0.182129,-0.689941,0.707031
1480690461666849,0.187012,-0.692383,0.70752
1480690461683391,0.178711,-0.692871,0.711426
1480690461713471,0.178223,-0.692871,0.715332
1480690461727007,0.180176,-0.682617,0.712891
1480690461744553,0.186035,-0.669434,0.708496
1480690461775135,0.184082,-0.687988,0.713379
1480690461786665,0.179688,-0.703125,0.718262
1480690461803711,0.181152,-0.706055,0.712402
1480690461826772,0.17627,-0.692383,0.710938
1480690461847326,0.18457,-0.672852,0.701172
1480690461870890,0.188965,-0.672852,0.713379
1480690461885930,0.182129,-0.682129,0.70459
1480690461907987,0.182129,-0.696289,0.708496
1480690461924031,0.17627,-0.70459,0.709473
1480690461947093,0.177734,-0.688477,0.70752
1480690461967145,0.183594,-0.684082,0.71582
1480690461983689,0.178711,-0.689453,0.713867
1480690462013268,0.187988,-0.681152,0.702637
1480690462041843,0.186035,-0.684082,0.71582
1480690462052372,0.176758,-0.683594,0.710938
1480690462073427,0.170898,-0.70459,0.70752
1480690462088468,0.178223,-0.702148,0.714844
1480690462103508,0.184082,-0.685547,0.712891
1480690462132585,0.180664,-0.674805,0.708984
1480690462149129,0.181152,-0.678223,0.711426
1480690462163168,0.18457,-0.680176,0.708984
1480690462185726,0.179688,-0.690918,0.703125
1480690462208286,0.174316,-0.703613,0.709473
1480690462222825,0.179688,-0.706055,0.709473
1480690462245886,0.177734,-0.691895,0.718262
1480690462268948,0.188477,-0.668457,0.70166
1480690462282985,0.185059,-0.678711,0.709961
1480690462306046,0.181641,-0.69043,0.708496
1480690462332617,0.186035,-0.703125,0.70459
1480690462351668,0.171875,-0.70166,0.706055
1480690462366207,0.180176,-0.688477,0.710938
1480690462388767,0.187988,-0.670898,0.710449
1480690462409322,0.1875,-0.671875,0.709961
1480690462426366,0.180176,-0.693848,0.706055
1480690462448425,0.181152,-0.701172,0.706055
1480690462463465,0.174805,-0.693359,0.70752
1480690462486025,0.178223,-0.696289,0.713867
1480690462508585,0.176758,-0.692383,0.709473
1480690462529641,0.181152,-0.681152,0.713379
1480690462545684,0.181152,-0.679199,0.70752
1480690462568244,0.184082,-0.691406,0.710449
1480690462606846,0.182129,-0.699219,0.709473
1480690462609354,0.173828,-0.701172,0.709961
1480690462629908,0.176758,-0.691406,0.706055
1480690462656979,0.178711,-0.681641,0.702637
1480690462666004,0.185547,-0.672852,0.710938
1480690462689065,0.182129,-0.680176,0.706543
1480690462711123,0.178711,-0.696777,0.703125
1480690462726163,0.177734,-0.703613,0.710938
1480690462748222,0.172852,-0.700684,0.711426
1480690462770783,0.174805,-0.693848,0.708496
1480690462785823,0.185059,-0.683105,0.705078
1480690462808383,0.187012,-0.681152,0.708008
1480690462829439,0.181641,-0.687988,0.702637
1480690462847490,0.172363,-0.700195,0.70752
1480690462874558,0.177734,-0.70459,0.708984
1480690462906643,0.17627,-0.699707,0.711426
1480690462909151,0.180664,-0.689941,0.699707
1480690462934216,0.183105,-0.680664,0.710449
1480690462968809,0.179688,-0.689941,0.704102
1480690462971817,0.183105,-0.694824,0.708008
1480690462988360,0.172363,-0.710449,0.702637
1480690463018441,0.173828,-0.701172,0.702637
1480690463025961,0.180664,-0.706055,0.71875
1480690463048521,0.17334,-0.687988,0.706543
1480690463072584,0.183105,-0.682129,0.708984
1480690463085119,0.183105,-0.682129,0.705078
1480690463108179,0.178223,-0.702637,0.710449
1480690463130743,0.172852,-0.711426,0.703125
1480690463162323,0.178223,-0.701172,0.713867
1480690463181879,0.180176,-0.691406,0.708496
1480690463190903,0.177246,-0.69043,0.712891
1480690463205438,0.173828,-0.686523,0.728516
1480690463228499,0.188965,-0.702148,0.746094
1480690463251061,0.182129,-0.708984,0.754883
1480690463265097,0.165039,-0.703613,0.740234
1480690463296179,0.178223,-0.686523,0.714844
1480690463311721,0.193359,-0.667969,0.700684
1480690463326260,0.194336,-0.673828,0.691895
1480690463349321,0.178223,-0.662109,0.696777
1480690463370878,0.175293,-0.670898,0.69873
1480690463385417,0.19043,-0.661621,0.699707
1480690463409982,0.20166,-0.66748,0.704102
1480690463438558,0.196289,-0.683594,0.713867
1480690463453598,0.191895,-0.677734,0.716309
1480690463469641,0.193359,-0.65918,0.714844
1480690463491198,0.186523,-0.662109,0.712402
1480690463511754,0.185059,-0.678223,0.714844
1480690463528297,0.18457,-0.692871,0.720215
1480690463551861,0.195801,-0.672852,0.714355
1480690463571913,0.197266,-0.663574,0.713867
1480690463588458,0.194824,-0.675293,0.721191
1480690463612019,0.203613,-0.683594,0.728516
1480690463632073,0.193848,-0.68457,0.730469
1480690463648119,0.179199,-0.684082,0.729004
1480690463670676,0.179688,-0.689453,0.72998
1480690463691731,0.178223,-0.691895,0.733887
1480690463708777,0.180176,-0.6875,0.73877
1480690463731837,0.181152,-0.669434,0.72998
1480690463759411,0.200684,-0.661621,0.724121
1480690463768436,0.189453,-0.681641,0.722656
1480690463790995,0.185059,-0.692871,0.714355
1480690463812051,0.197754,-0.673828,0.705078
1480690463828595,0.196289,-0.665039,0.708008
1480690463851155,0.206055,-0.660156,0.70752
1480690463872211,0.210938,-0.651855,0.708984
1480690463888253,0.192383,-0.661621,0.717285
1480690463910814,0.187012,-0.674805,0.718262
1480690463934376,0.192383,-0.681641,0.720703
1480690463948415,0.184082,-0.677246,0.716797
1480690463986515,0.18457,-0.669922,0.713867
1480690463993533,0.191895,-0.666016,0.721191
1480690464008574,0.190918,-0.672363,0.71875
1480690464031136,0.187988,-0.678711,0.71875
1480690464060712,0.180176,-0.682617,0.720215
1480690464067731,0.181641,-0.687988,0.71582
1480690464098315,0.201172,-0.689453,0.717285
1480690464114359,0.206055,-0.674316,0.716309
1480690464128392,0.196777,-0.657227,0.719727
1480690464151955,0.199707,-0.677246,0.714844
1480690464174014,0.196777,-0.69043,0.716309
1480690464187550,0.196289,-0.689453,0.716309
1480690464211112,0.186523,-0.696777,0.720703
1480690464241192,0.188965,-0.680176,0.713867
1480690464247712,0.196289,-0.669434,0.717285
1480690464272275,0.194824,-0.665039,0.720703
1480690464293832,0.191895,-0.677734,0.725098
1480690464307870,0.189941,-0.692871,0.726074
1480690464330932,0.189453,-0.696777,0.726563
1480690464354494,0.195313,-0.687988,0.725586
1480690464368030,0.193359,-0.666992,0.721191
1480690464391091,0.195313,-0.663574,0.724121
1480690464413651,0.201172,-0.660156,0.724609
1480690464434206,0.199707,-0.666992,0.722656
1480690464458269,0.181152,-0.683105,0.732422
1480690464475314,0.18457,-0.680664,0.737305
1480690464494366,0.179199,-0.682129,0.737305
1480690464510910,0.181641,-0.665527,0.730957
1480690464550515,0.19873,-0.651855,0.721191
1480690464554525,0.200195,-0.644531,0.716309
1480690464571070,0.199219,-0.645996,0.712891
1480690464593127,0.199219,-0.653809,0.709961
1480690464614687,0.197266,-0.658691,0.720703
1480690464630731,0.207031,-0.661621,0.726563
1480690464653288,0.208008,-0.642578,0.727539
1480690464674344,0.203125,-0.624023,0.722656
1480690464691891,0.20752,-0.637695,0.731934
1480690464713448,0.19873,-0.665527,0.73877
1480690464736009,0.189453,-0.674316,0.730957
1480690464764588,0.195801,-0.675781,0.73291
1480690464774110,0.193359,-0.674316,0.73584
1480690464794664,0.191895,-0.654785,0.732422
1480690464824744,0.200684,-0.64502,0.741699
1480690464833267,0.191895,-0.662598,0.741211
1480690464855827,0.178223,-0.678711,0.742188
1480690464871370,0.168945,-0.680664,0.737793
1480690464893427,0.185547,-0.666992,0.733887
1480690464915986,0.188965,-0.654785,0.73877
1480690464931029,0.189453,-0.649414,0.73584
1480690464953587,0.202637,-0.65332,0.723633
1480690464984669,0.201172,-0.65332,0.723633
1480690464990184,0.205566,-0.663574,0.728027
1480690465013245,0.212402,-0.671387,0.726563
1480690465044328,0.19043,-0.67334,0.740234
1480690465052851,0.175293,-0.64502,0.734375
1480690465073907,0.199707,-0.633789,0.726563
1480690465096970,0.206543,-0.650879,0.724609
1480690465117021,0.202148,-0.680664,0.721191
1480690465133565,0.201172,-0.67627,0.718262
1480690465156126,0.196289,-0.647461,0.719727
1480690465170163,0.189453,-0.625,0.718262
1480690465193224,0.190918,-0.625488,0.725586
1480690465215784,0.196289,-0.639648,0.728516
1480690465238344,0.170898,-0.676758,0.748047
1480690465253383,0.158691,-0.710449,0.764648
1480690465292487,0.177734,-0.696289,0.765137
1480690465297002,0.180176,-0.675293,0.765137
1480690465321063,0.182617,-0.665527,0.745117
1480690465342120,0.193359,-0.652344,0.73291
1480690465357160,0.201172,-0.660156,0.724121
1480690465373204,0.194336,-0.668945,0.709961
1480690465395763,0.193359,-0.678711,0.705078
1480690465416818,0.193359,-0.665039,0.708008
1480690465433362,0.191895,-0.661133,0.718262
1480690465455923,0.186523,-0.671875,0.721191
1480690465476984,0.192383,-0.658203,0.724609
1480690465493522,0.192383,-0.662109,0.726074
1480690465516082,0.18457,-0.680664,0.737793
1480690465544659,0.186035,-0.678223,0.730957
1480690465553682,0.18457,-0.672363,0.727539
1480690465576242,0.18457,-0.663574,0.729492
1480690465598301,0.199707,-0.657715,0.725098
1480690465613341,0.191406,-0.657227,0.719238
1480690465643421,0.184082,-0.668457,0.716797
1480690465656960,0.187988,-0.682129,0.715332
1480690465681022,0.192383,-0.677246,0.720703
1480690465703581,0.186035,-0.669922,0.71875
1480690465724637,0.191406,-0.660645,0.721191
1480690465733159,0.196289,-0.658203,0.722168
1480690465763744,0.188477,-0.675293,0.722168
1480690465776776,0.188477,-0.682129,0.725586
1480690465794824,0.183105,-0.685547,0.725098
1480690465815880,0.177246,-0.687988,0.728516
1480690465845960,0.184082,-0.676758,0.720215
1480690465853480,0.191895,-0.671875,0.724121
1480690465876541,0.189941,-0.668457,0.716797
1480690465898600,0.188477,-0.671387,0.725586
1480690465919656,0.186035,-0.683594,0.724121
1480690465935698,0.186523,-0.691406,0.728027
1480690465958258,0.185059,-0.682617,0.719727
1480690465986834,0.187988,-0.67041,0.713867
1480690465995860,0.193848,-0.672363,0.716309
1480690466018418,0.187988,-0.679199,0.717773
1480690466040978,0.189453,-0.680664,0.720703
1480690466071059,0.187012,-0.677734,0.71875
1480690466078579,0.178223,-0.691406,0.723145
1480690466101138,0.191895,-0.675781,0.712402
1480690466116178,0.193848,-0.66748,0.713867
1480690466138237,0.192383,-0.670898,0.72168
1480690466152776,0.187988,-0.677246,0.716309
1480690466175837,0.193848,-0.677734,0.72168
1480690466198396,0.185547,-0.682129,0.720703
1480690466213941,0.179199,-0.688477,0.71582
1480690466235998,0.194824,-0.677246,0.719727
1480690466258559,0.193359,-0.666504,0.716309
1480690466272595,0.191406,-0.660156,0.721191
1480690466295655,0.187988,-0.678223,0.720215
1480690466318216,0.181152,-0.692383,0.717285
1480690466346795,0.1875,-0.689453,0.715332
1480690466356819,0.180176,-0.683594,0.717285
1480690466378376,0.185547,-0.676758,0.714355
1480690466399432,0.200195,-0.665039,0.721191
1480690466415976,0.200684,-0.666016,0.712402
1480690466438536,0.186523,-0.677734,0.714844
1480690466460093,0.187012,-0.685059,0.71875
1480690466476637,0.194824,-0.685059,0.721191
1480690466498194,0.185547,-0.687012,0.721191
1480690466519249,0.188965,-0.662598,0.712402
1480690466535795,0.193848,-0.665039,0.717773
1480690466558354,0.189941,-0.676758,0.714844
1480690466579410,0.191406,-0.679199,0.71582
1480690466595956,0.18457,-0.680664,0.718262
1480690466618514,0.180664,-0.681641,0.724609
1480690466639573,0.184082,-0.685059,0.722656
1480690466656114,0.190918,-0.657227,0.728027
1480690466678172,0.187988,-0.658691,0.71582
1480690466699229,0.185059,-0.685547,0.716309
1480690466716775,0.192383,-0.696777,0.719727
1480690466738333,0.190918,-0.689453,0.713379
1480690466761394,0.180664,-0.66748,0.714844
1480690466777437,0.185547,-0.669922,0.720703
1480690466798492,0.190918,-0.671875,0.72168
1480690466822557,0.194336,-0.671875,0.720703
1480690466851133,0.18457,-0.684082,0.716309
1480690466858653,0.188477,-0.697266,0.719727
1480690466880713,0.181641,-0.687012,0.715332
1480690466901769,0.181641,-0.678711,0.71582
1480690466925831,0.186035,-0.677246,0.720215
1480690466940872,0.193848,-0.673828,0.717285
1480690466955410,0.191895,-0.680664,0.716797
1480690466978472,0.182129,-0.682129,0.716309
1480690467001032,0.185547,-0.681152,0.713867
1480690467015069,0.179199,-0.694336,0.72998
1480690467038632,0.186523,-0.681152,0.723633
1480690467060689,0.186523,-0.66748,0.723633
1480690467075228,0.187012,-0.660156,0.710938
1480690467098290,0.188477,-0.676758,0.71582
1480690467128372,0.183594,-0.687012,0.708984
1480690467135389,0.181152,-0.687988,0.712891
1480690467158449,0.181641,-0.683105,0.713867
1480690467181012,0.184082,-0.67627,0.733887
1480690467195048,0.187988,-0.67334,0.730469
1480690467218610,0.191406,-0.666016,0.726563
1480690467241170,0.185547,-0.67334,0.722168
1480690467261724,0.187988,-0.686523,0.720215
1480690467278268,0.18457,-0.69043,0.721191
1480690467301329,0.175293,-0.681152,0.71582
1480690467321884,0.192383,-0.662109,0.715332
1480690467344445,0.192871,-0.660156,0.720215
1480690467361991,0.178711,-0.672852,0.722168
1480690467382044,0.178711,-0.680176,0.716309
1480690467398588,0.196289,-0.687988,0.723633
1480690467421148,0.180176,-0.689453,0.724121
1480690467449223,0.175293,-0.681152,0.72168
1480690467458247,0.192383,-0.653809,0.719238
1480690467481810,0.186523,-0.67334,0.716309
1480690467501863,0.187012,-0.683105,0.708984
1480690467518407,0.187012,-0.691406,0.720703
1480690467540967,0.178711,-0.688965,0.719238
1480690467562023,0.182617,-0.682617,0.714844
1480690467586087,0.19043,-0.66748,0.715332
1480690467601128,0.185059,-0.666504,0.723145
1480690467622183,0.187012,-0.671387,0.725098
1480690467651761,0.193359,-0.69043,0.720703
1480690467660786,0.177246,-0.695801,0.717285
1480690467681843,0.186035,-0.67627,0.713867
1480690467705405,0.184082,-0.670898,0.717285
1480690467721948,0.181152,-0.672852,0.719727
1480690467743506,0.188965,-0.672852,0.719238
1480690467764563,0.192383,-0.67627,0.719238
1480690467781607,0.181641,-0.685059,0.714844
1480690467804167,0.180176,-0.686035,0.724609
1480690467817703,0.172363,-0.689941,0.71875
1480690467840765,0.187988,-0.665527,0.716797
1480690467863826,0.19043,-0.660156,0.721191
1480690467877863,0.181641,-0.672852,0.715332
1480690467900925,0.186035,-0.688965,0.721191
1480690467929501,0.184082,-0.693848,0.719727
1480690467938022,0.182617,-0.685547,0.722656
1480690467961085,0.179688,-0.68457,0.720215
1480690467985149,0.188965,-0.671387,0.716797
1480690467998183,0.192871,-0.666992,0.713867
1480690468021745,0.185059,-0.67334,0.712891
1480690468043302,0.182129,-0.680176,0.721191
1480690468057841,0.179688,-0.685547,0.718262
1480690468080905,0.174316,-0.686523,0.725098
1480690468103463,0.178223,-0.683594,0.722656
1480690468118001,0.185547,-0.666992,0.723145
1480690468141064,0.184082,-0.667969,0.717285
1480690468163637,0.18457,-0.679199,0.718262
1480690468184177,0.179688,-0.685547,0.715332
1480690468201724,0.179688,-0.689453,0.717285
1480690468224284,0.176758,-0.689453,0.725586
1480690468245842,0.180176,-0.674316,0.719238
1480690468262385,0.18457,-0.671387,0.718262
1480690468283441,0.18457,-0.671387,0.71875
1480690468313522,0.182617,-0.685547,0.719727
1480690468321041,0.183105,-0.695313,0.722168
1480690468343601,0.181152,-0.6875,0.720215
1480690468364657,0.180664,-0.673828,0.71875
1480690468382204,0.179199,-0.678223,0.719727
1480690468403260,0.187988,-0.667969,0.721191
1480690468424316,0.185059,-0.681152,0.711426
1480690468440860,0.177246,-0.688965,0.717285
1480690468463422,0.182617,-0.685059,0.716309
1480690468484476,0.181641,-0.682617,0.716797
1480690468500519,0.182129,-0.679199,0.714355
1480690468523078,0.187012,-0.680664,0.71875
1480690468544636,0.18457,-0.669922,0.716797
1480690468560682,0.187988,-0.679199,0.711426
1480690468583238,0.179688,-0.685547,0.718262
1480690468604796,0.179199,-0.703125,0.720703
1480690468621339,0.183594,-0.683105,0.716797
1480690468650919,0.182617,-0.679199,0.716797
1480690468665959,0.185059,-0.662598,0.714355
1480690468681000,0.183594,-0.67334,0.714844
1480690468704095,0.184082,-0.681641,0.717773
1480690468733639,0.179688,-0.696289,0.718262
1480690468741159,0.182129,-0.694824,0.721191
1480690468763721,0.182617,-0.684082,0.717285
1480690468785777,0.18457,-0.668457,0.710449
1480690468800816,0.186035,-0.66748,0.715332
1480690468824882,0.178223,-0.680176,0.720215
1480690468845938,0.174805,-0.68457,0.721191
1480690468860476,0.179199,-0.692383,0.710938
1480690468883537,0.177734,-0.684082,0.708984
1480690468906097,0.186035,-0.677734,0.71875
1480690468927153,0.181152,-0.670898,0.722656
1480690468943195,0.182129,-0.674316,0.716797
1480690468965756,0.180664,-0.681152,0.719727
1480690468988316,0.182129,-0.683594,0.714844
1480690469009372,0.179688,-0.69043,0.709473
1480690469031933,0.180664,-0.688477,0.721191
1480690469040454,0.179688,-0.677734,0.714844
1480690469063516,0.188965,-0.671387,0.716797
1480690469086076,0.187988,-0.67334,0.717285
1480690469100113,0.183105,-0.680664,0.712402
1480690469124686,0.177734,-0.692383,0.709473
1480690469153370,0.179199,-0.697754,0.713867
1480690469168411,0.181641,-0.684082,0.719727
1480690469183450,0.181152,-0.671387,0.71875
1480690469206010,0.182129,-0.666504,0.714355
1480690469227066,0.186035,-0.679199,0.719238
1480690469249626,0.17334,-0.697266,0.717773
1480690469265669,0.180664,-0.689453,0.71582
1480690469286725,0.180176,-0.684082,0.713867
1480690469303269,0.183105,-0.679199,0.716309
1480690469325828,0.181641,-0.677246,0.722168
1480690469346888,0.178223,-0.678711,0.714355
1480690469369445,0.185547,-0.678223,0.713867
1480690469386492,0.183105,-0.683594,0.712402
1480690469407045,0.182617,-0.694336,0.719238
1480690469423589,0.176758,-0.693848,0.722656
1480690469452166,0.177246,-0.680176,0.712891
1480690469467205,0.18457,-0.657227,0.715332
1480690469483249,0.177246,-0.669922,0.717773
1480690469506810,0.179688,-0.691895,0.713379
1480690469528368,0.184082,-0.702637,0.71582
1480690469543909,0.175781,-0.704102,0.71875
1480690469566469,0.178711,-0.681152,0.723145
1480690469594543,0.18457,-0.671875,0.723633
1480690469603066,0.181152,-0.67334,0.718262
1480690469626127,0.183594,-0.685059,0.713867
1480690469649691,0.186035,-0.687012,0.712891
1480690469663229,0.180176,-0.691406,0.718262
1480690469685787,0.173828,-0.686035,0.715332
1480690469708345,0.177734,-0.686035,0.719238
1480690469730908,0.184082,-0.674805,0.713867
1480690469760985,0.182129,-0.671387,0.712402
1480690469768509,0.180176,-0.6875,0.714355
1480690469783045,0.184082,-0.689453,0.718262
1480690469805604,0.177734,-0.700684,0.723145
1480690469828164,0.178711,-0.683105,0.713867
1480690469844207,0.184082,-0.678223,0.716797
1480690469865764,0.183594,-0.665527,0.716309
1480690469904869,0.187988,-0.676758,0.714355
1480690469909380,0.177734,-0.688965,0.712402
1480690469925924,0.177246,-0.698242,0.713379
1480690469949487,0.177734,-0.690918,0.717285
1480690469963027,0.178223,-0.685059,0.724609
1480690469986085,0.178223,-0.675781,0.718262
1480690470008669,0.187012,-0.66748,0.719238
1480690470023684,0.191895,-0.676758,0.717285
1480690470046749,0.177246,-0.695801,0.713867
1480690470068304,0.173828,-0.69043,0.71875
1480690470090362,0.179199,-0.686523,0.717285
1480690470105903,0.17627,-0.683594,0.720215
1480690470128465,0.178223,-0.67627,0.711426
1480690470150021,0.185547,-0.67334,0.712891
1480690470166063,0.181641,-0.677246,0.711426
1480690470188624,0.177734,-0.690918,0.710938
1480690470209178,0.179688,-0.696289,0.71875
1480690470225722,0.17627,-0.694336,0.716797
1480690470263823,0.178223,-0.67334,0.718262
1480690470269839,0.187012,-0.666992,0.716797
1480690470286884,0.18457,-0.669434,0.721191
1480690470314458,0.177246,-0.681641,0.722168
1480690470337018,0.18457,-0.687012,0.71582
1480690470346045,0.178223,-0.689941,0.712891
1480690470368602,0.178223,-0.686523,0.717773
1480690470389657,0.182129,-0.672852,0.718262
1480690470405700,0.185059,-0.673828,0.71875
1480690470428261,0.179199,-0.675293,0.718262
1480690470451322,0.178223,-0.692871,0.719238
1480690470466362,0.179199,-0.69873,0.717773
1480690470488421,0.182129,-0.688477,0.71582
1480690470509476,0.181641,-0.67627,0.717773
1480690470526020,0.1875,-0.671387,0.708984
1480690470555598,0.186035,-0.670898,0.712402
1480690470571141,0.183594,-0.681641,0.713867
1480690470585679,0.178223,-0.689453,0.715332
1480690470614255,0.182617,-0.695313,0.719727
1480690470631300,0.18457,-0.689941,0.717773
1480690470646843,0.185059,-0.674316,0.724609
1480690470668399,0.185547,-0.66748,0.717285
1480690470691460,0.188477,-0.67041,0.714355
1480690470707003,0.182617,-0.686523,0.717285
1480690470728560,0.182617,-0.693359,0.709961
1480690470751118,0.180664,-0.687012,0.719238
1480690470765657,0.179199,-0.678711,0.71875
1480690470788217,0.187012,-0.669922,0.719238
1480690470810778,0.185547,-0.666504,0.716797
1480690470833839,0.1875,-0.675293,0.711914
1480690470848377,0.186035,-0.686523,0.722656
1480690470870939,0.181152,-0.693359,0.721191
1480690470891994,0.180664,-0.688965,0.717285
1480690470923577,0.18457,-0.672852,0.717773
1480690470931097,0.190918,-0.660156,0.720703
1480690470953156,0.187988,-0.667969,0.723145
1480690470968196,0.184082,-0.685547,0.722168
1480690470990756,0.1875,-0.68457,0.719727
1480690471005295,0.185059,-0.686035,0.718262
1480690471028357,0.179199,-0.679199,0.720215
1480690471050916,0.188965,-0.666992,0.722168
1480690471071972,0.187988,-0.66748,0.723633
1480690471088518,0.186523,-0.66748,0.724609
1480690471111579,0.188477,-0.67334,0.719727
1480690471132132,0.189941,-0.685547,0.717773
1480690471148175,0.188477,-0.681641,0.716797
1480690471171737,0.180664,-0.682617,0.717285
1480690471193294,0.181152,-0.678711,0.719238
1480690471208335,0.19043,-0.662109,0.724121
1480690471230895,0.190918,-0.65918,0.717773
1480690471253456,0.188965,-0.680664,0.71582
1480690471277017,0.181152,-0.696289,0.724121
1480690471291055,0.186523,-0.67627,0.726074
1480690471312111,0.189453,-0.666504,0.716797
1480690471334670,0.189941,-0.660645,0.725098
1480690471350714,0.194336,-0.663086,0.724609
1480690471373274,0.183594,-0.674316,0.721191
1480690471388815,0.17627,-0.6875,0.723633
1480690471411375,0.182617,-0.68457,0.727051
1480690471431930,0.184082,-0.677734,0.723633
1480690471448473,0.191895,-0.666992,0.727051
1480690471471033,0.193848,-0.656738,0.727539
1480690471493092,0.1875,-0.67041,0.725098
1480690471509636,0.186523,-0.673828,0.724609
1480690471530692,0.189941,-0.686523,0.727539
1480690471568794,0.185547,-0.683105,0.71875
1480690471571300,0.184082,-0.67334,0.722656
1480690471591353,0.197754,-0.651855,0.72168
1480690471613913,0.195801,-0.65332,0.71582
1480690471627951,0.190918,-0.660156,0.717773
1480690471651013,0.187988,-0.678711,0.723633
1480690471673572,0.183105,-0.687012,0.723633
1480690471696135,0.187988,-0.679688,0.726563
1480690471712678,0.185547,-0.666992,0.726563
1480690471733230,0.187012,-0.663086,0.730469
1480690471747769,0.194336,-0.664551,0.728027
1480690471770831,0.182129,-0.677734,0.72998
1480690471793391,0.182617,-0.684082,0.722656
1480690471808932,0.194336,-0.683105,0.719238
1480690471830991,0.183105,-0.674316,0.724121
1480690471860569,0.184082,-0.66748,0.719727
1480690471869092,0.191406,-0.65332,0.723145
1480690471891150,0.189941,-0.661621,0.724121
1480690471913211,0.188477,-0.681152,0.719727
1480690471927748,0.182129,-0.683105,0.722168
1480690471950809,0.184082,-0.683105,0.727051
1480690471980890,0.182617,-0.677734,0.731445
1480690472001947,0.192871,-0.656738,0.728027
1480690472016484,0.187012,-0.65918,0.729004
1480690472040046,0.181641,-0.678711,0.720703
1480690472062106,0.191406,-0.680176,0.717773
1480690472070750,0.188965,-0.678711,0.717285
1480690472093187,0.179688,-0.677734,0.71875
1480690472114245,0.187012,-0.666016,0.721191
1480690472145828,0.196289,-0.663574,0.720215
1480690472153347,0.18457,-0.659668,0.71875
1480690472174404,0.184082,-0.674316,0.72168
1480690472190947,0.18457,-0.6875,0.725586
1480690472213508,0.191406,-0.689941,0.723145
1480690472234563,0.181641,-0.677246,0.719238
1480690472252110,0.181641,-0.663574,0.722168
1480690472282692,0.195313,-0.663086,0.719238
1480690472294223,0.191406,-0.667969,0.719238
1480690472310766,0.183594,-0.678223,0.725098
1480690472339845,0.182617,-0.689453,0.719238
1480690472371427,0.182129,-0.68457,0.724121
1480690472373934,0.188965,-0.664551,0.721191
1480690472393486,0.185547,-0.663086,0.727539
1480690472416047,0.186035,-0.668457,0.719727
1480690472431090,0.1875,-0.674316,0.724121
1480690472453144,0.180176,-0.683105,0.721191
1480690472475705,0.179688,-0.678223,0.712891
1480690472490745,0.178711,-0.690918,0.723145
1480690472513307,0.186035,-0.670898,0.71875
1480690472536368,0.190918,-0.660645,0.720703
1480690472556920,0.18457,-0.656738,0.720215
1480690472573966,0.188965,-0.673828,0.723633
1480690472596526,0.184082,-0.687988,0.719727
1480690472618585,0.182129,-0.684082,0.723633
1480690472639141,0.181641,-0.677246,0.720703
1480690472655683,0.181641,-0.664551,0.729004
1480690472676740,0.185059,-0.667969,0.724121
1480690472701806,0.182617,-0.675293,0.71875
1480690472715844,0.188965,-0.677246,0.724609
1480690472730382,0.180664,-0.684082,0.724609
1480690472754446,0.177246,-0.686523,0.731934
1480690472776003,0.181641,-0.682617,0.723633
1480690472790040,0.188477,-0.665527,0.719238
1480690472813603,0.1875,-0.67041,0.719727
1480690472836164,0.18457,-0.674316,0.719727
1480690472852707,0.183594,-0.678711,0.718262
1480690472873262,0.179688,-0.686523,0.720703
1480690472895824,0.180176,-0.688477,0.716797
1480690472925902,0.180176,-0.66748,0.722168
1480690472933423,0.181641,-0.661621,0.723145
1480690472955982,0.183105,-0.66748,0.720703
1480690472979549,0.186523,-0.684082,0.711426
1480690472995086,0.178223,-0.694824,0.717773
1480690473015641,0.179688,-0.685547,0.71582
1480690473036698,0.181152,-0.674316,0.722168
1480690473053240,0.175293,-0.67627,0.723633
1480690473075801,0.188965,-0.662598,0.72168
1480690473096857,0.191406,-0.669922,0.723633
1480690473113401,0.17627,-0.682617,0.723633
1480690473135961,0.182129,-0.693848,0.725098
1480690473174062,0.175293,-0.690918,0.729492
1480690473176570,0.179688,-0.67627,0.717773
1480690473203140,0.179199,-0.67334,0.725586
1480690473216676,0.18457,-0.668457,0.716797
1480690473233220,0.18457,-0.669922,0.716309
1480690473255780,0.177246,-0.68457,0.723633
1480690473276835,0.174316,-0.687988,0.719238
1480690473294384,0.177246,-0.680176,0.713379
1480690473315940,0.178223,-0.677734,0.723145
1480690473337052,0.182129,-0.66748,0.724609
1480690473353546,0.188965,-0.664551,0.711426
1480690473376608,0.180176,-0.683594,0.723145
1480690473398165,0.182129,-0.690918,0.717773
1480690473419220,0.180664,-0.688965,0.723145
1480690473445290,0.17041,-0.678711,0.71875
1480690473458324,0.179199,-0.672363,0.72168
1480690473473366,0.179688,-0.67334,0.714355
1480690473496429,0.187012,-0.669922,0.714355
1480690473518485,0.185059,-0.677734,0.721191
1480690473533023,0.175293,-0.693359,0.720703
1480690473556084,0.176758,-0.691406,0.726074
1480690473585665,0.179688,-0.67627,0.726074
1480690473592681,0.175781,-0.678223,0.720703
1480690473621759,0.189941,-0.670898,0.712402
1480690473638303,0.18457,-0.673828,0.717285
1480690473652842,0.174805,-0.685547,0.71875
1480690473675903,0.175293,-0.69043,0.722168
1480690473704479,0.181641,-0.682617,0.722656
1480690473727039,0.177734,-0.669922,0.722656
1480690473742079,0.179199,-0.659668,0.720215
1480690473758623,0.185547,-0.668945,0.719727
1480690473772660,0.178711,-0.686035,0.721191
1480690473797226,0.178711,-0.685059,0.717285
1480690473818282,0.174805,-0.691895,0.725098
1480690473832820,0.170898,-0.687012,0.724121
1480690473846357,0.186035,-0.670898,0.72168
1480690473861397,0.186523,-0.66748,0.723633
1480690473891476,0.182129,-0.676758,0.72168
1480690473903509,0.177246,-0.685059,0.721191
1480690473924063,0.17627,-0.694824,0.719238
1480690473954143,0.177246,-0.684082,0.714844
1480690473961664,0.183105,-0.66748,0.714355
1480690473981216,0.18457,-0.669434,0.71582
1480690474003776,0.17627,-0.678223,0.727539
1480690474022825,0.180664,-0.677734,0.724609
1480690474048896,0.18457,-0.685059,0.719727
1480690474063936,0.177734,-0.6875,0.720703
1480690474089002,0.177734,-0.690918,0.723633
1480690474108554,0.192383,-0.66748,0.715332
1480690474123594,0.185059,-0.665039,0.71582
1480690474146158,0.179688,-0.671387,0.712891
1480690474170217,0.181641,-0.680664,0.720215
1480690474183753,0.179199,-0.686523,0.722168
1480690474206314,0.174316,-0.687988,0.718262
1480690474222857,0.180664,-0.680176,0.719238
1480690474259957,0.183594,-0.669922,0.719238
1480690474274498,0.185547,-0.67041,0.718262
1480690474284021,0.179199,-0.677246,0.716797
1480690474303573,0.186035,-0.682129,0.719727
1480690474335659,0.175781,-0.692871,0.725098
1480690474342676,0.172363,-0.691406,0.717285
1480690474363732,0.182617,-0.685547,0.721191
1480690474389300,0.185547,-0.671875,0.722656
1480690474401332,0.1875,-0.66748,0.714355
1480690474423892,0.178711,-0.678223,0.716309
1480690474448458,0.186035,-0.682129,0.70752
1480690474461492,0.180176,-0.685547,0.714355
1480690474484054,0.170898,-0.688965,0.720703
1480690474507616,0.177734,-0.672852,0.715332
1480690474529177,0.186523,-0.661133,0.717285
1480690474551732,0.179199,-0.67334,0.720215
1480690474566271,0.182617,-0.682129,0.721191
1480690474581311,0.182129,-0.695313,0.713867
1480690474603871,0.177246,-0.688477,0.719727
1480690474626431,0.177246,-0.686035,0.719727
1480690474642474,0.182129,-0.672852,0.717285
1480690474663529,0.1875,-0.668457,0.713867
1480690474686089,0.18457,-0.671875,0.715332
1480690474702634,0.187988,-0.683105,0.715332
1480690474731210,0.179199,-0.692383,0.716797
1480690474746249,0.173828,-0.691895,0.721191
1480690474761289,0.175781,-0.683594,0.718262
1480690474785353,0.179688,-0.671387,0.716797
1480690474814431,0.190918,-0.662109,0.71875
1480690474828971,0.187988,-0.68457,0.71582
1480690474844010,0.178223,-0.693848,0.716797
1480690474866068,0.181641,-0.686035,0.72168
1480690474884116,0.175293,-0.677734,0.723145
1480690474911188,0.175293,-0.675293,0.72168
1480690474926228,0.18457,-0.671387,0.724121
1480690474942772,0.184082,-0.678223,0.713867
1480690474979870,0.18457,-0.67041,0.716309
1480690474986387,0.182129,-0.692383,0.715332
1480690475002933,0.175293,-0.696289,0.719727
1480690475034016,0.178711,-0.685059,0.71875
1480690475054569,0.183105,-0.672363,0.715332
1480690475062594,0.181641,-0.66748,0.717285
1480690475083647,0.184082,-0.678223,0.713379
1480690475106207,0.182129,-0.68457,0.708008
1480690475123251,0.175293,-0.689453,0.719238
1480690475143807,0.171875,-0.693848,0.713867
1480690475166368,0.180176,-0.6875,0.721191
1480690475182911,0.180176,-0.678223,0.710938
1480690475203966,0.187988,-0.667969,0.712891
1480690475226527,0.189453,-0.67627,0.713867
1480690475257609,0.178711,-0.696289,0.717773
1480690475263625,0.180664,-0.693359,0.712402
1480690475286185,0.180176,-0.685059,0.713867
1480690475308745,0.177734,-0.678711,0.717773
1480690475323785,0.183105,-0.675293,0.714844
1480690475346347,0.18457,-0.674316,0.710938
1480690475369407,0.181152,-0.679199,0.717773
1480690475390964,0.173828,-0.687988,0.709473
1480690475406004,0.178223,-0.698242,0.717773
1480690475424052,0.179199,-0.692871,0.714355
1480690475443604,0.177246,-0.676758,0.72168
1480690475466164,0.181641,-0.67041,0.714355
1480690475484212,0.180664,-0.673828,0.715332
1480690475506775,0.182129,-0.685547,0.714355
1480690475533844,0.179199,-0.687012,0.713867
1480690475560916,0.173828,-0.696289,0.715332
1480690475563924,0.174316,-0.687988,0.714844
1480690475586484,0.182129,-0.672852,0.714844
1480690475610046,0.18457,-0.660156,0.710449
1480690475623583,0.182617,-0.67627,0.711426
1480690475646646,0.180664,-0.693848,0.721191
1480690475668703,0.179199,-0.699707,0.716309
1480690475683743,0.169434,-0.690918,0.716309
1480690475706302,0.177734,-0.676758,0.714355
1480690475728865,0.1875,-0.665527,0.713867
1480690475743903,0.183105,-0.672363,0.71582
1480690475765962,0.182617,-0.682129,0.720215
1480690475797544,0.175293,-0.697266,0.718262
1480690475804063,0.178711,-0.691406,0.715332
1480690475826121,0.174805,-0.683594,0.716797
1480690475848684,0.175781,-0.674805,0.713379
1480690475863721,0.188477,-0.671875,0.720703
1480690475886280,0.178711,-0.678223,0.717773
1480690475908841,0.179688,-0.6875,0.719238
1480690475925385,0.176758,-0.684082,0.714844
1480690475946442,0.179199,-0.68457,0.716797
1480690475969001,0.177246,-0.682129,0.717773
1480690475985043,0.178711,-0.682617,0.717773
1480690476006100,0.175781,-0.67627,0.717773
1480690476031668,0.18457,-0.674316,0.714844
1480690476045205,0.181152,-0.688965,0.717285
1480690476066259,0.173828,-0.687988,0.712402
1480690476091827,0.187012,-0.693359,0.719238
1480690476107870,0.175293,-0.686035,0.715332
1480690476143967,0.185547,-0.665527,0.71582
1480690476148979,0.182617,-0.665039,0.717285
1480690476165022,0.180176,-0.675293,0.712402
1480690476189086,0.184082,-0.691406,0.713379
1480690476208638,0.175293,-0.696777,0.717285
1480690476226690,0.179199,-0.685059,0.715332
1480690476249246,0.184082,-0.669922,0.721191
1480690476270304,0.179199,-0.678223,0.723633
1480690476286846,0.185059,-0.668457,0.712402
1480690476309908,0.181152,-0.680664,0.71582
1480690476328958,0.178223,-0.692383,0.71582
1480690476346505,0.17627,-0.694824,0.72168
1480690476371071,0.183105,-0.679199,0.71875
1480690476388617,0.181641,-0.671387,0.709473
1480690476408670,0.182129,-0.666504,0.717285
1480690476426217,0.183594,-0.67627,0.716797
1480690476448777,0.180176,-0.693848,0.716797
1480690476466825,0.184082,-0.693359,0.717285
1480690476486879,0.172852,-0.691406,0.718262
1480690476508938,0.177246,-0.678223,0.71875
1480690476527486,0.188477,-0.668945,0.719238
1480690476562580,0.178711,-0.672363,0.718262
1480690476568596,0.176758,-0.683105,0.717773
1480690476586643,0.180664,-0.69873,0.721191
1480690476616724,0.178711,-0.688477,0.72168
1480690476647306,0.181152,-0.680664,0.711914
1480690476651817,0.186035,-0.666504,0.72168
1480690476666356,0.181641,-0.676758,0.717773
1480690476688916,0.180176,-0.678223,0.714844
1480690476706463,0.186035,-0.677246,0.710938
1480690476726013,0.177734,-0.684082,0.71582
1480690476750079,0.178223,-0.694336,0.72168
1480690476766622,0.175781,-0.690918,0.720215
1480690476786174,0.177246,-0.666992,0.722168
1480690476808734,0.186523,-0.660645,0.708496
1480690476833300,0.182617,-0.675293,0.716797
1480690476847838,0.177734,-0.699707,0.722656
1480690476868895,0.179199,-0.70166,0.72168
1480690476893961,0.180176,-0.688965,0.716309
1480690476907496,0.180176,-0.672852,0.713379
1480690476928553,0.183594,-0.666504,0.713379
1480690476946601,0.183105,-0.673828,0.711426
1480690476967657,0.183594,-0.678711,0.713867
1480690476990216,0.17627,-0.69043,0.716309
1480690477006760,0.175781,-0.687012,0.709961
1480690477027817,0.17627,-0.684082,0.720215
1480690477048872,0.174805,-0.681152,0.714355
1480690477068425,0.1875,-0.672363,0.716797
1480690477088979,0.186035,-0.679688,0.71582
1480690477111038,0.18457,-0.687988,0.718262
1480690477131091,0.176758,-0.691895,0.717773
1480690477147635,0.173828,-0.690918,0.711914
1480690477168693,0.179688,-0.681152,0.71875
1480690477191251,0.183105,-0.67627,0.71582
1480690477209300,0.182617,-0.676758,0.712891
1480690477228852,0.183105,-0.673828,0.719238
1480690477251411,0.177246,-0.68457,0.717773
1480690477268958,0.171875,-0.695313,0.723145
1480690477288510,0.174805,-0.694336,0.728027
1480690477314079,0.179199,-0.680664,0.711914
1480690477342654,0.18457,-0.674805,0.715332
1480690477348670,0.182129,-0.674805,0.713867
1480690477371234,0.18457,-0.685547,0.711914
1480690477389278,0.180664,-0.692383,0.708008
1480690477408829,0.175781,-0.696777,0.711914
1480690477431390,0.180176,-0.681641,0.716309
1480690477448937,0.18457,-0.680664,0.716309
1480690477470494,0.182129,-0.66748,0.710449
1480690477493555,0.186035,-0.674805,0.706055
1480690477509096,0.181641,-0.689453,0.715332
1480690477528648,0.180176,-0.693848,0.714844
1480690477551209,0.181641,-0.691895,0.720215
1480690477572265,0.180176,-0.680664,0.71875
1480690477589310,0.178711,-0.675293,0.719238
1480690477614377,0.183594,-0.671387,0.715332
1480690477628915,0.179688,-0.676758,0.710938
1480690477648969,0.183105,-0.685059,0.710938
1480690477671529,0.176758,-0.697754,0.724121
1480690477696595,0.180664,-0.695801,0.722168
1480690477708627,0.182129,-0.681152,0.714355
1480690477731187,0.188965,-0.667969,0.706543
1480690477753747,0.182129,-0.674316,0.712402
1480690477768788,0.185547,-0.680176,0.707031
1480690477791347,0.183105,-0.695313,0.714355
1480690477808893,0.177734,-0.695313,0.720703
1480690477830952,0.181152,-0.682129,0.717773
1480690477854014,0.182617,-0.674805,0.713379
1480690477870570,0.180176,-0.668945,0.711914
1480690477891614,0.189453,-0.678711,0.712402
1480690477912671,0.177246,-0.693848,0.710449
1480690477933738,0.177246,-0.692871,0.71582
1480690477950270,0.178223,-0.685059,0.716309
1480690477978847,0.178223,-0.675293,0.714355
1480690478004915,0.183105,-0.676758,0.713867
1480690478024969,0.184082,-0.682617,0.714844
1480690478030984,0.19043,-0.677734,0.710938
1480690478055048,0.181641,-0.678711,0.710449
1480690478077609,0.176758,-0.689941,0.712891
1480690478091144,0.179199,-0.696289,0.715332
1480690478109192,0.17627,-0.69043,0.716309
1480690478132253,0.181641,-0.671875,0.715332
1480690478158824,0.184082,-0.666992,0.71875
1480690478169353,0.181152,-0.677734,0.71582
1480690478191912,0.182129,-0.691406,0.713867
1480690478211464,0.174316,-0.698242,0.706055
1480690478229011,0.181641,-0.685059,0.710938
1480690478251572,0.180664,-0.676758,0.720215
1480690478271123,0.182129,-0.674316,0.714844
1480690478293685,0.184082,-0.676758,0.712891
1480690478312233,0.184082,-0.674316,0.716797
1480690478331283,0.178223,-0.694824,0.714355
1480690478349331,0.178711,-0.694336,0.717285
1480690478373394,0.177734,-0.68457,0.720703
1480690478392950,0.183105,-0.670898,0.717773
1480690478415005,0.185547,-0.671875,0.708984
1480690478431550,0.185547,-0.678223,0.714355
1480690478451102,0.181641,-0.69043,0.713379
1480690478476670,0.177246,-0.699707,0.72168
1480690478505246,0.183105,-0.6875,0.712402
1480690478511263,0.185547,-0.677246,0.71582
1480690478529810,0.1875,-0.672363,0.713867
1480690478553373,0.186035,-0.672363,0.713867
1480690478571423,0.184082,-0.677246,0.712891
1480690478588967,0.181152,-0.683105,0.71582
1480690478612033,0.18457,-0.695313,0.720703
1480690478631080,0.179199,-0.685059,0.717285
1480690478654642,0.180176,-0.681641,0.717285
1480690478671688,0.188477,-0.666504,0.714844
1480690478691239,0.188965,-0.668945,0.709961
1480690478713800,0.189941,-0.678223,0.713379
1480690478731848,0.183105,-0.687988,0.711426
1480690478754408,0.172852,-0.712891,0.726074
1480690478773458,0.168945,-0.695801,0.727539
1480690478806046,0.188477,-0.666992,0.724609
1480690478814067,0.187012,-0.660156,0.711914
1480690478836627,0.189941,-0.675781,0.713867
1480690478856178,0.187012,-0.691895,0.716309
1480690478873224,0.180176,-0.698242,0.709961
1480690478893779,0.176758,-0.683105,0.710938
1480690478911828,0.181152,-0.67627,0.717285
1480690478936893,0.189941,-0.672852,0.71875
1480690478953938,0.195313,-0.68457,0.716309
1480690478977502,0.189941,-0.682617,0.714355
1480690478993042,0.181641,-0.689453,0.723145
1480690479013597,0.185547,-0.691406,0.714844
1480690479031646,0.182129,-0.685547,0.720215
1480690479052701,0.183594,-0.67334,0.712891
1480690479076765,0.191406,-0.667969,0.715332
1480690479091805,0.187988,-0.67041,0.709961
1480690479115870,0.1875,-0.683105,0.716797
1480690479141437,0.182129,-0.687012,0.719727
1480690479157480,0.186035,-0.686035,0.716797
1480690479175027,0.183594,-0.682617,0.712891
1480690479193576,0.189453,-0.680664,0.719238
1480690479219143,0.188477,-0.667969,0.716797
1480690479234184,0.196777,-0.677734,0.718262
1480690479253735,0.173828,-0.684082,0.716797
1480690479271783,0.184082,-0.689941,0.720703
1480690479294347,0.179199,-0.69043,0.714355
1480690479313895,0.181641,-0.677734,0.720215
1480690479331442,0.187988,-0.666016,0.721191
1480690479362028,0.187988,-0.663086,0.714844
1480690479373555,0.187988,-0.675293,0.72168
1480690479391602,0.181152,-0.688965,0.712891
1480690479415166,0.183105,-0.693359,0.716797
1480690479433714,0.186523,-0.683594,0.720215
1480690479451762,0.187988,-0.681641,0.720703
1480690479474322,0.182129,-0.672852,0.741699
1480690479501396,0.194336,-0.67334,0.727051
1480690479524956,0.189453,-0.668457,0.73584
1480690479534984,0.181641,-0.682617,0.720703
1480690479556541,0.186035,-0.68457,0.713867
1480690479571582,0.189453,-0.663086,0.70752
1480690479594142,0.185547,-0.663574,0.702148
1480690479616701,0.1875,-0.658203,0.706055
1480690479631741,0.190918,-0.662598,0.713379
1480690479655303,0.185547,-0.67334,0.720703
1480690479673852,0.183594,-0.675293,0.730469
1480690479694408,0.188477,-0.683594,0.732422
1480690479713961,0.188965,-0.673828,0.731445
1480690479735016,0.1875,-0.668945,0.72168
1480690479751560,0.186523,-0.657715,0.716797
1480690479774120,0.190918,-0.669922,0.721191
1480690479801191,0.183594,-0.685547,0.716797
1480690479811722,0.182617,-0.688477,0.71875
1480690479835284,0.185059,-0.679199,0.723145
1480690479855336,0.186035,-0.665527,0.719727
1480690479886920,0.188477,-0.662109,0.723633
1480690479894443,0.191406,-0.67041,0.721191
1480690479916499,0.186523,-0.675781,0.725098
1480690479939059,0.178711,-0.687988,0.725098
1480690479961619,0.183594,-0.689453,0.722168
1480690479975154,0.185059,-0.672852,0.721191
1480690479991698,0.181641,-0.668945,0.718262
1480690480022781,0.186035,-0.673828,0.715332
1480690480036819,0.1875,-0.670898,0.713379
1480690480051857,0.18457,-0.678711,0.714355
1480690480081437,0.177246,-0.687988,0.723633
1480690480113020,0.184082,-0.687988,0.727051
1480690480117532,0.180176,-0.67627,0.725098
1480690480136091,0.181152,-0.663574,0.719238
1480690480164658,0.188477,-0.666016,0.718262
1480690480176189,0.186035,-0.679199,0.717285
1480690480194237,0.183105,-0.691895,0.719238
1480690480224317,0.175293,-0.689453,0.717285
1480690480236348,0.180176,-0.679688,0.713867
1480690480254397,0.186523,-0.666992,0.71875
1480690480276456,0.182617,-0.671875,0.714844
1480690480296007,0.185059,-0.67041,0.722168
1480690480319569,0.19043,-0.680664,0.713379
1480690480337116,0.179199,-0.689941,0.714355
1480690480357170,0.178223,-0.689453,0.725098
1480690480373212,0.182617,-0.679688,0.719727
1480690480395773,0.175293,-0.672363,0.722656
1480690480416829,0.178711,-0.668945,0.71582
1480690480433874,0.18457,-0.662109,0.711914
1480690480455932,0.185059,-0.681641,0.721191
1480690480476989,0.17627,-0.692871,0.719238
1480690480493532,0.182129,-0.687012,0.725098
1480690480516093,0.176758,-0.68457,0.71582
1480690480537149,0.180176,-0.667969,0.723145
1480690480554196,0.188477,-0.663086,0.720703
1480690480583272,0.185547,-0.672363,0.725098
1480690480596807,0.174316,-0.685547,0.721191
1480690480613351,0.180176,-0.682617,0.720215
1480690480635917,0.177734,-0.683594,0.720703
1480690480656466,0.176758,-0.67627,0.716309
1480690480673512,0.182617,-0.66748,0.719727
1480690480695570,0.18457,-0.671875,0.723145
1480690480718631,0.181152,-0.684082,0.720703
1480690480746706,0.179688,-0.693359,0.720215
1480690480755730,0.183594,-0.691895,0.719238
1480690480776786,0.180664,-0.682617,0.716309
1480690480801353,0.181152,-0.666992,0.720703
1480690480815890,0.184082,-0.670898,0.725586
1480690480836946,0.183594,-0.672852,0.719727
1480690480852487,0.178711,-0.682129,0.716309
1480690480876552,0.174805,-0.685547,0.719238
1480690480913650,0.172363,-0.688965,0.722656
1480690480916157,0.182129,-0.678711,0.721191
1480690480935709,0.180664,-0.675293,0.712402
1480690480964284,0.183594,-0.670898,0.716309
1480690480976817,0.183105,-0.674805,0.717773
1480690480995868,0.182129,-0.688965,0.716309
1480690481024444,0.17627,-0.692383,0.716797
1480690481033468,0.177734,-0.68457,0.719727
1480690481056028,0.180176,-0.675781,0.722168
1480690481078088,0.185547,-0.671875,0.716797
1480690481099644,0.181641,-0.671387,0.716797
1480690481116689,0.178223,-0.678711,0.723145
1480690481138247,0.178223,-0.694336,0.719727
1480690481160809,0.177246,-0.699219,0.722168
1480690481176349,0.178223,-0.684082,0.715332
1480690481198407,0.181641,-0.67041,0.717285
1480690481212946,0.177246,-0.669434,0.717285
1480690481236508,0.185059,-0.67627,0.722168
1480690481258065,0.178223,-0.689941,0.716309
1480690481273608,0.177246,-0.689453,0.720215
1480690481295665,0.176758,-0.688965,0.714355
1480690481318225,0.177734,-0.685547,0.723633
1480690481332764,0.183594,-0.666504,0.720215
1480690481363346,0.187988,-0.663574,0.717773
1480690481378887,0.182617,-0.675781,0.71875
1480690481392926,0.174805,-0.686523,0.719238
1480690481415985,0.174316,-0.696777,0.717773
1480690481438044,0.179199,-0.685547,0.716309
1480690481468125,0.175781,-0.674316,0.720215
1480690481482161,0.181641,-0.672363,0.719238
1480690481498204,0.178223,-0.675293,0.717285
1480690481521766,0.182129,-0.681152,0.716309
1480690481535805,0.184082,-0.689453,0.719238
1480690481558364,0.174316,-0.694336,0.721191
1480690481579421,0.181152,-0.678711,0.71582
1480690481603484,0.180176,-0.675293,0.719727
1480690481618525,0.183594,-0.666992,0.716309
1480690481639580,0.18457,-0.675293,0.719727
1480690481655622,0.175781,-0.685059,0.722168
1480690481692723,0.176758,-0.693848,0.71582
1480690481699239,0.178711,-0.688477,0.716309
1480690481716284,0.178711,-0.689453,0.718262
1480690481738343,0.182617,-0.666504,0.721191
1480690481759400,0.18457,-0.671875,0.719238
1480690481775943,0.17334,-0.675781,0.716309
1480690481806023,0.181641,-0.68457,0.719238
1480690481819058,0.172363,-0.697266,0.724121
1480690481837606,0.174316,-0.689453,0.718262
1480690481859164,0.185059,-0.671387,0.719238
1480690481880722,0.181641,-0.662598,0.717773
1480690481895762,0.182617,-0.669922,0.713379
1480690481918321,0.175293,-0.686035,0.720215
1480690481940882,0.174316,-0.697266,0.714355
1480690481955922,0.177246,-0.691895,0.720703
1480690481978481,0.177734,-0.679199,0.717773
1480690482002546,0.182617,-0.675293,0.714844
1480690482016583,0.180176,-0.677734,0.717285
1480690482038140,0.182129,-0.672363,0.720703
1480690482060701,0.182129,-0.683594,0.716797
1480690482075740,0.175781,-0.691895,0.716309
1480690482098801,0.173828,-0.692871,0.722168
1480690482120860,0.175781,-0.6875,0.721191
1480690482135399,0.175781,-0.675781,0.717773
1480690482165980,0.188477,-0.663086,0.716309
1480690482181020,0.183594,-0.662598,0.70459
1480690482195057,0.180176,-0.688477,0.717285
1480690482218119,0.176758,-0.703125,0.72168
1480690482240681,0.172852,-0.693359,0.714844
1480690482255217,0.175781,-0.678711,0.722168
1480690482278278,0.178711,-0.665527,0.724609
1480690482333927,0.187012,-0.666016,0.716309
1480690482338940,0.188965,-0.689941,0.713379
1480690482341447,0.181152,-0.694824,0.715332
1480690482362503,0.17627,-0.688965,0.720215
1480690482390577,0.17334,-0.682129,0.72168
1480690482398097,0.179688,-0.666504,0.714355
1480690482420657,0.185059,-0.665527,0.709961
1480690482441713,0.182617,-0.679688,0.724609
1480690482465778,0.182129,-0.685547,0.71875
1480690482480819,0.174316,-0.688965,0.71582
1480690482501874,0.175293,-0.693359,0.717285
1480690482517916,0.178223,-0.686035,0.719238
1480690482540977,0.184082,-0.67041,0.718262
1480690482569554,0.188965,-0.664551,0.716797
1480690482578577,0.181152,-0.674316,0.714844
1480690482609159,0.180664,-0.686523,0.716309
1480690482638737,0.180176,-0.685547,0.714355
1480690482641244,0.174805,-0.689941,0.718262
1480690482662299,0.177246,-0.68457,0.716309
1480690482689371,0.183594,-0.665527,0.717285
1480690482698897,0.186523,-0.665039,0.714355
1480690482720955,0.183105,-0.679688,0.718262
1480690482749531,0.178223,-0.69873,0.725098
1480690482758054,0.178711,-0.696777,0.726563
1480690482781116,0.17627,-0.686523,0.719238
1480690482801670,0.179199,-0.669434,0.723145
1480690482818214,0.191895,-0.663086,0.718262
1480690482848294,0.1875,-0.672363,0.722168
1480690482861832,0.182129,-0.683594,0.711914
1480690482885895,0.186523,-0.689941,0.71582
1480690482906449,0.179199,-0.6875,0.721191
1480690482922992,0.179199,-0.682129,0.726563
1480690482938534,0.181641,-0.67627,0.725586
1480690482962097,0.19043,-0.66748,0.724609
1480690482983153,0.186523,-0.67334,0.719238
1480690482998694,0.176758,-0.6875,0.715332
1480690483020753,0.179199,-0.685547,0.720215
1480690483043313,0.183594,-0.687012,0.722656
1480690483057851,0.175781,-0.680664,0.722656
1480690483080913,0.183105,-0.678223,0.722656
1480690483103552,0.189941,-0.662598,0.718262
1480690483126033,0.1875,-0.67334,0.716797
1480690483141073,0.186035,-0.687988,0.714844
1480690483163132,0.181152,-0.6875,0.719727
1480690483184188,0.177734,-0.680176,0.71875
1480690483201735,0.182617,-0.672363,0.720215
1480690483223291,0.1875,-0.664551,0.723145
1480690483245852,0.182617,-0.671387,0.724121
1480690483260893,0.188477,-0.68457,0.723145
1480690483283953,0.185547,-0.691895,0.71875
1480690483297489,0.177734,-0.692871,0.716797
1480690483321051,0.181641,-0.673828,0.719238
1480690483344116,0.183594,-0.666016,0.720215
1480690483357649,0.187988,-0.665527,0.711914
1480690483380710,0.192383,-0.672852,0.717285
1480690483417809,0.18457,-0.69043,0.71582
1480690483424326,0.180176,-0.689453,0.717773
1480690483440871,0.178223,-0.678223,0.716797
1480690483462928,0.182129,-0.668945,0.718262
1480690483484487,0.187012,-0.665527,0.719727
1480690483501532,0.19043,-0.675293,0.714844
1480690483523088,0.185547,-0.681152,0.720703
1480690483545649,0.182617,-0.685547,0.725586
1480690483560690,0.183105,-0.680664,0.71875
1480690483583248,0.178223,-0.685547,0.718262
1480690483604304,0.183105,-0.679688,0.724121
1480690483620848,0.186523,-0.669922,0.715332
1480690483645416,0.192871,-0.666992,0.726074
1480690483664465,0.184082,-0.677734,0.71582
1480690483694544,0.181641,-0.693359,0.719727
1480690483717607,0.176758,-0.69873,0.720215
1480690483724123,0.180176,-0.676758,0.722168
1480690483740667,0.185059,-0.671875,0.720215
1480690483763729,0.185547,-0.665527,0.71582
1480690483784283,0.192383,-0.677246,0.725098
1480690483801330,0.185059,-0.689453,0.71582
1480690483823387,0.178711,-0.69043,0.717285
1480690483845947,0.175781,-0.69043,0.714355
1480690483860989,0.185547,-0.671875,0.721191
1480690483884550,0.188477,-0.67334,0.712891
1480690483905606,0.183105,-0.666504,0.714844
1480690483920646,0.182129,-0.673828,0.713379
