timestamp,emg1,emg2,emg3,emg4,emg5,emg6,emg7,emg8
1480690430139302,-2,-2,0,-1,-1,0,-1,-1
1480690430139302,-1,1,-1,-2,-1,-1,-2,-1
1480690430140806,-2,-1,-1,1,-2,-1,-3,-3
1480690430140806,0,1,-1,-2,1,0,-2,0
1480690430141808,1,-3,-1,0,0,-1,-1,0
1480690430141808,-1,-1,-2,0,-2,0,0,-2
1480690430145820,0,0,0,0,0,1,0,-3
1480690430145820,-1,0,-1,-1,-2,-1,0,1
1480690430160358,-1,-1,-1,-2,-1,-2,0,1
1480690430160358,-1,-1,-1,-1,-2,0,0,-1
1480690430161863,0,-1,-2,0,1,-1,2,-2
1480690430161863,0,0,1,-3,-1,-3,1,-1
1480690430182918,-1,-2,0,-2,1,1,0,-1
1480690430182918,-2,0,-1,1,0,0,-1,0
1480690430184422,1,0,0,-1,-3,1,0,1
1480690430184422,0,0,0,1,-2,0,-1,0
1480690430196453,-1,1,-3,0,0,-2,-3,-1
1480690430196453,-3,-1,-1,-1,0,0,-1,0
1480690430212497,-2,-2,-2,0,0,-1,0,1
1480690430212497,-2,-4,-1,0,2,0,1,0
1480690430220522,0,1,1,0,0,0,0,-1
1480690430220522,1,1,-2,0,0,-1,0,-1
1480690430222024,0,-1,-2,-1,-2,-1,-1,-1
1480690430222024,-1,-3,-1,2,2,0,-2,-2
1480690430243078,0,-1,0,-1,-2,-1,-1,-3
1480690430243078,-1,-2,-1,0,1,0,-1,0
1480690430245083,0,-1,0,-1,1,1,-1,0
1480690430245083,1,0,-1,-2,-1,0,-1,-1
1480690430256614,0,-2,-2,1,1,0,-1,-1
1480690430256614,0,-2,-1,-1,-2,-2,0,-1
1480690430273158,-2,-1,0,1,0,1,0,-1
1480690430273158,-1,-1,-2,0,-2,-1,-2,0
1480690430287698,0,-1,-2,-2,-1,-2,0,-1
1480690430287698,1,0,-1,0,-2,0,-2,-1
1480690430289201,-3,0,-1,-2,1,0,0,0
1480690430289201,-2,-1,0,-1,1,2,0,-3
1480690430302737,-1,-2,-1,-1,-1,1,0,0
1480690430302737,0,-1,-2,-1,0,0,0,-1
1480690430304745,1,-1,0,-1,-1,0,-1,1
1480690430304745,0,1,1,-1,-2,-1,1,-1
1480690430325296,0,1,0,-1,1,-2,-1,-1
1480690430325296,-2,2,-1,-2,1,-1,-1,-1
1480690430326800,-1,-1,-1,1,-2,0,-1,-2
1480690430326800,0,-1,-2,-1,-2,-1,1,0
1480690430340336,-2,-2,0,-1,-2,-1,-1,-1
1480690430340336,0,0,-2,0,-2,-2,1,-1
1480690430341841,-2,0,2,-1,1,-1,0,-2
1480690430341841,-1,0,-2,1,-1,-1,-1,2
1480690430362896,-1,-1,-3,0,1,-1,0,0
1480690430362896,0,0,1,1,-2,0,0,1
1480690430364400,0,2,0,-1,-2,0,-2,0
1480690430364400,-1,-1,-2,0,1,1,-1,-1
1480690430376934,-2,0,2,0,-4,-2,0,-1
1480690430376934,0,-5,-3,-1,0,0,-1,-2
1480690430385456,-2,-2,-3,0,-1,-1,1,-2
1480690430385456,1,0,-1,-1,1,1,-2,0
1480690430407017,1,-1,0,0,0,-2,0,-1
1480690430407017,0,-1,1,0,-2,-1,-3,-1
1480690430422559,-2,1,0,0,-1,0,0,-1
1480690430422559,-1,0,-1,-2,0,-3,-2,-1
1480690430423557,0,-2,-1,0,-2,0,0,1
1480690430423557,0,-2,0,-2,1,0,1,0
1480690430437595,2,-2,-1,0,1,-2,-1,1
1480690430437595,-2,0,1,0,-1,0,0,-1
1480690430445114,2,2,-2,1,0,2,-2,0
1480690430445114,-1,-1,0,-1,-1,0,-3,0
1480690430447120,0,-2,-2,-1,0,-2,0,-1
1480690430447120,-2,0,-1,1,1,1,1,-2
1480690430460156,-2,2,-2,-3,0,-3,0,-2
1480690430460156,-2,-1,-2,2,2,2,1,-1
1480690430462160,0,0,0,-2,0,-1,0,1
1480690430462160,2,-2,-1,-1,-4,-3,-1,0
1480690430482715,-2,0,-1,0,1,2,-1,0
1480690430482715,1,1,1,-2,-1,0,-1,0
1480690430484720,-2,0,-2,-1,-1,-2,0,0
1480690430484720,1,-1,-2,0,-1,-1,-2,0
1480690430496251,-1,-3,0,0,0,1,-1,-1
1480690430496251,-2,-2,-1,0,-1,-2,-2,0
1480690430506278,0,0,0,-1,-4,-2,-1,-2
1480690430506278,0,-1,2,-1,-1,0,0,-1
1480690430520821,2,-2,-1,-1,-2,-1,-1,-1
1480690430520821,-1,-1,-1,-1,-1,0,0,2
1480690430527835,-1,-2,-1,-1,0,-1,-1,0
1480690430527835,-2,0,-1,-1,0,1,-1,-2
1480690430542875,0,0,0,0,-2,0,-1,-2
1480690430542875,0,-2,0,0,1,0,1,-1
1480690430544379,0,-1,1,0,-1,0,1,0
1480690430544379,-1,-1,0,-2,-2,-2,2,0
1480690430556411,-1,-2,0,-2,0,-1,1,0
1480690430556411,0,1,0,0,0,-2,-1,0
1480690430571450,0,0,1,0,0,1,-2,1
1480690430571450,2,-1,-2,0,-3,-2,-1,0
1480690430580475,1,1,0,1,-1,0,-1,2
1480690430580475,2,2,-3,-1,-2,-2,-2,-1
1480690430581978,0,-1,0,-1,-1,1,0,-3
1480690430581978,-4,-1,2,1,0,0,0,-1
1480690430618576,0,0,0,-3,0,-1,-1,0
1480690430618576,-1,0,-2,-1,-1,0,1,0
1480690430620082,-1,-1,-2,1,-2,-1,-1,-1
1480690430620082,0,-1,-2,-2,2,-1,0,0
1480690430621083,2,0,0,0,-3,-2,0,-2
1480690430621083,-4,-5,-2,-2,-1,0,-2,-1
1480690430625596,-3,-4,-2,-1,-1,1,-1,-1
1480690430625596,0,1,1,0,-1,0,1,0
1480690430639632,1,1,-1,-1,0,0,-1,-2
1480690430639632,-2,0,0,-1,0,-2,-1,-2
1480690430648155,-1,2,-1,0,-1,-1,-1,-1
1480690430648155,0,-2,-3,-1,1,-2,-1,0
1480690430662695,-1,-1,1,0,0,2,-1,-1
1480690430662695,1,-2,0,-2,0,-1,-2,1
1480690430664197,-2,0,0,0,-2,1,0,0
1480690430664197,1,-1,0,0,-1,0,0,0
1480690430685253,-1,-1,-2,0,1,-1,1,-1
1480690430685253,0,0,-3,-2,-2,-1,-1,-1
1480690430686759,0,-1,1,1,1,-1,0,-1
1480690430686759,1,-2,-2,-1,-1,0,-1,0
1480690430700293,-3,-1,0,0,-2,0,-2,1
1480690430700293,0,-1,-2,-1,0,-3,1,1
1480690430701798,0,-1,-1,0,2,0,-1,-2
1480690430701798,-1,1,0,-1,0,-1,-1,-1
1480690430721851,1,1,0,-2,-1,-3,-2,0
1480690430721851,2,-1,1,0,1,-1,-2,1
1480690430736391,-1,-2,0,-1,1,1,0,-1
1480690430736391,-1,-2,3,-1,-2,-1,0,-2
1480690430745413,-2,0,-1,1,0,-2,-1,-1
1480690430745413,-1,-1,-1,0,1,0,0,-2
1480690430746918,1,-2,-1,-2,-2,-4,-2,1
1480690430746918,-2,-1,-3,-1,-1,0,-2,-1
1480690430767472,0,-2,-2,0,-2,0,0,0
1480690430767472,0,2,1,0,-1,0,-1,0
1480690430775494,1,-2,-2,0,0,1,0,0
1480690430775494,1,0,0,-1,-1,0,-1,-1
1480690430782512,0,-1,1,0,-1,0,0,1
1480690430782512,-1,0,-1,-1,-1,-2,1,-2
1480690430796550,-1,0,1,-1,-2,0,0,-2
1480690430796550,0,0,-1,0,-2,-1,-2,1
1480690430805072,-1,-1,-2,-1,2,1,-1,0
1480690430805072,-1,-1,-3,0,0,1,0,0
1480690430808080,0,1,0,-1,-1,-1,-1,0
1480690430808080,-1,-3,0,-1,3,-1,0,-2
1480690430819109,-2,-1,0,1,-1,-1,-1,-2
1480690430819109,-2,-2,1,1,-3,-3,0,0
1480690430828635,-2,-1,0,-2,-1,0,0,0
1480690430828635,2,-2,-5,-2,-3,-1,-3,-1
1480690430842672,0,0,-1,-2,1,-2,2,-1
1480690430842672,-1,-1,0,0,-2,-1,1,0
1480690430849189,1,-1,-1,-2,-2,-1,0,1
1480690430849189,0,-4,1,0,-1,0,0,-1
1480690430865232,-1,1,-2,0,0,1,-2,-2
1480690430865232,0,-2,-2,-1,0,1,-2,0
1480690430866736,-1,0,-4,-2,0,0,-1,1
1480690430866736,-2,1,-1,-1,0,-2,-1,0
1480690430880273,1,0,1,-2,0,-1,-2,0
1480690430880273,-2,-1,0,-2,-1,0,0,-2
1480690430887792,-1,1,-1,0,0,-1,0,-2
1480690430887792,-1,1,0,0,-1,-1,0,-1
1480690430901830,0,0,-2,-1,0,-2,1,-1
1480690430901830,-1,1,0,-1,0,0,-1,0
1480690430911355,-2,1,-4,0,-2,-2,-2,0
1480690430911355,0,0,-1,0,-1,0,-2,-1
1480690430925392,-1,-1,-1,0,0,0,-1,1
1480690430925392,-1,0,-1,-1,1,1,0,0
1480690430926896,-2,-1,0,0,-1,-3,0,-2
1480690430926896,0,-1,1,-1,-1,0,0,-1
1480690430939931,-3,-2,0,0,-1,1,0,-2
1480690430939931,0,1,-1,-1,0,-1,0,-1
1480690430946448,0,-1,0,-1,0,1,0,0
1480690430946448,-1,0,-2,0,-1,-1,-1,0
1480690430962992,0,-2,-1,-1,-1,-1,-1,-1
1480690430962992,1,0,-1,0,1,0,1,0
1480690430964496,1,-1,1,-1,1,0,0,0
1480690430964496,0,0,-1,-1,-3,0,1,1
1480690430993071,-1,1,-1,0,-1,1,-1,-1
1480690430993071,-2,1,1,0,-2,-2,0,0
1480690430996080,1,-1,0,1,-1,1,-1,-1
1480690430996080,-1,0,-2,0,1,-1,1,-1
1480690430999589,-1,-2,-2,0,0,-1,-1,0
1480690430999589,-1,1,-1,-1,0,0,-1,0
1480690431006608,-1,1,0,-1,0,0,0,-1
1480690431006608,-1,-1,0,1,-1,0,-1,1
1480690431022651,1,-1,-1,-2,-1,1,-1,1
1480690431022651,-1,-1,-1,0,-2,-2,0,0
1480690431024155,0,0,-3,-1,-2,-2,0,0
1480690431024155,0,-1,0,-1,1,1,1,0
1480690431045712,-1,2,1,-1,-1,-1,-1,1
1480690431045712,-1,-2,-1,-1,1,1,0,0
1480690431051728,0,-1,-1,-2,-2,0,-2,-1
1480690431051728,-1,2,2,-1,-1,-1,0,-1
1480690431059751,1,1,-1,0,-1,-2,1,-2
1480690431059751,0,0,-1,-2,-1,0,0,0
1480690431073786,-3,-4,-1,3,2,2,2,-1
1480690431073786,-1,0,-2,-1,-1,-1,-2,0
1480690431082811,0,-1,1,-1,0,-4,0,0
1480690431082811,0,-1,1,0,-2,-3,-1,-1
1480690431084315,1,-1,1,-2,0,-1,0,0
1480690431084315,-3,-2,1,0,1,0,1,1
1480690431105874,-1,-1,-1,-1,0,1,0,0
1480690431105874,-2,-2,-2,-1,-1,0,0,0
1480690431107377,2,1,-3,-2,-3,-4,-1,1
1480690431107377,-1,0,-2,-3,1,-2,-2,0
1480690431127930,0,0,-2,-1,-3,2,0,-1
1480690431127930,-1,-1,0,-1,-1,1,-1,-2
1480690431129435,-1,-2,0,2,0,-1,1,-1
1480690431129435,-1,-1,1,0,0,0,1,-3
1480690431142970,-1,-1,-2,0,0,-1,-1,-1
1480690431142970,-2,0,-1,-1,0,0,0,-1
1480690431145481,-1,0,-1,0,0,1,-2,-1
1480690431145481,-1,0,-2,0,0,-1,1,0
1480690431165029,-2,-3,3,0,0,-2,-2,0
1480690431165029,2,0,0,0,-1,-1,-1,1
1480690431167034,-1,0,-1,-1,1,-1,-1,-2
1480690431167034,0,0,-1,1,-3,-1,0,0
1480690431187591,1,0,-1,-1,-1,0,-2,0
1480690431187591,-1,0,-1,-2,1,-1,1,1
1480690431189594,-1,0,2,-1,0,-1,-1,-1
1480690431189594,1,-1,1,1,-1,0,-2,-1
1480690431203635,-3,-2,-1,-2,1,0,-1,0
1480690431203635,1,-1,-2,0,1,0,-1,-1
1480690431206138,1,-1,0,-1,-2,0,0,0
1480690431206138,1,0,0,0,-1,-2,-1,0
1480690431232709,-3,1,0,0,-2,-1,-1,1
1480690431232709,-2,0,0,1,1,-1,0,1
1480690431234215,-1,2,1,-1,0,0,0,-1
1480690431234215,0,1,-1,0,-1,-1,-1,0
1480690431238726,0,-1,-3,0,-1,-1,2,-2
1480690431238726,0,-1,-2,-1,-4,-1,-1,-1
1480690431247749,-2,0,-2,-2,-2,-1,0,0
1480690431247749,0,-1,-1,-1,1,-1,0,-2
1480690431270310,0,0,0,-2,-2,-2,-1,-1
1480690431270310,2,-2,-2,-2,0,1,-2,-2
1480690431271814,-1,-2,-1,0,0,-1,-1,-1
1480690431271814,0,-2,-2,-1,1,0,-1,-2
1480690431292869,-1,-4,2,2,-1,0,-1,1
1480690431292869,0,0,-1,0,-1,0,-1,1
1480690431294373,0,0,0,-2,-1,-1,-3,1
1480690431294373,-1,0,-2,-1,0,1,-1,-2
1480690431298885,0,0,-1,0,-2,0,1,0
1480690431298885,-4,-1,-1,-1,-3,-2,0,0
1480690431321946,1,1,-1,0,-1,0,0,-1
1480690431321946,1,0,-1,-1,-3,-2,-2,-1
1480690431330469,0,2,-3,-1,3,-1,0,2
1480690431330469,1,0,-1,1,0,0,-2,-2
1480690431331973,-2,-5,-1,0,0,1,-1,0
1480690431331973,0,0,0,-1,-3,0,-1,-1
1480690431346010,0,1,1,-1,-1,1,2,-2
1480690431346010,-1,-1,1,-1,0,-1,1,-1
1480690431348517,0,-2,0,0,-3,-1,1,1
1480690431348517,-2,-2,-1,1,-2,-1,-1,1
1480690431359045,0,-2,-2,-1,0,-3,-1,-1
1480690431359045,0,1,-1,1,1,-3,-3,1
1480690431368571,0,-2,-2,-1,-3,-1,-1,-4
1480690431368571,-1,-1,-1,-1,-1,-1,-1,0
1480690431383611,0,0,0,0,-1,1,-1,0
1480690431383611,0,-3,0,1,0,0,0,-2
1480690431386117,0,-1,-5,0,0,0,-1,1
1480690431386117,-2,2,-1,-1,-1,-1,0,0
1480690431412688,-1,-1,-1,-1,0,0,-1,0
1480690431412688,0,-1,0,0,-1,2,1,0
1480690431414693,0,-1,1,1,-1,0,-3,-1
1480690431414693,0,-2,-1,-2,-1,0,1,-1
1480690431419205,0,0,-1,-1,-2,-1,0,-1
1480690431419205,-2,-1,-1,0,-1,0,0,0
1480690431435247,1,2,1,-1,0,-2,-2,0
1480690431435247,-1,-2,-1,0,-1,1,-1,0
1480690431442768,-1,0,-1,-2,-3,-1,-1,-1
1480690431442768,-2,0,2,-1,-1,2,0,-1
1480690431445275,-1,2,-3,0,-1,-1,0,-2
1480690431445275,0,0,-2,-1,0,-2,-2,0
1480690431465328,0,-3,-3,-2,0,1,0,-1
1480690431465328,0,-1,-1,-2,-1,-1,-1,-2
1480690431466847,0,-1,-1,0,-2,0,1,0
1480690431466847,0,0,2,0,-2,-1,-1,0
1480690431478864,0,0,-1,0,1,-3,-1,0
1480690431478864,0,1,-2,-1,0,0,-1,-2
1480690431487888,-2,-2,1,1,2,1,0,-1
1480690431487888,1,-1,-1,1,-1,0,-1,0
1480690431503430,3,-1,-2,0,1,0,-2,0
1480690431503430,-1,-2,0,0,0,0,0,-1
1480690431525989,-1,1,-1,-2,0,-2,-2,1
1480690431525989,-2,-2,0,0,0,1,1,-1
1480690431526992,-1,-1,-1,1,0,-1,0,0
1480690431526992,-2,0,-3,-1,-1,-1,1,-1
1480690431528496,1,0,-2,0,-1,-1,0,0
1480690431528496,0,1,-2,0,-1,-2,2,-1
1480690431548048,-3,0,2,1,0,-2,-1,-3
1480690431548048,0,-1,0,-2,-1,-1,-2,0
1480690431549552,-2,-2,1,0,1,-1,-1,0
1480690431549552,-1,0,0,-2,0,1,0,-1
1480690431563088,-2,-2,1,-2,1,2,-1,-1
1480690431563088,0,-2,-2,0,-3,-1,-1,0
1480690431569104,-2,-1,-1,0,0,-2,0,-1
1480690431569104,0,0,-1,-2,0,-2,1,0
1480690431585648,1,0,-1,0,-2,-1,1,0
1480690431585648,1,-1,0,-2,2,0,-3,0
1480690431587152,0,-1,-1,-1,-1,2,0,-1
1480690431587152,0,0,1,0,0,0,-2,1
1480690431607709,-1,-1,-1,-2,-2,0,-2,-2
1480690431607709,-2,-1,-3,-1,-1,-1,-1,-2
1480690431609211,0,-1,-1,0,-2,0,0,0
1480690431609211,0,1,0,-3,1,-1,0,1
1480690431622747,0,0,-1,0,-1,-2,-1,1
1480690431622747,0,-2,0,-1,0,-2,-1,-1
1480690431625253,1,-1,-1,-1,0,0,0,0
1480690431625253,0,-2,-2,1,-1,-3,0,0
1480690431645306,-3,-2,-2,0,0,-1,-1,1
1480690431645306,-3,-1,0,0,2,-1,-1,0
1480690431646811,0,-1,0,0,-1,-1,-1,1
1480690431646811,-1,-1,-1,0,-1,0,1,-1
1480690431667365,-1,-2,2,1,2,0,1,-2
1480690431667365,1,-1,1,-1,-2,-1,1,0
1480690431673883,1,-1,0,-1,-2,0,-1,-1
1480690431673883,1,0,0,-1,0,1,-1,0
1480690431682906,0,-3,-1,0,2,3,0,-2
1480690431682906,0,0,-1,0,-2,-1,0,0
1480690431684410,-2,0,0,1,0,-1,-2,-1
1480690431684410,0,-1,0,0,-1,-1,-1,-2
1480690431705968,0,1,-1,-2,-2,1,-1,0
1480690431705968,-1,3,-1,0,1,0,-1,1
1480690431707472,-2,0,-2,-1,-1,-1,1,0
1480690431707472,-3,-2,-1,1,-1,-2,0,0
1480690431735047,-3,-3,1,0,-1,2,0,1
1480690431735047,-1,-1,1,1,0,0,1,-2
1480690431742565,1,0,0,-2,1,1,0,1
1480690431742565,-3,-1,-2,-1,0,1,0,-1
1480690431743568,0,1,-1,-3,-1,-1,-1,1
1480690431743568,1,0,-3,-1,-1,0,-1,1
1480690431749082,-3,-2,-2,0,1,-1,-1,0
1480690431749082,-1,0,-1,-2,0,0,0,-1
1480690431765127,0,1,1,-1,0,-3,-2,-1
1480690431765127,-3,0,-2,-1,-1,1,0,-1
1480690431767131,-1,-1,-1,0,-2,-2,-1,0
1480690431767131,0,-3,-1,0,-1,0,-1,-1
1480690431787185,-2,-1,-2,1,0,-3,-1,0
1480690431787185,1,-1,-1,-1,0,-1,-1,-1
1480690431804229,-1,1,0,-1,-1,-2,1,-3
1480690431804229,2,3,-2,0,-3,-2,0,-1
1480690431805232,-2,2,-1,-1,-1,0,0,-1
1480690431805232,0,0,1,1,-1,-1,1,1
1480690431809243,-1,-2,-2,-1,-1,2,-2,-1
1480690431809243,-1,-2,1,0,0,1,-1,-2
1480690431825786,0,0,-1,-2,-1,-1,-2,-2
1480690431825786,-1,1,1,0,1,1,-1,0
1480690431831300,-1,2,0,0,0,-1,-1,1
1480690431831300,-2,1,0,-1,0,1,-1,0
1480690431855365,-3,-1,0,1,-2,0,-1,0
1480690431855365,-2,-1,1,-1,-2,-3,0,-1
1480690431856869,-1,-1,3,1,0,-1,1,1
1480690431856869,0,-1,-2,-1,0,-1,-1,1
1480690431861882,0,0,-1,0,0,-2,0,-1
1480690431861882,1,0,1,0,1,0,-1,-2
1480690431885947,0,2,-2,0,0,0,-1,-3
1480690431885947,-1,-1,0,0,1,0,-1,0
1480690431886953,0,-2,-2,-1,-3,-1,1,-1
1480690431886953,1,-1,-2,-3,-1,-2,-1,-1
1480690431888453,1,-1,-2,-2,0,0,1,-2
1480690431888453,0,1,2,-1,0,-1,1,0
1480690431908005,1,-2,-3,0,-3,0,0,0
1480690431908005,-1,-2,-2,-2,0,0,-1,1
1480690431909510,-2,-3,-2,1,1,1,-1,-1
1480690431909510,-1,0,-1,-1,-1,0,0,1
1480690431922042,2,-2,3,-3,2,0,-1,0
1480690431922042,0,1,-2,-1,-2,0,1,1
1480690431929061,1,0,-1,-2,0,-1,0,-2
1480690431929061,-1,0,-2,1,-2,0,-1,-1
1480690431945103,-2,0,0,-1,0,-1,1,-2
1480690431945103,-2,0,1,-1,1,-1,1,-2
1480690431947108,1,-1,-1,-1,0,-2,0,1
1480690431947108,0,0,2,0,0,-1,-2,-1
1480690431967663,0,-1,0,0,0,-2,0,0
1480690431967663,0,-2,2,0,0,-1,-2,-1
1480690431969669,-2,0,-4,-2,-2,0,1,1
1480690431969669,-1,1,-1,0,-2,-1,0,0
1480690431982208,0,2,-1,-1,0,-1,0,1
1480690431982208,0,0,-2,-2,-1,-2,0,-2
1480690431989226,-1,-1,3,1,1,-2,0,0
1480690431989226,0,-1,-1,-1,1,1,-1,-2
1480690432005268,2,-1,-2,1,-1,0,0,-2
1480690432005268,-1,1,-2,-2,-1,-3,-3,-1
1480690432006772,-2,1,-3,-1,-1,1,-2,-1
1480690432006772,0,-1,-3,0,-3,-1,-1,2
1480690432027828,-1,-1,0,2,2,-1,0,-1
1480690432027828,-1,-1,-2,-1,-1,-1,-2,-2
1480690432029333,-1,-1,-1,-1,-1,-1,-1,-1
1480690432029333,-1,-2,-1,-2,0,-1,0,-1
1480690432042367,0,0,-2,-1,0,0,0,-1
1480690432042367,-2,-1,0,0,-2,3,1,-1
1480690432048884,0,-1,1,-1,-1,1,0,0
1480690432048884,-1,-1,-1,-1,0,-2,0,-1
1480690432080468,-1,0,-2,-1,-3,-1,1,1
1480690432080468,0,0,-2,1,1,-2,0,0
1480690432081972,1,3,-2,-1,0,-1,0,-1
1480690432081972,0,-2,0,1,0,-2,-1,-2
1480690432094505,0,-2,1,-1,0,-1,0,-3
1480690432094505,0,0,-4,0,-2,0,0,0
1480690432105534,-1,-1,1,-1,-3,0,-1,0
1480690432105534,-1,-1,-3,-2,1,0,-1,-1
1480690432106036,0,-2,0,0,0,-1,2,-1
1480690432106036,1,0,0,0,0,-2,-1,-1
1480690432135114,0,-4,0,-1,2,0,-1,-2
1480690432135114,-1,1,0,-1,-1,-1,-1,0
1480690432135615,-3,-1,0,1,1,1,-1,0
1480690432135615,-2,-1,-1,0,1,-2,-2,-2
1480690432139125,-1,-1,-1,1,0,0,1,-1
1480690432139125,0,0,0,0,1,0,1,-1
1480690432155167,-1,-1,0,0,-1,2,-1,0
1480690432155167,0,-1,0,-1,-1,-2,0,1
1480690432163689,-1,-2,2,-1,1,-1,0,-1
1480690432163689,-1,-3,-1,-1,-2,-1,-1,-2
1480690432164191,-1,-1,-1,-1,-3,-2,-2,0
1480690432164191,-2,0,0,0,0,-1,2,1
1480690432171211,0,1,-2,0,-3,0,0,2
1480690432171211,0,-2,-1,-1,-1,-1,-1,-1
1480690432185247,1,-1,-1,-3,1,-2,-4,-1
1480690432185247,-1,-2,0,0,0,1,-1,-2
1480690432186753,-1,-1,-1,-1,-1,0,0,-1
1480690432186753,-1,-1,0,-1,0,2,3,0
1480690432216330,0,-1,-4,-1,-1,-1,1,0
1480690432216330,-1,-2,0,-1,0,1,0,-1
1480690432220344,0,-1,1,-1,-2,-3,0,1
1480690432220344,-1,-2,1,-1,-1,0,-2,-1
1480690432230366,0,-1,-1,-3,-2,1,-1,0
1480690432230366,0,0,-2,0,1,-1,0,0
1480690432231871,1,1,-3,-2,-2,-3,-1,-1
1480690432231871,0,1,-1,0,-1,-2,-1,1
1480690432245908,0,-1,1,1,0,-2,-1,0
1480690432245908,0,-1,-1,0,0,-1,0,1
1480690432247413,0,-2,-1,-1,-2,-2,-2,0
1480690432247413,0,-2,-2,-1,0,1,1,-1
1480690432268469,-2,-2,1,2,0,0,0,-1
1480690432268469,-1,-1,1,-1,-1,-1,0,0
1480690432269973,-1,-1,-1,-1,0,0,0,0
1480690432269973,0,-1,-1,-1,1,-2,0,0
1480690432282005,-1,-1,-2,0,-1,-1,-1,2
1480690432282005,0,-1,-1,-2,-2,-1,-2,1
1480690432290527,-1,1,1,-1,0,0,-2,-2
1480690432290527,-1,1,-1,-1,-1,1,-1,-1
1480690432305567,1,1,0,0,-1,-2,0,-2
1480690432305567,0,-1,-1,0,0,-1,0,0
1480690432307071,0,0,-1,0,-1,1,-1,1
1480690432307071,1,-2,1,0,2,-2,0,0
1480690432329130,-1,0,-1,-2,1,-1,0,-2
1480690432329130,-2,-1,0,-3,0,1,-2,0
1480690432332638,-1,-1,-1,0,-1,-1,-1,-1
1480690432332638,0,3,1,-1,0,-1,-3,0
1480690432357705,-1,1,-1,-2,-1,-2,0,-1
1480690432357705,-2,-1,0,0,1,0,-1,-1
1480690432359211,0,-2,1,1,-2,0,1,0
1480690432359211,0,-1,-1,-1,-2,-3,0,1
1480690432364224,0,-4,1,-2,-1,0,1,0
1480690432364224,-1,-1,0,0,0,0,1,0
1480690432372746,-2,-1,0,-2,1,-2,-2,1
1480690432372746,-3,0,-2,-3,-1,1,-2,-2
1480690432387785,-2,0,1,0,1,0,-1,0
1480690432387785,2,1,-2,-1,-2,-2,-1,-2
1480690432389289,1,0,-1,-1,-2,-4,-1,-1
1480690432389289,-2,-2,1,2,0,-1,-1,-2
1480690432410345,0,3,-2,-3,-1,-1,-1,0
1480690432410345,-3,0,-2,-2,-1,0,0,-1
1480690432411849,-2,0,-2,1,-1,0,-2,0
1480690432411849,-1,0,-1,0,-1,0,-1,0
1480690432441428,-2,-3,-3,-1,0,-1,0,0
1480690432441428,-1,-2,-2,-1,-1,0,1,1
1480690432443433,0,0,0,2,0,0,-1,-1
1480690432443433,-4,-1,-1,1,-1,1,0,-1
1480690432448455,-2,-1,0,-1,-3,1,-1,-1
1480690432448455,-2,0,1,0,0,-1,-1,-1
1480690432461982,0,-1,0,-1,2,0,-1,-1
1480690432461982,-2,0,-1,0,0,0,-1,0
1480690432462985,0,2,0,1,2,1,0,0
1480690432462985,0,2,2,0,-1,-1,0,0
1480690432470506,-1,-1,-1,0,-2,0,1,0
1480690432470506,1,0,-1,0,0,0,-1,0
1480690432485545,2,-1,0,-2,-1,0,-2,-2
1480690432485545,0,-1,0,0,0,-2,-1,-2
1480690432487051,-1,0,-2,0,0,1,-1,-2
1480690432487051,0,-2,-1,-1,-2,-1,0,-1
1480690432507604,-3,-2,0,0,0,-2,0,0
1480690432507604,0,-1,-2,-2,0,-2,0,-1
1480690432509612,-2,5,-4,-3,-1,-1,-1,0
1480690432509612,2,-1,-3,-3,-3,0,-1,0
1480690432537690,1,-1,0,1,0,0,0,0
1480690432537690,-1,-1,0,2,-1,-1,-1,1
1480690432539689,-1,-1,0,0,-1,-2,0,0
1480690432539689,0,0,0,-1,-2,0,-2,-1
1480690432545204,1,-1,-1,0,-1,-1,0,-1
1480690432545204,1,2,-2,-2,-1,1,-1,-1
1480690432546708,1,-2,0,-1,-1,-2,-1,1
1480690432546708,0,1,3,-1,0,-3,-2,0
1480690432567764,1,-1,0,0,0,-1,0,0
1480690432567764,-1,-3,2,0,0,-2,-1,-2
1480690432569269,1,0,0,-1,0,-2,0,0
1480690432569269,-1,-1,-3,1,0,0,0,-1
1480690432590324,-1,-1,1,1,1,2,-2,0
1480690432590324,-1,-1,-1,-1,1,1,-1,0
1480690432592831,-2,-3,0,-1,0,1,-1,-2
1480690432592831,-2,-1,1,0,0,0,-1,-1
1480690432604367,-2,0,-1,-2,-2,-2,-2,-1
1480690432604367,1,0,-1,-1,-3,-3,1,-1
1480690432628425,-1,-1,-1,2,1,1,-1,-1
1480690432628425,1,2,0,0,-2,-1,0,2
1480690432635444,1,0,-4,-2,-2,-1,1,-1
1480690432635444,0,0,-3,0,-1,-2,-2,0
1480690432636949,-2,-1,0,-2,-1,2,0,-1
1480690432636949,-1,0,-1,-3,0,2,1,0
1480690432658004,-3,0,0,-1,2,-1,-2,-1
1480690432658004,0,-2,0,-1,-1,-2,0,0
1480690432659508,-1,-2,2,-1,0,-2,-1,0
1480690432659508,1,-7,2,1,2,-1,0,-1
1480690432665524,0,0,1,-1,-1,0,0,0
1480690432665524,0,-2,-1,1,-1,3,0,-1
1480690432667028,1,1,-1,-2,-1,-1,-1,0
1480690432667028,0,2,1,0,0,-1,1,-1
1480690432687583,-1,-1,-1,0,-1,-1,0,0
1480690432687583,-2,0,0,-1,-1,1,0,-1
1480690432689588,1,2,-1,0,0,0,-1,-3
1480690432689588,0,0,-2,0,-1,-1,0,1
1480690432710143,0,-1,-1,-1,0,1,-1,-1
1480690432710143,0,1,-1,-1,0,1,-1,0
1480690432712148,-1,-3,-1,0,0,1,0,-1
1480690432712148,1,1,-1,-1,0,-1,-1,0
1480690432724681,2,-1,-1,-1,-1,-2,0,2
1480690432724681,1,1,-2,0,-2,0,1,0
1480690432731699,-1,0,1,-1,1,-1,1,-2
1480690432731699,-2,0,0,1,-2,-2,0,-1
1480690432747743,-2,0,1,1,-1,0,-2,-1
1480690432747743,-1,-1,0,0,2,-1,0,-2
1480690432749247,1,0,1,-1,-3,0,-2,0
1480690432749247,-2,1,-1,-1,0,1,1,0
1480690432770305,-2,-1,-2,0,0,2,-1,-2
1480690432770305,-3,-3,1,0,-1,-1,-1,-1
1480690432771807,-3,-2,1,0,-1,-1,-1,0
1480690432771807,-2,-1,0,-1,0,-2,-4,0
1480690432784840,0,-4,3,1,1,0,0,1
1480690432784840,2,-1,-1,0,-1,1,-2,0
1480690432791358,-1,-2,-5,-1,1,0,1,0
1480690432791358,-2,0,-2,-1,-2,0,1,-2
1480690432807902,0,0,-1,-1,-1,-2,1,-1
1480690432807902,-1,0,-3,-1,-1,-1,0,0
1480690432809407,-1,-2,-1,-2,-2,-2,1,1
1480690432809407,0,-2,0,-1,0,0,-2,-1
1480690432830462,-2,0,-2,-3,0,-2,-2,-1
1480690432830462,0,-1,0,-2,1,-1,-1,1
1480690432831966,1,-2,-1,0,-1,-1,0,0
1480690432831966,-2,-5,-1,1,1,0,0,-2
1480690432844499,0,-1,1,0,-3,-1,-1,-1
1480690432844499,0,-1,-2,-2,-1,0,0,1
1480690432851519,-1,2,-2,-1,-1,0,1,-1
1480690432851519,-1,-2,-1,0,-1,-2,0,0
1480690432868063,1,0,-1,-2,0,1,0,1
1480690432868063,-2,-1,-1,0,3,1,-2,-1
1480690432870573,-2,0,1,-1,0,-2,-1,0
1480690432870573,-2,1,0,0,-1,-2,-1,0
1480690432889118,-3,-3,-1,-1,-1,1,1,1
1480690432889118,0,0,0,0,-2,-1,0,-3
1480690432898644,0,-1,2,-1,0,0,-1,0
1480690432898644,1,0,0,-2,0,-1,1,0
1480690432912682,1,1,-1,-1,-2,-2,-1,0
1480690432912682,-1,-3,1,-2,-1,-2,-1,1
1480690432914687,0,-2,0,1,0,0,0,-1
1480690432914687,-2,-2,-1,0,1,1,0,-1
1480690432935242,0,0,-1,-1,1,-3,-1,-2
1480690432935242,-2,-3,0,1,-1,2,0,-1
1480690432936748,-1,-1,-3,1,-1,1,0,1
1480690432936748,1,0,-2,-1,-2,1,-2,-1
1480690432967327,-2,0,0,2,-2,1,-1,0
1480690432967327,0,1,-1,0,1,-2,-2,-1
1480690432968831,0,-1,0,-1,-2,-2,-2,1
1480690432968831,-1,1,0,-1,-1,-1,0,-1
1480690432969834,0,2,-1,0,0,0,-1,0
1480690432969834,1,-1,-1,0,-1,-1,-1,2
1480690432995903,0,-1,-1,0,-2,2,0,-1
1480690432995903,-1,-1,-2,-1,1,-1,-1,0
1480690432996905,-1,-2,-2,0,1,-1,0,-1
1480690432996905,-2,-2,0,-2,0,0,1,-1
1480690432998410,-1,0,0,-2,2,-2,-1,-1
1480690432998410,2,0,-4,-1,-1,-1,0,1
1480690433010441,1,-1,-1,-2,-1,-2,-2,0
1480690433010441,1,0,-2,0,0,-1,-3,-1
1480690433011945,-1,1,-1,1,1,-1,-1,0
1480690433011945,-1,0,0,-2,-3,-3,0,-2
1480690433033000,-1,-1,1,-1,1,0,-1,0
1480690433033000,0,1,0,0,-1,0,0,1
1480690433034506,-3,-6,1,0,1,2,1,-2
1480690433034506,1,0,0,1,-2,0,1,-1
1480690433049043,1,-1,-1,-2,0,0,-1,-1
1480690433049043,-1,1,0,-1,0,-2,-1,0
1480690433050548,0,0,-3,-1,-2,-1,0,-3
1480690433050548,-2,-1,-2,-1,-2,0,1,0
1480690433070101,-2,-3,-2,1,0,-2,0,0
1480690433070101,-1,-2,-2,-3,-1,-1,-1,1
1480690433072108,1,0,-1,0,-2,-1,0,-1
1480690433072108,0,0,0,0,-1,-1,-1,-1
1480690433084137,1,1,0,-1,-1,0,3,-2
1480690433084137,-1,0,-1,1,0,0,0,-3
1480690433094665,0,1,-1,-1,-1,1,-1,-1
1480690433094665,-2,-1,0,-1,0,1,-1,1
1480690433107700,1,2,-1,0,-2,-1,0,-1
1480690433107700,0,-2,-3,-1,-1,-2,0,0
1480690433109204,-2,0,1,-2,0,-2,-2,-1
1480690433109204,0,-1,-2,-2,1,0,-2,0
1480690433130260,-2,-3,-1,-1,0,-1,-3,1
1480690433130260,0,0,-1,-1,1,-2,0,0
1480690433131764,-3,-2,2,1,0,-2,-1,0
1480690433131764,-3,-2,0,-1,1,-1,1,-1
1480690433143798,-2,0,0,0,-2,-2,-1,-1
1480690433143798,-2,-3,-1,-1,-2,0,-1,1
1480690433160340,-1,-1,-2,0,-2,-2,-1,1
1480690433160340,0,-2,1,-1,-1,-1,-1,0
1480690433191923,1,-2,0,-1,-1,0,-1,-2
1480690433191923,-2,-2,-1,0,2,1,1,0
1480690433194430,1,1,0,-2,-1,-1,0,1
1480690433194430,0,-2,0,0,-1,0,-1,-2
1480690433194932,3,0,-2,-2,0,0,-1,0
1480690433194932,-2,1,-1,-1,-1,-1,-2,-1
1480690433198441,0,1,-2,-1,-3,-3,0,-1
1480690433198441,-2,-1,-1,-1,1,1,-2,-2
1480690433213481,0,-1,0,-1,0,2,-1,-2
1480690433213481,1,0,-1,-1,-1,-1,-2,-2
1480690433215988,1,1,0,-1,1,0,1,1
1480690433215988,-1,0,-1,0,-1,0,-1,-1
1480690433228019,-2,2,0,-1,0,-1,-2,-1
1480690433228019,-1,0,2,1,-1,0,-1,1
1480690433229523,-1,-1,-2,-1,-1,2,0,-2
1480690433229523,-2,-1,0,-1,-1,-2,-1,3
1480690433250079,-1,1,-1,0,0,-2,0,0
1480690433250079,1,1,-1,-2,0,-1,0,0
1480690433252084,-1,-1,-1,0,0,1,-1,-1
1480690433252084,0,4,0,2,0,-2,0,-3
1480690433264117,0,0,-1,2,-1,0,1,1
1480690433264117,-2,-2,0,-2,-1,0,0,0
1480690433274143,-2,-4,-3,-1,-1,-1,1,-3
1480690433274143,1,-1,-1,-2,-1,-2,-1,0
1480690433287679,0,-2,0,-3,-2,0,0,0
1480690433287679,0,1,1,-1,0,-1,-2,0
1480690433289182,1,-1,-1,-2,0,-1,0,1
1480690433289182,-2,-2,0,-2,0,-1,-1,-2
1480690433310238,0,-1,-1,0,2,-2,-1,-2
1480690433310238,-1,-2,-1,-1,-1,-2,0,-1
1480690433311749,0,2,-2,0,0,1,-3,-1
1480690433311749,2,0,0,0,1,1,-1,0
1480690433323774,1,1,0,-1,-1,-1,1,0
1480690433323774,0,0,-1,-1,0,0,0,0
1480690433332798,-1,-1,1,1,2,-1,0,1
1480690433332798,-2,0,-2,-2,-2,-1,-1,-2
1480690433355360,-3,-1,-1,-1,-1,0,-2,-1
1480690433355360,-1,0,-1,-1,-2,-1,1,-2
1480690433356863,0,1,0,-1,-1,-1,-2,0
1480690433356863,0,-3,1,-1,1,-1,-1,-1
1480690433370400,0,-1,1,-1,2,-1,-2,0
1480690433370400,0,-2,-2,0,-2,0,0,-2
1480690433371903,-3,-1,1,1,0,1,0,-2
1480690433371903,-1,0,0,0,-1,-1,0,1
1480690433383934,0,-1,-2,-1,-3,0,-2,0
1480690433383934,-2,0,0,0,2,-1,-1,2
1480690433392960,0,0,0,-2,-1,-1,1,1
1480690433392960,1,2,-2,-1,-1,-1,0,1
1480690433407999,0,1,0,-1,0,1,0,1
1480690433407999,1,0,-3,0,-1,-1,0,-2
1480690433409502,0,-2,0,-1,-1,-2,-1,-3
1480690433409502,-1,-2,0,0,2,0,1,0
1480690433438082,-2,-3,-3,-3,0,1,-1,-1
1480690433438082,1,0,-1,0,-2,0,-1,2
1480690433439584,0,1,-3,-1,-2,-1,-3,1
1480690433439584,0,-1,0,-1,-1,-1,0,0
1480690433469163,-2,-2,1,0,0,-1,1,-1
1480690433469163,-2,-2,1,-1,1,0,0,-1
1480690433470669,0,0,1,-1,1,0,-1,-1
1480690433470669,0,2,0,-1,-1,-1,0,-2
1480690433471668,0,1,-2,0,0,-1,-1,-1
1480690433471668,0,-1,-1,0,1,0,-1,-1
1480690433492222,2,0,0,0,1,-2,-1,2
1480690433492222,-1,-2,-1,-2,-1,-1,2,0
1480690433493227,-2,-1,-1,-1,1,-1,0,-1
1480690433493227,-2,-1,0,-2,0,0,1,-1
1480690433496233,1,0,1,-1,0,-1,-2,0
1480690433496233,-1,-1,2,0,-2,1,-2,-2
1480690433520299,2,2,0,0,-2,-2,-1,0
1480690433520299,0,-1,-2,-1,0,-1,-1,0
1480690433521801,-1,-2,-4,1,0,2,1,-2
1480690433521801,-1,-2,-3,-2,1,-2,0,0
1480690433536340,-5,-3,1,1,-2,-2,0,-1
1480690433536340,-2,-2,1,1,1,0,-1,1
1480690433541353,-1,-4,2,-1,1,1,3,0
1480690433541353,-1,0,0,-3,-4,-2,-3,-2
1480690433550378,-3,-2,-1,2,1,1,-2,-2
1480690433550378,0,1,0,-1,-1,-1,-2,1
1480690433551881,-1,-1,0,-1,0,1,-1,0
1480690433551881,3,-1,-3,1,-3,-2,-2,1
1480690433572938,0,-1,0,-2,-2,-2,0,0
1480690433572938,1,-1,0,-2,-2,-1,-1,0
1480690433574441,-1,1,-1,0,0,-1,1,-1
1480690433574441,-1,-1,-1,0,3,2,1,0
1480690433587977,1,3,-1,0,0,1,-1,0
1480690433587977,1,1,-4,0,-1,-2,0,-2
1480690433589481,0,1,-3,-2,-1,-1,1,1
1480690433589481,-1,-2,2,0,1,0,-3,0
1480690433610540,-1,-2,-2,-3,-1,0,1,0
1480690433610540,-1,2,2,0,-1,1,0,-1
1480690433612041,-2,0,0,0,-2,-1,-1,-2
1480690433612041,-1,-1,0,-1,0,0,1,-1
1480690433632595,0,-3,-2,-3,0,-1,0,0
1480690433632595,-1,-2,-2,0,-1,-1,1,1
1480690433634602,0,0,-2,-3,-1,-1,-1,1
1480690433634602,-2,1,0,0,0,-1,0,0
1480690433647134,-1,-1,2,0,2,0,0,1
1480690433647134,-1,0,0,-1,-1,0,0,-3
1480690433654154,1,2,0,-1,-3,-1,-1,-2
1480690433654154,1,-1,0,-1,-1,-1,-1,-1
1480690433685737,0,-1,0,2,2,0,0,-2
1480690433685737,-1,-1,-1,0,-1,-2,-1,-1
1480690433687743,0,-1,-1,0,-1,-1,-3,0
1480690433687743,-1,-1,-1,-1,-1,-1,0,-1
1480690433692255,0,1,-1,-2,-3,0,-1,-1
1480690433692255,-1,-1,-1,0,1,0,-1,-1
1480690433693759,0,-1,1,-3,0,2,-1,-1
1480690433693759,-1,0,-1,-1,-1,-1,-1,-1
1480690433706292,-2,-1,-1,-2,-1,0,-2,-1
1480690433706292,0,-1,-2,0,0,0,0,-1
1480690433714815,0,0,-3,1,-2,-1,0,0
1480690433714815,-2,1,-3,1,-2,0,0,-3
1480690433729352,0,-1,-2,0,0,-1,0,-1
1480690433729352,1,0,-2,0,-1,-1,1,-1
1480690433744895,-3,-1,1,-1,-2,-3,-1,1
1480690433744895,0,2,-3,-1,-1,-1,-1,1
1480690433751914,0,-1,1,1,-2,-4,-2,0
1480690433751914,-2,-2,1,0,-1,-1,-2,0
1480690433752918,-1,0,0,-1,1,0,-1,-2
1480690433752918,0,0,-1,-1,-2,0,1,0
1480690433766459,1,0,-2,-3,-1,-1,1,0
1480690433766459,-1,2,-1,-1,1,1,0,0
1480690433774974,0,-2,-2,0,-1,0,1,-1
1480690433774974,-1,-1,1,0,0,1,1,-1
1480690433789513,1,1,-1,1,0,0,0,-1
1480690433789513,-1,0,-1,0,-1,-1,-1,0
1480690433790516,-3,-1,1,2,4,2,0,-3
1480690433790516,-2,-2,-1,1,-3,-1,0,0
1480690433820097,-2,-2,-2,-1,0,-1,0,0
1480690433820097,-2,-1,1,-1,0,-1,0,-1
1480690433821097,-2,1,-1,-1,-1,1,-1,-1
1480690433821097,-1,-3,-1,0,0,0,0,-2
1480690433826613,-1,0,-2,0,-3,-1,-1,2
1480690433826613,0,-2,-2,-1,-2,1,0,0
1480690433834632,1,-1,-2,-1,-3,0,-1,-1
1480690433834632,2,0,1,-2,2,-1,-1,-1
1480690433849673,0,-1,0,0,-1,1,-2,0
1480690433849673,1,1,1,-1,0,0,-2,-2
1480690433851678,-2,-2,0,0,-1,-2,-1,-1
1480690433851678,-1,-3,-1,0,-1,0,-1,-1
1480690433872234,0,1,0,0,-1,0,0,-2
1480690433872234,-1,-2,1,1,-1,0,1,-2
1480690433872735,-1,0,-2,-1,1,-2,-2,-1
1480690433872735,-1,0,0,-2,0,-1,-3,0
1480690433895294,-1,0,-1,0,0,-1,0,-2
1480690433895294,-2,-3,0,-1,-4,-2,-1,1
1480690433897299,2,0,-1,-1,-2,-2,0,2
1480690433897299,-1,-1,0,1,-1,0,0,2
1480690433909833,-1,-2,1,-1,-1,-1,0,-3
1480690433909833,1,3,-4,-1,-2,-1,-1,0
1480690433910335,-2,-2,0,1,-1,0,-1,-2
1480690433910335,1,0,-1,0,-1,0,0,0
1480690433931892,0,-2,-1,-2,0,-2,-1,0
1480690433931892,2,1,-2,-1,0,-2,0,1
1480690433932894,-2,0,-2,-3,1,0,-1,0
1480690433932894,-1,0,0,0,-1,0,0,-1
1480690433962974,-1,-2,1,-1,-1,2,0,0
1480690433962974,-2,-2,0,-1,-1,-1,0,-1
1480690433963475,0,1,0,0,0,0,-1,0
1480690433963475,-3,-5,-2,0,0,2,-1,-1
1480690433969494,0,2,-1,0,-2,-1,0,0
1480690433969494,-1,-3,0,-1,0,-2,-1,-2
1480690433971498,0,-3,-1,1,-1,0,0,-1
1480690433971498,0,0,-1,-2,-2,-2,-1,0
1480690433992051,1,-2,-1,1,1,0,1,1
1480690433992051,0,0,0,-1,0,1,1,-1
1480690433993054,1,0,-1,-3,-2,-2,-1,1
1480690433993054,0,-1,-1,-1,-1,0,1,-2
1480690434017620,-2,-1,0,-1,1,-3,1,0
1480690434017620,-1,2,-5,-2,0,-3,0,0
1480690434018624,-1,-2,0,1,-2,1,0,-1
1480690434018624,0,2,-2,0,-1,0,0,0
1480690434029651,-2,1,-2,-2,-2,-2,-3,-1
1480690434029651,0,-1,-1,-3,-1,0,-1,0
1480690434030153,0,0,1,0,-1,0,-1,-1
1480690434030153,0,-1,0,0,-1,-1,-1,2
1480690434052212,-2,-1,1,2,1,1,0,-1
1480690434052212,-1,-1,0,1,-2,-1,-1,0
1480690434052713,2,-1,-1,-1,-1,-1,0,0
1480690434052713,-1,-2,2,1,1,0,0,-1
1480690434066249,1,-2,-1,-2,0,-1,0,1
1480690434066249,-2,-1,0,0,1,1,0,-1
1480690434074772,-2,-1,-2,0,0,-1,0,0
1480690434074772,0,-2,-1,-1,0,-1,0,-2
1480690434089812,-1,-2,-2,-1,0,-1,-1,-3
1480690434089812,0,-1,0,0,1,-1,1,-1
1480690434090313,2,0,-2,1,0,-1,0,0
1480690434090313,0,0,1,-1,0,-2,-1,-1
1480690434111870,-1,0,1,1,0,0,0,-2
1480690434111870,0,-1,0,-1,0,-2,0,-1
1480690434112872,-2,2,-2,-1,-3,-1,0,1
1480690434112872,0,0,-2,-2,0,1,-2,-1
1480690434135433,1,-1,-2,-2,-1,-1,-2,0
1480690434135433,0,-1,1,0,3,0,0,-1
1480690434135934,-1,-1,-1,1,0,-1,-1,-2
1480690434135934,-2,-1,0,0,-1,1,0,1
1480690434149470,-1,2,-2,-1,-1,0,0,-1
1480690434149470,1,0,-1,-1,-1,0,-1,0
1480690434150473,-2,-3,0,0,-1,-1,-1,-2
1480690434150473,1,1,-2,-2,-2,-1,-3,1
1480690434172030,-1,-1,-1,0,1,1,0,-1
1480690434172030,-1,-3,1,0,-2,-1,-2,-1
1480690434173033,0,-1,0,0,1,0,1,0
1480690434173033,0,1,0,-1,-4,-2,-2,0
1480690434194590,-1,1,0,-3,-1,0,1,0
1480690434194590,-1,0,-1,-1,-1,-1,-1,-2
1480690434211134,0,-1,-1,-2,1,0,-2,1
1480690434211134,1,-1,-3,-1,2,-1,0,-1
1480690434212638,0,0,-3,-1,0,-1,-2,0
1480690434212638,-1,0,-1,0,0,0,-1,0
1480690434213640,-1,1,-2,-2,1,0,0,1
1480690434213640,0,0,-1,0,0,0,1,-2
1480690434232200,0,-2,0,-1,-2,0,0,-2
1480690434232200,-1,-1,0,-1,0,0,0,0
1480690434232692,0,-2,1,-1,2,-3,-1,-2
1480690434232692,0,-1,1,-1,0,-1,-1,-1
1480690434255251,0,-1,1,0,0,-2,1,-2
1480690434255251,0,-2,0,0,-1,0,0,0
1480690434255753,0,0,-2,1,-1,2,-1,-2
1480690434255753,-2,-1,0,0,0,-1,-1,-1
1480690434269791,1,0,-2,-1,-3,-4,0,0
1480690434269791,-4,-3,0,0,0,1,0,-1
1480690434270293,0,0,0,-1,-2,-2,0,1
1480690434270293,0,-2,-2,-1,-2,0,0,-1
1480690434300371,-3,-1,-2,-1,-2,0,0,1
1480690434300371,1,1,-2,-2,0,-1,0,0
1480690434301374,0,0,1,-1,-1,0,0,-1
1480690434301374,1,1,-1,-1,1,0,0,-1
1480690434315411,1,0,-1,1,-2,1,-1,-2
1480690434315411,0,0,-2,0,0,0,-1,-1
1480690434315912,-2,1,0,-1,1,1,-1,0
1480690434315912,-2,-1,0,0,-1,-1,-1,0
1480690434329449,-2,-3,-2,0,3,0,-1,0
1480690434329449,0,-1,-3,-1,-1,-1,-1,0
1480690434330451,-2,-2,-2,-1,0,2,0,-1
1480690434330451,0,-1,-2,-2,-2,-1,-2,1
1480690434352009,2,1,0,-1,-1,-2,-1,0
1480690434352009,-2,2,0,1,-2,0,1,0
1480690434353014,1,2,1,2,-1,-1,1,-1
1480690434353014,0,-1,1,2,1,-1,0,0
1480690434374569,-1,-2,1,-2,0,2,1,1
1480690434374569,-1,0,0,-1,0,-2,-1,0
1480690434376573,0,0,-1,-2,-1,-2,-2,-1
1480690434376573,-1,0,-2,-1,-1,-1,-1,-1
1480690434389613,1,-1,-2,-1,-1,1,-1,-2
1480690434389613,-1,-1,-1,0,0,1,2,-1
1480690434390611,-1,-2,-2,-2,-2,1,2,0
1480690434390611,-1,-2,0,-1,-1,-1,0,0
1480690434412169,-1,-2,0,2,1,-2,-2,-2
1480690434412169,0,-1,-1,-1,-3,-2,-2,-2
1480690434413171,-1,-1,1,0,0,-3,-2,-1
1480690434413171,0,1,-1,-2,-1,0,-1,0
1480690434434729,-2,0,0,-1,1,1,-1,-1
1480690434434729,1,-1,1,-1,-1,-1,-3,0
1480690434435231,-2,0,-2,-1,0,-1,0,0
1480690434435231,-1,-2,1,3,0,0,0,0
1480690434449768,0,-1,-1,0,-1,0,0,-1
1480690434449768,-1,-1,-1,-1,-1,0,-1,-3
1480690434450270,-1,-2,-2,-1,1,0,-2,-2
1480690434450270,-1,0,2,-1,0,-1,-1,1
1480690434472329,-2,-1,0,0,-2,2,-1,2
1480690434472329,-2,0,-1,0,-4,1,0,1
1480690434472831,-1,-2,-1,-1,-1,-2,-2,0
1480690434472831,1,-1,-2,-2,2,-1,0,-1
1480690434494890,1,1,0,-2,0,-2,0,-1
1480690434494890,0,-4,0,-1,2,1,0,1
1480690434495390,0,0,-2,0,0,0,-2,-1
1480690434495390,-1,-1,-2,-1,-2,1,-1,-1
1480690434517950,-3,-2,1,1,0,-2,-1,-1
1480690434517950,0,1,-2,-1,-1,1,0,-2
1480690434518451,-1,0,-1,-1,0,-1,0,2
1480690434518451,0,1,-1,-1,0,-1,-1,0
1480690434547529,1,-2,-4,-2,0,0,-1,0
1480690434547529,-1,-2,-1,0,2,-1,-1,-1
1480690434548531,0,0,-2,0,0,-3,-1,0
1480690434548531,-1,0,1,-1,-1,-2,-1,-2
1480690434555049,1,0,0,-1,-2,-3,1,-1
1480690434555049,1,0,2,0,-2,-1,0,0
1480690434570590,0,-2,-2,-2,-1,-1,-2,-2
1480690434570590,-1,-1,-1,0,-1,-1,0,0
1480690434572597,-2,0,2,0,0,-1,-2,-1
1480690434572597,0,0,-1,-3,0,-2,-2,0
1480690434577108,-4,-3,-1,-1,-1,2,2,-2
1480690434577108,0,0,-2,-1,0,2,-1,-1
1480690434592148,2,2,0,1,-3,-1,1,-2
1480690434592148,-2,-1,-1,-1,0,-1,-1,-1
1480690434592649,0,-2,0,0,-1,-1,-2,-1
1480690434592649,-2,-1,-2,-1,0,-2,-1,-2
1480690434614708,-1,-2,-1,0,1,0,3,0
1480690434614708,1,1,-1,0,-1,0,-2,-1
1480690434615711,0,-1,0,0,-1,-2,-1,-1
1480690434615711,0,-4,-2,0,-1,0,0,-1
1480690434629759,-2,0,1,-1,-2,-1,-1,0
1480690434629759,-1,-2,0,1,-1,2,-1,0
1480690434630250,-1,1,1,0,0,0,-2,0
1480690434630250,0,-2,2,-1,-1,0,-1,-2
1480690434652308,-2,-2,-1,-2,-1,0,-3,-2
1480690434652308,-1,-1,2,-1,0,-2,-1,0
1480690434652809,0,-2,-1,0,-2,1,-2,-1
1480690434652809,-1,0,0,0,1,-1,0,-1
1480690434674367,-1,-2,-3,-1,0,1,0,1
1480690434674367,-1,-2,-1,0,-1,0,-1,0
1480690434675369,-1,-1,0,-1,1,0,0,0
1480690434675369,0,0,0,-2,2,0,0,1
1480690434689406,1,-1,-1,0,-1,-1,-2,0
1480690434689406,-1,0,-2,1,-1,-1,-1,0
1480690434690409,0,-1,-2,-1,-1,-2,-1,0
1480690434690409,-1,0,-1,-1,-2,1,-1,-2
1480690434712969,1,-1,-3,-1,1,-1,-1,-2
1480690434712969,0,-3,-1,0,0,-3,0,0
1480690434713470,0,2,1,-1,-2,-1,-1,-2
1480690434713470,-1,0,-2,1,1,0,0,1
1480690434736030,-2,1,1,0,1,0,0,-1
1480690434736030,-1,-3,-1,-1,2,0,0,-1
1480690434737034,-1,0,-1,0,-2,1,1,0
1480690434737034,-2,-1,0,-2,1,-2,-1,0
1480690434757086,0,-1,1,-3,-2,-1,0,-1
1480690434757086,0,1,0,0,1,-2,0,0
1480690434764606,0,-1,0,-1,1,2,0,-1
1480690434764606,-2,-1,0,1,-3,-2,-1,-2
1480690434772126,1,-4,-1,1,-1,-1,-2,1
1480690434772126,-1,0,0,-2,0,-2,-3,-2
1480690434773129,1,0,0,-1,-4,-2,1,-1
1480690434773129,3,1,-1,-1,-1,-1,-2,1
1480690434796189,0,-1,-1,1,1,-1,0,-3
1480690434796189,2,3,1,0,-2,2,-1,-1
1480690434796691,0,0,-1,-2,-1,1,-1,1
1480690434796691,2,-2,-1,-2,-1,-2,-1,-1
1480690434809726,-2,2,0,-2,-1,-1,-1,1
1480690434809726,-1,0,-2,-1,-3,-2,-3,-1
1480690434810227,-1,2,-1,-1,-1,-2,-2,-1
1480690434810227,-1,-1,0,2,-1,1,0,0
1480690434840307,-3,-1,-1,2,1,-1,-1,-1
1480690434840307,-1,-2,1,1,-1,0,3,1
1480690434840808,0,-3,-1,1,1,-1,-1,-2
1480690434840808,-2,1,-3,-2,-1,-1,0,0
1480690434854848,2,3,0,-2,-3,1,-2,1
1480690434854848,-1,-1,1,1,-1,2,-3,-1
1480690434855347,-1,-3,-2,0,1,-1,1,0
1480690434855347,0,-1,-1,-1,0,0,-1,-2
1480690434878408,0,-1,-1,0,-2,0,-1,0
1480690434878408,0,0,-2,-1,-2,-2,1,-2
1480690434878910,-1,0,0,-1,-1,-2,1,0
1480690434878910,0,-2,0,0,0,-1,-2,0
1480690434891945,-1,-1,-1,-1,1,0,0,-1
1480690434891945,-2,-2,-1,1,1,1,0,-2
1480690434892947,-1,-1,-1,-1,-2,-1,2,-3
1480690434892947,-1,0,-1,-1,-1,-2,0,1
1480690434914504,0,0,-2,-2,-1,-1,-1,-1
1480690434914504,2,1,-2,0,0,-2,-4,0
1480690434915507,-1,-1,0,0,0,0,-3,-1
1480690434915507,0,1,0,-1,-2,1,-2,1
1480690434929544,0,-2,0,-2,-2,1,1,-1
1480690434929544,-1,-1,-1,-2,-2,-3,0,-1
1480690434930547,-1,1,-1,0,-1,-2,0,-1
1480690434930547,-2,0,0,0,0,-1,1,-2
1480690434952105,0,0,-1,-1,1,0,-1,0
1480690434952105,-2,0,-1,-2,-2,0,-1,1
1480690434953112,0,-2,1,-1,0,-1,-1,1
1480690434953112,0,-4,-1,-2,-1,0,-1,0
1480690434974664,-1,-2,1,0,-3,-3,-2,0
1480690434974664,-1,-1,0,-1,-3,-1,0,0
1480690434975165,0,-1,-1,-1,2,0,-1,-1
1480690434975165,-1,0,-1,1,-1,0,0,0
1480690434991209,1,-1,-3,-1,-2,-3,-1,0
1480690434991209,0,-1,0,1,1,0,-1,0
1480690434991710,0,-1,2,0,-1,0,1,0
1480690434991710,-2,-3,0,1,3,1,0,-5
1480690435020286,0,1,0,-1,-1,-1,1,0
1480690435020286,-1,0,0,-1,1,0,1,-2
1480690435022291,0,-2,-3,-1,-2,1,0,-2
1480690435022291,0,-1,-1,-1,-1,-1,-1,-1
1480690435042846,-1,-1,-1,-1,-1,-2,0,0
1480690435042846,-1,-1,-1,-2,2,0,0,0
1480690435043347,-2,0,-1,-1,-1,-3,0,-1
1480690435043347,1,1,0,-1,-3,-2,0,1
1480690435048863,-3,0,2,2,-1,0,-3,-1
1480690435048863,1,-1,0,-1,-3,-3,0,-1
1480690435057384,-1,0,0,-1,-2,-3,-2,0
1480690435057384,-1,1,-2,-2,-1,0,0,0
1480690435073428,-1,-2,1,-1,0,-2,-1,0
1480690435073428,-2,-1,-1,-1,-1,0,-1,2
1480690435074430,0,-1,-2,-2,0,1,1,0
1480690435074430,0,-2,0,0,2,1,1,-1
1480690435103006,2,-1,-1,-2,-3,0,1,1
1480690435103006,-1,-3,-1,1,2,1,1,-1
1480690435103508,1,-1,-1,-2,-2,-1,-1,1
1480690435103508,-1,-1,1,-1,1,2,-1,0
1480690435118046,-2,0,-3,0,0,0,-2,-1
1480690435118046,1,0,-1,0,-2,-1,0,0
1480690435119049,-2,0,0,0,1,-1,-1,-1
1480690435119049,0,0,-1,-1,0,-2,-1,0
1480690435132084,0,0,0,0,0,2,1,-1
1480690435132084,0,1,-2,-2,-3,-2,0,0
1480690435133088,1,-1,0,1,-1,0,-3,-2
1480690435133088,-1,-1,-1,1,-4,-1,-2,1
1480690435154643,-1,0,-1,1,1,-1,-1,-1
1480690435154643,1,0,-3,-1,0,-2,1,1
1480690435155145,-1,1,1,-1,-2,0,0,-2
1480690435155145,-1,-1,-1,-1,0,-2,-1,-1
1480690435177704,0,-2,0,-2,-1,1,-1,0
1480690435177704,1,-1,-1,0,-1,1,-1,-1
1480690435178708,-1,-3,0,0,0,0,0,0
1480690435178708,1,4,0,-2,-1,-3,-1,-1
1480690435200766,-1,0,0,0,0,0,1,0
1480690435200766,-2,-1,1,-1,-1,2,-2,-3
1480690435201769,-2,0,1,0,0,-1,-1,0
1480690435201769,-1,-2,1,0,-1,-2,-1,-2
1480690435214805,-1,-2,-1,0,2,0,0,-1
1480690435214805,-1,1,-1,-1,0,-1,0,1
1480690435215305,0,-1,-2,-2,-2,-1,0,0
1480690435215305,-1,-3,-1,-1,-3,-1,1,-1
1480690435228840,-1,0,-1,-1,1,0,-2,-1
1480690435228840,-2,-2,-1,-1,0,0,0,0
1480690435237363,0,-1,-3,-1,1,0,0,0
1480690435237363,-1,0,0,-2,1,-1,0,-2
1480690435267945,0,-2,-1,-1,-3,0,-1,-2
1480690435267945,1,-4,-2,-1,-2,-2,0,1
1480690435268446,0,0,0,-1,1,1,-2,-2
1480690435268446,0,0,-1,-1,-1,0,-1,-1
1480690435274462,0,0,0,-1,1,1,1,0
1480690435274462,-1,-3,0,-1,1,-2,-2,-1
1480690435275464,-1,0,1,0,2,-2,0,0
1480690435275464,-1,2,1,0,-1,1,-1,0
1480690435289000,0,2,-1,0,-2,0,-1,-3
1480690435289000,-3,-2,2,1,-1,0,-1,-1
1480690435297021,1,-1,1,1,1,-1,0,-2
1480690435297021,-1,-1,-2,1,1,0,0,0
1480690435320084,0,1,0,-1,-1,-2,-1,2
1480690435320084,2,2,1,0,1,-1,0,0
1480690435321085,-1,0,0,-1,-1,0,-1,2
1480690435321085,0,0,0,-2,-1,0,-1,-2
1480690435334622,-1,-9,0,-1,1,1,-1,-1
1480690435334622,-1,1,0,-2,1,-1,-2,-2
1480690435335625,0,0,0,-1,0,0,-2,-1
1480690435335625,2,0,-1,0,-1,-2,0,2
1480690435349160,0,1,-1,0,0,-1,1,2
1480690435349160,-1,-1,-2,0,-2,-1,-2,-2
1480690435357683,-2,0,0,0,-3,-1,0,-1
1480690435357683,-1,-1,-1,-2,-1,1,-1,1
1480690435374227,0,0,1,-1,-1,-3,-1,-1
1480690435374227,-1,0,-2,-2,-1,0,2,1
1480690435375230,-1,-1,0,-2,0,0,0,-1
1480690435375230,-1,0,-1,0,-2,-1,0,0
1480690435395785,-3,0,-1,-2,0,1,-2,0
1480690435395785,-1,2,0,0,-1,-1,-2,0
1480690435397789,-1,-3,-1,1,-2,-1,-2,-1
1480690435397789,-2,-2,1,-2,0,-1,0,-3
1480690435416840,2,-3,0,0,-1,-1,3,-2
1480690435416840,0,2,0,0,-2,-3,0,-1
1480690435424862,0,0,-2,-1,-2,0,1,-1
1480690435424862,0,-1,-3,-3,0,-2,-2,-3
1480690435431882,1,1,0,1,0,-1,0,1
1480690435431882,1,-2,-2,0,0,1,0,-1
1480690435432883,-1,-2,0,-1,-1,-3,-1,1
1480690435432883,-1,-3,-3,-1,-2,-2,-1,2
1480690435454941,-2,-1,0,1,1,1,-3,-1
1480690435454941,0,-1,-1,0,-1,0,-2,0
1480690435455442,-1,-2,-3,-1,-1,0,-1,0
1480690435455442,0,0,-1,1,-1,0,0,-2
1480690435478002,1,0,-1,-2,0,-1,-1,0
1480690435478002,-1,0,2,-1,-1,0,-1,1
1480690435478504,1,1,-2,-1,0,-1,0,-1
1480690435478504,-1,0,0,0,0,1,2,0
1480690435492040,-1,1,-1,1,-1,-2,-1,-1
1480690435492040,1,-2,1,0,-1,-1,0,-1
1480690435493046,0,0,-1,0,-2,-1,-1,-1
1480690435493046,0,-2,1,1,0,0,-3,0
1480690435515603,-1,0,-3,-3,-2,-1,0,-2
1480690435515603,0,1,-3,-1,-1,-1,1,-1
1480690435516607,-1,1,0,-2,0,-1,0,0
1480690435516607,-1,1,1,0,-1,0,0,0
1480690435537661,-2,-3,0,-1,-1,0,0,-1
1480690435537661,0,-2,0,-1,-1,0,-2,1
1480690435538665,1,-1,-1,2,-1,1,0,-1
1480690435538665,1,1,0,-2,-1,-1,1,1
1480690435576765,-1,0,-2,0,0,0,0,-1
1480690435576765,0,0,1,0,0,0,-1,-2
1480690435577267,0,0,-2,0,0,0,0,0
1480690435577267,-1,-2,-1,-2,-1,-1,0,0
1480690435578771,-1,-3,-1,1,0,-1,0,-1
1480690435578771,-1,0,-1,1,3,-2,0,-1
1480690435582280,0,-2,-2,0,-1,-1,1,1
1480690435582280,0,-1,-1,0,0,-1,-1,0
1480690435597821,0,-2,1,-1,-1,0,0,-2
1480690435597821,-3,0,0,-2,0,1,-2,-2
1480690435599325,1,-1,-1,-1,0,-2,-2,-1
1480690435599325,-2,0,1,1,-2,0,-1,-1
1480690435611860,0,1,-2,0,-1,0,-1,0
1480690435611860,-1,-1,1,-1,-1,1,0,1
1480690435612863,-1,1,-3,-1,1,0,-1,-2
1480690435612863,-2,0,-2,0,1,-1,-1,-2
1480690435634419,1,0,-1,0,0,-1,0,-1
1480690435634419,0,-2,-1,-1,-2,0,1,-1
1480690435641939,-1,0,0,-2,-1,-1,-2,1
1480690435641939,-1,-1,0,0,0,1,0,-3
1480690435657981,0,1,0,0,-1,-1,-2,0
1480690435657981,0,-1,-2,-1,0,-1,1,1
1480690435658483,0,-2,1,-2,0,0,-1,0
1480690435658483,-1,-2,0,1,1,-1,-2,2
1480690435672020,-1,0,-1,0,0,0,2,-1
1480690435672020,-1,-2,-1,0,-3,0,0,0
1480690435673022,-1,-2,0,0,-1,-3,1,0
1480690435673022,-2,-1,0,-1,-2,-1,0,-1
1480690435695581,-1,-1,-1,-3,1,-1,-2,-2
1480690435695581,0,-2,0,0,1,0,-1,-1
1480690435697087,-1,0,-1,0,0,0,2,0
1480690435697087,1,0,-2,0,-2,-1,0,-1
1480690435717140,-1,2,-2,0,0,-1,0,2
1480690435717140,-1,0,0,-2,-2,-1,1,-2
1480690435718142,-3,-1,2,1,-1,2,-2,0
1480690435718142,0,0,-1,-2,1,-1,0,-1
1480690435732178,0,-1,0,0,-1,-1,0,1
1480690435732178,-1,-1,-4,-1,-1,0,0,-1
1480690435733181,-1,-1,-1,0,-1,-2,1,-1
1480690435733181,-1,1,0,-1,-1,0,-2,0
1480690435754738,-1,-2,2,0,0,-1,-3,0
1480690435754738,-2,0,-1,0,1,0,-1,-1
1480690435755240,-1,-1,-1,0,-1,-2,-1,-2
1480690435755240,0,-1,-3,0,-1,0,0,-1
1480690435777299,0,0,-2,-2,0,-1,-1,0
1480690435777299,-1,-1,-1,1,-2,-1,-1,-1
1480690435778301,0,0,-1,-1,0,-1,0,-2
1480690435778301,2,0,1,-1,1,-1,-1,1
1480690435793341,-1,-1,-1,-2,-1,0,1,0
1480690435793341,0,1,1,-1,-3,-1,1,-2
1480690435794344,1,0,-1,-1,0,1,1,0
1480690435794344,-1,0,-1,-1,-2,-2,1,-2
1480690435822920,0,-2,-2,1,-1,-2,0,1
1480690435822920,-1,-2,-2,-1,-2,-2,-2,-1
1480690435823421,-3,0,0,-2,-2,-1,-3,-1
1480690435823421,-3,-2,0,-1,0,1,-2,-1
1480690435837960,-1,1,1,0,0,-1,0,-1
1480690435837960,-1,-2,0,2,2,0,0,1
1480690435838461,0,0,0,1,1,0,0,0
1480690435838461,1,-5,-1,1,-1,-2,0,-1
1480690435852499,0,-5,4,1,1,2,0,-1
1480690435852499,0,0,1,-2,-1,-1,0,-1
1480690435859517,-1,-2,-2,-1,-1,1,-1,0
1480690435859517,-2,-2,0,-1,1,2,0,-1
1480690435874558,-1,0,-2,0,-3,0,-1,-1
1480690435874558,-1,-1,-1,-1,0,-1,0,0
1480690435875560,0,0,0,0,-1,-1,1,0
1480690435875560,-2,-3,-1,-1,0,1,0,-1
1480690435905139,2,1,-1,-3,0,-2,0,0
1480690435905139,-1,-1,0,-1,-1,-1,1,-1
1480690435906142,0,-3,-1,-2,-2,-1,0,-1
1480690435906142,1,0,-1,-1,1,-1,0,0
1480690435912157,-2,1,0,-1,-3,-2,-2,-1
1480690435912157,-1,0,0,0,0,0,-2,-2
1480690435912659,-1,1,-3,0,0,-1,-3,0
1480690435912659,-1,0,-1,0,-2,0,-1,-1
1480690435934717,0,1,-1,-1,-1,-1,1,0
1480690435934717,-1,-2,-1,-1,1,-1,-1,0
1480690435935219,-2,-2,-1,-1,-2,-2,0,-1
1480690435935219,0,2,-1,-3,0,-1,0,2
1480690435957277,-1,-3,-1,-3,0,1,0,1
1480690435957277,1,0,-1,0,0,1,0,-1
1480690435957779,0,0,0,0,1,1,-2,-2
1480690435957779,2,1,-1,-1,-2,-2,-2,-2
1480690435971816,-1,1,0,3,0,-1,-1,-2
1480690435971816,1,-1,-2,-2,-1,0,0,0
1480690435972819,-1,-1,1,0,1,-1,-5,0
1480690435972819,-2,-1,-1,-1,0,-1,0,1
1480690435995379,-3,2,-1,1,0,-2,1,-1
1480690435995379,1,-1,0,-1,-1,0,0,1
1480690435995880,0,2,-2,-1,0,-1,0,2
1480690435995880,0,0,-2,0,0,0,0,0
1480690436016936,1,0,-4,-1,0,-1,-1,2
1480690436016936,-2,0,-1,0,0,-1,-1,-1
1480690436017938,1,-2,-2,-2,-1,-1,-1,-1
1480690436017938,1,1,1,-1,-1,0,1,0
1480690436048018,-1,-2,-1,-1,0,1,-1,0
1480690436048018,0,0,0,-1,-2,-1,0,1
1480690436048520,-1,-3,1,-2,0,0,0,-1
1480690436048520,-1,0,1,1,0,-1,-2,0
1480690436054536,1,-1,0,0,-1,0,1,-2
1480690436054536,-2,-2,2,1,-1,0,0,1
1480690436062056,0,-1,-2,0,0,0,0,0
1480690436062056,-2,0,-1,-1,0,2,-1,0
1480690436077096,-1,-1,1,0,1,0,1,1
1480690436077096,-2,-2,-1,0,-1,-1,1,0
1480690436078099,-1,2,-2,-2,0,-1,1,0
1480690436078099,0,-3,-1,0,-1,-3,1,1
1480690436100157,1,0,-1,-2,0,-2,-1,0
1480690436100157,1,1,-1,-2,-1,-1,-1,-2
1480690436101161,0,-3,-2,-2,-2,-1,-1,-1
1480690436101161,0,-2,-1,0,-1,0,0,-2
1480690436114195,0,-1,-2,0,-1,-1,-3,-2
1480690436114195,0,0,-1,-1,0,-1,-2,-1
1480690436129736,-1,-1,-2,2,-1,-1,0,1
1480690436129736,-1,1,-1,0,0,-1,-1,1
1480690436137256,1,-2,0,0,-1,-1,-1,2
1480690436137256,-1,-5,2,-1,0,0,-2,-1
1480690436137758,-1,-1,0,1,0,1,-1,-2
1480690436137758,0,-1,0,1,-2,1,-1,-1
1480690436151293,1,-2,0,-1,1,0,-1,0
1480690436151293,-1,1,-1,-1,0,-1,0,0
1480690436159816,-1,0,0,0,0,0,0,0
1480690436159816,-1,0,1,-2,0,0,-1,0
1480690436174856,0,-1,-1,-1,-2,0,0,-1
1480690436174856,-2,0,-1,0,2,-1,-1,0
1480690436176361,0,-1,0,0,-3,-2,-1,-1
1480690436176361,0,0,-1,-1,-3,-1,0,0
1480690436196917,-3,-2,-1,1,0,0,0,0
1480690436196917,2,-1,0,0,-2,-1,-1,1
1480690436197917,1,0,0,-2,-1,-1,-1,0
1480690436197917,-2,0,-1,-1,0,-1,-3,1
1480690436211453,-1,0,0,-2,-2,-1,-2,0
1480690436211453,0,-2,-2,1,-1,0,1,0
1480690436219979,1,0,-2,-2,1,0,1,-2
1480690436219979,-1,0,1,0,0,-2,0,-1
1480690436234515,-1,2,1,1,-3,0,-1,0
1480690436234515,-3,2,-4,-1,0,0,-1,-1
1480690436235518,0,1,1,0,-1,0,0,-1
1480690436235518,-1,-4,-1,0,0,0,1,-1
1480690436257074,-1,-2,-1,0,2,-3,-1,-2
1480690436257074,0,0,0,-1,-1,-1,0,-1
1480690436258077,2,-1,-1,0,0,-1,0,0
1480690436258077,0,-1,-2,-1,-4,-2,-2,0
1480690436271613,-2,-1,0,2,0,2,0,-1
1480690436271613,1,-1,-1,0,0,-1,-3,-2
1480690436279635,-1,1,-1,3,0,0,0,1
1480690436279635,1,1,0,-2,-1,-4,-1,0
1480690436294675,-1,-2,1,-3,-1,-3,-1,-1
1480690436294675,0,-2,-1,-2,-1,0,0,0
1480690436295176,-1,-1,0,-1,-2,-1,0,-1
1480690436295176,-1,0,-1,1,1,-2,-1,0
1480690436317235,0,-1,-2,-1,0,0,0,-1
1480690436317235,0,1,0,1,-1,2,1,-2
1480690436317736,-3,0,2,-1,-1,0,0,-2
1480690436317736,1,0,0,0,1,1,0,-2
1480690436339795,1,3,-4,-1,0,-1,0,-2
1480690436339795,-2,-4,1,0,1,1,-1,-1
1480690436340797,-3,-3,-1,-1,0,-1,-3,-2
1480690436340797,-2,-1,-1,0,0,2,0,0
1480690436354835,0,0,-1,1,0,1,-1,1
1480690436354835,0,0,-1,-1,-3,-1,-1,-1
1480690436355337,0,-3,-1,1,0,0,-1,-2
1480690436355337,0,0,-1,-2,-1,0,0,0
1480690436378397,-2,-3,-1,-1,0,0,-2,0
1480690436378397,0,0,-3,0,-2,0,0,2
1480690436379402,0,1,1,-3,-2,-1,-1,-1
1480690436379402,-1,0,-1,0,0,0,0,-3
1480690436401960,1,-1,1,1,-1,-1,-1,-1
1480690436401960,1,0,1,0,0,-1,2,0
1480690436402465,0,-1,-2,0,0,0,0,1
1480690436402465,0,-1,-3,0,-1,1,1,1
1480690436422515,1,3,-4,-2,-1,-1,0,0
1480690436422515,-1,1,1,-1,1,-1,-2,-2
1480690436423517,-3,-3,2,0,1,-1,-2,-1
1480690436423517,-2,-1,1,1,1,-1,-2,-1
1480690436437055,-2,-4,-1,0,2,2,-2,-2
1480690436437055,1,0,-1,1,1,0,-1,-1
1480690436438059,-2,-1,-2,-1,-1,-2,1,-1
1480690436438059,-2,0,-1,-2,-1,-3,-1,-1
1480690436460114,-3,-1,0,-1,-1,-1,2,0
1480690436460114,-3,-3,-1,1,3,0,-1,-1
1480690436461121,2,0,-1,0,-1,1,0,-1
1480690436461121,1,-2,-1,-1,-1,-1,-1,1
1480690436475154,1,-1,1,-1,-1,0,-2,1
1480690436475154,-3,-9,1,0,2,1,2,-2
1480690436482173,-1,2,-1,0,0,0,1,2
1480690436482173,1,0,1,0,0,0,1,0
1480690436497714,-1,-3,1,-1,0,0,0,-2
1480690436497714,-3,-1,-1,-1,-1,-3,-2,0
1480690436504799,1,-1,-3,-1,-1,-1,-1,-1
1480690436504799,0,1,-1,-1,-2,-1,-1,0
1480690436520274,0,1,0,1,0,0,0,-2
1480690436520274,2,3,0,-1,-2,-2,-2,-1
1480690436521277,0,-1,-1,-1,1,0,-4,2
1480690436521277,-3,0,-1,-2,-2,0,1,-3
1480690436534814,-1,1,-3,-2,0,-2,-2,-2
1480690436534814,-4,0,0,-1,-1,-1,2,4
1480690436535316,2,-3,0,0,-1,-1,0,-4
1480690436535316,-1,-1,1,0,0,-1,-1,0
1480690436556872,1,3,-2,-2,-2,-2,-2,-1
1480690436556872,1,-1,-1,-2,-1,0,-1,-2
1480690436557874,-4,-5,0,1,-1,-2,1,7
1480690436557874,6,0,1,1,0,0,-2,-2
1480690436603998,1,0,-3,-2,-3,-2,1,1
1480690436603998,-1,0,-2,0,0,1,-1,-2
1480690436605000,-3,1,0,-1,0,1,1,3
1480690436605000,-2,-1,-1,1,0,-2,1,1
1480690436606503,-4,-1,-1,-1,-2,-1,2,-3
1480690436606503,7,-1,-1,-1,-2,-1,1,8
1480690436609512,0,0,-1,1,0,-2,0,-2
1480690436609512,-5,-4,-2,0,2,1,-1,-1
1480690436625555,0,-4,0,-1,-1,1,-1,-1
1480690436625555,-4,-1,0,-3,-2,-1,-1,0
1480690436626558,0,1,-2,0,-1,0,-1,-6
1480690436626558,5,0,1,0,-2,1,0,-2
1480690436656637,0,3,0,-1,-2,1,-2,13
1480690436656637,-4,2,-2,1,-1,0,0,-7
1480690436657138,5,2,-2,-2,1,-1,0,1
1480690436657138,-7,-4,1,1,1,1,-3,-2
1480690436659143,-1,-1,1,0,-1,1,-3,-1
1480690436659143,3,-1,1,0,-1,-3,-4,-1
1480690436663154,-2,2,-5,-2,-2,-2,6,-3
1480690436663154,1,0,-4,-3,0,0,0,2
1480690436677193,-1,-2,0,-1,1,-2,0,-3
1480690436677193,-1,1,3,2,-1,0,-2,-1
1480690436678698,-3,-3,0,2,2,1,-4,1
1480690436678698,-1,-3,3,1,1,0,1,1
1480690436700253,0,-3,-1,0,0,-1,3,-1
1480690436700253,-2,3,-4,-4,-2,-2,-1,-3
1480690436701256,-2,-4,3,1,-3,1,-2,3
1480690436701256,15,2,-5,-6,-3,-5,-1,0
1480690436714791,-5,0,-1,1,0,1,0,-3
1480690436714791,7,0,-1,-1,0,0,5,1
1480690436715293,-15,1,-2,-3,-2,-2,-5,-7
1480690436715293,15,5,-2,0,-3,2,7,8
1480690436737352,-3,1,-1,-1,0,-1,-4,-4
1480690436737352,0,-2,-1,1,0,-2,-2,-2
1480690436737853,2,0,-1,-4,-2,-1,0,3
1480690436737853,-9,0,0,-1,2,-1,-1,-5
1480690436760413,-1,-3,-2,-2,1,-2,2,4
1480690436760413,-3,2,-1,-1,-2,0,-3,0
1480690436760914,3,0,0,-1,0,0,-9,-5
1480690436760914,-6,-1,1,-1,-1,0,2,5
1480690436775453,3,-3,2,0,0,2,-1,-1
1480690436775453,-2,-1,-4,-1,-1,-1,-2,-2
1480690436775954,7,0,1,2,2,0,0,-3
1480690436775954,-4,-4,0,0,-2,0,-3,-1
1480690436797011,-4,3,-1,-2,-2,-2,-2,-5
1480690436797011,-2,0,1,2,-2,1,1,-4
1480690436798013,2,1,-1,-1,-2,-3,2,2
1480690436798013,-5,-7,2,1,3,0,-1,-3
1480690436820071,8,-1,-3,-1,0,-1,-2,-3
1480690436820071,-18,-1,1,0,2,-2,-3,5
1480690436821074,7,0,2,1,1,3,10,-10
1480690436821074,-13,1,-2,0,-3,-3,-7,1
1480690436842631,-6,-4,-4,-1,-2,-2,1,-9
1480690436842631,5,-1,0,0,1,3,0,-7
1480690436843133,-2,-1,-1,-2,0,-1,-4,4
1480690436843133,-2,2,-1,0,1,-2,-2,-5
1480690436871709,0,-5,2,1,-1,1,1,5
1480690436871709,-9,-1,0,0,-1,-1,-1,0
1480690436881736,-6,-1,-3,0,-2,-1,0,-1
1480690436881736,2,1,0,-2,-2,0,1,3
1480690436883240,0,0,2,0,0,-1,-3,4
1480690436883240,6,1,2,0,-2,0,2,-2
1480690436884243,1,0,-1,-2,0,0,-2,3
1480690436884243,-5,-2,0,-2,0,-1,-1,-4
1480690436902792,2,-7,5,2,1,0,1,2
1480690436902792,-1,0,-3,-3,-2,-1,0,0
1480690436903797,-3,-3,-2,0,-1,-3,0,-1
1480690436903797,4,1,0,1,0,-3,-1,4
1480690436917331,-2,5,1,0,-1,1,1,-2
1480690436917331,-2,0,-4,-2,-1,-3,0,-2
1480690436918335,1,-2,1,0,0,1,-3,3
1480690436918335,-4,0,-2,-1,0,0,2,-2
1480690436940893,1,0,-1,-1,0,-1,0,3
1480690436940893,3,-3,1,-1,0,-1,-4,-10
1480690436941896,-8,1,-2,-1,-1,-1,-2,-2
1480690436941896,10,-1,1,-1,-1,1,-1,0
1480690436954431,-11,0,-1,0,-1,0,0,-3
1480690436954431,-4,-5,0,1,0,1,2,13
1480690436961950,10,4,-1,-2,-2,-2,1,0
1480690436961950,5,0,-1,-1,-3,-2,0,-3
1480690436977992,1,-2,2,-1,0,-2,0,-2
1480690436977992,1,-1,0,1,0,0,1,3
1480690436978493,-1,0,-1,1,0,0,-2,-3
1480690436978493,44,8,0,-1,-4,0,-2,8
1480690437000050,-49,-5,-3,-2,0,0,0,-6
1480690437000050,6,0,0,0,1,0,-2,-1
1480690437001053,-7,-3,1,0,-1,-2,0,1
1480690437001053,-5,0,-3,-1,0,-1,-1,-4
1480690437014088,10,3,0,-1,0,-3,0,2
1480690437014088,3,0,1,-1,-2,2,0,0
1480690437022109,-2,-2,1,-1,1,1,-3,-2
1480690437022109,-9,0,1,-1,0,0,1,0
1480690437038152,11,2,-1,-1,-2,-2,-1,0
1480690437038152,-6,-4,-1,-1,1,-2,0,0
1480690437039155,6,-1,1,-1,0,2,0,-1
1480690437039155,-13,-3,-1,-1,0,0,-2,-4
1480690437061715,8,2,0,0,1,0,-1,1
1480690437061715,10,2,-5,-2,-3,-3,-1,-1
1480690437063218,0,-2,-2,0,0,2,0,-2
1480690437063218,-8,-1,-2,0,-2,1,-1,-2
1480690437073746,6,-1,-2,0,-2,2,-1,2
1480690437073746,1,0,0,-1,-1,0,1,0
1480690437098312,-3,2,1,0,-1,-3,0,0
1480690437098312,-8,-3,-1,0,1,0,0,-2
1480690437100317,10,4,-1,-2,0,0,0,0
1480690437100317,-1,0,1,0,2,-2,-1,-1
1480690437101822,-1,-4,0,1,0,0,0,2
1480690437101822,-7,-6,-1,0,1,1,0,-2
1480690437127890,2,0,0,0,-1,0,-2,-1
1480690437127890,-1,1,1,-1,-1,-1,-1,0
1480690437128391,1,0,-6,-1,-1,-1,-2,-2
1480690437128391,-2,2,-3,-1,-1,-1,0,-3
1480690437133906,1,-2,0,-1,-2,-1,2,-2
1480690437133906,-4,0,-2,-2,0,2,-2,-2
1480690437141928,4,3,-2,-4,-3,-4,-1,1
1480690437141928,0,2,-1,0,-1,-3,-2,0
1480690437156968,-3,0,-4,0,2,1,-1,0
1480690437156968,4,-1,1,0,-3,0,0,-2
1480690437157971,-1,0,-1,0,0,-3,0,2
1480690437157971,-1,-4,1,0,0,-1,-1,-2
1480690437181032,2,-2,-2,-1,1,-1,0,0
1480690437181032,-5,-5,1,1,1,0,-1,-3
1480690437182035,-1,1,3,0,-2,1,-1,0
1480690437182035,-5,-2,1,0,1,1,1,0
1480690437194066,4,1,-1,-1,2,1,-2,0
1480690437194066,-6,-3,2,1,1,0,-1,0
1480690437209608,-3,-8,5,1,-1,0,2,0
1480690437209608,1,-3,-2,-3,-2,-1,-1,0
1480690437217128,-1,1,-1,0,-2,-1,0,0
1480690437217128,2,1,-3,-1,-1,-2,-1,0
1480690437219136,-1,1,-3,0,0,-1,-2,-1
1480690437219136,0,0,-2,0,2,-1,0,2
1480690437240690,-1,-2,-1,0,0,0,0,0
1480690437240690,0,-1,1,-1,0,-2,0,0
1480690437241692,2,0,-1,-2,-2,0,-2,-1
1480690437241692,0,1,-2,-2,-2,1,0,-1
1480690437253725,1,0,1,0,-1,1,-1,1
1480690437253725,-1,-2,-2,1,0,1,0,-2
1480690437262248,-3,0,-1,-1,0,-1,0,0
1480690437262248,-1,0,0,-2,-1,-2,0,-1
1480690437277287,0,1,0,-1,-1,-1,0,-1
1480690437277287,-1,-1,2,-1,-1,-1,0,1
1480690437277788,1,0,-1,-1,0,1,0,-2
1480690437277788,-2,0,-1,0,0,-1,-3,-1
1480690437300350,-1,0,-2,0,-1,0,0,1
1480690437300350,0,-1,-2,-1,2,1,1,0
1480690437301352,-3,0,-1,0,1,0,1,-1
1480690437301352,0,-1,1,1,-2,0,0,0
1480690437322909,0,-4,2,2,0,1,2,-1
1480690437322909,-1,1,1,-1,-3,-2,0,0
1480690437323410,-1,0,-2,-2,-1,0,0,-1
1480690437323410,-4,-1,2,1,2,0,0,0
1480690437353491,0,-2,-3,-2,1,-2,-4,-2
1480690437353491,1,-1,-2,-2,0,-1,-2,2
1480690437353993,0,1,-1,0,1,1,0,-2
1480690437353993,1,-1,1,1,0,1,-1,0
1480690437361511,-1,7,-2,-1,-2,-2,1,-1
1480690437361511,1,-1,-1,-1,-2,-3,-1,0
1480690437362514,0,-1,-2,0,-2,-1,-2,0
1480690437362514,0,-3,-2,-2,-2,-1,0,-1
1480690437382567,0,-7,0,-1,1,0,0,-1
1480690437382567,2,3,0,-2,-1,-2,1,0
1480690437383570,-2,-1,0,1,0,0,0,1
1480690437383570,-4,0,-3,-1,0,0,-2,1
1480690437397106,0,0,-2,-1,-3,-1,-2,1
1480690437397106,-1,-1,-1,-1,0,-2,0,0
1480690437398111,0,-6,1,1,0,1,0,0
1480690437398111,0,-1,2,-1,-1,0,0,0
1480690437419668,-3,-3,-1,1,1,0,4,0
1480690437419668,-1,1,1,1,1,-1,0,-3
1480690437420168,-1,2,0,-1,2,-1,2,-2
1480690437420168,1,-3,-2,0,2,0,-1,-1
1480690437443733,0,0,-3,-1,-1,-3,-1,-3
1480690437443733,-2,3,0,1,0,-1,-3,-1
1480690437444232,2,-1,-2,-2,-4,-5,-1,3
1480690437444232,0,-3,-1,-1,-3,-1,0,1
1480690437457266,-2,-2,1,1,1,0,-1,0
1480690437457266,0,0,0,0,-2,-1,2,-1
1480690437457767,0,0,-3,-2,1,1,-2,-2
1480690437457767,0,0,-1,0,0,-1,0,-2
1480690437479325,0,-3,1,-1,0,1,-1,0
1480690437479325,0,0,-3,0,-3,1,1,0
1480690437487347,1,1,0,0,-2,-1,0,0
1480690437487347,-1,-2,2,1,1,0,0,-1
1480690437502891,0,2,1,-3,0,1,-1,-1
1480690437502891,-2,0,-2,-2,0,0,0,0
1480690437503390,-1,0,1,-1,0,1,0,0
1480690437503390,-4,-10,7,4,1,-1,1,-1
1480690437516925,-2,0,1,0,-1,-1,-1,0
1480690437516925,0,1,-3,-1,-3,2,0,-1
1480690437517927,-1,-2,-1,-2,-2,-2,-2,0
1480690437517927,1,2,-4,-3,-2,0,-2,-1
1480690437539485,4,2,-2,-2,-4,-4,-1,2
1480690437539485,-4,-6,3,3,2,-1,0,0
1480690437540488,1,2,0,-2,0,-2,-1,-1
1480690437540488,0,2,-1,-2,-1,0,0,-3
1480690437563048,-1,-1,-2,0,0,1,0,-2
1480690437563048,1,0,-3,-2,-1,-1,-2,0
1480690437564554,-1,0,-5,0,-2,1,-1,-3
1480690437564554,-2,2,-1,-1,1,-1,-1,0
1480690437577084,0,0,-2,1,1,0,0,0
1480690437577084,1,-2,0,0,1,-1,0,2
1480690437578087,-2,-6,3,0,1,0,1,0
1480690437578087,0,1,0,0,-3,-1,1,-1
1480690437599645,0,-3,-2,-1,-2,-2,0,1
1480690437599645,0,-2,-2,-3,1,-2,-2,2
1480690437600648,-1,3,-1,-1,1,-2,-2,0
1480690437600648,0,3,-2,-1,0,-1,1,0
1480690437622707,0,3,2,-1,1,0,-1,0
1480690437622707,0,-2,-3,-1,-1,2,-1,-2
1480690437623709,0,-1,0,1,-2,-2,1,0
1480690437623709,-1,-3,-2,-2,1,1,-1,1
1480690437637245,-2,-1,-2,0,0,1,0,-3
1480690437637245,2,3,-6,-2,-3,-2,-2,0
1480690437644765,-1,-2,-1,0,1,3,1,-3
1480690437644765,3,-1,-3,0,-2,-3,-1,1
1480690437659804,-2,-7,2,2,1,-1,-3,0
1480690437659804,2,2,0,-2,-2,0,-2,2
1480690437660306,1,0,-2,-1,0,-1,-1,0
1480690437660306,-2,-2,-3,0,-2,0,0,-1
1480690437682866,-3,-5,0,1,2,1,1,-1
1480690437682866,-3,-2,1,2,0,-1,0,-2
1480690437684872,0,1,0,0,-2,-1,0,-2
1480690437684872,0,1,1,-1,0,-1,-1,-1
1480690437696903,1,1,-3,-3,-2,-2,-2,1
1480690437696903,-1,0,1,1,0,0,-1,-2
1480690437697906,-1,-1,-1,0,-1,0,-1,0
1480690437697906,0,0,-1,-1,-4,-1,-2,-1
1480690437719469,-1,-2,-1,0,1,2,-1,-1
1480690437719469,-1,0,1,-1,-3,-1,0,-1
1480690437720466,-1,-3,0,0,-2,-2,-1,0
1480690437720466,-2,-5,0,2,0,-1,-1,-1
1480690437742524,0,-1,0,0,-3,-1,0,1
1480690437742524,-5,-4,2,-2,3,2,3,-2
1480690437743527,-1,1,-1,-1,0,-1,-1,-1
1480690437743527,0,2,-2,0,-2,-1,1,2
1480690437757063,-2,-2,0,-1,0,-1,-2,-2
1480690437757063,-1,0,0,0,1,1,1,-1
1480690437758067,-1,0,0,0,0,2,0,0
1480690437758067,0,1,0,-2,1,-1,0,-1
1480690437779624,0,3,-1,-1,-3,0,0,0
1480690437779624,2,-3,-3,-1,0,-2,-1,0
1480690437780626,0,1,-2,-1,1,0,1,0
1480690437780626,-2,1,-2,-1,0,0,-2,-1
1480690437819232,1,0,-1,-3,-2,-2,-1,-1
1480690437819232,1,-2,-1,0,0,-2,-1,-2
1480690437819733,-1,-7,3,0,0,-2,1,0
1480690437819733,1,1,-1,-2,0,0,1,0
1480690437821735,-1,-1,1,1,0,1,0,-3
1480690437821735,-1,-2,2,1,0,0,-1,-1
1480690437824743,2,4,-1,0,1,-1,0,-2
1480690437824743,-1,-2,1,1,-2,0,1,-1
1480690437847805,1,1,-1,0,-2,-2,-1,3
1480690437847805,0,-2,-1,-1,-1,-2,-1,1
1480690437848808,-1,-2,-2,0,-1,0,-1,-1
1480690437848808,1,-1,1,-2,-1,-2,0,-2
1480690437862844,2,3,-5,-3,0,0,0,1
1480690437862844,-1,-1,0,-2,-3,0,0,0
1480690437863847,-2,0,-1,-1,-1,-1,0,-1
1480690437863847,-1,0,1,0,-1,-1,0,-1
1480690437878888,0,3,-2,-1,1,-5,-1,-2
1480690437878888,-5,-1,3,2,3,0,0,-2
1480690437879389,0,0,-1,-2,-3,0,0,2
1480690437879389,-4,-3,-1,2,3,0,-1,-1
1480690437899442,-3,-4,-2,1,1,0,0,-2
1480690437899442,0,-1,0,1,-1,-1,1,0
1480690437900445,0,0,-1,1,1,0,1,-1
1480690437900445,1,-2,-2,-1,-1,0,-1,0
1480690437923004,-1,-1,1,0,-1,0,1,-2
1480690437923004,0,0,-4,0,-2,-1,0,-3
1480690437923506,-1,-1,0,-1,0,-1,0,0
1480690437923506,2,2,-2,-4,-3,-2,-2,0
1480690437936544,-1,1,2,0,0,0,-2,-3
1480690437936544,3,-3,1,2,1,0,-1,0
1480690437945063,-1,0,0,1,3,-1,-1,-1
1480690437945063,3,5,-3,-3,-2,-2,-2,1
1480690437959602,-2,0,2,-1,-1,0,0,-1
1480690437959602,2,0,-4,-2,-3,-2,-2,0
1480690437960103,-1,1,0,-3,-1,-2,-2,1
1480690437960103,-2,-1,-2,1,0,0,-1,-1
1480690437981661,1,-2,0,-1,0,0,1,2
1480690437981661,-1,0,-2,-2,-1,0,1,1
1480690437989682,0,0,-3,2,-2,0,1,0
1480690437989682,0,-3,0,0,1,0,1,-2
1480690437996199,-1,-4,-1,1,0,1,1,2
1480690437996199,-1,-3,-1,0,1,-1,-1,-1
1480690438004721,-2,-1,1,0,-2,0,-2,-1
1480690438004721,0,5,-2,-2,-2,-2,-2,-2
1480690438019769,2,-2,-2,-1,0,0,-1,-1
1480690438019769,-3,-5,3,2,-1,0,0,0
1480690438020263,-3,-1,-2,-1,0,1,1,-2
1480690438020263,-2,-3,0,2,0,0,1,-1
1480690438044328,0,2,0,1,-2,-1,-2,-1
1480690438044328,-1,1,-1,-1,0,1,-1,-1
1480690438045831,0,-1,-3,-2,-2,-2,0,0
1480690438045831,-1,-3,-1,0,-1,0,0,0
1480690438056360,0,-2,-1,-2,-1,0,-3,-1
1480690438056360,-1,0,-1,-1,-1,1,0,0
1480690438073406,1,5,-1,0,1,-1,1,0
1480690438073406,-1,0,-1,-2,0,0,-1,-1
1480690438079421,-1,-2,1,1,0,-1,0,-3
1480690438079421,1,2,-2,-1,-3,-2,-3,0
1480690438080424,0,-1,-1,-1,-1,0,-1,2
1480690438080424,-5,-1,0,3,2,0,-1,-2
1480690438102986,-1,3,-1,-1,-1,-1,-1,-2
1480690438102986,-1,0,-3,-3,0,1,1,-1
1480690438103486,0,-2,2,-1,-1,-1,-2,-1
1480690438103486,2,-1,0,-2,-1,-1,-2,1
1480690438125041,-2,-3,3,2,0,-1,0,1
1480690438125041,1,0,-1,0,-1,-1,2,-1
1480690438126044,-2,-1,-2,0,-3,0,1,-1
1480690438126044,1,-1,0,0,-4,-2,0,0
1480690438140082,1,3,-4,-1,1,-3,1,1
1480690438140082,-1,-4,-3,1,1,0,-1,1
1480690438140583,0,0,-1,0,0,-1,-2,0
1480690438140583,0,-2,1,-1,-3,-1,0,-3
1480690438161640,0,-2,-2,-2,-2,1,-1,1
1480690438161640,1,0,-1,2,1,-2,1,0
1480690438169661,1,-2,0,0,-1,-2,-3,0
1480690438169661,-1,-2,-1,0,0,-2,-2,-1
1480690438185202,-3,-6,0,1,4,5,-1,0
1480690438185202,-1,1,1,-2,-1,0,-2,0
1480690438186205,1,-1,0,1,-2,1,-1,-2
1480690438186205,-1,-2,0,-1,0,-1,-1,0
1480690438200242,0,2,-1,0,1,-1,0,-2
1480690438200242,-2,0,-1,-1,0,-1,0,0
1480690438200747,-2,-1,-2,0,1,0,-1,0
1480690438200747,1,-3,-3,-1,0,1,0,1
1480690438224807,1,1,1,-1,-5,-3,-1,1
1480690438224807,0,2,1,-1,-1,-2,-1,-2
1480690438226812,-2,-1,0,0,1,1,1,-1
1480690438226812,1,1,1,0,-2,-1,-1,0
1480690438236339,0,0,-1,-2,-2,-3,-1,0
1480690438236339,3,0,-1,-2,-3,-3,-1,2
1480690438244861,0,-3,-1,0,-2,1,0,1
1480690438244861,0,4,-2,-1,0,0,0,1
1480690438267923,1,0,-1,-1,-1,-1,-2,-1
1480690438267923,-2,2,0,0,0,-1,1,-3
1480690438268423,0,-1,-1,-1,-1,-1,-1,0
1480690438268423,1,2,-2,-1,-2,-2,0,1
1480690438282460,-4,-5,0,-2,-1,3,1,-2
1480690438282460,-3,-2,1,2,2,3,-2,-1
1480690438283463,0,-1,0,-1,-1,0,-2,-1
1480690438283463,1,1,0,-1,-3,-1,0,1
1480690438305523,-2,-1,-1,-1,-1,-1,2,0
1480690438305523,0,-1,-1,0,0,-1,0,-1
1480690438306025,2,2,-3,-2,-3,-3,0,0
1480690438306025,-2,-3,0,1,2,2,-2,-1
1480690438319559,-1,-1,1,0,0,-3,-1,-1
1480690438319559,-1,1,0,-1,-1,-1,-2,-1
1480690438320563,-1,2,2,0,-1,-2,1,-1
1480690438320563,2,0,1,0,0,0,-1,-1
1480690438343625,2,-6,-1,-1,-1,0,0,-1
1480690438343625,0,4,-3,-2,-1,-2,1,0
1480690438344626,0,-2,0,-2,1,0,0,1
1480690438344626,-4,-7,3,1,0,2,3,-1
1480690438364680,-3,-2,1,2,3,-1,0,-2
1480690438364680,1,-1,0,-1,-4,0,-2,2
1480690438372200,1,1,-2,0,0,0,-1,0
1480690438372200,1,1,-4,-4,1,-2,-1,-1
1480690438379719,0,4,-1,0,-1,0,0,0
1480690438379719,1,-1,-1,-1,-1,-2,-1,0
1480690438380220,-4,-1,0,0,1,0,0,-1
1480690438380220,2,-1,-3,-3,-2,-2,-2,0
1480690438402780,2,0,0,0,-3,0,-1,-1
1480690438402780,1,0,-1,-2,-1,-1,0,0
1480690438403785,-1,-6,4,3,3,3,0,-1
1480690438403785,-5,0,1,1,0,0,2,-2
1480690438425843,1,-4,0,0,2,1,1,-3
1480690438425843,-1,-3,1,1,1,0,-1,5
1480690438426343,-2,1,0,1,-1,-1,-2,-13
1480690438426343,1,-2,1,0,3,0,-1,1
1480690438439880,-16,1,-1,-1,2,-1,-6,-2
1480690438439880,12,0,1,-1,-3,-2,7,-3
1480690438440381,2,1,-3,-3,-2,-1,-1,6
1480690438440381,0,0,0,0,-1,0,0,1
1480690438462942,4,4,-2,-1,-2,-1,-2,-2
1480690438462942,-9,-2,-4,1,1,0,-5,-2
1480690438463442,0,1,-3,-3,-1,-2,-1,1
1480690438463442,-3,0,-1,2,0,2,1,-2
1480690438484999,0,4,-2,-3,-2,-1,0,2
1480690438484999,-2,-3,0,-3,-1,-2,-10,-2
1480690438486002,2,-3,-1,1,-2,1,12,-1
1480690438486002,-2,-1,-1,0,-2,-1,-4,0
1480690438500541,1,3,1,2,-4,-3,2,1
1480690438500541,-2,0,2,-1,0,2,-1,-2
1480690438502045,1,-1,-3,-2,0,-2,-5,-1
1480690438502045,0,-2,2,-1,0,0,0,-2
1480690438523109,3,0,-1,-1,-2,-2,2,1
1480690438523109,1,-2,-1,0,-1,-2,-2,0
1480690438523605,-4,-2,0,0,0,-1,-3,1
1480690438523605,1,-2,-2,-1,1,1,2,0
1480690438545674,3,-2,-2,-1,-2,-1,-3,-1
1480690438545674,-4,-2,-2,2,1,1,2,-1
1480690438546663,-1,-1,0,1,1,-1,-1,-1
1480690438546663,2,-2,0,-1,-2,-2,-1,-1
1480690438559698,-1,-1,1,0,-3,0,1,0
1480690438559698,1,0,-3,-1,1,0,0,-1
1480690438560199,-3,-1,2,1,1,0,0,-2
1480690438560199,-1,1,0,0,0,0,-1,0
1480690438582759,0,-4,-3,0,1,-2,-1,1
1480690438582759,-1,2,0,0,-1,0,0,-2
1480690438583762,1,0,1,0,-2,-1,-4,-1
1480690438583762,2,2,0,-2,-3,-2,0,-2
1480690438605320,1,-1,-2,0,1,4,0,-1
1480690438605320,0,-2,0,1,-2,-1,0,0
1480690438606327,1,5,-3,-5,-2,-3,-1,0
1480690438606327,-1,1,-2,-1,1,-1,0,0
1480690438619374,1,-2,-1,0,0,-1,-1,1
1480690438619374,-1,-1,1,-2,-1,-1,2,-1
1480690438620359,-2,-2,-2,-1,0,-2,-1,0
1480690438620359,-1,0,-1,-1,-1,-1,0,-1
1480690438642919,0,-4,0,-1,-1,1,-1,0
1480690438642919,-1,0,-2,-1,0,-1,0,0
1480690438643420,0,-3,2,0,-1,-1,1,0
1480690438643420,0,-2,1,1,0,2,1,-2
1480690438665980,-2,-1,-1,0,1,0,0,0
1480690438665980,0,0,0,1,-3,0,0,0
1480690438667484,1,4,-3,-2,-3,-2,-2,0
1480690438667484,-1,-4,1,0,-1,-1,-1,1
1480690438679517,-1,2,2,-1,1,-1,-2,0
1480690438679517,0,2,0,0,0,-2,-2,1
1480690438680519,5,2,-4,-1,-2,-1,-3,2
1480690438680519,0,0,0,-2,0,0,1,-1
1480690438703581,1,-2,0,-1,0,0,0,-2
1480690438703581,-2,-4,1,0,1,-1,-1,-2
1480690438704084,-1,0,1,0,-2,1,-2,-1
1480690438704084,-2,-2,-2,0,0,-1,-1,0
1480690438725138,2,2,1,-2,-2,-2,1,0
1480690438725138,-2,0,-2,-1,1,1,1,-1
1480690438726141,0,-2,-1,0,0,2,2,-1
1480690438726141,0,-1,-1,0,-2,-2,-1,0
1480690438740181,-1,0,-1,-2,-2,-3,1,-2
1480690438740181,-2,0,-1,1,0,-2,-1,-1
1480690438740680,-4,-2,2,0,0,-1,0,-2
1480690438740680,1,5,-2,-1,0,-1,-1,-2
1480690438762236,-1,-1,-3,-3,-1,-2,-1,1
1480690438762236,0,0,0,-3,1,0,1,0
1480690438763239,1,-3,-1,1,0,-1,0,0
1480690438763239,-2,-3,-2,2,2,0,0,1
1480690438786302,2,2,-2,-1,-1,-1,-1,1
1480690438786302,4,2,-2,-1,-2,0,2,-1
1480690438788306,-8,1,0,0,2,2,-1,-4
1480690438788306,-1,0,2,-2,-1,-2,-2,3
1480690438799335,0,-2,0,-2,-2,-1,-1,1
1480690438799335,1,-5,2,-1,-2,1,0,0
1480690438800338,-8,-2,-2,-1,-2,-1,-1,0
1480690438800338,1,-1,-2,-1,1,0,-4,0
1480690438822899,-3,1,0,0,1,-1,2,7
1480690438822899,0,0,-1,0,0,0,-1,-6
1480690438823404,2,-2,0,0,0,-2,1,-1
1480690438823404,-3,0,-4,-2,-2,-1,0,-3
1480690438845458,2,0,-1,-1,0,0,0,-1
1480690438845458,-3,-1,0,0,-1,0,-1,3
1480690438845959,1,-1,0,-1,0,-1,0,-1
1480690438845959,1,0,1,-3,-2,-1,1,-2
1480690438859996,-1,0,1,0,1,2,-1,-2
1480690438859996,-5,-4,0,0,0,2,-1,1
1480690438867014,-1,1,0,0,-2,-1,0,0
1480690438867014,1,0,1,0,1,0,1,1
1480690438883061,-3,-1,0,2,-1,0,0,-3
1480690438883061,4,2,-1,0,-2,-1,-1,-1
1480690438883559,-4,1,-2,-2,-2,-1,1,5
1480690438883559,-2,-2,0,0,-2,1,-3,-4
1480690438905118,-7,-3,-2,1,-2,0,4,5
1480690438905118,6,-3,-2,-2,-1,-4,-8,-10
1480690438906120,-3,-4,-1,-1,0,-2,-1,-10
1480690438906120,2,-4,6,2,1,1,0,5
1480690438919155,-9,-3,-2,-1,1,-1,-1,-7
1480690438919155,6,2,-2,-2,-3,-3,1,7
1480690438927174,-4,-1,-1,-2,-3,-2,-4,-11
1480690438927174,-6,-2,-3,1,1,0,0,-5
1480690438942216,2,-3,2,0,-1,-1,-2,0
1480690438942216,-6,-2,0,0,-1,1,1,5
1480690438942718,5,0,1,0,-1,1,0,4
1480690438942718,6,0,-1,-1,-1,-1,0,-3
1480690438964273,-9,2,-3,-1,0,-2,-1,1
1480690438964273,1,1,-2,-1,1,0,0,2
1480690438972295,1,-2,-3,0,2,1,1,1
1480690438972295,0,0,-1,-2,-2,-3,-2,-3
1480690438987838,5,-1,1,1,1,1,0,-1
1480690438987838,-3,-2,0,0,0,-1,-1,-2
1480690438988840,2,1,1,0,-1,-1,1,2
1480690438988840,-1,-1,-1,0,-2,0,0,3
1480690439011399,0,1,1,-2,0,2,0,-2
1480690439011399,-4,0,-1,-1,0,-1,0,-1
1480690439012403,3,3,-6,-2,0,-1,0,1
1480690439012403,0,3,-3,-3,-2,-1,-1,2
1480690439024935,0,-3,0,1,0,0,-2,-1
1480690439024935,-2,-1,1,1,2,0,-1,-1
1480690439025937,-1,-1,0,-1,-2,1,1,3
1480690439025937,-2,3,-4,-1,1,1,0,-2
1480690439038973,5,0,-4,-3,-2,-3,-2,-2
1480690439038973,-3,-1,0,0,-1,-1,1,0
1480690439046994,0,-7,3,3,0,0,-2,-1
1480690439046994,-2,-1,-2,-2,-2,-3,-1,-1
1480690439062035,1,0,-1,-2,0,-1,-1,0
1480690439062035,-1,-1,-2,-3,0,1,0,-1
1480690439063036,-1,0,1,-2,1,0,-2,-1
1480690439063036,8,-1,1,1,-1,0,1,11
1480690439085598,-12,-1,1,1,-1,1,0,-1
1480690439085598,-6,0,1,2,2,0,0,0
1480690439086099,2,0,-1,0,-2,0,-2,5
1480690439086099,-7,-1,0,0,1,-1,-2,-3
1480690439099132,14,-3,0,0,-2,0,0,0
1480690439099132,0,1,0,-1,-1,0,-2,-4
1480690439114673,2,0,0,0,-1,-2,-1,1
1480690439114673,0,0,0,-1,-2,-3,-1,0
1480690439122195,-1,1,-2,0,-1,-2,-2,-4
1480690439122195,-2,-2,-2,-3,-1,1,-1,0
1480690439122698,0,-5,0,1,3,0,1,1
1480690439122698,-4,-2,-1,1,0,1,3,-3
1480690439145254,0,0,0,-1,-1,0,-1,-3
1480690439145254,4,-1,0,1,0,0,1,2
1480690439145757,-2,3,-1,-2,-2,-2,-2,1
1480690439145757,-3,3,-2,-2,0,-1,-2,-2
1480690439158791,3,-4,-1,-1,1,-1,-3,1
1480690439158791,0,1,-2,0,-2,0,2,1
1480690439167314,0,0,-1,-2,1,0,0,-3
1480690439167314,-2,-1,2,-1,0,1,3,-2
1480690439182353,0,0,-2,0,-1,0,-2,-1
1480690439182353,2,1,0,-2,-2,0,-1,5
1480690439183861,1,1,-1,-2,0,-1,-1,-2
1480690439183861,-2,-3,0,-2,-1,-1,-3,-7
1480690439205416,-3,0,0,0,-1,1,-3,-6
1480690439205416,0,2,-1,-1,-1,-1,0,15
1480690439205919,0,3,-1,-2,-1,0,0,2
1480690439205919,1,-5,1,1,2,2,1,2
1480690439227975,-1,2,0,-1,-1,0,4,-2
1480690439227975,-4,-3,-3,-1,-2,-3,0,-1
1480690439228476,4,1,-2,-1,-2,-2,2,2
1480690439228476,-5,-1,0,-1,-2,-2,-3,-2
1480690439242012,-4,2,-2,-1,0,-1,1,1
1480690439242012,1,-1,1,0,0,0,-3,-6
1480690439243015,-2,1,-1,-2,-1,-1,0,-2
1480690439243015,5,-1,1,-1,-1,0,-1,1
1480690439265074,-6,-4,1,0,-1,0,1,-1
1480690439265074,0,0,-1,0,0,-2,-2,-4
1480690439266076,-2,-3,0,2,-2,-2,-2,-2
1480690439266076,-1,4,-6,2,1,2,0,1
1480690439287635,-1,-2,2,7,0,-1,-1,1
1480690439287635,-3,-2,2,5,-1,1,-1,-2
1480690439288637,1,1,2,5,-1,-1,-1,-8
1480690439288637,1,-1,2,5,0,0,-2,3
1480690439302172,-2,-1,-2,0,-1,0,5,1
1480690439302172,-1,-2,-3,-1,-1,-1,-1,-3
1480690439302673,-1,-1,-1,-1,0,-1,-2,0
1480690439302673,0,-2,0,-1,-1,-1,-2,-6
1480690439325233,2,-3,0,0,-3,-2,-3,5
1480690439325233,2,1,-1,-1,-2,-1,-3,-1
1480690439326236,-1,-2,-1,-3,0,1,1,1
1480690439326236,-1,-1,0,-5,0,0,-1,-1
1480690439347795,2,2,0,-6,-1,0,-1,1
1480690439347795,-1,-2,1,-4,-1,-1,2,-4
1480690439348797,-1,0,0,-4,-2,0,1,1
1480690439348797,0,-3,-1,-3,-1,-2,1,2
1480690439362333,-3,2,-1,-6,0,-4,-2,-5
1480690439362333,1,1,2,-5,1,0,0,-1
1480690439362834,-1,-2,2,-4,-1,-1,-1,-2
1480690439362834,0,-2,2,-4,0,0,0,0
1480690439385393,5,2,1,-3,-1,-1,-1,-1
1480690439385393,-1,-2,-1,-3,3,0,-3,-1
1480690439385895,-3,0,-1,-3,1,1,0,0
1480690439385895,3,1,-1,-2,0,-2,-1,1
1480690439408455,-2,-4,2,1,2,0,-1,2
1480690439408455,-1,1,-1,-2,-1,-1,0,-2
1480690439409458,2,2,-4,-3,-1,1,-2,1
1480690439409458,2,0,-4,-4,0,0,-2,1
1480690439421991,0,-1,-2,-2,-2,-2,-1,-1
1480690439421991,-2,-2,-2,1,1,0,0,-1
1480690439423499,0,-2,-2,-2,-1,1,-1,1
1480690439423499,-1,-2,0,1,-1,0,0,-3
1480690439445554,-1,1,-1,1,0,-1,0,1
1480690439445554,1,0,0,-1,1,0,0,-1
1480690439447058,-2,-2,-1,2,1,0,-1,-1
1480690439447058,-3,-2,1,1,-1,-1,0,1
1480690439467613,1,-2,0,0,0,-1,0,0
1480690439467613,-2,-2,0,-1,-2,0,-1,-1
1480690439468615,-3,-1,1,1,0,-1,1,-3
1480690439468615,0,3,-1,1,-3,-2,0,-1
1480690439482151,-1,-2,-2,1,0,1,1,0
1480690439482151,0,2,-1,1,-1,0,2,1
1480690439483156,2,-2,-3,-1,-2,-2,-1,1
1480690439483156,-4,-4,1,0,0,1,0,-3
1480690439505216,2,-1,-3,-3,-2,-2,0,0
1480690439505216,-1,0,0,1,0,-2,0,-1
1480690439506221,0,0,-2,1,-1,-1,0,-1
1480690439506221,1,0,-2,-2,-2,-1,-1,0
1480690439527772,-1,-1,1,0,1,2,-2,-2
1480690439527772,0,-3,1,1,0,-1,-3,0
1480690439528775,-4,-4,2,0,1,-2,0,0
1480690439528775,0,-1,-1,0,1,0,0,-1
1480690439542312,3,0,-1,-2,-4,-2,-1,-2
1480690439542312,-2,1,-1,-4,-2,-1,-2,-4
1480690439542814,2,0,-1,0,-1,-1,1,5
1480690439542814,-1,0,-2,-1,1,-1,1,1
1480690439566375,0,-2,-1,-1,-1,1,0,1
1480690439566375,0,-2,-1,3,-1,1,0,-1
1480690439567378,1,-1,-2,1,-2,0,1,-1
1480690439567378,1,0,-1,-1,-2,-2,-3,1
1480690439587934,-1,2,-2,-1,-2,0,-1,2
1480690439587934,-2,-1,-4,0,1,0,-1,0
1480690439588936,-4,0,-1,-1,0,1,1,-1
1480690439588936,-4,-2,0,-1,1,0,-2,-5
1480690439601969,-3,1,2,1,2,-1,-2,0
1480690439601969,0,0,1,-1,-2,0,-1,2
1480690439602973,-1,-2,-1,0,0,0,-2,-5
1480690439602973,2,-5,-1,0,-1,-2,1,2
1480690439625532,-1,-1,-2,-3,-1,-2,0,-1
1480690439625532,1,-3,1,0,0,-1,2,-2
1480690439626034,0,0,0,-1,-2,-1,-2,1
1480690439626034,-1,1,-1,-1,-1,-2,0,0
1480690439647090,-3,0,0,0,-2,2,-1,1
1480690439647090,-1,-4,1,1,0,-2,1,1
1480690439654610,3,0,0,-1,-1,-2,-1,-1
1480690439654610,-2,-1,0,0,-2,-1,0,0
1480690439662132,-2,-1,0,-2,-1,-1,1,-1
1480690439662132,4,-2,0,-1,-1,-1,0,1
1480690439669166,-2,0,1,0,-2,-1,-1,-1
1480690439669166,-2,0,0,1,2,0,1,-1
1480690439685191,3,3,-3,0,-1,-3,2,0
1480690439685191,-2,1,-1,-2,-1,-1,-1,0
1480690439687197,-1,-2,-4,-2,0,1,0,-1
1480690439687197,-3,-2,2,2,0,1,0,-1
1480690439707752,1,-1,1,0,0,0,0,-2
1480690439707752,-2,-2,-1,-1,-2,0,-1,-2
1480690439708753,0,0,1,0,1,1,0,-2
1480690439708753,3,-5,0,0,-1,-1,-3,0
1480690439722794,-1,0,1,0,1,0,0,1
1480690439722794,-1,1,1,0,-2,-1,0,-2
1480690439723793,0,1,0,1,-1,0,-1,1
1480690439723793,-1,1,-1,-1,1,-1,-1,0
1480690439745852,2,1,-2,-1,-1,-1,0,-1
1480690439745852,-2,-2,-2,0,1,-1,1,0
1480690439746854,0,0,-1,-2,-1,-1,1,-2
1480690439746854,1,1,-2,-2,-2,1,1,3
1480690439767913,4,0,-2,-1,0,0,-1,-2
1480690439767913,-1,-1,-2,-1,0,2,-1,-1
1480690439768914,0,-6,2,2,3,1,2,0
1480690439768914,-2,0,1,-2,-1,1,-1,-2
1480690439781447,-1,-1,-1,0,2,3,0,1
1480690439781447,0,-1,-1,-1,-2,1,0,-1
1480690439789974,1,0,0,0,0,0,-2,-2
1480690439789974,4,1,-2,-1,-1,-1,-1,2
1480690439805514,-3,-6,1,1,1,0,0,-1
1480690439805514,0,2,0,-1,-2,-3,0,0
1480690439806013,-4,-6,2,2,0,1,0,1
1480690439806013,-1,-3,-4,-1,-1,-1,-1,1
1480690439827569,-5,-3,1,1,1,-2,-2,-3
1480690439827569,-3,0,0,1,0,-1,-2,0
1480690439828572,2,2,0,-1,0,1,2,-1
1480690439828572,-5,2,-3,-1,-3,0,-3,-8
1480690439842108,0,-1,0,-3,-3,-3,-1,0
1480690439842108,3,2,-3,-1,1,-1,0,0
1480690439849628,-1,1,-3,-1,-2,-2,0,-1
1480690439849628,0,0,-1,0,-1,-1,1,0
1480690439865170,0,0,-1,0,-2,-2,-1,0
1480690439865170,4,1,-1,0,0,0,-1,-2
1480690439865671,-8,-1,-1,-2,0,-1,-2,1
1480690439865671,0,-3,0,1,0,0,1,-1
1480690439895249,1,0,-1,0,-1,1,-2,0
1480690439895249,0,-4,-1,1,-1,0,0,1
1480690439897254,4,-2,-3,-3,0,0,-1,0
1480690439897254,-2,2,2,0,1,-1,-1,0
1480690439901267,-1,3,-1,-3,0,0,1,-1
1480690439901267,-6,-5,2,1,0,1,1,-1
1480690439910289,-2,2,-2,-1,-3,-2,-1,1
1480690439910289,3,0,-2,-2,-1,0,-1,2
1480690439927334,-1,1,-3,-2,0,-2,-1,0
1480690439927334,-2,0,-2,-1,-1,-2,0,1
1480690439928337,0,-1,-1,-1,-1,-2,-1,-2
1480690439928337,3,3,-3,-2,1,0,2,3
1480690439947889,-2,-3,3,2,0,1,2,-1
1480690439947889,-1,1,-1,-2,1,-1,1,-2
1480690439948390,-2,0,0,-1,0,0,0,-1
1480690439948390,3,2,-1,-3,-4,-5,-3,0
1480690439961477,3,3,-6,-3,2,0,1,1
1480690439961477,-9,-2,0,-1,-1,0,-1,-11
1480690439969498,2,0,-2,-1,-3,-1,-1,-1
1480690439969498,-4,-3,1,1,0,0,0,-2
1480690439985038,2,0,-1,-1,-1,-2,-1,0
1480690439985038,1,-1,0,0,-1,1,1,3
1480690439986041,-2,-4,0,0,0,-2,-2,-3
1480690439986041,-3,-7,5,3,1,2,1,3
1480690440007598,-3,-2,-1,-2,-1,0,-4,1
1480690440007598,1,1,-2,0,1,-1,-1,2
1480690440008601,-1,0,-1,-1,-1,-1,-2,-4
1480690440008601,2,0,-2,-2,1,0,-1,4
1480690440021635,0,0,-1,2,0,-2,-3,-7
1480690440021635,-2,0,-2,-1,0,0,0,1
1480690440029657,2,1,-1,-2,-2,0,0,0
1480690440029657,1,1,0,-1,-1,-3,1,3
1480690440045198,-3,-1,2,0,0,2,2,1
1480690440045198,1,0,0,0,0,0,-3,-1
1480690440046201,1,3,-2,-2,0,-2,-3,1
1480690440046201,-5,-1,-3,-3,-1,-2,-2,-4
1480690440068260,0,-1,-1,0,0,-1,-2,-1
1480690440068260,1,0,-1,-1,0,0,0,-1
1480690440070266,0,2,0,0,1,1,2,0
1480690440070266,2,-2,-4,-1,0,1,0,-3
1480690440081295,-3,-3,3,2,0,0,-1,-1
1480690440081295,-2,-2,-2,-2,0,1,0,1
1480690440089819,-1,4,-4,0,-2,-1,1,-2
1480690440089819,-2,-2,-1,0,-2,-1,0,-3
1480690440120400,-1,-1,-2,-2,0,0,-1,-1
1480690440120400,4,0,-1,0,0,-1,-1,3
1480690440120900,-4,-1,-1,0,3,0,-2,-12
1480690440120900,-1,0,0,-1,-2,0,0,0
1480690440127917,1,2,0,-1,-3,-2,-2,1
1480690440127917,1,-1,0,-2,-1,-2,-1,-1
1480690440129422,2,1,-1,-3,-2,-1,0,4
1480690440129422,0,0,2,-1,0,-3,-1,1
1480690440150478,0,-2,2,1,-1,0,1,-2
1480690440150478,-1,0,0,-1,-2,0,0,2
1480690440150980,0,0,1,0,2,-1,-1,2
1480690440150980,4,0,-1,-2,-1,0,-2,0
1480690440165016,-13,-7,1,0,0,1,-1,2
1480690440165016,0,-1,1,2,0,-2,0,-2
1480690440166019,1,-4,-2,-2,0,-1,1,6
1480690440166019,2,1,1,1,-1,-1,-2,-2
1480690440188079,2,-1,-2,-2,-1,-1,-1,0
1480690440188079,5,-1,-3,-2,-1,-3,0,-2
1480690440189587,-1,-2,-1,2,-1,0,0,-1
1480690440189587,-3,-1,-2,1,0,-2,-1,-2
1480690440210137,1,1,-2,-1,0,-2,2,-1
1480690440210137,-4,-2,-3,-1,0,2,1,-1
1480690440211640,-1,-1,-1,-3,-3,0,0,2
1480690440211640,1,1,0,-2,-2,0,1,-1
1480690440223673,2,0,-1,0,-1,-1,0,-1
1480690440223673,-1,-1,0,0,0,-1,0,-1
1480690440233199,1,1,1,-1,1,-2,0,1
1480690440233199,-4,0,-2,-4,0,-1,0,-1
1480690440254255,2,0,-4,-2,-1,-1,-2,2
1480690440254255,-1,-1,-1,-1,0,0,-2,0
1480690440264783,0,1,0,1,-2,0,-3,-1
1480690440264783,-2,-3,2,-2,-1,-1,-1,-1
1480690440270300,2,0,-2,0,-1,0,-1,0
1480690440270300,-4,-4,1,2,0,-1,0,2
1480690440271801,-2,0,-1,0,-1,-1,-1,0
1480690440271801,0,-1,-1,0,0,-1,-2,-1
1480690440283833,0,-1,0,-1,-2,-2,0,-1
1480690440283833,-1,0,-2,-3,-1,0,-1,-1
1480690440293860,-4,-5,0,-1,0,0,-1,1
1480690440293860,-2,-1,-1,1,2,0,1,-2
1480690440306900,1,1,0,-4,-1,0,1,-3
1480690440306900,0,1,0,-2,-1,0,-1,0
1480690440315418,-3,-6,4,2,0,1,0,0
1480690440315418,2,0,-2,-1,0,0,0,1
1480690440330457,-4,-3,1,4,1,1,-1,-1
1480690440330457,-1,0,-2,-1,1,2,0,-3
1480690440331961,1,-2,-2,-1,1,0,0,0
1480690440331961,-2,-1,2,0,0,-2,0,2
1480690440343993,0,-3,-4,1,-1,0,-1,1
1480690440343993,1,1,1,-2,0,-2,-1,0
1480690440353018,0,-1,0,0,-1,1,-2,-1
1480690440353018,3,-2,2,3,0,2,1,0
1480690440367556,-12,2,-1,-2,0,-2,-2,-3
1480690440367556,0,1,0,0,-1,-1,0,0
1480690440369562,1,1,-2,-1,-1,-1,-1,0
1480690440369562,2,-1,-1,0,-1,0,-1,0
1480690440390616,4,0,0,0,0,-2,0,2
1480690440390616,-2,-1,-1,0,-2,2,0,0
1480690440392120,-1,-1,-1,0,1,-1,0,1
1480690440392120,-3,2,-2,-2,1,-2,-1,0
1480690440404153,0,0,0,-1,0,-1,-1,0
1480690440404153,1,2,1,-1,-3,-4,-2,1
1480690440412676,3,2,-1,-2,-2,-2,0,0
1480690440412676,-2,-4,1,1,2,2,-1,1
1480690440427715,2,-3,0,-1,-2,2,-1,-2
1480690440427715,3,0,-2,-2,-1,-2,1,-2
1480690440429219,-1,-1,-1,-1,0,-1,0,-2
1480690440429219,-1,1,-1,-1,-2,-1,0,0
1480690440450275,-1,-4,3,1,2,2,1,-1
1480690440450275,0,-2,-1,1,-2,0,-2,0
1480690440451779,0,0,1,0,-2,-2,-1,0
1480690440451779,-4,1,-3,0,-1,0,-1,-2
1480690440463811,1,2,-2,-1,-2,-3,-2,1
1480690440463811,-2,-4,1,-1,-1,0,1,-1
1480690440472836,-1,-3,0,0,-1,0,-1,-1
1480690440472836,1,1,-1,-1,-1,-1,-1,-1
1480690440487876,2,1,1,0,-1,-1,0,-1
1480690440487876,0,2,-2,0,0,-2,-2,0
1480690440489383,1,3,-2,-2,-1,-1,0,1
1480690440489383,-1,-1,-1,0,-1,0,-1,1
1480690440510435,0,-1,-1,0,-1,0,0,-2
1480690440510435,-1,0,2,1,-2,-1,-1,0
1480690440511943,-2,3,-1,-1,-2,-2,1,-2
1480690440511943,-1,-4,-1,-2,-1,0,-1,-1
1480690440523972,0,-1,-2,-1,1,1,0,0
1480690440523972,-2,0,0,-1,-1,-1,-2,-1
1480690440532995,-2,1,-3,-1,1,1,-2,-1
1480690440532995,-2,0,-1,1,0,-1,0,0
1480690440548536,-2,-1,-3,-2,-1,1,-1,1
1480690440548536,0,-3,-1,-1,1,0,1,0
1480690440550040,-2,-2,-1,1,-1,-1,0,0
1480690440550040,1,-1,-1,-1,-2,-1,1,0
1480690440570095,1,1,0,-1,0,-2,0,0
1480690440570095,0,-1,-1,-1,-1,1,0,0
1480690440572101,1,-1,2,0,1,1,0,0
1480690440572101,2,0,0,-1,-1,0,0,-1
1480690440584131,0,1,-2,-1,1,0,-1,0
1480690440584131,-3,-2,-2,-2,0,-1,-3,0
1480690440592654,-1,-1,-1,0,-2,0,-1,-1
1480690440592654,-5,-6,3,2,2,1,0,-1
1480690440615214,1,-1,0,-1,-2,0,0,0
1480690440615214,1,-1,-1,-1,0,0,1,0
1480690440616718,0,-4,-3,1,0,1,-1,-2
1480690440616718,1,0,-2,-1,-2,-1,1,1
1480690440631257,-1,-1,0,-1,0,-2,-2,0
1480690440631257,-1,-1,1,-1,2,0,0,0
1480690440633763,-2,-3,1,-2,-1,-1,-1,0
1480690440633763,-1,-3,1,1,-1,-1,0,-1
1480690440643790,1,0,-1,-1,-1,0,0,-1
1480690440643790,0,0,-2,0,-1,0,1,-3
1480690440652814,0,-2,0,1,1,-1,-1,-1
1480690440652814,-1,2,-2,0,0,-1,0,-2
1480690440667855,1,0,-1,-2,-1,0,2,1
1480690440667855,-1,0,-1,0,-1,-1,0,0
1480690440673874,-1,0,-2,-2,-1,-2,-1,-1
1480690440673874,-1,0,-3,-1,-1,1,-1,0
1480690440690915,-1,-1,-1,0,0,-1,-1,-1
1480690440690915,-3,0,0,-1,-1,-1,0,-1
1480690440696430,-1,1,3,0,0,-2,1,-1
1480690440696430,2,0,0,-3,-3,-1,0,-1
1480690440703953,-1,-1,-2,-1,-1,0,-1,-1
1480690440703953,0,-1,-2,-1,-3,-1,-1,0
1480690440713475,-2,-1,-2,-1,-1,1,1,0
1480690440713475,0,2,-2,-1,-2,-2,-1,-1
1480690440728013,-1,1,2,1,-1,-1,-1,-3
1480690440728013,-1,-3,1,1,-1,-1,0,-1
1480690440729518,1,0,-1,0,-2,0,1,0
1480690440729518,3,1,-3,-2,-2,-1,-2,-1
1480690440750073,-2,-1,-3,-1,-2,-3,0,0
1480690440750073,-2,0,0,-1,0,-1,-3,0
1480690440752078,-1,2,0,-2,-1,0,-1,1
1480690440752078,0,-2,-4,-3,-1,-2,0,0
1480690440764110,1,0,0,0,-1,-1,0,-1
1480690440764110,-1,-1,-1,0,-1,0,0,0
1480690440773136,0,0,-2,-1,-1,0,0,1
1480690440773136,1,1,-2,0,-1,0,-1,1
1480690440787674,1,0,-1,-2,1,-1,-2,0
1480690440787674,1,0,-1,-1,-1,0,0,1
1480690440790181,0,-2,-3,-2,-2,-3,0,-2
1480690440790181,-5,-5,3,0,1,2,0,-1
1480690440817752,-1,-1,-1,-1,1,1,0,-1
1480690440817752,1,3,-2,-2,0,-1,-1,1
1480690440819257,-1,-4,0,1,2,2,0,-2
1480690440819257,-2,-1,0,-2,-1,-3,0,-1
1480690440823769,-2,-1,-2,-1,-1,-1,-2,0
1480690440823769,-1,-1,0,0,-1,0,0,-1
1480690440833295,0,-1,-1,0,0,-1,1,2
1480690440833295,-2,0,-2,-2,1,0,0,-1
1480690440847832,0,-1,-2,0,-2,-2,-1,0
1480690440847832,-1,-2,-1,0,-1,0,-1,-1
1480690440849337,-1,-3,0,-1,-4,-1,-1,0
1480690440849337,0,-1,-1,-1,0,-1,-1,1
1480690440870394,-1,-1,3,0,0,1,-1,0
1480690440870394,0,-1,-1,1,0,0,-1,-1
1480690440871898,-1,2,0,-1,1,-1,-2,1
1480690440871898,0,2,0,-1,0,0,-1,-1
1480690440883929,0,0,-4,-1,-1,0,-1,-2
1480690440883929,3,-2,-1,-1,-2,-3,0,0
1480690440892953,1,-2,0,0,0,0,-1,-3
1480690440892953,-3,-3,-1,0,-1,0,0,-1
1480690440907992,1,1,2,-1,-2,-1,1,-1
1480690440907992,-3,0,0,-3,-1,-1,-1,1
1480690440909497,1,-1,0,0,-1,-2,0,-2
1480690440909497,2,0,-1,1,1,-1,0,1
1480690440930051,-1,0,-2,-1,-1,0,-1,1
1480690440930051,2,1,-2,-2,-2,-2,-2,0
1480690440932057,-5,-5,0,0,1,5,1,-2
1480690440932057,-1,0,-2,-2,-2,-2,0,-2
1480690440944088,-1,-1,0,-1,0,0,0,1
1480690440944088,0,3,1,0,1,0,0,-1
1480690440953113,0,0,2,-1,0,-2,-2,-1
1480690440953113,0,1,1,0,-1,-1,-1,-2
1480690440982691,-2,-3,-1,-1,0,-1,-2,0
1480690440982691,4,0,0,-1,0,1,0,2
1480690440984196,-7,2,-1,-2,0,-1,-1,-3
1480690440984196,-2,0,0,0,1,-1,0,0
1480690440990213,-1,1,-1,1,1,-1,1,0
1480690440990213,-3,-2,0,0,2,-1,0,-3
1480690440991715,4,-1,-1,-1,1,0,0,0
1480690440991715,1,0,0,-2,-1,-1,0,0
1480690441003748,-3,-1,1,-1,1,-2,1,-2
1480690441003748,-2,-1,1,-1,-1,0,1,-1
1480690441012772,1,1,-3,-1,-2,-1,0,-1
1480690441012772,-1,-1,0,0,-1,-1,-2,-2
1480690441028313,0,-1,-2,0,1,2,0,0
1480690441028313,-2,-1,-2,-1,0,0,-1,0
1480690441029817,0,1,0,-1,0,-1,0,1
1480690441029817,-1,-2,-3,0,1,-1,-2,0
1480690441050371,1,-1,-2,-2,-2,-3,-1,0
1480690441050371,-2,-2,-3,-2,-1,0,-1,0
1480690441051876,0,2,2,-1,0,0,0,0
1480690441051876,0,-1,1,-1,-1,0,-2,0
1480690441063908,4,4,-1,-1,-3,-3,-1,1
1480690441063908,0,-2,-1,0,0,-1,0,-2
1480690441072932,3,0,-1,0,-1,-2,-1,1
1480690441072932,0,-1,-2,-1,-2,0,1,-1
1480690441086969,-3,0,2,0,-1,-1,-1,-3
1480690441086969,-3,-1,0,2,0,-1,0,0
1480690441095491,-1,-3,-2,1,-1,0,-2,-2
1480690441095491,1,-1,-2,-2,0,0,-2,2
1480690441110530,0,-1,-1,-1,-1,0,0,0
1480690441110530,0,-2,2,0,-2,-1,1,1
1480690441112036,-1,-1,-1,0,-2,0,0,0
1480690441112036,-1,1,-1,-1,0,1,0,-1
1480690441132590,-1,0,0,-1,1,1,0,0
1480690441132590,1,0,-1,-1,0,0,0,0
1480690441134595,-2,1,0,-1,-1,-1,0,-1
1480690441134595,-1,-2,1,-2,-1,-1,0,-1
1480690441147631,-1,-6,3,1,1,0,-1,-1
1480690441147631,0,-3,2,1,0,-1,0,-1
1480690441149636,1,-1,-1,0,-1,-1,0,0
1480690441149636,0,0,-1,1,-1,0,1,0
1480690441170191,-2,-3,-2,0,1,0,0,-2
1480690441170191,-2,0,1,2,4,2,-2,-1
1480690441171695,4,1,-3,-2,-1,-3,-2,1
1480690441171695,0,0,1,-1,-2,-1,0,0
1480690441192749,1,-1,-2,0,-2,-2,-1,0
1480690441192749,-1,3,-3,-2,-3,-3,-1,-2
1480690441196259,-3,2,-1,0,0,0,0,-1
1480690441196259,-1,0,-1,0,2,-2,1,0
1480690441207790,-1,-2,0,-1,0,0,2,-1
1480690441207790,1,-1,0,-1,-3,0,0,-1
1480690441209295,0,-3,-1,0,0,0,1,-2
1480690441209295,0,0,0,-2,0,0,1,-1
1480690441230851,0,1,-3,-2,0,-2,0,1
1480690441230851,0,1,1,0,-1,0,1,1
1480690441232355,-1,-1,1,-2,-3,-1,-2,1
1480690441232355,-2,-3,0,2,-1,-1,0,0
1480690441260429,1,0,-2,-2,0,-1,-2,0
1480690441260429,1,1,-2,-2,-1,1,0,-1
1480690441261933,-4,-2,0,1,1,0,0,-4
1480690441261933,-1,-2,0,0,0,-1,-1,-2
1480690441266947,-2,0,0,2,-2,-2,-2,-1
1480690441266947,-4,-3,0,1,2,3,0,-1
1480690441273967,-1,0,-1,0,-1,2,0,0
1480690441273967,1,3,0,-3,-1,0,-1,-1
1480690441290009,0,0,-2,-1,-1,-2,0,0
1480690441290009,-1,-2,-2,-1,-1,-2,-1,-1
1480690441292014,-2,0,-1,1,0,-1,-1,1
1480690441292014,0,0,0,0,-1,0,0,-1
1480690441312568,1,0,-1,0,0,2,-1,0
1480690441312568,-1,1,1,0,-1,0,0,-1
1480690441314574,-1,-1,-1,-2,-1,-1,0,0
1480690441314574,-2,-1,-1,-1,-1,-1,0,-1
1480690441327107,-3,-3,1,1,-2,-1,-1,-2
1480690441327107,0,-1,-1,-1,-1,-2,-2,0
1480690441341647,0,1,-1,-2,2,-1,1,-1
1480690441341647,0,2,-1,0,-2,1,0,0
1480690441350168,-2,0,0,0,-1,0,0,0
1480690441350168,-2,-4,-1,0,-1,-1,0,-1
1480690441351672,0,-2,0,1,-2,-1,-1,-1
1480690441351672,1,-2,-1,-1,0,-2,-2,0
1480690441372735,0,2,-1,-1,-1,0,-1,-1
1480690441372735,1,-4,0,-1,0,-1,1,1
1480690441374232,0,0,-3,-2,-1,1,-1,-1
1480690441374232,-1,-2,-1,-2,0,0,0,-1
1480690441387267,0,-1,0,-1,2,0,-2,0
1480690441387267,0,2,0,0,0,-2,0,0
1480690441395288,0,-1,2,-1,-1,-2,1,0
1480690441395288,-3,-1,-1,1,0,2,-1,0
1480690441409827,0,1,-2,-2,-3,-3,-1,0
1480690441409827,1,0,-2,-1,-3,-1,-2,-2
1480690441416345,-2,0,-4,0,0,1,-2,-2
1480690441416345,0,0,-2,-1,-2,0,-3,-1
1480690441432889,0,-1,0,0,-1,1,0,-3
1480690441432889,-2,0,0,-2,-1,0,-1,-2
1480690441434393,-1,-2,1,0,-2,-1,1,-1
1480690441434393,1,-2,1,-1,1,-1,1,-1
1480690441447428,1,-2,-2,-2,-4,0,1,-2
1480690441447428,0,1,-2,-1,-2,-1,0,-1
1480690441453946,-1,2,-3,0,0,0,-1,1
1480690441453946,0,-1,-1,1,-2,-2,0,1
1480690441469989,3,0,-5,-3,-1,-1,0,1
1480690441469989,-1,-2,-1,2,1,1,0,-1
1480690441471993,1,0,0,-2,-4,-1,-2,-1
1480690441471993,-1,-2,0,1,0,1,0,-2
1480690441492046,-1,0,-1,-1,0,-1,-2,0
1480690441492046,0,0,-1,-1,-2,-2,-2,1
1480690441516110,0,-3,4,0,-1,1,-1,-1
1480690441516110,1,0,-2,-1,-2,-2,-2,-1
1480690441516612,-5,0,2,0,-1,0,2,-2
1480690441516612,-1,-2,-1,-1,0,0,1,-2
1480690441518617,1,-3,3,-3,-1,-1,0,0
1480690441518617,-1,-2,-2,0,-3,-1,-1,0
1480690441537667,-1,-1,0,-1,0,0,1,0
1480690441537667,-2,1,-1,0,0,1,-1,-1
1480690441539675,2,7,-3,-2,-1,-1,-2,0
1480690441539675,1,0,-1,-2,-3,-2,-2,0
1480690441569253,-3,-1,1,2,0,1,-1,0
1480690441569253,2,-1,-2,0,-1,-1,0,1
1480690441570755,-1,-1,-3,0,0,-1,-1,0
1480690441570755,-2,0,1,-1,1,-1,0,-2
1480690441571763,-2,-1,1,0,-1,0,-1,-2
1480690441571763,0,1,0,-2,0,-1,-1,0
1480690441575267,-1,-3,1,0,-1,-1,-1,0
1480690441575267,-2,-2,0,-1,2,1,1,0
1480690441589809,1,-3,-2,-1,2,2,0,1
1480690441589809,1,-3,-2,-2,0,-3,-3,0
1480690441596323,-4,-7,0,0,-1,4,2,0
1480690441596323,1,1,1,-1,-2,-2,-1,-3
1480690441612867,1,0,-3,-3,-2,-1,1,-1
1480690441612867,0,0,-1,0,1,0,0,0
1480690441615374,-1,1,2,2,-1,0,0,-1
1480690441615374,-2,-1,1,0,-1,0,-2,2
1480690441626403,0,-2,0,1,1,0,1,-1
1480690441626403,0,0,1,0,-1,-1,0,0
1480690441635427,0,-1,0,-1,-1,-4,-2,-2
1480690441635427,0,-3,1,-2,1,0,-1,0
1480690441650468,1,2,0,0,-1,-2,-2,-1
1480690441650468,-2,-4,0,1,2,-1,0,-1
1480690441651972,1,2,-3,0,0,-1,-1,-2
1480690441651972,3,6,-7,-2,-1,-1,1,1
1480690441672527,-3,-1,0,1,-1,-1,-2,1
1480690441672527,0,1,-1,-1,-3,-1,1,1
1480690441674531,0,-2,-1,0,1,0,-1,0
1480690441674531,0,-1,-1,0,-2,-2,-2,-3
1480690441686563,0,-2,1,-1,0,-2,0,0
1480690441686563,-2,0,1,0,0,0,-1,-3
1480690441695587,0,0,0,-1,-2,-1,1,1
1480690441695587,-1,1,-2,-2,0,0,0,0
1480690441710127,-3,0,-1,0,-1,0,-1,-1
1480690441710127,-1,-1,-2,-1,-1,1,0,-1
1480690441712633,1,1,-1,-1,-2,-1,-1,-1
1480690441712633,-2,-3,0,0,2,-1,-2,-1
1480690441732686,-1,-1,0,-1,1,0,-1,1
1480690441732686,1,0,0,0,0,1,2,0
1480690441734190,0,-2,0,-1,1,-1,1,-1
1480690441734190,-1,-1,-1,0,-2,-3,0,0
1480690441746222,0,1,1,-1,-2,-3,0,-1
1480690441746222,-1,4,-1,0,-2,-1,-2,0
1480690441755753,0,-1,0,-1,-1,-1,1,-1
1480690441755753,-2,-1,1,3,1,1,1,-2
1480690441770286,-1,-1,-1,0,0,-1,0,0
1480690441770286,-1,-4,1,0,0,0,0,0
1480690441771792,-1,-1,-3,0,-1,0,-3,0
1480690441771792,-2,1,-1,-1,-3,0,-1,-1
1480690441792845,0,-1,-1,-1,-1,0,-1,1
1480690441792845,0,0,-2,-1,0,-2,-2,1
1480690441794349,0,-1,0,-3,0,-1,0,-1
1480690441794349,-1,-1,-2,0,-1,0,0,0
1480690441815407,0,1,2,-2,-1,-1,-1,0
1480690441815407,0,1,0,-1,-1,1,-2,-2
1480690441816910,-2,-1,-3,1,0,1,0,2
1480690441816910,-1,-3,-1,-3,0,-1,0,0
1480690441845486,-2,-2,0,-1,0,-1,0,-1
1480690441845486,-1,4,-4,-2,0,0,-1,-1
1480690441846990,0,-1,0,-1,1,-2,-3,-1
1480690441846990,1,0,0,0,-1,0,-1,-3
1480690441852504,1,-2,-2,1,-1,-1,0,0
1480690441852504,0,-3,0,0,-1,-1,0,-2
1480690441854510,-2,0,0,0,0,0,-1,0
1480690441854510,-1,0,1,1,0,-1,0,-1
1480690441866541,1,2,-2,-1,-2,-1,-2,0
1480690441866541,1,2,1,0,1,-1,-2,-2
1480690441875566,0,0,-4,0,-2,1,0,0
1480690441875566,1,-3,0,-2,0,-1,-1,0
1480690441890104,-1,0,0,1,0,0,1,-1
1480690441890104,-2,-2,-2,0,-3,-1,1,1
1480690441892110,1,-2,0,-3,-2,0,2,-1
1480690441892110,0,0,-2,0,-1,-1,-1,1
1480690441912664,0,-2,-3,-1,-1,-2,0,0
1480690441912664,-1,-1,0,-1,1,-1,-3,-2
1480690441914169,-3,1,-2,-1,0,0,-1,-2
1480690441914169,3,0,0,0,-1,-1,-1,1
1480690441926199,-1,-1,0,-1,0,0,-1,0
1480690441926199,-3,-3,0,1,-1,-1,1,0
1480690441935224,5,0,1,-1,0,-1,0,0
1480690441935224,-5,-2,-1,-1,0,1,-1,-2
1480690441949762,0,-3,2,2,3,-1,-1,1
1480690441949762,2,-1,-2,-1,-3,1,0,0
1480690441957784,-1,-3,1,0,-1,-2,1,0
1480690441957784,-1,-3,0,-1,-1,-1,0,6
1480690441972825,0,0,-1,-2,-1,2,2,-1
1480690441972825,-3,-5,1,0,-1,-3,0,1
1480690441974329,-10,1,0,1,0,-1,-2,-5
1480690441974329,14,-1,-4,-1,-3,-1,-2,3
1480690441986362,-1,0,-2,-1,-2,-1,-2,-3
1480690441986362,-1,2,-2,-2,-1,0,-1,-1
1480690442001402,0,0,0,-1,1,0,0,1
1480690442001402,-5,-1,0,0,1,-1,-1,-3
1480690442010424,0,-1,-1,0,-2,-1,-2,-1
1480690442010424,3,1,1,0,1,-1,-1,0
1480690442011929,6,0,0,-2,-1,-1,1,2
1480690442011929,-7,0,0,-1,0,0,1,2
1480690442032483,-5,-3,0,-2,0,-2,-3,-19
1480690442032483,-2,0,-2,-2,-1,-1,0,4
1480690442034489,0,0,-1,-1,1,0,-1,-1
1480690442034489,-2,0,1,0,-2,0,0,-3
1480690442071588,-2,-1,-2,-1,-2,-1,-1,6
1480690442071588,-2,-3,-1,-1,-1,-1,-1,-4
1480690442073095,2,1,-2,-1,-1,-1,-1,5
1480690442073095,-2,-3,-3,0,0,-1,-1,4
1480690442074095,-2,1,-1,-1,1,0,0,3
1480690442074095,0,0,-2,-1,-1,-1,1,-1
1480690442093147,-2,1,-4,-3,-1,-1,1,-1
1480690442093147,-2,-1,0,-1,-1,-1,0,-2
1480690442094147,5,2,-1,-2,0,1,2,2
1480690442094147,-2,1,0,-1,-2,-3,0,1
1480690442095651,-2,-1,1,-1,0,1,1,-1
1480690442095651,-2,1,1,0,1,0,-2,-5
1480690442123727,-2,-3,-1,-1,0,0,-1,1
1480690442123727,1,-1,2,-1,1,0,-1,-1
1480690442127235,-2,-2,0,2,0,-3,-1,-1
1480690442127235,-2,0,1,-1,1,0,-1,-3
1480690442136763,0,-2,-2,0,-3,-1,0,4
1480690442136763,0,-1,-1,1,-1,-1,-1,0
1480690442145283,-2,-1,1,0,-1,0,-2,-2
1480690442145283,-1,-1,-1,2,-2,-1,0,-1
1480690442152804,-1,1,0,-1,0,-1,-1,0
1480690442152804,-1,0,1,0,2,-2,-1,-1
1480690442154308,-3,1,-3,-1,-2,-2,-1,-2
1480690442154308,1,-2,0,0,-1,-1,-2,-3
1480690442175362,1,-1,0,-2,0,0,0,0
1480690442175362,1,-1,-1,0,-1,2,1,-2
1480690442176867,0,0,-3,-3,-2,1,0,0
1480690442176867,-3,0,0,-1,0,2,-1,-1
1480690442189402,-1,1,0,1,-1,-2,0,1
1480690442189402,0,-2,-3,0,0,0,0,-2
1480690442196418,1,-3,-1,1,-1,-1,-1,0
1480690442196418,0,1,-1,1,-1,-1,1,0
1480690442213464,-1,-2,-1,0,-2,-1,1,1
1480690442213464,-2,-1,-3,-1,0,1,0,0
1480690442214968,-1,1,1,1,-2,0,0,-2
1480690442214968,0,-1,0,0,0,0,0,-2
1480690442235022,-2,-2,0,-1,-1,1,-3,-1
1480690442235022,0,-2,-1,0,-3,0,-3,-1
1480690442237029,2,-2,-1,1,0,0,-1,-2
1480690442237029,1,0,-2,0,0,-1,0,0
1480690442249560,1,0,-1,-2,-2,-2,1,-1
1480690442249560,-1,-2,-1,-1,1,0,-1,0
1480690442256581,1,0,1,-1,-2,1,0,0
1480690442256581,0,0,-1,-3,-1,-1,0,-2
1480690442280141,-1,-1,-1,0,0,1,0,-1
1480690442280141,2,3,-2,-1,-2,-3,-1,1
1480690442283651,1,-1,0,0,-1,0,1,-2
1480690442283651,0,0,1,0,0,-1,0,0
1480690442295181,3,3,-1,-3,-2,-1,0,0
1480690442295181,-3,-8,3,1,0,0,-1,-1
1480690442301197,-1,-1,-2,-1,-1,0,-2,-2
1480690442301197,-1,-1,-2,-1,-2,0,-1,0
1480690442309720,-1,-1,0,2,1,-1,-2,1
1480690442309720,-1,1,-1,1,0,-1,0,1
1480690442316238,-3,-4,-1,0,0,-2,-1,1
1480690442316238,-2,-2,2,0,0,0,2,-1
1480690442332280,-2,-1,1,1,-2,0,-1,-1
1480690442332280,0,2,-1,0,-1,0,2,1
1480690442347821,-1,0,-2,-2,-1,0,-1,-1
1480690442347821,1,1,-4,0,-1,0,0,0
1480690442355352,0,-2,1,0,0,-3,0,-1
1480690442355352,-1,0,-1,1,-1,1,0,-2
1480690442356845,-1,0,-1,-1,-2,-2,2,-2
1480690442356845,0,-1,0,-1,-2,-1,-1,0
1480690442369380,0,0,2,-1,0,-1,1,-2
1480690442369380,-1,-1,0,-1,-1,0,-1,-1
1480690442376399,-2,0,0,0,0,0,-2,0
1480690442376399,1,-1,-1,-1,0,-2,-2,3
1480690442400963,-5,0,-2,0,-1,0,-1,-13
1480690442400963,1,1,1,-1,-1,-3,-1,-1
1480690442402968,-2,0,1,0,1,2,-1,-1
1480690442402968,-2,-8,4,0,0,0,1,-3
1480690442415000,3,-3,-1,-1,-3,0,0,5
1480690442415000,1,-1,-1,-1,-1,-1,0,0
1480690442423523,-1,0,-1,-1,0,0,1,-1
1480690442423523,0,2,0,-1,0,-1,-1,-2
1480690442429539,-2,-2,1,-1,2,-1,-1,1
1480690442429539,2,-1,-1,-1,2,-1,1,0
1480690442436559,-6,-1,0,1,1,0,0,1
1480690442436559,-2,1,-1,1,-1,0,1,-1
1480690442452600,1,1,-1,2,0,1,-1,-1
1480690442452600,0,0,-1,-1,2,0,0,-4
1480690442454608,1,0,0,-1,-1,-1,-2,-1
1480690442454608,-3,0,1,2,2,0,-1,0
1480690442475662,-2,-3,0,-1,-3,1,1,2
1480690442475662,-1,-2,-2,-1,-1,1,1,-1
1480690442477166,0,0,-1,1,-1,1,0,0
1480690442477166,0,1,-2,-1,-2,-1,0,1
1480690442489699,1,-1,-1,-2,-1,-4,-2,1
1480690442489699,-1,-1,-2,-1,0,-2,0,0
1480690442496216,3,1,-2,1,0,-3,-1,0
1480690442496216,0,4,-3,-2,-1,0,0,-1
1480690442512760,-1,1,-1,-1,-1,0,-2,1
1480690442512760,-3,1,-1,-1,-2,0,-1,0
1480690442514264,0,0,0,0,-1,0,0,-1
1480690442514264,1,-2,-1,-1,-1,0,-1,0
1480690442535320,0,0,-1,-1,0,0,-1,-2
1480690442535320,-2,0,1,0,-3,0,-2,-2
1480690442536824,0,-2,-1,-1,-1,0,1,0
1480690442536824,-1,0,0,0,-2,-1,-2,1
1480690442548861,-2,-2,-2,-1,1,0,0,-1
1480690442548861,-1,4,-3,-2,-1,-3,-1,1
1480690442557880,-3,1,-1,-1,0,0,-2,-1
1480690442557880,-1,1,0,-1,-2,-2,-1,0
1480690442573424,-1,-1,-1,0,0,-1,-1,-1
1480690442573424,1,-2,0,0,-1,0,-1,1
1480690442578935,2,0,-2,-3,-2,-3,-1,1
1480690442578935,-2,-3,-3,-1,0,1,0,-2
1480690442595480,-1,2,-2,0,-1,1,-2,-2
1480690442595480,-3,-2,-1,1,-1,0,1,0
1480690442596984,-2,0,2,0,-3,-1,-2,0
1480690442596984,-1,-1,0,-1,-1,-1,0,-1
1480690442609015,-2,-5,0,0,1,1,2,2
1480690442609015,-3,0,2,0,1,-1,-1,-1
1480690442625560,-1,-1,1,-1,1,2,2,0
1480690442625560,-1,1,-2,-1,-2,1,-3,-2
1480690442632578,0,2,-1,1,-2,0,-1,-1
1480690442632578,1,-1,-4,1,-3,-1,0,2
1480690442634584,-1,-2,0,0,0,0,0,0
1480690442634584,-1,0,0,1,0,-1,-1,-1
1480690442655643,0,1,2,1,1,0,0,-1
1480690442655643,0,-1,-2,-1,-1,-1,-1,-1
1480690442657144,0,-1,-3,1,-1,1,1,-2
1480690442657144,1,1,-2,-1,0,-1,0,2
1480690442668675,-1,-2,-1,0,-2,-1,0,0
1480690442668675,0,-1,0,0,-1,0,-2,-1
1480690442677698,-1,0,-1,0,-1,-3,-3,-1
1480690442677698,-1,-3,1,0,-1,2,0,-2
1480690442691736,0,0,0,-1,-2,-2,-1,-1
1480690442691736,-2,-1,-2,-1,-1,0,-1,-2
1480690442700259,2,-2,-1,-1,0,0,0,-2
1480690442700259,0,0,-1,0,0,0,-2,-2
1480690442716302,1,0,-2,-1,0,0,-1,0
1480690442716302,-5,-10,3,2,4,3,0,-1
1480690442719812,-2,0,0,1,1,-1,-1,0
1480690442719812,1,-2,-2,0,0,0,-1,-2
1480690442728835,-1,-3,-1,0,0,1,-1,-1
1480690442728835,1,2,-1,-1,1,0,0,0
1480690442737861,-2,-1,0,-2,1,0,-2,1
1480690442737861,-1,-1,1,-1,-2,-1,2,1
1480690442752901,-2,0,-1,-1,0,-3,-2,-1
1480690442752901,1,1,-2,-3,-2,-2,-1,0
1480690442754403,-1,-1,-2,0,-1,-1,-1,0
1480690442754403,0,1,-2,-1,-1,-2,-1,-2
1480690442774973,0,0,-3,1,-1,-1,0,-1
1480690442774973,1,3,0,1,-1,-1,-1,-2
1480690442789498,1,-2,0,0,0,1,0,0
1480690442789498,-2,0,-1,-1,-1,-2,-1,0
1480690442790499,0,-2,0,-1,-1,0,0,0
1480690442790499,0,1,-2,-1,0,-1,-2,0
1480690442798018,0,-1,-2,0,-2,-1,-1,0
1480690442798018,-1,-2,-2,0,0,-1,1,1
1480690442812558,1,-1,-2,0,-2,-1,-1,-1
1480690442812558,0,0,-1,-1,0,0,0,1
1480690442814563,-1,1,0,0,0,-1,-1,-1
1480690442814563,0,-1,1,-1,1,0,-1,-1
1480690442835619,-2,0,0,0,-1,0,1,0
1480690442835619,0,0,1,0,-2,-1,2,0
1480690442837124,-2,-2,-3,2,-1,0,-1,0
1480690442837124,0,0,-1,1,0,0,-1,0
1480690442848653,-1,0,0,-1,2,0,2,-1
1480690442848653,0,-1,-1,-1,-1,-2,0,0
1480690442874722,0,0,-1,0,0,0,0,0
1480690442874722,-1,1,0,-1,-3,0,-2,0
1480690442875725,-2,-3,1,0,-1,1,-2,0
1480690442875725,-1,-1,-1,1,-1,1,-1,0
1480690442878733,-3,-1,0,-1,3,0,0,-2
1480690442878733,0,0,-2,-1,0,-1,0,1
1480690442902798,1,-1,0,-2,-3,-2,-2,1
1480690442902798,-2,-2,-1,-1,-1,0,0,-2
1480690442904302,0,1,1,-3,-2,1,-1,0
1480690442904302,1,-1,-4,-3,-1,1,-2,-1
1480690442908813,1,2,0,2,0,1,0,-2
1480690442908813,1,0,0,0,-2,-3,0,0
1480690442925357,-1,-2,-2,1,-1,0,-1,0
1480690442925357,-1,-1,1,1,-1,-1,0,-1
1480690442932879,-1,1,-1,-3,-2,-1,-1,1
1480690442932879,0,0,-2,0,-1,1,-1,-1
1480690442934382,-2,-1,-1,-3,0,-1,1,0
1480690442934382,-1,0,-2,1,-1,-1,-2,0
1480690442955438,1,4,-3,0,0,-2,-2,1
1480690442955438,0,1,0,-2,-1,-1,-1,1
1480690442956941,-2,0,0,-1,-2,-1,-2,-2
1480690442956941,-1,-1,0,-1,0,0,-1,1
1480690442968974,-2,-3,0,0,1,0,-2,0
1480690442968974,-1,-2,0,-1,-2,0,0,1
1480690442984014,1,1,-2,-1,0,-1,0,-2
1480690442984014,-1,0,-1,0,1,0,0,-1
1480690442993037,1,-2,-4,-2,1,0,-1,-1
1480690442993037,0,-2,-1,-1,1,-1,-1,-1
1480690442996044,-1,-2,1,1,-3,0,1,-2
1480690442996044,1,-1,0,-2,-1,-1,1,0
1480690443015096,-2,2,1,1,0,0,1,-1
1480690443015096,0,2,-1,-2,-1,0,0,-1
1480690443017101,2,-1,-1,1,0,-1,-1,-1
1480690443017101,0,0,0,0,-1,0,-1,1
1480690443037657,-3,-4,1,-1,-2,2,1,-3
1480690443037657,-3,-1,0,1,0,-2,-1,-1
1480690443039161,-1,0,0,-1,-2,-1,-1,0
1480690443039161,0,0,1,2,-1,-2,-1,1
1480690443052698,-1,3,-4,-5,-2,-1,1,0
1480690443052698,-2,-1,-1,0,-1,-1,-1,-1
1480690443054201,-1,0,1,-1,-1,-3,-2,-1
1480690443054201,0,-2,0,1,-1,-2,-1,-2
1480690443075761,-2,0,-1,1,0,-1,-1,0
1480690443075761,1,0,-1,-2,1,0,-1,-3
1480690443088798,1,-2,-1,-2,0,0,0,0
1480690443088798,-2,-1,-1,-1,-1,2,0,-1
1480690443097815,1,-1,1,1,0,-1,-1,-1
1480690443097815,0,0,0,-1,-2,1,1,-2
1480690443099320,1,0,1,0,0,0,-1,2
1480690443099320,0,-1,0,-3,-1,-3,0,0
1480690443112856,0,-2,1,-1,-3,-1,-1,1
1480690443112856,-3,0,-3,2,-1,-1,0,0
1480690443114360,0,-1,-3,0,-3,1,0,-1
1480690443114360,-3,0,-3,0,1,1,0,0
1480690443135417,-1,-1,0,-3,-1,1,-3,-1
1480690443135417,0,-1,0,-3,-2,1,-3,0
1480690443136920,-3,0,-2,2,-1,-1,0,1
1480690443136920,-1,0,-1,-1,-2,-1,-2,-1
1480690443156973,-1,-3,-2,0,0,0,1,2
1480690443156973,2,-2,-2,-1,1,-2,1,1
1480690443182541,-3,-6,1,1,1,0,1,-1
1480690443182541,0,0,0,0,-1,1,0,-2
1480690443183544,-1,-2,1,1,0,-2,1,-1
1480690443183544,0,-2,1,-1,-1,-2,-1,1
1480690443203599,1,1,-3,-1,-1,-3,1,-2
1480690443203599,1,0,-1,-1,-2,-2,-1,2
1480690443204099,-1,-1,0,2,0,-1,-1,0
1480690443204099,1,3,-2,-9,-4,0,0,-1
1480690443206104,2,1,-1,-2,1,1,0,-1
1480690443206104,0,0,0,-1,-2,0,1,1
1480690443217635,0,1,0,0,-3,0,-1,0
1480690443217635,-1,-1,0,1,2,-1,-3,0
1480690443232674,-2,-1,-2,-1,1,0,-2,1
1480690443232674,-3,-4,-1,-2,1,0,1,-2
1480690443233679,0,0,0,1,-1,-1,-1,-2
1480690443233679,0,-1,-2,2,-2,-1,2,-2
1480690443238693,-3,-1,-1,1,0,0,2,-2
1480690443238693,-1,-5,2,2,0,0,-1,-1
1480690443255237,0,-1,-4,-1,0,-1,0,-1
1480690443255237,-4,-3,3,4,4,2,-1,-2
1480690443256738,0,1,0,-1,-1,-2,-1,-1
1480690443256738,1,1,-3,-1,0,-2,0,-1
1480690443277293,0,0,0,-1,1,2,0,1
1480690443277293,0,-2,-1,-1,1,0,0,1
1480690443285314,0,0,1,-1,-1,-1,-1,-2
1480690443285314,1,0,0,1,-3,-1,-1,0
1480690443292333,0,0,0,1,-2,0,0,-2
1480690443292333,-2,2,-2,0,1,-2,0,0
1480690443298851,-1,-2,0,-1,-1,1,1,0
1480690443298851,-3,-1,-1,0,1,1,0,-1
1480690443315896,-1,1,-2,-1,0,0,-2,-1
1480690443315896,0,-1,-2,-2,-2,0,-1,0
1480690443317902,1,-2,-2,-1,-3,-4,-4,1
1480690443317902,2,0,-1,-3,-1,-2,-1,-1
1480690443336953,0,-9,3,0,0,0,0,1
1480690443336953,0,-1,0,1,-1,0,1,1
1480690443345476,1,-1,-2,-3,1,1,1,2
1480690443345476,-1,1,-2,-1,0,0,-1,-1
1480690443352996,-2,-1,-3,-1,-1,-2,0,-1
1480690443352996,-1,-4,0,-1,-2,-1,-1,0
1480690443359010,-1,-1,-1,-1,0,-1,-2,-1
1480690443359010,-1,2,-1,0,-2,-2,-1,-1
1480690443375053,-1,0,0,-1,-1,-2,0,-2
1480690443375053,-1,-4,1,0,0,0,-1,0
1480690443377059,-1,1,2,1,0,3,0,-2
1480690443377059,1,2,-1,-1,0,0,-3,2
1480690443397612,0,-1,0,0,-2,0,0,0
1480690443397612,0,0,1,5,2,1,0,0
1480690443401122,-4,-2,-1,1,3,-1,0,-2
1480690443401122,1,0,0,-1,0,-1,0,0
1480690443412152,-2,-1,1,-1,2,1,-1,0
1480690443412152,1,4,-1,-1,-4,0,-1,-3
1480690443418669,-1,-2,0,3,-2,-1,1,1
1480690443418669,-2,0,-1,-1,2,-1,0,-1
1480690443449251,-3,1,-2,0,-1,-1,0,-1
1480690443449251,-2,1,0,-3,-1,-2,0,-1
1480690443459780,1,2,0,-2,-1,-1,-1,1
1480690443459780,-2,-2,0,0,-1,0,1,-2
1480690443460781,1,0,-1,0,0,0,-2,1
1480690443460781,1,-2,-3,-1,0,0,1,-2
1480690443463789,0,2,-1,-3,-3,-1,-2,-2
1480690443463789,0,-1,1,0,-2,-3,-2,1
1480690443480334,-1,-1,-1,1,-1,-1,0,-1
1480690443480334,-2,-2,-2,-1,-1,0,-1,0
1480690443481837,1,0,-2,-1,0,-2,-1,-1
1480690443481837,0,-1,0,0,-1,0,0,-1
1480690443495373,1,2,-2,-2,-1,-1,-1,-2
1480690443495373,-1,-1,-1,-1,-1,0,0,-1
1480690443496877,-1,-4,0,0,1,1,0,-1
1480690443496877,-1,-2,-1,-1,-1,0,0,-1
1480690443517934,-2,-6,4,1,0,0,-1,1
1480690443517934,-1,0,-1,0,-1,0,-2,0
1480690443519438,1,1,0,1,1,-1,0,0
1480690443519438,-2,-1,-4,-8,-4,-2,-2,-2
1480690443531469,-1,2,-1,-1,-2,0,1,0
1480690443531469,0,-2,1,-1,1,-1,0,0
1480690443540493,-1,-2,1,0,-2,0,0,-1
1480690443540493,-1,1,0,2,-1,0,0,-1
1480690443556038,-1,0,0,1,-1,-1,-1,-1
1480690443556038,-3,-3,-1,-2,-1,-3,-1,-3
1480690443557538,0,-1,-3,-3,-1,-2,-1,0
1480690443557538,1,1,-1,0,0,0,0,1
1480690443577592,-2,4,-1,-3,-2,-2,-2,0
1480690443577592,-1,-3,0,2,0,1,-1,-1
1480690443584110,0,3,-3,-2,-2,-1,0,-2
1480690443584110,1,-2,-2,-1,-2,0,1,-1
1480690443591629,2,-2,-4,-1,-2,-1,-1,0
1480690443591629,0,1,-3,-2,-1,0,0,0
1480690443606168,-2,-2,0,-1,-2,1,0,-1
1480690443606168,0,1,1,1,-2,-1,-2,-1
1480690443615192,1,-2,-1,1,3,2,1,0
1480690443615192,-2,0,2,2,0,-2,-1,0
1480690443616696,-2,0,1,-1,-1,0,-1,0
1480690443616696,-1,0,1,0,0,-2,-1,-2
1480690443645272,0,-2,-3,-2,0,-1,-1,0
1480690443645272,1,-1,-1,-2,0,1,-1,-1
1480690443646776,-1,-1,0,0,-2,0,0,0
1480690443646776,-2,-5,-1,0,1,0,0,0
1480690443651288,0,0,-3,-2,0,1,-1,-2
1480690443651288,-1,-1,0,-1,0,-1,0,-8
1480690443660312,0,0,-2,0,-2,-1,-1,-2
1480690443660312,-1,-5,0,-1,0,-1,-2,-3
1480690443675853,-1,-2,2,1,-2,-1,-1,-1
1480690443675853,1,0,1,-2,0,-2,-1,2
1480690443678862,1,-4,1,-2,1,0,1,3
1480690443678862,1,1,-2,2,-1,-2,-1,0
1480690443705435,-1,1,-4,-2,-3,-3,-1,-6
1480690443705435,0,-1,-4,-1,-2,-2,1,-3
1480690443706935,0,1,-1,0,-1,-1,0,-2
1480690443706935,-1,1,-1,-3,1,2,0,2
1480690443711447,0,-1,1,0,-1,-1,-1,2
1480690443711447,1,0,-3,-3,-1,0,-1,4
1480690443737518,-1,0,-2,1,0,-1,0,2
1480690443737518,-3,0,0,3,0,-1,-2,0
1480690443738524,1,0,-1,-5,-3,-1,0,1
1480690443738524,-1,0,0,0,-2,0,0,0
1480690443749048,0,0,0,-1,0,-2,1,0
1480690443749048,-2,2,3,1,1,2,0,0
1480690443757571,-1,0,0,1,1,-1,-1,-1
1480690443757571,-2,-2,-1,1,1,2,0,0
1480690443759576,-2,-1,-2,-1,1,-2,-2,-1
1480690443759576,1,-3,-4,-1,-3,-1,1,-1
1480690443771608,-4,-5,2,4,3,1,1,-2
1480690443771608,-1,-1,0,-1,-1,-2,-1,-1
1480690443788152,-1,-2,2,1,1,2,0,-2
1480690443788152,-1,1,1,0,1,-2,-1,-1
1480690443795169,0,2,-2,-1,-2,-2,0,1
1480690443795169,-1,2,-1,2,0,-2,0,0
1480690443796674,-1,0,-2,-1,-1,0,-2,-3
1480690443796674,-3,-10,1,1,1,-1,0,-2
1480690443817730,-3,2,-2,-2,0,2,0,0
1480690443817730,2,1,-2,-4,-1,0,0,0
1480690443819737,-1,-2,-1,-1,0,2,0,-1
1480690443819737,-1,0,0,-2,-3,0,1,-1
1480690443831267,0,-2,0,0,0,-1,0,-1
1480690443831267,0,1,0,1,-1,-1,1,1
1480690443840293,1,-1,1,-1,-1,-2,-1,0
1480690443840293,2,1,-2,-1,-1,0,1,0
1480690443855330,2,1,0,2,-1,-2,0,-1
1480690443855330,-3,-1,-1,-8,-3,-1,-2,2
1480690443856834,-1,2,-2,2,-1,-1,0,0
1480690443856834,-1,3,-2,0,0,0,-1,1
1480690443877890,-2,0,-1,0,-1,-1,-2,2
1480690443877890,-1,-4,0,3,1,-1,1,1
1480690443879394,0,-1,-3,-1,-1,-2,-1,0
1480690443879394,0,-1,2,0,3,0,0,-4
1480690443891428,-1,-2,-2,0,-3,-1,1,0
1480690443891428,0,1,1,1,-1,0,0,-2
1480690443900450,-2,-2,1,-1,-2,-1,0,0
1480690443900450,2,2,-1,-1,-1,-2,-1,0
1480690443923511,0,-1,1,0,2,1,0,1
1480690443923511,0,-1,0,4,1,2,-3,-1
1480690443925015,1,0,-2,-10,-3,-3,-1,0
1480690443925015,-1,-2,-2,-2,1,2,-1,-1
1480690443937550,0,0,0,-1,0,-3,-1,-2
1480690443937550,1,0,-3,-2,-2,-1,-1,-1
1480690443952592,1,-2,3,2,-2,0,1,-1
1480690443952592,-2,-2,-1,-1,-1,-2,-1,1
1480690443960108,-1,0,1,-2,0,-1,-1,0
1480690443960108,2,1,-1,1,-1,-3,-1,0
1480690443961612,-2,-1,0,1,2,0,-2,1
1480690443961612,0,1,-2,1,0,-1,0,0
1480690443982669,0,-1,-1,2,0,1,-2,-1
1480690443982669,-2,-2,0,-1,0,0,-1,-1
1480690443984173,-1,2,-1,2,1,-1,0,0
1480690443984173,-1,0,0,-4,-2,-2,0,-1
1480690443997708,0,0,-1,0,-1,-2,-1,0
1480690443997708,-1,-1,0,1,0,1,1,-2
1480690444011245,-1,-4,-1,1,-1,0,0,-1
1480690444011245,-1,2,-2,1,3,1,0,-1
1480690444020271,-2,-2,-3,0,-1,2,0,0
1480690444020271,-2,1,-2,0,0,-1,0,0
1480690444021774,-1,1,-1,0,0,-2,-2,-1
1480690444021774,-1,0,1,0,-1,-2,-1,0
1480690444035309,1,1,1,-2,1,0,-2,1
1480690444035309,-1,0,1,0,0,-1,-1,0
1480690444036814,1,1,-5,-3,-1,-2,-2,-1
1480690444036814,-2,-2,-1,1,-1,1,-1,-1
1480690444058370,0,0,-3,-6,-3,-2,0,-3
1480690444058370,2,1,-4,-1,-1,-1,-2,-1
1480690444059874,-1,-2,0,1,1,1,0,-1
1480690444059874,2,2,0,1,-1,0,-1,0
1480690444080429,-2,1,2,0,1,0,0,-1
1480690444080429,0,-2,1,0,1,1,-2,-1
1480690444081933,-3,-2,3,0,0,-1,-2,-3
1480690444081933,1,-2,-1,-2,0,0,0,0
1480690444094467,0,0,0,2,-1,-3,-1,-3
1480690444094467,-1,0,0,1,0,-2,0,-1
1480690444101485,0,1,-1,0,-1,-1,-1,-1
1480690444101485,-1,-1,-2,-1,-1,-1,-1,-1
1480690444118530,-1,-2,0,-4,-2,-3,0,1
1480690444118530,-1,3,-1,0,-1,1,-2,0
1480690444121038,1,-1,-1,1,-1,-1,-1,2
1480690444121038,0,0,1,-3,-2,0,-1,1
1480690444140090,-1,1,0,2,1,1,1,0
1480690444140090,0,-4,-1,-1,-1,0,1,0
1480690444142093,1,-3,2,0,-1,1,2,1
1480690444142093,-1,0,-1,2,-2,0,-1,0
1480690444153626,-2,-2,0,1,1,-1,-1,-1
1480690444153626,-1,-1,1,-1,0,1,0,-1
1480690444163148,-4,-3,1,1,1,0,0,0
1480690444163148,0,-2,-2,-1,-3,-1,-2,-1
1480690444178189,-2,-1,1,3,1,-1,-2,0
1480690444178189,0,-2,-2,-8,-3,-2,0,1
1480690444183705,-2,0,0,1,-1,0,0,-2
1480690444183705,-3,-5,1,2,-1,1,1,0
1480690444200248,0,1,-2,0,0,-1,2,0
1480690444200248,-1,0,1,2,1,-2,-1,-2
1480690444201752,1,4,-3,-4,1,-2,-2,1
1480690444201752,-2,1,-1,-2,0,-2,-1,0
1480690444221809,0,-2,-2,0,-2,0,-1,0
1480690444221809,-4,-4,2,-4,-1,1,1,-2
1480690444230327,3,-3,-1,0,1,0,0,-1
1480690444230327,-1,1,0,1,1,-1,-1,-1
1480690444237848,2,-2,0,-1,-1,-1,-1,-1
1480690444237848,-2,0,2,0,-1,-1,-1,1
1480690444239352,0,0,-4,-2,0,0,-1,1
1480690444239352,1,1,-1,-2,-3,0,0,0
1480690444260408,-2,0,-2,-1,-1,1,-1,2
1480690444260408,1,1,0,1,-1,-1,0,-1
1480690444261912,1,1,1,-2,-2,-2,-1,1
1480690444261912,-2,-1,1,1,1,1,1,0
1480690444275450,-1,1,-1,-4,0,-1,-1,-1
1480690444275450,-1,-2,-2,4,1,2,0,-2
1480690444288984,0,1,-1,-1,0,-2,1,0
1480690444288984,2,1,-3,0,-1,-2,1,-1
1480690444298007,0,-3,1,0,-1,1,0,-1
1480690444298007,-1,1,0,0,-1,-1,-1,-1
1480690444301016,-3,-2,0,1,0,-1,1,-1
1480690444301016,-2,-2,1,0,2,0,-2,-1
1480690444320066,1,5,-3,-2,-3,-1,-3,-1
1480690444320066,1,-1,-4,0,0,-2,-1,-1
1480690444322074,3,0,-2,-2,-1,-1,-2,-1
1480690444322074,0,-1,-3,-2,-1,-1,-2,0
1480690444334605,0,-2,-1,0,0,-1,-1,0
1480690444334605,1,0,1,0,0,0,0,-1
1480690444341624,-2,0,0,0,0,2,-1,-2
1480690444341624,-1,-1,-1,-1,1,0,-1,0
1480690444357667,1,-2,-1,-2,0,-1,0,-1
1480690444357667,-2,-1,0,-1,-1,-1,-1,1
1480690444359171,-1,0,1,1,0,-2,0,-1
1480690444359171,2,2,0,-2,1,-1,-1,-2
1480690444380226,-1,-1,-3,1,2,-1,1,-1
1480690444380226,-1,0,0,-1,-2,-1,1,0
1480690444381730,1,-1,-5,-4,-2,-2,-3,1
1480690444381730,-3,-3,3,0,0,1,-1,-4
1480690444394765,-1,0,-1,0,2,1,0,-1
1480690444394765,1,2,-1,-1,1,-3,0,1
1480690444401282,0,1,-2,-1,0,0,2,0
1480690444401282,2,0,-1,0,-1,-1,-1,1
1480690444417825,-1,0,-1,-2,0,-2,-2,0
1480690444417825,-1,-1,-1,0,0,0,-2,-2
1480690444419330,-2,0,-1,0,-1,-2,0,-1
1480690444419330,-3,-2,0,-1,-2,-1,-1,0
1480690444447404,-2,0,0,-2,-2,-1,1,1
1480690444447404,-1,-2,0,-1,-1,-1,-2,1
1480690444458434,0,1,-1,-1,-1,0,0,-1
1480690444458434,1,-1,-1,3,2,-1,-1,-2
1480690444458935,-2,-1,2,0,-2,-1,0,-2
1480690444458935,0,0,-3,1,-2,-1,-2,-1
1480690444462945,0,-2,1,0,1,-1,-2,1
1480690444462945,0,-1,-2,0,0,-2,1,0
1480690444477986,1,-4,0,0,0,1,-1,1
1480690444477986,-1,0,1,0,0,-1,0,0
1480690444479490,-2,-6,5,7,1,2,1,-1
1480690444479490,-2,-2,-2,-7,-2,-2,-2,-1
1480690444507565,-4,-2,1,1,3,0,1,-1
1480690444507565,0,0,-1,-1,0,0,0,1
1480690444509573,-2,-3,0,1,2,2,0,-1
1480690444509573,1,0,0,-1,-2,-2,-1,-1
1480690444525112,0,-3,-1,0,-3,0,0,-2
1480690444525112,2,-1,0,0,0,0,-1,-1
1480690444525112,-1,-5,3,-1,-1,-1,0,-1
1480690444525112,0,1,-2,-1,-1,-1,-1,0
1480690444537646,0,2,-1,-2,-1,1,-3,-2
1480690444537646,-1,-2,0,-6,-2,-1,-1,-2
1480690444539150,0,0,-3,0,-1,-2,-2,1
1480690444539150,0,-1,0,0,0,0,-1,0
1480690444560204,1,0,-1,0,-1,-1,0,1
1480690444560204,0,0,-2,1,-1,-1,0,-1
1480690444561708,2,2,-3,-3,-1,-2,-1,0
1480690444561708,1,0,1,3,-3,1,0,-1
1480690444573741,-2,-3,-3,-3,-1,-1,1,-1
1480690444573741,1,0,-1,-1,-2,-1,-1,1
1480690444582764,1,3,-2,-3,-2,-2,-1,-1
1480690444582764,-2,-2,0,3,0,0,0,-2
1480690444597804,-1,4,-1,0,0,2,1,-1
1480690444597804,-1,-1,0,0,0,-2,0,-1
1480690444599308,-1,2,-2,-2,-2,0,-1,0
1480690444599308,-4,0,-1,-2,-1,-1,0,-1
1480690444620367,1,5,-2,-1,0,-2,0,0
1480690444620367,-1,0,0,-1,0,0,0,-1
1480690444621874,-1,1,0,2,-1,0,-2,-3
1480690444621874,-2,-1,-1,-3,1,0,0,0
1480690444633902,-2,-3,0,0,0,-2,-1,0
1480690444633902,-1,-2,-2,3,0,-2,1,1
1480690444642924,0,-2,0,0,-1,-2,0,0
1480690444642924,1,0,-3,-7,-4,-2,0,1
1480690444664984,-1,-2,0,1,-2,-1,-1,1
1480690444664984,-1,-1,0,-1,-1,1,-1,-1
1480690444666988,0,-2,1,-4,-2,1,-2,-1
1480690444666988,0,-1,1,-1,-1,0,-1,-2
1480690444680023,1,-1,-1,0,-1,0,0,-2
1480690444680023,-1,-3,0,-3,-1,-2,-2,-2
1480690444682028,-2,0,-1,-1,0,0,0,0
1480690444682028,1,0,0,1,0,-1,-1,0
1480690444702585,0,-2,0,-3,-1,-4,-1,0
1480690444702585,1,2,-3,-1,-2,-3,1,1
1480690444704593,-2,-3,-2,-5,0,1,-1,-2
1480690444704593,0,0,-1,1,0,0,0,0
1480690444732663,-1,0,1,2,1,-1,1,1
1480690444732663,-3,-5,3,1,0,-1,0,0
1480690444736173,-2,0,0,1,1,0,0,1
1480690444736173,-3,0,0,0,2,-1,0,-2
1480690444741188,-1,-1,1,0,0,1,-1,-1
1480690444741188,-1,-1,-2,0,2,1,1,-2
1480690444754728,-1,-2,-1,0,-1,-1,-1,-1
1480690444754728,0,-1,-1,0,1,-1,0,0
1480690444755226,0,-1,0,2,1,-1,-3,-1
1480690444755226,0,-1,-1,0,-1,-1,-1,-2
1480690444762743,1,0,-2,0,-1,-2,0,-2
1480690444762743,0,0,-3,-3,0,0,-2,1
1480690444785304,1,0,-2,-3,0,-1,0,0
1480690444785304,1,1,-2,-2,-1,0,-1,0
1480690444786929,0,1,-1,-3,-1,-1,-1,-2
1480690444786929,-2,0,0,4,-1,0,-1,0
1480690444799341,-1,0,-2,-3,-2,0,0,-2
1480690444799341,0,-2,-2,1,1,-1,0,0
1480690444809367,1,0,0,-1,-1,-2,-1,-2
1480690444809367,2,-2,2,1,0,0,1,-1
1480690444813879,1,-2,-1,1,-2,-2,0,-1
1480690444813879,-1,-1,0,0,-1,0,0,-1
1480690444830423,-3,1,-1,2,1,-1,1,-1
1480690444830423,-1,-2,1,-2,-1,3,0,0
1480690444837944,-1,-1,0,0,-3,0,-1,-2
1480690444837944,0,-2,1,-1,0,2,0,-3
1480690444839447,0,2,-1,-1,-2,-1,0,1
1480690444839447,-4,-3,0,0,2,1,1,-1
1480690444861004,-1,-1,-1,1,1,0,1,0
1480690444861004,0,1,0,2,-2,-2,-2,0
1480690444862508,1,0,0,1,0,1,-2,-2
1480690444862508,2,0,0,-2,-2,-2,0,0
1480690444874039,-1,-1,0,-1,1,-2,-1,1
1480690444874039,0,0,-1,-2,0,2,-1,0
1480690444884568,0,-4,-1,-3,0,-1,1,-1
1480690444884568,-2,0,-2,0,-1,-2,-2,-1
1480690444897602,-1,-1,-2,-1,-1,0,0,-2
1480690444897602,-1,3,0,1,0,-1,0,1
1480690444899106,-1,0,0,-1,-2,0,-1,-1
1480690444899106,-1,1,-2,-4,-1,-2,0,1
1480690444927683,2,0,0,-1,-3,-1,-1,0
1480690444927683,2,5,-6,-2,0,0,0,-1
1480690444929186,0,-1,-1,1,-1,0,1,1
1480690444929186,-1,1,-1,0,-1,0,-2,0
1480690444942721,-2,1,0,-6,-4,0,0,0
1480690444942721,-3,-3,1,1,-2,-1,1,-1
1480690444944226,1,0,-3,-2,-2,-1,-1,0
1480690444944226,-1,-2,0,-1,-1,0,0,-2
1480690444957762,-2,-1,1,1,1,0,-1,-1
1480690444957762,-1,-2,1,-1,-1,-2,-1,-2
1480690444959266,1,-2,-1,1,1,-1,-1,-2
1480690444959266,0,0,0,0,-3,-3,-2,-1
1480690444980322,0,-1,0,1,1,0,-1,1
1480690444980322,-1,-2,-2,-1,0,0,0,-1
1480690444981826,1,0,1,1,-1,0,1,2
1480690444981826,1,-1,-2,0,-1,-2,0,-1
1480690445001879,1,1,0,0,1,1,-1,-3
1480690445001879,-1,-4,1,2,0,0,-1,1
1480690445010903,-1,0,-3,-9,-3,0,-1,-1
1480690445010903,0,2,0,-1,1,0,0,1
1480690445017922,0,-2,0,0,0,-1,0,0
1480690445017922,-3,2,-3,-1,-1,-1,-1,0
1480690445031457,-1,1,0,1,2,0,0,0
1480690445031457,2,-1,-2,0,-2,-2,-1,0
1480690445040489,-1,1,-2,-1,-1,-1,-1,0
1480690445040489,1,-2,1,-3,-1,0,-1,-1
1480690445041985,-2,-2,0,-1,-1,-1,0,1
1480690445041985,-1,-2,-1,-2,0,-1,-1,1
1480690445063041,2,2,1,0,-1,-3,-2,-1
1480690445063041,0,-2,-2,1,0,0,0,-1
1480690445064546,-2,0,0,1,-1,0,0,-2
1480690445064546,-1,-4,0,1,-2,1,-1,-2
1480690445077079,-1,-3,-1,-1,-1,0,-1,0
1480690445077079,0,4,-4,-2,-3,-1,-2,1
1480690445084098,-2,-1,1,2,1,2,-1,-2
1480690445084098,0,3,-2,-1,0,-2,-1,-1
1480690445115180,0,-1,-1,1,0,-1,0,-1
1480690445115180,1,2,-2,-4,-1,-2,0,-2
1480690445117186,2,-1,-2,-2,0,-1,0,0
1480690445117186,2,0,-1,-2,0,-3,-1,-1
1480690445122702,-2,0,-2,4,2,1,0,-1
1480690445122702,0,-1,0,-1,-2,1,1,-1
1480690445124204,0,-1,0,-2,0,-1,-2,0
1480690445124204,-2,-1,1,-1,1,1,1,0
1480690445137741,0,-1,1,1,1,-2,-2,-1
1480690445137741,1,-2,0,-1,1,-2,0,1
1480690445145261,-1,-2,0,2,-1,-1,-2,-1
1480690445145261,0,-1,0,1,-1,0,0,-1
1480690445160300,-2,-3,-2,0,-2,-1,0,0
1480690445160300,1,5,1,-3,-1,0,1,0
1480690445163810,-1,2,0,-1,-2,0,0,-1
1480690445163810,1,-1,-1,-1,-1,-2,0,0
1480690445190381,-1,-1,-1,-3,0,0,-2,-2
1480690445190381,-4,-4,1,-1,-1,-1,-3,-2
1480690445191884,1,0,-5,-2,0,-1,-2,0
1480690445191884,-1,-2,0,-1,1,0,1,0
1480690445196898,0,0,0,1,-1,0,1,0
1480690445196898,-2,-3,1,-5,0,0,1,0
1480690445203921,-1,-2,1,2,0,0,0,-1
1480690445203921,0,-2,-1,-1,0,0,1,-1
1480690445227479,1,1,-2,-2,-2,1,0,2
1480690445227479,-1,-2,0,1,0,0,-1,0
1480690445229485,-3,-2,1,0,0,0,0,0
1480690445229485,-2,0,-1,-1,0,1,0,-1
1480690445259062,-1,-1,-1,-1,-4,-2,0,0
1480690445259062,-2,0,1,2,2,0,-1,0
1480690445260567,-2,-1,1,1,-1,1,1,-1
1480690445260567,0,2,0,0,-2,-1,-3,-2
1480690445261569,-1,0,0,-1,-1,-2,-1,-2
1480690445261569,-1,-3,0,1,0,-3,-1,-1
1480690445265580,-1,-1,-1,-1,-2,-1,0,-1
1480690445265580,-2,-2,-1,-4,-1,-1,-1,-1
1480690445288144,-2,-2,0,-1,0,1,-2,-1
1480690445288144,1,-2,-1,0,-1,0,0,0
1480690445289143,0,-1,-1,0,0,-3,-3,0
1480690445289143,-1,0,-2,-1,0,2,1,-2
1480690445310199,1,-3,-2,0,0,1,0,-1
1480690445310199,0,-2,1,-1,-1,-2,-1,0
1480690445312204,2,-1,1,0,1,-1,-1,-1
1480690445312204,-1,0,-2,0,-2,-2,-2,0
1480690445317218,1,1,2,2,0,-2,0,1
1480690445317218,-2,-1,1,-2,-2,0,0,0
1480690445323734,-2,-1,-2,-2,0,1,0,0
1480690445323734,-1,0,0,-2,0,-2,1,0
1480690445340279,-3,-4,0,-1,-1,-3,-2,-1
1480690445340279,-1,0,2,1,-2,-1,-1,0
1480690445341784,1,1,1,-1,0,0,0,-2
1480690445341784,-2,-1,1,0,-3,-1,0,-1
1480690445370360,0,1,-4,-2,-3,-1,0,1
1480690445370360,-2,1,-1,0,1,0,0,1
1480690445371865,-4,-2,-2,0,1,0,0,1
1480690445371865,-1,-3,0,0,-1,0,-1,-1
1480690445376875,-2,-2,0,0,2,0,0,-2
1480690445376875,0,-1,-3,0,-1,0,-2,1
1480690445391415,1,0,0,-1,-1,0,-2,0
1480690445391415,1,-1,1,4,1,-1,0,-1
1480690445401441,1,1,0,-4,-1,-2,0,1
1480690445401441,0,0,-1,-2,0,-2,0,-4
1480690445402946,0,-1,-1,-2,-2,-1,0,1
1480690445402946,0,4,-5,0,0,-1,-1,1
1480690445423501,-2,-3,-2,0,0,0,0,-1
1480690445423501,0,2,-1,0,-3,-1,1,-3
1480690445425004,-1,-1,-2,-1,-1,-4,-2,-2
1480690445425004,0,-2,-1,-1,-2,-1,-1,-2
1480690445436537,-1,-2,1,0,0,0,0,-2
1480690445436537,0,1,0,-2,-1,-1,0,1
1480690445445559,-2,-2,0,-2,-2,-1,0,1
1480690445445559,-1,-1,0,0,-1,-2,-1,0
1480690445460599,-2,-2,1,2,2,1,0,1
1480690445460599,2,0,0,4,-1,-1,-3,-2
1480690445462103,0,-1,-1,-4,-1,1,0,-2
1480690445462103,0,-4,1,-1,-1,-1,0,0
1480690445482658,-2,2,-1,-1,-2,-2,-1,-2
1480690445482658,-1,0,-2,-1,0,-1,1,-1
1480690445484162,0,3,-2,1,3,0,0,-1
1480690445484162,-1,-3,0,-2,-1,0,-1,1
1480690445497697,-1,1,0,-2,0,2,1,-1
1480690445497697,4,0,-4,-4,-2,-2,-1,1
1480690445505221,1,-1,-3,-2,0,-2,0,-2
1480690445505221,-1,-1,2,0,0,0,-1,-1
1480690445535298,-1,1,2,0,1,2,1,-1
1480690445535298,-3,-1,-2,0,2,1,0,-2
1480690445536802,1,0,1,2,0,0,-1,1
1480690445536802,0,1,0,-1,-1,-2,-2,0
1480690445542817,1,1,-2,0,-1,-1,-2,-1
1480690445542817,-3,-3,1,0,-1,0,-1,1
1480690445544321,-3,-4,1,0,0,0,1,-1
1480690445544321,-1,-2,-2,-2,-1,-1,-1,0
1480690445557357,2,0,-2,-1,-1,-4,-4,0
1480690445557357,0,0,-2,-2,0,-1,0,-1
1480690445565377,-1,-1,0,0,-1,-1,0,-2
1480690445565377,0,1,-2,-2,0,-1,1,-2
1480690445580417,-2,-11,6,4,1,1,1,0
1480690445580417,1,-2,-3,-6,-1,-1,-1,-1
1480690445581921,2,-1,-3,-2,-4,-2,-1,-1
1480690445581921,-5,-5,1,4,3,4,1,-2
1480690445602979,2,4,-2,-1,-1,-3,0,0
1480690445602979,1,-1,-2,1,0,0,0,-1
1480690445604486,0,-1,-2,0,0,0,0,0
1480690445604486,1,0,-1,-3,1,3,0,-2
1480690445616517,-2,0,-1,-2,-1,-3,-2,0
1480690445616517,-1,-2,1,3,-1,1,2,-1
1480690445625538,-2,2,-1,1,-1,-1,-1,0
1480690445625538,0,-3,-1,1,-1,0,-2,-3
1480690445640076,-1,-1,-4,-1,-1,0,1,-1
1480690445640076,0,0,1,-1,-1,-1,0,1
1480690445642081,-1,-2,3,0,-1,0,-2,2
1480690445642081,0,0,-1,-2,-1,-2,-1,1
1480690445662636,-1,1,-1,3,0,-1,-2,-2
1480690445662636,0,0,-2,-6,-2,-3,-3,-2
1480690445664641,1,-5,1,1,3,1,0,-1
1480690445664641,-1,-1,0,0,-2,-1,0,-1
1480690445676172,2,0,-3,-3,-1,0,-1,0
1480690445676172,-3,-2,0,2,1,0,-2,-2
1480690445685196,-2,1,-2,0,-1,-1,-2,-2
1480690445685196,4,2,-2,-1,-1,-4,0,1
1480690445700237,-2,-1,-2,-2,0,1,1,-2
1480690445700237,-2,-1,0,1,-1,-2,0,1
1480690445701740,0,-1,-1,0,-2,0,0,1
1480690445701740,1,-1,-1,0,-2,0,0,0
1480690445722797,0,-1,2,-2,-4,-1,0,-1
1480690445722797,3,0,-1,-1,-1,-2,-1,-1
1480690445724300,-1,-2,-1,-1,2,2,1,0
1480690445724300,-1,4,-3,1,-1,-2,2,-1
1480690445736332,-1,-2,0,-6,0,0,-1,1
1480690445736332,-1,-1,1,-1,-2,0,-2,1
1480690445752876,2,1,0,1,-1,-2,-2,0
1480690445752876,-3,-7,3,1,1,1,0,0
1480690445760396,-1,0,1,1,0,-2,1,-1
1480690445760396,-2,0,0,1,2,0,0,-1
1480690445762903,-2,-1,0,-2,1,-2,0,0
1480690445762903,-1,-2,-1,-2,1,-1,-2,0
1480690445783459,3,5,-5,-2,-1,-2,0,-1
1480690445783459,-4,-1,0,1,1,2,-1,-3
1480690445784961,0,0,-3,-2,-2,-2,-2,-1
1480690445784961,-1,2,-1,0,-3,-2,-1,0
1480690445796493,-1,-2,-1,-7,-4,0,-2,1
1480690445796493,2,0,0,1,0,-1,0,1
1480690445811532,-3,-2,0,2,1,-2,-1,-2
1480690445811532,0,0,0,1,-1,0,1,0
1480690445820056,0,-1,2,3,4,-2,-1,-1
1480690445820056,-1,-3,0,-1,-1,0,-1,-1
1480690445822060,-2,-2,4,0,0,-2,-1,-2
1480690445822060,-1,0,-1,-1,0,-1,-1,-1
1480690445842614,-3,-1,0,3,0,-1,0,0
1480690445842614,-1,-3,1,1,0,0,-1,-1
1480690445846124,0,3,-5,0,-2,-1,-1,0
1480690445846124,-1,-2,0,0,2,0,0,-1
1480690445865175,-5,0,1,0,2,2,0,-1
1480690445865175,0,-1,-1,-1,-1,0,1,0
1480690445866679,0,-1,-1,2,0,1,-1,-1
1480690445866679,1,0,-1,-5,-3,-3,-2,-2
1480690445880215,0,-2,-1,1,-2,2,1,0
1480690445880215,0,-1,-2,0,1,0,1,1
1480690445881719,-1,0,0,0,0,0,2,-1
1480690445881719,0,2,-1,0,0,1,-1,0
1480690445902776,0,0,0,2,-2,-1,-2,0
1480690445902776,0,1,2,0,1,0,-1,1
1480690445904280,0,-4,-1,-2,-1,-1,-1,2
1480690445904280,1,-1,0,-1,2,0,-1,-1
1480690445925335,2,-3,-2,-3,-1,0,1,-2
1480690445925335,1,-1,-3,-3,-2,-3,-1,-1
1480690445926839,0,-1,-1,-2,-2,1,-1,-2
1480690445926839,-1,-1,0,1,-2,-1,1,-1
1480690445940374,-1,2,-5,0,1,-1,0,1
1480690445940374,0,0,-1,-1,-1,-2,0,0
1480690445941879,-1,0,1,-2,-1,-2,0,1
1480690445941879,-3,-6,3,1,2,3,-1,0
1480690445962934,-2,0,1,-1,-1,1,-2,0
1480690445962934,-1,-1,-2,3,-2,-1,-3,0
1480690445964439,0,-2,-1,-4,-1,-1,-2,-1
1480690445964439,-2,2,0,1,0,0,0,-2
1480690445984994,-1,-1,-1,1,-2,-1,-1,-1
1480690445984994,-1,1,1,1,0,1,0,-1
1480690445986999,-2,-1,0,-1,-2,0,0,-1
1480690445986999,-2,-2,2,1,2,1,1,-1
1480690445999532,1,-1,0,-2,-1,-3,-2,0
1480690445999532,-3,-2,-1,-1,1,2,0,-2
1480690446006550,0,-2,0,0,0,-2,-1,0
1480690446006550,1,0,-2,-2,-1,-2,0,-1
1480690446038137,1,-3,0,0,0,1,-2,0
1480690446038137,-1,1,0,-3,0,-1,0,-1
1480690446039639,0,4,-2,-1,-2,0,-2,0
1480690446039639,1,0,-2,-1,-2,-2,-2,0
1480690446061697,-1,-2,0,1,0,-3,1,-1
1480690446061697,0,-1,-2,-2,-2,-2,0,0
1480690446063202,-1,-3,0,0,-1,-1,1,-1
1480690446063202,-1,0,-1,0,1,1,-1,0
1480690446064204,0,-1,0,0,2,1,1,-1
1480690446064204,-1,-2,-2,1,-1,0,1,0
1480690446067714,-1,-1,-2,1,0,-1,0,0
1480690446067714,-1,-3,-4,0,-5,-5,-2,1
1480690446081750,-4,-5,1,1,2,1,-1,-3
1480690446081750,0,-1,0,1,2,2,1,-1
1480690446090273,1,0,0,-1,0,-2,-1,1
1480690446090273,1,0,-2,-2,-2,-3,-1,-2
1480690446105315,-3,-2,2,1,1,0,-1,-1
1480690446105315,0,0,1,-1,-2,-3,-1,1
1480690446106818,-1,-7,0,0,-1,1,1,-2
1480690446106818,-2,-1,-2,0,0,2,-1,-1
1480690446119853,0,1,-1,0,-3,-3,-1,1
1480690446119853,0,1,0,0,-4,0,-2,-1
1480690446126370,1,4,0,0,0,0,-2,1
1480690446126370,-1,1,3,1,3,0,2,0
1480690446142913,0,0,0,-2,0,-1,1,-2
1480690446142913,-2,-2,-2,-1,2,0,2,-1
1480690446144418,1,1,-3,-2,-3,-2,-2,1
1480690446144418,-2,-1,-1,-3,0,-1,-2,0
1480690446165975,1,-1,-1,1,0,1,-2,1
1480690446165975,-3,-1,0,0,-1,-1,-1,-2
1480690446171493,-1,1,1,0,-1,-3,-1,0
1480690446171493,1,1,1,0,0,1,-2,0
1480690446179511,1,-1,-2,-2,-2,0,0,1
1480690446179511,-3,-1,2,0,1,2,-2,-2
1480690446186530,-1,-1,2,1,-1,0,0,0
1480690446186530,0,2,-4,-2,-3,-2,-1,-2
1480690446202573,-1,-2,1,0,0,0,2,0
1480690446202573,-1,0,2,2,-2,-1,0,-3
1480690446204581,-2,1,-4,-7,-2,-2,1,0
1480690446204581,-1,-1,-1,0,-2,-1,2,0
1480690446225132,1,0,-1,-1,0,-2,-2,0
1480690446225132,1,0,-1,-2,0,-1,-1,1
1480690446226635,3,-3,-1,2,0,1,-1,-3
1480690446226635,-2,-4,1,0,0,1,1,-1
1480690446247692,-5,0,0,-1,-3,0,0,-1
1480690446247692,0,-3,0,-3,-1,-3,0,-1
1480690446249197,-1,-1,0,1,2,0,0,-1
1480690446249197,0,-1,-1,-1,-1,0,-1,0
1480690446262731,1,-2,-2,0,-1,1,-4,1
1480690446262731,0,0,-2,0,-1,-1,-1,-1
1480690446265238,0,0,-1,1,-1,1,0,-2
1480690446265238,0,-1,-1,1,-1,-2,-2,1
1480690446285294,0,1,1,-1,0,-1,0,0
1480690446285294,1,-2,0,0,0,-1,0,3
1480690446287798,-1,1,-2,0,0,-2,1,-2
1480690446287798,0,0,3,1,-1,-1,-2,-1
1480690446315373,-1,0,-1,-2,-2,-1,-1,0
1480690446315373,-1,-1,-3,0,1,0,-1,-2
