timestamp,x,y,z
1480690430139803,-0.3125,0.1875,-0.3125
1480690430144817,-0.25,0.0625,0.0625
1480690430161361,0.625,0.1875,0.0625
1480690430183921,0.375,0.125,-0.0625
1480690430204480,-0.5,0.0625,-0.125
1480690430221019,-0.5,0.1875,0.0625
1480690430244081,0,0.0625,0.3125
1480690430272156,-0.125,0.1875,-0.1875
1480690430288702,-0.3125,0.0625,-0.3125
1480690430303740,-0.4375,-0.0625,-0.0625
1480690430326298,-0.5,-0.1875,0.25
1480690430341339,0,0.125,0.375
1480690430363900,0.6875,-0.0625,0.1875
1480690430384954,0.5,0.25,0.25
1480690430415034,-0.125,0.3125,0.1875
1480690430429573,-0.8125,0.125,0.4375
1480690430446117,-0.25,-0.0625,0.125
1480690430461157,-0.6875,0.125,0.0625
1480690430483717,-0.125,0.0625,-0.3125
1480690430505275,-0.625,0,-0.0625
1480690430527337,-0.8125,0.0625,0.125
1480690430543878,-1.25,0,0.1875
1480690430564933,-0.4375,0.0625,-0.3125
1480690430580976,-0.125,0.0625,-0.4375
1480690430619580,-0.5625,0.0625,0.3125
1480690430624592,-1.0625,0,0.5625
1480690430647152,-0.0625,0.0625,0.1875
1480690430663711,-0.375,-0.125,0
1480690430686257,-0.6875,0,0.375
1480690430701296,-0.6875,0.3125,0.8125
1480690430730373,1.1875,0.3125,0.0625
1480690430745915,-0.125,-0.375,-0.3125
1480690430774491,-1.3125,-0.25,0.1875
1480690430783516,0.5,0.125,0.125
1480690430806075,0.5625,0.125,0
1480690430827632,0.0625,-0.1875,-0.625
1480690430844176,-0.8125,-0.125,0.1875
1480690430866235,0.1875,0.1875,0.0625
1480690430887292,0.4375,-0.0625,-0.75
1480690430909851,-0.875,-0.3125,-0.0625
1480690430925893,-0.125,-1.125,-0.25
1480690430940433,-0.25,-0.0625,-0.6875
1480690430963494,-0.25,-0.625,0.25
1480690430994575,1.75,0.25,-0.5
1480690431000593,1.1875,-0.5625,-0.625
1480690431023654,-1.8125,-0.5625,0.125
1480690431046715,-0.375,-0.4375,-0.4375
1480690431060251,1.4375,0,-0.25
1480690431083814,1.75,-0.1875,-1
1480690431106486,-0.875,-0.5625,0.0625
1480690431128432,0.125,0.0625,-0.1875
1480690431144475,0.875,-0.375,-0.5
1480690431166032,0.625,-0.25,-0.3125
1480690431188593,0.375,-0.25,-0.25
1480690431205135,0.5,-0.0625,-0.4375
1480690431233713,0.5625,0.0625,-0.1875
1480690431247248,-0.625,0,0.25
1480690431271312,0.25,-0.25,-0.8125
1480690431293871,0.625,0.25,-0.375
1480690431306906,1.0625,-0.3125,-0.0625
1480690431330971,0.8125,-0.4375,-0.4375
1480690431347514,-0.8125,-0.375,-0.25
1480690431368070,-0.3125,-0.1875,-0.375
1480690431385114,1,-0.1875,-0.5625
1480690431413691,1.0625,0.125,-0.375
1480690431434747,-0.3125,-0.25,-0.0625
1480690431444773,0.125,0,0
1480690431466330,0.625,-0.0625,-0.25
1480690431487387,0.5,0,0.375
1480690431503933,1.5625,0.125,0
1480690431527493,0,-0.25,0.125
1480690431548550,-0.25,0.1875,-0.25
1480690431564090,0.8125,-1.25,-0.5625
1480690431586651,1.875,0.125,0.5
1480690431608709,0.5625,2.0625,0.875
1480690431623749,3.0625,-1.5,-1.4375
1480690431646309,-6.0625,-2.25,-0.3125
1480690431668369,-0.5,-0.125,0.5
1480690431683909,6.0625,1.5,0.25
1480690431706469,4.625,1.25,-0.875
1480690431736048,-2.875,-1.6875,-0.75
1480690431744571,-5.75,-0.75,1
1480690431766128,1.25,0.25,1.25
1480690431803730,6,0.625,-1.1875
1480690431805733,0.9375,-0.875,-0.5
1480690431826789,-1.3125,0.0625,-0.0625
1480690431856368,0.6875,-0.375,0.125
1480690431879429,-1.125,0.0625,0.1875
1480690431887454,1.3125,0.0625,-0.5
1480690431908507,1.1875,0.125,-0.1875
1480690431923045,1.875,-0.625,-0.25
1480690431946106,-0.5625,-0.375,-0.4375
1480690431968666,0.125,0,-0.1875
1480690431983210,1.375,0.125,0.125
1480690432006271,1.6875,-0.25,-0.1875
1480690432028832,-0.6875,-0.5,-0.0625
1480690432042869,0.1875,0.0625,0.0625
1480690432080970,2.125,0.125,-0.0625
1480690432103531,1.125,-0.1875,-0.25
1480690432134110,-1.3125,-0.25,-0.0625
1480690432136621,0,0.125,-0.0625
1480690432162686,1.75,-0.25,0.125
1480690432169705,1.6875,-0.4375,-0.375
1480690432186251,0.3125,-0.375,-0.5625
1480690432218336,-0.375,-0.25,-0.125
1480690432230869,-0.4375,-0.3125,0
1480690432246410,-0.375,-0.375,-0.4375
1480690432269472,0.8125,-0.125,-0.375
1480690432289524,1.0625,0.0625,0.1875
1480690432306068,1.1875,-0.0625,-0.0625
1480690432330633,-0.375,-0.1875,-0.5
1480690432358722,-0.875,0,-0.3125
1480690432372244,-0.1875,-0.0625,0.0625
1480690432388788,0.5,-0.125,0.125
1480690432411349,0.5,0.0625,-0.125
1480690432442432,0.6875,0,-0.0625
1480690432448948,1.5625,0.1875,0.1875
1480690432469503,0.1875,-0.125,0.1875
1480690432486047,-1.625,-0.125,-0.25
1480690432508607,-0.875,0.25,-0.5625
1480690432538688,0.625,0.125,0
1480690432546207,0.9375,0.0625,0
1480690432568767,-0.6875,0.125,-0.4375
1480690432591828,-1.0625,0.125,-0.375
1480690432627424,0.3125,0.125,0.1875
1480690432636449,0.1875,0,0.0625
1480690432658505,-0.0625,0.0625,-0.5
1480690432666026,-0.25,0.0625,-0.5
1480690432688585,0.5625,0.0625,-0.25
1480690432711146,0,0,0
1480690432725183,-0.75,-0.25,-0.1875
1480690432748745,0.3125,0,-0.375
1480690432771306,1.6875,0,-0.1875
1480690432785343,0.875,-0.125,0
1480690432808404,-0.375,-0.0625,-0.3125
1480690432830965,-1.125,-0.0625,-0.25
1480690432845503,0.625,-0.1875,-0.1875
1480690432869569,0.375,-0.25,-0.5
1480690432897641,0.4375,-0.0625,-0.6875
1480690432913684,0.1875,-0.1875,-0.0625
1480690432936244,0.375,0,-0.0625
1480690432968329,0,0.125,-0.0625
1480690432971839,-0.5,0.0625,-0.125
1480690432997407,1.125,0.125,-0.0625
1480690433010942,0.875,-0.0625,-0.0625
1480690433033502,0,-0.1875,-0.25
1480690433049545,-0.875,-0.4375,-0.1875
1480690433071103,-0.375,-0.3125,-0.25
1480690433092661,0.5,-0.125,-0.375
1480690433108702,0.5,-0.1875,-0.5
1480690433131263,0,-0.0625,-0.375
1480690433159838,0.125,-0.0625,0.0625
1480690433193428,-0.375,-0.25,-0.125
1480690433197942,-0.3125,-0.1875,-0.3125
1480690433215487,-0.125,0.0625,0.3125
1480690433228521,0.375,-0.0625,0
1480690433251081,0.25,0.0625,-0.3125
1480690433272137,0.1875,-0.125,-0.3125
1480690433288681,0.5,-0.1875,-0.0625
1480690433311241,0.125,-0.125,-0.25
1480690433332297,0.0625,-0.25,-0.625
1480690433355872,0.1875,-0.375,-0.1875
1480690433371401,0.625,-0.3125,-0.0625
1480690433391956,0.75,-0.125,-0.125
1480690433408513,0.5625,0,-0.125
1480690433438581,0.25,-0.125,0.1875
1480690433470165,-0.25,-0.125,-0.0625
1480690433491721,0.3125,-0.1875,0
1480690433495230,0.5,-0.3125,0.125
1480690433521300,0.9375,0,-0.125
1480690433538345,1.0625,-0.125,-0.1875
1480690433550879,0.25,-0.0625,0
1480690433573438,0,-0.125,-0.0625
1480690433588478,-0.3125,-0.25,-0.0625
1480690433611038,0.6875,-0.125,-0.1875
1480690433633600,1.25,-0.0625,-0.0625
1480690433648137,0.625,0,0
1480690433686740,-0.125,0.0625,0
1480690433688244,-0.3125,0.0625,-0.1875
1480690433699775,-0.125,0.0625,-0.1875
1480690433715316,-0.5,-0.125,-0.3125
1480690433745396,0.0625,0,-0.25
1480690433758931,0.125,-0.125,-0.0625
1480690433781492,0.125,-0.0625,-0.125
1480690433796532,0.625,0.0625,0
1480690433822099,0.3125,-0.125,-0.0625
1480690433835636,0.75,0.125,-0.3125
1480690433856691,0.875,-0.125,-0.0625
1480690433879253,0.5,-0.25,0.375
1480690433898803,0.125,-0.1875,-0.5
1480690433916350,-0.3125,-0.125,-0.6875
1480690433938911,0,-0.25,-0.5625
1480690433964479,0.5625,-0.25,-0.1875
1480690433976511,0.25,-0.0625,-0.5625
1480690434016117,0.8125,-0.125,-0.4375
1480690434019627,1.125,-0.3125,0
1480690434036676,0.5625,-0.1875,-0.5
1480690434059232,0.625,-0.1875,-0.625
1480690434075273,0.3125,-0.3125,0.125
1480690434096328,0.875,-0.25,-0.25
1480690434118890,0.9375,-0.125,-0.4375
1480690434136938,1.1875,-0.1875,-0.5
1480690434156489,2.0625,-0.1875,-0.1875
1480690434179049,1.0625,-0.25,-0.25
1480690434211635,0.125,-0.25,-0.5
1480690434216649,0.375,-0.3125,-0.375
1480690434239209,0.8125,-0.1875,-0.3125
1480690434261267,2.1875,-0.125,-0.5
1480690434276307,1.6875,-0.0625,-0.4375
1480690434301876,0.9375,-0.25,-0.625
1480690434316916,0.6875,-0.25,-0.3125
1480690434336468,0.3125,-0.25,-0.25
1480690434359027,0.4375,-0.125,-0.5
1480690434381588,1,-0.125,-0.75
1480690434396627,2.125,-0.25,-0.5
1480690434426707,1.5625,-0.375,-0.125
1480690434441246,0.625,-0.375,-0.4375
1480690434463806,0.6875,-0.375,-0.6875
1480690434486366,1.375,-0.1875,-0.5625
1480690434509427,1.4375,-0.125,-0.5
1480690434519455,0.125,-0.1875,-0.25
1480690434549534,-0.25,-0.25,-0.4375
1480690434571593,0.0625,-0.1875,-0.5625
1480690434578110,0.875,0,-0.5
1480690434599167,0.375,-0.1875,-0.1875
1480690434621732,0.75,-0.1875,0
1480690434643784,1.0625,-0.375,-0.375
1480690434658824,1.25,-0.3125,-0.6875
1480690434681384,1.75,-0.3125,-0.5
1480690434696424,1,-0.25,-0.0625
1480690434735529,0.4375,-0.3125,-0.25
1480690434741546,-0.4375,-0.3125,-0.375
1480690434765609,0.375,-0.25,-0.4375
1480690434795187,0.3125,-0.3125,0.0625
1480690434801704,-0.375,-0.125,-0.1875
1480690434823763,-0.375,0.125,-0.25
1480690434841811,0.1875,0.0625,0
1480690434861369,-0.1875,0.125,0.1875
1480690434879912,-0.875,0.1875,0
1480690434898963,-0.9375,0.125,-0.0625
1480690434921523,0.0625,-0.0625,0.0625
1480690434936563,0.125,0,-0.125
1480690434960126,-0.4375,0.125,-0.125
1480690434990206,-0.125,0.0625,0.25
1480690434996222,-0.25,0.125,0.375
1480690435023795,-0.125,0.125,0.125
1480690435044350,-0.0625,0.125,-0.0625
1480690435072926,-0.625,0.125,-0.1875
1480690435079443,-0.75,0,0.125
1480690435104587,-0.8125,-0.125,0.25
1480690435120052,0.125,-0.0625,-0.125
1480690435139102,1.125,0.125,-0.1875
1480690435161661,0.8125,0,0
1480690435179709,-0.125,0.0625,0
1480690435202773,-1.0625,0.0625,0.3125
1480690435221320,-0.625,0,0.4375
1480690435237864,0.6875,0.125,0
1480690435269449,1.1875,0.25,-0.0625
1480690435281481,0.875,0.0625,0.3125
1480690435298024,-0.875,0.0625,0.125
1480690435322089,-0.875,0.125,-0.1875
1480690435341640,0.4375,-0.0625,0.125
1480690435373726,0.5625,-0.0625,0.125
1480690435380244,0.375,0,-0.5
1480690435401298,0,0,-0.125
1480690435425363,-0.75,-0.25,0.1875
1480690435438900,-0.8125,0.125,-0.125
1480690435461458,0.125,0.0625,0.125
1480690435479508,0.375,0,0.3125
1480690435499058,1.125,0.1875,0.0625
1480690435529138,0.5625,0.0625,0.3125
1480690435544179,0.0625,0.125,0.3125
1480690435578270,0.375,0.0625,0.3125
1480690435583784,-0.5625,-0.25,0.25
1480690435600329,0.0625,-0.25,-0.375
1480690435618878,0.25,-0.25,-0.4375
1480690435642942,0.1875,-0.25,-0.4375
1480690435659487,0.125,-0.0625,-0.375
1480690435679037,-1.375,-0.0625,-0.25
1480690435701598,-0.8125,-0.25,-0.1875
1480690435724158,0.125,-0.1875,0
1480690435739197,0.4375,-0.25,-0.125
1480690435761276,0.0625,0.0625,-0.125
1480690435792840,-0.375,-0.0625,-0.0625
1480690435798856,0,-0.0625,0.0625
1480690435824424,0.6875,-0.1875,0.0625
1480690435839464,0.625,-0.0625,-0.3125
1480690435860520,0.5,-0.125,0
1480690435881576,0.1875,-0.25,0.25
1480690435907144,-0.0625,-0.125,-0.125
1480690435919176,0.25,0,-0.3125
1480690435941235,0.125,-0.125,0.25
1480690435963795,0.5,0.125,0.25
1480690435978835,0.625,0,0.0625
1480690436001395,0.0625,0,-0.1875
1480690436023955,-0.0625,0.125,-0.4375
1480690436049523,-0.375,0,0.0625
1480690436069075,-0.1875,-0.125,0.125
1480690436084115,0.125,-0.1875,-0.25
1480690436102165,0.9375,0.125,-0.25
1480690436130237,1.5,0,0.0625
1480690436144275,0.125,0.125,0.3125
1480690436160317,0.1875,0.125,0.25
1480690436181374,-0.75,-0.125,0.4375
1480690436203938,-0.1875,0.0625,-0.5625
1480690436220478,1.125,0.25,-0.5625
1480690436241534,0.875,-0.125,0.25
1480690436264093,0.3125,-0.0625,0.4375
1480690436280638,0.0625,0,0.375
1480690436301695,0.9375,0,0.6875
1480690436323751,2.125,0.25,0.8125
1480690436346314,2.5,0.3125,1
1480690436377896,1.75,0.1875,1.5625
1480690436400957,1.4375,0,2
1480690436403464,2.25,-0.3125,2.5
1480690436424519,2.5625,0.0625,2.3125
1480690436444072,1.9375,0,2.25
1480690436462120,0.75,-0.25,2.6875
1480690436482674,0.25,0.1875,3.375
1480690436505234,0.4375,0.0625,3.625
1480690436521778,-0.1875,0.1875,4.1875
1480690436541330,-0.6875,0.25,5.125
1480690436571410,-1,0.125,5.5625
1480690436605501,-1.625,0.3125,5.5625
1480690436617032,-1.3125,0.25,6.125
1480690436632586,-1.875,0.125,6.5
1480690436658141,-2.6875,0.5625,6.25
1480690436664157,-1.9375,1.375,6.5
1480690436684212,-0.875,1.8125,7.0625
1480690436701759,-2.125,2.4375,7.6875
1480690436721310,-3.75,2.8125,8.125
1480690436744872,-4.25,3.875,8.5625
1480690436761917,-5,4.3125,9.25
1480690436781469,-9.5,4.625,10.75
1480690436804030,-10.125,4.3125,11.8125
1480690436822077,-6.75,5,11.875
1480690436849149,-2.75,5.8125,11.4375
1480690436882237,-0.75,6,12.5
1480690436886251,-3.6875,5.3125,14.3125
1480690436904296,-7.5,4.4375,14.4375
1480690436931368,-9,5.375,13.8125
1480690436942397,-7.5,6.875,11.8125
1480690436962952,-4.3125,7.1875,10.6875
1480690436984008,-3.4375,5.9375,10.6875
1480690437002057,-4.6875,6.125,10.25
1480690437023112,-3.875,6,7.625
1480690437044168,-3.5625,5.875,6.25
1480690437064222,-5.3125,5.1875,5.1875
1480690437099314,-7.75,4.9375,3.625
1480690437104329,-9.75,5,2.625
1480690437129395,-8.8125,4.375,1.8125
1480690437148946,-8.125,3.1875,0.5
1480690437163987,-7.3125,3.4375,-1.75
1480690437183037,-4.75,3.75,-4.75
1480690437210610,-2.25,3,-6.5
1480690437231666,-4.6875,1.5,-6.75
1480690437242712,-6.375,0.0625,-6.75
1480690437262750,-6.0625,-1,-6.6875
1480690437284306,-5.5625,-1.1875,-6.25
1480690437301853,-4.0625,-1.5,-6.8125
1480690437324415,-3.125,-1.4375,-7.25
1480690437354995,-1.8125,-1.75,-7.1875
1480690437363015,-2.125,-2.125,-6.1875
1480690437384572,-2.125,-2.625,-5.375
1480690437404130,-1.5,-2.4375,-4.1875
1480690437426684,0.125,-1.4375,-3.6875
1480690437445234,3.4375,0.125,-3.5
1480690437463783,4.125,1,-2.3125
1480690437487851,1.125,1.375,-0.75
1480690437504391,-1.25,2.1875,0.25
1480690437523943,-3.9375,3,0.9375
1480690437546503,-6.1875,4.0625,1.875
1480690437566556,-6.0625,4.5,2.3125
1480690437584103,-5.875,4.9375,2.9375
1480690437606663,-8.4375,4.9375,3
1480690437624211,-10.3125,5.1875,3
1480690437645266,-11.25,4.0625,3.6875
1480690437666324,-12.6875,3.4375,4.25
1480690437686380,-11.1875,3.4375,4.125
1480690437703922,-10.5625,3.125,4.875
1480690437726482,-10.75,3.125,5.375
1480690437744530,-10.375,3.75,5.875
1480690437764084,-10.5625,4.1875,5.8125
1480690437786643,-10.8125,4.9375,6.4375
1480690437820733,-11.1875,5,6.75
1480690437825245,-10.4375,5.25,6.125
1480690437849309,-8.6875,5.375,5
1480690437877885,-8.375,4.9375,4.1875
1480690437883901,-7.875,4.25,3.25
1480690437906461,-8.375,3.6875,2.1875
1480690437924509,-8.1875,3.25,1.3125
1480690437947069,-7.5625,2.8125,1.1875
1480690437967123,-5.9375,2.5,1.3125
1480690437990183,-6.25,2.5,1.1875
1480690438005223,-4.375,2.75,0.75
1480690438043325,-3.1875,2.125,1.25
1480690438048338,-3.625,1,1.0625
1480690438074407,-3.5,0.875,-0.125
1480690438086442,-2.875,0.25,-0.5
1480690438104488,-2.875,-0.75,-0.25
1480690438127047,-1.6875,-1.0625,-0.625
1480690438154122,0.875,-1.1875,-0.5625
1480690438170163,1.9375,-1.5625,0.1875
1480690438187208,3.6875,-1.875,0.8125
1480690438206761,4.375,-1.4375,1.4375
1480690438227314,6.4375,-0.375,1.8125
1480690438245363,6.75,0.6875,2
1480690438269430,4.25,2.3125,2
1480690438288979,1.125,3.4375,1.625
1480690438307027,-3.1875,4.375,1.375
1480690438326579,-3.375,4.5625,0.0625
1480690438349138,-3.6875,4.375,-1.5
1480690438372701,-3.625,3.3125,-3.6875
1480690438393756,-2.75,2,-5.9375
1480690438404285,-2.625,0.3125,-7.25
1480690438431357,-2.25,-0.9375,-8
1480690438446396,-0.25,-1.3125,-8.6875
1480690438464445,1.5625,-1.8125,-7.875
1480690438487005,3.25,-2.6875,-5.8125
1480690438514076,5,-3.625,-4.375
1480690438524605,8.125,-4.0625,-4.3125
1480690438547666,10.625,-3.75,-3.125
1480690438566215,10.1875,-3.4375,-1.125
1480690438584263,9.125,-2.4375,0.4375
1480690438606824,7.5,-1.5,2
1480690438626375,5.25,-1.375,3.6875
1480690438644423,4.875,-1.375,4.6875
1480690438671496,6.125,-1.0625,4.625
1480690438686536,5.9375,-0.9375,3.8125
1480690438705085,5.375,-1.375,3.1875
1480690438727143,6.375,-1.625,1.875
1480690438746695,8.5,-2.0625,0.625
1480690438768755,7.25,-1.875,0.3125
1480690438789813,4.75,-1.9375,0.5625
1480690438806357,5.4375,-2,1.375
1480690438824402,9.125,-2,1.3125
1480690438846962,12.6875,-2.25,0.3125
1480690438868018,12.5,-2.5,0.9375
1480690438884562,8.5,-2.5625,2.375
1480690438907121,8.75,-3.375,3.75
1480690438928177,13.1875,-3,4.4375
1480690438956257,17.1875,-3.25,3.375
1480690438972797,14.125,-3.5,0.4375
1480690438989343,9.8125,-4.1875,-1.375
1480690439012903,7.625,-4.375,-0.6875
1480690439031452,7.125,-4.125,-0.3125
1480690439047996,7.4375,-3.5625,-0.8125
1480690439069052,9.375,-3.3125,-1.0625
1480690439087102,10.0625,-2.8125,-1.875
1480690439115676,9.375,-2.5,-3.625
1480690439129212,8.75,-3.0625,-5.25
1480690439152775,4.375,-4.5,-6.375
1480690439167815,1.75,-4.75,-7.9375
1480690439188871,2.125,-3.9375,-9.125
1480690439206923,3.625,-3.25,-9.3125
1480690439229480,3,-3.25,-8.875
1480690439249031,0.8125,-3.3125,-10
1480690439267079,1,-3.125,-11.625
1480690439290641,2.875,-3.3125,-12.8125
1480690439309193,3,-2.5625,-13.125
1480690439326737,3,-1.8125,-13.8125
1480690439349299,3.3125,-2,-13
1480690439368851,2.1875,-2.8125,-11.25
1480690439386898,0.5625,-3.4375,-10.3125
1480690439409959,-1,-3.0625,-10
1480690439429010,1.0625,-2.5,-9.375
1480690439448061,1.5,-1.3125,-8
1480690439469618,2.6875,-1.1875,-6.9375
1480690439489172,2.8125,-1.5,-5.1875
1480690439507222,3.125,-0.8125,-3.8125
1480690439529276,3.5625,0.125,-2.875
1480690439556353,3.25,0.3125,-1.75
1480690439571389,2.75,0.5,-0.8125
1480690439589436,2.6875,0.6875,-0.25
1480690439608987,1.4375,0.5625,-0.3125
1480690439627036,1.0625,0.875,-1.25
1480690439655612,2.6875,0.6875,-1.375
1480690439676667,3.1875,0.125,-0.8125
1480690439688202,1,-0.4375,-0.9375
1480690439709255,-0.4375,-0.375,-1.5
1480690439728807,1.75,-0.1875,-1.4375
1480690439747356,2.3125,-0.4375,-0.5
1480690439769917,1.0625,-0.75,0
1480690439790470,1.0625,-0.9375,0.1875
1480690439807018,1.625,-0.6875,0.5
1480690439834086,0.4375,-0.8125,1.0625
1480690439850630,-1.4375,-0.625,1
1480690439871687,-1.1875,0.125,1
1480690439898759,-1.3125,0.3125,1.8125
1480690439926833,-2.3125,0.4375,2.3125
1480690439928838,-2.25,0.4375,2.625
1480690439950399,-2.3125,0.4375,2.8125
1480690439970501,-2.5,0.5625,2.75
1480690439987044,-2.5,0.6875,3
1480690440009604,-3.5,0.25,3.3125
1480690440030158,-4.9375,0.25,3.3125
1480690440047705,-5.0625,0.3125,2.9375
1480690440070767,-3.9375,0.4375,3.125
1480690440090318,-3.75,0.5625,3.375
1480690440121903,-4.5,0.75,3.25
1480690440128419,-4.5625,0.6875,3.625
1480690440151983,-5,0.4375,3.6875
1480690440171535,-5.0625,0.1875,3.375
1480690440188581,-3.625,0.125,3.0625
1480690440211140,-1.625,-0.375,2.5
1480690440232195,-2,-0.9375,1.9375
1480690440262776,-2.625,-1.375,1.375
1480690440271300,-3,-1.6875,1.25
1480690440292356,-3.625,-1.5625,1.4375
1480690440314916,-3.0625,-1.25,1.625
1480690440330958,-1.5625,-0.875,1.875
1480690440352015,-2.8125,-0.25,1.4375
1480690440368559,-5,0.75,1
1480690440391619,-5,0.6875,1.0625
1480690440412175,-5.375,0.6875,1.125
1480690440428718,-6.375,1.3125,0.875
1480690440451279,-4.4375,1.375,-0.0625
1480690440472336,-5.1875,1.4375,-0.75
1480690440488377,-7,1.9375,-1.6875
1480690440510937,-4.0625,1.625,-2.5
1480690440531993,-2.375,1.0625,-2.0625
1480690440549038,-3.0625,0.875,-2.1875
1480690440571098,-3.375,1.3125,-3.0625
1480690440592153,-2.25,1.375,-3.5625
1480690440616217,-2.25,0.875,-2.8125
1480690440632775,-2.25,0.625,-2.6875
1480690440652313,-1.75,0.875,-2.25
1480690440668858,-1,0.5,-1.6875
1480690440692419,-1,0.25,-0.9375
1480690440712473,-0.625,0.125,-0.625
1480690440728515,-0.5,0.375,-0.5
1480690440751075,-0.4375,0.125,-0.125
1480690440772132,-0.0625,-0.3125,0.4375
1480690440788676,0.5,-0.5,0.8125
1480690440818756,0.5625,-0.1875,0.9375
1480690440832292,0.75,0.125,0.8125
1480690440848334,0.9375,0.25,0.5625
1480690440870898,0.5625,0.4375,0.375
1480690440891950,-1,0.8125,0.6875
1480690440908494,-1,1.0625,1.0625
1480690440931055,-0.75,1.0625,1.4375
1480690440952110,-0.875,1.25,1.125
1480690440983694,-1.8125,1.75,0.6875
1480690440991214,-1.4375,1.5,0.875
1480690441012270,-2.6875,0.6875,2
1480690441029318,-3.6875,0.125,2
1480690441050873,-2.6875,0.4375,0.875
1480690441071931,-0.5,0.3125,0
1480690441094488,-0.375,-0.0625,-0.1875
1480690441111033,-1.5,-0.5625,-0.4375
1480690441133592,-2.8125,-0.9375,-0.125
1480690441148633,-2.75,-1.125,-0.625
1480690441171193,-1.1875,-0.625,-1.0625
1480690441194755,0,-0.5,-0.6875
1480690441208793,-0.8125,-0.4375,0.3125
1480690441231853,-0.4375,0.125,0
1480690441260930,-1.25,0.25,0.5625
1480690441267951,-2.125,0.25,1
1480690441291011,-1,0.5625,0.375
1480690441313572,-0.125,0.6875,0.5
1480690441328110,-0.5,0.1875,0.8125
1480690441351171,-1.3125,0.0625,0.6875
1480690441373732,-1.5,0,0.375
1480690441394787,-0.9375,-0.0625,0
1480690441410831,0.5625,0.125,0.0625
1480690441433893,0,0,0.6875
1480690441448430,-0.875,0.125,1
1480690441470990,-0.3125,0.1875,1.1875
1480690441507087,0.1875,0.375,1.3125
1480690441517614,0.75,0.5625,0.8125
1480690441538678,-0.5,0.625,0.25
1480690441569754,-1.125,0.25,-0.0625
1480690441574767,-1.6875,0,0.1875
1480690441590808,-0.875,-0.0625,-0.25
1480690441614371,0.125,-0.3125,-0.625
1480690441634926,1.375,-0.3125,-0.8125
1480690441650969,2.6875,-0.5,-1.0625
1480690441673528,2.625,-0.75,-0.8125
1480690441694584,1.75,-0.875,-0.8125
1480690441711129,1.8125,-1,-1.125
1480690441733688,2.1875,-1.0625,-0.9375
1480690441754749,2.5625,-0.875,-0.75
1480690441771289,2.625,-0.6875,-1
1480690441793347,2.1875,-0.25,-1.1875
1480690441815907,1.9375,-0.1875,-0.625
1480690441845987,1.375,-0.4375,0.125
1480690441853507,0.6875,-0.375,0
1480690441875065,1.875,-0.3125,-0.875
1480690441891107,2.1875,-0.5625,-1.0625
1480690441913667,1.1875,-1.125,-0.9375
1480690441934723,-0.75,-1.75,-0.9375
1480690441957282,-2.5,-2.4375,-1.0625
1480690441973829,-1.25,-2.75,-1
1480690441994382,1.5625,-3.25,0.25
1480690442010925,1.875,-3.0625,1.4375
1480690442033485,3.4375,-2.5,3.1875
1480690442072595,7.6875,-2.875,6.1875
1480690442077101,8.8125,-2.6875,6.875
1480690442095150,7.4375,-2.1875,6.125
1480690442125229,5.9375,-1.8125,4.8125
1480690442144781,5.25,-1.8125,4.0625
1480690442153807,4.5,-1.75,3.125
1480690442175864,2.3125,-1.75,1.9375
1480690442190403,1.625,-1.375,1
1480690442214467,2.375,-0.8125,0.375
1480690442236024,1.3125,-0.3125,0.875
1480690442250569,-0.8125,0.0625,1.25
1480690442282147,-1.3125,0.375,1.625
1480690442295682,0.25,0.9375,2
1480690442310221,0.75,1.125,2.625
1480690442347321,0.25,0.875,2.875
1480690442356344,0,1.125,2.5
1480690442370385,-0.4375,1.5,1.6875
1480690442402468,-3.3125,1.8125,0.5625
1480690442422522,-3.625,2,-0.75
1480690442430542,-2.75,1.9375,-1.5625
1480690442453603,-2.9375,2.25,-1.875
1480690442476664,-2.5625,2.5,-2.0625
1480690442490702,-0.625,2.5,-2.8125
1480690442513763,1.375,1.75,-4.5625
1480690442535822,4.25,0.1875,-7.0625
1480690442556880,6.0625,-0.75,-7.625
1480690442573923,5.6875,-2.3125,-7.3125
1480690442595981,5.4375,-3.0625,-7
1480690442624558,7.5,-2.75,-7.125
1480690442633582,8.625,-2.125,-6.6875
1480690442656144,8.9375,-2,-5.5625
1480690442677197,9.5,-2.25,-4.6875
1480690442699758,10.4375,-2.5625,-4.625
1480690442717806,11,-1.9375,-5.875
1480690442737357,11,-1.125,-6.1875
1480690442753401,8.375,-0.9375,-5.3125
1480690442781977,6.6875,-1,-4.875
1480690442797015,6.1875,-0.4375,-4.625
1480690442813560,6.3125,0.125,-4.25
1480690442836622,5.5,0.1875,-3.25
1480690442874222,5.25,-0.375,-2.4375
1480690442876728,5.8125,-0.3125,-2.125
1480690442903801,7.3125,-0.25,-2.3125
1480690442924354,8.0625,-0.5,-2.4375
1480690442933379,7.125,-0.5625,-3.125
1480690442955943,6.1875,-0.1875,-3.625
1480690442976994,5.9375,-0.125,-3.375
1480690442995043,5.875,-0.125,-3.5
1480690443016101,5.125,0.25,-3.75
1480690443038660,3.4375,-0.25,-3.8125
1480690443053701,3.8125,-0.1875,-4.125
1480690443076258,5.25,-0.5,-4.75
1480690443098818,3.8125,-1.125,-5.125
1480690443113357,1.875,-1.6875,-5.125
1480690443135917,1.75,-1.875,-5.5
1480690443181542,1.75,-1.3125,-6.125
1480690443185048,0.75,-1.125,-6
1480690443205105,-1.5625,-1,-5.8125
1480690443224152,-1.5,-1.375,-5.1875
1480690443234179,1.0625,-2.125,-4.6875
1480690443256237,3.375,-2.6875,-4.5625
1480690443284813,2.8125,-2.9375,-4.3125
1480690443292835,1.5,-3.25,-3
1480690443316899,0.3125,-3.0625,-1.9375
1480690443344472,-1.0625,-2.3125,-1.3125
1480690443353496,-1.3125,-1.1875,-0.6875
1480690443376056,-2.9375,-0.5625,0.3125
1480690443399618,-4.875,-0.0625,0.5625
1480690443412653,-6.9375,0.75,0.5
1480690443459277,-9.0625,1.4375,0.6875
1480690443461784,-12.0625,1.625,1.8125
1480690443481336,-14.6875,1.3125,3.125
1480690443495874,-15.5,1.625,3.9375
1480690443518434,-13.4375,2.625,5.4375
1480690443539992,-13.1875,3.5625,7.875
1480690443557036,-16.6875,3.9375,9.3125
1480690443578092,-17.0625,4.6875,9.875
1480690443600152,-14.9375,5,10.625
1480690443616194,-11.9375,4.75,10.75
1480690443646281,-8.75,4.75,9.625
1480690443659810,-7.4375,4.4375,8.0625
1480690443677859,-8.0625,3.625,6.5
1480690443705936,-8.9375,2.8125,4.875
1480690443736515,-8.125,1.5,3.8125
1480690443739022,-6.125,0.0625,3.5625
1480690443758573,-3.625,-1,3.0625
1480690443787152,-0.125,-1.4375,2.4375
1480690443796173,0.75,-1.5,2.4375
1480690443818735,-0.0625,-1.75,2
1480690443839792,-0.8125,-2.3125,1.1875
1480690443856336,-0.9375,-2.5625,0.4375
1480690443878392,-0.1875,-3.3125,0.1875
1480690443899447,-1.125,-4.3125,0.5
1480690443924012,-1.25,-4.75,-0.5
1480690443938554,-1,-4.4375,-1.25
1480690443961111,-1.625,-4.25,-1.25
1480690443983672,-2.75,-3.375,-0.9375
1480690444004227,-1.625,-2.6875,-1.1875
1480690444021273,-2.625,-1.875,-0.875
1480690444036313,-2.9375,-1,-0.875
1480690444059372,-2.1875,-0.5625,-0.6875
1480690444080930,-0.9375,-0.6875,-0.5625
1480690444095470,-0.3125,-0.9375,-0.125
1480690444120034,-1.125,-0.875,0.3125
1480690444141093,-1.25,-0.8125,0.3125
1480690444162146,-1.75,-0.8125,0.625
1480690444179191,-1.375,-0.625,0.375
1480690444201251,-1.6875,-0.75,-0.1875
1480690444229826,-1,-0.625,-0.75
1480690444238853,2.875,-1.0625,-1.5625
1480690444260908,3.3125,-1.6875,-1
1480690444276951,1.625,-2,0.125
1480690444299511,0.5625,-1.5625,0.9375
1480690444321069,0.25,-0.4375,0.6875
1480690444335608,0.9375,0.125,0.375
1480690444358669,1.4375,0,0.25
1480690444381228,2.0625,-0.0625,0
1480690444395266,-0.5625,0,0.4375
1480690444418327,-4.3125,0.125,0.0625
1480690444456429,-5.5,0.8125,-0.4375
1480690444461943,-3.6875,1.4375,-0.6875
1480690444478487,-2.4375,1.3125,0.125
1480690444508568,-2.75,1.125,0.6875
1480690444525112,-1.6875,1.3125,0.9375
1480690444538648,-0.9375,1.375,0.4375
1480690444561207,-1.125,1.3125,0.1875
1480690444582263,-0.1875,1,0
1480690444598305,-1.3125,0.6875,0.125
1480690444620867,-0.1875,0.75,-0.625
1480690444641922,2.625,0.375,-0.625
1480690444665986,2.75,-0.4375,-0.4375
1480690444681026,1.375,-0.5625,-0.75
1480690444703586,0.4375,-0.5,-1.125
1480690444734669,-0.8125,-0.125,-0.6875
1480690444742188,0.8125,-0.25,-0.125
1480690444762242,1.75,-0.125,0.9375
1480690444786307,2.0625,0.5,1.1875
1480690444807363,2.875,0.6875,1.8125
1480690444829420,2.375,0.25,3.375
1480690444838448,4.5625,-0.5625,4.6875
1480690444862007,7.375,-1.5,5.875
1480690444882563,8.375,-1.8125,5.375
1480690444898604,8.3125,-1,4
1480690444928685,8.1875,-1,2.875
1480690444943724,5.1875,-1.25,2.25
1480690444958766,1.1875,-0.875,1.1875
1480690444980823,-1.9375,-0.0625,0.125
1480690445010402,-1.5,0.1875,-0.25
1480690445018924,1.0625,-0.1875,0.0625
1480690445040985,1.5,-0.5625,0.375
1480690445063543,1,0.125,-0.4375
1480690445078081,1.9375,0.5625,-1.375
1480690445116185,-0.1875,0.5625,-0.8125
1480690445123703,-2.5625,0.1875,-0.9375
1480690445144759,-4.4375,0.625,-1.0625
1480690445161804,-4.1875,1.625,-1.875
1480690445190881,-3.25,1.9375,-2.1875
1480690445197902,-5,2.0625,-2.25
1480690445228482,-4.1875,2.0625,-3
1480690445260066,-3.1875,1.9375,-2.8125
1480690445264582,-1.9375,1.625,-2.5625
1480690445288645,-0.125,2.0625,-2.6875
1480690445311202,1.125,2.4375,-2.75
1480690445318722,0.3125,2.625,-3.125
1480690445341282,-0.625,2.875,-3.6875
1480690445371365,-1.125,3.6875,-4
1480690445377878,-2.9375,3.9375,-3.125
1480690445402446,-6.625,4.125,-3.125
1480690445424503,-5.125,4.125,-3.25
1480690445444557,-3.125,4.6875,-2.625
1480690445461601,-2.5,5.3125,-2.3125
1480690445483660,-4.3125,5.25,-2.8125
1480690445504720,-9.5,5.375,-2.5625
1480690445536301,-13.6875,5.3125,-2.375
1480690445543318,-17,4.8125,-1
1480690445564374,-14.125,3.5625,-0.625
1480690445580919,-6,2.375,-1
1480690445603479,0.25,1.125,-1.6875
1480690445624535,3.0625,-0.375,-2.5625
1480690445641081,6.375,-2.0625,-2.125
1480690445663639,9.4375,-3.25,-1.375
1480690445684695,9.5,-3.1875,-0.9375
1480690445701240,8.125,-2.3125,-0.4375
1480690445723297,7.4375,-0.875,0.875
1480690445751874,5.375,0.5625,2.125
1480690445761900,-0.9375,1.9375,1.9375
1480690445784460,-1.0625,3.1875,1.25
1480690445804523,-1.125,2.75,1.25
1480690445821058,-4.5,2.25,1
1480690445844621,-3.625,1.3125,-0.25
1480690445866178,-1.6875,0,0.125
1480690445881217,0.25,-0.9375,-1.375
1480690445903779,2.5625,-1.25,-2.875
1480690445925836,2.1875,-1.6875,-2.875
1480690445940876,1.5625,-2.3125,-2.75
1480690445963436,0.4375,-1.875,-2.5
1480690445985998,-2.4375,-0.875,-2.875
1480690446000535,-4.9375,-0.0625,-3
1480690446039137,-6.4375,0.6875,-2.75
1480690446062199,-5.25,0.9375,-2.125
1480690446067213,-4.9375,0.625,-1.25
1480690446089771,-6.9375,1.0625,-0.625
1480690446105815,-6.6875,1.5625,-0.5
1480690446120855,-5.125,1.6875,-0.375
1480690446143415,-4.8125,1.1875,0.0625
1480690446166476,-5.6875,1,0.5625
1480690446180514,-5.125,1.25,0.625
1480690446203575,-5.0625,1.75,0.8125
1480690446226134,-5.625,1.6875,0.8125
1480690446248695,-4,1.6875,0.9375
1480690446264236,-1.1875,1.4375,1
1480690446286296,-1,1.625,1.3125
1480690446315874,-2.1875,1.5,1.375
1480690446323395,-3.1875,1.375,1.3125
1480690446345953,-3.8125,1.625,0.9375
1480690446368514,-2.6875,1.9375,0.5
1480690446383553,-3.4375,1.375,0.9375
1480690446406114,-4.0625,1.125,0.75
1480690446427168,-2.125,0.625,0.125
1480690446449729,-1.5,0.3125,0
1480690446466273,-0.8125,0,-0.625
1480690446487329,-0.125,-0.25,-0.25
1480690446509388,-0.8125,-0.5625,0.125
1480690446526934,-0.875,-0.0625,-0.4375
1480690446546988,-0.375,0.125,-0.625
1480690446565537,-1.125,-0.3125,0
1480690446586097,-0.3125,-0.5,0.125
1480690446616173,1.5625,-0.4375,0.0625
1480690446624194,2.3125,-0.5,-0.25
1480690446646252,0.75,-0.5,-0.1875
1480690446667308,-0.3125,-0.4375,0.0625
1480690446684353,-0.75,-0.4375,0.5
1480690446705911,-0.4375,-0.0625,0.5
1480690446726967,0.0625,0.125,0.25
1480690446743510,0.4375,-0.125,0.5625
1480690446773590,1.25,-0.4375,0.6875
1480690446787127,2.75,-0.4375,0.0625
1480690446811190,2.0625,-0.5625,0
1480690446841270,0.3125,-0.875,-0.125
1480690446848289,0.4375,-0.5625,-0.4375
1480690446870852,0.5,-0.5,-0.125
1480690446893409,-0.875,-0.3125,-0.1875
1480690446908449,-0.4375,0.125,-0.8125
1480690446922988,-0.125,0.1875,-0.4375
1480690446946048,-1.25,-0.25,0.0625
1480690446968610,-1.5625,0.125,-0.0625
1480690446983148,-0.8125,0.3125,-0.1875
1480690447006209,-0.6875,0.25,0.125
1480690447036291,-0.375,0.3125,0.0625
1480690447049324,-0.4375,0.4375,-0.125
1480690447065867,-0.5625,0.375,-0.1875
1480690447088434,-0.9375,0.25,0.0625
1480690447117008,-1,0.125,0.1875
1480690447149595,-0.375,0.3125,0.1875
1480690447151600,-0.5,0.4375,-0.0625
1480690447163131,0,0.4375,0.1875
1480690447186194,-0.75,0.125,0.5
1480690447208751,-0.4375,0.1875,0.25
1480690447222789,0.4375,0.125,0.125
1480690447246854,0.25,-0.25,0.25
1480690447268410,0.8125,-0.25,-0.4375
1480690447289466,0.875,-0.1875,-0.3125
1480690447312111,-0.6875,-0.5,0
1480690447328655,-1,-0.4375,-0.3125
1480690447349714,0.125,-0.25,-0.375
1480690447366256,0,-0.3125,0.4375
1480690447388314,0.25,-0.3125,0.1875
1480690447409871,0.625,0.0625,-0.1875
1480690447425914,-0.1875,-0.0625,0.0625
1480690447448473,-1.25,-0.25,0.4375
1480690447469530,-0.1875,-0.3125,0.4375
1480690447486575,0.75,-0.375,0.3125
1480690447508634,1.625,-0.25,-0.0625
1480690447529690,1.25,-0.1875,0.0625
1480690447559770,-0.125,-0.375,0.5625
1480690447568794,-1.5,-0.375,0.1875
1480690447589348,-0.625,-0.125,-0.125
1480690447605894,-0.5,0,0.25
1480690447628452,0,-0.0625,0.4375
1480690447649509,0.25,-1.125,0.75
1480690447666553,2.1875,-1.1875,1
1480690447688615,4.625,-2.5625,0.3125
1480690447710169,5.4375,-2.625,-0.0625
1480690447726212,5.5,-3.3125,-0.5
1480690447748271,6.3125,-3.6875,-0.6875
1480690447778853,7.6875,-3.75,-1.375
1480690447785872,6.9375,-3.125,-1.8125
1480690447810436,6.1875,-2.75,-1.75
1480690447837009,5.125,-2.125,-0.8125
1480690447846030,4.5625,-1.1875,-0.75
1480690447869595,6.0625,0.375,-1
1480690447891653,5.3125,0.875,-0.6875
1480690447905190,1.3125,1.0625,-0.875
1480690447929252,-2.1875,1.8125,-1.5
1480690447950809,-5.125,2,-1.75
1480690447972377,-9,1.5625,-1.1875
1480690447988409,-10.625,1.0625,-1.375
1480690448010969,-8.125,0.75,-2.25
1480690448025508,-3.75,0.3125,-2.875
1480690448048569,-0.625,-0.125,-2.3125
1480690448071132,0.375,-0.3125,-1.4375
1480690448085668,-0.0625,-0.75,-0.375
1480690448114745,-0.3125,-0.6875,0.625
1480690448130788,0.6875,-0.25,1.0625
1480690448145327,2.125,-0.25,0.8125
1480690448168891,2.9375,0,0.875
1480690448190948,-0.375,-0.1875,1.9375
1480690448205487,-3.5625,-0.3125,1
1480690448230053,-1.1875,-0.4375,-1.0625
1480690448257124,-0.75,-0.875,-1.75
1480690448272164,-5.0625,-1.8125,-1.875
1480690448288708,-6.5625,-2.3125,-2.1875
1480690448312290,-3.0625,-2.5,-2.75
1480690448332324,2.4375,-2.3125,-2.75
1480690448348366,3.8125,-2.4375,-2.1875
1480690448370928,2.8125,-2.5,-1.5625
1480690448391983,2.5,-2.125,-1.125
1480690448408527,0.875,-1.6875,-0.75
1480690448437103,0.25,-0.875,-0.625
1480690448452144,-0.5625,-1,-0.125
1480690448474702,-0.875,-1.0625,0.3125
1480690448498768,-1.0625,-0.4375,0.3125
1480690448512302,-1.3125,-0.3125,0
1480690448528345,-1.3125,-0.6875,0.75
1480690448551406,-0.9375,-1,1.25
1480690448573465,0.0625,-1,1.5
1480690448588505,2.8125,-0.9375,1.8125
1480690448610564,4.5625,-1,2.25
1480690448639641,7.3125,-1.25,2.375
1480690448648666,8.8125,-1.375,3.4375
1480690448672229,9.5,-1.9375,4.5625
1480690448693785,9.875,-3.375,4.125
1480690448721859,13.75,-3.1875,1.8125
1480690448731886,16.6875,-3.5625,0.4375
1480690448753444,12.5,-4.75,0.875
1480690448774500,6.9375,-5.0625,0.0625
1480690448791043,5.5625,-4,-0.375
1480690448813604,6.9375,-3.125,-0.4375
1480690448834660,5.25,-2.4375,-0.375
1480690448851706,1.6875,-1.5625,-0.5625
1480690448873763,-1.125,-1,-0.25
1480690448888803,-0.875,-0.4375,0.1875
1480690448911865,-0.9375,-0.0625,0.125
1480690448934425,-2,0.8125,-0.5
1480690448947961,-1.0625,1.1875,-0.5
1480690448978542,0.875,0.75,0.125
1480690448993582,1.9375,0.5,0.1875
1480690449008121,2.4375,0.625,0
1480690449031182,3.125,0.5,0.625
1480690449053742,3.875,0.5625,1.375
1480690449067779,5.8125,1.5,1.1875
1480690449092345,8.8125,3.0625,1.125
1480690449113401,6.1875,4.25,2.1875
1480690449128942,-1.25,4.8125,2.8125
1480690449151502,-7.625,5.1875,3.5
1480690449173561,-11.25,5.75,4.1875
1480690449194616,-15.5,7.125,4.25
1480690449211161,-14.5,8.0625,5.4375
1480690449235225,-12.9375,6.6875,7.25
1480690449254777,-11.9375,5.3125,7.375
1480690449270845,-7.0625,4.6875,3.9375
1480690449293379,-1.4375,3.9375,0.375
1480690449314437,1.4375,2,-0.5625
1480690449338500,-0.1875,-0.4375,-0.625
1480690449361059,2.5625,-2.3125,-0.3125
1480690449374595,7.6875,-3,0.25
1480690449391139,8.75,-3.4375,0.8125
1480690449414201,9.25,-3.5625,0
1480690449434755,10.375,-3,-1.125
1480690449451299,6.75,-2.5,-1.625
1480690449473359,2.6875,-2.125,-2
1480690449494414,-1,-1.625,-1
1480690449510958,-4.8125,-0.375,0.3125
1480690449533522,-5.8125,1,0.5
1480690449557582,-2.5,2.5,0.9375
1480690449571620,-2,2.75,1.5
1480690449593678,-6.75,2.9375,0.8125
1480690449616238,-9.375,3.125,-0.6875
1480690449636792,-11.125,2.5,-0.75
1480690449654841,-12.625,2.0625,-0.9375
1480690449675897,-8.8125,1.875,-1.875
1480690449690937,-5.3125,1.4375,-1.875
1480690449713497,-4.5625,1.0625,-1.8125
1480690449736057,-3,1.3125,-2.375
1480690449751097,-1.875,0.5625,-1.0625
1480690449773657,-1.1875,-0.5,0.375
1480690449796216,-0.5625,-0.1875,0.3125
1480690449810254,0.8125,0.5625,-0.3125
1480690449840835,1.6875,0.4375,0.0625
1480690449864398,-0.625,-0.25,0.8125
1480690449871918,-2.125,-0.375,0.0625
1480690449893476,-2.1875,-0.5,-0.8125
1480690449922052,-1.3125,-0.75,-1.5625
1480690449931075,0.25,-0.625,-2.1875
1480690449954137,0.3125,-0.6875,-2.0625
1480690449976195,0.1875,-0.875,-2.0625
1480690449990235,0.4375,-0.5625,-1.875
1480690450013795,1.875,-0.4375,-1.5
1480690450035854,1.4375,-0.125,-1.3125
1480690450056911,1.375,0.125,-1.5
1480690450073454,1,0.25,-1.25
1480690450096516,-0.0625,0.125,-0.75
1480690450110552,-0.4375,0.0625,-1.1875
1480690450140131,0.625,0.125,-1.8125
1480690450156174,0.8125,0,-1.5625
1480690450178233,0.375,-0.1875,-1.3125
1480690450193774,0.375,0,-1.375
1480690450216843,0.25,0,-1
1480690450237390,0.125,0.125,-0.625
1480690450253432,0.625,0.4375,-0.5625
1480690450284015,0.9375,0.5625,-0.0625
1480690450297048,-0.3125,0.4375,0.3125
1480690450313593,-0.5,0.6875,0.3125
1480690450336153,-0.1875,0.875,0
1480690450357208,0.0625,0.625,0.0625
1480690450374755,-0.6875,0.25,-0.25
1480690450395811,-1.3125,0.375,-0.6875
1480690450418371,-2.1875,0.375,-0.75
1480690450446947,-3.75,0.625,-0.6875
1480690450455971,-5.9375,1.5,-1.0625
1480690450477027,-7.625,3,-1.25
1480690450494072,-11.375,4.5625,-0.75
1480690450516632,-16.375,5.0625,-0.1875
1480690450536686,-15.6875,4.875,0.375
1480690450553731,-10.75,4.0625,0.125
1480690450582308,-7.8125,4.0625,0.0625
1480690450598350,-6.8125,2.8125,-0.1875
1480690450613390,-6.6875,1.875,0.1875
1480690450635950,-4.5,0.25,0.375
1480690450659011,-0.6875,-0.5,0.625
1480690450673550,2.3125,-0.9375,-0.0625
1480690450697112,3.8125,-0.5625,-0.4375
1480690450726190,2.75,-0.25,-0.1875
1480690450733211,0.1875,-0.25,0.4375
1480690450757774,-0.75,0,0.4375
1480690450778328,-0.75,0.125,0.625
1480690450792867,0.25,0.25,0.625
1480690450815929,1.875,0.125,0.0625
1480690450838488,0.8125,-0.3125,-0.1875
1480690450853027,0.6875,-0.6875,-0.625
1480690450876088,0.1875,-0.8125,-0.5625
1480690450898649,-0.3125,-1,-0.5
1480690450912685,0.5625,-0.8125,-0.5625
1480690450942264,1.5,-0.5625,-0.3125
1480690450958313,1.75,-0.625,0.1875
1480690450972846,0.875,-0.125,-0.1875
1480690451001924,0.6875,0.125,-0.0625
1480690451018467,-1.1875,-0.0625,0.875
1480690451033005,-0.9375,0.1875,0.625
1480690451056066,0.375,0.375,0.125
1480690451086149,0.9375,0.4375,0.25
1480690451099684,0.6875,0.125,0.0625
1480690451116228,-0.25,-0.1875,-0.125
1480690451138286,-0.4375,-0.375,-0.3125
1480690451159343,0.3125,-0.4375,-0.625
1480690451175885,1.875,-0.5,-0.6875
1480690451198445,2.4375,-0.75,-0.5
1480690451219501,1.75,-0.9375,-0.625
1480690451236046,1.5,-0.6875,-0.8125
1480690451258605,1.5625,-1.0625,-0.1875
1480690451279662,0.9375,-0.9375,-0.125
1480690451304227,1.75,-0.3125,-0.6875
1480690451319267,1.125,-0.1875,0.3125
1480690451339822,-0.4375,-0.375,0.5625
1480690451355864,-0.1875,0.125,0.1875
1480690451379929,0.1875,0.4375,0.0625
1480690451399482,-0.375,0.375,0.25
1480690451417027,-0.875,0.25,-0.0625
1480690451446606,-0.75,0.0625,-0.125
1480690451459640,-0.1875,-0.375,-0.125
1480690451476184,0.625,-0.5625,-0.8125
1480690451498745,2.125,-0.625,-1.375
1480690451526819,1.3125,-0.875,-1.0625
1480690451537347,1.0625,-1.125,-0.625
1480690451558403,1.4375,-0.8125,-0.5625
1480690451588482,2.4375,-0.625,-0.875
1480690451596002,2.4375,-0.6875,-1
1480690451618562,2.5,-0.625,-0.6875
1480690451641123,0.5625,-0.875,-0.5625
1480690451656162,0.8125,-0.8125,-0.8125
1480690451679725,1.5625,-0.875,-0.8125
1480690451700781,2.0625,-0.6875,-1
1480690451721837,2,-0.625,-1
1480690451746904,1.75,-0.5625,-0.9375
1480690451768461,1,-0.5625,-0.625
1480690451781997,0.8125,-0.4375,-0.5625
1480690451804557,1.25,-0.3125,-0.5625
1480690451837645,2.0625,0,-0.8125
1480690451866723,1.625,0.125,-0.6875
1480690451868727,0,0.25,-0.5
1480690451880760,-0.9375,0.1875,-0.1875
1480690451895298,-0.8125,0,-0.1875
1480690451918360,1.0625,0.0625,-0.3125
1480690451941421,2.375,0.0625,-0.6875
1480690451956962,2.125,-0.1875,-0.625
1480690451978519,0.5625,-0.5,-0.4375
1480690452001079,-0.5,-0.1875,-0.3125
1480690452022136,-0.375,-0.125,-0.125
1480690452046200,-0.0625,0,0.0625
1480690452061240,0.375,0.125,-0.25
1480690452083299,1.25,0.125,-0.3125
1480690452111874,0.875,-0.125,0.1875
1480690452120898,-0.4375,-0.625,0.25
1480690452141954,-0.5625,-0.375,-0.375
1480690452165517,1.0625,-0.375,-0.25
1480690452181560,0.25,-0.75,-0.0625
1480690452202115,-0.1875,-0.625,-0.4375
1480690452218658,0.5,-0.1875,-0.25
1480690452242722,0,-0.375,0.25
1480690452262776,-0.3125,-0.1875,-0.25
1480690452278317,-0.125,0.0625,-0.4375
1480690452300877,-1.125,-0.25,0.25
1480690452321933,-1.5,-0.125,0.25
1480690452338477,-0.0625,0.1875,0.0625
1480690452363042,0.125,0,0.5625
1480690452383598,0.1875,0.125,0.25
1480690452422202,1.4375,0.3125,-0.1875
1480690452444258,0.4375,0,0.3125
1480690452449773,-1.3125,-0.375,0.1875
1480690452458296,-0.6875,0,-0.375
1480690452480856,0.8125,0,-0.25
1480690452503416,0.25,-0.1875,0.25
1480690452525978,0,0.125,-0.0625
1480690452541016,0.3125,0.375,-0.375
1480690452563576,-0.5,0.0625,-0.0625
1480690452579117,-1.0625,0,-0.0625
1480690452601175,-0.625,0.0625,-0.1875
1480690452638274,0.25,0.125,-0.25
1480690452640782,0.5625,-0.0625,-0.25
1480690452666850,0.375,0,-0.375
1480690452698436,0.375,0.1875,-0.5625
1480690452700942,-0.5,0,-0.3125
1480690452721059,-1.3125,-0.125,-0.4375
1480690452743618,-0.5,0.125,-0.5
1480690452758658,0.25,0,-0.125
1480690452782222,0.375,0.3125,-0.25
1480690452803278,0.4375,0.25,-0.0625
1480690452817815,0.25,0.0625,0.5625
1480690452840877,0.25,0,0.0625
1480690452865945,0.5,0.1875,-0.375
1480690452877976,0.5625,0,-0.4375
1480690452901037,-0.625,-0.0625,-0.125
1480690452923597,-0.6875,-0.1875,-0.375
1480690452937636,-0.5,0.1875,-0.4375
1480690452960695,0.375,0,-0.625
1480690452999799,-0.1875,0,-0.25
1480690453004312,-1,0.0625,-0.1875
1480690453020856,-0.5,0.1875,-0.0625
1480690453045421,-0.5625,0.125,-0.0625
1480690453064472,-0.5,0.1875,-0.3125
1480690453081015,0.25,0.1875,-0.3125
1480690453103575,0.1875,0.125,-0.125
1480690453124632,-0.0625,0.0625,-0.375
1480690453141176,-0.5625,-0.0625,-0.4375
1480690453164237,-1.0625,-0.125,-0.3125
1480690453184290,-0.125,0.0625,-0.5625
1480690453201337,-0.0625,0.125,-0.625
1480690453223395,-0.875,0.0625,-0.5625
1480690453245954,-0.9375,0.125,-0.4375
1480690453261496,-1.3125,0.125,-0.3125
1480690453283554,0.5,0.125,-0.5625
1480690453304610,1.3125,-0.125,-0.0625
1480690453321154,1.625,-0.1875,0.0625
1480690453343213,1.5625,-0.375,-0.5
1480690453364770,1.375,-0.0625,-0.875
1480690453382821,1.4375,-0.25,-0.75
1480690453416909,0.0625,-0.375,-0.125
1480690453425933,-0.0625,-0.125,-0.8125
1480690453448495,1,0.3125,-1.0625
1480690453466042,1.3125,0.125,-0.375
1480690453487099,-0.75,-0.125,-0.1875
1480690453501134,-0.4375,0.3125,-0.8125
1480690453529709,-0.4375,0.25,-0.375
1480690453552269,0.1875,0.0625,0.25
1480690453561292,0.625,0.1875,-0.1875
1480690453583352,1.3125,0.25,-0.4375
1480690453605912,1.3125,-0.125,-0.1875
1480690453620451,-0.6875,-0.1875,-0.375
1480690453643512,-0.125,-0.125,-1
1480690453667075,-0.0625,-0.3125,-0.5625
1480690453694648,-0.25,-0.3125,0.0625
1480690453726732,1.1875,0,-0.25
1480690453729239,1.1875,0,-0.3125
1480690453750796,0.4375,0,-0.0625
1480690453753805,-0.375,-0.125,-0.0625
1480690453768844,-0.5,-0.0625,-0.3125
1480690453791405,0.25,-0.125,-0.25
1480690453807948,0,-0.25,0.25
1480690453829004,1.1875,0.0625,-0.375
1480690453851564,1.4375,0.125,-0.3125
1480690453868108,-0.375,-0.3125,0.1875
1480690453888663,-1.0625,-0.3125,0
1480690453911223,0.1875,-0.0625,-0.5
1480690453942807,0.0625,-0.1875,-0.25
1480690453948823,-0.125,-0.0625,-0.1875
1480690453972888,0.5625,0,0
1480690454003970,-0.0625,-0.1875,0.25
1480690454026031,-0.625,0,-0.25
1480690454031543,0.375,0.125,-0.1875
1480690454056610,0.625,-0.25,0.125
1480690454069145,0.0625,-0.3125,-0.0625
1480690454091202,0.0625,0,-0.5
1480690454109250,0.6875,-0.0625,-0.25
1480690454128802,0.5625,-0.1875,0.25
1480690454151362,-0.4375,-0.125,-0.3125
1480690454169410,0.6875,0.0625,-0.6875
1480690454188962,0.5625,-0.25,-0.125
1480690454213026,0.1875,-0.3125,-0.1875
1480690454251127,-0.3125,-0.0625,-0.375
1480690454253131,0.25,0,0
1480690454281711,0.25,-0.125,0.25
1480690454293740,0.8125,0.125,-0.125
1480690454308781,1.4375,0.0625,-0.1875
1480690454331340,0.6875,-0.375,-0.0625
1480690454353900,0.1875,-0.25,-0.375
1480690454368941,0.625,-0.375,-0.5
1480690454391500,-0.1875,-0.625,-0.125
1480690454414061,-0.125,-0.25,-0.625
1480690454429099,1.9375,0,-0.8125
1480690454451158,1.125,-0.4375,-0.1875
1480690454473719,0.625,-0.4375,-0.125
1480690454499290,-0.3125,-0.0625,-0.5625
1480690454518838,0.375,0,-0.625
1480690454534380,0.375,0,-0.1875
1480690454557943,-0.25,-0.375,0.3125
1480690454571478,1.1875,-0.25,-0.6875
1480690454594038,1.4375,-0.125,-0.375
1480690454609079,0.75,-0.3125,-0.25
1480690454631639,0.3125,-0.125,-0.5
1480690454655201,0.5625,-0.25,-0.5
1480690454670241,0.625,-0.125,-0.3125
1480690454691297,0.9375,-0.1875,-0.3125
1480690454713857,1.0625,-0.1875,-0.625
1480690454728897,1,0.0625,-0.75
1480690454751458,0.625,-0.0625,-0.4375
1480690454776524,-0.0625,-0.3125,-0.125
1480690454806103,0.25,-0.1875,-0.4375
1480690454811116,1,0,-0.5625
1480690454835181,1.25,-0.0625,-0.3125
1480690454849222,1.125,-0.25,-0.125
1480690454871277,-0.0625,-0.0625,-0.8125
1480690454893839,0.625,0.125,-1
1480690454908876,0.25,-0.1875,-0.1875
1480690454931436,-0.0625,-0.25,-0.25
1480690454953996,0.0625,0.0625,-0.6875
1480690454970541,1,0.125,-0.4375
1480690455000119,0.8125,-0.1875,0.1875
1480690455022178,0.1875,0.0625,-0.3125
1480690455030199,0.4375,0.125,-0.1875
1480690455055265,0.3125,0.0625,0.125
1480690455075318,1.25,0,-0.125
1480690455090358,0.5,-0.125,-0.25
1480690455111415,-0.125,-0.25,-0.5625
1480690455135479,0,-0.25,-0.4375
1480690455150519,-0.375,-0.4375,0.0625
1480690455171575,-0.125,-0.3125,-0.25
1480690455194134,0.9375,0.1875,-0.6875
1480690455210177,1.0625,0,-0.1875
1480690455231234,-1,-0.25,0.375
1480690455254300,-1.5625,-0.125,-0.1875
1480690455270338,-0.5625,-0.0625,-0.0625
1480690455298914,0.5625,-0.0625,0.25
1480690455330998,0.9375,-0.1875,0.0625
1480690455333506,0.9375,0,0
1480690455352056,0,-0.125,0.1875
1480690455374114,-0.25,-0.1875,0.0625
1480690455391660,-0.4375,-0.1875,0
1480690455411212,-0.125,-0.0625,-0.125
1480690455433772,-0.0625,-0.125,-0.1875
1480690455457835,0.6875,0,-0.125
1480690455471372,0.1875,-0.0625,0.0625
1480690455493932,-0.1875,-0.0625,0
1480690455511980,-0.625,0,0.0625
1480690455531532,-0.5,0.125,0.0625
1480690455556598,0.75,0.0625,-0.1875
1480690455576652,0.625,-0.0625,0.0625
1480690455598711,-0.25,-0.125,0.125
1480690455613750,0.5625,0,-0.125
1480690455632300,0.25,0,-0.1875
1480690455651352,0.75,0,-0.4375
1480690455673910,-0.25,-0.125,-0.125
1480690455696470,-0.375,0,-0.3125
1480690455711510,0.125,-0.0625,0.125
1480690455734071,0.5,-0.0625,0.25
1480690455756130,1.4375,-0.0625,0
1480690455771169,1.375,0.125,-0.25
1480690455801250,0.8125,-0.0625,-0.25
1480690455824812,-0.5,-0.3125,0.0625
1480690455834339,0.1875,-0.1875,-0.0625
1480690455853889,0.8125,-0.3125,-0.25
1480690455876450,0.8125,-0.25,-0.625
1480690455891489,0.3125,-0.125,-0.625
1480690455914050,0.8125,-0.25,-0.1875
1480690455936614,-0.4375,-0.25,-0.0625
1480690455953655,-0.0625,-0.0625,-0.625
1480690455973708,0.5,-0.125,-0.125
1480690455996267,0.9375,-0.1875,0.1875
1480690456012812,0.75,-0.0625,-0.125
1480690456033868,-0.3125,-0.0625,-0.375
1480690456056431,-0.125,-0.125,-0.25
1480690456080493,0.5,0,-0.0625
1480690456094027,0.5,-0.3125,0.0625
1480690456116587,0.1875,-0.125,-0.25
1480690456132636,0.625,-0.0625,-0.5
1480690456153689,0.4375,-0.125,-0.25
1480690456176246,0.125,-0.3125,0.0625
1480690456192791,0.0625,-0.1875,-0.1875
1480690456213847,0.625,0,-0.25
1480690456236411,0.9375,0,-0.125
1480690456252952,0.3125,-0.0625,0.0625
1480690456274007,-0.125,-0.0625,-0.125
1480690456296566,-0.125,-0.0625,-0.3125
1480690456316119,0.375,-0.0625,-0.3125
1480690456333665,0.3125,-0.1875,-0.3125
1480690456357733,0.375,-0.0625,-0.3125
1480690456389314,0.5,0.0625,-0.3125
1480690456393824,0,-0.0625,-0.125
1480690456416385,0.3125,0.125,-0.375
1480690456434934,0.5625,0.0625,0
1480690456453989,-0.5625,-0.25,-0.0625
1480690456476544,0.4375,0.125,-0.625
1480690456494091,0.625,-0.125,-0.0625
1480690456513645,0.4375,-0.1875,0.125
1480690456536206,0.9375,0,-0.1875
1480690456554252,1.125,0.125,-0.3125
1480690456574307,0.6875,-0.3125,-0.0625
1480690456596363,-0.1875,-0.3125,-0.3125
1480690456614412,-0.3125,-0.25,-0.4375
1480690456635471,-0.5625,-0.375,-0.25
1480690456656522,0.3125,-0.25,-0.125
1480690456676077,1.125,-0.1875,-0.1875
1480690456694130,0.5625,-0.125,0
1480690456720193,-0.375,-0.125,-0.125
1480690456734230,-0.9375,-0.25,0.0625
1480690456753784,-0.3125,-0.125,-0.0625
1480690456776341,0.1875,-0.125,0.0625
1480690456794390,0.0625,-0.125,0
1480690456813942,0.875,-0.0625,-0.25
1480690456836503,0.875,-0.125,-0.1875
1480690456860566,-0.375,-0.3125,-0.25
1480690456881622,-1,-0.1875,-0.1875
1480690456903682,0.0625,-0.125,0.0625
1480690456914212,0.1875,-0.1875,0.1875
1480690456935268,0.6875,0.125,-0.375
1480690456956321,0.75,0.125,-0.3125
1480690456974368,-0.9375,-0.1875,0.0625
1480690456996928,-1.625,0.0625,-0.375
1480690457016482,-0.4375,0.0625,-0.1875
1480690457034530,0.25,-0.125,0.0625
1480690457055585,1.1875,0,0
1480690457076140,1.375,0.125,-0.375
1480690457107223,0.4375,-0.125,-0.3125
1480690457115245,-1,-0.25,-0.3125
1480690457137803,-0.5625,-0.125,-0.4375
1480690457154347,0.0625,-0.125,-0.0625
1480690457183927,0.4375,-0.125,-0.1875
1480690457196459,1.1875,-0.0625,-0.4375
1480690457220523,0.8125,0.125,-0.0625
1480690457236566,0,-0.125,0.1875
1480690457256117,-0.0625,0,0.25
1480690457278678,0.625,-0.0625,0
1480690457298732,0.875,0,-0.0625
1480690457323798,0.75,-0.125,-0.375
1480690457346358,-0.0625,-0.25,-0.25
1480690457356886,-1.3125,-0.375,-0.375
1480690457383958,-0.875,-0.0625,-0.5
1480690457402007,0.5625,-0.0625,-0.125
1480690457417046,0.8125,-0.125,0.25
1480690457436097,0.3125,0,0.0625
1480690457458661,-0.3125,0.1875,-0.3125
1480690457476704,-0.5,-0.0625,0
1480690457496256,-1.25,-0.3125,0.25
1480690457521824,-0.875,-0.0625,-0.125
1480690457536867,0.5625,0.1875,-0.3125
1480690457556416,0.875,0.0625,0.125
1480690457578976,-0.3125,-0.125,0.125
1480690457603041,-0.75,-0.3125,0
1480690457618081,-0.6875,-0.125,-0.0625
1480690457639138,0.5625,0.0625,-0.25
1480690457662698,0.1875,-0.125,0.1875
1480690457676736,-0.4375,0.0625,0.0625
1480690457698795,-0.5625,0.0625,-0.125
1480690457716843,-0.6875,0.25,0.0625
1480690457736397,-0.3125,0.0625,0.1875
1480690457758955,-0.3125,0,0.1875
1480690457777003,0.25,0.125,-0.1875
1480690457796554,0.0625,0.1875,-0.0625
1480690457819117,-0.0625,0.0625,0.125
1480690457837664,-0.8125,0,0.125
1480690457859221,-0.5,0.1875,-0.25
1480690457878773,0.125,0.1875,-0.1875
1480690457896822,-0.25,-0.0625,0.1875
1480690457917877,-0.875,-0.0625,0.1875
1480690457938933,-0.0625,0.0625,-0.125
1480690457956983,0.6875,0.125,0.25
1480690457984055,0.5625,-0.1875,0.375
1480690457998592,0.0625,0.0625,0.0625
1480690458016645,0.375,0.3125,-0.1875
1480690458037698,0.4375,-0.0625,0.375
1480690458058752,0.0625,-0.5625,0.375
1480690458081312,-0.125,-0.25,-0.5625
1480690458097858,0.125,-0.0625,-0.6875
1480690458118914,-0.1875,-0.375,0.0625
1480690458137461,-0.875,-0.375,-0.0625
1480690458164032,-0.375,0.0625,-0.4375
1480690458179072,-0.4375,0.0625,0.0625
1480690458197121,0.0625,0,0
1480690458219181,0.1875,0.125,-0.0625
1480690458238731,-0.6875,0,0.0625
1480690458257280,-1.0625,0,0.3125
1480690458279339,-0.4375,0,0.0625
1480690458298891,1,0.0625,-0.25
1480690458324459,0.625,-0.0625,0.125
1480690458339500,-0.9375,-0.1875,0.0625
1480690458359050,-0.6875,-0.125,-0.25
1480690458384118,-0.0625,-0.125,0.125
1480690458403686,0.25,-0.3125,0.25
1480690458418709,0.6875,0.0625,-0.0625
1480690458436758,0.1875,0.3125,-0.25
1480690458466838,-0.375,0.0625,0.0625
1480690458478870,-1.875,-0.1875,0.4375
1480690458497419,-0.8125,0,-0.1875
1480690458523990,0.8125,0.25,-0.3125
1480690458546549,0.875,0,0.125
1480690458556576,-0.125,-0.25,0.25
1480690458579136,-0.0625,0,-0.125
1480690458598689,0.1875,0,-0.1875
1480690458616741,-0.375,0,0
1480690458639299,0.125,0.0625,0
1480690458660352,0.125,0.1875,0.3125
1480690458676897,-0.125,-0.0625,0.25
1480690458699456,0.0625,0.0625,0
1480690458720513,-0.125,-0.0625,-0.0625
1480690458741568,0.25,0.125,-0.125
1480690458759115,0.125,0,0.0625
1480690458786187,-0.5,-0.125,0.125
1480690458806241,-0.4375,-0.0625,-0.0625
1480690458826795,0,-0.1875,-0.3125
1480690458840833,-0.125,-0.25,-0.4375
1480690458861386,-0.625,-0.25,-0.4375
1480690458886956,-0.8125,-0.25,-0.25
1480690458900491,-0.25,-0.0625,-0.25
1480690458921546,0.75,-0.25,0.0625
1480690458939093,-0.0625,-0.1875,0.125
1480690458966165,-0.125,0,0
1480690458990232,0.25,0.0625,0.0625
1480690459000757,0,0.125,-0.1875
1480690459020309,-0.75,0.0625,0
1480690459053898,-0.6875,-0.1875,0.4375
1480690459066933,0.3125,0,0
1480690459081979,0.625,0.1875,-0.375
1480690459101526,0.375,-0.1875,-0.0625
1480690459119573,-0.3125,-0.25,0.25
1480690459163189,-0.9375,-0.125,-0.25
1480690459167200,0,0.125,-0.25
1480690459179232,0,-0.0625,0.3125
1480690459201792,0,0,0
1480690459238389,-0.125,0.1875,-0.5
1480690459240897,-0.375,-0.1875,-0.125
1480690459261951,-0.5625,-0.5,0.4375
1480690459281504,0.5625,-0.4375,-0.375
1480690459299551,1.625,-0.1875,-0.6875
1480690459326122,1.1875,-0.375,-0.375
1480690459348696,0,-0.75,0.125
1480690459359210,-0.9375,-0.5,-0.4375
1480690459381773,0.375,-0.25,-0.5
1480690459408842,1.9375,-0.125,-0.0625
1480690459419370,1.5,-0.1875,-0.1875
1480690459441930,0.0625,-0.0625,-0.25
1480690459461487,-1.5,-0.1875,0
1480690459480534,-1,-0.125,0.1875
1480690459501590,1.125,0,-0.375
1480690459523648,1.6875,-0.0625,-0.5
1480690459540192,0.5,-0.3125,0
1480690459561748,0,-0.4375,-0.1875
1480690459582304,0.1875,-0.4375,-0.5625
1480690459599350,0.6875,-0.5,-0.6875
1480690459626421,0.25,-0.8125,-0.5
1480690459641462,0.375,-0.6875,-0.875
1480690459659007,2,-0.5625,-1
1480690459686581,1.5625,-0.6875,-0.0625
1480690459709140,1.125,-0.75,0
1480690459719168,1.75,-0.5,-0.75
1480690459741727,1.25,-0.5,-0.9375
1480690459770303,0.375,-0.5,-0.4375
1480690459779328,-0.125,-0.5625,-0.125
1480690459802892,0.75,-0.5625,-0.5
1480690459821941,1.5625,-0.5625,-1.375
1480690459839989,2.3125,-0.5,-1.5625
1480690459863551,0.4375,-1.0625,-1.125
1480690459882602,-1.1875,-1.125,-1.25
1480690459906666,-0.5625,-0.75,-1.5625
1480690459922207,0.75,-0.5,-1.125
1480690459942762,2.5625,0,-0.875
1480690459963819,1.6875,-0.1875,-0.4375
1480690459981869,-0.25,0.1875,-0.4375
1480690460002922,0.1875,0.625,-0.1875
1480690460020468,-0.25,0.375,0
1480690460042026,-0.3125,0.125,-0.625
1480690460071612,-0.125,0,-0.8125
1480690460079125,0.5,-0.375,-0.625
1480690460102187,0,-0.375,-0.875
1480690460131769,0.3125,-0.25,-1.1875
1480690460139285,0.4375,-0.5,-0.8125
1480690460162848,0.5,-0.5,-0.5
1480690460190421,0.4375,-0.625,-0.5625
1480690460211477,0.25,-0.4375,-0.6875
1480690460222005,1.25,-0.3125,-0.4375
1480690460253088,1.25,-0.5,0
1480690460266122,1.125,-0.5,-0.4375
1480690460281665,0.8125,-0.1875,-0.75
1480690460303221,1.375,-0.3125,-0.5
1480690460324276,0.1875,-0.75,-0.0625
1480690460341825,0.9375,-0.75,-0.75
1480690460377919,0.4375,-0.625,-0.9375
1480690460384436,0.75,-0.625,-0.75
1480690460401482,0.4375,-0.5625,-0.375
1480690460426048,0.375,-0.1875,-0.4375
1480690460444597,0,-0.1875,-0.375
1480690460461140,-0.6875,0,-0.0625
1480690460489716,-0.25,0.0625,-0.3125
1480690460504758,-0.625,-0.1875,-0.1875
1480690460520799,-0.875,-0.1875,-0.0625
1480690460543359,0.1875,-0.3125,-0.25
1480690460564415,0.625,-0.25,-0.5
1480690460581461,0.375,-0.1875,-0.9375
1480690460603519,-0.4375,-0.1875,-0.0625
1480690460624575,-0.875,-0.25,0.375
1480690460641119,-1.5,0.0625,-0.1875
1480690460663679,0,0.5,-0.5625
1480690460684735,0.875,0.25,0.375
1480690460700778,-0.125,0.0625,0.3125
1480690460723337,0,0.4375,-0.4375
1480690460744394,-0.75,0.125,0.4375
1480690460760939,-0.375,-0.0625,0.5
1480690460789513,0.875,0.1875,0.1875
1480690460804554,0.875,0.1875,-0.1875
1480690460822100,0.0625,0.125,0.0625
1480690460844159,-0.4375,0.25,0.25
1480690460864713,-0.9375,0.3125,0.75
1480690460881764,-0.75,0.25,0.375
1480690460910836,0.0625,0.6875,0.3125
1480690460924873,0.0625,0.8125,0.625
1480690460940916,-1.9375,0.8125,0.5625
1480690460963977,-2.9375,0.9375,0.6875
1480690460984533,-2,0.875,1.0625
1480690461008596,-0.25,1,0.6875
1480690461023636,-0.25,0.8125,0.4375
1480690461046196,-0.75,0.375,0.4375
1480690461060735,-1.4375,0.3125,0.5
1480690461083294,-1.125,0.25,0.5
1480690461105855,-1.75,0.375,0.4375
1480690461128415,-1.125,0.375,0.0625
1480690461143455,-0.3125,0.4375,0.375
1480690461166517,-0.5,0.1875,0.75
1480690461180555,-1.1875,0.3125,0.6875
1480690461203616,-1.4375,0.125,0.1875
1480690461234697,-0.8125,0.1875,0.25
1480690461240213,-0.5625,0.125,0.5625
1480690461265282,-0.5625,0.0625,0.5
1480690461293855,-0.1875,0.0625,0.1875
1480690461301878,0.1875,0.3125,0.1875
1480690461323433,0.5625,0.1875,0.625
1480690461345994,-0.0625,-0.0625,0.75
1480690461360533,-1.4375,-0.0625,-0.0625
1480690461383595,-0.5,0.3125,-0.3125
1480690461406155,0,0.0625,0.625
1480690461420191,-0.4375,0.0625,0.3125
1480690461450772,-0.0625,0.5625,-0.0625
1480690461496393,-0.75,0.25,0.3125
1480690461498900,-0.6875,0.3125,0.1875
1480690461504916,-0.4375,0.75,0.1875
1480690461525972,-1.125,0.4375,0.4375
1480690461548532,-1.4375,0.5,0.25
1480690461564074,-0.375,0.5625,-0.25
1480690461586634,-0.3125,0.3125,0.0625
1480690461607690,-1.0625,0.375,0.375
1480690461623231,-1.375,0.5625,0
1480690461645790,-0.3125,0.5,-0.125
1480690461666849,-0.125,0.25,0.25
1480690461683391,-0.75,0.25,0.625
1480690461713471,-0.0625,0.625,0.375
1480690461727007,0.3125,0.4375,-0.125
1480690461744553,0.375,0.25,0
1480690461775135,-1.0625,-0.125,0.5625
1480690461786665,-1.0625,0,0.125
1480690461803711,0.3125,0.25,-0.4375
1480690461826772,-0.125,0.0625,-0.3125
1480690461847326,-0.1875,-0.125,0.125
1480690461870890,-0.5,0.0625,0.4375
1480690461885930,-0.6875,0.1875,0.25
1480690461907987,0.5625,0.375,0.0625
1480690461924031,-0.125,0.25,0.0625
1480690461947093,-0.625,0.125,-0.3125
1480690461967145,-1.875,0.0625,0.1875
1480690461983689,-1.75,0.0625,0.1875
1480690462013268,-0.125,0.3125,-0.3125
1480690462041843,1.1875,0.25,-0.4375
1480690462052372,0,0.0625,0.1875
1480690462073427,-1,-0.125,-0.0625
1480690462088468,-1.0625,-0.0625,-0.4375
1480690462103508,0.25,-0.25,-0.4375
1480690462132585,0.375,-0.25,0.125
1480690462149129,0.5625,0,-0.25
1480690462163168,0.3125,0.1875,-0.25
1480690462185726,0,-0.0625,0.3125
1480690462208286,-0.625,-0.0625,0.625
1480690462222825,0,0.1875,0
1480690462245886,0.0625,0.3125,-0.4375
1480690462268948,0.6875,0.1875,-0.1875
1480690462282985,-0.8125,-0.125,0.25
1480690462306046,-0.75,0.125,-0.25
1480690462332617,0.125,0.25,-0.3125
1480690462351668,0.125,0.0625,-0.0625
1480690462366207,0.5,0.0625,-0.3125
1480690462388767,-0.25,0.1875,-0.125
1480690462409322,-1.3125,0.0625,0.1875
1480690462426366,-0.9375,0.1875,0.25
1480690462448425,0.5,0.3125,0.125
1480690462463465,1.0625,0.25,0.25
1480690462486025,0.3125,0.1875,0.5625
1480690462508585,-0.5625,0.1875,0.5
1480690462529641,0,0.1875,-0.0625
1480690462545684,-0.375,0,0.25
1480690462568244,-0.5,-0.3125,-0.0625
1480690462606846,-0.3125,-0.25,-0.125
1480690462609354,-0.125,-0.25,-0.125
1480690462629908,-0.1875,-0.125,0
1480690462656979,-0.25,-0.0625,-0.0625
1480690462666004,-0.125,-0.0625,0.1875
1480690462689065,-0.5,-0.0625,0.4375
1480690462711123,-1.25,0,0.25
1480690462726163,-0.3125,0.0625,0
1480690462748222,-0.25,-0.0625,0.4375
1480690462770783,-0.375,-0.25,0.375
1480690462785823,-0.375,0.0625,0
1480690462808383,0.25,-0.125,0.0625
1480690462829439,-0.3125,-0.4375,0.375
1480690462847490,-0.75,-0.25,0.0625
1480690462874558,-0.125,0,-0.0625
1480690462906643,0,-0.0625,0.25
1480690462909151,0.0625,-0.0625,0.1875
1480690462934216,0.0625,0.0625,0.0625
1480690462968809,-0.625,0,0.0625
1480690462971817,-0.3125,0,0.0625
1480690462988360,-0.6875,-0.1875,0
1480690463018441,-0.25,-0.125,-0.1875
1480690463025961,0.0625,-0.1875,-0.125
1480690463048521,0.375,-0.125,-0.1875
1480690463072584,0.6875,-0.0625,-0.375
1480690463085119,-0.1875,-0.3125,-0.1875
1480690463108179,-0.375,-0.3125,-0.0625
1480690463130743,-0.1875,-0.125,-0.3125
1480690463162323,1.5,-0.1875,-0.3125
1480690463181879,1.0625,-0.5,-0.0625
1480690463190903,0.625,-0.875,-0.25
1480690463205438,1.375,-1.375,-0.125
1480690463228499,4.0625,-3,0.25
1480690463251061,7.1875,-5,-0.125
1480690463265097,10.875,-6.125,-1.375
1480690463296179,11.375,-6.5625,-1.875
1480690463311721,10.5,-6.5625,-1.3125
1480690463326260,10.25,-6,-0.5
1480690463349321,9.3125,-5.125,-0.1875
1480690463370878,7.3125,-3.5,0.25
1480690463385417,4.875,-2.0625,0.6875
1480690463409982,0.9375,-1.375,1.25
1480690463438558,-3,-1.25,0.6875
1480690463453598,-2.4375,-0.75,-0.125
1480690463469641,-0.1875,-0.3125,0.375
1480690463491198,0.25,-0.125,1
1480690463511754,0.8125,0.6875,0.625
1480690463528297,0.625,1.3125,0.0625
1480690463551861,0.1875,1.5,0.1875
1480690463571913,-2.5,0.875,1.0625
1480690463588458,-3.875,0.75,1.0625
1480690463612019,-1.6875,1,0.1875
1480690463632073,0.25,0.875,-0.1875
1480690463648119,0.625,0.25,-0.5
1480690463670676,0,-0.6875,-0.1875
1480690463691731,0.75,-1.3125,-0.125
1480690463708777,2.4375,-1.8125,-1.0625
1480690463731837,4,-2.0625,-1.5
1480690463759411,4,-2.5625,-1.5
1480690463768436,2.125,-2.9375,-1.5625
1480690463790995,1.75,-2.375,-2.375
1480690463812051,1.4375,-1.6875,-2.5
1480690463828595,-0.9375,-1.4375,-2.125
1480690463851155,-3.25,-0.6875,-1.875
1480690463872211,-2.1875,0.125,-1.625
1480690463888253,-3,0.3125,-0.625
1480690463910814,-4.4375,0.75,-1
1480690463934376,-3.625,1.125,-1
1480690463948415,-3.5,1,0.125
1480690463986515,-3.625,1,0.4375
1480690463993533,-2.0625,1,0.3125
1480690464008574,-1.1875,1.0625,0.4375
1480690464031136,-0.3125,1,0.4375
1480690464060712,-0.5625,0.75,0.875
1480690464067731,-1.75,0.5,0.9375
1480690464098315,-0.6875,0.5,0.6875
1480690464114359,1.1875,0.3125,0.6875
1480690464128392,1.6875,0.125,0.9375
1480690464151955,0.75,-0.125,0.75
1480690464174014,1.0625,-0.125,0.25
1480690464187550,1.3125,-0.125,0.125
1480690464211112,0.3125,-0.5625,0.4375
1480690464241192,0,-0.625,0.25
1480690464247712,0.9375,-0.3125,-0.125
1480690464272275,1.125,-0.3125,0.0625
1480690464293832,2.125,-0.625,0.0625
1480690464307870,3.1875,-0.9375,0
1480690464330932,3.6875,-1.1875,-0.75
1480690464354494,4.375,-1.3125,-1.25
1480690464368030,4.75,-1.75,-1.125
1480690464391091,4,-1.75,-1.25
1480690464413651,3.875,-1.4375,-1.4375
1480690464434206,4.5,-1.625,-1
1480690464458269,3.5625,-2.125,-0.625
1480690464475314,5,-2.25,-0.75
1480690464494366,7,-2.75,-0.5625
1480690464510910,7.375,-3.0625,-0.5625
1480690464550515,7.6875,-3.1875,-0.5625
1480690464554525,7.5625,-3.0625,0.0625
1480690464571070,6.5,-2.4375,0.8125
1480690464593127,5.25,-1.625,1.75
1480690464614687,4.0625,-1.125,2.3125
1480690464630731,3.4375,-0.6875,2.625
1480690464653288,4.6875,-0.4375,3.3125
1480690464674344,3.375,-0.0625,3.875
1480690464691891,-0.625,0.0625,3.6875
1480690464713448,-2.4375,0.5,3
1480690464736009,-2.8125,1.0625,2.125
1480690464764588,-2.9375,0.75,1.8125
1480690464774110,-3,0.25,2
1480690464794664,-1.875,0.4375,0.6875
1480690464824744,-2.125,0.625,0.3125
1480690464833267,-2.875,0.1875,0.25
1480690464855827,-1.6875,-0.25,-0.0625
1480690464871370,-0.75,-0.25,-0.25
1480690464893427,0.9375,-0.25,-0.375
1480690464915986,2.0625,-0.25,-0.0625
1480690464931029,2.625,-0.3125,0
1480690464953587,2.875,0.0625,-0.5625
1480690464984669,3.5625,0.6875,-0.5625
1480690464990184,1.625,0.75,0.0625
1480690465013245,1.8125,0.25,-0.0625
1480690465044328,3.25,-0.25,-0.3125
1480690465052851,4,0.5625,-0.625
1480690465073907,3.3125,0.875,-1
1480690465096970,-0.375,1.0625,-0.875
1480690465117021,-2.125,1.625,-1.8125
1480690465133565,-1.4375,2.25,-2.4375
1480690465156126,-3.125,2.625,-1.9375
1480690465170163,-8.4375,2.875,-1.875
1480690465193224,-11.25,3.6875,-1.3125
1480690465215784,-11.5625,4.125,0.0625
1480690465238344,-11.0625,3.625,0.75
1480690465253383,-8.5625,3.125,-0.125
1480690465292487,-2.3125,2.0625,-0.5625
1480690465297002,0.5625,0.125,-0.0625
1480690465321063,0.9375,-1.0625,-0.8125
1480690465342120,2.125,-1.5,-2
1480690465357160,2.4375,-1.625,-1.4375
1480690465373204,2.25,-1.5625,-0.5625
1480690465395763,1.0625,-1.125,-0.625
1480690465416818,-1,-0.125,-1.0625
1480690465433362,-2.8125,0.375,-0.25
1480690465455923,-4.3125,0.3125,0.25
1480690465476984,-3.4375,0.875,-0.4375
1480690465493522,-3.3125,0.75,-0.6875
1480690465516082,-2.75,-0.0625,0.25
1480690465544659,-0.6875,-0.5,0.375
1480690465553682,1.5,-0.6875,0.25
1480690465576242,0.75,-0.75,0
1480690465598301,1.75,-1,0
1480690465613341,1.125,-1.125,0.75
1480690465643421,-0.0625,-1.125,0.625
1480690465656960,-0.625,-0.4375,0.125
1480690465681022,-0.4375,-0.0625,0.375
1480690465703581,-1.4375,-0.0625,0.9375
1480690465724637,-2.3125,0.1875,0.6875
1480690465733159,-2.4375,0.5,0.5625
1480690465763744,-2.875,0.4375,0.6875
1480690465776776,-2.6875,0.3125,0.4375
1480690465794824,-2.5625,0.25,0.5
1480690465815880,-3.0625,0,0.4375
1480690465845960,-2.0625,0,0
1480690465853480,-0.625,-0.3125,-0.0625
1480690465876541,0.6875,-0.3125,0.0625
1480690465898600,0.5625,-0.3125,0.125
1480690465919656,-0.25,-0.5625,0.0625
1480690465935698,-0.9375,-0.8125,0
1480690465958258,-0.3125,-1.125,0.125
1480690465986834,0.1875,-1,0.375
1480690465995860,0.875,-1,0.375
1480690466018418,1.5,-0.8125,-0.1875
1480690466040978,2.1875,-0.3125,-0.6875
1480690466071059,-0.1875,-0.6875,-0.25
1480690466078579,-2.8125,-0.75,-0.3125
1480690466101138,-1.5625,-0.4375,-0.625
1480690466116178,-0.1875,-0.4375,0
1480690466138237,0.875,-0.3125,0.125
1480690466152776,0.5625,-0.1875,-0.375
1480690466175837,1.5,0.125,-0.75
1480690466198396,-0.5625,-0.4375,0.125
1480690466213941,-2.25,-0.4375,0.0625
1480690466235998,-0.625,0.0625,-0.6875
1480690466258559,0.875,0.0625,-0.3125
1480690466272595,0.5625,0,0.125
1480690466295655,0.375,0.0625,-0.3125
1480690466318216,-0.5625,0.1875,-0.5
1480690466346795,-0.1875,0.0625,-0.25
1480690466356819,-0.1875,-0.125,0.25
1480690466378376,0.25,0.125,-0.3125
1480690466399432,1.8125,0.1875,-0.625
1480690466415976,1.625,0.125,0.125
1480690466438536,1.125,-0.1875,0.0625
1480690466460093,-0.1875,0,-0.3125
1480690466476637,0.3125,-0.0625,-0.1875
1480690466498194,-0.0625,-0.3125,0.375
1480690466519249,0.375,0.125,-0.125
1480690466535795,-0.5625,-0.0625,-0.3125
1480690466558354,-1.125,-0.125,-0.25
1480690466579410,0.1875,0.1875,-0.0625
1480690466595956,-0.125,0.0625,0.375
1480690466618514,-1.3125,0,0.4375
1480690466639573,-1.25,0.25,0.125
1480690466656114,0.625,0.375,0.125
1480690466678172,-0.125,-0.0625,0.8125
1480690466699229,-2,0.0625,0.4375
1480690466716775,0.0625,0.375,-0.25
1480690466738333,1.4375,0.1875,0.4375
1480690466761394,0.375,0,0.6875
1480690466777437,-1.875,0.0625,0.1875
1480690466798492,-1.6875,0.25,0
1480690466822557,0.1875,0.0625,0.625
1480690466851133,-0.25,-0.1875,0.625
1480690466858653,-0.0625,0.1875,-0.1875
1480690466880713,0.375,0.125,-0.0625
1480690466901769,-0.125,0,0.5
1480690466925831,-0.5,-0.0625,0.1875
1480690466940872,-0.25,0.1875,-0.3125
1480690466955410,0.8125,0.25,-0.125
1480690466978472,0.875,0.0625,0.1875
1480690467001032,0.5,-0.25,-0.125
1480690467015069,-0.6875,-0.1875,-0.375
1480690467038632,1.4375,0,-0.25
1480690467060689,3,-0.625,0.1875
1480690467075228,2.4375,-0.625,0.1875
1480690467098290,1.8125,-0.5,-0.5
1480690467128372,1.3125,0.0625,-0.25
1480690467135389,0.9375,0.125,0.5
1480690467158449,-0.1875,0.1875,0.75
1480690467181012,0.25,0.375,0.4375
1480690467195048,1.0625,0.0625,0.25
1480690467218610,1.5625,-0.3125,-0.25
1480690467241170,-0.4375,-0.625,-0.5625
1480690467261724,-0.625,-0.75,-0.4375
1480690467278268,0.4375,-0.5625,0.1875
1480690467301329,0.1875,-0.0625,-0.5
1480690467321884,0.6875,0.1875,-0.8125
1480690467344445,-0.6875,0.0625,0.25
1480690467361991,-2.1875,0,0.5
1480690467382044,-2.25,0.3125,-0.0625
1480690467398588,-0.625,0.1875,0.1875
1480690467421148,0.625,-0.0625,0.75
1480690467449223,1.1875,0.0625,-0.375
1480690467458247,0.375,0.1875,-0.75
1480690467481810,-1.75,-0.375,0.125
1480690467501863,-1.6875,-0.375,0.3125
1480690467518407,0.875,-0.0625,-0.125
1480690467540967,1.375,0,-0.0625
1480690467562023,1,0.125,-0.3125
1480690467586087,0.5,0.125,0
1480690467601128,-1.4375,-0.125,0.0625
1480690467622183,-1.9375,0,-0.25
1480690467651761,-0.4375,0,-0.125
1480690467660786,0.875,0.0625,-0.125
1480690467681843,1.0625,0.3125,-0.375
1480690467705405,-0.0625,0,-0.1875
1480690467721948,-1.5625,-0.25,-0.0625
1480690467743506,-0.625,0,-0.625
1480690467764563,0.4375,-0.0625,-0.4375
1480690467781607,0.3125,-0.1875,0.0625
1480690467804167,0.875,0,-0.0625
1480690467817703,0,0.0625,-0.5
1480690467840765,0.5,0.1875,-0.5
1480690467863826,-0.5625,-0.125,0.4375
1480690467877863,-0.6875,-0.125,0.3125
1480690467900925,0.75,0.25,-0.1875
1480690467929501,1.5,0.25,-0.25
1480690467938022,1.3125,0,0.0625
1480690467961085,-0.375,-0.25,-0.3125
1480690467985149,-1.1875,-0.125,-0.8125
1480690467998183,-1,-0.25,-0.5
1480690468021745,0.125,-0.3125,0
1480690468043302,1,0.0625,-0.3125
1480690468057841,0.375,0.1875,-0.1875
1480690468080905,-0.3125,0.0625,0.1875
1480690468103463,-1.6875,0,-0.125
1480690468118001,-1,0.125,-0.6875
1480690468141064,-1,-0.0625,-0.125
1480690468163637,-1,-0.0625,0
1480690468184177,-0.3125,0,-0.3125
1480690468201724,0.5625,0.0625,-0.125
1480690468224284,0.375,-0.0625,0.125
1480690468245842,-0.625,-0.0625,-0.125
1480690468262385,-0.4375,0,-0.5
1480690468283441,-0.875,-0.25,-0.125
1480690468313522,-0.5625,-0.25,0
1480690468321041,0.125,-0.0625,-0.375
1480690468343601,0.625,0,-0.4375
1480690468364657,-0.0625,-0.25,-0.0625
1480690468382204,-0.9375,-0.25,-0.0625
1480690468403260,0,0,-0.375
1480690468424316,-0.25,-0.1875,-0.25
1480690468440860,-0.375,-0.1875,-0.4375
1480690468463422,0,0,-0.5625
1480690468484476,-0.5625,-0.0625,-0.0625
1480690468500519,-0.75,-0.125,0.0625
1480690468523078,0.3125,-0.0625,-0.375
1480690468544636,0.6875,0,-0.6875
1480690468560682,1,-0.0625,-0.6875
1480690468583238,-0.875,-0.25,0.0625
1480690468604796,-1,-0.125,-0.5625
1480690468621339,0.1875,0,-0.625
1480690468650919,1.125,-0.25,-0.25
1480690468665959,0.875,-0.1875,0.125
1480690468681000,0.25,0,-0.375
1480690468704095,-0.0625,0,-0.3125
1480690468733639,0.125,-0.1875,0.0625
1480690468741159,0.625,-0.1875,0.1875
1480690468763721,0.375,-0.125,-0.375
1480690468785777,0.4375,0,-0.6875
1480690468800816,0.25,0,-0.25
1480690468824882,-0.375,-0.375,0.0625
1480690468845938,-0.5,-0.0625,-0.75
1480690468860476,-0.125,-0.0625,-0.8125
1480690468883537,-0.625,-0.25,0
1480690468906097,-0.3125,-0.25,0
1480690468927153,0.375,0,-0.1875
1480690468943195,0.5,0.0625,-0.1875
1480690468965756,0.125,0,-0.25
1480690468988316,-0.125,-0.125,-0.375
1480690469009372,-0.5,-0.3125,-0.0625
1480690469031933,-0.25,-0.125,0.125
1480690469040454,-0.0625,-0.125,-0.0625
1480690469063516,0.875,-0.125,-0.4375
1480690469086076,-0.25,-0.25,-0.3125
1480690469100113,-0.5,-0.1875,-0.1875
1480690469124686,-1.25,0,-0.125
1480690469153370,-1.125,0.125,-0.4375
1480690469168411,-1.375,0.375,-0.125
1480690469183450,-0.6875,0.125,0.1875
1480690469206010,-0.875,0,0.3125
1480690469227066,-0.25,0,-0.125
1480690469249626,-0.6875,0.0625,-0.4375
1480690469265669,0.625,0,-0.5625
1480690469286725,-0.4375,-0.375,0.25
1480690469303269,-0.4375,-0.1875,0.25
1480690469325828,0.125,0,-0.25
1480690469346888,0.5625,0.125,-0.6875
1480690469369445,0.375,0,-0.375
1480690469386492,-1,-0.3125,0.3125
1480690469407045,-0.6875,-0.3125,0.125
1480690469423589,0.3125,-0.0625,-0.375
1480690469452166,1.125,0,-0.625
1480690469467205,0.75,-0.125,-0.4375
1480690469483249,-1.5625,-0.4375,0.3125
1480690469506810,-2.1875,-0.25,0.0625
1480690469528368,0.25,0,0
1480690469543909,1.875,-0.125,-0.0625
1480690469566469,1.375,-0.25,-0.0625
1480690469594543,0.4375,-0.3125,-0.1875
1480690469603066,-1.1875,-0.5,-0.1875
1480690469626127,-0.8125,-0.5625,-0.5625
1480690469649691,0.25,-0.1875,-0.5
1480690469663229,1.3125,-0.1875,-0.0625
1480690469685787,0.625,-0.25,0.25
1480690469708345,0.5,-0.1875,-0.0625
1480690469730908,-0.0625,-0.125,-0.25
1480690469760985,0.5,-0.1875,0.0625
1480690469768509,-1,-0.3125,-0.0625
1480690469783045,-0.125,0,-0.4375
1480690469805604,0.0625,-0.25,0.0625
1480690469828164,0.6875,-0.25,0.0625
1480690469844207,0.6875,-0.1875,-0.375
1480690469865764,-0.25,-0.125,-0.375
1480690469904869,-0.125,-0.25,-0.1875
1480690469909380,-0.6875,-0.3125,0.0625
1480690469925924,-0.0625,-0.1875,-0.3125
1480690469949487,0.5625,0,-0.3125
1480690469963027,0.75,-0.125,0.125
1480690469986085,0.25,-0.3125,-0.3125
1480690470008669,-0.0625,-0.1875,-0.5
1480690470023684,0.0625,-0.4375,-0.1875
1480690470046749,-0.25,-0.5625,0.0625
1480690470068304,0.875,-0.3125,-0.625
1480690470090362,0.625,-0.125,-0.4375
1480690470105903,0.25,-0.5,0
1480690470128465,-0.0625,-0.5,-0.125
1480690470150021,0.5625,-0.25,-0.5625
1480690470166063,0.625,-0.25,-0.3125
1480690470188624,0.25,-0.125,-0.0625
1480690470209178,0.5,-0.1875,-0.1875
1480690470225722,0.625,-0.3125,-0.5
1480690470263823,1.125,-0.1875,-0.25
1480690470269839,1.375,-0.4375,-0.75
1480690470286884,0.6875,-0.5,-0.375
1480690470314458,-0.4375,-0.5625,-0.75
1480690470337018,0.25,-0.3125,-0.4375
1480690470346045,0.4375,-0.4375,0
1480690470368602,0.875,-0.3125,-0.1875
1480690470389657,1.3125,-0.125,-0.5
1480690470405700,0.6875,-0.3125,-0.1875
1480690470428261,-0.4375,-0.5,-0.375
1480690470451322,-1.125,-0.5625,-0.75
1480690470466362,-0.5625,-0.75,-0.5625
1480690470488421,1.625,-0.6875,-0.375
1480690470509476,2,-0.75,-0.1875
1480690470526020,0.6875,-0.625,-0.6875
1480690470555598,0.125,-0.5,-0.875
1480690470571141,-0.5,-0.75,-0.25
1480690470585679,-0.4375,-0.625,-0.25
1480690470614255,0.4375,-0.5,-0.6875
1480690470631300,1.3125,-0.375,-0.4375
1480690470646843,1.625,-0.5,-0.375
1480690470668399,1.25,-0.375,-0.5625
1480690470691460,-0.5,-0.625,-0.5
1480690470707003,-0.75,-0.6875,-0.625
1480690470728560,0.5625,-0.25,-0.625
1480690470751118,1.625,-0.5,-0.4375
1480690470765657,0.75,-0.4375,-0.25
1480690470788217,1.0625,-0.1875,-0.5625
1480690470810778,0.4375,-0.25,-0.375
1480690470833839,-0.375,-0.5,-0.625
1480690470848377,0.125,-0.375,-0.625
1480690470870939,0.375,-0.625,-0.5625
1480690470891994,1.3125,-0.5,-1
1480690470923577,1.4375,-0.375,-1.0625
1480690470931097,0.875,-0.4375,-0.5625
1480690470953156,0,-0.6875,-0.375
1480690470968196,0.125,-0.5625,-1.0625
1480690470990756,1.25,-0.3125,-1.0625
1480690471005295,1.1875,-0.5625,-0.3125
1480690471028357,0.0625,-0.5,-0.25
1480690471050916,0.375,-0.1875,-0.75
1480690471071972,0.0625,-0.375,-0.5
1480690471088518,1.3125,-0.5,-0.1875
1480690471111579,1.1875,-0.5,0.0625
1480690471132132,1,-0.3125,-0.5
1480690471148175,1.625,-0.1875,-0.25
1480690471171737,1.5625,-0.3125,0.25
1480690471193294,1.625,-0.5625,0.0625
1480690471208335,1.75,-0.125,-0.3125
1480690471230895,2,-0.25,-0.25
1480690471253456,0.875,-0.6875,0.4375
1480690471277017,0.5,-0.5625,-0.5
1480690471291055,1.8125,0,-0.9375
1480690471312111,0.625,-0.4375,0
1480690471334670,-0.625,-0.6875,0.25
1480690471350714,0,-0.4375,-0.4375
1480690471373274,0,-0.375,-0.5
1480690471388815,0.25,-0.5625,-0.5
1480690471411375,-0.1875,-0.625,-0.5
1480690471431930,0.5,-0.8125,-0.75
1480690471448473,0,-0.5625,-0.625
1480690471471033,1.25,-0.625,-0.4375
1480690471493092,0.5625,-0.8125,-0.4375
1480690471509636,0.375,-0.625,-0.8125
1480690471530692,0.4375,-0.75,-0.6875
1480690471568794,0.4375,-0.75,-0.375
1480690471571300,0.9375,-0.625,-0.5625
1480690471591353,0.9375,-0.1875,-0.5625
1480690471613913,0.625,-0.125,-0.0625
1480690471627951,-0.4375,0.0625,0.25
1480690471651013,-0.8125,0.125,0.0625
1480690471673572,-0.5,0.1875,0.3125
1480690471696135,0.9375,0.4375,0.375
1480690471712678,1.125,0.25,0.375
1480690471733230,0.5,0.1875,0.1875
1480690471747769,0.5,0.125,0
1480690471770831,-0.5625,-0.0625,-0.125
1480690471793391,-0.875,0,-0.75
1480690471808932,-0.4375,-0.0625,-0.5625
1480690471830991,-0.4375,-0.3125,0.25
1480690471860569,0,-0.0625,-0.3125
1480690471869092,0.875,0.1875,-0.4375
1480690471891150,0.0625,-0.1875,0.375
1480690471913211,-0.6875,-0.125,0.5
1480690471927748,-0.125,0.25,0.0625
1480690471950809,-0.25,0,0.3125
1480690471980890,-0.125,-0.1875,0.25
1480690472001947,0.5625,-0.125,0.0625
1480690472016484,0.125,-0.6875,0.0625
1480690472040046,-1.3125,-0.625,-0.375
1480690472062106,0.25,-0.1875,-0.875
1480690472070750,0.1875,-0.375,0.0625
1480690472093187,-0.5,-0.5625,0.3125
1480690472114245,-0.625,-0.1875,-0.1875
1480690472145828,0.1875,-0.0625,-0.0625
1480690472153347,0.6875,-0.25,0.5625
1480690472174404,-0.25,-0.1875,0.3125
1480690472190947,-0.6875,0.0625,-0.125
1480690472213508,0.3125,-0.0625,0.125
1480690472234563,0.5625,-0.0625,0.4375
1480690472252110,-0.0625,-0.0625,0
1480690472282692,-0.6875,0,-0.0625
1480690472294223,-0.5625,-0.0625,0.0625
1480690472310766,-0.375,0.0625,0
1480690472339845,-0.125,0.1875,-0.125
1480690472371427,-0.5,0,-0.0625
1480690472373934,-0.1875,0.1875,0.1875
1480690472393486,-0.5,0.125,0.25
1480690472416047,-1.0625,0.25,-0.125
1480690472431090,-0.0625,0.3125,-0.375
1480690472453144,-0.125,0.0625,0
1480690472475705,-0.125,-0.0625,0
1480690472490745,-0.5,-0.0625,0
1480690472513307,0.4375,0.25,-0.4375
1480690472536368,1.0625,0.125,0
1480690472556920,-0.4375,0,0.125
1480690472573966,-1,0.0625,-0.125
1480690472596526,-1.1875,0.0625,0.0625
1480690472618585,0,0.1875,0
1480690472639141,0.4375,0.0625,0.375
1480690472655683,0.5,0,0.4375
1480690472676740,0.3125,0,0.3125
1480690472701806,-0.1875,0.3125,0
1480690472715844,0.5625,0.125,-0.25
1480690472730382,-0.5,-0.1875,0.5
1480690472754446,-0.625,-0.1875,0.375
1480690472776003,-0.5,0,-0.375
1480690472790040,0.3125,0,-0.625
1480690472813603,-0.3125,-0.1875,-0.0625
1480690472836164,-0.625,-0.25,-0.0625
1480690472852707,-0.9375,0,-0.4375
1480690472873262,-1.1875,0,0
1480690472895824,-0.0625,-0.0625,0.1875
1480690472925902,0.4375,0.0625,0.125
1480690472933423,-0.1875,0.0625,-0.0625
1480690472955982,-1.125,0,-0.1875
1480690472979549,-1,0,0.0625
1480690472995086,0,0,0
1480690473015641,0.3125,0.125,-0.125
1480690473036698,0.5,0.0625,0.125
1480690473053240,-0.625,-0.0625,0.1875
1480690473075801,-0.5,0.1875,-0.3125
1480690473096857,-0.25,0.0625,0
1480690473113401,-0.8125,-0.1875,0.4375
1480690473135961,0.4375,0,-0.125
1480690473174062,0.375,0,-0.125
1480690473176570,0.3125,0,-0.125
1480690473203140,-0.8125,-0.375,-0.0625
1480690473216676,-0.9375,-0.1875,-0.5
1480690473233220,0.3125,-0.0625,-0.375
1480690473255780,0,-0.25,0.5
1480690473276835,0.3125,-0.0625,0
1480690473294384,0.4375,0.0625,-0.0625
1480690473315940,-0.1875,-0.125,-0.0625
1480690473337052,-1,0,-0.125
1480690473353546,-0.3125,-0.0625,-0.4375
1480690473376608,-1.0625,-0.1875,-0.0625
1480690473398165,-0.0625,0,-0.5625
1480690473419220,1.0625,0,-0.5
1480690473445290,0.25,-0.3125,-0.0625
1480690473458324,0.125,-0.1875,-0.1875
1480690473473366,-0.3125,0,-0.4375
1480690473496429,0.625,0,-0.3125
1480690473518485,0.8125,-0.125,0.1875
1480690473533023,0.4375,-0.25,0.1875
1480690473556084,0.625,0,-0.0625
1480690473585665,1,-0.1875,-0.3125
1480690473592681,-0.3125,-0.4375,-0.4375
1480690473621759,-0.5,-0.3125,-0.5625
1480690473638303,-0.125,-0.3125,-0.3125
1480690473652842,-0.125,-0.25,-0.25
1480690473675903,0.1875,-0.1875,-0.5
1480690473704479,0.8125,-0.0625,-0.5
1480690473727039,0.125,-0.1875,-0.1875
1480690473742079,-0.8125,-0.3125,-0.25
1480690473758623,-0.75,-0.25,-0.3125
1480690473772660,-0.1875,-0.125,-0.125
1480690473797226,1.3125,0,-0.0625
1480690473818282,1,-0.0625,0.0625
1480690473832820,0.0625,-0.25,-0.375
1480690473846357,-0.5,-0.25,-0.375
1480690473861397,-0.0625,-0.4375,-0.1875
1480690473891476,0.3125,-0.5,0
1480690473903509,0.6875,-0.125,-0.5
1480690473924063,0.8125,-0.0625,-0.6875
1480690473954143,-0.0625,-0.0625,-0.4375
1480690473961664,-0.6875,0,-0.25
1480690473981216,-1.125,-0.125,0.125
1480690474003776,-0.5,-0.0625,-0.125
1480690474022825,0.6875,0.0625,-0.5
1480690474048896,1.1875,-0.0625,-0.4375
1480690474063936,-0.4375,-0.3125,-0.125
1480690474089002,-0.5625,-0.3125,-0.4375
1480690474108554,-0.0625,-0.125,-0.4375
1480690474123594,0.625,-0.1875,-0.125
1480690474146158,0.375,-0.1875,-0.125
1480690474170217,0.5,-0.0625,-0.4375
1480690474183753,0.1875,-0.0625,-0.4375
1480690474206314,-0.5,-0.125,-0.125
1480690474222857,-0.5625,-0.3125,-0.0625
1480690474259957,0,-0.0625,-0.0625
1480690474274498,1,-0.1875,0
1480690474284021,0.125,0.0625,0
1480690474303573,0.6875,-0.125,-0.25
1480690474335659,-0.6875,-0.25,0.25
1480690474342676,-0.3125,-0.25,-0.25
1480690474363732,-0.25,-0.1875,-0.3125
1480690474389300,0.125,-0.5,-0.625
1480690474401332,-0.8125,-0.4375,-0.8125
1480690474423892,-0.9375,-0.5,-0.9375
1480690474448458,-1,-0.1875,-0.625
1480690474461492,-0.125,-0.3125,0
1480690474484054,-0.375,-0.0625,0.1875
1480690474507616,-0.3125,0.125,-0.4375
1480690474529177,-0.3125,0.0625,-0.25
1480690474551732,-1.4375,-0.3125,0.5
1480690474566271,-1,-0.125,0
1480690474581311,0.5625,0,-0.3125
1480690474603871,1.625,-0.125,-0.0625
1480690474626431,1.5,-0.3125,0.0625
1480690474642474,-0.125,-0.3125,-0.25
1480690474663529,-0.1875,-0.375,-0.625
1480690474686089,-0.6875,-0.3125,-0.1875
1480690474702634,0.1875,-0.25,0
1480690474731210,0.75,-0.125,0.0625
1480690474746249,1,0,0
1480690474761289,0.8125,0.0625,-0.25
1480690474785353,-1.0625,0,-0.5625
1480690474814431,-1.25,0,-0.5625
1480690474828971,-1.3125,-0.25,-0.125
1480690474844010,-0.375,0.1875,-0.4375
1480690474866068,1.125,0.4375,-0.875
1480690474884116,-0.125,-0.0625,-0.375
1480690474911188,-2.375,-0.25,-0.4375
1480690474926228,-2.0625,0.125,-0.75
1480690474942772,-1.25,-0.3125,-0.25
1480690474979870,-0.6875,-0.375,0.25
1480690474986387,-0.375,-0.25,0.25
1480690475002933,-0.875,-0.0625,-0.0625
1480690475034016,-0.1875,0,-0.1875
1480690475054569,-0.625,-0.0625,0.4375
1480690475062594,-0.5,-0.0625,0.25
1480690475083647,-0.0625,0.1875,-0.1875
1480690475106207,0.75,0.25,-0.0625
1480690475123251,0.75,0.0625,0.4375
1480690475143807,0.0625,0.0625,0.375
1480690475166368,0.125,0.125,-0.0625
1480690475182911,0.6875,0.0625,0.125
1480690475203966,1.0625,0,0.125
1480690475226527,0.125,-0.0625,0
1480690475257609,-1.125,0.125,-0.3125
1480690475263625,0.25,0.3125,-0.1875
1480690475286185,0.375,0.125,0.5
1480690475308745,0.375,0,0.4375
1480690475323785,-0.25,0.3125,-0.0625
1480690475346347,0.5,0.375,-0.125
1480690475369407,0.0625,0,0.4375
1480690475390964,-1.125,-0.0625,0.125
1480690475406004,-1.1875,0.125,-0.25
1480690475424052,0.375,0.0625,0.125
1480690475443604,1.1875,0.0625,0.1875
1480690475466164,0.5625,-0.0625,-0.25
1480690475484212,-0.25,0,-0.4375
1480690475506775,-0.625,-0.1875,-0.0625
1480690475533844,-0.1875,-0.25,0.25
1480690475560916,0.25,-0.3125,0.1875
1480690475563924,0.125,0.125,-0.25
1480690475586484,1.0625,0.25,-0.5
1480690475610046,0.4375,-0.0625,0.25
1480690475623583,-0.8125,-0.5625,0.25
1480690475646646,-0.375,-0.0625,-0.25
1480690475668703,1.9375,0.0625,-0.375
1480690475683743,2,0,0.0625
1480690475706302,0.4375,0,-0.4375
1480690475728865,-0.9375,0.125,-0.25
1480690475743903,-1,0.0625,0.1875
1480690475765962,0.5625,0,0.125
1480690475797544,0.5625,0.0625,-0.25
1480690475804063,1.625,0.1875,-0.25
1480690475826121,0.875,-0.125,0.375
1480690475848684,0.0625,-0.0625,0.0625
1480690475863721,-0.5,0,-0.3125
1480690475886280,-0.5,0.1875,-0.125
1480690475908841,0.0625,0.125,-0.25
1480690475925385,0.375,0,-0.125
1480690475946442,0.125,-0.1875,0.125
1480690475969001,0.375,-0.1875,0.375
1480690475985043,1.75,0,0.25
1480690476006100,1.5625,-0.0625,-0.1875
1480690476031668,1.1875,0,-0.25
1480690476045205,-0.125,-0.375,0.125
1480690476066259,-0.625,-0.3125,-0.0625
1480690476091827,0.0625,-0.3125,-0.1875
1480690476107870,1.25,-0.4375,-0.125
1480690476143967,2.1875,0,-0.4375
1480690476148979,1.1875,-0.1875,-0.0625
1480690476165022,-1.4375,-0.3125,0
1480690476189086,-1.0625,-0.0625,-0.25
1480690476208638,-0.625,-0.125,0.125
1480690476226690,0.8125,0.125,-0.0625
1480690476249246,0.8125,0.0625,0.3125
1480690476270304,0.3125,-0.0625,-0.125
1480690476286846,1.0625,0.125,-0.5625
1480690476309908,-0.1875,-0.25,0.0625
1480690476328958,-1.0625,-0.4375,0.25
1480690476346505,-0.5625,0,-0.375
1480690476371071,1.5,0.1875,-0.3125
1480690476388617,1.3125,-0.0625,0.5
1480690476408670,0.125,0,0.25
1480690476426217,-0.4375,0.1875,-0.375
1480690476448777,-0.5,-0.125,-0.125
1480690476466825,0.0625,-0.125,0
1480690476486879,0.1875,-0.25,0.125
1480690476508938,0,-0.0625,-0.5
1480690476527486,0.875,0.0625,-0.3125
1480690476562580,0.4375,-0.25,0.25
1480690476568596,-0.5,-0.125,-0.125
1480690476586643,0.375,-0.0625,-0.4375
1480690476616724,0.25,-0.0625,0.0625
1480690476647306,0.6875,-0.125,0.1875
1480690476651817,0.4375,0,0.5
1480690476666356,0.3125,-0.0625,0.0625
1480690476688916,0.3125,0.25,-0.4375
1480690476706463,0.75,0.0625,-0.3125
1480690476726013,-0.75,-0.4375,0.625
1480690476750079,-0.8125,-0.3125,0.375
1480690476766622,0.625,0.1875,-0.3125
1480690476786174,1.875,0.25,-0.4375
1480690476808734,0.5,-0.1875,0.125
1480690476833300,-1.25,-0.1875,0.5
1480690476847838,-0.6875,-0.125,0.0625
1480690476868895,0.4375,0,-0.125
1480690476893961,0.875,-0.25,-0.25
1480690476907496,0.125,-0.5,-0.1875
1480690476928553,-0.9375,-0.5,-0.1875
1480690476946601,-1.0625,-0.3125,-0.3125
1480690476967657,0.3125,-0.125,-0.0625
1480690476990216,0.5,-0.125,0.375
1480690477006760,0.375,-0.0625,0.125
1480690477027817,-0.1875,0.125,0.0625
1480690477048872,-0.3125,-0.0625,0.0625
1480690477068425,0.1875,0.0625,0.375
1480690477088979,0.5625,0,0.375
1480690477111038,0.75,0.0625,-0.1875
1480690477131091,0.9375,0,-0.1875
1480690477147635,-0.25,-0.25,0.25
1480690477168693,-0.375,-0.25,0.125
1480690477191251,0,-0.3125,0
1480690477209300,0.9375,0,-0.25
1480690477228852,1.125,0.125,-0.1875
1480690477251411,0.0625,-0.125,0
1480690477268958,-1.375,-0.6875,-0.125
1480690477288510,-2.5,-1.625,-0.3125
1480690477314079,-3.125,-1.8125,-0.3125
1480690477342654,-1.625,-1.25,-0.25
1480690477348670,-1,-0.8125,-0.1875
1480690477371234,-0.25,-0.4375,-0.3125
1480690477389278,0.8125,-0.1875,0
1480690477408829,0.875,0,0.0625
1480690477431390,1.375,0.375,-0.25
1480690477448937,1.3125,0.3125,0.0625
1480690477470494,1.1875,0.4375,0
1480690477493555,1.125,0.375,0
1480690477509096,0.1875,0.3125,0.125
1480690477528648,0.8125,0.3125,-0.125
1480690477551209,0.9375,0.0625,0.1875
1480690477572265,0.875,0.125,0.1875
1480690477589310,0.5625,0.1875,0.0625
1480690477614377,0.6875,0.25,-0.25
1480690477628915,0.0625,-0.4375,-0.1875
1480690477648969,-1.0625,-1,-0.0625
1480690477671529,-1.125,-1.0625,-0.125
1480690477696595,-0.3125,-0.8125,-0.0625
1480690477708627,-0.1875,-0.5625,-0.5
1480690477731187,0.4375,-0.625,-0.5625
1480690477753747,-0.75,-0.5,0
1480690477768788,0.4375,-0.0625,-0.0625
1480690477791347,0.75,0.125,0
1480690477808893,0.6875,0.0625,0.125
1480690477830952,0.875,0.0625,0.125
1480690477854014,0.375,0.1875,0.3125
1480690477870570,0.125,0.125,0.25
1480690477891614,0.625,0.0625,0.5625
1480690477912671,1.375,0,0.1875
1480690477933738,1.375,0.3125,-0.3125
1480690477950270,1,0.125,-0.125
1480690477978847,-0.375,-0.4375,0.5625
1480690478004915,-0.4375,-0.4375,0.1875
1480690478024969,0.75,-0.1875,-0.3125
1480690478030984,2.25,-0.0625,-0.375
1480690478055048,1.3125,-0.125,0.375
1480690478077609,-1,0,0.25
1480690478091144,-1.25,-0.0625,-0.0625
1480690478109192,-0.625,0.1875,-0.1875
1480690478132253,1.3125,0.0625,-0.3125
1480690478158824,0.625,-0.1875,-0.0625
1480690478169353,-0.0625,-0.1875,-0.4375
1480690478191912,0,-0.1875,-0.1875
1480690478211464,0.1875,-0.25,0.0625
1480690478229011,0.9375,0,-0.125
1480690478251572,0.375,-0.0625,0.1875
1480690478271123,0.5625,-0.125,-0.1875
1480690478293685,0.8125,-0.125,-0.3125
1480690478312233,0.4375,-0.375,-0.125
1480690478331283,-0.3125,-0.4375,0
1480690478349331,0.4375,-0.3125,-0.125
1480690478373394,0.75,-0.1875,-0.0625
1480690478392950,0.9375,-0.25,0
1480690478415005,0.625,-0.1875,-0.0625
1480690478431550,1.0625,0.0625,0
1480690478451102,0.4375,-0.1875,0
1480690478476670,-0.4375,-0.3125,-0.375
1480690478505246,0.0625,-0.4375,-0.1875
1480690478511263,0.8125,-0.6875,0
1480690478529810,0.25,-0.625,-0.3125
1480690478553373,0.8125,-0.25,-0.6875
1480690478571423,1.125,-0.375,-0.3125
1480690478588967,0.3125,-0.375,0.0625
1480690478612033,-0.4375,-0.4375,0.125
1480690478631080,0.1875,-0.25,0.125
1480690478654642,0.625,-0.25,0
1480690478671688,0.25,-0.125,-0.1875
1480690478691239,0.8125,-0.1875,-0.125
1480690478713800,0,-0.125,0.1875
1480690478731848,-0.1875,-0.0625,0.375
1480690478754408,-0.625,-0.25,0.0625
1480690478773458,0.5,-0.25,-1
1480690478806046,1.9375,-0.5625,-0.875
1480690478814067,-0.25,-1,0
1480690478836627,-0.25,-0.8125,-0.6875
1480690478856178,0.75,-0.375,-0.625
1480690478873224,1.875,-0.25,-0.375
1480690478893779,1.0625,-0.0625,-0.125
1480690478911828,-1.1875,0.0625,-0.375
1480690478936893,-2.125,-0.0625,-0.5
1480690478953938,-1,-0.125,-0.125
1480690478977502,1.375,-0.125,-0.25
1480690478993042,1.625,-0.125,-0.5625
1480690479013597,0.9375,-0.125,-0.5625
1480690479031646,-0.0625,-0.1875,-0.125
1480690479052701,-0.5,-0.125,-0.1875
1480690479076765,-0.625,0,-0.5
1480690479091805,0.4375,0.1875,-0.125
1480690479115870,1.25,0.0625,0.25
1480690479141437,1.5625,0.1875,0
1480690479157480,0.5625,0.0625,-0.1875
1480690479175027,0,0.0625,0.25
1480690479193576,-0.125,0.0625,0.3125
1480690479219143,0.5625,0.0625,-0.0625
1480690479234184,1.125,-0.0625,-0.0625
1480690479253735,0.0625,-0.1875,-0.0625
1480690479271783,0.625,-0.125,-0.3125
1480690479294347,-0.1875,-0.25,0
1480690479313895,0.4375,-0.25,-0.0625
1480690479331442,0.375,0,0.0625
1480690479362028,0.375,-0.125,0.3125
1480690479373555,0.1875,-0.125,0.1875
1480690479391602,0.25,-0.25,0.3125
1480690479415166,0.625,-0.25,0.375
1480690479433714,1.125,-0.5,0.5
1480690479451762,1.5,-0.5625,0.3125
1480690479474322,4.0625,-1.125,0.375
1480690479501396,6.0625,-1.8125,0.8125
1480690479524956,7.5625,-2.5625,0
1480690479534984,6.125,-2.625,-0.5
1480690479556541,5.6875,-2.1875,-0.5
1480690479571582,3.8125,-1.75,0.1875
1480690479594142,1.8125,-1.0625,0.3125
1480690479616701,0.375,0,-0.1875
1480690479631741,-0.4375,0.6875,0.375
1480690479655303,-1.5625,0.5,0.5
1480690479673852,-1.75,0.625,0.4375
1480690479694408,-1.5,0.3125,0.5
1480690479713961,0.125,0.0625,0.4375
1480690479735016,1,-0.0625,0.25
1480690479751560,0.6875,0.125,0.0625
1480690479774120,0.25,0.25,0.3125
1480690479801191,-1.25,0.4375,0.6875
1480690479811722,-1.5,0.8125,0.3125
1480690479835284,-1.625,0.875,0.4375
1480690479855336,-1.125,0.75,0.75
1480690479886920,-0.9375,0.875,0.75
1480690479894443,-1,0.75,0.3125
1480690479916499,-0.25,0.75,0.4375
1480690479939059,-0.75,0.4375,0.75
1480690479961619,-0.8125,0.25,0.625
1480690479975154,-0.5625,0.5625,0.375
1480690479991698,-1.1875,0.375,0.125
1480690480022781,-2.125,0.75,0.0625
1480690480036819,-0.125,0.3125,0.0625
1480690480051857,-0.625,0.25,0.625
1480690480081437,-1.25,0.125,0.125
1480690480113020,-0.125,0.3125,0.0625
1480690480117532,0.5,0.0625,0.375
1480690480136091,-0.1875,0,0.375
1480690480164658,-0.5625,0.0625,-0.0625
1480690480176189,-0.3125,0.125,0
1480690480194237,0.0625,-0.0625,0.1875
1480690480224317,0.125,0.125,0.125
1480690480236348,0,0.25,0.125
1480690480254397,0.0625,0.125,0.4375
1480690480276456,-0.625,0.0625,0.125
1480690480296007,-0.25,0.25,-0.3125
1480690480319569,-0.0625,0.3125,0.0625
1480690480337116,-0.125,0.1875,0.375
1480690480357170,0,0.4375,0.1875
1480690480373212,0.1875,0.4375,-0.0625
1480690480395773,0.125,0.0625,0.0625
1480690480416829,-0.375,0.25,-0.125
1480690480433874,-0.25,0.25,-0.25
1480690480455932,-1,0.125,0.1875
1480690480476989,-0.8125,0.1875,0.125
1480690480493532,0.6875,0.4375,-0.125
1480690480516093,0.625,0.0625,0.0625
1480690480537149,0.3125,0.1875,-0.25
1480690480554196,-0.4375,0.125,-0.25
1480690480583272,-0.375,0,0.0625
1480690480596807,-0.25,0.125,0.25
1480690480613351,0.9375,0.3125,0.125
1480690480635917,1,0.375,0.5625
1480690480656466,0.875,0.25,0.4375
1480690480673512,1.3125,0.4375,0.375
1480690480695570,0.5,0.0625,0.5625
1480690480718631,0.375,0.0625,0.3125
1480690480746706,-0.3125,-0.0625,-0.3125
1480690480755730,-0.5,-0.0625,-0.4375
1480690480776786,-0.5,-0.1875,0.1875
1480690480801353,-0.25,0,0
1480690480815890,0,0,-0.3125
1480690480836946,0.4375,0.0625,-0.25
1480690480852487,-0.125,0,-0.0625
1480690480876552,-0.75,0,0.0625
1480690480913650,-1.375,0.0625,-0.125
1480690480916157,-0.9375,0.25,0
1480690480935709,0.5,0.125,0.3125
1480690480964284,1,0.0625,0.1875
1480690480976817,0.25,0.3125,-0.1875
1480690480995868,-0.8125,0.125,-0.125
1480690481024444,-0.9375,0,0.1875
1480690481033468,-0.625,0.0625,0.0625
1480690481056028,0,0,-0.1875
1480690481078088,0.625,0.1875,-0.125
1480690481099644,0.625,0.25,0.125
1480690481116689,-0.125,0,0.125
1480690481138247,-1.25,0,-0.1875
1480690481160809,-0.5625,0,-0.3125
1480690481176349,0.6875,0,-0.125
1480690481198407,1.375,0,0.1875
1480690481212946,0.1875,0.0625,-0.0625
1480690481236508,0.1875,0.0625,-0.375
1480690481258065,-0.5625,-0.125,-0.25
1480690481273608,-0.25,-0.1875,-0.3125
1480690481295665,-0.25,0,-0.125
1480690481318225,0.6875,0,-0.25
1480690481332764,1.25,0.0625,-0.25
1480690481363346,0.5625,0.0625,-0.25
1480690481378887,0,-0.125,0.125
1480690481392926,-0.375,-0.25,0.125
1480690481415985,-0.0625,0,-0.375
1480690481438044,0.6875,0.0625,-0.125
1480690481468125,0.8125,0,0.25
1480690481482161,0.625,-0.0625,0.375
1480690481498204,0,-0.1875,0
1480690481521766,-0.25,-0.125,-0.375
1480690481535805,-0.25,-0.125,-0.125
1480690481558364,-0.6875,-0.125,-0.125
1480690481579421,0.3125,0.25,-0.25
1480690481603484,0.125,0.125,0.375
1480690481618525,0.1875,0.0625,0.4375
1480690481639580,0.25,0.125,0.125
1480690481655622,-0.1875,0,0
1480690481692723,-0.375,-0.125,0.125
1480690481699239,-0.125,-0.25,0.375
1480690481716284,0.0625,-0.25,-0.0625
1480690481738343,1.125,-0.125,-0.3125
1480690481759400,1.0625,-0.3125,0.25
1480690481775943,0.375,-0.375,0.3125
1480690481806023,0,-0.125,-0.125
1480690481819058,-0.125,-0.25,-0.0625
1480690481837606,0.3125,-0.125,-0.125
1480690481859164,0.75,0,-0.125
1480690481880722,0.125,0,0.0625
1480690481895762,-0.6875,-0.0625,0.1875
1480690481918321,-0.375,0.0625,0
1480690481940882,0,0,-0.125
1480690481955922,0.375,-0.125,-0.25
1480690481978481,-0.1875,0,0.0625
1480690482002546,-0.1875,-0.0625,0
1480690482016583,-0.625,0,-0.1875
1480690482038140,0.4375,0.0625,-0.375
1480690482060701,0,-0.25,0.1875
1480690482075740,0.625,-0.25,0.375
1480690482098801,1.25,-0.25,0.375
1480690482120860,1.6875,-0.3125,-0.0625
1480690482135399,1.4375,-0.375,-0.625
1480690482165980,1.25,-0.3125,-0.3125
1480690482181020,0,-0.5625,0.4375
1480690482195057,-0.3125,-0.4375,0.3125
1480690482218119,1,-0.125,0
1480690482240681,2.3125,0.0625,-0.0625
1480690482255217,2.25,-0.125,-0.125
1480690482278278,-0.8125,-0.4375,-0.1875
1480690482333927,-1.6875,-0.5625,-0.375
1480690482338940,-1.0625,-0.5,0
1480690482341447,0.6875,-0.5,-0.1875
1480690482362503,1.8125,-0.25,-0.5
1480690482390577,0.9375,-0.1875,-0.5
1480690482398097,-0.375,-0.25,-0.1875
1480690482420657,-1.125,-0.4375,0
1480690482441713,-1.125,-0.5,0
1480690482465778,0.625,0.0625,-0.25
1480690482480819,1.625,-0.1875,0
1480690482501874,1.375,-0.3125,0
1480690482517916,0.4375,-0.375,-0.25
1480690482540977,0.3125,-0.1875,-0.375
1480690482569554,0.1875,-0.4375,0
1480690482578577,-0.25,-0.4375,0
1480690482609159,0.5,-0.1875,-0.5
1480690482638737,0.6875,-0.0625,-0.125
1480690482641244,0.875,-0.3125,0.1875
1480690482662299,0.0625,-0.125,-0.1875
1480690482689371,0.1875,0.125,-0.625
1480690482698897,-0.125,0.0625,-0.0625
1480690482720955,-0.625,-0.25,0.3125
1480690482749531,-0.9375,-0.125,-0.3125
1480690482758054,1.5,0,-0.5625
1480690482781116,1.1875,-0.4375,0.0625
1480690482801670,0.4375,-0.375,-0.4375
1480690482818214,0.25,-0.4375,-0.375
1480690482848294,0.5,-0.625,0.0625
1480690482861832,0.5625,-0.4375,-0.25
1480690482885895,1.4375,-0.25,-0.4375
1480690482906449,0.875,-0.375,-0.125
1480690482922992,-0.125,-0.4375,0
1480690482938534,-0.125,-0.25,-0.625
1480690482962097,0.5,-0.3125,-0.5
1480690482983153,1.0625,-0.5625,0
1480690482998694,0.8125,-0.4375,-0.25
1480690483020753,1.5625,-0.125,-0.5
1480690483043313,1.125,-0.5,0.0625
1480690483057851,0.375,-0.5,0.125
1480690483080913,0.25,-0.3125,-0.625
1480690483103552,0,-0.1875,-0.6875
1480690483126033,-0.125,-0.3125,-0.125
1480690483141073,0.25,-0.1875,0.3125
1480690483163132,1.125,0.125,-0.125
1480690483184188,0.625,0.125,-0.1875
1480690483201735,-0.0625,0.125,0.125
1480690483223291,-1,-0.125,0.1875
1480690483245852,-0.875,0.0625,-0.0625
1480690483260893,-0.375,0,-0.0625
1480690483283953,1.1875,-0.0625,0.25
1480690483297489,1.5,-0.1875,0.1875
1480690483321051,0.875,0.0625,-0.1875
1480690483344116,-0.4375,-0.0625,0.0625
1480690483357649,-1.0625,-0.375,0.25
1480690483380710,-0.125,-0.1875,0.25
1480690483417809,0.5625,-0.25,0.25
1480690483424326,1.5,0.0625,-0.0625
1480690483440871,1.125,0.0625,-0.125
1480690483462928,-0.625,-0.25,0.375
1480690483484487,-1.5625,-0.0625,0.3125
1480690483501532,-0.6875,0.125,0.125
1480690483523088,0.5625,0.0625,0.125
1480690483545649,0.875,0,0.0625
1480690483560690,-0.125,0.125,0
1480690483583248,-0.8125,-0.0625,0.125
1480690483604304,-0.375,-0.125,0.0625
1480690483620848,0.1875,-0.0625,-0.1875
1480690483645416,0.625,0.125,0
1480690483664465,0.125,-0.0625,0.25
1480690483694544,-0.0625,0.0625,0.125
1480690483717607,0.0625,0,-0.125
1480690483724123,0.6875,0.0625,0
1480690483740667,0.1875,-0.125,0.375
1480690483763729,0.125,-0.0625,0.0625
1480690483784283,1,0.25,0.0625
1480690483801330,0.5625,0.0625,0.1875
1480690483823387,0.625,-0.1875,0.125
1480690483845947,-0.1875,-0.3125,-0.1875
1480690483860989,-0.5,-0.25,-0.3125
1480690483884550,-0.3125,-0.375,0
1480690483905606,0.9375,-0.125,-0.0625
1480690483920646,1.0625,0.125,-0.0625
1480690483944710,-0.0625,0.125,0.0625
1480690483973286,0,0.125,0.1875
1480690483980305,-0.5625,0,0.375
1480690484003366,-1,0.125,0.0625
1480690484025927,-0.25,0.1875,0.3125
1480690484040465,0.9375,-0.0625,0.5625
1480690484063025,1.375,0,0.25
1480690484085584,0.8125,0.1875,-0.375
1480690484101126,-0.3125,-0.125,-0.125
1480690484130704,-1.125,-0.375,0.25
1480690484145746,-1.0625,-0.1875,0
1480690484160287,0.5625,-0.0625,-0.125
1480690484191366,1.625,0.1875,0.25
1480690484221948,1.3125,0.1875,0.25
1480690484226966,0,0.125,0.25
1480690484251025,-0.8125,0,0.4375
1480690484273084,0.3125,0.125,0.25
1480690484280102,1.5,0.0625,-0.125
1480690484304243,0.625,0.0625,-0.25
1480690484331739,0.8125,0.125,-0.25
1480690484346779,0.375,-0.0625,0.3125
1480690484363323,0.375,-0.0625,0.1875
1480690484385882,0.6875,0.1875,-0.1875
1480690484414458,1,0.375,-0.1875
1480690484423483,0.5625,0.375,0.125
1480690484447547,-0.4375,0.125,0.125
1480690484468102,-1.5,0.125,0.1875
1480690484483142,0,0.3125,0.0625
1480690484505701,1.0625,0.375,0
1480690484528763,0.4375,0.1875,-0.0625
1480690484544806,-0.6875,0.0625,0
1480690484567366,-0.75,0.125,0.25
1480690484586917,-0.3125,0,0
1480690484605467,1,0.125,-0.125
1480690484626023,0.75,-0.0625,0.0625
1480690484646576,0.125,0,0.0625
1480690484663120,0.125,0.0625,-0.0625
1480690484685680,-0.25,0.0625,-0.125
1480690484706737,-0.125,0,-0.3125
1480690484723280,-0.25,0.125,-0.125
1480690484745840,0.1875,-0.0625,0
1480690484774416,-0.1875,-0.125,0.125
1480690484783440,0.3125,0.125,-0.125
1480690484806000,1,0.1875,0.125
1480690484828560,0.1875,-0.125,0.3125
1480690484843602,0.0625,0.1875,-0.125
1480690484865662,0,0.125,-0.125
1480690484888219,0,0.0625,0.125
1480690484903260,-0.375,0,0
1480690484925819,-0.375,-0.0625,-0.25
1480690484948378,0.3125,0.125,-0.3125
1480690484962416,0.625,0,0
1480690484993502,0.0625,0,0.3125
1480690485024581,-0.4375,0,0.125
1480690485029093,0.25,0.25,-0.125
1480690485045638,0.3125,0.125,0
1480690485068198,-0.1875,-0.0625,-0.3125
1480690485082736,-0.25,0,0.0625
1480690485107302,-0.125,-0.25,0.3125
1480690485128357,0.9375,0.125,-0.125
1480690485149414,1.1875,0.0625,-0.25
1480690485165958,0.3125,0,0.0625
1480690485188517,0.0625,0,0.1875
1480690485203557,-0.0625,-0.125,0.375
1480690485225617,-0.5625,0.125,-0.0625
1480690485248176,1,0.1875,-0.3125
1480690485270736,0.125,-0.0625,0.0625
1480690485300817,-0.25,-0.125,0.0625
1480690485308336,-0.875,0,0.5
1480690485330897,0,-0.0625,0.25
1480690485351952,1.75,0.1875,0.0625
1480690485368496,1.625,0.0625,0.4375
1480690485389552,-0.8125,-0.25,0.625
1480690485405595,-1.0625,0,-0.25
1480690485428154,-1.3125,-0.125,-0.1875
1480690485449211,-0.875,-0.25,0.0625
1480690485465755,0.5,0.0625,0.125
1480690485488314,0.0625,-0.0625,0.0625
1480690485516891,-0.25,0.0625,-0.25
1480690485525915,-0.6875,-0.25,0.3125
1480690485548474,-1.1875,-0.3125,0.5625
1480690485578555,-0.0625,0,-0.125
1480690485585573,0.5625,0.1875,-0.0625
1480690485608635,0.75,-0.0625,0.4375
1480690485629190,0.5625,-0.125,0.5625
1480690485646736,-0.125,-0.0625,0
1480690485668294,-0.125,-0.0625,-0.125
1480690485689349,-0.3125,-0.375,0.25
1480690485711909,0.375,-0.3125,0.125
1480690485728453,0.75,-0.0625,0.1875
1480690485751013,0.375,0,0
1480690485773072,0.75,0.25,-0.4375
1480690485796135,-0.25,0,0.125
1480690485810677,-1.0625,-0.125,0.3125
1480690485825712,-0.875,0.0625,0.1875
1480690485855791,0.75,0.125,-0.3125
1480690485887376,1.6875,0,-0.3125
1480690485891889,0.1875,-0.0625,-0.25
1480690485908432,-0.5,-0.0625,-0.25
1480690485940017,-0.5,-0.125,0.0625
1480690485945029,0.25,-0.25,0.0625
1480690485968593,1.4375,0.125,-0.4375
1480690485990650,1.9375,0.0625,-0.1875
1480690486005190,0.375,-0.25,0.4375
1480690486028250,-0.25,-0.0625,0.1875
1480690486050811,-0.0625,-0.0625,-0.0625
1480690486080891,0.75,0.0625,-0.375
1480690486102448,1.375,0,-0.25
1480690486110972,-0.0625,-0.3125,0.0625
1480690486125008,-0.6875,-0.1875,-0.375
1480690486148069,0.9375,-0.125,-0.5
1480690486171634,1.0625,-0.4375,-0.0625
1480690486193193,0,-0.5,-0.5
1480690486215749,-0.5,-0.4375,-0.9375
1480690486230789,-0.6875,-0.5,-0.25
1480690486259365,0.3125,-0.5,-0.125
1480690486269897,0.6875,-0.1875,-0.25
1480690486298469,1.125,0,-0.5
1480690486311503,0.75,-0.25,0.3125
1480690486328047,-0.5,-0.4375,0.5
1480690486358127,-0.625,-0.1875,0.0625
1480690486379184,0.125,-0.0625,-0.0625
1480690486389210,0.5,-0.0625,-0.125
1480690486410768,0.6875,-0.375,0
1480690486432325,0.125,-0.3125,0.3125
1480690486455887,-0.3125,-0.4375,-0.0625
1480690486470928,0.5625,0,-0.25
1480690486491985,0.875,-0.3125,0.0625
1480690486508026,-0.25,-0.375,0.1875
1480690486530586,-0.5,0,-0.25
1480690486552645,-0.0625,-0.0625,0
1480690486576209,0,-0.125,0.25
1480690486604785,-0.1875,0.125,0.0625
1480690486611802,-0.1875,0.0625,0
1480690486634363,0.1875,0,-0.1875
1480690486651910,0.0625,-0.1875,-0.1875
1480690486671962,-0.4375,-0.1875,0
1480690486688506,0.1875,-0.1875,-0.125
1480690486711066,0.6875,0.1875,-0.125
1480690486733134,1.25,-0.125,-0.0625
1480690486748165,0.125,-0.1875,0.25
1480690486771227,0.8125,-0.0625,-0.125
1480690486793288,0.25,-0.25,-0.1875
1480690486807823,0.8125,-0.25,-0.25
1480690486832890,0.0625,-0.3125,0
1480690486853444,0.625,-0.1875,0.0625
1480690486874000,1.0625,-0.125,0.1875
1480690486891044,0.625,0.125,-0.125
1480690486913104,1.5,0.25,-0.375
1480690486927642,1.0625,0,0.25
1480690486951205,0.3125,-0.3125,0.125
1480690486973263,0.5625,-0.3125,-0.125
1480690486987803,0.4375,-0.625,-0.3125
1480690487010863,0.25,-0.4375,-0.6875
1480690487033924,0.25,-0.625,-0.625
1480690487047962,-0.4375,-0.5,-0.25
1480690487071024,0.125,-0.25,-0.1875
1480690487103109,0.5,-0.3125,0.125
1480690487107620,0.875,-0.3125,-0.0625
1480690487132186,0.9375,0,-0.375
1480690487160762,-0.125,-0.0625,-0.3125
1480690487174298,-1,-0.125,0
1480690487190842,-0.6875,-0.5625,0.4375
1480690487213401,1.3125,-0.5625,0.625
1480690487234458,1.875,-0.5,-0.1875
1480690487251504,1.4375,-0.4375,-0.5
1480690487273060,-0.5625,-0.4375,0.125
1480690487294618,0.0625,-0.625,0.0625
1480690487326705,1.0625,-0.5,-0.6875
1480690487333220,2.4375,0,-0.875
1480690487354277,2.4375,0.125,-0.5625
1480690487370821,-0.5625,0.0625,-0.3125
1480690487393382,-1.75,0.125,-0.4375
1480690487414437,-1,-0.0625,0.0625
1480690487430980,0.875,-0.0625,-0.125
1480690487459059,1.875,0.25,-0.625
1480690487491140,1.25,0.1875,-0.3125
1480690487493647,-0.375,0,0.125
1480690487513199,-1.0625,0,0.0625
1480690487534255,-0.75,0.0625,0.125
1480690487550800,0.3125,0.1875,-0.0625
1480690487573861,1.375,0.3125,-0.0625
1480690487594415,0.5,0.1875,0.1875
1480690487610960,-0.5,-0.125,0.375
1480690487633519,-1.0625,0,0.25
1480690487657081,0.875,-0.0625,0.25
1480690487672624,1.1875,0.0625,0.5625
1480690487693189,0.6875,0.0625,-0.0625
1480690487716742,0.25,0.0625,-0.375
1480690487736794,-0.375,-0.3125,0.375
1480690487753839,-0.8125,-0.4375,0.6875
1480690487775899,-0.1875,-0.1875,-0.125
1480690487796954,0.625,-0.1875,-0.375
1480690487813497,0.3125,-0.25,0
1480690487842074,-0.0625,-0.1875,0.1875
1480690487857113,-1.0625,-0.0625,0.1875
1480690487879173,-0.8125,0.125,0.375
1480690487895717,-0.125,0.0625,0.3125
1480690487910257,0.6875,0.0625,-0.125
1480690487934320,-0.5625,0,0.25
1480690487964399,-0.75,-0.1875,0.3125
1480690487971919,-0.8125,0,0.375
1480690487993476,0.625,0.1875,-0.0625
1480690488016036,1.4375,0.125,0.3125
1480690488030074,0.4375,-0.0625,0.375
1480690488053134,-1,-0.0625,-0.0625
1480690488075695,-0.75,0.0625,-0.125
1480690488090234,-0.0625,-0.1875,0.3125
1480690488114799,0.3125,-0.0625,0.1875
1480690488135856,0.6875,0.375,-0.25
1480690488156911,0.0625,0.1875,0.3125
1480690488174959,-0.5,0.125,0.5625
1480690488198020,-0.5625,0.125,-0.0625
1480690488217572,0.4375,0.125,-0.25
1480690488240633,0.1875,-0.0625,0
1480690488255674,0.3125,0.1875,-0.125
1480690488276730,0.6875,0,-0.0625
1480690488293274,0,-0.125,0.3125
1480690488315834,0.5,-0.0625,0.0625
1480690488336891,0.5625,0.125,-0.1875
1480690488353433,0.625,0.125,0
1480690488383514,0.125,-0.0625,0.0625
1480690488404570,0.6875,0.125,0.25
1480690488414095,0.875,0,0.3125
1480690488435653,0.4375,0.0625,-0.125
1480690488464229,0.5,0.125,-0.4375
1480690488473253,-0.375,0,0.125
1480690488495812,-0.5625,-0.1875,0.375
1480690488516868,0.0625,0.0625,-0.0625
1480690488533412,1.9375,0.5,-0.1875
1480690488555972,1.5625,0,0.375
1480690488578532,-0.0625,-0.0625,0.125
1480690488599588,-1.25,-0.125,-0.3125
1480690488617134,-1.75,-0.1875,0.0625
1480690488639194,-0.0625,-0.0625,0
1480690488659248,1.4375,0.125,-0.0625
1480690488676795,1.4375,0.0625,-0.1875
1480690488699353,-0.25,-0.0625,0.125
1480690488712890,-0.8125,-0.125,0.25
1480690488743474,-0.875,-0.0625,0.5
1480690488758511,-0.4375,0.125,0.1875
1480690488772550,1.0625,0.4375,0.0625
1480690488795610,0.6875,0,0.4375
1480690488824185,0.125,-0.0625,0.3125
1480690488832712,-0.375,0.0625,-0.0625
1480690488855770,-0.0625,0.125,0.0625
1480690488878329,0.0625,-0.125,0.125
1480690488892871,0.25,-0.125,0.125
1480690488915929,0.125,0,-0.0625
1480690488938489,0.375,0.125,-0.25
1480690488954031,0.375,0.125,0
1480690488989123,-0.4375,0,0.25
1480690488998148,-0.375,0.0625,0
1480690489020708,0.3125,0.25,-0.0625
1480690489036753,0.875,0,0.25
1480690489058308,0.25,-0.0625,0.1875
1480690489079364,-0.125,0.125,-0.125
1480690489095908,-0.1875,0.0625,-0.125
1480690489134015,0.4375,0.25,-0.1875
1480690489139524,0.5,0.125,0
1480690489156068,-0.3125,-0.0625,0.3125
1480690489185646,-0.1875,0.125,-0.0625
1480690489199182,-0.25,0.1875,-0.4375
1480690489215726,0.125,0.0625,-0.25
1480690489238287,-1.0625,-0.0625,0.4375
1480690489268367,-0.4375,0.1875,0.25
1480690489275887,0.125,0.3125,0.0625
1480690489298447,1.125,0.3125,0.0625
1480690489319502,0.1875,0.0625,0
1480690489335546,-0.8125,0,0.0625
1480690489358106,-1.0625,-0.125,0.125
1480690489379161,0.25,-0.0625,0
1480690489396707,2.3125,-0.0625,0.0625
1480690489418266,2.5,-0.3125,0.0625
1480690489439322,0.875,-0.3125,-0.25
1480690489461880,0.125,-0.125,-0.25
1480690489478425,-0.8125,-0.375,0.125
1480690489499482,0.5,0.125,-0.4375
1480690489516526,1,0.125,-0.125
1480690489538084,-0.125,-0.125,0.1875
1480690489560643,-0.125,0.1875,0.0625
1480690489575686,-0.5,-0.0625,0.0625
1480690489598244,-0.375,-0.0625,0.125
1480690489621305,-0.125,0,-0.3125
1480690489635844,-0.375,0.0625,-0.375
1480690489658404,-0.0625,-0.0625,-0.1875
1480690489680965,0,-0.125,0.375
1480690489709540,0.0625,-0.1875,0.125
1480690489719065,0.625,0.125,-0.4375
1480690489740622,1.5,0,-0.1875
1480690489763182,-0.375,-0.25,0.3125
1480690489803790,-0.4375,0,-0.125
1480690489808808,-0.0625,0,0.125
1480690489816326,0.75,-0.0625,0.5
1480690489838884,1.3125,0.0625,-0.125
1480690489861444,1,-0.0625,-0.5625
1480690489883502,-0.1875,-0.25,-0.3125
1480690489898542,-0.4375,-0.4375,0.1875
1480690489921102,0.25,-0.1875,0.0625
1480690489949177,0.875,-0.0625,-0.25
1480690489959705,1.5,0.0625,-0.375
1480690489980761,1.125,-0.0625,0.0625
1480690489995300,-0.5,-0.375,0.1875
1480690490018361,-1.25,-0.25,-0.125
1480690490040921,0.1875,-0.125,-0.25
1480690490069499,1.75,-0.25,0.125
1480690490078019,1.5,-0.3125,-0.3125
1480690490101583,0.0625,-0.125,-0.625
1480690490121635,-0.25,-0.1875,0
1480690490138180,-0.3125,-0.4375,0.875
1480690490160740,0.1875,-0.3125,0.3125
1480690490182798,1.625,0.125,-0.25
1480690490199343,0.9375,0,0
1480690490220899,0.25,-0.125,0
1480690490242460,-0.5,-0.1875,0.3125
1480690490265767,-0.875,-0.3125,0.4375
1480690490280798,0.625,-0.1875,-0.125
1480690490301856,1.6875,-0.25,-0.6875
1480690490318398,0.625,-0.5625,-0.5
1480690490341961,-0.9375,-0.6875,-0.125
1480690490362013,-0.1875,-0.25,-0.3125
1480690490378560,1.3125,-0.1875,-0.25
1480690490406633,1,-0.25,0.25
1480690490421672,0.5625,-0.1875,0.125
1480690490438216,0.125,-0.1875,-0.0625
1480690490460776,-0.1875,-0.25,-0.3125
1480690490490355,-0.375,-0.375,-0.125
1480690490498878,0.25,-0.4375,0
1480690490520937,2,-0.25,-0.25
1480690490543496,1.625,-0.25,-0.25
1480690490560040,0,-0.3125,-0.25
1480690490580595,-0.6875,-0.4375,0.0625
1480690490603156,-0.75,-0.3125,-0.1875
1480690490633235,0.75,-0.125,-0.375
1480690490646771,1.125,-0.3125,0.125
1480690490663315,0.8125,-0.125,-0.125
1480690490677854,0.8125,-0.1875,-0.375
1480690490706930,-0.8125,-0.4375,-0.1875
1480690490723474,-0.375,-0.4375,-0.375
1480690490737513,0.3125,-0.3125,-0.25
1480690490768094,1.25,-0.3125,-0.375
1480690490799678,0.75,-0.25,-0.25
1480690490804190,0.625,-0.25,-0.25
1480690490821235,0.5,-0.25,0
1480690490849811,-0.0625,-0.25,-0.1875
1480690490864350,0.1875,-0.1875,-0.375
1480690490880893,0.6875,-0.1875,-0.25
1480690490903957,0.875,-0.1875,-0.125
1480690490917491,0.8125,0,-0.1875
1480690490943061,0.4375,-0.125,0.0625
1480690490963112,0,0.1875,0.1875
1480690490984168,-0.3125,0.375,-0.0625
1480690491001213,-0.375,0.4375,-0.1875
1480690491023272,-0.5,0.25,0.375
1480690491044332,-0.125,0.3125,0.375
1480690491060872,0.75,0.5625,0.3125
1480690491089448,0.8125,0.4375,0.375
1480690491104488,-0.25,0.3125,0.4375
1480690491121031,-0.625,0.25,0.1875
1480690491150611,-1.625,0.125,0.4375
1480690491164147,-1.0625,0.1875,0.4375
1480690491180690,0.5625,0.375,0.4375
1480690491203251,0.9375,0.375,0.3125
1480690491224307,-0.1875,0.375,0.0625
1480690491240852,-1.625,0.25,0.3125
1480690491263411,-2.0625,0.125,0.5
1480690491284467,-1.0625,0.1875,0.5625
1480690491301011,0,0.3125,0.5
1480690491323069,0.25,0.25,0.1875
1480690491344126,0.8125,0.375,0.25
1480690491368191,-0.75,0.1875,0.6875
1480690491383229,-1.5625,0.1875,0.6875
1480690491404285,-0.75,0.3125,0.8125
1480690491421330,0.125,0.125,0.625
1480690491450410,0.75,0.3125,0.0625
1480690491465949,-0.0625,0.375,0.1875
1480690491480990,-0.875,0.25,0.625
1480690491504051,-1.8125,0.4375,0.875
1480690491533128,-1.3125,0.4375,0.4375
1480690491548168,-0.1875,0.5,0.25
1480690491571229,0.9375,0.5,0.1875
1480690491586770,-0.625,0.375,0.5625
1480690491601810,-1.5625,0.3125,0.375
1480690491623368,-0.9375,0.4375,0
1480690491645928,0.5,0.4375,0.0625
1480690491659965,0.5,0.375,0.375
1480690491683027,-0.75,0.375,0.5
1480690491711602,-1,0.25,0.375
1480690491720125,-0.3125,0.375,0.0625
1480690491743186,0.625,0.375,0.0625
1480690491767754,-0.1875,0.25,0.3125
1480690491786802,-0.6875,0.1875,0.125
1480690491826408,-0.25,0.3125,0
1480690491830919,-0.25,0.25,0.25
1480690491847966,-0.0625,0.3125,0.125
1480690491871027,-0.1875,0.25,0.3125
1480690491885568,0.3125,0.25,0.375
1480690491906621,0.5,0.375,0.1875
1480690491930685,-0.0625,0.3125,-0.0625
1480690491945727,-0.625,0.1875,0
1480690491966781,-1,0,0.1875
1480690491983326,-1.1875,0,0.0625
1480690492014909,-0.1875,0.125,-0.0625
1480690492026941,0.875,0.1875,0.1875
1480690492043486,1.25,0.4375,0.25
1480690492071560,-0.8125,0.3125,0.0625
1480690492104146,-1.375,0.25,0
1480690492106154,-0.625,0.3125,0.3125
1480690492126706,-0.375,0.25,0.5
1480690492155784,-0.6875,0.4375,-0.25
1480690492163304,-0.9375,0.4375,-0.5625
1480690492186364,-0.3125,0.125,0.25
1480690492206920,-0.3125,0,0.8125
1480690492223463,0.125,0.3125,0.4375
1480690492252039,0.25,0.4375,0
1480690492266578,0.0625,0.25,-0.375
1480690492283122,-0.0625,0.25,-0.4375
1480690492305683,-2.1875,-0.0625,0.5625
1480690492326737,-1.5,0.25,0.375
1480690492350803,0.9375,0.5,0.1875
1480690492380882,1.8125,0.5,-0.0625
1480690492388402,0.3125,0.25,-0.625
1480690492403442,-2.4375,0.0625,-0.8125
1480690492433522,-2.5625,-0.1875,-0.625
1480690492448062,-1.5625,-0.1875,-0.0625
1480690492463101,1.125,0.25,-0.3125
1480690492485661,2.6875,0.3125,-0.1875
1480690492508221,1.625,0.4375,0.1875
1480690492522759,-0.6875,0.3125,0.125
1480690492545821,-2.5625,0.25,0.3125
1480690492568381,-1.8125,0.3125,0.25
1480690492582418,0.0625,0.3125,0.0625
1480690492605981,1.6875,0.3125,-0.375
1480690492628541,1.1875,0.25,-0.1875
1480690492651100,-0.1875,-0.0625,0.3125
1480690492679677,-1.6875,0.0625,0.1875
1480690492688200,-1.125,0.25,-0.3125
1480690492703740,-0.375,0.25,-0.25
1480690492733821,0.125,0.3125,0.25
1480690492748861,0.125,0.1875,0.625
1480690492762898,0.1875,0.3125,0.3125
1480690492785960,-0.1875,0.3125,0
1480690492814536,-0.5,0,0.125
1480690492824061,-1.125,-0.0625,0.375
1480690492847122,-1.3125,-0.125,0.1875
1480690492868178,-0.375,0.3125,0.0625
1480690492906280,0.75,0.4375,0.125
1480690492908789,0.125,0.1875,-0.125
1480690492934353,-1.5625,0.0625,0.25
1480690492958419,-2.0625,0.125,0.25
1480690492965938,-0.625,0.0625,0.375
1480690492987996,-0.375,-0.0625,-0.0625
1480690493009557,0.6875,0.1875,-0.125
1480690493025597,-0.4375,-0.125,0.3125
1480690493049160,-0.875,-0.125,0.3125
1480690493069213,-0.1875,-0.125,0
1480690493085756,-0.1875,-0.0625,-0.0625
1480690493108319,0.0625,-0.0625,0.0625
1480690493129372,0.0625,-0.125,0.5625
1480690493145916,-0.4375,-0.0625,0.25
1480690493167975,-0.1875,0.25,-0.25
1480690493191538,-0.375,0.0625,0.0625
1480690493213095,-1,0,0.25
1480690493228136,-0.8125,-0.125,-0.1875
1480690493250193,-0.0625,0.125,-0.3125
1480690493266236,0.875,-0.0625,0
1480690493288295,-0.125,0,0.125
1480690493310855,-0.25,0,-0.375
1480690493325895,-0.1875,0.25,-0.3125
1480690493348455,0.4375,0.0625,0.125
1480690493371015,0.3125,0,0.1875
1480690493393074,-0.125,-0.125,-0.3125
1480690493408114,0.5,0.125,-0.625
1480690493431175,1.125,-0.0625,-0.1875
1480690493459250,0,-0.3125,0.0625
1480690493468776,0.1875,-0.1875,-0.4375
1480690493490835,0.0625,-0.0625,-0.3125
1480690493511891,0.9375,0,-0.25
1480690493528434,0.4375,0,-0.0625
1480690493551495,-0.0625,0.0625,0.1875
1480690493566034,-0.6875,0.125,0.0625
1480690493588093,0.6875,0.25,-0.4375
1480690493610653,1.4375,0.125,-0.4375
1480690493625194,0.375,-0.125,0.0625
1480690493648253,-1,-0.3125,-0.0625
1480690493686855,-0.75,0.0625,-0.4375
1480690493691371,0.1875,-0.3125,0.0625
1480690493709916,-0.25,-0.25,0.125
1480690493738493,1.0625,0.3125,-0.1875
1480690493745010,0.375,0.3125,0.0625
1480690493768072,-0.6875,0.1875,-0.0625
1480690493790630,-1.6875,0.1875,0
1480690493811687,-1.0625,0.1875,0.1875
1480690493828231,-0.1875,0.1875,0.625
1480690493850791,0.3125,0.1875,0.3125
1480690493871847,0.875,0.3125,0.0625
1480690493888391,0.6875,0.25,0.0625
1480690493910950,-0.75,0.0625,0.125
1480690493932007,-1.875,-0.0625,0.3125
1480690493954065,-1.0625,0.125,0.0625
1480690493985148,0.375,0,0.0625
1480690493991670,1,-0.1875,0
1480690494008210,0,-0.125,-0.0625
1480690494013724,-1.3125,0,0
1480690494036285,-1.5,-0.0625,0.125
1480690494058846,-0.875,0,0.3125
1480690494073886,0,0.25,0.1875
1480690494095943,0.875,0.3125,0.4375
1480690494118503,0,0,0.5625
1480690494133543,-0.5,0.25,-0.0625
1480690494156103,-0.1875,0.1875,0.125
1480690494178663,-1.3125,-0.125,0.5625
1480690494193702,0.3125,0.4375,0.25
1480690494217265,0.875,0.375,0.25
1480690494241833,0.25,0.4375,-0.0625
1480690494261383,-0.1875,0.4375,-0.3125
1480690494277927,-1.1875,0.125,0.3125
1480690494298482,-1.75,0,0.1875
1480690494314524,0.1875,0.375,-0.0625
1480690494336083,1,0.3125,0.375
1480690494367164,1.5,0.4375,0.4375
1480690494376689,-0.9375,0.375,0.25
1480690494396241,-1.5,0.4375,-0.1875
1480690494418801,-0.75,0.25,0.375
1480690494433843,-0.25,0.0625,0.1875
1480690494456401,0.6875,0.125,-0.25
1480690494488988,0.4375,-0.0625,0.25
1480690494501021,-0.25,-0.25,0.25
1480690494516060,-0.375,-0.125,-0.25
1480690494540124,0.125,0,-0.3125
1480690494553660,-0.25,0,0.375
1480690494576220,-0.1875,0.375,0.5
1480690494598780,-0.25,0.1875,0.75
1480690494615324,0.25,0.375,0.5625
1480690494636383,0.3125,0.375,0.375
1480690494658942,0.625,0.25,0.25
1480690494675486,-1.25,0.125,0.375
1480690494696039,-1.125,0.25,0.25
1480690494718598,-0.375,0.4375,0.4375
1480690494736647,0.5,0.5,0.125
1480690494766726,0.1875,0.4375,0.375
1480690494795804,-1.0625,0.1875,0.8125
1480690494797809,-1.1875,0.4375,0.375
1480690494816358,-0.4375,0.625,0.1875
1480690494838918,-0.75,0.4375,0.5
1480690494854960,-1,0.625,0.5625
1480690494876019,-0.875,0.625,0.375
1480690494898578,-0.6875,0.4375,0.25
1480690494915121,-0.75,0.25,0.25
1480690494936180,-0.6875,0.1875,0.3125
1480690494958737,-0.5625,0.3125,0.25
1480690494982801,-0.3125,0.3125,0.5
1480690495003857,-0.1875,0.25,0.625
1480690495018897,0.4375,0.4375,0.625
1480690495044465,0.0625,0.4375,0.4375
1480690495063515,-0.8125,0.375,0.5625
1480690495078556,-0.875,0.3125,0.6875
1480690495095101,-0.625,0.3125,0.75
1480690495116156,-0.125,0.4375,0.25
1480690495144230,0.3125,0.5,0.1875
1480690495156765,-0.5625,0.3125,0.8125
1480690495176316,-1.5,0.4375,1.0625
1480690495206396,-1.625,0.625,0.5
1480690495216425,-2,0.875,0.1875
1480690495236978,-1.6875,0.5625,0.5625
1480690495260038,-1.25,0.4375,1.25
1480690495292625,-0.8125,0.5625,0.875
1480690495297638,-0.6875,0.625,0.75
1480690495318694,-0.0625,0.4375,0.1875
1480690495336742,-1.0625,0.4375,-0.25
1480690495356797,-2,0.25,-0.1875
1480690495378854,-3,0.0625,0.5
1480690495400916,-2.0625,0.4375,0.1875
1480690495415953,0.875,0.4375,0.0625
1480690495438513,0.9375,0.4375,0.0625
1480690495461073,-0.1875,0.3125,-0.125
1480690495476113,-2.1875,0.1875,0.375
1480690495515719,-1.5,0.0625,-0.0625
1480690495521232,-0.375,0.3125,0.125
1480690495539281,1.25,0.25,0.125
1480690495569361,1.125,0.3125,0
1480690495590918,0.25,0.25,-0.25
1480690495595931,-1.0625,0.0625,-0.0625
1480690495619996,-1.75,0,0.0625
1480690495641054,-0.3125,0.25,-0.125
1480690495656091,1.125,0.3125,-0.1875
1480690495678651,1.3125,0.4375,-0.0625
1480690495704220,-0.125,0.4375,-0.0625
1480690495717254,-1.5625,0.1875,0
1480690495738811,-1.875,0.25,-0.25
1480690495760870,-0.3125,0.375,-0.5625
1480690495776411,0.5,0.125,-0.1875
1480690495798470,0.5,0.125,-0.0625
1480690495821030,0.125,0.125,0
1480690495845094,-0.0625,0.25,-0.0625
1480690495862139,0.125,0.25,-0.125
1480690495881190,-0.25,0.25,-0.0625
1480690495897734,-0.25,0.1875,-0.25
1480690495918790,-0.125,0.1875,0.0625
1480690495941354,0.1875,0.1875,0.125
1480690495957900,1.25,0.25,0
1480690495978449,0.25,0,0.0625
1480690496009533,-0.8125,0,-0.3125
1480690496017553,-0.625,0.125,0.125
1480690496040113,-0.5625,-0.1875,0.5
1480690496072198,-0.3125,0.1875,0
1480690496077713,0.25,0.4375,-0.1875
1480690496098769,0.875,0.375,0.3125
1480690496122331,0.1875,0.125,0.8125
1480690496145393,-0.6875,-0.0625,0.5
1480690496158427,-0.875,0,0
1480690496180987,-0.625,0.0625,-0.375
1480690496199035,-0.625,0.125,-0.375
1480690496218587,-0.8125,0.0625,0.3125
1480690496241149,-0.625,0.1875,0.625
1480690496265212,-0.4375,0.1875,0.25
1480690496278748,-0.125,0.4375,-0.125
1480690496301307,-0.125,0.25,0.375
1480690496318853,-1.125,0.125,0.9375
