timestamp,x,y,z,w
1480690430139803,-0.259705,-0.170471,0.104797,0.944702
1480690430144817,-0.259705,-0.170471,0.104797,0.944702
1480690430161361,-0.259705,-0.170471,0.104797,0.944702
1480690430183921,-0.259705,-0.170471,0.104797,0.944702
1480690430204480,-0.259705,-0.170471,0.104797,0.944702
1480690430221019,-0.259766,-0.170471,0.104797,0.944702
1480690430244081,-0.259766,-0.170471,0.104797,0.944702
1480690430272156,-0.259766,-0.170471,0.104797,0.944702
1480690430288702,-0.259705,-0.170471,0.104797,0.944702
1480690430303740,-0.259705,-0.170471,0.104797,0.944702
1480690430326298,-0.259705,-0.170471,0.104797,0.944702
1480690430341339,-0.259766,-0.170471,0.104797,0.944702
1480690430363900,-0.259827,-0.170471,0.104797,0.944702
1480690430384954,-0.259827,-0.170471,0.104858,0.944702
1480690430415034,-0.259766,-0.170471,0.104797,0.944702
1480690430429573,-0.259766,-0.170471,0.104797,0.944702
1480690430446117,-0.259766,-0.170471,0.104797,0.944702
1480690430461157,-0.259827,-0.170471,0.104797,0.944702
1480690430483717,-0.259827,-0.170471,0.104858,0.944641
1480690430505275,-0.259888,-0.170471,0.104858,0.944641
1480690430527337,-0.259888,-0.170471,0.104858,0.944641
1480690430543878,-0.26001,-0.17041,0.104858,0.944641
1480690430564933,-0.26001,-0.17041,0.104858,0.944641
1480690430580976,-0.26001,-0.17041,0.104858,0.944641
1480690430619580,-0.260071,-0.17041,0.104858,0.944641
1480690430624592,-0.260376,-0.170349,0.10498,0.944519
1480690430647152,-0.260437,-0.170288,0.10498,0.944519
1480690430663711,-0.260437,-0.170288,0.10498,0.944519
1480690430686257,-0.260376,-0.170349,0.10498,0.944519
1480690430701296,-0.260437,-0.170349,0.10498,0.944519
1480690430730373,-0.260376,-0.170227,0.105042,0.944519
1480690430745915,-0.260376,-0.170227,0.105042,0.944519
1480690430774491,-0.260803,-0.170288,0.105103,0.944397
1480690430783516,-0.260864,-0.170227,0.105103,0.944397
1480690430806075,-0.260803,-0.170227,0.105103,0.944397
1480690430827632,-0.260803,-0.170227,0.105103,0.944397
1480690430844176,-0.260803,-0.170288,0.105103,0.944397
1480690430866235,-0.260864,-0.170288,0.105103,0.944397
1480690430887292,-0.260925,-0.170227,0.105103,0.944397
1480690430909851,-0.260864,-0.170227,0.105103,0.944397
1480690430925893,-0.260925,-0.170288,0.105164,0.944336
1480690430940433,-0.260925,-0.170288,0.105164,0.944336
1480690430963494,-0.260925,-0.170288,0.105164,0.944336
1480690430994575,-0.260681,-0.170105,0.105164,0.944458
1480690431000593,-0.260559,-0.170166,0.105164,0.944519
1480690431023654,-0.261047,-0.170227,0.105225,0.944336
1480690431046715,-0.261108,-0.170166,0.105225,0.944336
1480690431060251,-0.260803,-0.170227,0.105164,0.944397
1480690431083814,-0.260376,-0.170227,0.105103,0.944519
1480690431106486,-0.260376,-0.170227,0.105103,0.944519
1480690431128432,-0.260437,-0.170227,0.105103,0.944519
1480690431144475,-0.260498,-0.170227,0.105103,0.944519
1480690431166032,-0.260498,-0.170227,0.105103,0.944519
1480690431188593,-0.260498,-0.170227,0.105103,0.944519
1480690431205135,-0.260498,-0.170227,0.105103,0.944519
1480690431233713,-0.260498,-0.170227,0.105103,0.944519
1480690431247248,-0.260498,-0.170227,0.105103,0.944519
1480690431271312,-0.260559,-0.170227,0.105103,0.944458
1480690431293871,-0.26062,-0.170227,0.105103,0.944458
1480690431306906,-0.260559,-0.170227,0.105225,0.944458
1480690431330971,-0.260498,-0.170227,0.105164,0.944458
1480690431347514,-0.260498,-0.170227,0.105164,0.944458
1480690431368070,-0.260559,-0.170227,0.105164,0.944458
1480690431385114,-0.260498,-0.170288,0.105164,0.944458
1480690431413691,-0.260498,-0.170288,0.105164,0.944519
1480690431434747,-0.260498,-0.170227,0.105164,0.944519
1480690431444773,-0.260498,-0.170227,0.105164,0.944519
1480690431466330,-0.260498,-0.170288,0.105164,0.944458
1480690431487387,-0.260498,-0.170288,0.105164,0.944519
1480690431503933,-0.260193,-0.170288,0.105164,0.94458
1480690431527493,-0.260193,-0.170227,0.105164,0.94458
1480690431548550,-0.260254,-0.170227,0.105225,0.944519
1480690431564090,-0.260132,-0.17041,0.105225,0.94458
1480690431586651,-0.259766,-0.170471,0.105286,0.944641
1480690431608709,-0.259705,-0.169678,0.105469,0.944763
1480690431623749,-0.258911,-0.170105,0.105286,0.944946
1480690431646309,-0.260193,-0.170776,0.105164,0.944458
1480690431668369,-0.260254,-0.170776,0.105164,0.944458
1480690431683909,-0.259644,-0.170349,0.105408,0.944702
1480690431706469,-0.258667,-0.169861,0.105408,0.945007
1480690431736048,-0.258789,-0.170288,0.105225,0.944946
1480690431744571,-0.259766,-0.170715,0.105164,0.94458
1480690431766128,-0.26001,-0.170532,0.105469,0.944519
1480690431803730,-0.259033,-0.170288,0.105469,0.944885
1480690431805733,-0.259033,-0.170288,0.105469,0.944824
1480690431826789,-0.259338,-0.170227,0.105469,0.944763
1480690431856368,-0.259338,-0.170227,0.105469,0.944763
1480690431879429,-0.259583,-0.170166,0.105469,0.944702
1480690431887454,-0.259338,-0.170349,0.105347,0.944763
1480690431908507,-0.259094,-0.170288,0.105347,0.944824
1480690431923045,-0.259033,-0.170349,0.105469,0.944824
1480690431946106,-0.259094,-0.170349,0.105469,0.944824
1480690431968666,-0.259155,-0.170288,0.105469,0.944824
1480690431983210,-0.258972,-0.170227,0.105591,0.944885
1480690432006271,-0.258484,-0.170227,0.105591,0.945007
1480690432028832,-0.258484,-0.170227,0.105591,0.945007
1480690432042869,-0.258545,-0.170227,0.105591,0.944946
1480690432080970,-0.258484,-0.170166,0.105713,0.945007
1480690432103531,-0.258301,-0.170044,0.105774,0.945068
1480690432134110,-0.258606,-0.170105,0.105713,0.945007
1480690432136621,-0.258606,-0.170105,0.105713,0.945007
1480690432162686,-0.258301,-0.170105,0.105835,0.945068
1480690432169705,-0.257996,-0.170166,0.105835,0.945129
1480690432186251,-0.258057,-0.170166,0.105835,0.945129
1480690432218336,-0.258057,-0.170166,0.105835,0.945068
1480690432230869,-0.258118,-0.170166,0.105835,0.945068
1480690432246410,-0.258179,-0.170166,0.105835,0.945068
1480690432269472,-0.258118,-0.170166,0.105835,0.945068
1480690432289524,-0.257996,-0.170227,0.105896,0.945129
1480690432306068,-0.257813,-0.170166,0.105957,0.945129
1480690432330633,-0.257874,-0.170166,0.105957,0.945129
1480690432358722,-0.257935,-0.170105,0.105957,0.945129
1480690432372244,-0.257996,-0.170105,0.105957,0.945129
1480690432388788,-0.257996,-0.170105,0.105957,0.945129
1480690432411349,-0.257935,-0.170166,0.105957,0.945129
1480690432442432,-0.257996,-0.170166,0.105957,0.945129
1480690432448948,-0.257813,-0.170105,0.106018,0.94519
1480690432469503,-0.257813,-0.170105,0.106018,0.945129
1480690432486047,-0.258301,-0.170044,0.106018,0.945007
1480690432508607,-0.258301,-0.170105,0.106018,0.945007
1480690432538688,-0.258301,-0.170105,0.106018,0.945007
1480690432546207,-0.258301,-0.170105,0.106018,0.945007
1480690432568767,-0.258301,-0.170105,0.106018,0.945007
1480690432591828,-0.258667,-0.170044,0.105957,0.944946
1480690432627424,-0.258728,-0.170044,0.105957,0.944946
1480690432636449,-0.258789,-0.170044,0.105957,0.944885
1480690432658505,-0.258789,-0.170044,0.105957,0.944885
1480690432666026,-0.258789,-0.170044,0.105957,0.944885
1480690432688585,-0.258789,-0.170044,0.105957,0.944885
1480690432711146,-0.258789,-0.170044,0.105957,0.944885
1480690432725183,-0.25885,-0.170044,0.105957,0.944885
1480690432748745,-0.25885,-0.170044,0.106018,0.944885
1480690432771306,-0.258728,-0.169983,0.106018,0.944946
1480690432785343,-0.258667,-0.169983,0.106018,0.944946
1480690432808404,-0.258667,-0.169983,0.106018,0.944946
1480690432830965,-0.258911,-0.170044,0.105957,0.944885
1480690432845503,-0.258972,-0.170044,0.105957,0.944824
1480690432869569,-0.259033,-0.170044,0.105957,0.944824
1480690432897641,-0.259033,-0.170044,0.106018,0.944824
1480690432913684,-0.259094,-0.170044,0.106018,0.944824
1480690432936244,-0.259033,-0.170044,0.105957,0.944824
1480690432968329,-0.259033,-0.170044,0.105957,0.944824
1480690432971839,-0.259094,-0.170044,0.105957,0.944824
1480690432997407,-0.259155,-0.170044,0.106018,0.944824
1480690433010942,-0.259155,-0.170044,0.106018,0.944824
1480690433033502,-0.259155,-0.170044,0.106018,0.944763
1480690433049545,-0.259216,-0.170044,0.106018,0.944763
1480690433071103,-0.259216,-0.170044,0.106018,0.944763
1480690433092661,-0.259216,-0.170044,0.106018,0.944763
1480690433108702,-0.259216,-0.170105,0.106018,0.944763
1480690433131263,-0.259277,-0.170044,0.106018,0.944763
1480690433159838,-0.259338,-0.170044,0.106079,0.944763
1480690433193428,-0.259338,-0.170044,0.106079,0.944763
1480690433197942,-0.259338,-0.170044,0.106079,0.944763
1480690433215487,-0.259338,-0.170044,0.106079,0.944763
1480690433228521,-0.259338,-0.170044,0.106079,0.944763
1480690433251081,-0.259399,-0.170044,0.106079,0.944702
1480690433272137,-0.259399,-0.170044,0.106079,0.944702
1480690433288681,-0.25946,-0.170044,0.106079,0.944702
1480690433311241,-0.25946,-0.170044,0.106079,0.944702
1480690433332297,-0.25946,-0.170044,0.106079,0.944702
1480690433355872,-0.25946,-0.170105,0.106079,0.944702
1480690433371401,-0.25946,-0.170105,0.106079,0.944702
1480690433391956,-0.259521,-0.170105,0.106079,0.944702
1480690433408513,-0.259583,-0.170044,0.106079,0.944702
1480690433438581,-0.259583,-0.170044,0.106079,0.944641
1480690433470165,-0.259583,-0.170044,0.106079,0.944702
1480690433491721,-0.259583,-0.170105,0.106079,0.944702
1480690433495230,-0.259583,-0.170105,0.106079,0.944641
1480690433521300,-0.259583,-0.170105,0.106079,0.944641
1480690433538345,-0.259583,-0.170044,0.10614,0.944641
1480690433550879,-0.259644,-0.170044,0.10614,0.944641
1480690433573438,-0.259644,-0.170044,0.10614,0.944641
1480690433588478,-0.259644,-0.170044,0.10614,0.944641
1480690433611038,-0.259644,-0.170044,0.10614,0.944641
1480690433633600,-0.259521,-0.170044,0.106201,0.944702
1480690433648137,-0.259583,-0.170044,0.106201,0.944641
1480690433686740,-0.259644,-0.170044,0.106201,0.944641
1480690433688244,-0.259644,-0.170044,0.106201,0.944641
1480690433699775,-0.259644,-0.170044,0.106201,0.944641
1480690433715316,-0.259644,-0.170105,0.106201,0.944641
1480690433745396,-0.259644,-0.170105,0.106201,0.944641
1480690433758931,-0.259644,-0.170044,0.106201,0.944641
1480690433781492,-0.259705,-0.170044,0.106201,0.944641
1480690433796532,-0.259705,-0.170044,0.106201,0.944641
1480690433822099,-0.259766,-0.170044,0.106201,0.94458
1480690433835636,-0.259766,-0.170044,0.106201,0.944641
1480690433856691,-0.259766,-0.170044,0.106201,0.944641
1480690433879253,-0.259766,-0.170044,0.106201,0.94458
1480690433898803,-0.259827,-0.170044,0.106201,0.94458
1480690433916350,-0.259888,-0.170044,0.106262,0.94458
1480690433938911,-0.259888,-0.170044,0.106262,0.94458
1480690433964479,-0.259888,-0.170044,0.106262,0.94458
1480690433976511,-0.259888,-0.170044,0.106262,0.94458
1480690434016117,-0.259888,-0.170044,0.106262,0.94458
1480690434019627,-0.259766,-0.170044,0.106323,0.94458
1480690434036676,-0.259827,-0.170044,0.106323,0.94458
1480690434059232,-0.259827,-0.170044,0.106323,0.94458
1480690434075273,-0.259888,-0.170044,0.106323,0.94458
1480690434096328,-0.259827,-0.170044,0.106323,0.94458
1480690434118890,-0.259827,-0.170044,0.106323,0.94458
1480690434136938,-0.259644,-0.170105,0.106262,0.944641
1480690434156489,-0.259399,-0.170166,0.106323,0.944702
1480690434179049,-0.259338,-0.170105,0.106384,0.944702
1480690434211635,-0.259338,-0.170105,0.106384,0.944702
1480690434216649,-0.259338,-0.170105,0.106384,0.944702
1480690434239209,-0.259399,-0.170105,0.106384,0.944702
1480690434261267,-0.258911,-0.170166,0.106384,0.944824
1480690434276307,-0.258667,-0.170166,0.106323,0.944885
1480690434301876,-0.258728,-0.170166,0.106384,0.944885
1480690434316916,-0.258789,-0.170166,0.106384,0.944824
1480690434336468,-0.258789,-0.170166,0.106384,0.944824
1480690434359027,-0.258789,-0.170166,0.106384,0.944824
1480690434381588,-0.258606,-0.170227,0.106262,0.944885
1480690434396627,-0.258057,-0.170288,0.106262,0.945007
1480690434426707,-0.257813,-0.170349,0.106262,0.945068
1480690434441246,-0.257874,-0.170349,0.106262,0.945068
1480690434463806,-0.257935,-0.170349,0.106262,0.945068
1480690434486366,-0.257813,-0.17041,0.106262,0.945068
1480690434509427,-0.257507,-0.17041,0.106262,0.94519
1480690434519455,-0.257446,-0.17041,0.106201,0.94519
1480690434549534,-0.257446,-0.17041,0.106201,0.94519
1480690434571593,-0.257507,-0.170471,0.106201,0.945129
1480690434578110,-0.257568,-0.17041,0.106262,0.945129
1480690434599167,-0.257568,-0.17041,0.106262,0.945129
1480690434621732,-0.257568,-0.17041,0.106262,0.945129
1480690434643784,-0.257324,-0.170471,0.106201,0.94519
1480690434658824,-0.25708,-0.170593,0.10614,0.945251
1480690434681384,-0.256775,-0.170654,0.10614,0.945313
1480690434696424,-0.256714,-0.170654,0.106201,0.945313
1480690434735529,-0.256775,-0.170654,0.106201,0.945313
1480690434741546,-0.256836,-0.170654,0.106201,0.945313
1480690434765609,-0.256775,-0.170654,0.106201,0.945313
1480690434795187,-0.256775,-0.170654,0.106201,0.945313
1480690434801704,-0.256775,-0.170654,0.106201,0.945313
1480690434823763,-0.256775,-0.170715,0.106201,0.945313
1480690434841811,-0.256836,-0.170715,0.106201,0.945313
1480690434861369,-0.256897,-0.170654,0.106201,0.945313
1480690434879912,-0.256897,-0.170654,0.106201,0.945313
1480690434898963,-0.256897,-0.170654,0.106201,0.945313
1480690434921523,-0.256836,-0.170654,0.106201,0.945313
1480690434936563,-0.256836,-0.170654,0.106201,0.945313
1480690434960126,-0.256897,-0.170654,0.106201,0.945313
1480690434990206,-0.256958,-0.170654,0.106201,0.945251
1480690434996222,-0.256958,-0.170654,0.106262,0.945251
1480690435023795,-0.256958,-0.170654,0.106262,0.945251
1480690435044350,-0.256958,-0.170654,0.106262,0.945251
1480690435072926,-0.256958,-0.170654,0.106262,0.945251
1480690435079443,-0.256958,-0.170654,0.106262,0.945251
1480690435104587,-0.257019,-0.170654,0.106262,0.945251
1480690435120052,-0.25708,-0.170654,0.106262,0.945251
1480690435139102,-0.257019,-0.170532,0.106262,0.945251
1480690435161661,-0.257019,-0.170532,0.106323,0.945251
1480690435179709,-0.256958,-0.170532,0.106262,0.945251
1480690435202773,-0.257141,-0.170593,0.106262,0.94519
1480690435221320,-0.257202,-0.170593,0.106262,0.94519
1480690435237864,-0.257263,-0.170593,0.106323,0.94519
1480690435269449,-0.257263,-0.170471,0.106384,0.94519
1480690435281481,-0.257263,-0.170471,0.106384,0.94519
1480690435298024,-0.257263,-0.170471,0.106384,0.94519
1480690435322089,-0.257263,-0.170471,0.106384,0.94519
1480690435341640,-0.257263,-0.170471,0.106384,0.94519
1480690435373726,-0.257324,-0.170471,0.106384,0.94519
1480690435380244,-0.257385,-0.17041,0.106384,0.94519
1480690435401298,-0.257385,-0.17041,0.106384,0.94519
1480690435425363,-0.257385,-0.17041,0.106384,0.94519
1480690435438900,-0.257385,-0.17041,0.106384,0.94519
1480690435461458,-0.257385,-0.170471,0.106384,0.94519
1480690435479508,-0.257446,-0.17041,0.106384,0.945129
1480690435499058,-0.257446,-0.170349,0.106445,0.94519
1480690435529138,-0.257507,-0.170349,0.106445,0.945129
1480690435544179,-0.257507,-0.170349,0.106445,0.945129
1480690435578270,-0.257507,-0.170349,0.106445,0.945129
1480690435583784,-0.257507,-0.170349,0.106445,0.945129
1480690435600329,-0.257507,-0.170349,0.106445,0.945129
1480690435618878,-0.257568,-0.170349,0.106506,0.945129
1480690435642942,-0.257629,-0.170349,0.106506,0.945129
1480690435659487,-0.25769,-0.170349,0.106506,0.945068
1480690435679037,-0.257935,-0.170288,0.106445,0.945068
1480690435701598,-0.257935,-0.170349,0.106445,0.945068
1480690435724158,-0.257935,-0.170349,0.106445,0.945007
1480690435739197,-0.257935,-0.170349,0.106445,0.945007
1480690435761276,-0.257996,-0.170288,0.106445,0.945007
1480690435792840,-0.258057,-0.170288,0.106445,0.945007
1480690435798856,-0.258057,-0.170288,0.106506,0.945007
1480690435824424,-0.258118,-0.170288,0.106506,0.945007
1480690435839464,-0.258057,-0.170288,0.106506,0.945007
1480690435860520,-0.258057,-0.170288,0.106445,0.945007
1480690435881576,-0.258118,-0.170288,0.106506,0.945007
1480690435907144,-0.258179,-0.170288,0.106506,0.944946
1480690435919176,-0.258179,-0.170288,0.106506,0.944946
1480690435941235,-0.25824,-0.170288,0.106506,0.944946
1480690435963795,-0.25824,-0.170288,0.106506,0.944946
1480690435978835,-0.25824,-0.170288,0.106506,0.944946
1480690436001395,-0.25824,-0.170288,0.106506,0.944946
1480690436023955,-0.258301,-0.170227,0.106506,0.944946
1480690436049523,-0.258362,-0.170227,0.106567,0.944946
1480690436069075,-0.258362,-0.170227,0.106567,0.944946
1480690436084115,-0.258423,-0.170227,0.106567,0.944885
1480690436102165,-0.258362,-0.170227,0.106567,0.944885
1480690436130237,-0.258179,-0.170227,0.106628,0.945007
1480690436144275,-0.258179,-0.170227,0.106628,0.944946
1480690436160317,-0.25824,-0.170227,0.106628,0.944946
1480690436181374,-0.258301,-0.170166,0.106628,0.944946
1480690436203938,-0.258362,-0.170166,0.106628,0.944946
1480690436220478,-0.258118,-0.170166,0.106567,0.945007
1480690436241534,-0.258118,-0.170166,0.106567,0.945007
1480690436264093,-0.258118,-0.170166,0.106567,0.945007
1480690436280638,-0.258179,-0.170166,0.106567,0.945007
1480690436301695,-0.25824,-0.170166,0.106567,0.944946
1480690436323751,-0.258118,-0.170044,0.106812,0.945007
1480690436346314,-0.257751,-0.1698,0.107056,0.945129
1480690436377896,-0.257446,-0.169678,0.107361,0.94519
1480690436400957,-0.257202,-0.169617,0.107666,0.94519
1480690436403464,-0.256958,-0.169434,0.108215,0.945251
1480690436424519,-0.256775,-0.16925,0.108704,0.945251
1480690436444072,-0.256775,-0.169067,0.109192,0.945251
1480690436462120,-0.256836,-0.169006,0.10968,0.94519
1480690436482674,-0.256958,-0.168823,0.110229,0.945129
1480690436505234,-0.256897,-0.16864,0.11084,0.945129
1480690436521778,-0.256897,-0.168518,0.111511,0.945068
1480690436541330,-0.257202,-0.168274,0.112305,0.944946
1480690436571410,-0.257629,-0.167969,0.11322,0.944763
1480690436605501,-0.25824,-0.167603,0.114075,0.94458
1480690436617032,-0.258606,-0.167236,0.115051,0.944397
1480690436632586,-0.259033,-0.166931,0.116089,0.944214
1480690436658141,-0.259583,-0.166443,0.117065,0.944031
1480690436664157,-0.260193,-0.165771,0.118103,0.943848
1480690436684212,-0.260742,-0.164978,0.119202,0.943665
1480690436701759,-0.261536,-0.164185,0.120361,0.94342
1480690436721310,-0.262573,-0.16333,0.121521,0.943176
1480690436744872,-0.263672,-0.162292,0.122681,0.942932
1480690436761917,-0.264648,-0.161316,0.12384,0.942627
1480690436781469,-0.266357,-0.1604,0.125061,0.942139
1480690436804030,-0.268494,-0.159241,0.126526,0.941528
1480690436822077,-0.270325,-0.157837,0.128174,0.94104
1480690436849149,-0.271362,-0.156311,0.129761,0.940735
1480690436882237,-0.271973,-0.154846,0.13147,0.940613
1480690436886251,-0.272949,-0.153381,0.133423,0.940247
1480690436904296,-0.274719,-0.1521,0.135437,0.939697
1480690436931368,-0.276917,-0.150574,0.137268,0.939026
1480690436942397,-0.279053,-0.148865,0.138794,0.938416
1480690436962952,-0.28064,-0.147278,0.140137,0.937988
1480690436984008,-0.282043,-0.145691,0.141602,0.937622
1480690437002057,-0.283569,-0.144165,0.142944,0.937195
1480690437023112,-0.284729,-0.142944,0.143799,0.93689
1480690437044168,-0.285706,-0.141846,0.144409,0.936646
1480690437064222,-0.286926,-0.141052,0.144836,0.93634
1480690437099314,-0.288635,-0.140442,0.144958,0.935913
1480690437104329,-0.29071,-0.139832,0.144897,0.935364
1480690437129395,-0.292664,-0.139343,0.144775,0.934814
1480690437148946,-0.294434,-0.139038,0.144531,0.934387
1480690437163987,-0.295837,-0.138672,0.143921,0.934082
1480690437183037,-0.296814,-0.138428,0.142883,0.93396
1480690437210610,-0.29718,-0.138367,0.141602,0.934021
1480690437231666,-0.297974,-0.138611,0.14032,0.93396
1480690437242712,-0.299011,-0.13916,0.139038,0.933716
1480690437262750,-0.299866,-0.140076,0.137756,0.933472
1480690437284306,-0.300659,-0.140869,0.136658,0.933289
1480690437301853,-0.301086,-0.141418,0.135559,0.933228
1480690437324415,-0.301392,-0.141968,0.13446,0.933228
1480690437354995,-0.301514,-0.142517,0.133362,0.933228
1480690437363015,-0.301697,-0.143066,0.132507,0.933228
1480690437384572,-0.301697,-0.143677,0.131775,0.933228
1480690437404130,-0.301697,-0.144287,0.131165,0.933228
1480690437426684,-0.301575,-0.144775,0.130615,0.933289
1480690437445234,-0.300903,-0.144775,0.130188,0.933533
1480690437463783,-0.300232,-0.144714,0.129822,0.933838
1480690437487851,-0.30011,-0.144592,0.129639,0.933899
1480690437504391,-0.300415,-0.144348,0.129456,0.933899
1480690437523943,-0.301147,-0.143921,0.129333,0.933716
1480690437546503,-0.302307,-0.143311,0.129272,0.933472
1480690437566556,-0.303406,-0.142761,0.129211,0.933167
1480690437584103,-0.304382,-0.141968,0.129272,0.932983
1480690437606663,-0.305908,-0.141113,0.129333,0.932617
1480690437624211,-0.307739,-0.140259,0.129272,0.932129
1480690437645266,-0.309753,-0.139587,0.129456,0.931519
1480690437666324,-0.311951,-0.138855,0.1297,0.930908
1480690437686380,-0.313843,-0.138245,0.129944,0.930298
1480690437703922,-0.315552,-0.137634,0.13031,0.929749
1480690437726482,-0.317566,-0.137085,0.130737,0.929138
1480690437744530,-0.319641,-0.136353,0.131287,0.928406
1480690437764084,-0.321777,-0.13562,0.131775,0.927734
1480690437786643,-0.323975,-0.134705,0.132263,0.927002
1480690437820733,-0.326233,-0.133728,0.132874,0.92627
1480690437825245,-0.328308,-0.132813,0.133301,0.925598
1480690437849309,-0.330078,-0.131897,0.133606,0.92511
1480690437877885,-0.331787,-0.130981,0.13385,0.924561
1480690437883901,-0.333496,-0.130249,0.133972,0.924011
1480690437906461,-0.335083,-0.129578,0.133972,0.923523
1480690437924509,-0.336548,-0.129089,0.13385,0.923096
1480690437947069,-0.337891,-0.128662,0.133789,0.922668
1480690437967123,-0.338806,-0.128235,0.133728,0.922424
1480690437990183,-0.339966,-0.127869,0.133667,0.922058
1480690438005223,-0.340881,-0.127502,0.133484,0.921814
1480690438043325,-0.341614,-0.127258,0.133484,0.92157
1480690438048338,-0.342468,-0.127075,0.133545,0.921265
1480690438074407,-0.34314,-0.127014,0.133423,0.921021
1480690438086442,-0.343506,-0.127075,0.133301,0.920898
1480690438104488,-0.343933,-0.127075,0.133301,0.920715
1480690438127047,-0.344238,-0.127136,0.133301,0.920654
1480690438154122,-0.343933,-0.127075,0.133362,0.920715
1480690438170163,-0.343567,-0.127075,0.133606,0.920837
1480690438187208,-0.342896,-0.127075,0.134033,0.921021
1480690438206761,-0.342285,-0.127014,0.13446,0.921204
1480690438227314,-0.341431,-0.126953,0.134888,0.921448
1480690438245363,-0.340637,-0.126709,0.135254,0.921692
1480690438269430,-0.340332,-0.126404,0.135498,0.921875
1480690438288979,-0.340515,-0.125977,0.135498,0.921875
1480690438307027,-0.341492,-0.125427,0.135315,0.92157
1480690438326579,-0.342346,-0.124878,0.13501,0.921387
1480690438349138,-0.343079,-0.124512,0.134338,0.921265
1480690438372701,-0.343689,-0.12439,0.133423,0.921204
1480690438393756,-0.343872,-0.124451,0.132324,0.921265
1480690438404285,-0.344055,-0.124695,0.131165,0.921326
1480690438431357,-0.344116,-0.125061,0.129944,0.921387
1480690438446396,-0.343811,-0.12561,0.128723,0.921631
1480690438464445,-0.343079,-0.126038,0.127686,0.921997
1480690438487005,-0.342041,-0.126587,0.127014,0.922424
1480690438514076,-0.34082,-0.127136,0.126709,0.922791
1480690438524605,-0.339355,-0.127686,0.126465,0.92334
1480690438547666,-0.337524,-0.128174,0.126465,0.923889
1480690438566215,-0.335876,-0.128418,0.12677,0.924438
1480690438584263,-0.334412,-0.12854,0.127258,0.924866
1480690438606824,-0.333008,-0.128418,0.127808,0.925354
1480690438626375,-0.332214,-0.128418,0.128601,0.925537
1480690438644423,-0.331604,-0.128418,0.129456,0.925598
1480690438671496,-0.330933,-0.128296,0.130371,0.92572
1480690438686536,-0.330261,-0.128052,0.131226,0.925903
1480690438705085,-0.329773,-0.127747,0.13208,0.925964
1480690438727143,-0.329102,-0.127808,0.132629,0.926147
1480690438746695,-0.327698,-0.128052,0.132996,0.926575
1480690438768755,-0.326416,-0.128296,0.13324,0.926941
1480690438789813,-0.325623,-0.12854,0.133545,0.927124
1480690438806357,-0.32489,-0.128662,0.133972,0.927307
1480690438824402,-0.32373,-0.128723,0.134521,0.927612
1480690438846962,-0.321655,-0.128845,0.13501,0.928284
1480690438868018,-0.319397,-0.128967,0.135498,0.928955
1480690438884562,-0.317871,-0.129211,0.136169,0.929382
1480690438907121,-0.316406,-0.129456,0.137146,0.929688
1480690438928177,-0.314575,-0.129272,0.138367,0.930115
1480690438956257,-0.312012,-0.128845,0.139587,0.930847
1480690438972797,-0.309814,-0.128845,0.140259,0.931519
1480690438989343,-0.308167,-0.129395,0.140503,0.931946
1480690439012903,-0.306763,-0.130005,0.140808,0.932251
1480690439031452,-0.305664,-0.130615,0.141113,0.932495
1480690439047996,-0.304565,-0.131287,0.141235,0.932739
1480690439069052,-0.303284,-0.131653,0.141541,0.933044
1480690439087102,-0.302063,-0.131775,0.141724,0.933411
1480690439115676,-0.300842,-0.131958,0.141541,0.933838
1480690439129212,-0.299438,-0.132507,0.141113,0.934265
1480690439152775,-0.298645,-0.133484,0.140381,0.934509
1480690439167815,-0.298157,-0.134888,0.139343,0.93457
1480690439188871,-0.297668,-0.136292,0.138,0.934753
1480690439206923,-0.296936,-0.137329,0.136719,0.934998
1480690439229480,-0.296204,-0.138123,0.135559,0.935303
1480690439249031,-0.295959,-0.138977,0.134216,0.935425
1480690439267079,-0.295593,-0.139954,0.132568,0.935608
1480690439290641,-0.294861,-0.14093,0.130798,0.935974
1480690439309193,-0.293945,-0.141663,0.128906,0.936401
1480690439326737,-0.293152,-0.142273,0.126953,0.936829
1480690439349299,-0.292175,-0.143066,0.125061,0.937256
1480690439368851,-0.291321,-0.144043,0.123413,0.937622
1480690439386898,-0.290771,-0.144958,0.121948,0.937866
1480690439409959,-0.290527,-0.145935,0.120422,0.937927
1480690439429010,-0.289917,-0.146667,0.11908,0.938232
1480690439448061,-0.289246,-0.147034,0.11792,0.938477
1480690439469618,-0.288574,-0.1474,0.116943,0.938782
1480690439489172,-0.287964,-0.147766,0.116272,0.938965
1480690439507222,-0.287231,-0.147827,0.115845,0.93927
1480690439529276,-0.286438,-0.147949,0.115417,0.939514
1480690439556353,-0.285645,-0.148071,0.115112,0.939819
1480690439571389,-0.285034,-0.148071,0.11499,0.940002
1480690439589436,-0.284607,-0.147827,0.115051,0.940125
1480690439608987,-0.284607,-0.147461,0.115051,0.940186
1480690439627036,-0.284668,-0.147156,0.114929,0.940247
1480690439655612,-0.284241,-0.147034,0.114807,0.94043
1480690439676667,-0.283569,-0.146973,0.114746,0.940613
1480690439688202,-0.283142,-0.147034,0.114624,0.940735
1480690439709255,-0.283142,-0.147278,0.114319,0.940735
1480690439728807,-0.282898,-0.1474,0.114136,0.940796
1480690439747356,-0.282593,-0.147522,0.114136,0.940918
1480690439769917,-0.282532,-0.147583,0.114258,0.940918
1480690439790470,-0.282349,-0.147705,0.11438,0.940918
1480690439807018,-0.281982,-0.147766,0.114502,0.94104
1480690439834086,-0.281799,-0.147705,0.114746,0.94104
1480690439850630,-0.282166,-0.147705,0.114929,0.940918
1480690439871687,-0.282593,-0.147705,0.115112,0.940735
1480690439898759,-0.28302,-0.147644,0.115356,0.940613
1480690439926833,-0.283508,-0.147461,0.115662,0.94043
1480690439928838,-0.283997,-0.147217,0.116028,0.940308
1480690439950399,-0.284424,-0.147217,0.116394,0.940125
1480690439970501,-0.284851,-0.147156,0.116699,0.939941
1480690439987044,-0.285339,-0.147095,0.117065,0.939758
1480690440009604,-0.286194,-0.146973,0.117493,0.939514
1480690440030158,-0.287292,-0.14679,0.11792,0.939148
1480690440047705,-0.288269,-0.146729,0.118286,0.938782
1480690440070767,-0.289001,-0.146667,0.118652,0.938538
1480690440090318,-0.289551,-0.146484,0.11908,0.938354
1480690440121903,-0.290344,-0.14624,0.119446,0.93811
1480690440128419,-0.29126,-0.145935,0.119934,0.937805
1480690440151983,-0.292419,-0.14563,0.120422,0.937439
1480690440171535,-0.293518,-0.145325,0.120911,0.937073
1480690440188581,-0.294312,-0.145142,0.121399,0.936768
1480690440211140,-0.294678,-0.14502,0.121826,0.936584
1480690440232195,-0.294922,-0.145081,0.122131,0.936462
1480690440262776,-0.295349,-0.145203,0.122375,0.936279
1480690440271300,-0.295959,-0.145386,0.12262,0.936035
1480690440292356,-0.296692,-0.145569,0.122925,0.93573
1480690440314916,-0.297302,-0.145813,0.123169,0.935486
1480690440330958,-0.297668,-0.145996,0.123474,0.935303
1480690440352015,-0.298157,-0.145996,0.123657,0.93512
1480690440368559,-0.299072,-0.145935,0.123657,0.934875
1480690440391619,-0.30011,-0.145874,0.123657,0.934509
1480690440412175,-0.301208,-0.145691,0.123779,0.934204
1480690440428718,-0.30249,-0.145386,0.123779,0.933838
1480690440451279,-0.303345,-0.145264,0.123596,0.933594
1480690440472336,-0.304138,-0.145081,0.123291,0.933411
1480690440488377,-0.305359,-0.144836,0.122803,0.933105
1480690440510937,-0.306213,-0.144897,0.122192,0.932861
1480690440531993,-0.306702,-0.14502,0.121704,0.9328
1480690440549038,-0.307312,-0.144958,0.121277,0.932617
1480690440571098,-0.307922,-0.145081,0.120605,0.932495
1480690440592153,-0.308289,-0.145264,0.119812,0.932434
1480690440616217,-0.308533,-0.145447,0.119263,0.932434
1480690440632775,-0.308838,-0.145508,0.118713,0.932373
1480690440652313,-0.309021,-0.145447,0.118225,0.932373
1480690440668858,-0.309204,-0.145569,0.11792,0.932312
1480690440692419,-0.309204,-0.145569,0.11792,0.932312
1480690440712473,-0.309204,-0.145508,0.11792,0.932373
1480690440728515,-0.309204,-0.145508,0.11792,0.932373
1480690440751075,-0.309143,-0.145447,0.11792,0.932373
1480690440772132,-0.309143,-0.145508,0.11792,0.932373
1480690440788676,-0.309143,-0.145508,0.11792,0.932373
1480690440818756,-0.309204,-0.145447,0.11792,0.932373
1480690440832292,-0.309265,-0.145447,0.11792,0.932312
1480690440848334,-0.309265,-0.145447,0.117981,0.932312
1480690440870898,-0.309265,-0.145447,0.117981,0.932312
1480690440891950,-0.309265,-0.145508,0.11792,0.932312
1480690440908494,-0.309509,-0.145386,0.117981,0.932251
1480690440931055,-0.309814,-0.145203,0.118164,0.93219
1480690440952110,-0.310242,-0.144958,0.118286,0.932068
1480690440983694,-0.310669,-0.144531,0.118286,0.931946
1480690440991214,-0.310852,-0.144348,0.118286,0.931946
1480690441012270,-0.311157,-0.144165,0.11853,0.931824
1480690441029318,-0.311707,-0.143982,0.118774,0.931641
1480690441050873,-0.312317,-0.143799,0.118835,0.931458
1480690441071931,-0.312317,-0.143738,0.118896,0.931458
1480690441094488,-0.312378,-0.143738,0.118896,0.931458
1480690441111033,-0.312683,-0.143738,0.118896,0.931335
1480690441133592,-0.313049,-0.143921,0.118835,0.931213
1480690441148633,-0.313477,-0.144104,0.118774,0.93103
1480690441171193,-0.313599,-0.144287,0.118591,0.930969
1480690441194755,-0.31366,-0.144348,0.118591,0.930969
1480690441208793,-0.313721,-0.144287,0.118591,0.930969
1480690441231853,-0.313721,-0.144287,0.118591,0.930908
1480690441260930,-0.314026,-0.144226,0.118652,0.930847
1480690441267951,-0.314514,-0.144165,0.118774,0.930664
1480690441291011,-0.314514,-0.144165,0.118774,0.930664
1480690441313572,-0.314514,-0.144226,0.118774,0.930664
1480690441328110,-0.314514,-0.144165,0.118774,0.930664
1480690441351171,-0.314941,-0.144165,0.118896,0.930542
1480690441373732,-0.315369,-0.144043,0.118958,0.930359
1480690441394787,-0.31543,-0.144043,0.118958,0.930359
1480690441410831,-0.315369,-0.144043,0.118958,0.930359
1480690441433893,-0.315369,-0.144043,0.118958,0.930359
1480690441448430,-0.315552,-0.143982,0.119141,0.930298
1480690441470990,-0.315796,-0.14386,0.119324,0.930237
1480690441507087,-0.31604,-0.143616,0.119568,0.930115
1480690441517614,-0.31604,-0.143555,0.119629,0.930115
1480690441538678,-0.316101,-0.143555,0.119629,0.930115
1480690441569754,-0.316223,-0.143494,0.119568,0.930115
1480690441574767,-0.316528,-0.143433,0.119568,0.929993
1480690441590808,-0.316528,-0.143433,0.119568,0.929993
1480690441614371,-0.316589,-0.143433,0.119629,0.929993
1480690441634926,-0.316589,-0.143433,0.119568,0.929993
1480690441650969,-0.316223,-0.143494,0.119507,0.930115
1480690441673528,-0.315796,-0.143555,0.119507,0.930237
1480690441694584,-0.315491,-0.143738,0.119507,0.930298
1480690441711129,-0.315247,-0.143921,0.119385,0.930359
1480690441733688,-0.315063,-0.144104,0.119385,0.93042
1480690441754749,-0.314758,-0.144165,0.119446,0.930481
1480690441771289,-0.314453,-0.144165,0.119446,0.930603
1480690441793347,-0.314209,-0.144165,0.119385,0.930725
1480690441815907,-0.313782,-0.144226,0.119324,0.930847
1480690441845987,-0.313477,-0.144287,0.119385,0.930908
1480690441853507,-0.313477,-0.144226,0.119385,0.930908
1480690441875065,-0.313416,-0.144287,0.119324,0.930969
1480690441891107,-0.313232,-0.144287,0.119324,0.93103
1480690441913667,-0.312988,-0.144531,0.119263,0.931091
1480690441934723,-0.312988,-0.144958,0.119141,0.93103
1480690441957282,-0.31311,-0.145569,0.118958,0.930908
1480690441973829,-0.313171,-0.146118,0.118958,0.930786
1480690441994382,-0.312866,-0.146423,0.119263,0.930847
1480690442010925,-0.312378,-0.146667,0.119751,0.930908
1480690442033485,-0.311584,-0.14679,0.120483,0.93103
1480690442072595,-0.310242,-0.146606,0.121826,0.931335
1480690442077101,-0.308777,-0.146362,0.123352,0.931641
1480690442095150,-0.307617,-0.146179,0.124695,0.931885
1480690442125229,-0.307007,-0.146118,0.125732,0.931946
1480690442144781,-0.306824,-0.145813,0.12677,0.931946
1480690442153807,-0.306824,-0.145386,0.127747,0.931885
1480690442175864,-0.307007,-0.145264,0.128357,0.931763
1480690442190403,-0.30719,-0.145264,0.128723,0.931641
1480690442214467,-0.306946,-0.145447,0.128845,0.931641
1480690442236024,-0.306641,-0.145569,0.128967,0.931702
1480690442250569,-0.306885,-0.145752,0.129089,0.93158
1480690442282147,-0.307312,-0.145813,0.129272,0.931396
1480690442295682,-0.307556,-0.145691,0.129517,0.931335
1480690442310221,-0.307556,-0.145447,0.129883,0.931335
1480690442347321,-0.307617,-0.145142,0.13031,0.931274
1480690442356344,-0.307739,-0.144836,0.130676,0.931213
1480690442370385,-0.307922,-0.14447,0.130859,0.931213
1480690442402468,-0.308655,-0.144165,0.130798,0.93103
1480690442422522,-0.309692,-0.143982,0.130493,0.930725
1480690442430542,-0.310486,-0.143921,0.130127,0.930542
1480690442453603,-0.311096,-0.143738,0.129639,0.93042
1480690442476664,-0.311646,-0.143555,0.129089,0.930359
1480690442490702,-0.311768,-0.143372,0.128479,0.93042
1480690442513763,-0.311646,-0.143433,0.127625,0.930603
1480690442535822,-0.310913,-0.143494,0.126648,0.930969
1480690442556880,-0.309753,-0.143616,0.125732,0.931458
1480690442573923,-0.308533,-0.144043,0.124878,0.931885
1480690442595981,-0.307251,-0.144653,0.124084,0.932312
1480690442624558,-0.305603,-0.145142,0.123291,0.932922
1480690442633582,-0.303955,-0.145569,0.122559,0.933472
1480690442656144,-0.302246,-0.145874,0.122009,0.934021
1480690442677197,-0.300659,-0.146179,0.121643,0.93457
1480690442699758,-0.299011,-0.146484,0.121399,0.935059
1480690442717806,-0.297241,-0.146729,0.12085,0.935669
1480690442737357,-0.295288,-0.146973,0.120239,0.93634
1480690442753401,-0.293823,-0.147156,0.119629,0.936829
1480690442781977,-0.292603,-0.1474,0.11908,0.937256
1480690442797015,-0.291626,-0.147522,0.11853,0.937622
1480690442813560,-0.290466,-0.147522,0.118042,0.938049
1480690442836622,-0.289429,-0.147644,0.117554,0.938416
1480690442874222,-0.288391,-0.147766,0.11731,0.938721
1480690442876728,-0.287292,-0.147949,0.117065,0.939087
1480690442903801,-0.28595,-0.148071,0.116882,0.939453
1480690442924354,-0.284729,-0.14801,0.11676,0.93988
1480690442933379,-0.283569,-0.147949,0.116516,0.940247
1480690442955943,-0.282654,-0.14801,0.116089,0.940552
1480690442976994,-0.281677,-0.148193,0.115723,0.940918
1480690442995043,-0.28064,-0.148315,0.115295,0.941223
1480690443016101,-0.279602,-0.148438,0.114746,0.941589
1480690443038660,-0.279053,-0.148621,0.114258,0.941772
1480690443053701,-0.278625,-0.148804,0.113708,0.941956
1480690443076258,-0.277832,-0.148926,0.113159,0.942261
1480690443098818,-0.2771,-0.149231,0.112488,0.942505
1480690443113357,-0.27655,-0.149658,0.111755,0.942627
1480690443135917,-0.276123,-0.150208,0.111023,0.94281
1480690443181542,-0.275635,-0.150757,0.110107,0.942932
1480690443185048,-0.275452,-0.151184,0.109192,0.943054
1480690443205105,-0.275513,-0.151489,0.108337,0.943054
1480690443224152,-0.275635,-0.151855,0.107544,0.943054
1480690443234179,-0.275269,-0.152283,0.106934,0.943176
1480690443256237,-0.274353,-0.152771,0.106384,0.94342
1480690443284813,-0.273499,-0.153259,0.105957,0.943665
1480690443292835,-0.272949,-0.15387,0.105652,0.943726
1480690443316899,-0.272827,-0.154419,0.105469,0.943726
1480690443344472,-0.273132,-0.154846,0.105347,0.943542
1480690443353496,-0.273376,-0.15509,0.105286,0.94342
1480690443376056,-0.273865,-0.155334,0.105286,0.943237
1480690443399618,-0.274658,-0.155457,0.105225,0.942993
1480690443412653,-0.275757,-0.155518,0.105042,0.942688
1480690443459277,-0.277283,-0.155518,0.104797,0.942322
1480690443461784,-0.279297,-0.155396,0.104675,0.941711
1480690443481336,-0.281799,-0.155273,0.104736,0.940979
1480690443495874,-0.284485,-0.15509,0.104858,0.940186
1480690443518434,-0.286682,-0.154785,0.105225,0.939575
1480690443539992,-0.288757,-0.153992,0.105957,0.938965
1480690443557036,-0.291504,-0.153137,0.106812,0.938171
1480690443578092,-0.294617,-0.152039,0.107788,0.937256
1480690443600152,-0.297607,-0.15094,0.108887,0.93634
1480690443616194,-0.300293,-0.14978,0.110168,0.935547
1480690443646281,-0.302368,-0.148376,0.111389,0.934937
1480690443659810,-0.304016,-0.147278,0.112305,0.934448
1480690443677859,-0.305664,-0.146484,0.113037,0.93396
1480690443705936,-0.307312,-0.145935,0.113403,0.933472
1480690443736515,-0.30896,-0.145569,0.113831,0.932922
1480690443739022,-0.310303,-0.145447,0.114258,0.932434
1480690443758573,-0.311218,-0.145752,0.114685,0.932068
1480690443787152,-0.31134,-0.146057,0.115112,0.931885
1480690443796173,-0.311157,-0.14624,0.11554,0.931885
1480690443818735,-0.311279,-0.146484,0.115967,0.931763
1480690443839792,-0.311584,-0.146729,0.116333,0.93158
1480690443856336,-0.312012,-0.146912,0.116638,0.931396
1480690443878392,-0.312134,-0.147095,0.116943,0.931213
1480690443899447,-0.312378,-0.147583,0.117371,0.93103
1480690443924012,-0.312439,-0.148376,0.117493,0.930908
1480690443938554,-0.312317,-0.149353,0.117432,0.930786
1480690443961111,-0.312378,-0.150391,0.11731,0.930603
1480690443983672,-0.312866,-0.151245,0.117249,0.930298
1480690444004227,-0.313293,-0.151855,0.117188,0.930054
1480690444021273,-0.313904,-0.152222,0.117065,0.92981
1480690444036313,-0.314514,-0.152466,0.116943,0.929565
1480690444059372,-0.314941,-0.152588,0.116882,0.929443
1480690444080930,-0.314941,-0.152588,0.116882,0.929443
1480690444095470,-0.314941,-0.152527,0.116882,0.929443
1480690444120034,-0.315186,-0.152405,0.117065,0.929321
1480690444141093,-0.315491,-0.152344,0.117188,0.92926
1480690444162146,-0.315857,-0.152222,0.117432,0.929138
1480690444179191,-0.316101,-0.152222,0.117493,0.929016
1480690444201251,-0.316345,-0.152222,0.117493,0.928955
1480690444229826,-0.316345,-0.152222,0.117554,0.928894
1480690444238853,-0.315979,-0.152466,0.117432,0.929016
1480690444260908,-0.31543,-0.152832,0.117432,0.929138
1480690444276951,-0.315125,-0.153137,0.117554,0.929199
1480690444299511,-0.315063,-0.153259,0.117859,0.929138
1480690444321069,-0.315063,-0.153198,0.117859,0.929138
1480690444335608,-0.315063,-0.153198,0.117859,0.929138
1480690444358669,-0.315063,-0.15332,0.11792,0.929138
1480690444381228,-0.314941,-0.153381,0.117981,0.929138
1480690444395266,-0.314941,-0.153442,0.117981,0.929138
1480690444418327,-0.315918,-0.153625,0.117859,0.928772
1480690444456429,-0.316956,-0.153748,0.117554,0.928467
1480690444461943,-0.317566,-0.153809,0.117188,0.928284
1480690444478487,-0.317871,-0.153748,0.117065,0.928223
1480690444508568,-0.318359,-0.153503,0.117065,0.928101
1480690444525112,-0.318726,-0.153137,0.117126,0.927979
1480690444538648,-0.319031,-0.15271,0.117188,0.927979
1480690444561207,-0.319397,-0.152283,0.117188,0.927917
1480690444582263,-0.319458,-0.151917,0.117188,0.927917
1480690444598305,-0.319763,-0.151855,0.117188,0.927856
1480690444620867,-0.319763,-0.151855,0.117188,0.927856
1480690444641922,-0.319397,-0.151733,0.117126,0.92804
1480690444665986,-0.319092,-0.151733,0.117188,0.928101
1480690444681026,-0.318848,-0.151978,0.117126,0.928162
1480690444703586,-0.318726,-0.152283,0.116882,0.928162
1480690444734669,-0.318726,-0.152344,0.116882,0.928162
1480690444742188,-0.318726,-0.152344,0.116882,0.928162
1480690444762242,-0.318481,-0.152283,0.117065,0.928223
1480690444786307,-0.318176,-0.151978,0.117371,0.928345
1480690444807363,-0.317749,-0.151672,0.117676,0.928528
1480690444829420,-0.317383,-0.151306,0.118286,0.92865
1480690444838448,-0.316589,-0.15094,0.119263,0.928833
1480690444862007,-0.315308,-0.150574,0.120483,0.929138
1480690444882563,-0.314087,-0.150208,0.121765,0.929504
1480690444898604,-0.312927,-0.149963,0.122681,0.92981
1480690444928685,-0.312012,-0.14978,0.123474,0.930054
1480690444943724,-0.311584,-0.149597,0.124146,0.930115
1480690444958766,-0.311768,-0.149475,0.124512,0.929993
1480690444980823,-0.312378,-0.149475,0.124573,0.92981
1480690445010402,-0.312744,-0.149536,0.124451,0.929688
1480690445018924,-0.312622,-0.14978,0.124451,0.929688
1480690445040985,-0.3125,-0.149902,0.124512,0.929688
1480690445063543,-0.312439,-0.150024,0.124451,0.929688
1480690445078081,-0.312195,-0.150085,0.124207,0.92981
1480690445116185,-0.312256,-0.150146,0.124207,0.92981
1480690445123703,-0.312561,-0.150146,0.124023,0.929688
1480690445144759,-0.313354,-0.150146,0.123718,0.929443
1480690445161804,-0.314209,-0.150085,0.12323,0.92926
1480690445190881,-0.314819,-0.149963,0.122681,0.929138
1480690445197902,-0.315918,-0.149719,0.122192,0.928894
1480690445228482,-0.316711,-0.149475,0.121521,0.928711
1480690445260066,-0.3172,-0.149231,0.120972,0.92865
1480690445264582,-0.317444,-0.149048,0.120422,0.928711
1480690445288645,-0.317383,-0.148926,0.119812,0.928833
1480690445311202,-0.317139,-0.148804,0.119263,0.929016
1480690445318722,-0.3172,-0.148621,0.118591,0.929077
1480690445341282,-0.317505,-0.148438,0.117859,0.929077
1480690445371365,-0.317749,-0.148193,0.116943,0.929199
1480690445377878,-0.318115,-0.147949,0.116028,0.929199
1480690445402446,-0.319092,-0.147766,0.115112,0.929016
1480690445424503,-0.320007,-0.147278,0.114258,0.928894
1480690445444557,-0.320618,-0.146484,0.113586,0.928894
1480690445461601,-0.321167,-0.14563,0.112915,0.928894
1480690445483660,-0.32196,-0.145081,0.112061,0.928833
1480690445504720,-0.323425,-0.14447,0.111084,0.928528
1480690445536301,-0.325439,-0.143982,0.110046,0.92804
1480690445543318,-0.328064,-0.143555,0.109192,0.927246
1480690445564374,-0.330322,-0.143127,0.108582,0.926575
1480690445580919,-0.33136,-0.1427,0.108215,0.926331
1480690445603479,-0.331299,-0.142578,0.10791,0.926392
1480690445624535,-0.330688,-0.142517,0.107666,0.926697
1480690445641081,-0.329529,-0.1427,0.107605,0.927063
1480690445663639,-0.32782,-0.143188,0.107788,0.927551
1480690445684695,-0.326111,-0.143677,0.108032,0.92804
1480690445701240,-0.32489,-0.144104,0.108215,0.928406
1480690445723297,-0.323914,-0.144348,0.108521,0.92865
1480690445751874,-0.323425,-0.144165,0.108948,0.928833
1480690445761900,-0.324036,-0.143555,0.109253,0.92865
1480690445784460,-0.324524,-0.142883,0.109314,0.928589
1480690445804523,-0.324768,-0.142395,0.109375,0.928589
1480690445821058,-0.3255,-0.141968,0.109314,0.928406
1480690445844621,-0.32605,-0.141968,0.10907,0.928223
1480690445866178,-0.326477,-0.142029,0.109009,0.928101
1480690445881217,-0.326599,-0.14209,0.108948,0.92804
1480690445903779,-0.326111,-0.142151,0.108704,0.928223
1480690445925836,-0.325684,-0.142578,0.108398,0.928345
1480690445940876,-0.325195,-0.143127,0.108093,0.928467
1480690445963436,-0.325012,-0.143555,0.107788,0.928467
1480690445985998,-0.325378,-0.14386,0.107361,0.928406
1480690446000535,-0.326233,-0.143982,0.106812,0.928101
1480690446039137,-0.327393,-0.144043,0.106262,0.927795
1480690446062199,-0.328247,-0.144165,0.105652,0.92749
1480690446067213,-0.328857,-0.144287,0.105286,0.927307
1480690446089771,-0.329773,-0.144165,0.10498,0.927063
1480690446105815,-0.330872,-0.143921,0.104675,0.926697
1480690446120855,-0.331787,-0.143677,0.104431,0.926453
1480690446143415,-0.332642,-0.143555,0.104309,0.926208
1480690446166476,-0.333618,-0.143433,0.104187,0.925842
1480690446180514,-0.334534,-0.143372,0.104065,0.925537
1480690446203575,-0.335327,-0.143188,0.103882,0.925293
1480690446226134,-0.336426,-0.142944,0.103821,0.924988
1480690446248695,-0.337402,-0.142639,0.103821,0.924683
1480690446264236,-0.337891,-0.142456,0.103882,0.9245
1480690446286296,-0.338196,-0.14209,0.104004,0.924438
1480690446315874,-0.338562,-0.141724,0.104126,0.924316
1480690446323395,-0.339172,-0.141479,0.104187,0.924194
1480690446345953,-0.339905,-0.141174,0.104126,0.92395
1480690446368514,-0.340332,-0.14093,0.104065,0.923828
1480690446383553,-0.341125,-0.140686,0.104065,0.923584
1480690446406114,-0.341919,-0.140381,0.104065,0.92334
1480690446427168,-0.342346,-0.14032,0.104004,0.923157
1480690446449729,-0.342651,-0.140259,0.103943,0.923096
1480690446466273,-0.34259,-0.140259,0.103943,0.923096
1480690446487329,-0.34259,-0.140259,0.103943,0.923096
1480690446509388,-0.34259,-0.14032,0.103943,0.923096
1480690446526934,-0.342651,-0.140259,0.103943,0.923096
1480690446546988,-0.342712,-0.140259,0.103943,0.923035
1480690446565537,-0.343018,-0.14032,0.104004,0.922913
1480690446586097,-0.343079,-0.14032,0.104004,0.922913
1480690446616173,-0.342773,-0.14032,0.104065,0.923035
1480690446624194,-0.342285,-0.140442,0.104065,0.923157
1480690446646252,-0.342346,-0.140442,0.104065,0.923157
1480690446667308,-0.342346,-0.140503,0.104065,0.923157
1480690446684353,-0.342407,-0.140503,0.104065,0.923096
1480690446705911,-0.342468,-0.140442,0.104126,0.923096
1480690446726967,-0.342468,-0.140442,0.104126,0.923096
1480690446743510,-0.342468,-0.140442,0.104126,0.923096
1480690446773590,-0.342346,-0.140381,0.104309,0.923157
1480690446787127,-0.342041,-0.140442,0.104431,0.923218
1480690446811190,-0.341736,-0.140442,0.104553,0.92334
1480690446841270,-0.341797,-0.140381,0.104553,0.923279
1480690446848289,-0.341858,-0.140442,0.104553,0.923279
1480690446870852,-0.341858,-0.140442,0.104553,0.923279
1480690446893409,-0.341858,-0.140442,0.104553,0.923279
1480690446908449,-0.341858,-0.140442,0.104553,0.923279
1480690446922988,-0.341919,-0.140442,0.104553,0.923279
1480690446946048,-0.342224,-0.140442,0.104553,0.923157
1480690446968610,-0.342529,-0.140442,0.104553,0.923035
1480690446983148,-0.342529,-0.140442,0.104553,0.923035
1480690447006209,-0.342529,-0.140442,0.104553,0.923035
1480690447036291,-0.342529,-0.140442,0.104553,0.923035
1480690447049324,-0.34259,-0.140442,0.104553,0.923035
1480690447065867,-0.342651,-0.140442,0.104553,0.922974
1480690447088434,-0.342651,-0.140442,0.104553,0.922974
1480690447117008,-0.342651,-0.140442,0.104553,0.922974
1480690447149595,-0.342651,-0.140442,0.104553,0.922974
1480690447151600,-0.342651,-0.140442,0.104553,0.922974
1480690447163131,-0.342651,-0.140442,0.104553,0.922974
1480690447186194,-0.342773,-0.140442,0.104553,0.922974
1480690447208751,-0.342773,-0.140381,0.104553,0.922913
1480690447222789,-0.342834,-0.140381,0.104614,0.922913
1480690447246854,-0.342834,-0.140381,0.104614,0.922913
1480690447268410,-0.342834,-0.140381,0.104614,0.922913
1480690447289466,-0.342834,-0.140381,0.104614,0.922913
1480690447312111,-0.342896,-0.140381,0.104614,0.922913
1480690447328655,-0.342957,-0.140381,0.104614,0.922852
1480690447349714,-0.343018,-0.140381,0.104614,0.922852
1480690447366256,-0.343018,-0.140381,0.104614,0.922852
1480690447388314,-0.343018,-0.140381,0.104614,0.922852
1480690447409871,-0.343018,-0.140381,0.104614,0.922852
1480690447425914,-0.343018,-0.140381,0.104614,0.922852
1480690447448473,-0.343506,-0.140381,0.104736,0.922668
1480690447469530,-0.343506,-0.140381,0.104736,0.922668
1480690447486575,-0.343567,-0.140381,0.104736,0.922607
1480690447508634,-0.343384,-0.14032,0.104797,0.922729
1480690447529690,-0.343079,-0.140381,0.104797,0.922791
1480690447559770,-0.34314,-0.140381,0.104797,0.922791
1480690447568794,-0.343506,-0.140442,0.104858,0.922668
1480690447589348,-0.343567,-0.140442,0.104858,0.922607
1480690447605894,-0.343628,-0.140442,0.104858,0.922607
1480690447628452,-0.343628,-0.140381,0.104919,0.922607
1480690447649509,-0.343384,-0.14032,0.105164,0.922668
1480690447666553,-0.343079,-0.140442,0.105408,0.922729
1480690447688615,-0.342285,-0.140686,0.105774,0.922974
1480690447710169,-0.341431,-0.141052,0.106079,0.923157
1480690447726212,-0.340759,-0.141479,0.106323,0.92334
1480690447748271,-0.339905,-0.142029,0.106628,0.923523
1480690447778853,-0.338745,-0.142517,0.106873,0.923828
1480690447785872,-0.337585,-0.142822,0.106995,0.924194
1480690447810436,-0.336487,-0.143188,0.107056,0.924561
1480690447837009,-0.335693,-0.143433,0.107239,0.924805
1480690447846030,-0.335205,-0.143494,0.107361,0.924927
1480690447869595,-0.334595,-0.143494,0.1073,0.925171
1480690447891653,-0.333923,-0.143555,0.107239,0.925415
1480690447905190,-0.333923,-0.143494,0.107056,0.925415
1480690447929252,-0.334351,-0.143494,0.106567,0.925293
1480690447950809,-0.335205,-0.143555,0.106018,0.92511
1480690447972377,-0.336609,-0.143494,0.10553,0.924622
1480690447988409,-0.33844,-0.143555,0.10498,0.924011
1480690448010969,-0.339722,-0.14386,0.104309,0.923584
1480690448025508,-0.340332,-0.144043,0.10376,0.923401
1480690448048569,-0.340271,-0.144104,0.103394,0.923462
1480690448071132,-0.339966,-0.143982,0.103271,0.923584
1480690448085668,-0.339905,-0.14386,0.103333,0.923584
1480690448114745,-0.339966,-0.143799,0.103333,0.923584
1480690448130788,-0.34021,-0.143677,0.103638,0.923523
1480690448145327,-0.340149,-0.143677,0.103821,0.923523
1480690448168891,-0.339722,-0.143494,0.104065,0.923645
1480690448190948,-0.339844,-0.143188,0.104492,0.923584
1480690448205487,-0.340637,-0.143372,0.104553,0.923279
1480690448230053,-0.341003,-0.14386,0.104309,0.923096
1480690448257124,-0.341187,-0.144104,0.104065,0.923035
1480690448272164,-0.341919,-0.14447,0.103821,0.922729
1480690448288708,-0.343018,-0.144958,0.103455,0.922302
1480690448312290,-0.343445,-0.145508,0.103149,0.922058
1480690448332324,-0.342834,-0.145996,0.102905,0.922241
1480690448348366,-0.34198,-0.146423,0.102783,0.922485
1480690448370928,-0.341431,-0.14679,0.102783,0.922668
1480690448391983,-0.341064,-0.147217,0.102783,0.922729
1480690448408527,-0.341064,-0.147461,0.102783,0.922668
1480690448437103,-0.341064,-0.147461,0.102783,0.922668
1480690448452144,-0.341064,-0.147461,0.102783,0.922668
1480690448474702,-0.341309,-0.147522,0.102966,0.922546
1480690448498768,-0.341614,-0.147644,0.103027,0.922424
1480690448512302,-0.342041,-0.147705,0.103027,0.922241
1480690448528345,-0.342407,-0.147705,0.10321,0.922119
1480690448551406,-0.342651,-0.147644,0.103516,0.921997
1480690448573465,-0.34259,-0.147644,0.103821,0.921936
1480690448588505,-0.342102,-0.147644,0.104248,0.922119
1480690448610564,-0.341431,-0.147583,0.104797,0.922302
1480690448639641,-0.340393,-0.147522,0.105469,0.922607
1480690448648666,-0.339172,-0.147278,0.106384,0.922974
1480690448672229,-0.33783,-0.14679,0.107605,0.923401
1480690448693785,-0.336731,-0.146545,0.108948,0.923706
1480690448721859,-0.334717,-0.146606,0.109802,0.924316
1480690448731886,-0.331909,-0.147034,0.110413,0.925171
1480690448753444,-0.329712,-0.147705,0.111084,0.925781
1480690448774500,-0.328613,-0.148438,0.111572,0.926025
1480690448791043,-0.327698,-0.149231,0.111816,0.926147
1480690448813604,-0.32666,-0.149841,0.112,0.926392
1480690448834660,-0.325806,-0.15033,0.112183,0.926636
1480690448851706,-0.325378,-0.150635,0.112183,0.926697
1480690448873763,-0.3255,-0.15094,0.112122,0.926636
1480690448888803,-0.325562,-0.150879,0.112183,0.926636
1480690448911865,-0.325623,-0.150879,0.112183,0.926575
1480690448934425,-0.326355,-0.150574,0.112122,0.926392
1480690448947961,-0.326782,-0.150269,0.112061,0.926331
1480690448978542,-0.326782,-0.150269,0.112061,0.92627
1480690448993582,-0.326477,-0.150146,0.112122,0.926453
1480690449008121,-0.325989,-0.149841,0.112183,0.926636
1480690449031182,-0.325623,-0.149536,0.112366,0.926819
1480690449053742,-0.325439,-0.149109,0.112793,0.92688
1480690449067779,-0.325073,-0.148621,0.113098,0.927063
1480690449092345,-0.323853,-0.14801,0.113342,0.927551
1480690449113401,-0.322815,-0.147217,0.113525,0.927979
1480690449128942,-0.322876,-0.146606,0.113525,0.928101
1480690449151502,-0.324036,-0.146179,0.113403,0.927734
1480690449173561,-0.32605,-0.145508,0.113403,0.927185
1480690449194616,-0.328918,-0.144287,0.113342,0.926331
1480690449211161,-0.331482,-0.142883,0.113403,0.925659
1480690449235225,-0.333557,-0.141663,0.113831,0.925049
1480690449254777,-0.335571,-0.140747,0.11438,0.924377
1480690449270845,-0.336914,-0.140015,0.114502,0.924011
1480690449293379,-0.337463,-0.139038,0.114441,0.92395
1480690449314437,-0.337585,-0.138,0.114624,0.924011
1480690449338500,-0.337708,-0.137878,0.114685,0.924011
1480690449361059,-0.337463,-0.138123,0.114868,0.924011
1480690449374595,-0.335999,-0.138611,0.115173,0.924438
1480690449391139,-0.334473,-0.138977,0.115723,0.924866
1480690449414201,-0.333069,-0.139343,0.11615,0.925232
1480690449434755,-0.331604,-0.139587,0.116455,0.92572
1480690449451299,-0.330811,-0.139709,0.116638,0.925964
1480690449473359,-0.330505,-0.140015,0.116577,0.926025
1480690449494414,-0.330505,-0.140564,0.116394,0.925964
1480690449510958,-0.331055,-0.140808,0.116272,0.92572
1480690449533522,-0.33197,-0.140991,0.116028,0.925415
1480690449557582,-0.33252,-0.140808,0.115906,0.925293
1480690449571620,-0.33313,-0.14032,0.115967,0.92511
1480690449593678,-0.334534,-0.139709,0.115845,0.924744
1480690449616238,-0.336243,-0.139282,0.115417,0.924194
1480690449636792,-0.338135,-0.139099,0.114929,0.923584
1480690449654841,-0.340332,-0.138977,0.11438,0.922913
1480690449675897,-0.341797,-0.138977,0.11377,0.922424
1480690449690937,-0.342651,-0.138916,0.113281,0.92218
1480690449713497,-0.343445,-0.138672,0.112915,0.921997
1480690449736057,-0.343872,-0.138367,0.112488,0.921936
1480690449751097,-0.344055,-0.138367,0.112244,0.921875
1480690449773657,-0.344177,-0.138611,0.112244,0.921814
1480690449796216,-0.344177,-0.138611,0.112244,0.921814
1480690449810254,-0.344177,-0.138672,0.112183,0.921814
1480690449840835,-0.344055,-0.13855,0.112244,0.921875
1480690449864398,-0.344116,-0.138489,0.112244,0.921814
1480690449871918,-0.344666,-0.13855,0.112305,0.921631
1480690449893476,-0.345032,-0.138672,0.112183,0.921448
1480690449922052,-0.345276,-0.138916,0.111938,0.921387
1480690449931075,-0.345154,-0.139099,0.111633,0.921387
1480690449954137,-0.345154,-0.139221,0.111389,0.921448
1480690449976195,-0.345215,-0.139404,0.111206,0.921387
1480690449990235,-0.345276,-0.139526,0.110962,0.921387
1480690450013795,-0.344971,-0.139648,0.11084,0.921509
1480690450035854,-0.344788,-0.139771,0.110657,0.92157
1480690450056911,-0.344482,-0.139893,0.110413,0.921692
1480690450073454,-0.344238,-0.139954,0.110168,0.921814
1480690450096516,-0.344299,-0.139954,0.110168,0.921814
1480690450110552,-0.344543,-0.139954,0.110046,0.921692
1480690450140131,-0.344543,-0.139954,0.109802,0.921753
1480690450156174,-0.34436,-0.140015,0.109558,0.921814
1480690450178233,-0.344177,-0.140015,0.109436,0.921936
1480690450193774,-0.343933,-0.140137,0.109192,0.921997
1480690450216843,-0.343933,-0.140137,0.109192,0.921997
1480690450237390,-0.343994,-0.140137,0.109192,0.921997
1480690450253432,-0.344055,-0.140076,0.109192,0.921997
1480690450284015,-0.344055,-0.140076,0.109192,0.921997
1480690450297048,-0.344055,-0.140076,0.109192,0.921997
1480690450313593,-0.344055,-0.140076,0.109192,0.921997
1480690450336153,-0.344055,-0.140076,0.109192,0.921997
1480690450357208,-0.344116,-0.140076,0.109192,0.921936
1480690450374755,-0.344116,-0.140076,0.109253,0.921936
1480690450395811,-0.344543,-0.140076,0.10907,0.921814
1480690450418371,-0.34491,-0.140076,0.108887,0.921692
1480690450446947,-0.345581,-0.140015,0.108704,0.921448
1480690450455971,-0.346619,-0.140015,0.108276,0.921143
1480690450477027,-0.3479,-0.139954,0.107666,0.920715
1480690450494072,-0.349915,-0.139648,0.106934,0.920105
1480690450516632,-0.352905,-0.138977,0.106262,0.919128
1480690450536686,-0.355896,-0.138306,0.105774,0.918152
1480690450553731,-0.357788,-0.137695,0.105347,0.917542
1480690450582308,-0.358948,-0.137085,0.104919,0.917236
1480690450598350,-0.359741,-0.136719,0.104553,0.917053
1480690450613390,-0.360596,-0.136475,0.104309,0.916748
1480690450635950,-0.361267,-0.136353,0.104309,0.916504
1480690450659011,-0.361328,-0.136292,0.104309,0.916504
1480690450673550,-0.361023,-0.136353,0.104431,0.916565
1480690450697112,-0.360413,-0.136353,0.104553,0.916809
1480690450726190,-0.359985,-0.136292,0.104614,0.916992
1480690450733211,-0.359985,-0.136292,0.104614,0.916992
1480690450757774,-0.360046,-0.136292,0.104614,0.916992
1480690450778328,-0.360107,-0.136292,0.104614,0.916931
1480690450792867,-0.360168,-0.136292,0.104614,0.916931
1480690450815929,-0.359985,-0.13623,0.104675,0.916992
1480690450838488,-0.359985,-0.136169,0.104675,0.916992
1480690450853027,-0.359924,-0.136169,0.104675,0.916992
1480690450876088,-0.359924,-0.136169,0.104675,0.916992
1480690450898649,-0.359985,-0.136169,0.104675,0.916992
1480690450912685,-0.360046,-0.136169,0.104736,0.916992
1480690450942264,-0.359924,-0.13623,0.104736,0.916992
1480690450958313,-0.359741,-0.13623,0.104919,0.917053
1480690450972846,-0.359741,-0.136169,0.104919,0.917053
1480690451001924,-0.359741,-0.13623,0.104919,0.917053
1480690451018467,-0.360107,-0.136169,0.105042,0.916931
1480690451033005,-0.360168,-0.136169,0.105042,0.91687
1480690451056066,-0.360229,-0.136169,0.105103,0.91687
1480690451086149,-0.360229,-0.136108,0.105103,0.91687
1480690451099684,-0.360229,-0.136108,0.105103,0.91687
1480690451116228,-0.360229,-0.136169,0.105103,0.91687
1480690451138286,-0.360229,-0.136108,0.105103,0.91687
1480690451159343,-0.360291,-0.136108,0.105103,0.91687
1480690451175885,-0.360168,-0.136169,0.105103,0.91687
1480690451198445,-0.359863,-0.136108,0.105225,0.916992
1480690451219501,-0.35968,-0.136108,0.105286,0.917053
1480690451236046,-0.359375,-0.13623,0.105225,0.917175
1480690451258605,-0.35907,-0.136414,0.105286,0.917236
1480690451279662,-0.359131,-0.136475,0.105286,0.917236
1480690451304227,-0.358887,-0.136597,0.105225,0.917297
1480690451319267,-0.358765,-0.136597,0.105347,0.917358
1480690451339822,-0.358826,-0.136597,0.105347,0.917297
1480690451355864,-0.358826,-0.136597,0.105347,0.917297
1480690451379929,-0.358826,-0.136597,0.105347,0.917297
1480690451399482,-0.358826,-0.136597,0.105347,0.917297
1480690451417027,-0.358887,-0.136597,0.105347,0.917297
1480690451446606,-0.358887,-0.136597,0.105347,0.917297
1480690451459640,-0.358948,-0.136536,0.105347,0.917297
1480690451476184,-0.358948,-0.136536,0.105347,0.917236
1480690451498745,-0.358582,-0.136597,0.105286,0.917419
1480690451526819,-0.358276,-0.13678,0.105164,0.91748
1480690451537347,-0.358093,-0.137024,0.105164,0.917542
1480690451558403,-0.358032,-0.137085,0.105225,0.917542
1480690451588482,-0.357788,-0.137085,0.105225,0.917664
1480690451596002,-0.357605,-0.137146,0.105225,0.917725
1480690451618562,-0.357239,-0.137146,0.105286,0.917847
1480690451641123,-0.357239,-0.137146,0.105286,0.917847
1480690451656162,-0.357239,-0.137146,0.105286,0.917847
1480690451679725,-0.356995,-0.137329,0.105225,0.917908
1480690451700781,-0.35675,-0.137451,0.105164,0.91803
1480690451721837,-0.356506,-0.137512,0.105164,0.918091
1480690451746904,-0.356323,-0.137573,0.105103,0.918152
1480690451768461,-0.356201,-0.137634,0.105103,0.918213
1480690451781997,-0.356201,-0.137634,0.105103,0.918213
1480690451804557,-0.356018,-0.137756,0.105042,0.918274
1480690451837645,-0.355774,-0.137756,0.10498,0.918335
1480690451866723,-0.355652,-0.137695,0.10498,0.918396
1480690451868727,-0.355652,-0.137695,0.10498,0.918396
1480690451880760,-0.355713,-0.137695,0.10498,0.918396
1480690451895298,-0.355713,-0.137695,0.10498,0.918396
1480690451918360,-0.35553,-0.137695,0.10498,0.918457
1480690451941421,-0.355164,-0.137695,0.104919,0.91864
1480690451956962,-0.354858,-0.137634,0.104919,0.918762
1480690451978519,-0.354858,-0.137634,0.104919,0.918762
1480690452001079,-0.354919,-0.137634,0.104919,0.918701
1480690452022136,-0.354919,-0.137634,0.104919,0.918701
1480690452046200,-0.354919,-0.137634,0.104919,0.918701
1480690452061240,-0.354919,-0.137634,0.104919,0.918701
1480690452083299,-0.354736,-0.137634,0.104858,0.918762
1480690452111874,-0.354797,-0.137634,0.104858,0.918762
1480690452120898,-0.354858,-0.137573,0.104919,0.918762
1480690452141954,-0.354858,-0.137573,0.104919,0.918762
1480690452165517,-0.354736,-0.137756,0.104858,0.918762
1480690452181560,-0.354736,-0.137756,0.104919,0.918762
1480690452202115,-0.354736,-0.137756,0.104858,0.918762
1480690452218658,-0.354736,-0.137756,0.104858,0.918762
1480690452242722,-0.354797,-0.137756,0.104919,0.918762
1480690452262776,-0.354858,-0.137756,0.104919,0.918762
1480690452278317,-0.354858,-0.137756,0.104919,0.918762
1480690452300877,-0.355042,-0.137817,0.104919,0.91864
1480690452321933,-0.355286,-0.137878,0.104919,0.918518
1480690452338477,-0.355286,-0.137878,0.104919,0.918518
1480690452363042,-0.355347,-0.137878,0.104919,0.918518
1480690452383598,-0.355408,-0.137817,0.104919,0.918518
1480690452422202,-0.355286,-0.137756,0.104919,0.918518
1480690452444258,-0.355286,-0.137756,0.104919,0.918579
1480690452449773,-0.355469,-0.137817,0.10498,0.918457
1480690452458296,-0.355469,-0.137817,0.10498,0.918457
1480690452480856,-0.35553,-0.137817,0.10498,0.918457
1480690452503416,-0.355591,-0.137817,0.10498,0.918457
1480690452525978,-0.355591,-0.137817,0.10498,0.918396
1480690452541016,-0.355652,-0.137817,0.10498,0.918396
1480690452563576,-0.355652,-0.137817,0.10498,0.918396
1480690452579117,-0.355774,-0.137878,0.104919,0.918335
1480690452601175,-0.355835,-0.137878,0.104919,0.918335
1480690452638274,-0.355835,-0.137878,0.104919,0.918335
1480690452640782,-0.355896,-0.137878,0.10498,0.918274
1480690452666850,-0.355957,-0.137878,0.10498,0.918274
1480690452698436,-0.356018,-0.137878,0.10498,0.918274
1480690452700942,-0.355957,-0.137878,0.10498,0.918274
1480690452721059,-0.356201,-0.137939,0.104858,0.918152
1480690452743618,-0.356201,-0.137939,0.104858,0.918152
1480690452758658,-0.356262,-0.137939,0.104858,0.918152
1480690452782222,-0.356323,-0.137939,0.104919,0.918152
1480690452803278,-0.356323,-0.137939,0.104919,0.918152
1480690452817815,-0.356323,-0.137939,0.104919,0.918152
1480690452840877,-0.356384,-0.137878,0.104919,0.918152
1480690452865945,-0.356384,-0.137878,0.104919,0.918091
1480690452877976,-0.356384,-0.137878,0.104919,0.918091
1480690452901037,-0.356445,-0.137878,0.104919,0.918091
1480690452923597,-0.356506,-0.137878,0.104919,0.918091
1480690452937636,-0.356567,-0.137878,0.104919,0.91803
1480690452960695,-0.356567,-0.137878,0.104919,0.91803
1480690452999799,-0.356567,-0.137878,0.104919,0.91803
1480690453004312,-0.356567,-0.137878,0.104919,0.91803
1480690453020856,-0.356567,-0.137878,0.104919,0.91803
1480690453045421,-0.356628,-0.137878,0.10498,0.91803
1480690453064472,-0.356689,-0.137817,0.10498,0.91803
1480690453081015,-0.356689,-0.137817,0.10498,0.917969
1480690453103575,-0.356689,-0.137817,0.10498,0.917969
1480690453124632,-0.356689,-0.137817,0.10498,0.917969
1480690453141176,-0.35675,-0.137817,0.10498,0.917969
1480690453164237,-0.357117,-0.137817,0.10498,0.917847
1480690453184290,-0.357117,-0.137756,0.10498,0.917847
1480690453201337,-0.357178,-0.137756,0.10498,0.917786
1480690453223395,-0.357239,-0.137756,0.10498,0.917786
1480690453245954,-0.357178,-0.137817,0.10498,0.917786
1480690453261496,-0.357544,-0.137817,0.104919,0.917664
1480690453283554,-0.357544,-0.137756,0.104919,0.917664
1480690453304610,-0.357483,-0.137817,0.10498,0.917725
1480690453321154,-0.357422,-0.137695,0.105103,0.917725
1480690453343213,-0.357239,-0.137695,0.105103,0.917786
1480690453364770,-0.357056,-0.137634,0.105042,0.917847
1480690453382821,-0.356812,-0.137878,0.104919,0.917969
1480690453416909,-0.356812,-0.137878,0.104919,0.917969
1480690453425933,-0.356934,-0.137878,0.104919,0.917908
1480690453448495,-0.356934,-0.137817,0.104797,0.917908
1480690453466042,-0.35675,-0.137756,0.104797,0.91803
1480690453487099,-0.35675,-0.137695,0.104797,0.91803
1480690453501134,-0.35675,-0.137695,0.104797,0.91803
1480690453529709,-0.35675,-0.137695,0.104797,0.91803
1480690453552269,-0.35675,-0.137695,0.104797,0.91803
1480690453561292,-0.356812,-0.137695,0.104797,0.917969
1480690453583352,-0.356812,-0.137573,0.104797,0.91803
1480690453605912,-0.356628,-0.137573,0.104858,0.918091
1480690453620451,-0.356689,-0.137573,0.104858,0.918091
1480690453643512,-0.356689,-0.137573,0.104858,0.918091
1480690453667075,-0.356628,-0.137634,0.104858,0.918091
1480690453694648,-0.356689,-0.137573,0.104858,0.91803
1480690453726732,-0.356689,-0.137512,0.104858,0.91803
1480690453729239,-0.356628,-0.137512,0.104858,0.918091
1480690453750796,-0.356628,-0.137451,0.104919,0.918091
1480690453753805,-0.356628,-0.137451,0.104919,0.918091
1480690453768844,-0.356628,-0.137451,0.104919,0.918091
1480690453791405,-0.356689,-0.137512,0.104858,0.918091
1480690453807948,-0.356689,-0.137451,0.104919,0.91803
1480690453829004,-0.35675,-0.13739,0.104919,0.918091
1480690453851564,-0.356567,-0.137329,0.104919,0.918152
1480690453868108,-0.356567,-0.137329,0.104919,0.918152
1480690453888663,-0.35675,-0.13739,0.104919,0.91803
1480690453911223,-0.35675,-0.13739,0.104919,0.91803
1480690453942807,-0.35675,-0.13739,0.104919,0.91803
1480690453948823,-0.356812,-0.13739,0.104919,0.91803
1480690453972888,-0.356873,-0.13739,0.104919,0.91803
1480690454003970,-0.356873,-0.13739,0.104919,0.917969
1480690454026031,-0.356873,-0.13739,0.104919,0.917969
1480690454031543,-0.356934,-0.13739,0.104919,0.917969
1480690454056610,-0.356934,-0.13739,0.104919,0.917969
1480690454069145,-0.356934,-0.13739,0.104919,0.917969
1480690454091202,-0.357056,-0.13739,0.10498,0.917908
1480690454109250,-0.357056,-0.13739,0.10498,0.917908
1480690454128802,-0.357056,-0.13739,0.10498,0.917908
1480690454151362,-0.357056,-0.13739,0.10498,0.917908
1480690454169410,-0.357056,-0.13739,0.10498,0.917908
1480690454188962,-0.357117,-0.13739,0.10498,0.917908
1480690454213026,-0.357117,-0.13739,0.10498,0.917908
1480690454251127,-0.357178,-0.13739,0.10498,0.917847
1480690454253131,-0.357239,-0.13739,0.10498,0.917847
1480690454281711,-0.357239,-0.13739,0.10498,0.917847
1480690454293740,-0.357239,-0.13739,0.10498,0.917847
1480690454308781,-0.357056,-0.137451,0.10498,0.917908
1480690454331340,-0.357056,-0.13739,0.10498,0.917908
1480690454353900,-0.357117,-0.13739,0.10498,0.917908
1480690454368941,-0.357178,-0.13739,0.10498,0.917908
1480690454391500,-0.357178,-0.13739,0.10498,0.917847
1480690454414061,-0.357178,-0.13739,0.10498,0.917847
1480690454429099,-0.356812,-0.137512,0.104858,0.91803
1480690454451158,-0.356689,-0.137573,0.104919,0.91803
1480690454473719,-0.356689,-0.137573,0.104919,0.91803
1480690454499290,-0.35675,-0.137573,0.104919,0.91803
1480690454518838,-0.356812,-0.137512,0.104919,0.91803
1480690454534380,-0.356812,-0.137512,0.104919,0.91803
1480690454557943,-0.356812,-0.137512,0.104919,0.917969
1480690454571478,-0.356567,-0.137695,0.104797,0.918091
1480690454594038,-0.356445,-0.137756,0.104797,0.918091
1480690454609079,-0.356506,-0.137756,0.104797,0.918091
1480690454631639,-0.356567,-0.137756,0.104797,0.918091
1480690454655201,-0.356628,-0.137695,0.104858,0.918091
1480690454670241,-0.356567,-0.137695,0.104858,0.918091
1480690454691297,-0.356567,-0.137756,0.104797,0.918091
1480690454713857,-0.356567,-0.137817,0.104797,0.918091
1480690454728897,-0.356445,-0.137756,0.104675,0.918152
1480690454751458,-0.356445,-0.137756,0.104675,0.918152
1480690454776524,-0.356506,-0.137756,0.104675,0.918091
1480690454806103,-0.356506,-0.137817,0.104736,0.918091
1480690454811116,-0.356384,-0.137756,0.104675,0.918152
1480690454835181,-0.356201,-0.137756,0.104675,0.918274
1480690454849222,-0.356018,-0.137756,0.104675,0.918274
1480690454871277,-0.356079,-0.137756,0.104675,0.918274
1480690454893839,-0.35614,-0.137756,0.104675,0.918274
1480690454908876,-0.356201,-0.137756,0.104736,0.918213
1480690454931436,-0.356201,-0.137756,0.104736,0.918213
1480690454953996,-0.356201,-0.137756,0.104675,0.918213
1480690454970541,-0.356018,-0.137817,0.104614,0.918274
1480690455000119,-0.356079,-0.137817,0.104675,0.918274
1480690455022178,-0.356079,-0.137756,0.104675,0.918274
1480690455030199,-0.35614,-0.137756,0.104675,0.918274
1480690455055265,-0.35614,-0.137756,0.104675,0.918274
1480690455075318,-0.355957,-0.137817,0.104675,0.918335
1480690455090358,-0.355957,-0.137817,0.104675,0.918335
1480690455111415,-0.355957,-0.137817,0.104675,0.918335
1480690455135479,-0.356018,-0.137817,0.104675,0.918274
1480690455150519,-0.356018,-0.137817,0.104675,0.918274
1480690455171575,-0.356079,-0.137817,0.104675,0.918274
1480690455194134,-0.356079,-0.137817,0.104675,0.918274
1480690455210177,-0.355896,-0.137817,0.104675,0.918335
1480690455231234,-0.355896,-0.137817,0.104675,0.918335
1480690455254300,-0.356262,-0.137939,0.104614,0.918213
1480690455270338,-0.356323,-0.137939,0.104614,0.918152
1480690455298914,-0.356323,-0.137939,0.104614,0.918152
1480690455330998,-0.356384,-0.137878,0.104614,0.918152
1480690455333506,-0.356384,-0.137878,0.104614,0.918152
1480690455352056,-0.356384,-0.137878,0.104614,0.918152
1480690455374114,-0.356384,-0.137878,0.104614,0.918152
1480690455391660,-0.356384,-0.137878,0.104614,0.918152
1480690455411212,-0.356445,-0.137878,0.104614,0.918152
1480690455433772,-0.356506,-0.137878,0.104614,0.918091
1480690455457835,-0.356506,-0.137878,0.104614,0.918091
1480690455471372,-0.356506,-0.137878,0.104614,0.918091
1480690455493932,-0.356506,-0.137878,0.104614,0.918091
1480690455511980,-0.356506,-0.137878,0.104614,0.918091
1480690455531532,-0.356567,-0.137878,0.104614,0.918091
1480690455556598,-0.356567,-0.137878,0.104675,0.918091
1480690455576652,-0.356628,-0.137878,0.104675,0.91803
1480690455598711,-0.356628,-0.137878,0.104675,0.91803
1480690455613750,-0.356628,-0.137878,0.104675,0.91803
1480690455632300,-0.356628,-0.137878,0.104675,0.91803
1480690455651352,-0.356689,-0.137878,0.104675,0.91803
1480690455673910,-0.356689,-0.137878,0.104675,0.91803
1480690455696470,-0.35675,-0.137878,0.104675,0.91803
1480690455711510,-0.35675,-0.137878,0.104675,0.917969
1480690455734071,-0.356812,-0.137878,0.104675,0.917969
1480690455756130,-0.356506,-0.137817,0.104736,0.918091
1480690455771169,-0.356384,-0.137756,0.104736,0.918152
1480690455801250,-0.356445,-0.137756,0.104736,0.918152
1480690455824812,-0.356506,-0.137756,0.104736,0.918091
1480690455834339,-0.356506,-0.137756,0.104736,0.918091
1480690455853889,-0.356567,-0.137756,0.104736,0.918091
1480690455876450,-0.356567,-0.137756,0.104736,0.918091
1480690455891489,-0.356567,-0.137756,0.104736,0.918091
1480690455914050,-0.356567,-0.137756,0.104736,0.918091
1480690455936614,-0.356567,-0.137756,0.104736,0.918091
1480690455953655,-0.356628,-0.137756,0.104797,0.918091
1480690455973708,-0.356628,-0.137756,0.104797,0.91803
1480690455996267,-0.356628,-0.137695,0.104797,0.91803
1480690456012812,-0.356628,-0.137756,0.104797,0.91803
1480690456033868,-0.356628,-0.137756,0.104797,0.91803
1480690456056431,-0.356689,-0.137756,0.104797,0.91803
1480690456080493,-0.35675,-0.137756,0.104797,0.91803
1480690456094027,-0.356812,-0.137756,0.104797,0.917969
1480690456116587,-0.356812,-0.137756,0.104797,0.917969
1480690456132636,-0.356812,-0.137756,0.104797,0.917969
1480690456153689,-0.356812,-0.137756,0.104797,0.917969
1480690456176246,-0.35675,-0.137756,0.104797,0.91803
1480690456192791,-0.356812,-0.137756,0.104797,0.917969
1480690456213847,-0.356873,-0.137756,0.104797,0.917969
1480690456236411,-0.356873,-0.137695,0.104797,0.917969
1480690456252952,-0.356934,-0.137695,0.104797,0.917969
1480690456274007,-0.356934,-0.137695,0.104797,0.917969
1480690456296566,-0.356934,-0.137695,0.104797,0.917969
1480690456316119,-0.356934,-0.137695,0.104797,0.917969
1480690456333665,-0.356995,-0.137695,0.104797,0.917908
1480690456357733,-0.356995,-0.137695,0.104858,0.917908
1480690456389314,-0.357056,-0.137695,0.104858,0.917908
1480690456393824,-0.357056,-0.137695,0.104858,0.917908
1480690456416385,-0.357056,-0.137695,0.104858,0.917908
1480690456434934,-0.357056,-0.137695,0.104797,0.917908
1480690456453989,-0.357056,-0.137695,0.104858,0.917908
1480690456476544,-0.357117,-0.137695,0.104858,0.917847
1480690456494091,-0.357117,-0.137695,0.104858,0.917847
1480690456513645,-0.357178,-0.137634,0.104858,0.917847
1480690456536206,-0.357178,-0.137695,0.104858,0.917847
1480690456554252,-0.356934,-0.137695,0.104797,0.917969
1480690456574307,-0.356934,-0.137695,0.104797,0.917969
1480690456596363,-0.356995,-0.137695,0.104797,0.917908
1480690456614412,-0.356995,-0.137695,0.104797,0.917908
1480690456635471,-0.357056,-0.137695,0.104797,0.917908
1480690456656522,-0.357056,-0.137695,0.104797,0.917908
1480690456676077,-0.356812,-0.137695,0.104797,0.917969
1480690456694130,-0.356812,-0.137695,0.104797,0.917969
1480690456720193,-0.356812,-0.137695,0.104797,0.917969
1480690456734230,-0.356812,-0.137695,0.104797,0.917969
1480690456753784,-0.356873,-0.137695,0.104858,0.917969
1480690456776341,-0.356873,-0.137695,0.104858,0.917969
1480690456794390,-0.356934,-0.137695,0.104858,0.917969
1480690456813942,-0.356873,-0.137695,0.104858,0.917969
1480690456836503,-0.356873,-0.137695,0.104858,0.917969
1480690456860566,-0.356873,-0.137695,0.104858,0.917969
1480690456881622,-0.356934,-0.137695,0.104858,0.917969
1480690456903682,-0.356934,-0.137695,0.104858,0.917908
1480690456914212,-0.356995,-0.137695,0.104858,0.917908
1480690456935268,-0.356995,-0.137695,0.104858,0.917908
1480690456956321,-0.356934,-0.137695,0.104858,0.917908
1480690456974368,-0.356995,-0.137695,0.104858,0.917908
1480690456996928,-0.3573,-0.137695,0.104736,0.917786
1480690457016482,-0.3573,-0.137756,0.104736,0.917786
1480690457034530,-0.357361,-0.137695,0.104736,0.917786
1480690457055585,-0.357117,-0.137634,0.104797,0.917847
1480690457076140,-0.356812,-0.137634,0.104736,0.917969
1480690457107223,-0.356812,-0.137634,0.104736,0.91803
1480690457115245,-0.356812,-0.137695,0.104736,0.917969
1480690457137803,-0.356873,-0.137695,0.104736,0.917969
1480690457154347,-0.356934,-0.137695,0.104736,0.917969
1480690457183927,-0.356934,-0.137695,0.104736,0.917969
1480690457196459,-0.356689,-0.137695,0.104736,0.91803
1480690457220523,-0.356689,-0.137695,0.104675,0.91803
1480690457236566,-0.356689,-0.137695,0.104675,0.91803
1480690457256117,-0.356689,-0.137756,0.104675,0.91803
1480690457278678,-0.35675,-0.137756,0.104675,0.91803
1480690457298732,-0.35675,-0.137695,0.104736,0.91803
1480690457323798,-0.35675,-0.137695,0.104736,0.91803
1480690457346358,-0.35675,-0.137695,0.104675,0.91803
1480690457356886,-0.356873,-0.137878,0.104614,0.917969
1480690457383958,-0.356873,-0.137939,0.104614,0.917969
1480690457402007,-0.356873,-0.137939,0.104614,0.917969
1480690457417046,-0.356873,-0.137878,0.104614,0.917969
1480690457436097,-0.356934,-0.137878,0.104614,0.917969
1480690457458661,-0.356934,-0.137878,0.104614,0.917969
1480690457476704,-0.356873,-0.137878,0.104614,0.917969
1480690457496256,-0.356995,-0.138,0.104614,0.917908
1480690457521824,-0.357056,-0.138,0.104614,0.917908
1480690457536867,-0.357056,-0.138,0.104614,0.917847
1480690457556416,-0.357056,-0.138,0.104614,0.917847
1480690457578976,-0.357056,-0.138,0.104614,0.917847
1480690457603041,-0.357056,-0.138,0.104614,0.917847
1480690457618081,-0.357056,-0.138,0.104614,0.917847
1480690457639138,-0.357056,-0.138,0.104614,0.917847
1480690457662698,-0.357056,-0.138,0.104614,0.917847
1480690457676736,-0.357117,-0.138,0.104614,0.917847
1480690457698795,-0.357117,-0.138,0.104614,0.917847
1480690457716843,-0.357117,-0.138,0.104614,0.917847
1480690457736397,-0.357117,-0.138,0.104614,0.917847
1480690457758955,-0.357056,-0.138,0.104614,0.917847
1480690457777003,-0.357056,-0.138,0.104614,0.917847
1480690457796554,-0.357117,-0.138,0.104614,0.917847
1480690457819117,-0.357117,-0.138,0.104614,0.917847
1480690457837664,-0.357117,-0.138,0.104614,0.917847
1480690457859221,-0.357117,-0.138,0.104614,0.917847
1480690457878773,-0.357117,-0.138,0.104614,0.917847
1480690457896822,-0.357117,-0.138,0.104614,0.917847
1480690457917877,-0.357117,-0.138,0.104614,0.917847
1480690457938933,-0.357117,-0.138,0.104614,0.917847
1480690457956983,-0.357178,-0.138,0.104614,0.917847
1480690457984055,-0.357178,-0.137939,0.104614,0.917847
1480690457998592,-0.357178,-0.137939,0.104614,0.917847
1480690458016645,-0.357117,-0.138,0.104614,0.917847
1480690458037698,-0.357117,-0.138,0.104614,0.917847
1480690458058752,-0.357117,-0.138,0.104614,0.917847
1480690458081312,-0.357178,-0.138,0.104614,0.917847
1480690458097858,-0.357239,-0.138,0.104614,0.917786
1480690458118914,-0.357239,-0.138,0.104614,0.917786
1480690458137461,-0.357178,-0.138,0.104614,0.917847
1480690458164032,-0.357178,-0.138,0.104614,0.917847
1480690458179072,-0.357178,-0.138,0.104614,0.917847
1480690458197121,-0.357178,-0.138,0.104614,0.917847
1480690458219181,-0.357178,-0.137939,0.104614,0.917847
1480690458238731,-0.357178,-0.137939,0.104675,0.917847
1480690458257280,-0.3573,-0.137939,0.104675,0.917786
1480690458279339,-0.3573,-0.138,0.104675,0.917786
1480690458298891,-0.357117,-0.138,0.104614,0.917847
1480690458324459,-0.357117,-0.138,0.104614,0.917847
1480690458339500,-0.357178,-0.138,0.104614,0.917847
1480690458359050,-0.357178,-0.137939,0.104614,0.917847
1480690458384118,-0.357178,-0.138,0.104614,0.917847
1480690458403686,-0.357178,-0.138,0.104614,0.917847
1480690458418709,-0.357178,-0.138,0.104614,0.917847
1480690458436758,-0.357178,-0.137939,0.104614,0.917847
1480690458466838,-0.357178,-0.137939,0.104614,0.917847
1480690458478870,-0.357544,-0.137939,0.104736,0.917664
1480690458497419,-0.357544,-0.137878,0.104736,0.917664
1480690458523990,-0.357544,-0.137878,0.104736,0.917664
1480690458546549,-0.357544,-0.137939,0.104736,0.917664
1480690458556576,-0.357544,-0.137939,0.104675,0.917664
1480690458579136,-0.357544,-0.137939,0.104675,0.917664
1480690458598689,-0.357544,-0.137939,0.104736,0.917664
1480690458616741,-0.357605,-0.137939,0.104736,0.917664
1480690458639299,-0.357605,-0.137939,0.104736,0.917664
1480690458660352,-0.357605,-0.137939,0.104675,0.917664
1480690458676897,-0.357544,-0.137939,0.104675,0.917664
1480690458699456,-0.357544,-0.137939,0.104675,0.917664
1480690458720513,-0.357544,-0.137939,0.104675,0.917664
1480690458741568,-0.357605,-0.137939,0.104675,0.917664
1480690458759115,-0.357605,-0.137939,0.104675,0.917664
1480690458786187,-0.357605,-0.137939,0.104675,0.917664
1480690458806241,-0.357605,-0.138,0.104675,0.917664
1480690458826795,-0.357605,-0.138,0.104675,0.917664
1480690458840833,-0.357605,-0.138,0.104675,0.917664
1480690458861386,-0.357605,-0.138,0.104675,0.917664
1480690458886956,-0.357666,-0.138,0.104675,0.917664
1480690458900491,-0.357666,-0.138,0.104675,0.917603
1480690458921546,-0.357666,-0.138,0.104675,0.917664
1480690458939093,-0.357605,-0.138,0.104675,0.917664
1480690458966165,-0.357605,-0.138,0.104675,0.917664
1480690458990232,-0.357666,-0.138,0.104675,0.917664
1480690459000757,-0.357666,-0.138,0.104675,0.917603
1480690459020309,-0.357666,-0.137939,0.104675,0.917603
1480690459053898,-0.357727,-0.137939,0.104736,0.917603
1480690459066933,-0.357727,-0.137939,0.104736,0.917603
1480690459081979,-0.357666,-0.137939,0.104736,0.917603
1480690459101526,-0.357666,-0.138,0.104675,0.917603
1480690459119573,-0.357727,-0.137939,0.104736,0.917603
1480690459163189,-0.357727,-0.137939,0.104736,0.917603
1480690459167200,-0.357788,-0.137939,0.104736,0.917603
1480690459179232,-0.357788,-0.137939,0.104736,0.917603
1480690459201792,-0.357727,-0.137939,0.104736,0.917603
1480690459238389,-0.357727,-0.137939,0.104736,0.917603
1480690459240897,-0.357727,-0.137939,0.104736,0.917603
1480690459261951,-0.357727,-0.137939,0.104736,0.917603
1480690459281504,-0.357788,-0.137939,0.104736,0.917603
1480690459299551,-0.357483,-0.137878,0.104736,0.917725
1480690459326122,-0.357178,-0.138,0.104675,0.917786
1480690459348696,-0.357178,-0.138,0.104675,0.917847
1480690459359210,-0.357178,-0.138,0.104675,0.917847
1480690459381773,-0.357178,-0.138,0.104675,0.917786
1480690459408842,-0.357056,-0.138,0.104736,0.917847
1480690459419370,-0.356934,-0.137939,0.104797,0.917908
1480690459441930,-0.356934,-0.137939,0.104797,0.917908
1480690459461487,-0.357056,-0.138,0.104736,0.917847
1480690459480534,-0.357056,-0.138,0.104736,0.917847
1480690459501590,-0.356873,-0.138062,0.104675,0.917908
1480690459523648,-0.356567,-0.138123,0.104614,0.91803
1480690459540192,-0.356628,-0.138123,0.104675,0.91803
1480690459561748,-0.356628,-0.138062,0.104675,0.91803
1480690459582304,-0.356689,-0.138062,0.104675,0.91803
1480690459599350,-0.356628,-0.138062,0.104675,0.91803
1480690459626421,-0.356628,-0.138062,0.104675,0.91803
1480690459641462,-0.356628,-0.138062,0.104675,0.91803
1480690459659007,-0.356384,-0.138306,0.104553,0.918091
1480690459686581,-0.35614,-0.138367,0.104614,0.918152
1480690459709140,-0.355957,-0.138367,0.104736,0.918213
1480690459719168,-0.355591,-0.138489,0.104675,0.918335
1480690459741727,-0.355286,-0.138611,0.104614,0.918457
1480690459770303,-0.355286,-0.138611,0.104614,0.918457
1480690459779328,-0.355347,-0.138611,0.104614,0.918457
1480690459802892,-0.355347,-0.138672,0.104614,0.918457
1480690459821941,-0.355164,-0.138794,0.104431,0.918518
1480690459839989,-0.354675,-0.138977,0.104309,0.918701
1480690459863551,-0.354431,-0.13916,0.104187,0.918762
1480690459882602,-0.354492,-0.139404,0.104004,0.918701
1480690459906666,-0.354553,-0.139771,0.10376,0.918701
1480690459922207,-0.354614,-0.139893,0.103638,0.91864
1480690459942762,-0.354248,-0.139954,0.103577,0.918762
1480690459963819,-0.354004,-0.140015,0.103516,0.918884
1480690459981869,-0.354004,-0.140015,0.103516,0.918884
1480690460002922,-0.353943,-0.140015,0.103516,0.918884
1480690460020468,-0.353943,-0.140076,0.103516,0.918884
1480690460042026,-0.353943,-0.140076,0.103516,0.918884
1480690460071612,-0.353943,-0.140076,0.103516,0.918884
1480690460079125,-0.354004,-0.140015,0.103516,0.918884
1480690460102187,-0.354004,-0.140015,0.103516,0.918884
1480690460131769,-0.353821,-0.140137,0.103333,0.918945
1480690460139285,-0.35376,-0.140137,0.103333,0.918945
1480690460162848,-0.35376,-0.140198,0.103333,0.918945
1480690460190421,-0.35376,-0.140198,0.103333,0.918945
1480690460211477,-0.353821,-0.140198,0.103333,0.918945
1480690460222005,-0.353638,-0.140259,0.103271,0.919006
1480690460253088,-0.353333,-0.140381,0.103333,0.919067
1480690460266122,-0.353088,-0.140503,0.103271,0.919189
1480690460281665,-0.353088,-0.140503,0.103271,0.919189
1480690460303221,-0.352783,-0.140686,0.10321,0.91925
1480690460324276,-0.352783,-0.140686,0.10321,0.91925
1480690460341825,-0.352844,-0.140686,0.10321,0.91925
1480690460377919,-0.352844,-0.140686,0.10321,0.91925
1480690460384436,-0.352783,-0.140686,0.10321,0.91925
1480690460401482,-0.352783,-0.140747,0.10321,0.91925
1480690460426048,-0.352783,-0.140747,0.10321,0.91925
1480690460444597,-0.352722,-0.140747,0.103149,0.919312
1480690460461140,-0.352783,-0.140747,0.103149,0.91925
1480690460489716,-0.352783,-0.140747,0.103149,0.91925
1480690460504758,-0.352783,-0.140747,0.103149,0.91925
1480690460520799,-0.352722,-0.140747,0.103149,0.91925
1480690460543359,-0.352722,-0.140808,0.103149,0.919312
1480690460564415,-0.352722,-0.140808,0.103149,0.919312
1480690460581461,-0.352722,-0.140808,0.103149,0.919312
1480690460603519,-0.352722,-0.140808,0.103149,0.919312
1480690460624575,-0.352722,-0.140808,0.103149,0.919312
1480690460641119,-0.352905,-0.140869,0.103088,0.91925
1480690460663679,-0.352844,-0.140869,0.103027,0.91925
1480690460684735,-0.352844,-0.14093,0.103027,0.91925
1480690460700778,-0.352844,-0.140869,0.103027,0.91925
1480690460723337,-0.352844,-0.14093,0.103027,0.91925
1480690460744394,-0.352844,-0.14093,0.103027,0.91925
1480690460760939,-0.352844,-0.14093,0.103027,0.91925
1480690460789513,-0.352783,-0.14093,0.103027,0.91925
1480690460804554,-0.352783,-0.14093,0.103027,0.91925
1480690460822100,-0.352722,-0.14093,0.103027,0.91925
1480690460844159,-0.352722,-0.140991,0.103027,0.91925
1480690460864713,-0.352783,-0.140991,0.103027,0.91925
1480690460881764,-0.352783,-0.140991,0.103027,0.91925
1480690460910836,-0.352783,-0.140991,0.103027,0.91925
1480690460924873,-0.352783,-0.140991,0.103027,0.91925
1480690460940916,-0.352966,-0.140869,0.102966,0.919189
1480690460963977,-0.353333,-0.140808,0.102905,0.919067
1480690460984533,-0.353821,-0.140686,0.102966,0.918884
1480690461008596,-0.353943,-0.140442,0.103027,0.918884
1480690461023636,-0.353943,-0.140442,0.103027,0.918884
1480690461046196,-0.353943,-0.140442,0.103027,0.918884
1480690461060735,-0.354065,-0.140442,0.103027,0.918823
1480690461083294,-0.354248,-0.140442,0.103027,0.918762
1480690461105855,-0.354492,-0.140381,0.103027,0.918701
1480690461128415,-0.354797,-0.140381,0.103027,0.918579
1480690461143455,-0.354797,-0.140381,0.103027,0.918579
1480690461166517,-0.354797,-0.14032,0.103027,0.918579
1480690461180555,-0.354858,-0.140259,0.103088,0.918579
1480690461203616,-0.35498,-0.14032,0.103027,0.918518
1480690461234697,-0.35498,-0.14032,0.103027,0.918518
1480690461240213,-0.35498,-0.14032,0.103027,0.918518
1480690461265282,-0.35498,-0.14032,0.103027,0.918518
1480690461293855,-0.355042,-0.14032,0.103027,0.918457
1480690461301878,-0.355042,-0.14032,0.103027,0.918457
1480690461323433,-0.355042,-0.14032,0.103027,0.918457
1480690461345994,-0.35498,-0.14032,0.103027,0.918518
1480690461360533,-0.355225,-0.140259,0.103027,0.918396
1480690461383595,-0.355225,-0.140259,0.103027,0.918396
1480690461406155,-0.355286,-0.140259,0.103027,0.918396
1480690461420191,-0.355347,-0.140259,0.103027,0.918396
1480690461450772,-0.355286,-0.140259,0.103027,0.918396
1480690461496393,-0.355286,-0.140259,0.103027,0.918396
1480690461498900,-0.355286,-0.140259,0.103027,0.918396
1480690461504916,-0.355286,-0.140259,0.103027,0.918396
1480690461525972,-0.35553,-0.140076,0.103088,0.918335
1480690461548532,-0.355896,-0.139893,0.103149,0.918213
1480690461564074,-0.355896,-0.139893,0.103149,0.918213
1480690461586634,-0.355896,-0.139893,0.103149,0.918213
1480690461607690,-0.355957,-0.139832,0.103149,0.918213
1480690461623231,-0.35614,-0.139771,0.103088,0.918152
1480690461645790,-0.356201,-0.139771,0.103088,0.918091
1480690461666849,-0.356201,-0.139771,0.103088,0.918091
1480690461683391,-0.356201,-0.139771,0.103088,0.918091
1480690461713471,-0.356201,-0.139771,0.103088,0.918091
1480690461727007,-0.356201,-0.139771,0.103088,0.918091
1480690461744553,-0.356201,-0.139771,0.103088,0.918152
1480690461775135,-0.356323,-0.139771,0.103149,0.91803
1480690461786665,-0.356567,-0.139709,0.10321,0.917969
1480690461803711,-0.356628,-0.139648,0.10321,0.917969
1480690461826772,-0.356628,-0.139648,0.10321,0.917969
1480690461847326,-0.356628,-0.139648,0.10321,0.917969
1480690461870890,-0.356567,-0.139648,0.10321,0.917969
1480690461885930,-0.356567,-0.139648,0.10321,0.917969
1480690461907987,-0.356628,-0.139648,0.10321,0.917969
1480690461924031,-0.356628,-0.139648,0.10321,0.917969
1480690461947093,-0.356689,-0.139648,0.10321,0.917969
1480690461967145,-0.356873,-0.139648,0.10321,0.917847
1480690461983689,-0.357178,-0.139587,0.10321,0.917786
1480690462013268,-0.357178,-0.139587,0.10321,0.917786
1480690462041843,-0.356873,-0.139526,0.103149,0.917908
1480690462052372,-0.356873,-0.139526,0.103149,0.917908
1480690462073427,-0.356934,-0.139526,0.103149,0.917847
1480690462088468,-0.357178,-0.139465,0.103088,0.917786
1480690462103508,-0.357117,-0.139465,0.103088,0.917786
1480690462132585,-0.357117,-0.139465,0.103088,0.917786
1480690462149129,-0.357117,-0.139465,0.103088,0.917786
1480690462163168,-0.357056,-0.139465,0.103088,0.917786
1480690462185726,-0.357117,-0.139465,0.103088,0.917786
1480690462208286,-0.357117,-0.139465,0.103088,0.917786
1480690462222825,-0.357178,-0.139404,0.103149,0.917786
1480690462245886,-0.357178,-0.139404,0.103149,0.917786
1480690462268948,-0.357117,-0.139404,0.103149,0.917786
1480690462282985,-0.357117,-0.139465,0.103088,0.917786
1480690462306046,-0.357117,-0.139465,0.103088,0.917786
1480690462332617,-0.357178,-0.139465,0.103088,0.917786
1480690462351668,-0.357178,-0.139404,0.103149,0.917786
1480690462366207,-0.357178,-0.139404,0.103149,0.917786
1480690462388767,-0.357178,-0.139404,0.103149,0.917786
1480690462409322,-0.357239,-0.139465,0.103088,0.917786
1480690462426366,-0.357239,-0.139465,0.103088,0.917725
1480690462448425,-0.3573,-0.139465,0.103088,0.917725
1480690462463465,-0.357178,-0.139282,0.10321,0.917786
1480690462486025,-0.357178,-0.139282,0.10321,0.917786
1480690462508585,-0.357239,-0.139282,0.10321,0.917786
1480690462529641,-0.357178,-0.139282,0.10321,0.917786
1480690462545684,-0.357178,-0.139282,0.10321,0.917786
1480690462568244,-0.357178,-0.139282,0.10321,0.917786
1480690462606846,-0.357178,-0.139282,0.10321,0.917786
1480690462609354,-0.357239,-0.139221,0.10321,0.917786
1480690462629908,-0.357239,-0.139221,0.10321,0.917786
1480690462656979,-0.357239,-0.139221,0.10321,0.917786
1480690462666004,-0.357239,-0.139221,0.10321,0.917786
1480690462689065,-0.357178,-0.139221,0.10321,0.917786
1480690462711123,-0.357544,-0.139221,0.103271,0.917664
1480690462726163,-0.357544,-0.139221,0.103271,0.917664
1480690462748222,-0.357605,-0.13916,0.103271,0.917664
1480690462770783,-0.357605,-0.13916,0.103271,0.917664
1480690462785823,-0.357605,-0.13916,0.103271,0.917664
1480690462808383,-0.357544,-0.13916,0.103271,0.917664
1480690462829439,-0.357605,-0.13916,0.103271,0.917664
1480690462847490,-0.357605,-0.13916,0.103271,0.917603
1480690462874558,-0.357666,-0.13916,0.103271,0.917603
1480690462906643,-0.357666,-0.139099,0.103271,0.917603
1480690462909151,-0.357666,-0.139099,0.103333,0.917603
1480690462934216,-0.357666,-0.139099,0.103271,0.917603
1480690462968809,-0.357666,-0.139099,0.103333,0.917603
1480690462971817,-0.357666,-0.139099,0.103333,0.917603
1480690462988360,-0.357727,-0.139099,0.103333,0.917603
1480690463018441,-0.357788,-0.139099,0.103333,0.917542
1480690463025961,-0.357788,-0.139099,0.103333,0.917542
1480690463048521,-0.357788,-0.139038,0.103333,0.917542
1480690463072584,-0.357788,-0.139038,0.103333,0.917542
1480690463085119,-0.357788,-0.139038,0.103333,0.917542
1480690463108179,-0.357849,-0.139038,0.103333,0.917542
1480690463130743,-0.35791,-0.139038,0.103333,0.917542
1480690463162323,-0.357727,-0.138977,0.103394,0.917603
1480690463181879,-0.357544,-0.139038,0.103455,0.917664
1480690463190903,-0.357544,-0.139038,0.103455,0.917664
1480690463205438,-0.357178,-0.139099,0.103577,0.917786
1480690463228499,-0.356323,-0.139404,0.103943,0.91803
1480690463251061,-0.354919,-0.139954,0.104431,0.918396
1480690463265097,-0.353088,-0.140503,0.10498,0.919006
1480690463296179,-0.351196,-0.141418,0.105408,0.919556
1480690463311721,-0.349365,-0.142395,0.105835,0.919983
1480690463326260,-0.347839,-0.143372,0.106323,0.92041
1480690463349321,-0.346313,-0.143921,0.106934,0.920776
1480690463370878,-0.345337,-0.144226,0.107422,0.921082
1480690463385417,-0.344604,-0.14447,0.107727,0.921265
1480690463409982,-0.344604,-0.144714,0.108032,0.921204
1480690463438558,-0.345215,-0.14502,0.108154,0.920898
1480690463453598,-0.345703,-0.145203,0.108093,0.920715
1480690463469641,-0.345703,-0.145203,0.108093,0.920715
1480690463491198,-0.345703,-0.145081,0.108276,0.920715
1480690463511754,-0.345703,-0.145081,0.108337,0.920715
1480690463528297,-0.345825,-0.144775,0.108337,0.920715
1480690463551861,-0.345886,-0.144592,0.108215,0.920715
1480690463571913,-0.346313,-0.14447,0.108276,0.920593
1480690463588458,-0.346985,-0.144409,0.108276,0.920349
1480690463612019,-0.347229,-0.144348,0.108154,0.920227
1480690463632073,-0.34729,-0.144348,0.108154,0.920227
1480690463648119,-0.34729,-0.144348,0.108215,0.920227
1480690463670676,-0.34729,-0.144287,0.108215,0.920227
1480690463691731,-0.347229,-0.144287,0.108337,0.920227
1480690463708777,-0.346802,-0.14447,0.108459,0.920349
1480690463731837,-0.346008,-0.144653,0.108459,0.920654
1480690463759411,-0.345154,-0.145142,0.108459,0.920837
1480690463768436,-0.344849,-0.14563,0.108459,0.920898
1480690463790995,-0.344727,-0.145996,0.108337,0.920898
1480690463812051,-0.344604,-0.146484,0.108093,0.920898
1480690463828595,-0.344727,-0.146912,0.107788,0.920837
1480690463851155,-0.345154,-0.147278,0.107361,0.920654
1480690463872211,-0.345398,-0.147583,0.106995,0.920593
1480690463888253,-0.345825,-0.147583,0.106812,0.92041
1480690463910814,-0.346558,-0.147461,0.106567,0.920227
1480690463934376,-0.347168,-0.147339,0.106262,0.920044
1480690463948415,-0.347839,-0.147095,0.106201,0.9198
1480690463986515,-0.34845,-0.146851,0.106201,0.919617
1480690463993533,-0.348694,-0.146667,0.10614,0.919556
1480690464008574,-0.348877,-0.146423,0.10614,0.919556
1480690464031136,-0.348999,-0.146118,0.10614,0.919556
1480690464060712,-0.348999,-0.146057,0.106201,0.919556
1480690464067731,-0.349426,-0.145813,0.106323,0.919373
1480690464098315,-0.349426,-0.145874,0.106323,0.919373
1480690464114359,-0.349243,-0.145874,0.106384,0.919434
1480690464128392,-0.348816,-0.145752,0.106567,0.919617
1480690464151955,-0.348816,-0.145752,0.106567,0.919617
1480690464174014,-0.348755,-0.145813,0.106628,0.919617
1480690464187550,-0.348694,-0.145813,0.106689,0.919617
1480690464211112,-0.348694,-0.145752,0.106689,0.919617
1480690464241192,-0.348755,-0.145752,0.106689,0.919617
1480690464247712,-0.348755,-0.145752,0.106689,0.919617
1480690464272275,-0.34845,-0.145813,0.10675,0.919739
1480690464293832,-0.348083,-0.145813,0.106873,0.919861
1480690464307870,-0.347656,-0.145813,0.107056,0.919983
1480690464330932,-0.347168,-0.145874,0.107178,0.920166
1480690464354494,-0.346497,-0.146057,0.107178,0.920349
1480690464368030,-0.345642,-0.146301,0.107239,0.920654
1480690464391091,-0.344849,-0.146545,0.107239,0.920898
1480690464413651,-0.344116,-0.14679,0.107178,0.921143
1480690464434206,-0.343323,-0.147095,0.107239,0.921387
1480690464458269,-0.342773,-0.147156,0.107422,0.92157
1480690464475314,-0.34198,-0.147278,0.107666,0.921814
1480690464494366,-0.340942,-0.1474,0.108032,0.922119
1480690464510910,-0.339722,-0.147583,0.108398,0.922485
1480690464550515,-0.338379,-0.147949,0.108704,0.922913
1480690464554525,-0.337158,-0.148376,0.10907,0.923279
1480690464571070,-0.336121,-0.148621,0.109497,0.923523
1480690464593127,-0.335449,-0.148682,0.110046,0.923706
1480690464614687,-0.334961,-0.148682,0.110596,0.923828
1480690464630731,-0.334534,-0.148621,0.111145,0.923889
1480690464653288,-0.333801,-0.14856,0.111755,0.924133
1480690464674344,-0.333252,-0.148315,0.112427,0.924255
1480690464691891,-0.333313,-0.148193,0.112976,0.924194
1480690464713448,-0.333862,-0.14801,0.113342,0.924011
1480690464736009,-0.334595,-0.147644,0.113647,0.923706
1480690464764588,-0.335327,-0.147522,0.113831,0.923462
1480690464774110,-0.335999,-0.147339,0.114075,0.923218
1480690464794664,-0.336304,-0.147217,0.114136,0.923096
1480690464824744,-0.336487,-0.147217,0.114075,0.923096
1480690464833267,-0.336975,-0.147156,0.114075,0.922913
1480690464855827,-0.337341,-0.146973,0.114136,0.922791
1480690464871370,-0.337402,-0.146912,0.114136,0.922791
1480690464893427,-0.337402,-0.146912,0.114136,0.922791
1480690464915986,-0.337036,-0.14679,0.114258,0.922913
1480690464931029,-0.336487,-0.146729,0.114319,0.923096
1480690464953587,-0.33606,-0.14679,0.114258,0.923279
1480690464984669,-0.33551,-0.14679,0.114197,0.923462
1480690464990184,-0.335327,-0.146729,0.114197,0.923523
1480690465013245,-0.335205,-0.146912,0.114136,0.923584
1480690465044328,-0.334839,-0.14679,0.114258,0.923706
1480690465052851,-0.334167,-0.146484,0.114258,0.924011
1480690465073907,-0.333496,-0.146423,0.114136,0.924255
1480690465096970,-0.333618,-0.146423,0.113831,0.924255
1480690465117021,-0.334229,-0.146423,0.113403,0.924072
1480690465133565,-0.334778,-0.146362,0.112854,0.924011
1480690465156126,-0.335327,-0.146179,0.112305,0.923889
1480690465170163,-0.336548,-0.145935,0.111572,0.923584
1480690465193224,-0.338135,-0.14563,0.11084,0.923096
1480690465215784,-0.339905,-0.145203,0.110291,0.922607
1480690465238344,-0.341736,-0.14447,0.110046,0.922058
1480690465253383,-0.343323,-0.143677,0.109802,0.921631
1480690465292487,-0.343689,-0.143188,0.109619,0.92157
1480690465297002,-0.343689,-0.143127,0.10968,0.921631
1480690465321063,-0.343323,-0.143188,0.109619,0.921692
1480690465342120,-0.342712,-0.143494,0.109436,0.921936
1480690465357160,-0.342224,-0.143921,0.109314,0.922058
1480690465373204,-0.34198,-0.144226,0.109375,0.922058
1480690465395763,-0.342041,-0.144531,0.109375,0.921997
1480690465416818,-0.342285,-0.144714,0.109192,0.921936
1480690465433362,-0.342773,-0.144714,0.10907,0.921753
1480690465455923,-0.343506,-0.144653,0.109009,0.921509
1480690465476984,-0.343994,-0.144592,0.108765,0.921326
1480690465493522,-0.344421,-0.144592,0.108521,0.921204
1480690465516082,-0.34491,-0.144531,0.108582,0.921082
1480690465544659,-0.34491,-0.14447,0.108582,0.921082
1480690465553682,-0.344666,-0.14447,0.108704,0.921143
1480690465576242,-0.344666,-0.144409,0.108704,0.921143
1480690465598301,-0.344238,-0.144653,0.108765,0.921265
1480690465613341,-0.343994,-0.144714,0.109009,0.921326
1480690465643421,-0.344055,-0.144836,0.109192,0.921265
1480690465656960,-0.344116,-0.144775,0.109192,0.921204
1480690465681022,-0.344116,-0.144836,0.109192,0.921204
1480690465703581,-0.344421,-0.144714,0.109375,0.921082
1480690465724637,-0.344727,-0.144714,0.109375,0.920959
1480690465733159,-0.345032,-0.144714,0.109375,0.920898
1480690465763744,-0.345581,-0.144592,0.109375,0.920715
1480690465776776,-0.346069,-0.144531,0.109375,0.920532
1480690465794824,-0.346619,-0.144409,0.109436,0.920349
1480690465815880,-0.347168,-0.144287,0.109497,0.920105
1480690465845960,-0.347534,-0.144226,0.109497,0.919983
1480690465853480,-0.347534,-0.144226,0.109497,0.919983
1480690465876541,-0.347534,-0.144226,0.109497,0.919983
1480690465898600,-0.347534,-0.144226,0.109497,0.919983
1480690465919656,-0.347534,-0.144226,0.109497,0.919983
1480690465935698,-0.347534,-0.144226,0.109497,0.919983
1480690465958258,-0.347656,-0.144348,0.109619,0.919922
1480690465986834,-0.347656,-0.144348,0.109619,0.919922
1480690465995860,-0.347656,-0.144348,0.109619,0.919922
1480690466018418,-0.347473,-0.144409,0.10968,0.919983
1480690466040978,-0.347168,-0.14447,0.10968,0.920105
1480690466071059,-0.347168,-0.14447,0.10968,0.920105
1480690466078579,-0.347717,-0.144531,0.10968,0.919861
1480690466101138,-0.348022,-0.144653,0.109558,0.919739
1480690466116178,-0.348022,-0.144714,0.109558,0.919739
1480690466138237,-0.347961,-0.144714,0.109558,0.919739
1480690466152776,-0.347961,-0.144653,0.109558,0.919739
1480690466175837,-0.347717,-0.144714,0.109436,0.919861
1480690466198396,-0.347778,-0.144714,0.109436,0.919861
1480690466213941,-0.348267,-0.144653,0.109497,0.919678
1480690466235998,-0.348267,-0.144714,0.109497,0.919678
1480690466258559,-0.348206,-0.144714,0.109497,0.919678
1480690466272595,-0.348206,-0.144714,0.109497,0.919678
1480690466295655,-0.348206,-0.144714,0.109497,0.919678
1480690466318216,-0.348267,-0.144653,0.109497,0.919678
1480690466346795,-0.348267,-0.144653,0.109497,0.919617
1480690466356819,-0.348328,-0.144653,0.109497,0.919617
1480690466378376,-0.348328,-0.144653,0.109497,0.919617
1480690466399432,-0.3479,-0.144714,0.109375,0.9198
1480690466415976,-0.347595,-0.144775,0.109375,0.919922
1480690466438536,-0.347473,-0.144714,0.109497,0.919922
1480690466460093,-0.347534,-0.144714,0.109497,0.919922
1480690466476637,-0.347534,-0.144714,0.109497,0.919922
1480690466498194,-0.347534,-0.144714,0.109497,0.919922
1480690466519249,-0.347534,-0.144714,0.109497,0.919922
1480690466535795,-0.347534,-0.144714,0.109497,0.919922
1480690466558354,-0.347778,-0.144775,0.109436,0.919861
1480690466579410,-0.347778,-0.144775,0.109436,0.919861
1480690466595956,-0.347778,-0.144775,0.109436,0.9198
1480690466618514,-0.348022,-0.144653,0.109497,0.919739
1480690466639573,-0.348328,-0.144531,0.109558,0.919678
1480690466656114,-0.348267,-0.144531,0.109558,0.919678
1480690466678172,-0.348206,-0.144531,0.109558,0.919678
1480690466699229,-0.348633,-0.14447,0.109558,0.919556
1480690466716775,-0.348694,-0.14447,0.109558,0.919495
1480690466738333,-0.348633,-0.144409,0.10968,0.919556
1480690466761394,-0.348633,-0.144409,0.10968,0.919556
1480690466777437,-0.348877,-0.144348,0.10968,0.919434
1480690466798492,-0.34906,-0.144348,0.109619,0.919373
1480690466822557,-0.348999,-0.144348,0.109619,0.919373
1480690466851133,-0.34906,-0.144348,0.109619,0.919373
1480690466858653,-0.34906,-0.144348,0.109619,0.919373
1480690466880713,-0.349121,-0.144348,0.109619,0.919373
1480690466901769,-0.349121,-0.144287,0.109619,0.919373
1480690466925831,-0.349121,-0.144287,0.109619,0.919373
1480690466940872,-0.349121,-0.144287,0.109619,0.919373
1480690466955410,-0.349121,-0.144287,0.109619,0.919373
1480690466978472,-0.349121,-0.144287,0.109619,0.919373
1480690467001032,-0.349182,-0.144287,0.10968,0.919373
1480690467015069,-0.349182,-0.144226,0.10968,0.919373
1480690467038632,-0.348938,-0.144165,0.10968,0.919434
1480690467060689,-0.348328,-0.144165,0.109863,0.919678
1480690467075228,-0.3479,-0.144226,0.109985,0.9198
1480690467098290,-0.347595,-0.144287,0.109985,0.919922
1480690467128372,-0.347595,-0.144226,0.109985,0.919922
1480690467135389,-0.347656,-0.144226,0.109985,0.919922
1480690467158449,-0.347656,-0.144165,0.109985,0.919861
1480690467181012,-0.347656,-0.144165,0.110046,0.919922
1480690467195048,-0.347412,-0.144043,0.110107,0.919983
1480690467218610,-0.347046,-0.144104,0.110107,0.920105
1480690467241170,-0.347046,-0.144104,0.110107,0.920105
1480690467261724,-0.347046,-0.144104,0.110107,0.920105
1480690467278268,-0.347107,-0.144043,0.110107,0.920105
1480690467301329,-0.347168,-0.144043,0.110107,0.920105
1480690467321884,-0.347107,-0.144043,0.110107,0.920105
1480690467344445,-0.347107,-0.144043,0.110107,0.920105
1480690467361991,-0.347473,-0.143921,0.110168,0.919983
1480690467382044,-0.3479,-0.14386,0.110168,0.919861
1480690467398588,-0.3479,-0.14386,0.110168,0.919861
1480690467421148,-0.347961,-0.14386,0.110168,0.9198
1480690467449223,-0.347839,-0.143677,0.110168,0.919922
1480690467458247,-0.347778,-0.143677,0.110168,0.919922
1480690467481810,-0.348083,-0.143738,0.110168,0.9198
1480690467501863,-0.34845,-0.14386,0.110229,0.919617
1480690467518407,-0.348511,-0.14386,0.110229,0.919617
1480690467540967,-0.348389,-0.143677,0.110291,0.919678
1480690467562023,-0.348328,-0.143616,0.110291,0.919678
1480690467586087,-0.348328,-0.143616,0.110291,0.919678
1480690467601128,-0.34845,-0.143616,0.110291,0.919678
1480690467622183,-0.348694,-0.143616,0.110229,0.919556
1480690467651761,-0.348694,-0.143677,0.110229,0.919556
1480690467660786,-0.348755,-0.143616,0.110229,0.919556
1480690467681843,-0.348633,-0.143555,0.110168,0.919617
1480690467705405,-0.348633,-0.143555,0.110168,0.919617
1480690467721948,-0.348816,-0.143555,0.110168,0.919556
1480690467743506,-0.348816,-0.143555,0.110168,0.919556
1480690467764563,-0.348816,-0.143555,0.110168,0.919556
1480690467781607,-0.348816,-0.143555,0.110168,0.919556
1480690467804167,-0.348877,-0.143555,0.110168,0.919556
1480690467817703,-0.348877,-0.143494,0.110229,0.919495
1480690467840765,-0.348877,-0.143494,0.110229,0.919495
1480690467863826,-0.348816,-0.143494,0.110229,0.919556
1480690467877863,-0.348816,-0.143494,0.110229,0.919556
1480690467900925,-0.348877,-0.143494,0.110229,0.919556
1480690467929501,-0.348755,-0.143372,0.110229,0.919556
1480690467938022,-0.348633,-0.143311,0.110291,0.919617
1480690467961085,-0.348633,-0.14325,0.110291,0.919617
1480690467985149,-0.348755,-0.143372,0.110168,0.919556
1480690467998183,-0.348755,-0.143372,0.110168,0.919617
1480690468021745,-0.348755,-0.143372,0.110168,0.919617
1480690468043302,-0.348633,-0.143311,0.110168,0.919678
1480690468057841,-0.348633,-0.143311,0.110168,0.919617
1480690468080905,-0.348633,-0.14325,0.110168,0.919617
1480690468103463,-0.348999,-0.143188,0.110168,0.919556
1480690468118001,-0.348938,-0.143188,0.110168,0.919556
1480690468141064,-0.348938,-0.143127,0.110168,0.919556
1480690468163637,-0.348938,-0.143127,0.110168,0.919556
1480690468184177,-0.348999,-0.143127,0.110168,0.919556
1480690468201724,-0.348999,-0.143127,0.110168,0.919556
1480690468224284,-0.348999,-0.143066,0.110229,0.919556
1480690468245842,-0.348999,-0.143066,0.110229,0.919556
1480690468262385,-0.348999,-0.143066,0.110229,0.919556
1480690468283441,-0.348999,-0.143066,0.110229,0.919556
1480690468313522,-0.348999,-0.143066,0.110229,0.919556
1480690468321041,-0.34906,-0.143005,0.110229,0.919495
1480690468343601,-0.34906,-0.143005,0.110229,0.919495
1480690468364657,-0.34906,-0.143005,0.110229,0.919495
1480690468382204,-0.34906,-0.143005,0.110229,0.919495
1480690468403260,-0.34906,-0.143005,0.110229,0.919556
1480690468424316,-0.34906,-0.143005,0.110229,0.919495
1480690468440860,-0.349121,-0.142944,0.110291,0.919495
1480690468463422,-0.349121,-0.142944,0.110291,0.919495
1480690468484476,-0.349121,-0.142944,0.110291,0.919495
1480690468500519,-0.349182,-0.142944,0.110291,0.919495
1480690468523078,-0.349182,-0.142944,0.110291,0.919495
1480690468544636,-0.349182,-0.142944,0.110291,0.919495
1480690468560682,-0.34906,-0.143005,0.110229,0.919556
1480690468583238,-0.34906,-0.143005,0.110229,0.919556
1480690468604796,-0.349121,-0.142944,0.110229,0.919495
1480690468621339,-0.349121,-0.142944,0.110229,0.919495
1480690468650919,-0.348999,-0.142944,0.110229,0.919556
1480690468665959,-0.348999,-0.142944,0.110229,0.919556
1480690468681000,-0.348999,-0.142944,0.110229,0.919556
1480690468704095,-0.348999,-0.142944,0.110229,0.919556
1480690468733639,-0.34906,-0.142944,0.110291,0.919556
1480690468741159,-0.34906,-0.142883,0.110291,0.919556
1480690468763721,-0.34906,-0.142883,0.110291,0.919495
1480690468785777,-0.34906,-0.142883,0.110291,0.919495
1480690468800816,-0.34906,-0.142883,0.110291,0.919556
1480690468824882,-0.34906,-0.142883,0.110291,0.919556
1480690468845938,-0.349121,-0.142822,0.110291,0.919495
1480690468860476,-0.349121,-0.142822,0.110291,0.919495
1480690468883537,-0.349182,-0.142822,0.110352,0.919495
1480690468906097,-0.349182,-0.142822,0.110352,0.919495
1480690468927153,-0.349182,-0.142822,0.110352,0.919495
1480690468943195,-0.349182,-0.142761,0.110352,0.919495
1480690468965756,-0.349182,-0.142761,0.110352,0.919495
1480690468988316,-0.349182,-0.142761,0.110352,0.919495
1480690469009372,-0.349243,-0.142761,0.110352,0.919495
1480690469031933,-0.349243,-0.142761,0.110352,0.919495
1480690469040454,-0.349304,-0.1427,0.110352,0.919495
1480690469063516,-0.349243,-0.142761,0.110352,0.919495
1480690469086076,-0.349243,-0.142761,0.110352,0.919495
1480690469100113,-0.349304,-0.142761,0.110352,0.919434
1480690469124686,-0.34967,-0.1427,0.110352,0.919312
1480690469153370,-0.350037,-0.142639,0.110291,0.919189
1480690469168411,-0.350342,-0.142578,0.110229,0.919128
1480690469183450,-0.350281,-0.142578,0.110229,0.919128
1480690469206010,-0.350281,-0.142578,0.110229,0.919128
1480690469227066,-0.350281,-0.142578,0.110229,0.919128
1480690469249626,-0.350342,-0.142517,0.110291,0.919128
1480690469265669,-0.350342,-0.142517,0.110291,0.919128
1480690469286725,-0.350342,-0.142517,0.110291,0.919067
1480690469303269,-0.350342,-0.142517,0.110291,0.919067
1480690469325828,-0.350342,-0.142517,0.110291,0.919128
1480690469346888,-0.350342,-0.142456,0.110291,0.919128
1480690469369445,-0.350403,-0.142456,0.110291,0.919067
1480690469386492,-0.350403,-0.142456,0.110291,0.919067
1480690469407045,-0.350403,-0.142456,0.110291,0.919067
1480690469423589,-0.350464,-0.142456,0.110352,0.919067
1480690469452166,-0.350281,-0.142395,0.110291,0.919128
1480690469467205,-0.350281,-0.142395,0.110291,0.919128
1480690469483249,-0.350464,-0.142395,0.110352,0.919067
1480690469506810,-0.350952,-0.142395,0.110352,0.918884
1480690469528368,-0.350952,-0.142395,0.110352,0.918884
1480690469543909,-0.350891,-0.142273,0.110474,0.918884
1480690469566469,-0.350647,-0.142212,0.110535,0.919006
1480690469594543,-0.350586,-0.142212,0.110535,0.919006
1480690469603066,-0.350708,-0.142273,0.110535,0.918945
1480690469626127,-0.350769,-0.142273,0.110535,0.918945
1480690469649691,-0.350769,-0.142273,0.110535,0.918945
1480690469663229,-0.350647,-0.142273,0.110596,0.919006
1480690469685787,-0.350647,-0.142212,0.110596,0.919006
1480690469708345,-0.350708,-0.142212,0.110657,0.919006
1480690469730908,-0.350647,-0.142212,0.110596,0.919006
1480690469760985,-0.350647,-0.142212,0.110596,0.919006
1480690469768509,-0.350708,-0.142212,0.110657,0.919006
1480690469783045,-0.350708,-0.142212,0.110657,0.918945
1480690469805604,-0.350769,-0.142151,0.110657,0.918945
1480690469828164,-0.350769,-0.142151,0.110657,0.918945
1480690469844207,-0.350769,-0.142151,0.110657,0.918945
1480690469865764,-0.350708,-0.142151,0.110657,0.918945
1480690469904869,-0.350708,-0.142151,0.110657,0.918945
1480690469909380,-0.350769,-0.142151,0.110657,0.918945
1480690469925924,-0.35083,-0.142151,0.110657,0.918945
1480690469949487,-0.35083,-0.142151,0.110657,0.918945
1480690469963027,-0.35083,-0.14209,0.110657,0.918945
1480690469986085,-0.35083,-0.14209,0.110718,0.918945
1480690470008669,-0.350769,-0.14209,0.110657,0.918945
1480690470023684,-0.350769,-0.14209,0.110657,0.918945
1480690470046749,-0.35083,-0.14209,0.110657,0.918945
1480690470068304,-0.35083,-0.14209,0.110718,0.918945
1480690470090362,-0.350891,-0.142029,0.110718,0.918945
1480690470105903,-0.350891,-0.142029,0.110718,0.918945
1480690470128465,-0.350891,-0.142029,0.110718,0.918945
1480690470150021,-0.350891,-0.142029,0.110718,0.918945
1480690470166063,-0.350891,-0.142029,0.110718,0.918945
1480690470188624,-0.350891,-0.142029,0.110718,0.918884
1480690470209178,-0.350952,-0.142029,0.110718,0.918884
1480690470225722,-0.350952,-0.141968,0.110718,0.918884
1480690470263823,-0.350708,-0.141907,0.110779,0.919006
1480690470269839,-0.350403,-0.142029,0.110718,0.919128
1480690470286884,-0.350342,-0.142029,0.110718,0.919128
1480690470314458,-0.350342,-0.142029,0.110718,0.919128
1480690470337018,-0.350403,-0.142029,0.110718,0.919128
1480690470346045,-0.350403,-0.142029,0.110718,0.919128
1480690470368602,-0.350403,-0.142029,0.110718,0.919128
1480690470389657,-0.350159,-0.142029,0.110718,0.919189
1480690470405700,-0.350159,-0.142029,0.110657,0.919189
1480690470428261,-0.350159,-0.141968,0.110718,0.919189
1480690470451322,-0.350403,-0.14209,0.110596,0.919128
1480690470466362,-0.350464,-0.14209,0.110657,0.919067
1480690470488421,-0.350281,-0.142151,0.110657,0.919128
1480690470509476,-0.349915,-0.142212,0.110779,0.91925
1480690470526020,-0.349915,-0.142212,0.110779,0.91925
1480690470555598,-0.349915,-0.142212,0.110718,0.91925
1480690470571141,-0.349915,-0.142212,0.110779,0.91925
1480690470585679,-0.349976,-0.142212,0.110779,0.91925
1480690470614255,-0.349976,-0.142212,0.110779,0.91925
1480690470631300,-0.349854,-0.142273,0.110779,0.91925
1480690470646843,-0.349487,-0.142334,0.110779,0.919373
1480690470668399,-0.349182,-0.142395,0.110718,0.919495
1480690470691460,-0.349182,-0.142395,0.110718,0.919495
1480690470707003,-0.349243,-0.142395,0.110718,0.919495
1480690470728560,-0.349304,-0.142395,0.110718,0.919495
1480690470751118,-0.34906,-0.142395,0.110779,0.919556
1480690470765657,-0.34906,-0.142395,0.110779,0.919556
1480690470788217,-0.348816,-0.142456,0.110718,0.919617
1480690470810778,-0.348816,-0.142456,0.110718,0.919617
1480690470833839,-0.348816,-0.142456,0.110718,0.919617
1480690470848377,-0.348816,-0.142456,0.110718,0.919617
1480690470870939,-0.348877,-0.142456,0.110718,0.919617
1480690470891994,-0.348755,-0.142517,0.110657,0.919678
1480690470923577,-0.348511,-0.142578,0.110596,0.919739
1480690470931097,-0.34845,-0.142639,0.110535,0.9198
1480690470953156,-0.34845,-0.142639,0.110535,0.9198
1480690470968196,-0.34845,-0.142761,0.110474,0.9198
1480690470990756,-0.348267,-0.142822,0.110352,0.919861
1480690471005295,-0.348145,-0.142883,0.110352,0.919861
1480690471028357,-0.348206,-0.142883,0.110352,0.919861
1480690471050916,-0.348145,-0.142883,0.110352,0.919861
1480690471071972,-0.348145,-0.142883,0.110352,0.919861
1480690471088518,-0.347839,-0.142944,0.110413,0.919983
1480690471111579,-0.347595,-0.143005,0.110474,0.920044
1480690471132132,-0.347534,-0.143127,0.110413,0.920044
1480690471148175,-0.347351,-0.143127,0.110474,0.920105
1480690471171737,-0.347229,-0.143066,0.110596,0.920166
1480690471193294,-0.346985,-0.143066,0.110718,0.920227
1480690471208335,-0.346619,-0.143127,0.110718,0.92041
1480690471230895,-0.346191,-0.143188,0.110718,0.920532
1480690471253456,-0.346191,-0.143188,0.110718,0.920532
1480690471277017,-0.346252,-0.143188,0.110718,0.920532
1480690471291055,-0.345947,-0.143188,0.110596,0.920654
1480690471312111,-0.345947,-0.143188,0.110596,0.920654
1480690471334670,-0.345886,-0.143188,0.110596,0.920654
1480690471350714,-0.345886,-0.143188,0.110596,0.920654
1480690471373274,-0.345886,-0.143188,0.110596,0.920654
1480690471388815,-0.345947,-0.143127,0.110596,0.920654
1480690471411375,-0.345947,-0.143127,0.110657,0.920654
1480690471431930,-0.345947,-0.143127,0.110657,0.920593
1480690471448473,-0.345947,-0.143127,0.110657,0.920654
1480690471471033,-0.345581,-0.143311,0.110596,0.920776
1480690471493092,-0.345581,-0.143311,0.110596,0.920776
1480690471509636,-0.345581,-0.14325,0.110596,0.920776
1480690471530692,-0.345581,-0.14325,0.110596,0.920776
1480690471568794,-0.345642,-0.14325,0.110596,0.920715
1480690471571300,-0.345642,-0.14325,0.110596,0.920715
1480690471591353,-0.345581,-0.143311,0.110596,0.920776
1480690471613913,-0.34552,-0.143311,0.110596,0.920776
1480690471627951,-0.34552,-0.143311,0.110596,0.920776
1480690471651013,-0.345581,-0.143311,0.110596,0.920776
1480690471673572,-0.345581,-0.143311,0.110596,0.920715
1480690471696135,-0.345581,-0.143311,0.110596,0.920715
1480690471712678,-0.345398,-0.143188,0.110657,0.920837
1480690471733230,-0.345337,-0.143188,0.110657,0.920837
1480690471747769,-0.345337,-0.143188,0.110657,0.920837
1480690471770831,-0.345337,-0.143188,0.110657,0.920837
1480690471793391,-0.345337,-0.143188,0.110657,0.920837
1480690471808932,-0.345398,-0.143188,0.110657,0.920837
1480690471830991,-0.345398,-0.143188,0.110657,0.920837
1480690471860569,-0.345398,-0.143188,0.110657,0.920837
1480690471869092,-0.345337,-0.143188,0.110657,0.920837
1480690471891150,-0.345337,-0.143188,0.110657,0.920837
1480690471913211,-0.345398,-0.143188,0.110657,0.920837
1480690471927748,-0.345398,-0.143188,0.110657,0.920837
1480690471950809,-0.345398,-0.143127,0.110657,0.920837
1480690471980890,-0.345398,-0.143127,0.110718,0.920837
1480690472001947,-0.345398,-0.143127,0.110657,0.920837
1480690472016484,-0.345337,-0.143127,0.110657,0.920837
1480690472040046,-0.345642,-0.14325,0.110657,0.920715
1480690472062106,-0.345642,-0.14325,0.110657,0.920715
1480690472070750,-0.345703,-0.14325,0.110657,0.920715
1480690472093187,-0.345703,-0.14325,0.110657,0.920715
1480690472114245,-0.345703,-0.14325,0.110657,0.920715
1480690472145828,-0.345703,-0.14325,0.110657,0.920715
1480690472153347,-0.345642,-0.14325,0.110657,0.920715
1480690472174404,-0.345703,-0.14325,0.110657,0.920715
1480690472190947,-0.345703,-0.14325,0.110657,0.920715
1480690472213508,-0.345764,-0.14325,0.110657,0.920715
1480690472234563,-0.345764,-0.14325,0.110657,0.920654
1480690472252110,-0.345764,-0.143188,0.110657,0.920654
1480690472282692,-0.345764,-0.14325,0.110657,0.920715
1480690472294223,-0.345764,-0.14325,0.110657,0.920715
1480690472310766,-0.345764,-0.14325,0.110657,0.920654
1480690472339845,-0.345825,-0.14325,0.110657,0.920654
1480690472371427,-0.345825,-0.143188,0.110718,0.920654
1480690472373934,-0.345825,-0.143188,0.110718,0.920654
1480690472393486,-0.345764,-0.143188,0.110718,0.920654
1480690472416047,-0.345947,-0.143188,0.110657,0.920593
1480690472431090,-0.345947,-0.143188,0.110657,0.920593
1480690472453144,-0.346008,-0.143127,0.110657,0.920593
1480690472475705,-0.346008,-0.143127,0.110657,0.920593
1480690472490745,-0.346069,-0.143127,0.110657,0.920593
1480690472513307,-0.346069,-0.143127,0.110657,0.920593
1480690472536368,-0.345825,-0.143127,0.110657,0.920654
1480690472556920,-0.345825,-0.143066,0.110657,0.920715
1480690472573966,-0.345825,-0.143127,0.110657,0.920715
1480690472596526,-0.34613,-0.143066,0.110657,0.920532
1480690472618585,-0.346191,-0.143066,0.110657,0.920532
1480690472639141,-0.346191,-0.143066,0.110657,0.920532
1480690472655683,-0.346191,-0.143005,0.110657,0.920532
1480690472676740,-0.346191,-0.143005,0.110657,0.920532
1480690472701806,-0.346191,-0.143005,0.110718,0.920532
1480690472715844,-0.346191,-0.143005,0.110718,0.920532
1480690472730382,-0.346191,-0.143005,0.110718,0.920532
1480690472754446,-0.346252,-0.142944,0.110718,0.920532
1480690472776003,-0.346252,-0.142944,0.110718,0.920532
1480690472790040,-0.346252,-0.142944,0.110718,0.920532
1480690472813603,-0.346252,-0.142944,0.110718,0.920532
1480690472836164,-0.346252,-0.142944,0.110718,0.920532
1480690472852707,-0.346252,-0.142944,0.110718,0.920532
1480690472873262,-0.346619,-0.142883,0.110718,0.92041
1480690472895824,-0.34668,-0.142883,0.110779,0.92041
1480690472925902,-0.346619,-0.142883,0.110779,0.92041
1480690472933423,-0.346619,-0.142822,0.110779,0.92041
1480690472955982,-0.346741,-0.142822,0.110718,0.920349
1480690472979549,-0.346802,-0.142822,0.110718,0.920349
1480690472995086,-0.346863,-0.142822,0.110718,0.920349
1480690473015641,-0.346924,-0.142822,0.110718,0.920288
1480690473036698,-0.346924,-0.142761,0.110718,0.920288
1480690473053240,-0.346924,-0.142761,0.110779,0.920288
1480690473075801,-0.346863,-0.142761,0.110779,0.920349
1480690473096857,-0.346863,-0.142761,0.110718,0.920349
1480690473113401,-0.346924,-0.142761,0.110779,0.920349
1480690473135961,-0.346924,-0.1427,0.110779,0.920288
1480690473174062,-0.346985,-0.1427,0.110779,0.920288
1480690473176570,-0.346985,-0.1427,0.110779,0.920288
1480690473203140,-0.346985,-0.142639,0.110779,0.920288
1480690473216676,-0.346985,-0.142639,0.110779,0.920288
1480690473233220,-0.346985,-0.142639,0.110779,0.920288
1480690473255780,-0.346985,-0.142639,0.11084,0.920288
1480690473276835,-0.347046,-0.142578,0.11084,0.920288
1480690473294384,-0.347046,-0.142578,0.11084,0.920288
1480690473315940,-0.347107,-0.142578,0.11084,0.920288
1480690473337052,-0.347046,-0.142578,0.11084,0.920288
1480690473353546,-0.347046,-0.142578,0.11084,0.920288
1480690473376608,-0.34729,-0.142578,0.11084,0.920166
1480690473398165,-0.347351,-0.142517,0.11084,0.920166
1480690473419220,-0.34729,-0.142517,0.11084,0.920166
1480690473445290,-0.34729,-0.142456,0.110901,0.920166
1480690473458324,-0.34729,-0.142456,0.110901,0.920166
1480690473473366,-0.347351,-0.142395,0.110901,0.920166
1480690473496429,-0.347351,-0.142456,0.110901,0.920166
1480690473518485,-0.347351,-0.142456,0.110901,0.920166
1480690473533023,-0.347412,-0.142395,0.110901,0.920166
1480690473556084,-0.347412,-0.142395,0.110901,0.920166
1480690473585665,-0.347229,-0.142334,0.110962,0.920227
1480690473592681,-0.347229,-0.142334,0.110962,0.920227
1480690473621759,-0.34729,-0.142334,0.110962,0.920227
1480690473638303,-0.34729,-0.142334,0.110962,0.920227
1480690473652842,-0.34729,-0.142273,0.110962,0.920227
1480690473675903,-0.347351,-0.142273,0.110962,0.920227
1480690473704479,-0.347351,-0.142273,0.110962,0.920166
1480690473727039,-0.347351,-0.142212,0.110962,0.920227
1480690473742079,-0.347351,-0.142212,0.110962,0.920227
1480690473758623,-0.347351,-0.142212,0.110962,0.920227
1480690473772660,-0.347351,-0.142212,0.110962,0.920227
1480690473797226,-0.34729,-0.142151,0.111023,0.920227
1480690473818282,-0.34729,-0.141968,0.111145,0.920227
1480690473832820,-0.34729,-0.141968,0.111145,0.920227
1480690473846357,-0.34729,-0.141968,0.111145,0.920227
1480690473861397,-0.34729,-0.141968,0.111145,0.920227
1480690473891476,-0.34729,-0.141968,0.111145,0.920227
1480690473903509,-0.34729,-0.141907,0.111206,0.920227
1480690473924063,-0.347351,-0.141907,0.111206,0.920227
1480690473954143,-0.347412,-0.141907,0.111206,0.920227
1480690473961664,-0.347412,-0.141907,0.111206,0.920227
1480690473981216,-0.347595,-0.141968,0.111206,0.920105
1480690474003776,-0.347595,-0.141907,0.111206,0.920166
1480690474022825,-0.347595,-0.141907,0.111206,0.920166
1480690474048896,-0.347473,-0.141907,0.111206,0.920166
1480690474063936,-0.347534,-0.141907,0.111206,0.920166
1480690474089002,-0.347534,-0.141907,0.111206,0.920166
1480690474108554,-0.347534,-0.141907,0.111206,0.920166
1480690474123594,-0.347534,-0.141907,0.111206,0.920166
1480690474146158,-0.347534,-0.141907,0.111206,0.920166
1480690474170217,-0.347534,-0.141907,0.111206,0.920166
