timestamp,emg1,emg2,emg3,emg4,emg5,emg6,emg7,emg8
1480611977266812,-2,-4,0,5,2,4,-3,-7
1480611977266812,0,4,2,1,-1,0,0,2
1480611977267313,-3,1,3,-1,-2,0,-1,-1
1480611977267313,4,-3,-1,-2,-3,0,4,1
1480611977281851,-1,1,-2,0,2,-2,0,2
1480611977281851,-6,-6,0,0,-1,1,-2,-2
1480611977288870,1,0,0,1,-3,-1,-2,-1
1480611977288870,-1,1,-3,0,2,0,0,0
1480611977303408,1,1,-2,1,0,-4,-1,-1
1480611977303408,2,-3,-2,4,0,0,0,0
1480611977318950,-1,-4,-1,-1,-1,0,0,1
1480611977318950,-2,2,0,0,2,1,-1,-4
1480611977327978,2,-1,-1,-6,0,-2,-1,2
1480611977327978,0,-7,-2,-5,-5,-5,-2,1
1480611977329478,-2,4,-1,1,-3,-4,6,-1
1480611977329478,-2,0,-1,3,4,6,6,1
1480611977341008,2,5,0,-1,-1,-1,-9,-3
1480611977341008,-4,0,0,4,1,1,-3,-1
1480611977342011,0,-1,-2,-1,-3,-2,-3,-3
1480611977342011,2,3,-1,-3,-3,-5,-1,0
1480611977363568,-2,-8,-2,0,-4,-3,3,2
1480611977363568,-1,0,0,3,-2,-3,1,-1
1480611977364572,2,6,-2,-6,5,8,-2,0
1480611977364572,-5,-12,-1,2,-2,0,1,-1
1480611977394652,1,-3,-1,1,3,0,0,2
1480611977394652,2,7,2,-5,-5,-6,-6,-3
1480611977396155,-7,-5,-2,0,-2,-5,-2,-1
1480611977396155,0,-5,-2,-3,-2,-2,-4,-1
1480611977400668,-1,4,1,0,-3,-2,3,0
1480611977400668,2,-5,-3,1,2,2,1,3
1480611977408688,1,2,-1,-1,-4,0,-7,-9
1480611977408688,-1,1,-3,-5,-2,-1,-2,1
1480611977423728,-3,-6,0,6,3,-2,9,1
1480611977423728,1,3,1,-1,2,-2,1,-1
1480611977424731,-2,1,2,1,-1,4,0,1
1480611977424731,0,-3,1,2,2,-1,1,-2
1480611977446790,0,5,-2,-3,-3,-2,-1,-2
1480611977446790,-1,-1,-1,-1,-2,2,1,3
1480611977447793,0,1,-1,-6,2,-4,3,-1
1480611977447793,0,-5,3,5,-2,-2,-4,0
1480611977460326,-3,-4,-2,-1,-5,-6,-4,1
1480611977460326,-7,-3,-1,-1,13,15,5,-3
1480611977468849,0,-7,-2,0,-9,0,-3,1
1480611977468849,3,7,1,0,5,-4,3,1
1480611977483387,4,2,2,-1,-3,-6,0,0
1480611977483387,3,-7,-3,-3,-2,-2,-2,-1
1480611977490908,-3,5,0,4,3,-1,-1,2
1480611977490908,-2,-5,-7,-4,-2,1,4,-4
1480611977506950,-2,-3,5,2,-3,-4,-3,-1
1480611977506950,2,3,-2,-4,-3,-3,-2,3
1480611977507451,2,-2,1,0,1,1,-2,-3
1480611977507451,-2,1,1,-1,1,-2,-5,-1
1480611977520487,-3,1,-4,-3,3,-2,-2,-2
1480611977520487,0,0,-3,0,-4,-2,4,1
1480611977529012,1,-4,1,2,4,3,0,2
1480611977529012,0,0,0,-2,-3,4,-4,-1
1480611977559591,-1,-3,-1,-4,-1,-4,3,2
1480611977559591,-5,-4,0,0,-4,-4,-4,-6
1480611977560092,0,3,-2,3,3,0,1,0
1480611977560092,1,1,-1,0,1,2,-2,-3
1480611977566609,1,-1,1,-2,0,3,2,0
1480611977566609,-8,-13,-3,1,-2,-2,2,0
1480611977573627,1,5,0,-2,-7,-8,-10,-3
1480611977573627,-3,-8,2,-2,1,-9,-2,2
1480611977589169,2,4,1,1,3,5,5,-1
1480611977589169,-1,3,1,-2,7,10,-2,-2
1480611977596189,2,-1,1,4,-6,-6,4,0
1480611977596189,-2,-2,-1,-2,-3,2,2,-3
1480611977603708,-1,-1,-3,1,6,-7,-5,-1
1480611977603708,2,3,-1,-3,-4,-2,-2,-2
1480611977604712,0,-2,1,2,3,4,0,1
1480611977604712,-1,3,1,-3,-8,-7,-1,-2
1480611977627773,0,-2,0,-1,-3,5,-1,1
1480611977627773,1,8,2,-4,-1,-2,0,-1
1480611977628275,1,-3,-2,1,3,-1,0,1
1480611977628275,1,1,2,-1,-5,0,3,1
1480611977640305,-8,-2,-1,-1,-5,0,-4,-1
1480611977640305,0,4,3,3,1,-10,-2,-2
1480611977648827,0,-8,0,-4,-1,9,2,-1
1480611977648827,-3,2,2,5,9,6,0,-2
1480611977672391,-5,-3,-2,-5,0,5,-1,-2
1480611977672391,3,6,-1,-1,-9,-9,-1,-1
1480611977673393,-2,-12,0,-3,-10,-18,-1,1
1480611977673393,-1,0,-3,0,12,18,3,-1
1480611977687430,4,2,1,1,3,-6,-1,1
1480611977687430,-5,-2,0,-1,-2,3,4,1
1480611977689435,1,8,-2,-3,4,3,1,1
1480611977689435,1,-5,-1,2,-4,-1,-2,0
1480611977700466,-2,0,-1,-3,-10,-3,0,2
1480611977700466,2,-2,-2,2,7,3,-6,-8
1480611977708486,2,3,-1,-7,2,0,1,0
1480611977708486,-3,-2,1,11,-3,-4,4,1
1480611977723526,-5,-11,-4,-5,-2,0,-3,-1
1480611977723526,2,-1,1,2,-5,-4,-4,2
1480611977724529,-2,1,2,1,-2,-1,-1,-2
1480611977724529,3,3,0,-4,1,-3,-3,0
1480611977746086,4,5,2,3,5,9,2,2
1480611977746086,-4,-6,-3,-2,0,4,4,2
1480611977747089,-1,0,-2,-2,-2,-5,0,-2
1480611977747089,-1,-5,1,-5,-4,-6,-2,-1
1480611977776667,1,2,-3,1,2,-5,0,-3
1480611977776667,0,9,1,-2,-1,2,-2,2
1480611977777673,0,-3,2,3,1,2,1,2
1480611977777673,-2,0,-3,0,-1,-3,-2,0
1480611977783686,1,2,-1,-2,4,1,-1,-2
1480611977783686,-1,-3,0,-5,-9,-4,0,-1
1480611977784689,-3,-1,0,8,8,9,-1,-2
1480611977784689,2,0,-1,-5,-5,-2,3,2
1480611977806247,1,1,0,2,-1,-5,-4,1
1480611977806247,0,-3,-1,0,3,-4,-6,-1
1480611977807248,1,0,0,-5,-5,-1,6,0
1480611977807248,0,1,-2,-2,-5,-4,-5,-6
1480611977837329,-5,-6,0,2,10,-1,4,1
1480611977837329,1,-1,0,2,-1,9,2,0
1480611977838331,-4,-8,-3,-1,5,3,-3,-2
1480611977838331,-2,6,1,0,0,1,0,-1
1480611977845350,1,2,0,-4,-9,-3,-3,-2
1480611977845350,3,-2,0,-2,0,-3,0,-1
1480611977845852,-4,-10,-4,-2,-7,-7,-2,1
1480611977845852,1,0,-2,-5,-2,1,-4,-1
1480611977866406,0,1,-2,3,2,1,-1,-1
1480611977866406,0,-1,1,0,5,3,2,0
1480611977866908,1,5,-1,-3,-7,-9,-2,-1
1480611977866908,-2,-3,-4,1,0,4,-3,1
1480611977889468,-3,0,-3,-4,-3,4,8,-4
1480611977889468,2,0,0,-1,-15,-19,0,5
1480611977889969,0,2,0,-1,11,11,-2,-1
1480611977889969,-1,-3,0,-2,1,0,0,-2
1480611977903506,1,2,1,6,8,2,-1,1
1480611977903506,-2,-5,-2,-2,-7,-6,-1,-2
1480611977904508,1,4,2,6,5,2,-3,0
1480611977904508,-5,-2,-2,0,-4,3,1,1
1480611977928574,0,-3,-1,0,2,3,1,1
1480611977928574,-5,-5,0,1,1,-3,-6,-2
1480611977929579,4,-1,-2,-4,-4,-4,1,1
1480611977929579,0,4,-2,-1,0,-1,-2,1
1480611977950130,3,-8,3,5,-3,-5,1,0
1480611977950130,-2,-2,-2,-1,-1,-2,-1,0
1480611977950635,-3,1,0,0,5,-2,0,0
1480611977950635,1,3,3,1,0,1,1,2
1480611977963665,0,4,0,-7,-9,-1,1,0
1480611977963665,-3,-4,-3,5,-1,-7,0,0
1480611977964668,-4,2,2,5,11,16,1,0
1480611977964668,0,-3,-2,0,0,0,-1,1
1480611977986727,0,3,1,-3,-7,-11,-1,-2
1480611977986727,2,-1,0,-1,7,14,2,-1
1480611977987730,-4,-3,0,-5,-19,-13,-3,-3
1480611977987730,0,-2,-1,1,5,-3,-2,1
1480611978009286,-2,0,1,1,10,5,1,-2
1480611978009286,0,5,-1,-2,-3,-1,-4,-2
1480611978009789,0,1,-2,1,-2,-4,1,1
1480611978009789,0,-4,-1,-3,-2,0,-1,-3
1480611978023825,-1,-2,-2,3,-5,2,-2,0
1480611978023825,3,-1,-1,-2,3,-5,0,0
1480611978024326,1,3,-2,-1,-5,0,-4,-1
1480611978024326,-2,-2,0,-1,2,1,3,-2
1480611978061927,-3,0,-2,-1,-5,-5,-1,1
1480611978061927,-3,-2,-1,-2,7,9,-2,0
1480611978062933,0,0,-1,-5,-2,4,1,-1
1480611978062933,0,1,0,4,0,-13,2,2
1480611978069447,1,-1,1,1,8,17,-1,-2
1480611978069447,2,1,0,0,-5,-6,0,-1
1480611978069948,-1,0,-3,-5,-7,-8,-3,-3
1480611978069948,-1,-2,0,-3,6,3,-4,0
1480611978083484,0,-4,-1,0,-6,-8,-2,-1
1480611978083484,-1,3,0,0,1,3,1,0
1480611978084988,0,-3,1,1,1,3,0,0
1480611978084988,0,1,1,-1,-4,-3,9,-3
1480611978106044,1,2,-2,-2,-2,-5,-1,1
1480611978106044,-4,-6,0,1,1,3,-5,-6
1480611978107047,0,3,-2,-2,-3,-9,-2,-1
1480611978107047,1,-7,-1,1,-4,1,-4,0
1480611978129607,-2,-2,0,-4,1,-4,0,-1
1480611978129607,4,7,0,1,8,13,6,1
1480611978130108,-2,1,-2,-1,-10,-14,-3,0
1480611978130108,-2,-5,1,0,6,10,0,-1
1480611978143644,2,4,0,4,-1,3,-1,1
1480611978143644,-4,0,-2,0,-2,-7,-1,1
1480611978144650,-4,-8,-3,-5,-6,-1,1,-2
1480611978144650,0,-2,0,4,1,-1,-1,1
1480611978166204,1,-1,-1,-3,2,3,-1,0
1480611978166204,1,2,1,6,-1,-3,0,0
1480611978167207,2,0,1,-3,1,1,-3,1
1480611978167207,-3,2,0,-5,-3,-5,2,-3
1480611978189265,-1,-5,-1,-2,-2,2,-5,1
1480611978189265,0,3,0,-2,-5,-8,0,-1
1480611978190268,1,-5,0,2,4,1,1,4
1480611978190268,-1,-2,-1,3,0,1,-3,0
1480611978203804,0,1,-1,0,-1,6,1,0
1480611978203804,-1,0,-2,-1,-5,-3,3,2
1480611978204306,-1,0,-1,0,10,8,-4,-1
1480611978204306,3,5,0,0,-9,-9,-2,4
1480611978226866,-2,2,-1,-2,-7,-2,-2,-6
1480611978226866,1,-3,-1,-3,3,-4,-1,-2
1480611978227367,-5,-3,2,6,5,4,6,-1
1480611978227367,1,-1,-2,-4,-1,-1,2,-1
1480611978249426,-7,-3,-1,-2,-6,-8,0,0
1480611978249426,2,1,1,2,-1,0,1,-2
1480611978250429,2,-9,-2,-2,0,1,1,-1
1480611978250429,0,7,0,-2,2,1,-4,-3
1480611978271985,0,-3,1,3,-4,-6,-2,-1
1480611978271985,-3,-6,0,-4,2,7,0,-1
1480611978272487,1,5,1,4,2,-6,0,0
1480611978272487,-3,0,-1,-2,-7,-6,-4,0
1480611978294546,1,6,-1,-2,-2,-4,1,2
1480611978294546,1,-8,0,0,11,19,-4,1
1480611978295047,0,2,1,-2,-5,2,-1,0
1480611978295047,0,0,-1,3,0,6,4,1
1480611978309585,1,0,-1,1,8,-1,0,2
1480611978309585,-1,-1,0,-4,-10,-8,-5,-2
1480611978310087,-1,-3,-2,-4,-2,-7,-3,-5
1480611978310087,2,-2,-1,-4,-6,-1,-2,0
1480611978324124,-1,-6,0,1,5,5,2,-1
1480611978324124,3,5,-1,1,0,2,2,0
1480611978331143,-4,-5,-2,-2,-3,-1,0,-3
1480611978331143,-3,-1,-2,-1,1,-5,-1,-1
1480611978346684,0,0,-1,-4,0,4,0,0
1480611978346684,4,2,-1,1,-3,-6,-1,1
1480611978348188,0,6,1,4,-3,-4,2,3
1480611978348188,2,-8,-2,1,11,13,0,5
1480611978369244,-4,2,0,-2,-4,-3,-7,-9
1480611978369244,-9,-10,-2,-3,-11,-15,-1,-2
1480611978370748,1,0,-1,-3,6,12,-2,-1
1480611978370748,-2,4,1,0,-8,-8,1,1
1480611978382780,0,-2,-4,1,4,-2,4,2
1480611978382780,0,2,-1,2,1,2,-1,-1
1480611978407345,0,-2,-1,-2,-9,-5,-1,1
1480611978407345,-1,0,0,-1,4,1,-4,-2
1480611978409352,0,0,0,-3,-4,3,0,2
1480611978409352,-2,2,2,-1,-1,-4,1,-1
1480611978409852,1,1,0,2,3,2,-1,1
1480611978409852,2,0,0,-3,-3,-1,0,-1
1480611978429404,0,-4,-3,-4,-3,-3,-3,-1
1480611978429404,-1,0,0,4,3,1,3,-2
1480611978430406,0,0,0,0,-6,-4,-2,-1
1480611978430406,-1,-1,1,-1,-2,-5,0,-1
1480611978451965,-2,-3,0,0,6,3,1,2
1480611978451965,3,-1,-2,-1,8,14,2,0
1480611978453468,0,0,0,-1,-4,-9,-1,0
1480611978453468,-1,4,2,0,4,3,5,-2
1480611978473522,-1,-4,1,-1,-9,-8,-4,-2
1480611978473522,-2,0,0,-2,-1,1,0,0
1480611978481542,-1,-1,-1,1,3,1,1,-4
1480611978481542,-2,0,-3,0,-3,-3,1,2
1480611978491068,2,5,0,-2,0,0,-1,1
1480611978491068,-6,-18,-2,3,-3,-12,-6,2
1480611978492071,0,3,-3,-2,1,7,-1,-3
1480611978492071,0,0,-1,-2,0,2,-1,0
1480611978504605,0,3,1,6,4,9,2,-2
1480611978504605,2,7,-1,-7,-6,-7,-3,1
1480611978511122,-1,-2,1,1,1,-3,0,-1
1480611978511122,-5,-6,-2,-4,-6,-1,-4,-2
1480611978526162,-3,-2,-1,1,0,-8,1,2
1480611978526162,0,0,0,-1,-13,-7,2,1
1480611978527169,0,1,2,0,14,16,-1,0
1480611978527169,1,0,0,3,4,-4,-4,-1
1480611978573287,0,-4,0,-5,-6,0,6,0
1480611978573287,0,-2,-4,-1,1,-3,0,0
1480611978574791,0,2,-2,-4,-8,-4,0,-1
1480611978574791,1,2,0,0,4,2,-2,-1
1480611978578802,1,-4,1,0,0,-3,-1,0
1480611978578802,-1,1,2,-1,0,-3,1,0
1480611978579804,-1,-5,-3,-4,-3,6,-4,0
1480611978579804,4,1,-1,1,-3,-5,-4,-1
1480611978586322,-9,-3,-1,0,1,-2,1,0
1480611978586322,2,3,0,-1,5,1,4,1
1480611978586823,-3,1,-3,1,-5,-3,-9,-10
1480611978586823,0,-9,-1,1,-5,-7,0,-1
1480611978618908,5,12,0,-1,9,12,-4,-1
1480611978618908,-1,-2,1,2,13,11,3,0
1480611978619911,-1,2,1,2,-4,-8,3,5
1480611978619911,-2,-4,-1,-1,-1,3,0,-2
1480611978631942,1,0,-2,-2,-9,-10,0,-3
1480611978631942,-2,-1,-2,-2,4,4,-4,-1
1480611978632444,0,0,-1,0,-2,-5,5,0
1480611978632444,0,1,0,1,-5,-6,-2,0
1480611978645981,-2,-4,-2,2,9,8,0,2
1480611978645981,2,0,-2,-3,-1,-5,-2,-3
1480611978646984,0,-1,-2,0,1,3,1,0
1480611978646984,-3,-1,1,3,-4,-1,2,-1
1480611978669543,-1,-4,-1,-4,-3,-5,-1,-1
1480611978669543,1,11,-1,-1,1,6,-2,-2
1480611978670044,1,-4,-1,-2,-4,-9,-1,0
1480611978670044,-4,-16,-2,-2,1,1,-1,0
1480611978683080,-1,3,-3,0,-6,1,-3,0
1480611978683080,1,0,0,-4,-11,-18,-7,-4
1480611978707644,2,3,3,7,17,22,3,1
1480611978707644,-7,0,0,5,6,3,1,0
1480611978709149,-2,-3,-3,1,-2,-3,-2,-1
1480611978709149,1,-2,-4,-1,-12,-2,-2,0
1480611978710151,1,-3,-2,-4,-7,-13,-1,0
1480611978710151,4,4,-2,-1,3,2,3,5
1480611978760787,0,-2,0,-1,0,1,-6,-2
1480611978760787,0,1,2,3,7,4,6,1
1480611978761792,-5,-5,0,-2,-1,1,-3,-1
1480611978761792,0,-1,0,-5,-4,0,2,-1
1480611978763293,1,5,1,1,-1,-5,2,2
1480611978763293,1,1,-3,-3,-1,3,-6,-4
1480611978767303,-1,5,1,1,-1,-6,-2,1
1480611978767303,-4,-3,-2,0,-4,-3,-1,-4
1480611978769309,0,-4,-1,-3,-8,-3,0,-2
1480611978769309,-2,1,1,2,10,6,-1,0
1480611978769810,-1,1,1,-3,-9,-13,2,0
1480611978769810,2,7,-2,-2,6,10,-4,-1
1480611978788359,-3,-4,-2,-2,5,8,9,1
1480611978788359,-3,-5,-1,-3,-7,-3,-1,2
1480611978796381,3,-4,-1,-1,-2,-3,1,0
1480611978796381,2,4,-1,2,0,-12,-5,1
1480611978811922,-5,-6,-1,1,1,3,0,-1
1480611978811922,-1,3,-2,-2,-5,0,2,-1
1480611978812924,1,-3,0,2,2,7,-2,1
1480611978812924,1,-1,0,2,2,4,2,0
1480611978826462,1,2,0,0,-1,-8,-3,0
1480611978826462,-3,-3,0,-1,0,-3,4,-2
1480611978826962,-1,2,-2,-4,-4,-1,-4,0
1480611978826962,0,1,0,-3,1,0,1,-1
1480611978849522,0,0,0,2,-3,0,-1,0
1480611978849522,0,-3,-2,0,1,-8,-2,-1
1480611978850023,-3,-2,-1,2,-1,1,2,-1
1480611978850023,-3,0,1,0,12,10,4,0
1480611978888125,3,6,2,-1,-3,-4,-9,-6
1480611978888125,2,-5,0,-4,-2,5,1,4
1480611978889128,2,1,-3,-2,-5,-15,-4,-7
1480611978889128,-6,-11,0,0,-5,-4,-2,-1
1480611978890632,0,-3,-3,-2,3,-1,1,3
1480611978890632,0,5,-1,2,-1,4,0,0
1480611978893639,-1,-4,-1,-1,0,3,2,2
1480611978893639,1,6,-1,0,2,1,-1,1
1480611978909683,3,2,-2,1,3,2,1,0
1480611978909683,-1,0,1,0,-4,-7,-5,-2
1480611978910183,0,-1,-2,-3,-8,3,3,1
1480611978910183,-2,-2,1,-3,5,3,-3,-4
1480611978931741,-4,-6,1,5,-3,-2,-1,0
1480611978931741,-2,-1,-1,-1,2,0,1,3
1480611978932743,-1,3,0,1,-1,-4,-2,0
1480611978932743,2,-3,-3,-3,-1,9,6,1
1480611978946780,2,-3,-2,-4,-2,-8,1,1
1480611978946780,3,0,-1,3,-3,1,-5,-2
1480611978953799,-2,-1,-1,0,9,4,0,-1
1480611978953799,-1,1,-2,-1,-10,-16,-3,-1
1480611978970343,1,3,2,0,2,9,4,1
1480611978970343,-3,-8,-1,-2,2,1,7,1
1480611978972348,2,0,0,-3,3,8,-2,-6
1480611978972348,0,5,0,-1,-3,0,0,4
1480611978991901,-6,-6,-3,-3,-6,-4,0,1
1480611978991901,-1,-1,-1,-3,3,-8,-3,1
1480611978992904,-2,-3,-1,2,5,5,-3,-5
1480611978992904,0,4,-2,0,-4,-4,-7,-6
1480611979005938,3,-3,-2,-3,-7,-7,4,9
1480611979005938,-1,-1,0,0,-3,0,2,6
1480611979006941,-4,-2,0,1,2,-10,-9,-19
1480611979006941,-1,-4,1,2,5,8,1,3
1480611979029504,-1,3,0,0,2,0,-3,-6
1480611979029504,2,-2,0,0,1,2,3,8
1480611979030002,2,1,1,1,-3,-4,4,8
1480611979030002,-1,0,0,-3,-7,-6,-5,-3
1480611979075623,0,6,1,-4,5,4,9,2
1480611979075623,-1,-9,1,5,-1,5,-4,-12
1480611979076126,-6,1,-4,-2,-2,0,1,5
1480611979076126,0,3,-3,0,-5,-6,-1,-1
1480611979082140,3,-3,2,1,11,6,-1,4
1480611979082140,-5,0,-2,-4,-5,-2,-2,-5
1480611979082642,-3,-12,-2,-6,-9,-7,8,0
1480611979082642,-2,0,2,5,10,6,-1,1
1480611979090162,-1,3,0,2,0,0,-3,-4
1480611979090162,3,3,-1,-2,0,-3,-3,-1
1480611979090664,1,-2,-1,0,-1,5,2,8
1480611979090664,-1,-1,-1,-4,-17,-14,-5,-12
1480611979128265,0,3,-1,-1,8,14,-3,-3
1480611979128265,-5,-6,-1,7,8,-1,-2,-2
1480611979129269,0,-3,0,-2,0,5,1,9
1480611979129269,1,4,-1,3,-3,-4,6,9
1480611979135283,-1,1,-1,2,-4,-5,-8,-17
1480611979135283,2,4,1,-3,-2,3,5,3
1480611979137288,-2,-12,-2,0,3,-3,-9,-3
1480611979137288,1,-1,-1,-2,1,4,1,2
1480611979149319,-2,-8,-4,-3,-6,-8,-2,3
1480611979149319,2,7,4,3,1,-1,1,0
1480611979149820,0,6,0,-1,-1,-7,1,1
1480611979149820,-6,-6,-6,-3,0,3,-3,-2
1480611979171880,-1,-1,5,2,-4,-4,1,1
1480611979171880,-2,-4,-3,-3,1,0,-2,-2
1480611979172882,-2,1,0,0,-8,0,4,0
1480611979172882,2,-2,-2,1,6,-6,0,3
1480611979186418,2,4,3,-2,1,7,0,2
1480611979186418,2,3,-2,-4,3,4,0,0
1480611979186919,3,4,1,6,1,-1,0,-1
1480611979186919,-5,-10,-3,-2,0,7,2,-1
1480611979208477,-5,-3,-6,-5,-4,-8,-2,0
1480611979208477,-1,-2,-2,3,-3,2,-2,-2
1480611979209481,-1,7,-1,0,4,6,1,-1
1480611979209481,-1,-4,-1,-2,-9,-15,-2,-3
1480611979232039,0,-1,-2,-1,-3,1,-1,0
1480611979232039,-4,-5,-1,-1,-1,-4,-1,-2
1480611979232541,1,2,0,0,8,4,-3,1
1480611979232541,3,1,1,4,2,4,-1,0
1480611979247080,2,1,3,2,-2,-5,-2,1
1480611979247080,-1,1,-3,-4,-6,-2,-4,0
1480611979247581,-8,-6,-3,-2,2,0,-3,-1
1480611979247581,1,-2,1,-3,-1,1,0,0
1480611979269640,-4,-5,-4,1,0,1,0,-2
1480611979269640,2,4,0,-2,-7,-7,0,-1
1480611979276157,3,-1,1,2,-6,-16,-2,-1
1480611979276157,2,2,-1,0,12,22,2,2
1480611979292201,-1,3,-2,-2,0,4,2,1
1480611979292201,-1,1,-1,7,3,0,0,-1
1480611979293202,-1,-10,-2,-5,-3,3,-2,0
1480611979293202,-3,6,-2,-3,-9,-8,9,1
1480611979305736,0,1,0,4,-10,-14,-7,-5
1480611979305736,-5,-7,-1,-5,1,2,0,-1
1480611979313757,-2,0,-2,-1,3,-1,0,2
1480611979313757,1,2,4,4,1,8,0,1
1480611979354366,2,-1,-1,-2,6,4,3,1
1480611979354366,-2,5,1,0,-5,-4,0,-1
1480611979355869,-1,-2,-2,1,-6,-10,-3,-4
1480611979355869,1,-1,-1,-2,-8,-1,-5,-1
1480611979358376,-1,1,-3,4,11,0,6,-1
1480611979358376,0,0,-1,-1,-1,5,-2,0
1480611979358877,0,-2,1,-6,3,3,0,-1
1480611979358877,-2,-1,2,1,1,5,-3,-1
1480611979365896,-2,-1,-1,-3,-2,-7,-2,-1
1480611979365896,0,-1,2,1,6,2,2,1
1480611979373917,3,4,-1,0,-6,2,2,0
1480611979373917,2,5,1,-2,-2,-8,-4,-1
1480611979396979,-3,-9,-1,-4,-4,-1,3,-3
1480611979396979,-1,-5,0,0,-2,-7,0,2
1480611979397480,-1,6,0,0,7,5,1,-1
1480611979397480,3,-2,1,-1,-2,7,-1,-3
1480611979412520,1,2,0,-2,-2,-4,0,3
1480611979412520,-3,-2,-2,-4,0,-4,-11,-12
1480611979413522,0,5,-1,-2,-4,-2,3,1
1480611979413522,1,-4,0,-1,-3,-6,2,16
1480611979433576,1,-6,0,3,3,4,-1,0
1480611979433576,-3,1,-2,-3,-7,-4,-9,-20
1480611979441095,-1,2,0,0,-2,-6,-4,-1
1480611979441095,-3,-1,0,-2,7,7,1,-2
1480611979450120,0,-3,-1,-2,-3,-5,-2,3
1480611979450120,0,-1,0,4,4,0,-2,5
1480611979451123,-1,-2,-1,-4,-6,-1,10,-3
1480611979451123,-1,-1,-3,-3,-4,-8,-1,7
1480611979472178,0,-1,1,5,3,4,-4,-13
1480611979472178,3,3,0,-3,-2,1,3,3
1480611979472680,1,1,0,2,2,1,-3,0
1480611979472680,-6,-8,-1,3,-2,-4,0,0
1480611979485714,0,-1,-2,-4,4,4,0,5
1480611979485714,2,0,1,5,4,-1,3,-4
1480611979494237,0,-1,1,1,-2,4,-2,4
1480611979494237,-1,3,1,-1,0,-6,-1,-5
1480611979516797,-2,1,-2,-4,-12,-5,-4,-2
1480611979516797,-2,-3,1,-3,2,2,2,11
1480611979517800,3,2,0,-3,-9,-12,-1,7
1480611979517800,5,8,0,-1,17,16,3,-6
1480611979531837,-7,-11,-2,0,-7,-2,-2,-4
1480611979531837,4,1,-1,-1,-1,-1,1,5
1480611979532840,0,-1,-4,-1,-1,3,0,-6
1480611979532840,-5,-7,-3,6,-3,-8,-1,-3
1480611979545373,3,10,0,-3,-2,1,2,4
1480611979545373,-1,-5,-2,-1,5,4,2,4
1480611979561416,-5,-3,-2,-1,-4,-2,-4,-4
1480611979561416,3,0,0,2,-2,-10,-8,-13
1480611979568434,0,6,-1,-1,5,15,13,1
1480611979568434,-1,-6,-1,3,-6,-1,2,2
1480611979569437,-4,2,-1,-2,13,3,2,1
1480611979569437,-1,-2,-2,-3,-14,-5,-7,-8
1480611979591997,1,-4,-2,2,1,-8,-3,2
1480611979591997,-4,0,0,1,2,2,-6,-2
1480611979592498,5,3,0,-3,-9,-6,-7,1
1480611979592498,1,0,-2,-3,5,6,-1,-5
1480611979614557,-4,-2,2,1,6,9,0,0
1480611979614557,-1,4,-1,-2,-2,-4,5,3
1480611979615058,-1,-4,1,5,5,1,-3,0
1480611979615058,-2,-7,-2,-3,-4,-1,-1,4
1480611979628595,3,2,-1,-6,-10,-9,-5,0
1480611979628595,-1,5,-2,-4,-2,-3,0,-2
1480611979629599,-1,-5,-2,3,3,8,4,-3
1480611979629599,1,2,-1,-1,-1,-2,2,1
1480611979651656,-4,-4,-1,-1,-2,-1,-2,0
1480611979651656,-4,-2,0,-4,-3,-3,-3,-2
1480611979653160,2,3,1,-2,-5,1,-1,-1
1480611979653160,0,0,1,2,9,0,1,3
1480611979674216,-2,-1,0,2,0,0,-4,-11
1480611979674216,2,-1,-3,-2,-4,-3,1,2
1480611979675219,-2,-3,-2,-3,-8,-6,-3,-2
1480611979675219,-3,-3,1,0,12,12,3,4
1480611979688754,2,2,1,6,5,-3,1,2
1480611979688754,-1,-1,-3,-1,-9,0,-1,-4
1480611979689256,0,1,-1,-2,8,4,0,0
1480611979689256,0,-2,0,-2,-9,-2,6,1
1480611979711317,-1,-1,-1,-1,-1,-1,-4,-1
1480611979711317,3,-2,0,2,1,4,-1,-2
1480611979718835,-1,3,-1,-1,-1,-8,0,3
1480611979718835,3,4,0,-4,-4,-4,-2,2
1480611979734376,-2,-7,0,-2,-2,8,-1,1
1480611979734376,-5,-4,-4,1,5,-2,1,-1
1480611979735378,2,3,-4,-1,-3,4,-4,2
1480611979735378,-5,-9,-2,0,-5,-9,0,-3
1480611979748414,1,8,-2,2,3,-3,-4,5
1480611979748414,1,-4,2,1,-2,1,-1,-3
1480611979749416,-1,-3,-1,-2,3,2,7,-2
1480611979749416,1,4,-1,0,-2,1,-5,-2
1480611979779496,1,-3,-2,-1,-13,-16,-1,4
1480611979779496,2,1,0,-3,10,12,2,1
1480611979779997,-1,0,1,-1,0,-5,1,-3
1480611979779997,0,2,1,3,-3,8,2,1
1480611979794536,1,-3,-3,-2,-5,-2,0,0
1480611979794536,7,8,-1,0,-3,-15,-1,-2
1480611979796041,-4,-13,1,-1,7,9,2,-1
1480611979796041,-3,0,-2,-2,0,-1,-2,-2
1480611979808574,-3,9,-1,-4,-1,0,-2,-3
1480611979808574,-3,2,1,-1,-8,-2,-2,0
1480611979809578,-1,-9,-2,2,1,-3,-1,0
1480611979809578,0,-1,-2,0,2,-8,-2,-2
1480611979831636,1,-4,0,1,0,2,-1,-2
1480611979831636,1,0,0,-2,-1,0,-2,5
1480611979832638,0,4,2,1,-6,-6,-1,-2
1480611979832638,1,0,-1,0,3,7,-2,0
1480611979854196,1,0,-1,-2,3,1,4,1
1480611979854196,-4,-3,-1,3,-1,-5,-2,-2
1480611979861715,-2,0,-2,1,-6,-1,-6,-1
1480611979861715,0,-5,0,-2,11,7,-1,0
1480611979868734,-4,-1,-1,-3,2,-5,1,-1
1480611979868734,0,-2,1,-1,-3,2,3,0
1480611979869736,-2,-4,-2,0,1,6,4,3
1480611979869736,-2,5,0,0,-13,-15,-3,-6
1480611979892296,3,-1,-2,0,9,6,-7,-2
1480611979892296,0,1,-1,0,-4,0,6,0
1480611979893299,-2,-4,0,0,-3,-3,-1,-3
1480611979893299,0,1,1,0,-2,-2,2,3
1480611979914354,-2,-5,0,0,1,0,2,1
1480611979914354,1,-4,-2,-3,2,8,-3,-2
1480611979915357,4,7,-1,-4,-1,-4,-3,0
1480611979915357,-2,-5,-2,-3,-4,-1,6,1
1480611979928895,-4,-13,-1,2,-7,-10,-6,-3
1480611979928895,1,1,0,0,5,8,-1,1
1480611979929395,0,2,3,6,3,-6,-1,-3
1480611979929395,-2,-1,-3,1,6,5,-1,1
1480611979951955,2,6,-1,-2,-3,3,1,1
1480611979951955,-4,-5,0,0,-4,-5,0,1
1480611979952456,1,-3,-2,1,7,3,-2,-3
1480611979952456,-4,1,0,1,-5,-7,2,-2
1480611979973512,2,0,1,-3,-2,8,0,1
1480611979973512,-3,-4,2,1,-2,1,-4,-2
1480611979981032,0,3,-2,-2,-1,-6,-1,-1
1480611979981032,0,-2,-1,-6,-3,-2,-2,0
1480611979988552,1,0,2,11,1,0,1,0
1480611979988552,-2,1,0,-2,-1,-5,-2,0
1480611979989556,-3,-2,0,1,1,2,-1,-2
1480611979989556,3,0,-2,-3,0,7,-2,0
1480611980012617,-4,-2,0,-2,-10,-6,3,2
1480611980012617,1,0,-1,2,13,7,-5,-2
1480611980013118,-2,-2,1,2,4,3,12,3
1480611980013118,-1,-1,-1,0,-6,-11,-13,-13
1480611980033170,3,9,1,-3,1,-2,0,0
1480611980033170,0,-3,1,0,-3,0,-1,-1
1480611980041192,-2,-8,-3,-7,-8,5,0,1
1480611980041192,0,4,1,5,13,4,1,3
1480611980048712,-3,-1,0,-3,-5,-8,0,-3
1480611980048712,-3,1,-4,-1,-2,-6,0,-1
1480611980050216,0,5,1,-1,-1,2,-2,0
1480611980050216,0,-3,1,0,-6,-4,3,2
1480611980071773,0,2,0,-4,2,7,-2,1
1480611980071773,1,0,-3,-5,-2,-4,3,0
1480611980072777,-3,-6,-3,-5,-2,-2,-3,-4
1480611980072777,2,1,-1,-1,-6,-2,-1,1
1480611980094336,0,-3,-1,3,4,0,0,1
1480611980094336,1,0,1,3,7,9,1,1
1480611980095337,1,3,0,-2,-6,-5,-5,0
1480611980095337,-2,-3,0,1,0,-3,0,-1
1480611980107870,-1,1,7,0,-2,1,-3,0
1480611980107870,2,1,-2,-6,-2,-6,-1,1
1480611980133437,-5,0,-2,3,5,5,-2,0
1480611980133437,-2,-4,-3,-3,4,5,0,-1
1480611980134942,0,-3,0,0,-4,-4,6,-1
1480611980134942,-2,0,-2,-1,-5,-7,-2,-3
1480611980135443,6,7,0,-4,-2,-1,-3,-1
1480611980135443,-3,-5,-1,2,-4,2,-2,1
1480611980154494,-4,-6,-2,0,12,5,5,1
1480611980154494,-1,-2,4,4,3,2,3,0
1480611980154995,0,-3,-3,-1,-4,-4,-3,-3
1480611980154995,-1,5,-1,-3,-5,-11,-2,1
1480611980170536,2,0,-3,0,-3,6,-1,1
1480611980170536,0,-1,4,1,0,-6,5,1
1480611980171539,-1,4,-2,-2,1,0,-4,1
1480611980171539,2,2,1,1,-1,1,-1,0
1480611980194101,1,-5,-3,0,3,-3,-2,3
1480611980194101,-6,-2,-2,0,4,5,3,2
1480611980195102,2,0,0,2,-3,4,-3,-2
1480611980195102,2,0,-1,-5,-8,-7,2,3
1480611980214152,-2,1,2,-1,11,6,4,-4
1480611980214152,4,-2,1,2,-8,-5,-5,-1
1480611980215155,-2,-5,-2,-1,-1,0,-1,0
1480611980215155,-2,-1,-3,-5,-5,-2,-3,-2
1480611980228694,-2,0,-3,4,-8,-9,-3,1
1480611980228694,0,-2,6,0,3,6,-3,-2
1480611980236211,3,7,1,4,-4,0,3,0
1480611980236211,1,-3,-3,1,9,6,2,1
1480611980252253,-6,-7,-4,-7,-7,-8,-4,-1
1480611980252253,-2,2,-4,-2,-5,-4,1,-1
1480611980254259,-1,-2,0,3,2,9,7,2
1480611980254259,1,-2,2,0,-2,-4,3,1
1480611980274814,3,2,-1,-5,3,3,-4,-2
1480611980274814,-5,-4,-4,-1,-4,-4,-2,-1
1480611980275816,2,2,1,0,2,-2,-1,2
1480611980275816,0,0,3,0,-7,-7,0,-2
1480611980287848,-2,-8,-1,-4,3,17,0,0
1480611980287848,1,6,-1,-1,6,-2,-4,-3
1480611980296372,-4,-2,1,-1,-1,-2,10,2
1480611980296372,-2,1,-1,0,-2,-2,-9,-8
1480611980311912,2,1,-1,6,-3,-7,-2,-1
1480611980311912,1,-8,-5,-4,-6,2,0,0
1480611980312915,-1,-1,4,3,8,1,-3,-2
1480611980312915,-2,-1,2,2,1,-1,0,-1
1480611980334974,-3,2,-1,-2,-14,-19,-1,1
1480611980334974,1,1,-1,-1,9,15,0,0
1480611980335977,-4,-1,-3,-4,5,1,0,-1
1480611980335977,0,-1,-5,-4,-3,7,2,6
1480611980348008,4,1,9,7,4,1,1,-1
1480611980348008,1,5,-4,0,-3,-9,-2,3
1480611980363551,3,-3,0,0,-6,-5,-2,-4
1480611980363551,0,-9,-5,1,4,3,1,-2
1480611980373075,-4,0,-4,-6,-13,-16,-3,-2
1480611980373075,-4,-4,0,2,9,12,-6,-4
1480611980374078,2,3,1,-4,2,5,4,3
1480611980374078,-1,1,-2,3,-2,2,3,1
1480611980394634,-1,0,0,1,2,-4,1,-1
1480611980394634,0,-3,-1,0,-9,-11,-2,-3
1480611980395134,2,0,-2,-2,5,6,-6,-1
1480611980395134,0,3,6,7,7,-6,2,1
1480611980408168,0,5,0,-3,7,16,2,1
1480611980408168,0,-2,0,-3,-3,-1,1,1
1480611980416190,-6,-10,-3,-2,-7,-4,4,0
1480611980416190,0,0,-2,-6,-2,-7,-3,-3
1480611980431731,-1,-2,0,1,0,2,1,0
1480611980431731,2,2,-3,0,2,0,0,2
1480611980432734,0,1,0,2,-6,-9,-5,-2
1480611980432734,-1,-2,1,-3,-14,-12,-5,1
1480611980454291,-1,-4,-4,-2,6,17,-2,-1
1480611980454291,-1,-2,0,-2,-4,-9,7,1
1480611980455294,-1,-1,-2,2,5,4,-4,-1
1480611980455294,3,3,1,-5,-8,-1,2,-2
1480611980468832,1,4,-1,0,9,5,-1,-1
1480611980468832,0,-4,1,1,-8,-5,0,-1
1480611980476350,-1,3,2,-2,1,-1,-4,-3
1480611980476350,2,4,-3,0,1,5,0,-3
1480611980491891,-3,-7,-1,0,-4,-5,-2,-3
1480611980491891,-4,-5,0,-2,-2,1,-1,-1
1480611980492894,-2,0,0,0,0,-2,2,3
1480611980492894,-5,-6,0,4,7,9,-3,-2
1480611980514953,1,0,-3,-3,-18,-20,7,3
1480611980514953,1,9,-2,2,1,1,-6,-9
1480611980515955,1,-8,0,3,-6,-3,-2,0
1480611980515955,2,6,5,9,20,12,2,0
1480611980527988,0,-1,3,1,6,-1,2,1
1480611980527988,-2,-4,-7,-7,-7,-7,-2,2
1480611980536008,-2,1,-1,-2,-12,-13,-1,-1
1480611980536008,-1,-3,-4,-4,-1,9,0,1
1480611980552051,-1,-1,2,1,6,7,-5,-1
1480611980552051,0,2,0,4,8,3,3,-1
1480611980553556,1,-3,-4,-1,-4,-3,-2,-3
1480611980553556,-3,-1,-1,-1,-7,-7,0,-3
1480611980574611,3,2,-4,-1,12,4,0,0
1480611980574611,1,1,5,-1,-5,1,-3,1
1480611980575113,-3,-4,-3,-2,-3,-5,-2,-2
1480611980575113,-4,-12,-1,-2,-2,-5,0,0
1480611980597171,1,14,-1,-6,-5,9,-3,-3
1480611980597171,-1,-6,2,3,12,1,4,4
1480611980598174,2,7,-2,-4,0,4,1,0
1480611980598174,0,0,-3,2,-2,-12,-5,0
1480611980611212,1,-6,-2,-1,-5,7,-1,-2
1480611980611212,0,0,0,-3,-4,3,-2,-1
1480611980612214,-1,-2,4,1,3,-1,-3,0
1480611980612214,0,1,-1,-1,-2,-1,1,-1
1480611980641791,0,0,-1,-1,-4,-16,-3,0
1480611980641791,1,5,2,1,4,9,1,0
1480611980642793,-1,-4,-1,-2,-2,8,1,0
1480611980642793,-1,0,-5,-4,-1,-4,-1,-1
1480611980657332,-1,2,3,2,-4,-5,-1,-1
1480611980657332,0,-2,2,-2,-5,-4,1,0
1480611980658335,0,-4,-3,0,5,7,2,0
1480611980658335,-1,2,1,0,-10,-6,-2,1
1480611980679391,2,0,-2,-2,-2,-3,3,-3
1480611980679391,-8,-14,-3,-3,10,4,0,-1
1480611980680393,1,9,2,2,-3,-5,-2,0
1480611980680393,-2,-7,-2,0,4,8,-3,2
1480611980694431,-3,0,0,-5,-15,-14,-7,-5
1480611980694431,2,1,-3,0,-9,0,1,-1
1480611980695433,0,1,0,4,17,5,-3,-1
1480611980695433,0,1,0,-3,-9,1,12,2
1480611980724510,-3,-11,-3,-6,10,1,-7,-4
1480611980724510,0,-3,-1,3,-12,0,-1,0
1480611980725012,1,-2,-3,-2,0,-8,-3,-1
1480611980725012,4,6,3,1,8,2,1,1
1480611980731028,-1,7,0,1,1,8,1,2
1480611980731028,0,-3,-1,-1,0,-2,-2,-3
1480611980732031,-5,-5,-1,-2,-7,-2,0,-1
1480611980732031,0,4,-1,-1,-5,-12,-4,-3
1480611980754591,-2,-3,-1,1,-3,-4,1,-1
1480611980754591,2,3,-1,-2,-10,7,-1,-2
1480611980755594,2,3,0,-4,11,11,4,1
1480611980755594,-13,-12,-1,0,3,-2,-3,-2
1480611980777151,1,-1,-1,1,-4,0,-1,0
1480611980777151,1,0,-2,5,-1,-12,-2,0
1480611980778153,1,2,1,-1,-8,-3,0,1
1480611980778153,6,1,0,-5,1,7,-4,-1
1480611980791188,-3,-4,-2,-1,-4,-2,0,0
1480611980791188,-3,5,3,3,7,-2,2,1
1480611980792193,0,0,1,0,4,1,-3,1
1480611980792193,2,0,-7,-5,3,3,14,4
1480611980814249,-1,0,0,-1,-2,2,-7,-8
1480611980814249,0,-4,0,5,3,-4,0,-1
1480611980815251,-5,-2,-4,-3,-9,3,-3,-2
1480611980815251,0,4,4,1,1,-7,-3,0
1480611980837310,1,-4,-1,2,1,2,3,3
1480611980837310,0,1,-1,-9,-4,0,-1,0
1480611980838313,0,-2,5,12,-5,-7,-1,-2
1480611980838313,2,1,-2,1,6,0,-4,-1
1480611980851348,1,2,-2,-3,-5,-3,3,-1
1480611980851348,1,0,-4,-4,13,12,-2,-1
1480611980851849,1,5,-1,-1,-5,-6,3,2
1480611980851849,-1,-1,1,-3,-6,0,-3,0
1480611980875913,-5,-14,-2,-1,-1,-5,-3,-1
1480611980875913,-2,2,0,-5,-8,-9,0,-2
1480611980876918,-1,-1,-4,4,3,5,1,-4
1480611980876918,0,4,4,5,8,8,2,2
1480611980896969,1,3,1,3,6,-5,-2,2
1480611980896969,-2,-3,-2,-7,-9,-1,4,5
1480611980897470,-3,-1,0,3,4,-8,-8,-11
1480611980897470,-1,0,-2,-5,-9,2,-3,-3
1480611980910508,2,5,1,3,8,-2,1,1
1480611980910508,0,0,0,10,-1,-6,0,2
1480611980919529,-3,-12,-2,-9,1,6,1,1
1480611980919529,-5,-2,-3,-2,1,9,-1,-2
1480611980934569,-2,1,-1,-3,-2,2,1,0
1480611980934569,0,2,-2,-5,-3,-4,-4,-1
1480611980936073,3,2,2,-1,-5,-8,2,3
1480611980936073,2,-2,-1,0,6,0,-4,-3
1480611980957128,0,1,-2,0,-8,1,0,1
1480611980957128,-2,-2,0,1,7,-6,0,-2
1480611980959137,-1,-1,0,-4,-3,-1,2,2
1480611980959137,-1,1,1,1,4,4,1,0
1480611980971166,0,5,2,8,5,6,0,0
1480611980971166,2,-1,-4,-3,-22,-13,-3,-1
1480611980979689,-4,-2,-5,-18,7,11,0,-1
1480611980979689,1,2,1,11,2,-3,-1,-2
1480611981001749,0,-6,-2,-1,-3,-3,-1,-1
1480611981001749,-5,-6,-2,-5,1,5,3,1
1480611981003753,-1,2,-2,7,0,-5,1,1
1480611981003753,-1,-1,-2,-8,-9,-5,-5,-3
1480611981016787,0,0,1,4,3,5,0,0
1480611981016787,3,5,0,-3,0,1,0,-2
1480611981018291,-6,-13,-1,-3,2,-7,0,0
1480611981018291,0,-6,-2,0,-1,1,-3,-1
1480611981030828,-1,0,-2,-5,-4,-1,0,0
1480611981030828,0,-1,0,-2,5,2,2,-2
1480611981046867,1,5,1,-1,-1,0,0,-2
1480611981046867,0,0,-3,3,-4,-5,0,-1
1480611981054388,-2,-3,1,-5,-2,-2,-4,-2
1480611981054388,-1,1,6,7,6,2,0,-1
1480611981061909,1,0,-3,1,-6,-3,-2,0
1480611981061909,0,-3,0,-2,-3,-4,-1,0
1480611981076950,1,2,-3,0,4,7,2,1
1480611981076950,-1,-1,-1,-4,-1,1,-3,-1
1480611981078452,1,0,1,-2,-2,-8,-1,-2
1480611981078452,1,-1,2,3,3,3,1,0
1480611981090483,-1,-3,0,2,2,2,1,-1
1480611981090483,2,0,-3,-3,0,0,-1,-2
1480611981099507,-4,0,-3,-7,-7,-2,-2,1
1480611981099507,-4,2,-3,-8,-3,-1,-3,-5
1480611981115550,1,-3,-1,-6,-3,-6,-2,2
1480611981115550,3,-6,1,2,-7,-1,-2,0
1480611981117054,-6,-3,-4,6,7,1,-2,0
1480611981117054,-2,-1,0,0,5,-2,1,1
1480611981136606,-1,1,0,-1,-2,1,0,-1
1480611981136606,1,7,1,-5,-14,-9,-2,-1
1480611981138611,2,-4,-4,-1,7,12,-1,1
1480611981138611,-1,-1,-1,-1,0,-5,1,1
1480611981166686,1,1,4,0,2,5,-3,-1
1480611981166686,-4,-3,-1,5,4,-2,1,-2
1480611981169695,0,2,2,1,-7,-3,0,-3
1480611981169695,-2,-2,1,1,3,1,1,1
1480611981174207,2,0,-2,-7,0,-9,0,-4
1480611981174207,1,0,-1,16,10,7,-2,0
1480611981176214,0,0,2,-3,-2,-4,6,1
1480611981176214,-2,-4,-4,-8,-5,-1,-2,-1
1480611981204287,-3,-3,-1,-1,-4,-6,0,0
1480611981204287,-1,3,1,-4,0,-3,0,-4
1480611981205791,3,3,1,-2,-5,-4,-4,0
1480611981205791,2,0,-2,-10,-4,0,2,0
1480611981210806,-1,1,1,13,2,2,0,0
1480611981210806,-3,-2,0,-2,3,2,-4,0
1480611981219326,2,0,0,0,-2,1,5,-1
1480611981219326,2,-1,-1,-6,-2,-3,-1,0
1480611981234366,0,3,0,-2,-3,-4,-1,0
1480611981234366,-4,-1,-3,1,3,0,1,-1
1480611981235871,-1,-1,0,-2,-6,-5,-1,-1
1480611981235871,3,-1,3,5,-2,0,1,-1
1480611981256927,-4,-1,-2,-4,-1,0,3,0
1480611981256927,0,-4,-2,2,6,6,1,1
1480611981258431,-2,0,0,4,1,-1,-2,-1
1480611981258431,-1,-3,2,2,-4,-3,-1,-1
1480611981279987,1,4,-2,0,-1,-1,2,3
1480611981279987,2,-1,-3,-7,-5,-1,-3,3
1480611981281492,0,-2,-4,1,-1,3,-5,-3
1480611981281492,-3,0,-2,1,1,-5,2,2
1480611981294527,2,-2,1,1,1,3,1,0
1480611981294527,-2,-3,0,-6,0,0,2,2
1480611981296031,1,1,1,1,-1,1,0,-2
1480611981296031,1,-1,-2,2,-6,-4,-4,0
1480611981316083,-2,0,0,3,6,-1,2,1
1480611981316083,-1,1,-2,-2,2,0,0,-2
1480611981324607,0,-1,3,-3,-4,-3,-7,-1
1480611981324607,-2,-3,-3,-2,-2,1,0,-2
1480611981330625,-1,-2,-2,-4,4,1,-1,0
1480611981330625,0,0,0,0,-6,-3,-2,0
1480611981340649,0,3,4,4,10,6,3,1
1480611981340649,-3,1,-3,-2,0,10,-2,0
1480611981354185,0,-4,-1,-3,-15,-13,-2,-3
1480611981354185,-1,-5,-5,-3,7,7,0,-1
1480611981356191,0,0,-2,-1,-2,-6,-1,1
1480611981356191,1,1,0,4,-1,-2,0,1
1480611981378250,0,1,0,-5,-3,-2,-2,-1
1480611981378250,-5,-3,1,-3,-6,-4,0,-4
1480611981380756,1,3,0,-1,-1,-4,0,-1
1480611981380756,-1,-5,2,-1,-1,3,2,-2
1480611981399307,-5,-1,-1,3,6,2,-1,-2
1480611981399307,1,-1,0,-1,0,-4,-4,0
1480611981400810,1,-1,-2,2,8,6,11,2
1480611981400810,0,1,-2,-6,-2,-1,-13,-5
1480611981414345,1,1,1,10,-1,-2,-3,1
1480611981414345,-1,-4,-4,-1,-4,-6,0,-4
1480611981415849,-2,-3,2,6,-7,-3,-1,0
1480611981415849,1,1,-1,-5,4,8,5,3
1480611981436906,0,0,-1,-3,9,8,-1,0
1480611981436906,2,3,3,2,-2,-4,0,1
1480611981438409,-3,-5,-6,-4,-13,-12,-4,0
1480611981438409,-3,-1,5,1,8,12,0,-1
1480611981459467,0,1,0,4,-3,2,0,-2
1480611981459467,0,2,0,1,2,0,4,-2
1480611981460969,-1,-3,-5,-9,-5,-6,-4,-2
1480611981460969,3,3,1,1,-2,-9,-3,-1
1480611981474505,-2,-3,-3,-3,-2,0,-3,-4
1480611981474505,0,-3,2,-2,-6,-3,-2,0
1480611981476009,-2,-4,0,3,4,3,-2,0
1480611981476009,0,3,0,3,4,2,0,2
1480611981497065,1,-5,-1,-10,2,0,5,-2
1480611981497065,1,2,-1,7,-3,-4,-2,2
1480611981498569,-2,3,-2,-3,-3,10,-4,-2
1480611981498569,-7,-3,-1,-2,-4,-9,-1,-2
1480611981527647,0,2,2,2,-4,-3,3,3
1480611981527647,-1,-2,-4,-6,-1,2,-3,-9
1480611981529151,4,1,-1,2,1,-9,-8,-3
1480611981529151,1,3,2,4,3,2,4,-1
1480611981534165,-2,-4,-3,-8,-3,3,0,2
1480611981534165,2,2,1,6,4,5,2,4
1480611981536169,-3,-1,3,-5,-14,-9,-1,-2
1480611981536169,2,-3,-1,2,12,2,-4,-1
1480611981556724,2,1,-1,0,-3,2,-2,-2
1480611981556724,-2,0,1,2,-8,-9,0,0
1480611981558731,1,2,-2,0,10,12,3,3
1480611981558731,-3,-2,-3,-1,-8,-4,2,-1
1480611981579284,-3,-4,-3,-8,-3,0,-5,-2
1480611981579284,1,1,-1,-1,0,-3,-1,2
1480611981580788,0,2,-1,0,-5,-2,0,-1
1480611981580788,-1,-2,-2,-1,0,-4,-1,-1
1480611981594324,0,1,1,2,0,2,0,-1
1480611981594324,-2,-1,-2,-6,-4,0,-3,-1
1480611981600340,-1,-1,0,0,5,0,2,0
1480611981600340,2,-7,1,1,-3,-1,1,1
1480611981624404,-1,-1,0,-2,-3,-5,-3,-2
1480611981624404,1,3,2,0,0,2,-2,0
1480611981625908,-3,-1,0,-1,1,1,3,2
1480611981625908,0,4,1,10,1,-2,-2,2
1480611981639445,-2,-2,0,-2,-2,-4,-6,-8
1480611981639445,1,0,-1,-6,4,4,1,-1
1480611981641449,0,-4,-1,0,-1,3,0,-1
1480611981641449,0,-2,-3,-3,-6,-7,2,1
1480611981653481,1,0,1,-7,-2,-2,-10,-2
1480611981653481,0,1,1,4,2,0,1,-1
1480611981669524,0,0,1,-1,-2,-2,-1,-1
1480611981669524,0,0,-2,0,3,1,0,-1
1480611981677049,-2,-3,-3,2,2,2,2,2
1480611981677049,-2,0,-4,-4,-1,-3,2,1
1480611981678548,2,-1,2,5,0,-2,-1,0
1480611981678548,-1,-3,-2,-6,-4,-2,-2,-1
1480611981699605,2,2,1,-1,-3,-2,2,2
1480611981699605,0,-2,-1,-3,0,-1,-4,1
1480611981701108,0,-3,-3,1,3,1,1,-1
1480611981701108,1,1,2,-1,1,-2,-3,-1
1480611981713642,-4,-2,-3,2,2,-1,0,0
1480611981713642,-2,-2,2,-1,-3,1,-1,-2
1480611981720661,2,4,1,-2,1,2,-1,0
1480611981720661,0,0,-1,-5,-3,-1,-2,1
1480611981736703,0,0,3,11,-1,-5,0,-1
1480611981736703,-2,-4,-6,-5,0,1,0,2
1480611981738708,0,1,0,0,-1,0,-2,-1
1480611981738708,-2,1,-1,0,1,-2,-1,-1
1480611981759766,-2,-2,-4,-2,-3,1,2,0
1480611981759766,1,1,4,2,3,0,3,1
1480611981765781,-2,-2,-1,-3,-1,2,0,-1
1480611981765781,-2,-3,-4,-3,-3,-3,-1,-1
1480611981773802,0,1,2,-2,0,4,-2,-1
1480611981773802,1,1,4,3,1,0,9,0
1480611981780820,-1,-4,-6,-2,-2,-2,-1,3
1480611981780820,-2,-3,0,3,-1,-4,-9,-5
1480611981796863,0,-1,-5,0,2,-1,2,2
1480611981796863,0,0,0,-4,-2,-1,-2,0
1480611981804383,-1,1,0,-5,-5,-1,1,1
1480611981804383,3,-2,-2,6,3,3,4,2
1480611981820425,-1,-2,1,0,6,2,-1,0
1480611981820425,0,2,-2,2,-2,3,2,0
1480611981834463,-2,-4,-4,-4,-2,-2,-2,1
1480611981834463,-3,0,-1,-5,-5,3,1,-1
1480611981834964,0,1,2,3,-1,-13,-2,0
1480611981834964,1,-2,-1,1,7,9,-1,0
1480611981840480,-1,-2,-3,3,3,0,-1,-4
1480611981840480,-1,1,1,-3,0,0,2,0
1480611981858025,0,-1,-1,-1,-5,0,1,2
1480611981858025,-1,0,0,0,0,-10,-4,0
1480611981860034,2,-1,1,1,-4,-3,-3,-2
1480611981860034,-4,-4,0,-1,-1,-5,-1,0
1480611981881087,1,-6,-7,1,4,8,4,0
1480611981881087,1,-2,0,-1,-1,1,-2,-2
1480611981894625,-2,2,0,0,1,-3,-2,0
1480611981894625,0,-1,-4,-4,-1,1,-2,-2
1480611981895126,3,2,2,-2,-4,0,2,-2
1480611981895126,0,-1,0,2,2,0,-2,-1
1480611981900640,-1,0,1,-1,2,4,0,-1
1480611981900640,0,0,2,3,-3,-2,0,1
1480611981916682,-1,0,1,-5,-3,-2,-4,-1
1480611981916682,-2,-5,-5,0,1,-2,0,-1
1480611981918687,-1,0,3,0,-8,-8,2,0
1480611981918687,0,0,0,0,9,11,4,1
1480611981939743,0,5,0,-1,2,1,-5,-2
1480611981939743,-2,-2,0,2,-5,-4,0,0
1480611981941247,-4,-3,0,2,5,1,1,-1
1480611981941247,0,-1,-1,-6,-10,-5,0,4
1480611981954283,2,1,1,2,-1,-4,-4,-6
1480611981954283,0,1,-2,-3,-3,2,-2,-1
1480611981967817,-3,-2,1,6,11,-3,0,-2
1480611981967817,2,-3,-1,-1,2,8,0,-3
1480611981976848,-1,-2,-3,-2,-1,2,5,2
1480611981976848,-2,-1,0,-1,-5,-4,-3,-4
1480611981978346,1,1,1,-3,2,4,-5,-3
1480611981978346,-3,1,1,-1,-2,-11,7,3
1480611981999401,-1,-3,-3,-1,-4,-5,-3,-1
1480611981999401,-1,-2,-2,-2,-1,3,2,0
1480611982000906,3,1,0,-4,1,5,3,1
1480611982000906,-5,0,4,6,1,-4,-1,-3
1480611982012938,0,0,2,-4,0,3,2,1
1480611982012938,1,-1,-4,-1,1,-1,1,1
1480611982021962,0,2,1,-2,-1,-2,-2,-1
1480611982021962,2,1,0,-1,-5,-2,-3,-2
1480611982044523,-4,-1,-4,-1,-9,-13,-3,-1
1480611982044523,-3,-5,0,-2,6,8,-3,-1
1480611982046025,-1,-2,-2,0,-4,-2,-1,0
1480611982046025,-2,1,-4,-1,2,1,-2,-1
1480611982059566,2,2,3,5,4,0,0,2
1480611982059566,2,1,0,-2,-7,-8,4,0
1480611982062068,1,-1,-3,-4,-2,7,-1,1
1480611982062068,1,-2,1,4,-1,-4,-4,-2
1480611982083124,0,1,4,2,7,4,1,0
1480611982083124,0,-1,0,-3,-1,-2,-3,-2
1480611982084629,-3,-2,-3,-5,-5,-1,4,-1
1480611982084629,2,3,-3,-6,-3,-4,0,-1
1480611982096660,-1,-6,-2,-2,4,0,-1,0
1480611982096660,-3,0,-2,1,-5,-2,-1,2
1480611982098666,-1,0,0,0,-4,2,3,4
1480611982098666,0,-1,-1,1,-3,-5,-7,-12
1480611982119220,-2,3,-3,-5,0,7,2,2
1480611982119220,-1,-2,-1,1,8,-3,-1,-3
1480611982125739,0,1,0,-1,-10,-11,-1,1
1480611982125739,-1,-2,-2,3,12,17,0,3
1480611982133258,-1,-4,-2,-3,-7,-4,-1,-2
1480611982133258,-1,3,2,1,-2,-1,1,-1
1480611982143787,-1,0,-1,0,1,-2,-4,-1
1480611982143787,0,1,4,-2,-6,-2,1,2
1480611982156820,-2,0,1,1,1,-4,0,-1
1480611982156820,0,-1,-3,-6,7,7,-2,-1
1480611982158324,2,-1,-2,-3,-3,-5,4,-3
1480611982158324,-3,-3,2,-3,-6,-4,-1,0
1480611982179380,0,1,1,2,1,1,0,-1
1480611982179380,0,3,-2,1,-3,-6,-2,-1
1480611982180885,0,3,0,1,-2,6,-2,-2
1480611982180885,-1,-1,-3,-2,-3,-2,5,2
1480611982192917,-2,-3,-1,-4,-5,-2,-5,-2
1480611982192917,1,-3,-2,-3,-5,-5,-1,-1
1480611982201941,-1,2,0,6,-2,-5,-1,0
1480611982201941,2,-3,-3,-4,10,4,1,2
1480611982226006,-1,-2,-2,4,-3,4,-1,0
1480611982226006,-1,2,2,2,6,3,6,-4
1480611982230517,-2,-3,-4,-3,-2,1,-3,2
1480611982230517,0,3,-1,0,-17,-24,-2,1
1480611982239540,2,-1,0,-3,18,23,4,2
1480611982239540,0,-1,0,-1,-4,-5,-3,1
1480611982241044,-1,-3,0,1,0,-6,-2,-3
1480611982241044,-1,0,-1,0,0,4,-1,-1
1480611982254079,1,0,-1,-4,-14,-6,0,0
1480611982254079,1,0,4,6,10,6,0,3
1480611982262101,-2,-3,-1,-3,-3,0,-8,-10
1480611982262101,-2,-5,-3,0,-2,-7,-3,-1
1480611982277645,-3,0,-4,-7,-5,-5,-3,-2
1480611982277645,-4,-5,-10,-1,-5,-1,0,-2
1480611982278644,-2,-3,6,3,7,1,0,3
1480611982278644,4,5,10,3,3,2,-1,0
1480611982299199,-3,-3,-10,-5,-5,5,1,-2
1480611982299199,3,4,5,3,2,-5,-2,3
1480611982300703,0,-2,-10,-4,-1,4,0,0
1480611982300703,-2,0,-1,-1,-3,-4,-4,-4
1480611982313738,0,-2,3,3,6,-5,2,1
1480611982313738,0,2,3,-2,-2,-2,-3,0
1480611982322260,-1,-2,-7,-2,-10,-12,3,1
1480611982322260,0,2,-3,1,15,21,-6,-2
1480611982336799,-1,-1,1,0,-6,-11,-2,-2
1480611982336799,-1,-3,0,-3,-7,2,-1,-3
1480611982338303,2,3,6,3,6,-4,-1,3
1480611982338303,-4,1,-7,-3,-8,2,-1,0
1480611982360364,-3,-6,3,3,10,2,-1,0
1480611982360364,-4,0,-7,0,-5,2,-2,0
1480611982361866,-2,0,3,-5,-3,-7,-2,-2
1480611982361866,0,0,0,-2,-5,-7,3,0
1480611982373398,1,3,1,3,1,5,0,-1
1480611982373398,-1,-2,0,1,1,-3,1,-2
1480611982390444,0,1,1,1,3,8,3,0
1480611982390444,-1,0,3,1,-7,-8,-1,0
1480611982396959,0,-2,-8,-5,-3,0,1,-1
1480611982396959,1,1,2,-2,-1,-1,0,0
1480611982398464,2,-1,-1,-1,6,3,-3,-1
1480611982398464,0,-2,-1,-3,-4,-2,2,0
1480611982419520,-1,4,-1,5,11,9,1,0
1480611982419520,1,-5,-1,-3,-4,-5,2,-1
1480611982423029,1,-3,-1,2,-3,1,3,3
1480611982423029,0,0,0,5,13,6,-3,-4
1480611982433055,1,0,2,-3,-10,-5,-2,-2
1480611982433055,-5,-2,-2,-1,-1,-4,-3,-1
1480611982442080,1,2,2,1,-4,3,3,-1
1480611982442080,2,0,-2,-3,2,-9,1,3
1480611982457123,0,-1,0,0,-1,-5,-3,1
1480611982457123,0,0,0,-2,0,5,0,0
1480611982458624,-4,-4,-6,-4,1,-1,-3,-1
1480611982458624,-2,6,4,6,0,0,1,0
1480611982479178,-2,-2,-1,-3,-3,-1,-2,-2
1480611982479178,-1,-7,-1,-3,-8,-5,5,0
1480611982481183,0,5,2,8,3,0,3,3
1480611982481183,-2,-8,-1,-6,7,6,-1,0
1480611982501738,1,2,2,-1,-2,-5,-2,0
1480611982501738,0,4,0,-1,-2,-5,-5,-1
1480611982503744,0,-3,0,-1,-15,-15,-1,-3
1480611982503744,1,-3,-3,0,7,18,1,0
1480611982517279,1,-2,0,2,-4,-6,2,2
1480611982517279,0,3,3,3,10,3,-1,0
1480611982530314,-1,-1,-3,0,-7,-1,-3,-3
1480611982530314,-1,2,-1,-1,-4,-7,-1,0
1480611982539338,0,-2,0,2,5,3,0,-1
1480611982539338,-4,-3,0,1,-1,5,0,-2
1480611982540843,-1,3,1,-4,5,3,-2,-1
1480611982540843,0,-2,-1,3,-7,-5,-3,-2
1480611982562400,2,3,0,-5,-4,-5,-2,0
1480611982562400,1,-2,-1,0,1,-8,2,1
1480611982563903,-3,-4,0,4,9,9,0,-1
1480611982563903,-1,-1,-2,0,-3,6,2,0
1480611982578442,-1,3,0,-2,-4,-6,0,0
1480611982578442,0,-3,-3,0,-2,-2,-3,-2
1480611982580949,-1,-2,1,1,-4,-10,-1,-1
1480611982580949,0,0,0,-3,6,6,1,0
1480611982599500,-1,0,2,2,1,2,2,0
1480611982599500,-1,-1,-2,-4,-4,4,-2,0
1480611982601002,-3,-2,-4,-4,-2,1,0,-1
1480611982601002,-1,-3,-1,2,-6,-10,1,1
1480611982622058,2,2,-1,-1,5,3,-1,-1
1480611982622058,-1,0,1,1,3,3,1,-3
1480611982623562,-2,-2,-2,-5,4,5,-4,1
1480611982623562,-4,0,2,-6,-9,-4,0,-1
1480611982636597,-3,-4,-5,-1,-1,-3,-2,0
1480611982636597,0,2,0,7,-1,-4,9,2
1480611982644619,0,3,1,0,-1,-6,-11,-3
1480611982644619,0,-2,0,-2,1,2,0,-2
1480611982659157,1,0,0,-2,2,-2,1,-1
1480611982659157,-1,0,1,6,-4,-2,-3,-1
1480611982673195,0,-5,-4,-1,6,5,3,0
1480611982673195,0,-1,1,-2,-1,1,0,0
1480611982682720,1,-2,-1,-3,-4,-3,-1,-1
1480611982682720,2,1,-5,-5,0,0,-4,0
1480611982686229,-1,7,1,1,-4,-7,1,-1
1480611982686229,0,-4,-3,3,-9,-10,-2,-1
1480611982696255,-2,-3,1,4,21,22,4,2
1480611982696255,0,-1,1,0,-4,-1,-6,-2
1480611982702773,-7,-3,-4,-2,-5,-2,-1,-1
1480611982702773,0,2,-2,0,-2,-4,-2,-1
1480611982719317,-1,-2,0,-2,-10,-9,-2,-2
1480611982719317,-1,-3,-1,-1,0,1,-2,-1
1480611982720821,3,-1,-1,4,17,9,3,-1
1480611982720821,-1,0,1,3,3,3,2,1
1480611982741879,-3,-4,-1,-7,-6,-3,0,1
1480611982741879,-1,0,-2,-5,-4,-4,0,1
1480611982743381,0,-3,-2,-3,-8,-6,-5,0
1480611982743381,-1,-2,-6,-2,2,-1,3,-3
1480611982756917,0,3,-1,2,-2,0,-1,-1
1480611982756917,-4,-1,-1,-3,1,-5,1,-2
1480611982770453,-1,1,0,2,5,3,2,-1
1480611982770453,2,-1,1,-1,1,2,-2,0
1480611982779477,1,-4,0,0,-6,-7,-2,-3
1480611982779477,0,0,-2,0,1,11,1,-1
1480611982780981,-1,-1,-1,-2,-6,-8,1,-2
1480611982780981,-2,1,-1,2,13,13,-2,1
1480611982802037,-1,2,0,-7,-4,-3,1,-3
1480611982802037,-3,-3,0,-1,-4,-12,-1,3
1480611982803541,1,1,0,1,1,9,1,-1
1480611982803541,3,3,1,6,0,-1,3,-1
1480611982824096,-2,-1,-5,-2,-6,-5,-2,-2
1480611982824096,1,-2,-2,-13,-5,5,-1,-1
1480611982826102,1,-1,4,9,5,-1,1,0
1480611982826102,0,5,2,0,3,-8,-4,0
1480611982839135,-8,-7,-4,3,-1,7,-1,1
1480611982839135,-2,-3,-2,-2,-2,-5,-3,0
1480611982841141,-1,-2,-5,-4,-8,-3,0,-2
1480611982841141,0,1,0,0,-1,0,1,1
1480611982861695,1,4,-4,-4,4,0,-8,-7
1480611982861695,0,1,1,0,-6,-2,0,-1
1480611982863701,0,3,2,1,3,-4,2,0
1480611982863701,-1,-3,-1,-2,2,1,2,1
1480611982877237,0,-1,1,3,-1,7,2,-2
1480611982877237,-3,2,-4,1,0,1,1,-1
1480611982883254,0,-1,-3,-3,-2,0,-3,-1
1480611982883254,-2,-1,4,1,-4,-4,-1,-1
1480611982899296,2,1,0,0,2,0,1,2
1480611982899296,3,0,-1,3,2,-5,0,0
1480611982900800,1,1,-1,-1,9,9,0,1
1480611982900800,0,-1,-2,0,-7,-8,-1,0
1480611982921856,-3,-4,-7,-9,-5,1,-3,-3
1480611982921856,-1,2,5,9,2,1,-1,0
1480611982923360,-3,-3,-3,-4,-6,-7,0,0
1480611982923360,-2,-5,-3,-4,-1,-4,-1,-2
1480611982951936,2,4,4,9,3,2,3,2
1480611982951936,2,6,-1,-1,4,0,-5,-1
1480611982954442,0,1,2,-5,-10,-2,7,-1
1480611982954442,-2,-11,-4,-5,-1,2,-3,-2
1480611982959456,-2,-3,1,4,4,-5,3,-1
1480611982959456,1,-4,-3,-2,1,2,1,0
1480611982960961,0,-1,-1,0,4,2,2,-1
1480611982960961,0,5,-1,0,-5,1,-3,-1
1480611982981013,0,2,-1,0,-6,-8,-2,2
1480611982981013,-3,-3,-3,-1,-4,-1,-1,-1
1480611982996054,2,0,2,-2,2,4,-2,0
1480611982996054,-5,-6,-8,-7,3,7,1,-1
1480611983004579,-1,2,3,-1,-6,-13,-1,0
1480611983004579,-2,-1,-1,4,2,-2,1,1
1480611983006080,0,0,-2,-2,-5,-3,-6,-2
1480611983006080,2,3,1,2,4,3,1,0
1480611983019114,0,4,8,4,3,0,-2,0
1480611983019114,1,-1,-4,-5,-8,-4,1,-3
1480611983021120,2,3,1,2,0,-1,-3,1
1480611983021120,0,-1,-2,-7,-2,2,4,-1
1480611983041675,-5,-5,-3,-3,0,-2,-2,-2
1480611983041675,-1,-7,-1,-2,-3,-2,-1,-1
1480611983044683,-1,-4,1,1,-2,1,-2,0
1480611983044683,-1,8,3,2,4,-2,-1,1
1480611983055712,4,-2,0,4,1,6,3,-1
1480611983055712,-2,-8,-3,-4,2,-2,-1,-2
1480611983064736,-2,3,-2,-2,3,5,1,-1
1480611983064736,-4,-10,-7,-5,-6,-6,-1,-1
1480611983080277,-1,-1,-6,-7,-6,-2,1,-2
1480611983080277,1,7,6,7,7,0,-2,0
1480611983093316,0,-2,-2,-1,-3,3,-1,0
1480611983093316,2,3,0,3,-10,-15,-3,-2
1480611983101834,-2,-2,-1,2,6,12,-3,-2
1480611983101834,-2,1,2,2,7,5,3,-3
1480611983103339,-1,-4,-10,-10,-4,-6,0,1
1480611983103339,2,3,5,5,-1,4,-1,-1
1480611983115370,-2,-4,-1,2,-6,-5,-4,0
1480611983115370,-2,1,-1,-7,-1,0,6,2
1480611983124395,-2,5,3,1,-1,-5,0,0
1480611983124395,-5,-11,-4,-1,-1,2,-1,0
1480611983140438,5,-2,0,-1,2,-6,-1,2
1480611983140438,-3,0,-4,0,-4,5,3,1
1480611983141943,1,1,-2,-2,1,2,-1,1
1480611983141943,1,5,-2,-2,4,-3,-1,-2
1480611983161996,0,1,-2,1,0,-1,-1,1
1480611983161996,0,-5,-3,-3,-4,-6,-5,1
1480611983163500,-3,-4,2,1,-4,-5,-2,-1
1480611983163500,2,6,1,-2,3,5,1,0
1480611983175534,-1,1,0,1,1,-1,1,-2
1480611983175534,-1,-2,-3,-3,-4,3,-1,-2
1480611983184555,-3,-2,-1,1,3,5,-1,-3
1480611983184555,-1,-3,-2,-4,-8,-1,-1,0
1480611983199093,0,3,-2,-15,0,-9,-2,0
1480611983199093,2,1,0,19,2,-1,-1,0
1480611983201099,0,-2,6,7,1,3,1,-1
1480611983201099,-2,-1,2,3,-4,-16,-1,-1
1480611983222154,-2,-1,-8,-7,2,10,-1,0
1480611983222154,1,1,0,-6,4,2,0,-1
1480611983224160,-1,-2,-1,-3,3,4,-3,-3
1480611983224160,0,1,1,4,-2,1,1,1
1480611983235690,-1,1,2,6,-10,-9,1,-1
1480611983235690,0,1,1,4,14,7,0,0
1480611983244715,-1,-4,-2,-3,1,-1,2,2
1480611983244715,-1,1,-1,-12,-3,4,-6,-7
1480611983259254,-2,0,2,8,-4,-3,-2,1
1480611983259254,0,0,-3,-7,-7,-6,-4,1
1480611983265770,1,-1,-1,-4,-4,3,2,1
1480611983265770,-1,2,-1,2,5,-5,-1,1
1480611983282815,0,2,0,1,-2,-2,3,0
1480611983282815,-1,-2,2,1,0,2,1,-2
1480611983285322,-2,-5,-1,0,-4,-6,-3,3
1480611983285322,-2,-5,-1,-5,-8,-5,-2,-2
1480611983295349,-1,-6,-9,3,11,2,1,3
1480611983295349,-2,4,1,-2,-2,1,1,0
1480611983310392,0,0,0,1,2,0,2,0
1480611983310392,1,-2,2,2,-1,3,-1,0
1480611983326934,1,0,1,-6,-8,-8,-2,-1
1480611983326934,2,1,-4,-7,4,6,-1,0
1480611983328438,-4,0,5,7,1,0,0,-1
1480611983328438,-1,3,-4,1,-4,-9,0,-1
1480611983341973,1,1,1,1,7,14,4,0
1480611983341973,2,-1,0,0,-3,-4,-3,-1
1480611983343483,1,-1,-4,-4,-5,-3,-2,-4
1480611983343483,-2,-2,-1,2,1,-3,0,0
1480611983355510,-1,-1,4,4,5,7,0,-4
1480611983355510,0,2,-2,0,-5,-2,1,0
1480611983364534,-2,-3,0,-3,-2,-3,-3,-2
1480611983364534,0,-1,-1,-3,-3,2,2,0
1480611983379573,-1,-1,-1,-3,-3,-10,2,-1
1480611983379573,-1,1,2,2,-1,0,-5,-4
1480611983381078,2,0,-1,-2,1,-2,-2,-2
1480611983381078,-1,-2,-6,-4,-2,-3,-3,-2
1480611983401632,-3,-3,-2,-3,-2,4,-2,-1
1480611983401632,-1,0,2,-3,-3,1,0,3
1480611983403638,-3,-4,-1,-3,-9,-3,1,0
1480611983403638,0,3,0,7,12,5,-1,0
1480611983415669,-1,-1,-1,-3,-6,-1,0,-1
1480611983415669,-3,-1,-8,-5,1,-8,-3,-3
1480611983424695,1,2,1,0,1,3,-1,1
1480611983424695,1,0,5,-2,2,8,3,1
1480611983438731,0,2,-1,-3,-3,-2,-2,-1
1480611983438731,1,-1,5,5,1,-2,0,1
1480611983445749,-1,-1,-4,-1,7,7,2,0
1480611983445749,4,3,2,3,-1,-3,2,1
1480611983469312,-6,-10,-1,2,-4,-4,-1,-3
1480611983469312,-3,-3,-4,-4,-3,-4,-1,-3
1480611983470816,-2,0,-3,-1,3,4,0,-1
1480611983470816,1,-1,2,-4,1,-3,3,1
1480611983484352,2,-1,-2,-1,4,-2,-1,-1
1480611983484352,-1,2,0,-2,-9,-5,0,0
1480611983485856,0,0,-1,-1,3,0,-1,-2
1480611983485856,-1,0,-2,-1,-3,5,-2,-1
1480611983514934,0,-2,0,2,-5,-3,0,0
1480611983514934,1,-3,6,2,6,1,0,0
1480611983521952,2,3,2,2,-1,-6,1,0
1480611983521952,-3,-5,-4,-3,-5,6,-1,-2
1480611983529472,-1,2,-3,-2,3,0,-1,-1
1480611983529472,-1,-1,-5,1,-9,-3,-2,-1
1480611983530976,1,2,2,0,1,-5,-1,-1
1480611983530976,-4,-3,0,1,-3,-4,-1,1
1480611983545516,0,0,-1,-4,11,16,0,0
1480611983545516,0,1,-3,-2,4,5,-1,2
1480611983547018,1,-2,-2,0,-4,-6,4,0
1480611983547018,-2,1,-2,-3,-4,-6,-2,0
1480611983559556,-1,0,2,1,-10,-12,3,1
1480611983559556,0,-4,-6,-1,4,2,-2,-1
1480611983561058,0,-3,0,3,2,7,-1,0
1480611983561058,1,-1,2,3,1,-2,1,1
1480611983582113,-1,3,0,0,-1,2,-2,-2
1480611983582113,-2,3,3,-2,-6,-6,1,0
1480611983583616,-3,-5,-6,-1,-3,-7,-3,-2
1480611983583616,-1,-5,-3,-4,1,6,1,-2
1480611983604171,1,3,0,-1,2,-3,-2,0
1480611983604171,-1,2,0,-5,0,3,1,1
1480611983606176,1,4,2,2,7,6,0,1
1480611983606176,0,-2,-2,-1,0,-4,1,0
1480611983619211,-2,-3,-4,-5,-8,-3,-3,-1
1480611983619211,0,-2,0,-2,-4,-3,3,-1
1480611983625729,0,1,1,-1,-9,-16,-2,-1
1480611983625729,1,2,2,3,11,17,0,1
1480611983642272,1,0,3,5,4,0,0,0
1480611983642272,2,-5,-2,1,-2,-2,-2,-2
1480611983643780,-5,0,3,-2,-5,-5,-2,0
1480611983643780,-1,0,-3,-2,-4,-9,-3,-2
1480611983664331,0,3,1,0,1,-6,-1,-2
1480611983664331,1,-6,-5,-3,5,3,1,-1
1480611983665835,2,0,-1,7,9,12,1,0
1480611983665835,-3,1,-1,1,-2,0,-1,-2
1480611983686890,2,1,2,-4,-7,2,-1,-1
1480611983686890,-3,0,1,6,2,-4,-1,0
1480611983702433,1,0,-3,-4,1,-3,-3,0
1480611983702433,0,0,2,1,0,2,1,1
1480611983703436,-2,-2,-2,0,-5,-2,0,1
1480611983703436,-1,-5,2,-3,0,-6,-2,0
1480611983704939,-1,-1,-2,0,-3,3,-5,0
1480611983704939,1,-1,-4,-2,0,-1,3,0
1480611983732011,0,2,1,-5,-4,-7,-1,1
1480611983732011,0,-4,2,3,-4,0,0,-1
1480611983733515,1,2,1,-3,11,6,4,0
1480611983733515,-1,-1,-2,-6,-3,6,-1,-1
1480611983746048,-1,2,3,1,-9,-11,0,-1
1480611983746048,-2,4,1,-3,10,17,-1,0
1480611983755575,-1,-4,-2,3,-6,-10,-2,0
1480611983755575,-1,0,-3,0,-2,-7,-2,-1
1480611983761590,-1,-2,-2,0,2,0,1,-1
1480611983761590,-1,3,3,4,-4,-2,0,1
1480611983763595,-2,-5,-1,-3,1,3,-1,-1
1480611983763595,0,2,0,-4,-3,3,-1,1
1480611983784150,-1,-4,-1,1,4,-1,-2,-1
1480611983784150,0,-1,-1,2,-1,-3,2,0
1480611983800694,1,1,0,-4,-2,-2,-1,-1
1480611983800694,-2,-3,-3,-6,-8,-10,-3,-4
1480611983801697,0,-2,-1,3,2,-4,0,-3
1480611983801697,-1,0,-4,-1,4,9,0,0
1480611983805708,-4,-1,-5,-1,-5,0,1,0
1480611983805708,0,0,2,3,2,-4,0,2
1480611983845814,1,2,1,-3,0,4,0,0
1480611983845814,3,-1,-1,-3,-2,-4,-2,0
1480611983847318,-5,0,-1,-3,-9,-6,-1,0
1480611983847318,-2,-5,0,1,3,-4,2,0
1480611983848321,-1,-1,-4,-2,15,15,2,1
1480611983848321,1,2,3,8,7,7,1,0
1480611983852833,3,-1,-3,-5,-3,-6,0,0
1480611983852833,0,-1,1,2,-4,-3,-2,-1
1480611983858849,3,-1,-2,-5,-10,-6,-2,2
1480611983858849,-1,-2,1,5,0,1,-1,-2
1480611983872886,0,-1,0,3,-3,-2,-2,-1
1480611983872886,-1,0,-4,-4,5,0,-1,-1
1480611983881408,-1,-4,1,4,6,12,-3,-2
1480611983881408,-3,1,-3,-9,-10,-9,-1,-1
1480611983887926,0,1,1,0,-1,0,2,-1
1480611983887926,0,-1,0,-4,-2,-4,0,0
1480611983905473,2,0,-1,0,0,0,-2,1
1480611983905473,1,-3,-2,-3,-5,-5,0,0
1480611983908982,0,2,3,1,1,-2,-2,-1
1480611983908982,0,-5,-3,1,2,7,-2,0
1480611983918507,-2,-5,-2,-1,-3,-3,1,-3
1480611983918507,-1,2,-1,1,1,-5,0,1
1480611983925526,-2,-3,-6,-3,2,2,0,-2
1480611983925526,1,4,2,0,-5,-6,-1,0
1480611983942070,0,0,4,2,3,4,0,0
1480611983942070,1,-3,-2,0,2,-1,-2,-1
1480611983943574,0,-3,-1,-2,3,8,1,1
1480611983943574,0,-2,-1,4,2,2,-1,-1
1480611983964129,-2,1,-1,-4,-11,-11,0,-1
1480611983964129,-1,0,0,-5,1,-2,0,-3
1480611983966134,-1,-2,1,4,3,1,0,-1
1480611983966134,-2,1,1,-1,-1,2,-2,2
1480611983978166,0,0,1,-1,1,0,-1,-1
1480611983978166,-1,0,-2,0,-4,-6,-1,0
1480611983987190,0,-2,-2,-2,-6,-8,-4,-1
1480611983987190,0,4,3,-3,2,5,0,0
1480611984000726,-2,-3,-7,-1,3,1,-1,0
1480611984000726,-2,-1,1,0,0,0,2,1
1480611984009751,0,-1,0,-3,-6,-3,-1,0
1480611984009751,-2,-3,-1,3,-2,-3,0,-1
1480611984024289,1,1,2,3,3,-3,1,1
1480611984024289,0,-2,-2,-3,2,6,1,-3
1480611984030305,2,1,2,-1,0,2,-2,-1
1480611984030305,-3,-2,2,-2,-14,-14,0,-1
1480611984037824,-2,1,-1,-1,8,10,1,-1
1480611984037824,1,-1,1,1,-3,-2,-1,1
1480611984052864,-3,-1,0,1,0,0,0,1
1480611984052864,0,-3,-2,-3,4,3,-1,0
1480611984068406,-1,-3,0,4,-3,-5,0,-2
1480611984068406,0,2,1,-4,-8,-1,-3,0
1480611984077932,0,0,-2,0,5,3,-1,-1
1480611984077932,0,-1,2,2,4,2,1,0
1480611984084448,-1,-2,0,0,-4,-9,-3,-1
1480611984084448,1,-1,-1,0,5,7,1,0
1480611984085953,-3,0,2,2,-4,-5,-1,2
1480611984085953,0,-2,-5,0,-2,-4,-4,-1
1480611984098486,0,2,1,-1,8,7,-1,2
1480611984098486,-2,1,-1,-3,-6,-8,0,0
1480611984124054,-1,-2,0,-2,-2,7,-1,0
1480611984124054,1,2,0,3,4,-3,-1,0
1480611984125057,0,1,0,-2,-5,-5,-2,-1
1480611984125057,0,-2,-2,-1,-1,-1,-2,-2
1480611984145111,0,-2,-3,-1,1,-3,0,-1
1480611984145111,-1,2,-3,-4,-2,5,1,-2
1480611984145612,0,-1,3,0,5,1,0,0
1480611984145612,0,1,3,10,2,1,0,2
1480611984147616,-1,-2,-1,-5,-1,1,0,1
1480611984147616,-1,-2,-1,-3,-3,0,-1,0
1480611984159151,0,2,0,-1,-4,-2,1,-1
1480611984159151,-2,-2,-1,-1,9,1,-2,-1
1480611984167169,2,0,-2,3,-2,-3,1,-2
1480611984167169,3,6,1,-1,-3,-1,-1,-1
1480611984181708,-2,-6,-5,-3,-7,-7,-3,-2
1480611984181708,-1,-3,0,-1,-1,-4,0,-2
1480611984205271,-1,2,1,-2,-2,10,0,-1
1480611984205271,-1,-1,-1,-1,4,0,-1,-1
1480611984205772,0,0,-3,2,0,1,0,-1
1480611984205772,0,1,2,-2,-4,-4,0,-1
1480611984207275,0,0,-6,-2,3,-2,-1,-2
1480611984207275,-4,0,2,0,2,2,1,1
1480611984217803,1,-3,0,0,-4,-3,1,2
1480611984217803,-1,1,-3,-6,-2,1,-2,-1
1480611984234348,-1,1,1,0,-4,-12,-2,-1
1480611984234348,1,0,3,4,4,12,1,0
1480611984242369,0,2,-5,-7,-7,-2,0,-1
1480611984242369,-3,-4,-3,3,10,11,-1,-1
1480611984247883,-1,-2,1,-3,1,5,0,-2
1480611984247883,0,0,-3,-3,-15,-13,-4,-4
1480611984271947,-3,-4,0,2,8,-2,4,-4
1480611984271947,0,1,1,4,-7,0,0,-1
1480611984273452,3,3,-1,-2,5,-4,0,0
1480611984273452,-3,-4,-1,-1,2,-4,-2,0
1480611984277963,0,0,-1,0,-3,7,-2,0
1480611984277963,0,0,-1,-2,-5,-7,1,1
1480611984286987,0,-2,2,1,1,2,2,1
1480611984286987,0,0,-1,-3,1,4,-2,-1
1480611984309551,-2,-1,1,4,-4,-5,-2,-1
1480611984309551,0,-3,0,-7,-4,-3,-1,-1
1480611984317068,-1,1,2,4,-3,2,-2,-2
1480611984317068,2,2,-4,-1,2,-2,0,0
1480611984331105,0,-1,0,0,-3,-2,0,-1
1480611984331105,0,1,-2,-1,1,1,-2,1
1480611984340129,-1,0,-1,-1,-2,3,-1,-1
1480611984340129,4,-2,1,2,-11,-12,0,0
1480611984363192,-2,-3,-1,0,12,10,0,0
1480611984363192,1,0,0,-2,-3,0,0,-1
1480611984364700,-5,0,-2,-3,-2,2,-2,0
1480611984364700,-1,-1,1,3,0,1,2,0
1480611984365698,3,1,-1,1,1,-6,-4,0
1480611984365698,-1,-5,-2,-6,-9,-8,2,1
1480611984399788,-1,1,1,3,2,0,0,0
1480611984399788,-1,-4,0,5,13,7,0,1
1480611984400790,-2,2,-2,-8,-7,-2,1,-2
1480611984400790,-2,-2,-2,0,7,1,1,-2
1480611984402294,-2,0,1,-4,-7,-4,0,-2
1480611984402294,-2,-1,0,2,1,3,0,-1
1480611984406806,0,0,1,0,-1,-1,-2,1
1480611984406806,1,1,-3,1,-2,-3,-1,-1
1480611984410316,-2,-6,-5,-4,-3,-5,1,1
1480611984410316,-3,0,4,0,0,1,-2,1
1480611984421846,0,2,0,2,1,-3,0,-1
1480611984421846,2,-2,-1,-4,-2,5,-2,-2
1480611984429366,1,2,0,3,4,0,0,-1
1480611984429366,0,-2,-5,2,1,2,-1,0
1480611984444406,0,-4,-3,-5,-3,-1,-1,1
1480611984444406,-2,2,-1,-1,-6,-7,-1,-1
1480611984450422,1,0,0,-2,9,4,-1,-3
1480611984450422,-3,-1,0,0,-3,-4,0,-2
1480611984474488,0,3,3,3,3,1,-2,0
1480611984474488,-1,1,-6,-1,0,-7,5,-1
1480611984475990,0,-10,0,-1,-2,7,-1,0
1480611984475990,1,2,2,2,2,-2,-2,-2
1480611984482006,-1,-4,-2,-3,-4,0,0,-2
1480611984482006,0,5,3,6,6,3,0,1
1480611984483510,-2,-5,-7,-7,-4,-4,-2,-1
1480611984483510,-2,3,0,-3,3,-1,0,0
1480611984504065,-1,0,-2,-1,-5,-6,-2,0
1480611984504065,-3,-4,0,1,-1,3,-2,-1
1480611984512087,0,0,0,4,0,-4,1,1
1480611984512087,0,-3,-3,-5,-5,3,1,-1
1480611984534145,-1,1,-1,-4,2,1,-1,0
1480611984534145,0,-1,-1,-3,-6,-3,-1,-1
1480611984541666,-2,1,-2,3,2,0,0,1
1480611984541666,-1,-1,5,9,-12,-12,-1,-1
1480611984542670,0,-1,-1,0,11,19,0,-2
1480611984542670,2,1,-2,-5,-1,0,0,0
1480611984548183,0,-1,-1,9,3,-7,-1,1
1480611984548183,-1,-2,-5,-5,1,6,0,0
1480611984564727,0,-4,-4,-9,-7,-4,0,-1
1480611984564727,-1,-5,12,17,1,1,-1,-1
1480611984566232,-1,4,-4,-10,-4,-7,-4,-3
1480611984566232,2,-2,5,16,7,2,6,-1
1480611984587788,-5,1,-5,-7,-2,0,-1,-1
1480611984587788,2,8,-1,-6,-1,2,-1,0
1480611984592806,0,-10,0,3,-1,-3,0,-1
1480611984592806,0,-1,-2,-4,5,1,-1,1
1480611984617366,-2,-1,0,-1,-2,5,1,-1
1480611984617366,-1,1,0,-2,3,-4,-1,0
1480611984624887,-1,6,-1,-4,-4,4,0,0
1480611984624887,-1,-4,-5,-10,-4,-3,-3,0
1480611984625893,0,0,2,2,-3,-5,0,-1
1480611984625893,-2,-2,-4,1,2,-1,0,0
1480611984627393,0,-1,2,-1,2,2,1,-1
1480611984627393,0,0,-1,-8,-3,-4,-4,0
1480611984646444,-2,-2,0,9,3,-5,1,-1
1480611984646444,-2,0,0,1,-10,-15,-1,-1
1480611984652961,1,0,2,3,11,15,1,1
1480611984652961,1,0,1,-1,1,11,-1,0
1480611984677025,0,-8,1,-2,-6,-5,-2,-1
1480611984677025,0,2,-3,-5,0,-1,-3,-2
1480611984678529,1,0,-1,0,-4,-8,0,-1
1480611984678529,0,-1,-5,-5,-4,-3,-3,-2
1480611984684545,0,2,2,3,2,2,3,1
1480611984684545,0,-2,0,-4,3,2,0,-1
1480611984686049,-3,-6,-1,-6,-5,-3,-3,-2
1480611984686049,-1,2,-1,-1,1,1,0,-1
1480611984714630,0,0,-1,6,-1,-3,-1,0
1480611984714630,-1,-2,-2,0,3,4,1,-1
1480611984721644,-2,3,-1,-3,-4,-6,0,0
1480611984721644,0,-3,-1,0,4,7,0,-1
1480611984722649,-1,0,-1,0,-5,-4,1,1
1480611984722649,0,-1,1,2,2,4,-1,-1
1480611984728165,2,1,-2,-5,1,-4,-1,-2
1480611984728165,0,1,0,-6,-8,-7,-2,0
1480611984744204,0,1,3,5,7,5,1,0
1480611984744204,-2,0,0,-2,1,4,0,0
1480611984752225,0,-2,2,-4,-4,-5,0,0
1480611984752225,-2,-3,-2,0,-19,-23,-3,-1
1480611984766764,-1,1,0,0,20,26,3,1
1480611984766764,0,-7,-2,-4,-4,-1,-3,-2
1480611984768769,1,11,0,4,-3,2,0,1
1480611984768769,2,-5,1,2,3,-1,3,-1
1480611984781302,-4,-9,0,-1,-7,-8,-2,-1
1480611984781302,-1,-2,0,-3,-6,0,-2,1
1480611984795842,-3,-6,-4,2,-3,-9,1,-2
1480611984795842,0,3,-2,-1,7,11,-2,1
1480611984811884,2,3,-2,-2,-4,-4,2,0
1480611984811884,2,0,-2,3,7,4,-3,-1
1480611984813388,-3,-1,-2,1,-7,-2,0,-2
1480611984813388,0,0,1,2,3,-4,-2,0
1480611984826926,0,0,-3,-3,-4,1,-3,0
1480611984826926,-2,-4,-2,0,-1,-1,0,0
1480611984828428,0,-1,0,0,2,0,-1,2
1480611984828428,-1,-2,-3,-1,0,0,-1,-3
1480611984841465,1,0,-1,-5,-3,-5,-1,0
1480611984841465,-1,3,-1,-2,-6,-7,-3,0
1480611984855500,-2,-6,0,1,7,8,8,3
1480611984855500,-2,2,3,1,9,8,0,-2
1480611984864524,0,3,1,2,-8,-6,-2,0
1480611984864524,-2,-2,-1,-2,-15,-7,2,-1
1480611984866028,1,5,2,2,12,5,-5,-3
1480611984866028,1,-3,-6,-2,-4,-1,2,2
1480611984888588,1,9,0,-1,0,-1,0,2
1480611984888588,3,-3,-1,-6,0,-4,1,-1
1480611984892603,-5,-9,-3,5,-6,1,-1,-3
1480611984892603,0,1,-1,0,-2,-4,-2,0
1480611984909647,-2,-5,-1,-1,3,-5,5,-2
1480611984909647,2,4,1,-1,6,7,-2,2
1480611984911148,2,0,-2,-6,-6,0,0,0
1480611984911148,-2,1,-1,-3,-3,2,3,-3
1480611984931702,0,-2,-1,2,3,-4,-1,0
1480611984931702,-4,2,0,-1,-1,-1,4,-1
1480611984933709,2,-1,-1,-2,0,-3,-3,1
1480611984933709,-1,-5,3,3,1,-3,-5,-2
1480611984954262,1,-1,0,-2,0,6,-1,-3
1480611984954262,-3,-4,-3,0,5,3,-3,-1
1480611984955766,-3,3,0,1,-4,-3,-2,0
1480611984955766,-1,-2,-1,-3,-5,-7,1,1
1480611984969304,1,-2,-1,-1,-1,-4,-3,-3
1480611984969304,0,2,0,1,-5,-3,1,-1
1480611984970806,0,1,0,-5,6,11,2,-2
1480611984970806,-2,0,0,7,10,2,0,0
1480611984984342,-1,-2,-1,-2,-7,0,2,1
1480611984984342,0,-6,-1,2,-1,-2,-2,0
1480611984985847,0,-1,-3,-6,-9,-5,0,0
1480611984985847,-1,-2,-1,-4,-1,0,-3,-6
1480611985006903,0,-1,-2,-1,-1,-6,-1,-3
1480611985006903,-1,1,-1,-2,-8,-8,0,0
1480611985008407,-3,1,0,3,5,5,-3,0
1480611985008407,-4,-7,1,-1,9,4,1,0
1480611985020438,-2,-1,0,3,-2,-1,-1,0
1480611985020438,-2,-3,-2,2,6,8,3,-1
1480611985029463,1,8,0,0,1,-6,-1,-1
1480611985029463,0,-8,-4,-4,-7,0,0,2
1480611985044503,-1,-6,-5,-6,-9,-7,-3,1
1480611985044503,0,-1,-1,-1,1,-2,-2,-1
1480611985046007,-1,-3,1,1,1,-2,0,-2
1480611985046007,1,9,-1,4,-5,-1,0,-3
1480611985067563,0,-1,-2,-4,2,0,0,-2
1480611985067563,2,0,1,2,7,7,-2,1
1480611985069068,-1,-5,-3,-2,-17,-14,2,-2
1480611985069068,0,-2,-1,-3,10,9,-2,0
1480611985080599,-1,4,1,2,0,3,0,1
1480611985080599,-1,3,-2,-2,-2,0,-4,1
1480611985089623,-2,2,2,-3,-3,-6,-2,0
1480611985089623,0,-1,-1,0,-4,-3,1,1
1480611985104163,1,-2,-2,2,5,8,0,-1
1480611985104163,1,2,2,2,5,4,0,-2
1480611985106166,-1,-5,-1,0,1,0,-1,-1
1480611985106166,-1,3,-1,-3,-3,-1,1,-1
1480611985142770,-1,1,0,-1,0,-2,-1,-1
1480611985142770,2,-3,-4,-3,-8,-11,0,1
1480611985144268,-2,-2,1,6,6,8,3,0
1480611985144268,0,4,-2,1,-1,7,-1,-2
1480611985144770,-4,-5,0,-1,-5,-5,-3,-1
1480611985144770,-1,0,-1,1,7,3,-1,-3
1480611985173345,2,-2,2,-4,0,3,0,0
1480611985173345,-2,-3,-1,-6,-2,-5,1,2
1480611985179362,0,0,-2,8,0,0,-3,-2
1480611985179362,-1,-1,-4,-5,-24,-16,1,-1
1480611985180866,-3,-3,-2,3,21,8,-3,-1
1480611985180866,2,5,1,0,-4,4,1,2
1480611985186881,-1,-2,2,0,-5,-8,-1,0
1480611985186881,-2,-2,-3,-4,3,0,0,1
1480611985188387,2,3,2,3,-2,3,0,3
1480611985188387,-3,-4,-3,1,0,-3,-1,0
1480611985200417,2,4,0,-5,-1,-2,-3,1
1480611985200417,-4,-3,-1,0,2,2,1,-2
1480611985209443,0,2,1,-6,-6,-4,-1,0
1480611985209443,0,-4,1,5,4,-3,-3,-1
1480611985224482,-2,1,-2,-4,-4,0,-5,0
1480611985224482,-1,0,0,-3,4,5,2,1
1480611985225990,3,3,-1,5,3,-7,1,0
1480611985225990,1,-7,-3,-7,-3,5,-2,-2
1480611985246540,-4,-1,-4,1,6,7,3,-1
1480611985246540,1,0,0,3,3,2,-5,-1
1480611985253058,-2,0,-2,-6,-9,-5,5,-2
1480611985253058,0,-1,2,-1,-4,-11,-2,-2
1480611985270103,-1,0,1,-2,-1,3,1,1
1480611985270103,-1,1,1,3,7,2,0,0
1480611985271608,0,1,-1,1,0,6,-2,-1
1480611985271608,0,3,-3,-6,2,0,-1,-2
1480611985284140,1,-6,-3,1,0,-12,-1,0
1480611985284140,-2,-6,-1,0,4,5,-1,1
1480611985286145,-2,-6,-3,-2,-6,-4,-1,0
1480611985286145,-3,8,1,2,-2,1,2,2
1480611985306700,-1,6,-2,3,2,1,0,0
1480611985306700,0,-3,1,-2,-3,-3,-2,1
1480611985309731,0,-1,-5,-3,2,1,-3,-1
1480611985309731,0,-2,-1,-4,-2,-1,1,1
1480611985320738,0,2,3,-2,-2,-5,0,-1
1480611985320738,0,-1,-2,1,-2,-6,-1,-1
1480611985329762,0,0,0,-1,1,12,0,0
1480611985329762,0,1,-2,1,1,-3,-1,-2
1480611985344300,2,0,-2,-3,-3,0,-2,-1
1480611985344300,-3,-5,1,-4,-8,-7,1,0
1480611985345804,1,0,-1,3,7,4,-4,-1
1480611985345804,-2,-1,-1,-2,-8,-8,0,-1
1480611985374381,-1,-3,-1,-2,8,5,0,-2
1480611985374381,0,2,-2,0,-4,-7,-1,-2
1480611985377890,2,-1,-1,0,-2,-1,2,1
1480611985377890,2,1,1,5,3,1,-1,0
1480611985388418,-1,0,0,-1,-7,2,-1,-1
1480611985388418,-1,-3,0,-1,7,4,0,-3
1480611985396941,-1,-1,-5,-6,-10,-8,-2,0
1480611985396941,1,-5,-4,2,-1,-1,2,0
1480611985403458,-2,3,1,2,5,3,1,1
1480611985403458,0,1,-3,1,7,8,2,1
1480611985411980,0,1,2,4,-2,-7,-2,-1
1480611985411980,0,-3,-6,-7,-5,-1,-6,-1
1480611985427021,-2,-1,1,2,-1,1,0,-1
1480611985427021,-1,0,0,1,0,2,0,-2
1480611985456598,-1,1,2,-1,0,0,0,0
1480611985456598,-2,-1,0,4,5,2,-2,-1
1480611985465622,0,-3,-1,-1,-3,-1,0,-1
1480611985465622,-1,0,-2,-1,1,1,0,2
1480611985467127,2,5,1,3,0,-3,-4,-2
1480611985467127,-1,-1,-1,-3,-4,-1,3,0
1480611985468130,-1,-8,-1,3,-1,-3,1,1
1480611985468130,-2,4,1,-3,-3,6,1,-1
1480611985472141,-3,-9,-3,-2,-17,-18,-2,0
1480611985472141,1,2,1,4,19,11,-1,0
1480611985487180,2,1,3,-3,0,12,1,-1
1480611985487180,0,2,2,4,-1,-1,0,1
1480611985493201,-3,0,-4,-4,1,2,-1,-1
1480611985493201,-2,0,0,1,-6,-7,-2,-1
1480611985509744,-1,-2,-4,-4,-2,-5,-3,0
1480611985509744,1,1,-1,-3,2,-3,-2,-2
1480611985510744,0,-3,3,2,-1,0,1,0
1480611985510744,0,-1,1,0,-3,-5,1,-1
1480611985524279,-3,1,-2,0,3,-1,-1,-1
1480611985524279,0,1,0,-2,-5,-1,-3,0
1480611985540322,-2,2,-1,-4,1,-5,1,-2
1480611985540322,0,2,0,1,-1,6,0,0
1480611985546841,1,-3,0,2,-2,-1,0,-1
1480611985546841,-1,-4,-6,-6,-5,-9,-2,-3
1480611985548346,-1,1,-1,0,0,5,-1,-1
1480611985548346,2,7,2,-3,1,3,1,1
1480611985569399,1,2,-1,0,-7,-1,1,0
1480611985569399,-4,-9,-2,1,3,-9,0,0
1480611985570903,0,-4,-2,3,9,18,2,0
1480611985570903,-1,0,-1,-2,-14,-16,-2,-3
1480611985583938,2,8,1,5,11,9,-3,0
1480611985583938,0,-5,-1,-4,-9,1,1,1
1480611985590456,-1,0,0,-3,-4,-11,-3,-1
1480611985590456,-3,-3,-3,0,4,0,1,0
1480611985606999,-3,-6,-4,-2,-5,-1,2,0
1480611985606999,0,1,0,-3,5,3,1,-1
1480611985608504,-1,-1,-1,-2,-3,0,1,-1
1480611985608504,-1,-1,-1,-2,-4,-2,-4,0
1480611985628558,-1,0,2,-2,-1,-4,1,2
1480611985628558,-1,0,0,5,3,5,-3,0
1480611985646103,-1,3,-2,-2,0,-2,-3,-2
1480611985646103,-1,-4,-4,-3,-2,-2,-2,-1
1480611985647106,2,-1,-2,-9,-5,-2,0,0
1480611985647106,2,5,3,15,5,3,-2,1
1480611985658137,-1,-3,1,2,-7,-4,-2,-2
1480611985658137,-1,0,-1,1,8,5,3,1
1480611985666658,-2,-2,0,0,8,3,-2,-3
1480611985666658,-1,0,-3,-5,-3,3,3,-1
1480611985669666,0,0,1,0,-2,-12,-3,-1
1480611985669666,1,-6,-2,-3,-4,0,-1,1
1480611985696738,-1,-3,-2,-4,-8,-2,-1,-2
1480611985696738,-1,0,-1,2,15,15,1,1
1480611985698743,0,1,-2,3,4,4,1,0
1480611985698743,-2,0,2,-4,-3,-9,-3,-1
1480611985703757,0,-3,2,1,-1,-4,-1,1
1480611985703757,0,5,2,-3,-4,0,0,-4
1480611985718295,-2,-5,-1,-4,-3,-2,0,1
1480611985718295,2,2,-2,-1,5,7,1,0
1480611985726819,-1,1,-2,2,-3,-10,-1,-1
1480611985726819,-1,0,2,0,-3,-2,-2,2
1480611985728323,0,-1,-2,2,7,10,1,0
1480611985728323,-4,1,0,1,-3,-2,0,-1
1480611985749382,-4,-2,-3,-4,-4,-6,-5,-3
1480611985749382,-2,-5,-1,-9,-13,-9,1,0
1480611985750882,1,-3,0,14,13,7,-1,1
1480611985750882,0,2,0,0,-4,-3,-3,0
1480611985763918,-1,3,-2,-3,1,9,-1,-1
1480611985763918,1,2,0,-2,4,1,-2,-1
1480611985770434,-1,-2,1,-2,-3,-5,1,-1
1480611985770434,-4,-6,-3,-5,4,7,-1,-3
1480611985786978,-1,-4,-4,2,-5,0,0,-1
1480611985786978,0,2,1,4,-6,-10,-1,-2
1480611985788482,2,12,1,-2,0,1,0,1
1480611985788482,2,-8,4,-2,0,-5,-3,0
1480611985817057,0,-3,-1,-2,1,1,-1,0
1480611985817057,-2,0,-3,-2,-2,-3,1,-2
1480611985818562,0,2,-2,-1,-2,-1,-1,0
1480611985818562,-2,-3,-4,3,2,2,1,1
1480611985823073,0,0,3,6,4,1,0,2
1480611985823073,1,1,-1,2,9,4,0,-2
1480611985832098,-2,-2,-3,-4,-5,-2,1,1
1480611985832098,2,1,-3,-4,-4,1,1,-1
1480611985847137,0,-1,-2,-2,0,-1,-2,-2
1480611985847137,0,-4,-3,-4,-4,-8,-5,0
1480611985850146,-1,-2,1,8,-1,8,3,-3
1480611985850146,0,7,0,3,-6,-11,3,2
1480611985869199,-9,-7,0,2,9,8,2,-1
1480611985869199,-1,-2,0,-9,-6,-6,-1,0
1480611985871202,1,0,-3,-4,-2,-3,-4,-1
1480611985871202,2,-7,-1,2,-3,-1,-3,-2
1480611985883736,3,9,3,1,5,2,0,0
1480611985883736,-2,-6,0,-3,0,6,1,0
1480611985891757,-3,-1,2,-3,-1,-2,1,0
1480611985891757,1,2,-2,2,5,6,-2,-1
1480611985905794,2,-1,0,-2,-7,-9,-3,-1
1480611985905794,0,-1,-1,1,0,0,0,-2
1480611985921837,1,-1,0,1,3,-6,-1,-1
1480611985921837,-2,1,3,0,-5,2,3,-2
1480611985929358,1,-1,0,-2,4,0,0,-1
1480611985929358,0,4,1,2,-3,3,0,0
1480611985930861,-1,1,0,-2,-6,-1,0,-1
1480611985930861,-2,2,3,-2,6,2,0,-2
1480611985951415,-2,-3,-3,-4,-9,-6,-2,-2
1480611985951415,3,4,-1,0,5,11,-2,0
1480611985965954,-5,-5,-2,-4,2,-7,-1,-1
1480611985965954,-1,-4,-1,3,-4,-6,1,0
1480611985974477,-1,0,0,-2,2,7,1,1
1480611985974477,0,-1,-1,0,-2,0,-2,-1
1480611985975981,0,0,-1,-7,4,5,3,-1
1480611985975981,4,2,0,6,1,-3,-2,4
1480611985996035,0,0,1,-2,-12,-9,1,-1
1480611985996035,1,-6,-5,0,4,-5,-2,-1
1480611986006562,-5,-3,0,-3,-3,4,-3,-2
1480611986006562,-2,1,0,-3,-6,-4,-1,-2
1480611986012081,2,5,-2,1,5,-4,1,2
1480611986012081,-1,-7,-3,-1,0,1,0,2
1480611986013581,4,3,0,-2,7,5,-1,2
1480611986013581,-1,-7,-3,-4,-8,-8,-6,-1
1480611986027117,-2,-1,0,-2,-2,-3,2,-2
1480611986027117,-2,3,1,3,3,10,4,-2
1480611986028622,0,-4,-1,1,1,5,3,1
1480611986028622,0,3,0,1,2,9,-1,-1
1480611986057698,1,-1,-2,1,-2,-10,-1,-1
1480611986057698,-1,-1,-2,-3,-12,-14,-1,-1
1480611986061212,0,2,0,-2,4,4,1,0
1480611986061212,-2,-8,0,-3,0,1,1,0
1480611986063213,-2,-3,-1,2,1,-1,-2,-2
1480611986063213,-2,-1,0,2,-4,-8,-1,-1
1480611986072237,0,4,-1,-1,-5,-2,-3,0
1480611986072237,-2,-3,2,0,8,14,3,-1
1480611986086775,4,-2,-1,-2,1,-1,-3,-1
1480611986086775,-5,6,4,8,0,-1,6,-2
1480611986088280,-2,-6,-3,-3,-2,-1,-3,-2
1480611986088280,1,2,-1,2,-1,-9,0,0
1480611986109336,-2,0,-1,-2,4,10,-1,0
1480611986109336,0,-6,0,-3,-10,-7,-2,-1
1480611986110842,0,2,0,-1,3,4,-6,0
1480611986110842,0,4,-2,-2,-1,-3,1,-2
1480611986131896,1,5,0,2,2,4,0,1
1480611986131896,-1,-7,-2,3,0,-5,-1,-2
1480611986133400,-2,-3,-1,-5,-9,-3,1,1
1480611986133400,-1,-1,-4,-2,5,2,1,-1
1480611986146937,1,1,-2,-1,-5,-3,-3,0
1480611986146937,0,-1,-2,-2,7,0,4,-1
1480611986148941,1,-1,2,2,-6,-3,-3,-1
1480611986148941,-2,1,0,-5,-2,-5,-2,-2
1480611986169496,-1,1,3,5,3,2,2,-3
1480611986169496,1,2,1,0,3,4,0,1
1480611986173006,2,-2,-1,1,-1,-6,-2,0
1480611986173006,-2,2,-3,-3,-4,5,6,2
1480611986183031,0,-7,-4,-6,3,4,-3,-1
1480611986183031,-4,-3,-1,-2,-3,1,-3,3
1480611986199575,-2,-4,-1,-3,0,-4,1,-1
1480611986199575,2,7,2,1,-5,-9,-3,0
1480611986206595,-3,-10,0,3,4,5,1,1
1480611986206595,1,9,2,-1,5,4,-1,-1
1480611986208600,-3,-4,-3,-1,-10,-6,-1,-3
1480611986208600,-2,-8,0,3,7,1,0,1
1480611986229156,-2,6,1,0,-9,-5,2,-2
1480611986229156,1,0,0,-5,-2,2,-3,0
1480611986231160,-1,-3,0,-1,3,-4,-2,-2
1480611986231160,-1,0,0,-4,-3,3,-1,-3
1480611986251715,0,-2,-1,-2,-3,-1,3,0
1480611986251715,-1,-1,-5,-2,3,-5,0,-1
1480611986253720,0,1,1,1,-3,9,1,0
1480611986253720,1,0,-2,2,6,1,-2,0
1480611986266755,-3,-5,-3,-3,-2,-4,-2,1
1480611986266755,-1,-4,0,0,-7,-11,-4,-1
1480611986268258,0,2,0,-1,-7,-4,1,-1
1480611986268258,0,1,3,-4,8,8,-3,-1
1480611986289314,-2,-1,2,0,11,16,-4,-2
1480611986289314,0,-1,-1,10,4,0,3,0
1480611986290822,-1,0,-4,-4,-7,-6,6,1
1480611986290822,-1,-1,-1,0,-4,-8,-2,-2
1480611986311881,1,2,-1,-6,-7,-7,-2,-1
1480611986311881,2,15,1,-2,2,3,-1,-3
1480611986317891,-2,-16,1,2,2,-2,-4,0
1480611986317891,-1,-5,-1,0,-6,-5,0,-1
1480611986334434,-1,2,1,-4,1,1,0,0
1480611986334434,-2,-1,1,-3,-6,3,-1,0
1480611986335939,2,8,1,3,4,0,-2,2
1480611986335939,-2,-4,-3,-3,-2,1,-2,-1
1480611986349976,0,-1,2,3,-1,-5,-2,0
1480611986349976,-2,-1,-1,1,-3,1,-2,-1
1480611986352984,-1,1,0,-2,6,1,-1,0
1480611986352984,1,-5,-3,1,-2,0,-1,3
1480611986378556,0,4,-3,0,-5,-8,3,-1
1480611986378556,-2,-8,-1,-2,-10,1,1,-2
1480611986389080,3,2,-1,1,18,11,-2,0
1480611986389080,-4,-2,-1,6,10,6,0,0
1480611986389582,0,2,0,-1,-14,-8,0,0
1480611986389582,0,3,0,6,7,-6,-3,0
1480611986393594,-1,-1,-1,-6,-10,-2,-3,-3
1480611986393594,-2,-4,-2,-5,-3,-2,8,0
1480611986409134,0,-3,-2,2,3,0,-4,-2
1480611986409134,-2,-1,-1,-5,-8,0,-2,0
1480611986411142,-2,-3,-1,0,2,-4,-4,-3
1480611986411142,0,1,0,1,-4,-5,-3,0
1480611986431693,-2,-6,-1,1,2,2,2,1
1480611986431693,5,-1,-1,-6,0,-1,0,1
1480611986433700,1,5,3,6,0,6,2,2
1480611986433700,0,2,0,-3,-6,-4,-3,0
1480611986446233,-2,-2,-3,1,6,-1,1,2
1480611986446233,1,-3,-3,-5,3,2,-1,-1
1480611986453251,0,3,1,-1,3,1,-1,0
1480611986453251,1,-8,-3,-1,-6,-1,0,-1
1480611986469293,-3,1,0,-1,2,4,3,-2
1480611986469293,1,2,0,-1,4,0,0,-1
1480611986482829,0,-6,0,-3,-9,-7,-1,2
1480611986482829,-5,-7,-3,0,0,-2,-2,-2
1480611986491853,1,5,0,0,-5,-6,-4,-3
1480611986491853,-2,-3,1,1,2,-2,0,1
1480611986495364,-1,1,-1,-4,-2,-8,-3,-1
1480611986495364,0,6,1,-2,-2,10,0,1
1480611986505890,0,-6,-1,1,3,1,4,0
1480611986505890,-2,-1,0,0,3,5,-4,-3
1480611986512913,0,0,-2,-7,-7,-2,1,-1
1480611986512913,1,2,1,6,4,-8,-2,-2
1480611986529461,-1,0,1,1,6,4,0,0
1480611986529461,0,-1,0,-2,-3,7,0,-1
1480611986530960,-2,0,-2,2,-1,-6,1,0
1480611986530960,-2,-4,-3,-5,-12,1,-2,-2
1480611986552013,3,1,0,-4,3,2,-3,1
1480611986552013,-2,-6,0,3,4,-9,1,-1
1480611986553517,-3,-2,-1,-1,-4,0,1,0
1480611986553517,-1,-2,-1,-4,3,0,-4,-2
1480611986566552,-2,-3,-1,3,-5,-4,2,0
1480611986566552,2,3,0,-3,-11,3,-3,-1
1480611986575075,1,2,-2,4,8,-4,-1,-1
1480611986575075,0,7,1,2,1,0,3,-3
1480611986589613,-6,-4,-1,1,-1,5,1,1
1480611986589613,1,-3,-3,-2,-5,-10,-1,-1
1480611986593124,1,3,-1,-1,2,16,0,-1
1480611986593124,1,-4,0,1,2,-11,-4,2
1480611986612178,2,-1,-1,-5,-1,8,2,0
1480611986612178,-4,-2,-1,-2,9,-3,-2,-2
1480611986613680,1,3,2,2,-5,-6,-1,-2
1480611986613680,1,3,0,0,-3,-1,-1,0
1480611986626212,0,-1,0,3,4,5,-2,-2
1480611986626212,-1,0,0,4,-5,1,1,1
1480611986632728,-3,-2,-1,-5,9,0,1,0
1480611986632728,-1,2,0,-1,-3,1,2,-1
1480611986649273,0,1,1,-3,-10,-14,-5,-1
1480611986649273,0,5,-3,-4,-2,-1,-3,-1
1480611986650776,-1,-7,-1,1,-2,1,2,2
1480611986650776,-1,-9,-1,6,3,0,-1,-2
1480611986672333,-5,-2,-4,-4,-2,0,-2,-2
1480611986672333,-1,-1,0,-2,0,-14,-3,-2
1480611986673837,-1,-1,-3,1,-4,2,-1,0
1480611986673837,1,5,2,-4,-4,1,2,0
1480611986686872,0,0,0,3,13,15,-3,0
1480611986686872,-1,-1,0,4,5,0,3,0
1480611986700408,1,3,2,-1,-6,-6,-1,-1
1480611986700408,-1,3,-2,-9,-7,-6,-1,-1
1480611986709438,-4,-8,-3,2,0,-7,0,-2
1480611986709438,-2,-3,-1,-2,-2,8,2,-1
1480611986715448,-1,-1,0,1,5,2,-2,-2
1480611986715448,4,2,0,-4,1,0,2,1
1480611986763076,3,1,4,5,-5,-4,0,1
1480611986763076,0,1,2,2,0,0,0,3
1480611986765080,-1,-3,-3,-2,1,-1,-5,0
1480611986765080,-3,-6,-1,2,-1,0,2,-2
1480611986766083,1,5,-3,-9,-8,-4,-2,1
1480611986766083,-2,-12,-3,6,6,2,2,1
1480611986771597,-1,6,-1,-2,-8,-1,-2,-3
1480611986771597,-2,4,0,1,-5,-9,5,0
1480611986772600,2,0,0,-3,9,17,1,-1
1480611986772600,0,3,0,1,0,-1,2,2
1480611986775609,-1,-4,1,1,1,-4,2,1
1480611986775609,-2,3,-5,-2,-3,-5,-4,-1
1480611986791651,-3,-2,-2,-4,-17,-13,-3,-3
1480611986791651,0,2,-1,-6,-3,5,-1,-1
1480611986799672,-2,-4,-3,-1,9,-6,-1,-1
1480611986799672,2,0,4,5,6,17,0,1
1480611986805688,3,-3,1,-2,3,-7,0,1
1480611986805688,1,3,-2,0,-7,3,-1,-3
1480611986815213,0,-6,-1,0,-1,-4,0,-3
1480611986815213,-6,-7,-2,-2,3,2,-1,0
1480611986829752,-3,3,0,-2,-5,-6,-2,0
1480611986829752,-1,-3,1,-2,-4,-4,-1,0
1480611986831256,0,3,-2,-6,-12,-12,2,-1
1480611986831256,1,3,-1,12,19,15,-4,-1
1480611986851811,0,-3,0,1,0,-3,5,1
1480611986851811,2,1,-1,-3,-3,6,-1,3
1480611986853315,0,-2,1,0,-2,1,-1,2
1480611986853315,4,3,1,-9,-10,-9,-2,0
1480611986865347,-2,-4,-3,3,4,-2,-1,-1
1480611986865347,-3,0,1,2,9,-3,-3,-2
1480611986874371,-1,-5,1,0,-4,8,-2,0
1480611986874371,-2,-4,-1,-4,-3,-2,2,1
1480611986889411,1,11,2,-3,-2,-1,-3,-2
1480611986889411,0,-6,-1,-2,-3,-4,-1,1
1480611986890915,-6,-6,-6,-1,0,-1,0,-2
1480611986890915,1,-1,0,-2,-1,-5,-1,-3
1480611986911976,1,3,-4,-2,-5,0,2,-2
1480611986911976,-2,-4,2,-1,0,1,0,-1
1480611986913475,0,2,0,4,0,-4,-1,0
1480611986913475,-1,1,-1,0,14,14,-1,1
1480611986925507,-3,-1,1,3,7,5,2,-1
1480611986925507,0,-4,-3,-3,-8,-5,0,-1
1480611986934531,2,1,1,2,1,-1,4,1
1480611986934531,-4,-4,-4,0,-9,-6,-3,0
1480611986949069,-1,-2,0,-3,-2,-13,-5,-1
1480611986949069,3,2,0,0,-2,-1,4,3
1480611986951076,-1,6,2,-1,0,10,-1,0
1480611986951076,0,-6,-2,-2,2,6,2,0
1480611986978651,0,3,-3,5,3,1,1,1
1480611986978651,-3,-6,1,-3,2,0,-1,0
1480611986996700,0,6,-2,-3,-4,-8,-3,0
1480611986996700,-8,-10,-2,-4,-11,-8,-5,-3
1480611986997198,2,0,0,-6,3,-4,-3,0
1480611986997198,3,1,-1,9,2,4,0,1
1480611987000707,-2,3,1,1,-6,-4,-1,-1
1480611987000707,2,3,-2,2,12,11,1,-1
1480611987023267,2,-5,-2,-4,-5,-2,1,0
1480611987023267,0,4,1,-2,-2,-3,1,1
1480611987033795,1,-5,-1,0,-1,-5,-1,-1
1480611987033795,-1,1,0,0,-2,-5,0,0
1480611987034797,-2,-5,-1,-2,-3,7,1,0
1480611987034797,0,7,0,-2,4,1,-6,-5
1480611987037806,-1,-6,-3,4,6,4,0,0
1480611987037806,1,3,-1,0,-6,-11,0,0
1480611987045832,0,1,2,-4,-4,2,-1,0
1480611987045832,0,1,-2,-1,6,-7,0,-2
1480611987068390,-1,-12,0,7,1,15,4,0
1480611987068390,-1,1,-2,0,2,3,-1,1
1480611987076913,-3,-7,-2,1,-5,-8,-1,0
1480611987076913,-3,3,-4,-7,-6,-1,-1,1
1480611987078417,0,4,-2,-6,2,-3,-1,-2
1480611987078417,2,2,3,0,-1,-1,1,0
1480611987092953,-2,-2,-1,-1,-13,-13,-1,0
1480611987092953,3,6,1,-1,5,5,0,-2
1480611987095463,0,-3,1,0,7,4,1,2
1480611987095463,2,-6,1,3,-4,2,0,-1
1480611987105987,0,1,-2,1,-1,-2,-2,0
1480611987105987,-1,-6,-4,-1,-6,-8,-4,-1
1480611987114510,-2,-3,-1,-8,-4,-8,-3,-1
1480611987114510,-1,2,0,0,3,3,5,-1
1480611987129552,1,4,4,6,2,3,2,0
1480611987129552,-1,-8,1,-1,0,-5,6,-2
1480611987131054,1,3,1,0,4,10,-3,-1
1480611987131054,-4,3,-2,-5,-9,-8,-3,-1
1480611987152612,-3,-6,-1,-2,8,2,-1,1
1480611987152612,-7,-7,-5,1,-6,3,3,0
1480611987154115,0,1,-3,-2,-4,-8,-1,-3
1480611987154115,6,8,1,1,4,1,0,0
1480611987165646,0,1,2,4,-3,4,0,1
1480611987165646,-3,1,0,-4,1,0,-3,-1
1480611987176174,0,-6,-1,-4,-4,-8,0,1
1480611987176174,2,0,-1,0,-2,-2,-1,2
1480611987190713,-1,0,-3,-5,0,1,-3,-2
1480611987190713,0,-2,-1,6,-2,-9,-2,0
1480611987195728,0,6,-1,0,2,7,0,0
1480611987195728,-1,-2,-1,5,4,0,-2,-1
1480611987220291,-2,-4,-3,-4,-7,-5,0,-2
1480611987220291,0,-1,0,-2,4,7,-2,0
1480611987222296,1,2,-1,-5,-10,10,1,0
1480611987222296,-1,3,-1,4,12,-6,-4,-1
1480611987225305,0,-4,0,1,-5,-4,8,0
1480611987225305,0,3,-2,0,-5,2,-5,-2
1480611987234329,-8,-8,-4,0,1,0,-1,-3
1480611987234329,-3,4,2,0,-3,-4,-2,0
1480611987248366,0,-2,-2,1,1,-1,-3,-1
1480611987248366,3,4,-1,-7,5,10,2,1
1480611987272931,1,1,0,2,0,-3,1,0
1480611987272931,-8,-6,-2,-8,-9,-4,0,0
1480611987273934,0,1,0,10,4,-5,-3,-2
1480611987273934,0,-1,0,-3,0,-4,2,-1
1480611987277948,2,2,2,0,2,1,-2,0
1480611987277948,3,-2,-2,-3,-9,2,-2,1
1480611987293992,-1,0,-2,-3,4,13,-3,-1
1480611987293992,2,2,-1,5,-2,-6,7,1
1480611987300504,-1,1,-1,2,12,2,0,0
1480611987300504,-1,-5,1,-1,-4,-6,0,-1
1480611987309528,0,1,-1,-5,0,-1,-2,-2
1480611987309528,-2,-9,-1,-1,-7,0,-3,-1
1480611987311033,1,3,-2,-2,-10,-14,-1,-2
1480611987311033,4,-4,0,2,8,6,2,2
1480611987340617,-4,-2,-1,-5,1,4,3,-1
1480611987340617,-1,-2,1,5,-13,-20,-4,-3
1480611987343119,-3,-3,-2,-2,9,15,0,-3
1480611987343119,0,1,-1,-5,-5,-10,0,-2
1480611987354147,2,1,-1,-2,-1,-2,3,1
1480611987354147,-1,3,2,-1,-1,1,-2,0
1480611987356153,-1,-4,-2,-1,-2,-5,2,3
1480611987356153,0,0,-1,2,2,0,-1,-3
1480611987369187,0,-2,0,-5,-2,-9,-1,2
1480611987369187,-3,-4,-3,0,-1,5,-4,-1
1480611987370691,0,-1,-1,2,-3,0,1,-1
1480611987370691,-1,-4,-3,-2,5,8,-2,-1
1480611987391747,3,3,-3,1,-5,-1,3,-1
1480611987391747,0,-1,1,-4,2,1,-2,0
1480611987397764,0,5,3,3,8,-2,-1,-1
1480611987397764,-3,-7,-3,-1,-7,-3,0,2
1480611987414309,-2,-2,0,1,2,4,-3,0
1480611987414309,-7,2,-4,-2,-3,-4,-2,-2
1480611987415812,1,-1,0,-3,-2,10,-1,-2
1480611987415812,0,5,0,-3,-4,-5,2,1
1480611987428847,-1,2,-1,-2,-8,-12,-2,0
1480611987428847,1,-9,-2,-2,11,15,-2,-1
1480611987442883,3,1,0,3,0,-8,5,2
1480611987442883,-3,-6,1,1,1,1,-4,-1
1480611987451911,0,-2,-2,3,0,4,-3,0
1480611987451911,-3,1,-2,-3,-4,-7,2,1
1480611987453411,-1,0,-1,-7,-4,-5,-2,-1
1480611987453411,0,1,-2,9,-2,3,0,-1
1480611987474970,-7,-1,1,-3,4,-8,-2,-2
1480611987474970,-2,-2,0,-2,-1,4,2,0
1480611987499038,2,1,2,1,0,1,0,1
1480611987499038,-1,-2,0,-2,-4,-4,1,0
1480611987500036,2,5,1,6,14,9,-1,-2
1480611987500036,-2,-3,0,5,3,7,-2,0
1480611987503044,-1,-8,-5,-4,-11,-6,-2,-1
1480611987503044,2,0,2,0,-3,-10,0,-1
1480611987511565,-1,0,2,0,0,-2,-2,0
1480611987511565,3,4,1,3,7,-1,-1,1
1480611987513572,0,0,-2,2,-6,1,-2,-1
1480611987513572,0,2,-1,-5,2,5,-1,1
1480611987541646,-2,-6,-4,-4,-2,0,-1,1
1480611987541646,1,4,-1,-2,-1,-1,-2,-1
1480611987548665,-1,0,0,0,-5,-10,-1,0
1480611987548665,-1,0,-1,-2,0,-2,-2,-1
1480611987549668,3,0,2,0,0,4,-3,-1
1480611987549668,-2,-4,-1,4,-5,-3,1,-2
1480611987557188,1,-1,-2,-5,-4,-6,-2,0
1480611987557188,1,1,0,7,11,2,-1,-1
1480611987572228,-1,-3,-1,-4,0,9,2,0
1480611987572228,2,4,2,1,1,0,0,-2
1480611987577741,-6,0,-1,0,3,3,-2,-1
1480611987577741,-2,0,-1,-4,-6,-4,-1,0
1480611987594288,1,-2,-1,-2,-7,-2,1,1
1480611987594288,-3,-10,1,0,14,14,-1,0
1480611987595791,1,4,-2,-1,-5,-10,-2,-1
1480611987595791,-5,-3,0,-2,-6,1,0,-1
1480611987608827,4,3,-1,-3,-3,-5,-2,-1
1480611987608827,2,6,-1,-3,-1,5,-2,1
1480611987615342,-4,-3,-2,0,1,-6,0,-2
1480611987615342,0,-1,-1,-1,-7,-3,0,-1
1480611987631886,-1,-2,0,6,10,10,7,0
1480611987631886,-3,-2,-1,-4,-9,-13,-2,-1
1480611987633390,-2,-6,0,0,3,6,-2,-1
1480611987633390,3,4,-1,-4,-7,-9,-2,-1
1480611987663471,1,0,-1,1,3,-2,3,1
1480611987663471,1,2,0,-2,3,1,0,2
1480611987666980,-2,-5,-1,4,0,1,-2,-1
1480611987666980,-1,1,-3,-5,-1,3,-1,-1
1480611987669988,-3,-3,0,0,-1,-4,-3,-3
1480611987669988,3,0,-2,-3,-4,-5,-2,-1
1480611987684526,1,-5,0,-5,1,1,-2,1
1480611987684526,2,-1,-2,1,-1,8,0,2
1480611987692050,-3,0,-3,-1,-3,-14,-3,-2
1480611987692050,3,4,-1,4,-2,3,2,0
1480611987693552,-1,1,-1,-2,-3,2,3,-2
1480611987693552,0,-3,2,7,10,-4,-1,-1
1480611987714105,2,3,-3,-2,-8,-10,-3,0
1480611987714105,-2,-1,0,-3,-3,3,-1,-1
1480611987716110,1,1,-1,0,0,3,-2,-1
1480611987716110,-1,-2,-3,-2,-6,-8,3,0
1480611987728144,-5,-3,1,-3,10,12,-4,0
1480611987728144,-2,0,-1,4,-3,-3,1,1
1480611987737168,4,0,1,0,-1,-3,-3,1
1480611987737168,-2,2,-1,0,-1,0,6,-1
1480611987751704,-4,-3,-4,0,-7,-7,-2,-2
1480611987751704,-2,-4,-1,-8,1,5,0,-2
1480611987753209,-2,-4,1,10,3,6,1,0
1480611987753209,2,0,1,-3,0,-2,-1,0
1480611987774266,-3,4,-1,0,-3,2,0,-1
1480611987774266,-1,4,1,-2,0,-8,1,-2
1480611987776274,-2,3,-4,-4,1,-4,-1,0
1480611987776274,-1,-12,-3,1,5,8,-1,-1
1480611987788302,-4,-3,-2,-2,3,3,0,-1
1480611987788302,1,1,-3,-2,-9,-8,-3,-1
1480611987796825,3,6,2,-1,-2,-3,-2,0
1480611987796825,-3,-1,-2,-2,1,-6,-1,0
1480611987811363,5,-2,-1,-4,-6,11,-2,-2
1480611987811363,-2,-2,0,-2,1,-8,-4,-1
1480611987817880,-1,-1,0,-1,5,4,6,-1
1480611987817880,1,9,2,4,2,3,0,0
1480611987834425,-5,-14,-1,3,-4,-6,-1,0
1480611987834425,1,-2,-4,-2,-1,-4,2,-1
1480611987835928,1,0,1,-4,-6,1,-3,-4
1480611987835928,-1,1,0,-2,-1,4,-1,1
1480611987847962,5,9,2,-2,5,-8,-2,1
1480611987847962,-1,-6,0,3,6,14,2,2
1480611987856985,-3,-8,-3,-4,-3,-8,2,-1
1480611987856985,-1,2,0,1,2,8,1,-1
1480611987872025,0,-2,1,1,-4,1,2,-1
1480611987872025,1,0,0,-1,-3,-5,-3,-1
1480611987874030,-1,0,2,1,2,-3,-1,-1
1480611987874030,-1,1,-2,-2,-1,7,-2,0
1480611987894591,0,0,-2,0,1,-1,3,0
1480611987894591,1,0,-2,-2,-3,-3,0,-3
1480611987896596,-1,-1,-2,0,-2,3,-3,-1
1480611987896596,-3,-4,1,-2,-7,-8,-4,0
1480611987908126,-1,3,-3,-1,2,2,-2,0
1480611987908126,3,-7,2,6,7,2,0,1
1480611987917150,2,0,-2,-4,-4,-4,-1,1
1480611987917150,-4,-3,1,-2,3,0,-1,-3
1480611987939209,-2,0,3,5,-7,1,-1,0
1480611987939209,3,6,-2,0,-5,0,-2,0
1480611987942222,-3,-7,-4,2,6,-2,5,-1
1480611987942222,0,3,0,-4,0,1,-1,0
1480611987954249,0,0,2,0,-3,-5,3,2
1480611987954249,-4,-2,-2,-2,-4,5,-2,-1
1480611987955753,-3,0,-1,1,-3,-4,1,1
1480611987955753,2,-3,-1,0,1,0,0,-2
1480611987968790,0,-2,-2,-2,-13,-16,-1,-1
1480611987968790,1,-2,2,-2,9,11,1,-1
1480611987977812,1,2,-1,-2,4,9,-1,-1
1480611987977812,-3,-1,1,5,-2,-6,-2,-2
1480611987991850,2,-2,-3,-4,-1,2,0,-1
1480611987991850,2,1,1,0,-4,-10,-2,0
1480611987993353,1,1,0,3,1,4,-3,-1
1480611987993353,-2,-7,-3,0,-1,-3,-2,1
1480611988014910,-6,0,-3,-2,0,1,-1,-4
1480611988014910,-3,1,-1,2,0,-1,1,-1
1480611988020425,1,3,-6,-6,-2,3,-1,-2
1480611988020425,1,-1,2,-2,-5,-4,0,0
1480611988027945,2,1,8,5,2,0,-1,-1
1480611988027945,-2,-2,-2,-1,-3,-1,0,-2
1480611988044489,1,-1,2,2,4,-3,0,1
1480611988044489,1,-1,-6,-6,-1,1,1,0
1480611988052009,0,-1,-2,-6,0,1,-1,1
1480611988052009,-4,-1,1,0,0,-4,-3,0
1480611988058025,-2,0,-2,2,-1,-1,-2,-1
1480611988058025,-2,0,-1,-2,2,0,1,1
1480611988074069,1,-2,-1,-3,1,1,-1,0
1480611988074069,-4,-3,-2,5,-9,-2,-1,0
1480611988076074,-2,2,2,0,8,-1,2,1
1480611988076074,-2,0,1,-1,-2,-4,-4,-2
1480611988096628,2,3,-1,-2,0,4,-1,2
1480611988096628,0,3,-2,-2,3,-2,-1,-2
1480611988098633,2,-4,3,0,-14,-10,-2,0
1480611988098633,5,2,3,5,6,8,3,0
1480611988111667,-1,-11,-4,-8,0,2,3,-2
1480611988111667,-2,-4,-2,0,2,-1,-3,-2
1480611988113674,1,1,-4,-1,-3,-1,7,0
1480611988113674,-2,5,3,0,-3,-5,-2,-2
1480611988134227,-4,-2,0,5,1,2,-3,0
1480611988134227,0,0,-2,1,0,0,0,-2
1480611988136735,-2,-2,1,3,-1,-1,-3,0
1480611988136735,-2,0,-6,-7,-6,-4,-1,-3
1480611988148264,0,1,1,6,6,2,1,2
1480611988148264,-2,-3,-2,-4,-12,-13,0,0
1480611988173331,2,2,-1,-5,8,13,-1,-1
1480611988173331,-1,-4,0,-3,-3,-2,0,-2
1480611988173833,-2,0,1,1,-2,0,-1,-2
1480611988173833,2,-2,-2,1,2,-2,0,-1
1480611988175841,0,0,-3,-1,-12,-10,-2,-1
1480611988175841,0,3,-2,0,2,1,0,1
1480611988194388,0,1,0,0,3,5,1,0
1480611988194388,0,-1,0,-8,-7,0,3,-1
1480611988195892,0,-2,0,2,-2,-2,-2,-1
1480611988195892,-6,-15,0,9,12,7,-2,0
1480611988217450,2,5,-2,-3,-9,-13,-5,-2
1480611988217450,-1,4,1,-1,2,12,-1,0
1480611988218953,0,3,-1,-2,4,2,-3,0
1480611988218953,-1,2,0,-5,-3,-7,-1,0
1480611988231988,2,0,2,-1,1,-1,-4,-2
1480611988231988,-1,2,1,1,0,-2,-1,0
1480611988233492,-2,-4,-5,-6,-10,-10,-3,0
1480611988233492,0,-4,-1,1,3,12,-1,-1
1480611988253544,1,1,-2,-1,9,2,2,1
1480611988253544,0,1,2,-1,-2,-2,-2,0
1480611988263072,-1,-2,3,3,3,4,-2,-1
1480611988263072,0,1,-4,-2,-5,-7,0,-1
1480611988284126,0,-1,-2,0,-1,3,-2,-3
1480611988284126,-1,-2,-3,0,4,2,1,1
1480611988286132,-4,2,1,-5,-4,-5,-2,-1
1480611988286132,-1,-4,-2,1,-6,0,2,-1
1480611988292150,2,4,0,2,0,-1,1,1
1480611988292150,-2,-8,-1,-1,1,-6,-1,-1
1480611988293653,0,8,-2,-1,-4,-2,-1,-2
1480611988293653,-2,-12,-1,-4,4,0,-1,0
1480611988320724,-2,1,-3,-2,-7,2,-1,0
1480611988320724,3,3,1,1,3,-3,-2,1
1480611988329748,-1,-2,2,0,-6,4,2,1
1480611988329748,0,5,1,0,5,-4,1,1
1480611988336767,-1,-2,1,-1,1,1,0,2
1480611988336767,-1,-2,-5,-1,-5,-2,5,-1
1480611988338271,-1,-1,-2,1,2,-2,-4,-1
1480611988338271,2,2,-2,1,-4,4,-1,-2
1480611988359327,-4,1,2,-1,6,3,0,0
1480611988359327,-2,-1,0,-4,-4,-6,2,-1
1480611988361451,-4,-7,-1,5,8,3,1,-2
1480611988361451,4,2,-1,-1,-1,5,1,0
1480611988375873,0,-1,-2,-3,-5,-6,-1,-3
1480611988375873,-2,-6,-2,-3,1,2,-7,-2
1480611988379380,0,-2,1,-1,-5,-2,5,0
1480611988379380,3,12,1,-3,-3,-5,-2,1
1480611988396927,-6,-14,-4,9,-3,-1,-2,0
1480611988396927,-1,4,2,5,4,-8,-1,1
1480611988398431,2,-2,-1,-5,2,14,1,0
1480611988398431,-2,0,0,0,0,-2,-1,-1
1480611988410964,3,7,1,-5,-8,-4,0,-1
1480611988410964,-1,-4,-2,1,-5,-5,-2,0
1480611988417982,1,3,0,3,11,0,-1,0
1480611988417982,0,2,-1,0,-5,6,-1,-2
1480611988434527,3,-1,-2,-8,-4,-12,-3,-2
1480611988434527,-4,-4,2,2,-11,-7,6,-2
1480611988440542,-1,0,2,-3,6,10,-2,-3
1480611988440542,-3,-6,-3,-4,3,-1,-1,-3
1480611988456585,0,-2,-2,3,2,-2,-2,1
1480611988456585,1,0,-3,-2,-5,1,0,2
1480611988458593,-1,-2,-3,-3,-4,-6,1,-1
1480611988458593,-1,-1,1,1,-5,-6,-2,-1
1480611988471625,0,1,-1,3,7,5,1,-1
1480611988471625,0,6,0,-3,4,9,-1,-1
1480611988479647,-3,-1,-1,5,-1,-3,-1,0
1480611988479647,0,-3,-3,-6,-4,-3,-2,1
1480611988495689,1,4,1,6,2,2,1,0
1480611988495689,2,3,2,0,3,4,-4,0
1480611988497194,-4,-9,-3,-4,-5,-8,-1,0
1480611988497194,-3,-9,-3,-4,-2,-2,-2,-1
1480611988516746,-2,0,-1,-3,-4,-5,0,1
1480611988516746,2,2,-2,-2,-6,2,-2,0
1480611988518751,5,5,4,4,12,2,-1,2
1480611988518751,-2,2,0,3,-1,-10,2,0
1480611988531284,-2,-2,0,-5,-8,9,-2,1
1480611988531284,-1,5,1,0,12,6,4,0
1480611988553342,-5,-10,-2,-1,-9,-4,0,0
1480611988553342,2,-2,0,0,3,-5,-2,0
1480611988562367,-1,-5,-5,-5,-1,2,-1,-3
1480611988562367,1,0,2,3,-4,-8,0,-1
1480611988563871,-1,6,-2,-2,5,10,0,0
1480611988563871,-2,-6,2,-1,6,3,0,-2
1480611988576906,0,0,0,1,-5,-6,-2,-2
1480611988576906,-1,-1,-2,-2,3,4,-3,2
1480611988578411,0,-4,-3,0,-2,-4,7,-1
1480611988578411,1,9,1,-1,-8,3,-3,-1
1480611988590943,-10,-10,-1,-1,7,-2,-3,0
1480611988590943,-1,-4,-1,3,1,-7,-2,-1
1480611988606986,1,-2,0,-2,-3,9,0,0
1480611988606986,2,0,-1,-3,-5,-2,1,-1
1480611988614506,6,5,2,8,2,-1,0,-1
1480611988614506,-3,3,2,-1,1,-1,-4,-2
1480611988616014,2,-5,0,-1,-3,-6,-5,-1
1480611988616014,-2,4,1,-4,2,4,1,0
1480611988637065,-2,-4,-2,-2,-4,0,-1,-1
1480611988637065,-2,-6,-2,-2,-4,4,3,-2
1480611988643082,1,5,0,0,6,-5,-2,-1
1480611988643082,2,0,-2,1,-4,-3,0,0
1480611988659125,2,-1,0,-6,-3,-1,3,0
1480611988659125,-1,0,0,1,2,1,-2,0
1480611988667146,-2,3,2,-6,-5,-4,-2,-1
1480611988667146,1,3,1,3,12,15,-1,0
1480611988675169,3,4,-2,1,2,-3,3,1
1480611988675169,-6,-14,-4,-4,-6,-1,-2,-2
1480611988678175,-1,0,-2,-2,-5,-4,2,-1
1480611988678175,-4,-5,1,6,-9,-12,-2,-2
1480611988696724,4,8,1,4,11,7,2,0
1480611988696724,2,-2,1,0,2,8,0,-1
1480611988698729,-2,-1,-3,-3,-6,-7,-4,-3
1480611988698729,1,-1,-3,-3,-7,-4,-2,0
1480611988719284,1,2,-1,-7,-5,-4,0,-1
1480611988719284,0,-5,0,8,5,-3,2,1
1480611988720788,-3,-2,-3,5,4,9,0,1
1480611988720788,-5,1,-4,1,0,2,1,1
1480611988734325,-2,-1,-2,-2,3,0,-2,-2
1480611988734325,0,7,-1,-5,-1,-4,-1,-2
1480611988735828,3,-7,0,-3,-7,-7,-3,1
1480611988735828,-1,-3,1,1,-5,-5,1,0
1480611988757888,0,-3,2,-3,4,0,-3,1
1480611988757888,4,6,2,3,1,11,1,1
1480611988771424,3,4,2,1,0,-4,-2,-1
1480611988771424,-7,-6,1,-1,-11,-14,0,-2
1480611988772927,-4,-4,-2,-7,-1,5,-2,-5
1480611988772927,1,-2,-2,-4,6,4,-1,0
1480611988785460,-1,3,-1,2,0,-2,-2,-2
1480611988785460,1,0,-3,-3,-5,-2,3,0
1480611988794484,-2,2,0,4,-3,-9,-2,-2
1480611988794484,-2,-1,0,0,2,4,-1,0
1480611988795988,-1,-1,-1,-5,0,3,2,1
1480611988795988,3,0,0,1,8,9,1,1
1480611988831082,-1,0,0,5,-1,-1,0,0
1480611988831082,1,-4,0,-3,-5,-7,-1,-1
1480611988841611,1,0,0,-4,-3,-3,-2,-2
1480611988841611,-4,-5,0,11,4,0,-1,-2
1480611988842113,-2,1,-2,-1,-2,-2,1,-1
1480611988842113,0,3,-1,-4,-4,-3,-2,-1
1480611988845621,2,-1,1,4,4,3,2,0
1480611988845621,1,2,-2,-7,0,3,-2,-1
1480611988853642,-3,-5,-1,2,-3,-7,1,2
1480611988853642,-1,0,-2,-1,3,7,1,-2
1480611988869183,-2,-7,-2,-3,-1,-4,-1,1
1480611988869183,5,10,0,-3,3,0,-3,-3
1480611988884223,-1,-8,-1,-3,-1,-1,-1,-3
1480611988884223,-5,-3,2,-4,-10,1,0,-2
1480611988885727,-2,-1,2,8,17,5,1,2
1480611988885727,1,2,1,-4,-6,-5,2,1
1480611988890239,1,9,1,0,-1,-5,-1,0
1480611988890239,-1,-7,-2,-1,-3,-1,-1,-1
1480611988899764,1,-4,-3,-1,-3,-8,-3,-1
1480611988899764,-6,0,-1,-5,-1,2,-4,-1
1480611988914804,-2,-2,-4,-3,-2,6,1,0
1480611988914804,3,2,0,1,4,-4,2,0
1480611988916810,-2,1,0,-3,-6,-3,-1,-1
1480611988916810,0,-6,-1,2,7,4,3,0
1480611988936863,-1,0,2,-4,-4,0,-1,0
1480611988936863,-1,2,0,2,-3,-2,1,4
1480611988938369,0,3,0,1,-2,-3,-1,-2
1480611988938369,1,2,-1,1,3,4,2,1
1480611988950399,-5,-10,0,-3,2,0,0,1
1480611988950399,-2,-5,-6,-4,-3,-7,-3,-1
1480611988959423,-1,0,-2,-2,-7,-3,-1,-1
1480611988959423,1,0,0,3,3,-2,-2,1
1480611988973964,2,2,0,0,-3,-1,-1,-2
1480611988973964,0,0,0,0,2,6,-1,0
1480611988980484,-4,3,-2,0,1,-10,1,-2
1480611988980484,0,-1,0,0,0,19,-3,-1
1480611989004544,1,-1,0,0,-2,-3,10,1
1480611989004544,-2,0,-1,0,-2,-10,-3,-3
1480611989006048,1,-5,0,-2,-1,6,0,-1
1480611989006048,-3,2,-3,-1,1,-4,-4,-1
1480611989010560,-1,0,-3,-1,-3,-3,-4,-1
1480611989010560,4,0,-2,0,-2,1,-2,-1
1480611989019583,-3,-1,-1,-5,-3,-5,-1,1
1480611989019583,-1,-4,-1,-1,0,-3,-1,-3
1480611989034122,-1,-1,2,4,-3,4,-2,0
1480611989034122,2,6,1,-2,5,1,5,-1
1480611989036128,-4,-5,0,4,2,5,0,0
1480611989036128,0,-3,0,-6,-6,-4,-2,-2
1480611989072724,-1,-4,-1,-1,-1,-3,-1,-2
1480611989072724,-1,2,0,-1,-4,0,-4,1
1480611989074229,-1,3,-1,1,1,3,2,1
1480611989074229,0,-3,-1,0,0,-3,0,0
1480611989075735,2,1,-3,-1,-8,-11,-1,1
1480611989075735,-1,-2,0,-1,6,7,-1,0
1480611989079745,1,5,4,-1,-4,-8,-1,0
1480611989079745,0,-4,0,1,7,0,-12,-1
1480611989094283,0,-3,-1,0,1,9,2,1
1480611989094283,0,2,0,-2,0,9,17,4
1480611989096788,0,-2,-2,-1,-4,12,10,5
1480611989096788,-9,-6,-2,-3,-5,-14,-9,-12
1480611989116841,2,2,1,-1,2,1,-8,-1
1480611989116841,-5,-4,0,1,1,-9,-6,-3
1480611989118348,1,3,-1,0,4,4,-3,0
1480611989118348,1,-3,0,1,-4,1,3,4
1480611989162965,-2,3,-2,2,2,3,1,1
1480611989162965,0,-2,-3,-5,-4,-5,-3,-3
1480611989164971,-4,-6,1,2,-4,-5,-3,-3
1480611989164971,1,2,-1,-2,-4,-2,2,0
1480611989165471,0,-2,-2,-10,-6,-4,-1,-2
1480611989165471,2,-1,2,8,4,-1,0,1
1480611989169482,0,0,-2,-3,-1,2,-2,-1
1480611989169482,-3,3,-1,-3,3,1,4,-1
1480611989177002,-5,-8,1,-1,-2,-1,-2,-1
1480611989177002,0,2,-2,-2,-5,-1,-3,-1
1480611989178506,1,-3,1,-4,1,-9,-4,-1
1480611989178506,2,1,-2,0,-7,5,4,2
1480611989199061,2,6,0,0,7,8,0,0
1480611989199061,-4,-11,-1,0,7,-3,2,-1
1480611989201067,-3,0,-3,2,-8,1,-3,-3
1480611989201067,5,6,0,-2,-2,-9,0,1
1480611989215604,-4,-2,0,1,1,4,0,0
1480611989215604,-1,-4,-3,-2,-6,-3,-2,1
1480611989220618,0,3,0,-2,2,0,1,0
1480611989220618,-1,-2,0,0,0,-1,2,1
1480611989244180,-3,0,0,-1,1,0,-1,0
1480611989244180,2,8,4,7,5,0,1,-1
1480611989245684,2,-3,-2,-7,-7,-6,-1,-2
1480611989245684,2,-2,1,-1,-2,5,0,1
1480611989259221,0,-3,0,1,-1,-4,-2,-1
1480611989259221,0,-1,2,3,0,1,1,-1
1480611989261226,-2,-2,0,0,2,8,-1,-1
1480611989261226,1,6,-1,4,5,-1,2,1
1480611989274263,-3,-4,-2,-7,-1,-5,1,1
1480611989274263,-4,0,-2,-2,-6,1,-5,-1
1480611989275770,-1,-1,-1,-1,-5,-10,4,-1
1480611989275770,-1,-6,-1,1,12,11,-1,1
1480611989296820,3,0,-1,4,5,-7,0,-1
1480611989296820,-1,-1,-4,-8,-6,4,-1,-1
1480611989298325,1,-4,0,12,3,2,-3,0
1480611989298325,3,6,2,-1,-7,-3,9,0
1480611989326901,-2,-2,0,3,0,0,-3,0
1480611989326901,0,3,-1,-9,-3,-4,-5,-3
1480611989328406,-1,-4,0,2,0,2,1,-1
1480611989328406,-4,-5,1,-5,-5,-7,-2,-2
1480611989333920,1,2,-1,1,1,1,-1,0
1480611989333920,-2,3,1,0,0,1,2,0
1480611989340436,0,-2,-3,-2,1,0,0,0
1480611989340436,2,0,0,0,-1,2,-2,1
1480611989355979,1,6,-3,-3,0,-3,1,-2
1480611989355979,1,-6,-1,4,1,2,-1,1
1480611989387562,-5,0,2,-1,2,1,-1,-2
1480611989387562,-2,4,0,-1,1,3,-1,1
1480611989388063,1,-3,-1,1,-3,-4,-5,-3
1480611989388063,-3,-4,-2,-2,-6,-10,-3,-5
1480611989390069,1,1,-1,-3,4,11,-4,0
1480611989390069,-3,-4,-4,-2,3,-2,0,-2
1480611989393579,1,3,2,1,3,-3,-3,0
1480611989393579,1,3,2,4,3,8,1,1
1480611989400598,1,-4,-2,-3,-6,-4,2,0
1480611989400598,-2,-6,2,-1,-1,-1,-2,-5
1480611989423157,2,2,1,2,-1,1,1,-2
1480611989423157,-2,-3,-1,-5,0,-8,-1,0
1480611989441707,0,3,-2,2,2,-2,-1,-2
1480611989441707,1,0,-3,0,-5,2,-2,2
1480611989442210,-5,-4,-4,-1,-4,-1,8,1
1480611989442210,-1,-1,-1,2,7,-3,1,-2
1480611989445216,0,0,1,-4,-8,-3,-2,1
1480611989445216,-1,-6,-3,-2,1,-2,0,0
1480611989461760,1,-5,2,1,0,9,0,0
1480611989461760,-1,1,2,-3,-3,-3,-2,2
1480611989463264,-1,1,-3,-1,2,-5,4,-1
1480611989463264,-2,1,0,4,2,-3,-2,0
1480611989477300,0,-4,-1,-2,-1,4,-1,1
1480611989477300,0,5,-1,1,0,2,1,1
1480611989478303,-3,-5,-1,-1,-3,-5,-2,-1
1480611989478303,1,1,-3,-5,-3,3,-3,-1
1480611989499360,0,4,-1,-1,-4,-11,-4,0
1480611989499360,2,-3,1,4,5,7,1,-1
1480611989500863,0,2,2,2,6,9,3,-2
1480611989500863,-5,-2,-3,1,0,-3,-1,-1
1480611989513898,1,1,0,-4,-7,0,-2,-2
1480611989513898,-1,0,-2,-1,-2,-10,-3,-2
1480611989520416,-1,-3,1,0,-3,-1,-4,2
1480611989520416,-6,-4,1,0,3,4,-2,-1
1480611989536959,-1,2,-3,-5,1,-4,-1,-1
1480611989536959,4,-5,-1,3,-8,-9,-3,-2
1480611989538464,0,2,-1,0,2,6,1,1
1480611989538464,2,0,2,-1,0,-6,-2,1
1480611989559520,-1,-1,-2,3,6,7,-1,1
1480611989559520,0,3,-1,-6,-2,0,8,2
1480611989561525,1,-1,-1,-3,0,-6,-4,0
1480611989561525,-2,-1,-1,-1,-1,2,-2,0
1480611989574059,1,2,0,2,1,-2,-2,-2
1480611989574059,-6,-9,-3,-3,-10,-11,0,2
1480611989580576,2,4,2,-1,6,7,-3,-2
1480611989580576,-2,2,0,0,-6,1,2,-1
1480611989597621,2,-2,0,2,-1,-5,2,0
1480611989597621,0,4,-2,1,2,8,-2,-2
1480611989603136,-1,3,-2,-2,1,-1,0,0
1480611989603136,-1,-6,-1,2,-3,-6,-3,-1
1480611989619178,-4,-4,-1,-1,1,1,-3,0
1480611989619178,-1,-1,-3,1,1,-4,0,3
1480611989621183,-1,-3,-2,-1,-3,-1,1,0
1480611989621183,5,7,0,1,-1,5,3,-1
1480611989633216,-3,-5,0,-1,-3,-2,-2,-4
1480611989633216,0,-1,0,-1,1,-3,0,-3
1480611989642242,1,-2,0,4,5,3,0,1
1480611989642242,0,-2,-1,1,-2,-6,-3,1
1480611989658286,2,0,-1,-1,-1,2,0,2
1480611989658286,-4,0,1,2,-1,2,-3,-1
1480611989661792,1,-5,-3,-1,0,-3,-1,-1
1480611989661792,-1,3,0,1,3,-2,1,2
1480611989679338,-2,-4,-1,-4,-4,0,-1,-2
1480611989679338,1,2,0,-4,4,-1,-3,-2
1480611989680842,0,5,1,-2,-17,-14,-1,-1
1480611989680842,-2,-7,-4,1,11,12,1,-2
1480611989692875,-1,-3,-2,-4,-4,-2,2,-1
1480611989692875,0,2,2,1,2,1,-1,0
1480611989701898,-1,-1,-2,-3,2,-3,-4,-1
1480611989701898,0,-1,-2,-6,-8,-5,1,1
1480611989716938,3,5,2,-3,-2,3,0,2
1480611989716938,-5,-7,0,-1,1,4,-1,-1
1480611989718442,-1,-3,-3,1,-1,-3,2,-2
1480611989718442,-1,-3,-1,2,1,-3,-2,-3
1480611989739498,-4,-4,-4,1,-1,2,-2,-3
1480611989739498,2,2,-1,-7,-7,-3,-1,1
1480611989741003,-1,2,1,0,0,-3,0,-1
1480611989741003,-1,-1,0,0,-5,2,-2,-1
1480611989761557,0,-1,-1,1,4,-1,6,0
1480611989761557,1,0,0,1,2,5,-1,-1
1480611989763562,-1,1,-4,0,-1,-1,0,-2
1480611989763562,-2,-3,0,-3,-3,-5,1,0
1480611989776597,0,0,-1,-2,1,0,-2,1
1480611989776597,-1,-1,-1,-2,-3,2,-2,-1
1480611989778603,-1,2,0,-1,0,-1,-1,0
1480611989778603,0,2,2,1,-2,-5,-3,-1
1480611989798656,-1,-3,-1,1,2,0,-1,-1
1480611989798656,0,0,0,1,2,0,2,-2
1480611989807178,-2,-3,0,-4,-16,-14,-2,0
1480611989807178,0,-2,0,-2,10,12,1,-1
1480611989813194,2,1,1,2,5,5,0,3
1480611989813194,2,-2,-3,-1,-2,0,-3,-1
1480611989829738,-1,-2,1,0,-3,0,2,-2
1480611989829738,-1,-1,-2,-1,0,-8,-1,-2
1480611989836758,1,3,-1,0,-6,4,0,-2
1480611989836758,2,-1,-1,0,2,-6,-2,0
1480611989838262,-5,-4,0,1,4,3,-2,-1
1480611989838262,-3,-13,-4,-7,-6,-7,-1,-3
1480611989859317,-5,-3,-2,4,8,3,-2,0
1480611989859317,0,6,-1,-3,-7,0,-2,-1
1480611989860822,1,-2,-3,4,5,-1,1,3
1480611989860822,4,0,1,-4,2,3,3,1
1480611989881876,0,-2,1,5,-4,-2,0,-3
1480611989881876,-1,-7,-3,0,0,1,0,0
1480611989883380,1,4,-1,-6,-2,1,0,-2
1480611989883380,-1,9,-1,0,-4,-3,0,-1
1480611989897419,-1,-4,-2,-5,-5,-8,-6,-1
1480611989897419,-1,1,0,-1,-5,-10,-1,2
1480611989902934,0,-4,1,3,13,21,0,-1
1480611989902934,0,3,-1,1,1,0,3,1
1480611989918475,-1,2,0,-2,6,2,1,1
1480611989918475,-1,-1,-1,-1,-8,-3,-1,-2
1480611989926997,0,-2,-3,-3,-4,-9,-1,-2
1480611989926997,0,2,3,-1,-1,7,0,1
1480611989933013,5,7,-1,3,5,-1,-1,0
1480611989933013,-1,-7,2,1,0,1,-2,0
1480611989942039,-5,-6,-1,-2,-7,-5,-2,-1
1480611989942039,-5,-2,-2,1,-1,-9,-2,-2
1480611989957079,0,-2,0,-1,3,7,3,-1
1480611989957079,2,4,0,-1,1,4,2,-2
1480611989963093,-3,-3,3,1,-1,-1,-1,-1
1480611989963093,-1,0,-8,-5,-7,-4,-3,0
1480611989979136,1,-4,24,1,2,-9,0,-1
1480611989979136,0,7,-2,3,1,2,-2,-2
1480611989981141,3,3,0,2,-1,0,4,2
1480611989981141,0,6,-2,0,9,14,-3,-1
1480611989993676,-1,0,-4,0,-4,-5,-3,-1
1480611989993676,-3,-3,2,-1,-3,-1,3,-1
1480611990002197,1,1,-1,-3,-5,-9,-2,0
1480611990002197,1,3,5,2,-4,-1,1,1
1480611990016736,-1,-2,-11,-7,0,-1,5,-1
1480611990016736,-3,-6,6,0,-4,5,-1,1
1480611990018741,-2,-1,-3,0,3,-3,-2,-1
1480611990018741,0,0,-5,1,-7,-6,-1,0
1480611990039797,-2,-2,4,0,6,-2,-4,0
1480611990039797,-2,1,-6,1,-1,0,0,-1
1480611990041805,-4,-5,1,0,2,-1,-1,-1
1480611990041805,1,0,-2,-1,-5,-1,-1,1
1480611990052832,0,1,-11,-3,-6,0,3,2
1480611990052832,2,-8,-16,-9,6,4,0,0
1480611990067872,0,0,5,20,14,10,-1,0
1480611990067872,-4,-8,-3,-15,-2,-9,-3,-4
1480611990075895,-3,5,14,7,-9,-7,-3,-1
1480611990075895,1,2,1,2,5,2,-2,-1
1480611990084416,3,2,-4,-8,-9,-1,2,0
1480611990084416,-1,0,0,3,-1,-1,1,-1
1480611990107477,1,0,0,2,8,6,-1,0
1480611990107477,-5,-3,4,-2,1,0,2,1
1480611990108982,1,5,-5,-6,-2,-2,-4,-1
1480611990108982,-2,-7,3,4,-1,3,1,-1
1480611990122016,0,-1,-9,-6,-13,-17,-4,-2
1480611990122016,1,3,4,9,3,7,-1,0
1480611990123524,0,-2,-3,-3,5,8,2,1
1480611990123524,0,2,1,4,-3,1,1,2
1480611990136555,1,-5,-1,-2,2,2,-1,-1
1480611990136555,-5,-9,-5,-5,-3,-7,-2,-1
1480611990138560,3,3,2,-4,-6,-8,1,1
1480611990138560,-2,-1,7,7,3,1,-4,-2
1480611990167136,0,-7,-5,-2,-1,4,7,-1
1480611990167136,1,3,0,0,-1,-8,-2,2
1480611990169141,1,3,5,-3,-1,5,-3,-2
1480611990169141,-2,3,-4,-2,3,2,1,0
1480611990181674,1,-5,3,0,-5,-9,-3,-1
1480611990181674,-2,-1,-1,-4,5,6,-2,-1
1480611990183680,-2,-4,1,2,1,2,2,-4
1480611990183680,2,3,0,2,3,2,-1,2
1480611990196716,-4,2,-3,-3,0,4,-1,1
1480611990196716,0,3,0,-3,-12,-17,-1,-1
1480611990198218,-1,-7,-3,-3,-1,7,-2,-1
1480611990198218,2,0,0,2,5,2,4,1
1480611990219274,-3,1,-2,0,1,6,-2,-1
1480611990219274,-3,-2,0,1,-2,-8,-2,-2
1480611990225291,-3,-1,-3,-8,-1,0,1,-1
1480611990225291,1,-5,-4,1,0,1,-3,-2
1480611990241841,-4,0,1,-3,0,-2,-3,-5
1480611990241841,4,5,0,7,4,6,2,1
1480611990247851,1,-5,0,-5,-6,-11,-2,-2
1480611990247851,-3,-4,-1,-5,-7,-1,-3,-1
1480611990256375,0,2,-6,-2,5,0,-5,-3
1480611990256375,-2,0,2,7,2,4,2,0
1480611990270912,-1,2,-2,0,-2,-2,0,2
1480611990270912,3,1,1,3,2,0,3,0
1480611990279434,0,-1,-2,-4,-8,-7,2,1
1480611990279434,1,-2,1,2,11,17,0,0
1480611990280938,2,1,-2,1,0,1,-2,-1
1480611990280938,-2,1,2,-3,-5,-11,-2,-1
1480611990309517,0,-5,-2,1,-3,0,-1,-2
1480611990309517,-2,-6,-2,-4,-6,-1,-2,-2
1480611990311018,0,-2,-1,3,0,-2,-1,-2
1480611990311018,-1,2,-2,-1,4,-1,-1,1
1480611990316032,3,5,0,6,10,11,0,1
1480611990316032,0,0,1,-4,-3,0,7,-1
1480611990323051,-6,-6,-2,-1,0,-2,2,-3
1480611990323051,-3,-3,-2,-6,-12,-9,-4,-2
1480611990339094,1,4,2,2,-4,-2,0,2
1480611990339094,-1,-3,-2,-1,5,-3,-4,2
1480611990342104,0,5,1,1,2,5,0,2
1480611990342104,0,-1,-3,-6,3,-1,1,-2
1480611990361653,2,-8,-4,9,-6,2,0,1
1480611990361653,-5,4,5,2,0,-5,-3,-3
1480611990363659,2,4,1,-2,3,3,1,1
1480611990363659,0,0,0,-1,1,-4,-1,-1
1480611990376192,-7,-7,-1,-6,-1,6,-1,1
1480611990376192,0,-3,-6,-1,-7,-6,-1,-1
1480611990382709,-1,0,2,-3,0,-2,-4,-2
1480611990382709,-3,-9,-4,7,3,5,2,1
1480611990406773,1,3,-1,-1,1,-1,-2,-2
1480611990406773,1,0,-3,0,1,-2,-1,-2
1480611990408278,4,1,0,2,-7,-9,-1,0
1480611990408278,-1,4,0,4,3,3,-1,-2
1480611990421813,-2,-1,1,-3,2,3,-4,0
1480611990421813,3,-3,3,0,-2,-3,5,-2
1480611990423317,-5,-3,-4,-2,-1,0,-1,-1
1480611990423317,2,-3,0,-3,-2,0,1,0
1480611990436353,-1,-2,-3,-1,-9,-8,-1,0
1480611990436353,0,6,-2,-10,6,1,-3,0
1480611990442869,-1,-3,1,9,-1,4,-1,-1
1480611990442869,-3,1,0,0,0,-1,0,-1
1480611990459413,-1,-3,-2,-2,4,-2,1,2
1480611990459413,-1,-1,-1,-3,-3,8,-1,3
1480611990460918,-1,1,-2,-4,-2,-6,1,-1
1480611990460918,1,1,0,-1,-5,-1,1,-4
1480611990482476,-2,0,0,1,-1,-4,-1,-3
1480611990482476,1,-5,-1,0,2,0,-3,1
1480611990483979,-2,-1,0,0,-7,-7,-3,-2
1480611990483979,-4,-6,-2,-2,8,11,-1,-1
1480611990505536,2,1,-1,-6,2,3,0,1
1480611990505536,3,4,0,2,-2,-6,-2,0
1480611990508043,0,-3,0,-1,-1,-2,-1,1
1480611990508043,0,0,-1,-4,-7,-2,0,-3
1480611990519574,1,2,1,3,-7,-7,-1,-1
1480611990519574,-7,-7,-5,-3,5,-2,0,0
1480611990533110,5,4,1,5,6,10,-2,1
1480611990533110,3,2,0,0,-8,-6,-2,-1
1480611990542635,-4,-4,-1,-1,9,7,2,-1
1480611990542635,0,-1,0,0,-8,-5,-3,-2
1480611990544139,-3,4,-2,-9,-3,-3,-1,-1
1480611990544139,1,1,-1,7,6,1,-1,0
1480611990556170,0,-2,-1,3,-1,3,-3,-3
1480611990556170,1,-1,-2,-1,-4,-4,1,-1
1480611990570208,2,0,-1,-6,1,-1,-1,-1
1480611990570208,-2,0,2,4,2,2,-3,0
1480611990579232,-1,-2,0,1,2,-1,1,2
1480611990579232,-1,-2,0,-4,-14,-8,-1,0
1480611990581238,1,4,0,0,13,14,-1,1
1480611990581238,-2,-5,-1,-4,0,0,-1,2
1480611990601792,1,1,-2,2,2,-2,2,1
1480611990601792,-2,-3,1,0,0,4,1,-2
1480611990603296,1,-4,-4,-5,-8,-13,-2,1
1480611990603296,2,7,0,-1,-4,1,0,1
1480611990616332,-1,-3,-1,-2,5,0,-3,0
1480611990616332,0,4,2,-5,1,-1,-3,-2
1480611990624352,-3,-5,-1,-2,-6,5,2,-2
1480611990624352,1,-3,-2,4,7,-3,2,-2
1480611990639392,4,5,1,-3,-9,-1,0,-1
1480611990639392,2,-2,-1,0,8,1,-3,1
1480611990640897,-5,-6,-2,1,-1,-4,-1,-1
1480611990640897,0,3,-1,-4,-4,2,-3,1
1480611990662455,-4,-1,-3,-4,-9,-10,7,0
1480611990662455,2,2,1,3,6,5,-1,0
1480611990663959,1,-1,0,-3,0,-1,0,0
1480611990663959,-3,-4,-2,-4,-16,-16,-1,-4
1480611990684512,2,7,2,0,13,14,-4,-1
1480611990684512,2,-1,-1,2,0,-2,2,1
1480611990686016,-6,-3,-1,4,6,-3,1,0
1480611990686016,-1,-3,-2,-4,-2,5,0,-2
1480611990699553,-2,1,1,-7,-8,-6,-3,-3
1480611990699553,-4,-6,-3,2,-2,2,3,-1
1480611990701056,1,5,-2,2,-1,-6,-4,-3
1480611990701056,4,-1,3,-2,2,-1,-2,1
1480611990721611,-2,-6,-1,2,-7,-4,2,0
1480611990721611,0,5,2,-1,7,8,-2,0
1480611990736150,0,0,2,0,0,5,2,2
1480611990736150,-2,1,1,-2,-6,-1,0,0
1480611990737153,3,0,1,1,7,-2,-3,0
1480611990737153,-4,-4,-4,-3,-6,-8,-4,-4
1480611990744672,0,-3,1,-2,0,0,8,-2
1480611990744672,0,1,-2,2,5,2,-5,-1
1480611990759211,0,3,1,-3,-8,-2,0,-4
1480611990759211,-1,-3,-1,0,1,0,0,0
1480611990760716,-2,-9,-6,-4,7,12,-5,-1
1480611990760716,-3,-2,1,8,6,2,3,0
1480611990781771,3,5,-4,1,-9,-11,-1,0
1480611990781771,0,2,0,-1,3,3,0,-1
1480611990783275,-4,-6,2,-1,-6,-6,-2,-1
1480611990783275,0,1,0,0,4,-1,1,0
1480611990795307,-2,-8,-3,-3,5,8,-1,-1
1480611990795307,3,8,3,0,-7,-2,1,-1
1480611990811852,-3,1,0,0,-2,-1,-2,0
1480611990811852,-1,-1,-2,2,2,-6,0,-2
1480611990818368,-1,-2,-1,-1,-1,-3,-1,0
1480611990818368,3,-2,1,2,-1,-2,0,1
1480611990826892,2,3,1,-3,7,3,-2,-2
1480611990826892,0,1,1,7,-4,2,-2,3
1480611990841934,-3,-5,-2,-3,-1,1,5,0
1480611990841934,-2,-7,-3,-4,-3,-5,-1,-2
1480611990843436,-1,0,-1,-2,-6,-3,-1,-1
1480611990843436,1,3,-3,-8,1,0,2,0
1480611990855468,-3,-3,-1,0,2,3,-1,-1
1480611990855468,-5,5,-2,-2,0,4,-1,-2
1480611990864491,2,-5,-1,3,-4,-8,-2,0
1480611990864491,1,1,0,-4,-7,0,-4,-1
1480611990879532,-5,-3,-2,1,1,-4,-4,1
1480611990879532,-2,-8,-4,-3,-1,3,2,0
1480611990881036,1,1,2,10,-2,-1,-1,0
1480611990881036,-4,-3,-1,1,3,4,0,-1
1480611990902091,2,5,1,-9,-6,-4,-4,1
1480611990902091,-1,1,-1,4,1,-2,-1,-2
1480611990904097,1,1,-2,-3,4,-4,2,1
1480611990904097,6,-1,2,-4,-7,-3,0,-1
1480611990915627,-6,0,-1,3,6,6,0,-5
1480611990915627,-1,-3,-1,-5,3,8,2,3
1480611990924651,-1,-1,-2,0,-8,-3,-4,-2
1480611990924651,-4,-5,-2,1,0,-9,-2,-3
1480611990939190,2,6,-3,-2,2,4,-2,1
1480611990939190,-5,-5,1,-4,-5,-4,0,-1
1480611990941196,0,6,-1,1,9,11,0,-1
1480611990941196,2,-3,0,0,-1,-5,0,0
1480611990961751,2,-4,0,2,-5,-4,0,-1
1480611990961751,-5,1,-1,-1,-5,-8,-3,1
1480611990963254,1,-5,0,-4,-2,1,2,3
1480611990963254,-6,2,-2,-5,4,8,0,-2
1480611990975299,4,4,2,3,-6,-9,-1,0
1480611990975299,1,-2,-1,1,2,2,-1,-2
1480611990990327,-2,0,-2,2,0,0,-1,-1
1480611990990327,0,-1,0,-5,-8,-6,-2,-2
1480611990998347,-1,1,1,0,0,7,2,1
1480611990998347,-1,0,2,6,7,-1,-2,-2
1480611991012887,4,0,-4,1,0,2,1,1
1480611991012887,-1,-3,-2,-3,-1,4,-1,1
1480611991022412,1,-2,-1,2,0,-5,7,0
1480611991022412,1,4,-1,-2,-3,-5,-2,-2
1480611991025420,0,-7,-2,1,-13,-13,-2,-2
1480611991025420,-4,2,0,3,15,15,-3,-2
1480611991043467,-2,-4,-1,-3,-1,0,0,1
1480611991043467,2,3,0,-3,-5,-3,-1,-1
1480611991061516,-2,-2,-1,0,-3,-8,0,-2
1480611991061516,1,5,-1,-2,-4,1,2,2
1480611991062017,0,3,3,0,9,3,-2,0
1480611991062017,-1,-7,-2,-3,2,0,1,0
1480611991065526,-3,-2,-2,-2,0,4,-1,0
1480611991065526,1,-1,0,-3,-5,-8,-2,-1
1480611991081067,-1,0,-2,-1,-1,5,0,-1
1480611991081067,0,-1,1,-1,-5,-3,-1,0
1480611991106635,1,5,1,0,4,-3,-1,1
1480611991106635,1,-7,-1,0,3,2,0,0
1480611991107138,0,-4,-2,3,0,2,-2,-2
1480611991107138,1,0,-1,1,1,2,2,-1
1480611991110646,-1,1,1,-6,-6,1,0,-3
1480611991110646,3,3,2,7,1,-4,1,1
1480611991119168,-6,-7,-1,-3,-11,-9,-5,-2
1480611991119168,1,1,-2,4,10,12,0,2
1480611991120673,2,-3,1,-3,2,2,0,1
1480611991120673,2,-1,-4,-3,-5,-3,-1,-1
1480611991141730,-1,-2,-1,-7,-6,-10,-3,0
1480611991141730,-1,7,-1,3,0,-3,-3,-1
1480611991143232,-1,-5,1,-2,2,3,4,0
1480611991143232,-3,0,0,4,-2,3,0,-3
1480611991164289,-4,-10,-2,-4,-3,1,1,-2
1480611991164289,3,0,-1,1,0,-2,3,0
1480611991167800,-1,10,0,1,0,-3,-2,0
1480611991167800,-1,-2,-3,3,6,0,4,0
1480611991178827,2,4,1,1,0,-3,-2,-1
1480611991178827,-2,-1,0,-6,-5,1,-3,-2
1480611991192865,1,-4,-2,1,-5,-2,1,0
1480611991192865,0,-1,0,-2,-3,-2,0,0
1480611991201889,-3,-4,0,0,6,7,-2,1
1480611991201889,0,-2,-2,-1,-16,-25,-1,-3
1480611991203393,-1,-3,-1,-4,5,18,-2,-2
1480611991203393,-1,2,0,6,3,-2,0,-2
1480611991224451,6,-1,-1,4,7,1,-1,0
1480611991224451,1,-1,-2,-3,-3,2,-1,1
1480611991225953,-1,2,1,-7,-4,-9,-2,1
1480611991225953,-3,0,-2,-4,-5,1,7,2
1480611991238486,-1,1,-1,4,1,4,-2,-2
1480611991238486,0,0,-1,-3,7,2,-1,-1
1480611991245505,-4,-6,-3,-1,-13,-8,-5,-4
1480611991245505,-3,-3,-2,-6,-3,-8,-3,0
1480611991268567,3,5,-1,0,8,4,2,-2
1480611991268567,0,1,5,1,3,7,3,0
1480611991277089,3,2,-1,2,7,4,-1,1
1480611991277089,2,-3,-2,-4,-6,-3,-3,-1
1480611991284609,-4,1,0,-5,-8,-8,0,-1
1480611991284609,-4,-5,1,3,1,2,-2,-1
1480611991286114,-1,6,0,-1,-9,-11,-1,-2
1480611991286114,-1,-7,-3,6,8,6,-3,0
1480611991299148,1,4,-1,-1,2,0,-3,-2
1480611991299148,-1,2,-2,-6,-4,6,-1,1
1480611991305667,-2,-4,-2,3,-2,-10,-2,-1
1480611991305667,-2,1,0,-6,0,-1,-3,-1
1480611991320705,1,9,0,2,3,11,7,2
1480611991320705,0,-6,1,0,-4,-10,-3,-1
1480611991336748,-3,-3,1,0,4,5,1,0
1480611991336748,2,3,0,-5,-4,-2,0,1
1480611991344267,-6,-9,-3,1,3,-1,-2,-2
1480611991344267,3,4,-3,-2,-3,6,1,0
1480611991345771,4,5,2,4,7,-1,-1,-2
1480611991345771,-13,-6,-3,-3,-2,-4,-2,-2
1480611991358806,3,5,1,-1,-4,1,0,0
1480611991358806,0,-1,-1,-5,0,1,2,0
1480611991366828,1,-4,0,6,4,3,0,2
1480611991366828,2,4,0,-1,-6,-3,-2,-1
1480611991382369,1,-8,-5,-3,-11,-11,-1,1
1480611991382369,-2,-1,-2,-3,9,9,2,1
1480611991385879,-2,4,-1,-4,3,3,-8,-2
1480611991385879,1,-2,2,0,-3,-5,1,-1
1480611991404428,-1,-3,-3,0,-5,-9,-2,-2
1480611991404428,-4,4,2,6,7,3,-1,-1
1480611991405932,-3,-3,-2,1,3,11,6,0
1480611991405932,6,4,-1,-1,3,0,-1,1
1480611991418467,-1,-8,-2,-3,-3,1,-1,1
1480611991418467,2,-3,-1,-1,-10,-12,0,-1
1480611991433004,-3,8,1,-7,-1,3,1,-1
1480611991433004,-6,-2,3,8,6,-5,-2,-2
1480611991442530,3,6,-1,1,1,2,2,0
1480611991442530,0,-2,-3,0,1,-3,-1,0
1480611991444033,1,-1,-2,-5,-8,6,0,-1
1480611991444033,1,-4,-1,-1,1,1,-1,-2
1480611991464087,-1,-5,-3,0,-2,-1,-2,0
1480611991464087,-3,9,2,-2,6,-2,-7,-2
1480611991470603,1,-6,-2,0,-5,-7,5,0
1480611991470603,-3,3,2,-1,-4,-2,2,-1
1480611991478624,-4,-5,-1,2,-3,-3,-2,-1
1480611991478624,0,-1,1,4,2,5,-1,1
1480611991485643,6,4,-4,-2,1,2,1,4
1480611991485643,-1,-2,0,-1,-1,-1,-3,-3
1480611991502187,-5,-1,0,-1,-3,-6,-1,-3
1480611991502187,0,-1,-2,-3,-5,-7,-1,-1
1480611991508205,-1,0,0,-1,-4,2,1,0
1480611991508205,1,5,-2,0,4,4,3,2
1480611991524750,1,2,0,3,5,5,-1,1
1480611991524750,-2,-9,-4,-2,-4,-4,0,0
1480611991526252,-4,-1,2,1,1,-1,0,-1
1480611991526252,0,1,0,-8,-5,0,-1,-2
1480611991537782,-2,1,4,0,-6,-4,-1,-2
1480611991537782,2,1,-2,-3,0,-4,0,0
1480611991547810,-3,-7,-2,6,4,3,1,2
1480611991547810,2,2,-1,2,-7,-5,-2,-1
1480611991562462,1,-2,1,-1,18,20,-3,1
1480611991562462,-5,1,1,-2,-7,-1,7,-1
1480611991563852,0,1,1,0,-3,-12,-8,-3
1480611991563852,1,2,-1,0,-3,-2,0,1
1480611991584407,0,-2,-2,-5,-4,1,0,-2
1480611991584407,0,-4,0,3,-1,0,-2,-1
1480611991585910,-1,-5,-3,-5,0,-8,-1,-1
1480611991585910,3,5,-2,-3,2,11,2,1
1480611991597942,-1,0,2,4,-3,-8,-1,0
1480611991597942,1,1,1,-3,-1,5,2,0
1480611991606967,-2,-1,1,1,3,-1,-2,-2
1480611991606967,0,3,0,-5,-5,-2,-2,-2
1480611991622007,-3,-5,-3,6,1,-2,-2,-5
1480611991622007,-3,-3,-2,-1,1,-1,0,1
1480611991623511,-3,-5,-1,2,-5,-2,4,0
1480611991623511,0,-2,-1,-3,4,3,-2,1
1480611991644567,2,8,0,-3,-1,-3,0,1
1480611991644567,1,0,0,2,4,2,-1,1
1480611991646071,-3,-3,-2,-6,-2,-2,1,-2
1480611991646071,-6,-11,-1,0,1,1,3,-1
1480611991659105,3,7,-1,-5,-15,-17,-1,1
1480611991659105,4,-1,0,6,5,8,-3,-1
1480611991667127,3,10,0,-3,1,4,-2,0
1480611991667127,-3,-8,1,3,-2,-4,-3,-4
1480611991681665,-3,-4,-1,-2,4,4,1,-1
1480611991681665,1,7,-1,5,-4,-8,1,-3
1480611991683671,-4,-8,-5,-8,-11,-10,-4,-1
1480611991683671,1,1,-2,3,3,1,2,3
1480611991705228,1,4,1,-1,13,12,4,3
1480611991705228,-1,-5,0,-5,-1,3,-8,-3
1480611991706732,-3,-9,-1,0,2,1,-3,-1
1480611991706732,-4,-6,-2,-3,-8,-10,-5,0
1480611991717761,0,-1,1,-3,-5,-3,-3,-1
1480611991717761,2,5,-3,-4,-1,-1,2,1
1480611991743329,0,1,-1,-1,-4,-5,-3,0
1480611991743329,2,2,-1,3,-5,-1,-2,-2
1480611991749345,0,5,0,0,5,6,4,2
1480611991749345,-3,-8,-1,-1,-4,-1,4,1
1480611991757870,2,-3,-1,-5,-1,-3,-6,-7
1480611991757870,1,4,-3,-2,-1,3,-1,-1
1480611991764891,-2,1,-1,-13,-10,-6,0,-3
1480611991764891,-2,2,5,33,21,3,4,1
1480611991770401,-1,-1,-1,0,-5,-4,0,3
1480611991770401,2,-5,0,-6,7,10,-1,3
1480611991777921,2,1,1,9,-1,-3,0,-3
1480611991777921,-4,-7,-3,-11,-6,-4,-6,-2
1480611991792961,-4,-1,-1,0,0,-4,4,0
1480611991792961,3,4,1,1,-1,-6,-3,-2
1480611991801986,-1,-4,-5,-5,-3,10,0,-1
1480611991801986,0,-1,1,-2,0,-7,0,-1
1480611991803489,-1,6,0,8,5,15,0,1
1480611991803489,-3,-4,-5,-11,-6,-10,0,-2
1480611991824545,-2,-4,-2,6,3,-2,0,1
1480611991824545,2,1,-1,-5,-6,-3,-1,-2
1480611991832065,1,0,5,3,8,1,2,0
1480611991832065,-2,2,1,5,2,2,-1,-1
1480611991838081,-2,-6,-1,-1,0,-3,-1,1
1480611991838081,-1,1,-4,-3,0,3,-2,0
1480611991847106,0,1,-3,-3,-4,1,2,0
1480611991847106,-2,-7,-1,1,-8,-4,-1,-1
1480611991861645,1,6,-2,1,5,-2,-2,-3
1480611991861645,-5,-10,-3,-5,-1,0,3,0
1480611991863650,1,-2,-2,-3,6,4,1,1
1480611991863650,-3,0,4,11,-6,-6,4,-1
1480611991891724,0,2,1,-1,8,12,-4,0
1480611991891724,3,8,2,-5,-5,-6,-2,-1
1480611991893730,-1,0,-4,-6,-5,-4,0,2
1480611991893730,-2,-2,-5,6,-2,-6,-1,0
1480611991897740,3,-5,1,-2,-3,-4,-2,2
1480611991897740,3,-1,0,-2,4,9,0,0
1480611991912780,-2,-2,2,-1,0,4,0,-1
1480611991912780,0,-3,-4,-4,1,-1,0,-1
1480611991921805,-2,0,0,0,-6,-8,1,-3
1480611991921805,0,0,-2,-4,-1,0,-1,-1
1480611991923308,0,4,1,3,0,3,-1,0
1480611991923308,-1,3,1,1,4,3,2,2
1480611991944365,1,-1,-3,2,-4,-7,-1,-2
1480611991944365,-3,1,-1,-8,-9,-4,0,0
1480611991945869,-1,-1,-2,2,2,-3,-1,-1
1480611991945869,0,1,5,6,9,6,-2,1
1480611991957901,-2,-3,-3,-5,1,7,1,1
1480611991957901,1,4,0,2,-4,-1,1,-1
1480611991974947,1,-1,0,-2,3,-2,-1,0
1480611991974947,3,-1,0,-3,-11,-11,-4,-1
1480611991981964,-1,6,-2,-8,6,3,1,1
1480611991981964,-2,-11,-6,5,-1,8,0,-2
1480611991983468,2,5,0,1,-4,-2,-2,-3
1480611991983468,-1,0,0,-1,0,-5,0,-1
1480611992004524,-4,-7,1,-4,-15,-12,-2,0
1480611992004524,-3,1,-3,-4,12,6,-1,-1
1480611992010540,0,-5,2,2,-1,4,-1,1
1480611992010540,-1,0,-2,-5,0,3,1,-1
1480611992026583,-2,-4,0,1,-7,-5,-2,-2
1480611992026583,2,1,1,3,-7,-9,-2,-1
1480611992028589,0,2,-2,-2,2,-1,0,-1
1480611992028589,-1,-3,-2,1,1,7,-1,0
1480611992042625,6,2,0,0,4,0,0,3
1480611992042625,-3,-6,-3,-3,-1,-1,1,0
1480611992044130,-4,-5,3,-4,-3,1,-2,-4
1480611992044130,0,2,0,2,-1,-3,-3,-1
1480611992064183,0,0,-5,2,6,5,2,0
1480611992064183,0,0,2,-2,-3,0,-2,0
1480611992066690,1,0,-1,-1,-6,-5,2,1
1480611992066690,-2,2,1,-5,16,15,0,-1
1480611992086743,-2,-5,3,2,-2,0,-3,-1
1480611992086743,2,2,-2,-1,-5,-18,-3,-2
1480611992088247,-1,0,-4,1,1,7,-1,-3
1480611992088247,-2,-3,-2,-4,-1,-1,4,0
1480611992116823,2,4,0,-2,-8,-3,-2,-2
1480611992116823,-1,-3,1,-5,4,-1,-1,1
1480611992126348,2,5,4,5,-4,3,-1,0
1480611992126348,1,3,-2,-4,1,-3,-1,-1
1480611992127351,-4,-10,-1,0,4,3,-1,1
1480611992127351,0,1,-2,-1,-7,-3,0,0
1480611992130359,1,2,0,-2,-2,-2,-1,-3
1480611992130359,-1,0,-6,-2,3,2,-1,-2
1480611992146902,-4,0,4,1,-5,0,2,-3
1480611992146902,1,-2,-1,3,-1,-1,0,-3
1480611992148406,-1,-3,-8,-19,2,1,0,1
1480611992148406,0,2,1,18,-9,-4,0,2
1480611992160941,-1,10,-4,-17,3,-3,-1,2
1480611992160941,-6,-11,5,16,3,-2,-2,-2
1480611992167959,-2,-2,-2,1,3,11,0,2
1480611992167959,1,-1,-3,-12,-10,-7,-4,-1
1480611992183501,3,1,1,2,5,-5,-3,-3
1480611992183501,0,8,5,-1,-8,0,0,1
1480611992192524,-2,-5,-2,3,-2,-10,-1,-2
1480611992192524,1,-5,-1,-1,7,10,-1,1
1480611992207564,-1,-3,-2,6,-2,3,0,1
1480611992207564,-1,4,-6,-10,-1,1,0,0
1480611992209068,-4,-2,4,7,0,-6,-2,0
1480611992209068,-1,-6,-3,-5,-7,-7,-2,-2
1480611992221100,-2,1,3,5,4,2,1,-1
1480611992221100,2,-4,-1,0,5,5,1,1
1480611992228121,2,5,0,0,-3,-6,-1,0
1480611992228121,-1,1,-4,-6,4,10,0,-2
1480611992245164,-1,-4,1,0,3,-3,-3,0
1480611992245164,2,4,-4,-3,4,4,-1,0
1480611992250679,-7,-1,3,4,1,-7,2,0
1480611992250679,-3,-5,2,-11,-2,0,-1,0
1480611992266721,-1,-6,-4,17,-5,-5,-1,-2
1480611992266721,-1,6,7,-7,-5,-1,-1,1
1480611992268226,8,-4,3,5,3,-5,-2,-1
1480611992268226,-1,0,-5,-1,0,-2,1,-1
1480611992289282,-1,1,-4,-12,2,11,-1,-1
1480611992289282,0,-2,-2,9,-5,-1,-2,-2
1480611992290786,-2,1,-13,-5,-4,-2,-2,-1
1480611992290786,-2,-2,6,-11,-5,-8,-2,0
1480611992304824,1,-4,2,13,-1,-2,1,0
1480611992304824,-2,-1,-3,-7,4,3,-1,0
1480611992310337,3,-2,4,4,2,0,-1,2
1480611992310337,2,7,-1,-2,2,0,-1,0
1480611992333900,-3,-4,2,6,-6,-7,4,-4
1480611992333900,-1,-5,-11,-2,4,8,-1,-3
1480611992341925,-4,-5,5,3,-5,0,3,-2
1480611992341925,0,0,1,0,5,-4,-3,-1
1480611992342925,1,4,4,-5,-9,1,-2,0
1480611992342925,0,-1,-3,-2,-3,-8,-1,-1
1480611992347938,2,2,-7,-3,5,6,-1,1
1480611992347938,0,6,6,7,-4,-2,1,1
1480611992364482,0,-11,-3,-8,0,-4,-4,0
1480611992364482,-2,-7,-5,-6,-1,-7,2,-1
1480611992365986,-3,1,4,8,-3,-1,-2,-1
1480611992365986,-1,0,1,6,4,10,0,-3
1480611992387041,2,7,-4,-2,2,0,-1,-1
1480611992387041,-2,0,-1,-8,-2,2,0,0
1480611992402082,-1,-2,-1,-5,-2,-7,0,-1
1480611992402082,3,-4,2,-2,-4,-3,-2,1
1480611992404087,2,7,-4,-9,-2,2,0,-1
1480611992404087,-3,-2,-1,2,-1,-4,0,0
1480611992408601,-3,-10,0,-4,1,4,-2,-4
1480611992408601,0,1,-5,24,14,7,5,1
1480611992426147,1,3,3,-9,4,2,-1,0
1480611992426147,1,8,-1,12,-2,-7,0,1
1480611992430157,0,2,4,2,-3,1,-3,0
1480611992430157,-2,-9,-20,-20,-15,-6,-1,-1
1480611992446700,-3,0,29,8,3,-4,-2,-1
1480611992446700,1,0,-6,2,5,1,-1,0
1480611992449207,0,-3,-9,-4,2,3,6,1
1480611992449207,-4,-7,-4,-7,-1,-2,-2,-2
1480611992460738,0,0,-2,2,0,3,-1,0
1480611992460738,0,0,7,-5,-5,1,2,-2
1480611992469762,1,2,-4,4,2,-3,-3,0
1480611992469762,1,0,-9,-2,-1,-5,0,-2
1480611992485303,-3,-5,0,-5,2,5,0,0
1480611992485303,0,7,5,-5,-2,-1,-2,-1
1480611992486807,-2,-3,9,1,-2,0,-1,-2
1480611992486807,3,-2,-16,1,-3,-6,-2,-1
1480611992506861,-4,6,2,2,-11,-23,-3,-1
1480611992506861,-4,-21,-2,12,18,23,0,-1
1480611992508367,-1,-2,15,-6,-2,7,2,1
1480611992508367,-2,1,16,7,2,-3,0,1
1480611992520397,2,4,-8,-12,-5,1,0,-1
1480611992520397,2,1,-31,-4,0,-9,-2,2
1480611992529420,-3,7,52,17,-4,-8,-2,-2
1480611992529420,-1,-6,7,3,-5,6,1,0
1480611992544962,2,2,-8,-2,13,-4,0,-1
1480611992544962,0,4,15,-2,-4,1,1,-2
1480611992550476,4,-5,-30,-1,6,3,0,0
1480611992550476,1,8,14,3,-1,-1,1,3
1480611992568525,-2,-10,-13,-4,-5,2,-1,0
1480611992568525,-1,-1,4,-6,-3,-1,-2,-2
1480611992571031,1,5,-18,3,-8,-10,-1,-2
1480611992571031,0,0,-2,-6,-2,-1,-2,-2
1480611992580557,-2,-3,2,8,6,5,0,2
1480611992580557,-7,-7,11,0,-1,-1,-3,-2
1480611992589581,0,0,-14,-9,4,8,2,1
1480611992589581,4,4,-2,-2,3,-5,-5,-1
1480611992604120,1,4,7,6,-1,1,3,1
1480611992604120,-2,-2,7,-5,-3,-2,-1,-3
1480611992605623,-1,-3,-30,3,-7,-8,1,1
1480611992605623,-2,-1,-6,-7,3,1,-1,-1
1480611992626680,-1,-8,-5,-5,3,2,1,1
1480611992626680,0,1,9,2,-5,-4,1,2
1480611992628184,-3,-3,-1,-6,-1,-2,-1,1
1480611992628184,-3,-5,2,1,-5,0,-1,-2
1480611992640216,-1,0,-7,2,3,-4,-1,2
1480611992640216,3,11,0,-6,-9,2,2,0
1480611992655255,2,-7,2,8,14,5,-3,0
1480611992655255,-2,2,5,3,-3,0,2,1
1480611992663277,-1,6,3,3,-3,-3,-3,-3
1480611992663277,-2,-1,-2,1,-8,-16,-2,0
1480611992673303,-1,-7,-3,-12,5,13,-1,-2
1480611992673303,-3,-1,2,0,0,0,1,0
1480611992686840,-1,-4,-3,0,-4,-1,-1,-1
1480611992686840,1,2,0,1,2,-1,-1,0
1480611992688344,2,6,-1,-6,-6,-8,-3,0
1480611992688344,1,4,-1,6,5,6,1,1
1480611992701379,-3,-8,-4,-6,-2,-4,-1,-1
1480611992701379,-1,1,-3,-1,3,1,-1,0
1480611992726445,0,-4,8,-3,-6,-7,0,1
1480611992726445,-2,-3,-3,5,-1,-6,2,-1
1480611992727448,1,6,2,1,3,4,-2,-1
1480611992727448,1,-2,-5,-3,4,6,-3,2
1480611992730455,-2,5,3,-6,-1,0,5,-1
1480611992730455,-1,0,5,-1,-1,0,-3,-3
1480611992746999,2,-2,-2,11,-3,-2,-4,-2
1480611992746999,-8,-10,-5,-3,-2,-5,1,-2
1480611992748503,-1,-2,0,-3,-7,-11,-2,0
1480611992748503,0,9,-7,-9,-1,10,-1,-1
1480611992769058,1,-3,-3,-8,0,2,1,-1
1480611992769058,5,3,-2,4,2,1,-1,0
1480611992771064,0,4,8,7,3,6,0,1
1480611992771064,-4,-6,6,2,1,-4,0,-1
1480611992784098,-5,-2,-7,-10,-5,-1,-2,-1
1480611992784098,2,-1,-2,-1,2,0,-2,-2
1480611992786104,-1,-1,-9,-4,-8,-6,-4,0
1480611992786104,0,-1,-4,2,3,0,4,0
1480611992806156,1,4,7,4,2,3,-2,-2
1480611992806156,-1,-8,-2,2,-8,-1,1,-3
1480611992814681,1,1,-1,-4,5,-1,-1,-2
1480611992814681,1,-2,-2,-3,-5,1,-4,1
1480611992820194,-1,-2,-2,3,0,-6,5,-1
1480611992820194,2,3,4,1,1,-6,-1,2
1480611992829720,3,3,-2,3,-3,-1,-1,0
1480611992829720,-3,-9,-2,-1,11,16,-2,0
1480611992844258,-8,-6,-1,-1,-9,-9,0,1
1480611992844258,-1,4,-4,0,0,1,-2,0
1480611992845763,0,3,10,1,4,7,1,1
1480611992845763,0,-1,3,2,-6,-10,-1,1
1480611992866819,3,-2,-5,-6,-3,-3,-1,-1
1480611992866819,-3,2,-3,-3,2,2,0,-3
1480611992870329,1,-1,3,-2,-5,-3,0,0
1480611992870329,0,-1,-6,8,2,2,1,-3
1480611992897400,3,-1,-3,-4,4,5,-1,-1
1480611992897400,0,-7,2,-3,-10,-7,-3,2
1480611992904919,-2,0,-7,-2,0,3,-1,0
1480611992904919,-3,-1,3,-2,2,-9,2,-2
1480611992905922,0,6,1,1,-1,-2,-4,0
1480611992905922,0,-4,-3,-1,1,4,1,-2
1480611992907426,-4,-4,-4,-8,-5,0,-4,-3
1480611992907426,0,-3,0,8,-8,-5,0,-2
1480611992925976,-1,1,1,-3,3,-7,-2,-1
1480611992925976,-1,-5,0,-3,-5,-10,-1,-1
1480611992942019,2,3,2,1,12,21,1,0
1480611992942019,-2,-5,-4,-8,-4,1,1,0
1480611992950040,-1,-6,2,2,-1,3,0,-2
1480611992950040,2,4,0,2,-3,-8,0,-1
1480611992953548,-5,-10,-7,-3,-4,-11,-1,-2
1480611992953548,0,5,1,-1,0,-4,0,-2
1480611992964578,-3,-1,-1,0,2,6,3,0
1480611992964578,-1,-2,0,4,7,7,-2,-1
1480611992966082,-1,3,3,-1,-2,-2,-1,0
1480611992966082,0,2,-3,-7,-6,-2,-4,2
1480611992986636,0,-2,0,1,-9,-5,1,2
1480611992986636,0,1,-2,1,8,6,1,2
1480611992988141,2,1,-4,-1,2,2,-1,0
1480611992988141,-5,-2,0,-4,-5,-8,2,-4
1480611993009197,1,3,-1,0,-3,-2,-5,1
1480611993009197,-1,3,-5,-6,-8,-5,5,0
1480611993010701,3,-1,3,2,3,5,2,-1
1480611993010701,-3,-8,-7,4,14,6,0,1
1480611993024239,2,0,12,0,-4,3,-2,-2
1480611993024239,-4,-5,-1,2,-2,0,-2,-3
1480611993025741,-4,0,-8,-5,-11,-12,-4,-2
1480611993025741,2,6,-3,-1,5,-4,-2,1
1480611993046797,-1,4,4,1,6,7,1,0
1480611993046797,3,1,0,-1,-3,1,2,3
1480611993048301,-2,-7,-1,0,0,-3,1,0
1480611993048301,-2,-2,0,-1,-7,0,-4,0
1480611993069357,-3,-1,-7,2,2,-1,0,0
1480611993069357,0,1,1,5,0,0,-1,-2
1480611993070861,1,2,1,0,1,2,0,-2
1480611993070861,0,-2,2,-7,-1,1,-2,0
1480611993083895,-1,0,1,5,-8,-7,-3,-1
1480611993083895,-1,1,-5,-6,-4,-9,-3,-3
1480611993090414,0,3,-1,6,12,6,2,-1
1480611993090414,-1,-9,0,-4,1,10,0,2
1480611993106957,3,4,-6,1,4,9,8,0
1480611993106957,-2,-8,4,3,2,4,0,0
1480611993108463,0,0,1,5,-5,-8,-2,-1
1480611993108463,-4,-4,-3,-8,-4,-5,-3,-3
1480611993136536,-2,-3,-5,-3,-1,5,-3,0
1480611993136536,0,5,-1,-1,1,1,-2,-1
1480611993138541,-1,-1,-2,0,-5,-9,-1,0
1480611993138541,-4,-4,0,-4,-4,2,0,1
1480611993143555,1,-3,5,10,-1,-3,-1,-1
1480611993143555,1,2,1,-2,2,0,0,0
1480611993150573,0,-2,-4,-6,0,2,-1,0
1480611993150573,4,4,2,1,-11,-5,-1,0
1480611993167618,-2,-4,4,-3,-2,-10,-3,-1
1480611993167618,0,2,-1,-1,3,6,-2,-1
1480611993169122,-5,-2,0,2,-4,-5,-1,0
1480611993169122,3,5,-2,3,6,7,1,-1
1480611993189677,-4,2,-1,-10,-6,-2,-2,-3
1480611993189677,-3,-7,0,-3,1,4,3,1
1480611993191184,1,0,-1,4,6,-1,-3,-1
1480611993191184,1,2,2,4,-4,-3,0,-1
1480611993211735,4,3,1,-1,3,0,-2,0
1480611993211735,0,3,-1,-1,-2,-2,-3,-1
1480611993213239,-6,-13,-6,-7,-7,-6,0,-1
1480611993213239,2,-2,2,0,1,0,-2,0
1480611993227278,-3,-3,-6,6,1,5,0,1
1480611993227278,-4,-2,1,1,3,0,1,-3
1480611993228782,1,3,2,0,0,-1,-1,0
1480611993228782,0,0,2,-2,1,-2,-1,-2
1480611993249335,0,1,-7,-8,-9,-5,-3,-3
1480611993249335,-2,-5,0,0,-11,-8,-2,1
1480611993250841,5,6,5,3,13,16,3,1
1480611993250841,-6,-11,-2,3,3,-1,1,-2
1480611993279416,-2,-4,-3,-7,-2,-2,0,2
1480611993279416,1,2,6,6,1,-3,-2,-2
1480611993280920,3,5,-3,-8,-15,-2,-4,2
1480611993280920,0,-4,-2,7,11,-2,7,3
1480611993287437,-7,-6,-2,-2,-1,5,-1,-4
1480611993287437,-1,4,-4,-4,0,-1,-1,0
1480611993288941,1,-5,0,6,-1,0,-1,-1
1480611993288941,0,-1,-3,-1,-2,-4,-5,-2
1480611993308994,1,1,3,-1,0,-9,0,1
1480611993308994,0,1,-2,-3,-1,1,1,1
1480611993315512,-2,2,1,0,0,0,-2,-2
1480611993315512,-1,-1,0,-3,-4,-4,-1,-1
1480611993323534,1,-4,-2,-1,3,-4,-1,0
1480611993323534,0,5,-6,3,1,-2,-4,0
1480611993330552,-1,0,6,1,8,14,10,3
1480611993330552,2,1,-3,3,-4,-2,-2,-1
1480611993346594,-8,-8,0,0,2,3,-3,0
1480611993346594,0,1,-1,-5,-6,-5,-2,-2
