timestamp,emg1,emg2,emg3,emg4,emg5,emg6,emg7,emg8
1480098842254396,-3,-4,-9,-5,-4,-4,-5,-4
1480098842254396,1,-1,10,5,1,1,3,1
1480098842255398,2,1,3,-1,2,3,-1,1
1480098842255398,-2,-3,10,2,2,1,2,-1
1480098842276493,-3,-3,-5,-2,0,-5,-3,-3
1480098842276493,0,1,3,1,-1,2,2,2
1480098842277457,-5,-2,-3,2,4,5,5,2
1480098842277457,4,4,6,1,-5,-2,-3,-5
1480098842291520,1,2,5,-2,-3,-7,-10,-1
1480098842291520,-4,-3,-3,-2,-5,4,17,-2
1480098842299539,0,-1,-4,1,1,-6,-6,-1
1480098842299539,2,1,3,-1,-1,-1,-2,2
1480098842314589,-12,-1,-12,-1,-1,-2,-7,0
1480098842314589,1,-1,-6,-1,0,0,-6,0
1480098842315559,-1,0,2,0,1,-3,-1,-2
1480098842315559,0,-1,-2,-3,-5,-1,-1,0
1480098842337168,5,2,7,0,-2,-2,-2,2
1480098842337168,-4,-1,0,0,0,0,-6,-1
1480098842338191,-2,-1,-2,-1,6,4,5,1
1480098842338191,-3,-2,-7,3,3,2,-3,1
1480098842360229,1,1,3,0,-3,0,3,-2
1480098842360229,1,0,-1,-2,-3,-4,-3,0
1480098842361260,1,-4,-7,-5,-6,-5,-4,-3
1480098842361260,-2,-1,2,-2,-5,-8,-16,0
1480098842374266,1,1,0,4,11,15,22,-2
1480098842374266,3,2,-1,-2,0,5,5,1
1480098842375270,-1,-1,-9,-4,-4,-5,-4,-1
1480098842375270,-3,1,11,4,-3,-4,-2,0
1480098842397329,0,-2,0,-3,-4,-3,-5,-1
1480098842397329,-3,-1,0,-2,2,0,-7,-4
1480098842397329,2,2,2,3,11,6,11,-2
1480098842397329,-2,-1,-7,-2,4,7,9,6
1480098842420458,7,-1,-6,-2,-3,-8,-9,-2
1480098842420458,0,-2,2,-5,-11,-5,1,-2
1480098842420958,1,0,5,-1,-7,-7,-7,-1
1480098842420958,-2,-2,-20,-5,1,2,9,-4
1480098842434058,2,4,6,5,7,7,-2,2
1480098842434058,0,-4,-5,-2,-1,-1,4,0
1480098842435008,-13,0,2,-2,-4,-3,-8,-2
1480098842435008,7,-1,-2,1,-4,-3,-2,-2
1480098842465109,-1,-2,3,-1,-1,-5,-2,3
1480098842465109,-4,0,-4,-2,2,-5,-14,-11
1480098842466092,5,1,1,0,-3,3,5,7
1480098842466092,-3,1,2,3,9,9,3,-2
1480098842480129,1,-1,-3,-2,-2,-1,2,1
1480098842480129,2,-1,0,0,-4,-1,-5,3
1480098842481131,-3,-2,-4,-1,-10,-8,-2,-3
1480098842481131,-2,0,0,-5,-1,-3,-3,-1
1480098842494166,-2,-1,1,2,2,2,4,-2
1480098842494166,0,1,1,1,4,3,0,2
1480098842495167,0,0,-3,-1,3,3,-2,-3
1480098842495167,1,-1,-2,-4,-7,2,4,3
1480098842517261,-4,-3,0,-2,-2,-3,-1,0
1480098842517261,-3,2,-2,0,-3,-5,-2,1
1480098842517765,-1,-2,0,1,2,-2,-5,0
1480098842517765,1,2,3,2,-1,-4,-6,-3
1480098842540329,0,-1,0,-3,-4,-3,6,0
1480098842540329,-1,-2,-16,-3,4,1,1,3
1480098842541333,0,-1,0,-1,2,5,1,2
1480098842541333,2,0,5,3,2,0,-1,-1
1480098842554375,-3,0,-2,-2,-10,-3,-1,-3
1480098842554375,-6,-2,1,0,2,-4,-17,-11
1480098842555368,5,2,8,3,7,7,23,17
1480098842555368,-4,-4,-15,-3,-1,4,6,-5
1480098842577443,-4,3,8,2,0,-1,6,1
1480098842577443,0,1,0,-1,-4,0,3,1
1480098842577443,0,-2,6,4,-3,-5,-8,-9
1480098842577443,0,1,-6,-3,-2,-7,-7,-1
1480098842600486,-1,-1,6,2,3,2,1,0
1480098842600486,2,-1,0,2,2,6,5,3
1480098842601489,-1,-1,-1,-3,0,-1,-6,-4
1480098842601489,-4,-3,0,0,-4,-4,1,1
1480098842614525,-1,-3,-9,-4,-1,-10,-13,-7
1480098842614525,0,-2,4,2,-6,5,10,7
1480098842615530,3,-1,-1,0,4,2,0,-1
1480098842615530,-1,0,3,0,0,-5,-12,-5
1480098842637337,1,1,8,5,5,9,8,5
1480098842637337,2,-3,-8,-4,-6,-4,-5,-4
1480098842637337,-2,-1,-4,0,-5,-3,7,0
1480098842637337,-1,-1,-3,-5,-4,-3,-7,-2
1480098842660361,-4,-2,-5,-4,-3,-1,-4,-3
1480098842660361,2,3,16,7,0,4,12,3
1480098842661365,-4,-1,-14,0,11,5,-8,-7
1480098842661365,4,1,0,-1,-3,0,2,4
1480098842674424,1,-3,-1,-9,-4,-1,-4,-2
1480098842674424,0,0,3,3,5,2,-3,5
1480098842675402,-5,-1,-3,-6,-6,-2,-2,-1
1480098842675402,2,3,12,2,1,3,3,2
1480098842696484,-2,-3,-20,-4,0,-2,-7,-3
1480098842696484,3,-1,4,-1,-3,-4,9,5
1480098842697478,2,-1,0,1,-1,-1,-5,-2
1480098842697478,-4,-3,-6,0,-1,-1,0,1
1480098842719523,2,2,8,4,-3,0,-3,-3
1480098842719523,-1,1,-2,0,1,-2,-1,-2
1480098842727046,1,-1,6,1,4,5,-1,0
1480098842727046,-3,-1,0,-2,1,-2,6,0
1480098842734571,2,0,2,2,6,3,1,3
1480098842734571,-4,-2,-4,-4,-4,-4,-5,-3
1480098842735574,0,-1,4,-1,-8,-6,-5,1
1480098842735574,-1,-1,-2,0,4,3,-1,-2
1480098842756633,-2,-2,1,3,4,0,1,2
1480098842756633,1,3,-4,-3,-2,-1,1,-3
1480098842757633,0,0,-6,-4,-5,-3,-1,2
1480098842757633,2,-1,-1,1,2,-2,1,0
1480098842779693,3,-1,-4,1,-4,0,1,4
1480098842779693,-1,0,-2,-2,1,1,-3,-1
1480098842780695,2,-1,1,0,-2,0,2,1
1480098842780695,1,3,0,-1,2,4,1,1
1480098842794739,-7,-3,-1,-3,-1,-5,-5,0
1480098842794739,-5,-2,-1,-1,-1,-2,1,-9
1480098842794739,3,-1,-4,-1,-2,-1,-1,1
1480098842794739,1,-1,4,1,-10,-2,1,-2
1480098842816798,3,2,-3,-2,1,-4,-6,-2
1480098842816798,0,1,1,2,4,4,0,4
1480098842817793,-3,0,-4,-2,-2,-3,-3,-4
1480098842817793,1,0,3,1,-3,-3,10,1
1480098842839645,-1,-3,-3,-1,-1,3,5,-1
1480098842839645,-3,-1,-1,0,5,0,-5,-1
1480098842840659,-2,0,-2,-2,-6,-5,0,-2
1480098842840659,-1,-1,0,-3,0,-2,-5,2
1480098842854680,0,1,-3,1,1,-1,-2,-2
1480098842854680,1,-1,2,-1,-1,0,2,0
1480098842855731,-1,1,-4,-2,0,-1,-4,1
1480098842855731,-2,-2,1,1,4,1,2,-4
1480098842876739,0,0,1,-3,-2,1,6,0
1480098842876739,3,-2,-1,-3,-3,-1,-4,-2
1480098842877742,2,0,-2,0,5,-1,0,-1
1480098842877742,-4,0,-2,-2,-4,-1,-6,1
1480098842899808,1,1,0,2,3,2,4,1
1480098842899808,-3,-1,0,1,0,0,-4,-3
1480098842900806,3,-1,-1,-2,-6,-4,4,1
1480098842900806,0,-2,-3,-3,-1,-2,-1,-2
1480098842914841,-3,-3,3,1,1,4,1,-2
1480098842914841,0,0,-1,1,2,-5,-11,-1
1480098842914841,-5,-3,-5,-2,-3,5,5,-2
1480098842914841,1,1,5,4,0,0,0,5
1480098842936589,1,1,1,-2,1,0,-1,-2
1480098842936589,-4,-2,-1,-2,-4,1,2,-4
1480098842937591,2,0,-1,-3,2,0,0,-1
1480098842937591,-1,0,-2,-2,0,-2,-2,-1
1480098842959650,1,0,0,2,1,2,-3,-1
1480098842959650,0,0,1,-1,-1,-3,-2,-1
1480098842960691,-3,1,-4,-3,-5,-3,-4,-1
1480098842960691,-2,0,-1,-1,1,1,0,-3
1480098842973693,0,-2,0,-1,3,1,-3,2
1480098842973693,0,2,3,1,0,-3,0,-2
1480098842981733,-4,-4,-9,-3,-5,-10,-16,-3
1480098842981733,0,-2,-4,-3,-2,4,3,1
1480098842996778,-1,1,4,4,-2,0,12,2
1480098842996778,2,0,0,0,5,7,6,3
1480098842997760,1,2,2,-1,0,-1,-7,-3
1480098842997760,2,-1,2,0,-4,-3,-1,-1
1480098843019822,-5,0,-3,-3,2,0,-5,-1
1480098843019822,2,-2,-2,-3,-8,-5,-1,-3
1480098843020327,0,1,2,3,6,3,8,4
1480098843020327,1,0,-4,-2,-1,-4,-10,1
1480098843042739,-1,1,2,-4,-9,-2,2,-1
1480098843042739,-3,-2,-3,1,5,1,5,3
1480098843043732,-4,-2,2,0,1,0,-6,-5
1480098843043732,1,-1,0,1,-1,3,2,3
1480098843056759,0,3,-2,0,0,-6,-6,-1
1480098843056759,-3,-2,-3,-2,-2,-3,-3,-2
1480098843057762,-1,-1,1,2,-2,-1,2,0
1480098843057762,-1,0,-3,1,4,2,1,-2
1480098843079819,-1,-1,-2,-1,1,4,0,-1
1480098843079819,1,1,1,1,-4,-1,-2,0
1480098843079819,1,1,-1,-4,-2,-1,3,-1
1480098843079819,-2,-3,1,-1,-2,-5,-1,-3
1480098843093858,0,-2,-4,-3,-4,-3,-7,-1
1480098843093858,-1,2,0,1,5,3,3,0
1480098843109899,-1,-2,1,0,-6,-1,-6,0
1480098843109899,0,2,2,1,5,-5,-3,-5
1480098843116919,2,-3,-5,-2,1,4,9,5
1480098843116919,1,-1,1,2,-4,1,0,0
1480098843117923,-2,0,1,1,6,5,1,5
1480098843117923,0,0,-5,-2,-5,-2,0,0
1480098843139588,-3,-3,2,1,2,-3,1,-3
1480098843139588,8,1,-3,-1,-4,0,1,2
1480098843140568,-4,-1,-1,-1,1,-1,4,-1
1480098843140568,-2,-2,-1,-1,0,-2,-4,0
1480098843153631,2,-1,0,-2,-3,1,-5,5
1480098843153631,-3,-1,0,-2,-4,-4,-1,-1
1480098843161628,1,1,2,2,2,1,0,-3
1480098843161628,-2,1,-3,0,3,2,3,1
1480098843176666,-2,-2,-1,0,-2,0,0,-4
1480098843176666,0,-1,1,0,0,-3,-4,1
1480098843177670,1,1,-1,-1,1,0,6,0
1480098843177670,-2,-1,3,-1,-3,-1,-12,1
1480098843199729,1,0,0,1,2,5,4,1
1480098843199729,3,2,-2,0,5,2,-1,-1
1480098843200728,-13,-5,-1,-1,-7,-7,-3,-5
1480098843200728,0,-1,2,-3,-3,-2,-1,0
1480098843213783,1,2,0,1,3,-5,-10,-2
1480098843213783,-3,-3,2,1,3,6,6,2
1480098843222298,2,3,0,-2,-6,-5,-1,-6
1480098843222298,0,-1,-3,-1,-2,-4,-3,2
1480098843237338,0,1,2,-1,-1,-1,1,0
1480098843237338,-3,-1,-9,-1,-1,-1,6,4
1480098843237338,1,-1,0,1,5,5,4,1
1480098843237338,-2,1,1,0,-1,0,3,-2
1480098843259393,2,-2,-1,-1,-4,-3,-1,0
1480098843259393,-4,0,-3,-3,-3,-5,-7,-3
1480098843260396,1,0,-2,-1,1,2,-5,2
1480098843260396,1,0,0,0,-2,2,14,-1
1480098843282457,-1,-2,1,0,0,-1,-3,-3
1480098843282457,-1,-2,2,0,2,1,1,0
1480098843283458,1,-1,-1,1,2,-1,0,2
1480098843283458,0,-1,-1,0,1,-5,-7,-5
1480098843296495,-1,0,1,1,6,7,4,1
1480098843296495,0,-1,-1,1,0,1,-2,-3
1480098843297512,-1,-4,-4,-4,-4,-6,-7,-5
1480098843297512,-2,-1,-4,-2,-5,-1,2,3
1480098843319584,-2,-1,-4,-2,-4,-7,-2,0
1480098843319584,0,0,5,0,2,2,0,-1
1480098843320576,-1,0,1,3,-1,1,-1,0
1480098843320576,0,1,-3,-3,0,-2,1,-1
1480098843342481,1,0,1,-1,0,0,-1,-2
1480098843342481,-10,-3,-1,-1,0,2,3,4
1480098843343483,0,-1,-3,-1,0,-1,-2,-3
1480098843343483,0,-3,-3,-2,-4,1,0,-2
1480098843356517,1,0,-1,-1,-2,-3,0,1
1480098843356517,2,0,-1,-1,3,0,-2,-1
1480098843357520,1,-2,-1,2,1,-2,9,1
1480098843357520,1,3,3,-1,1,5,4,5
1480098843379578,0,-2,-6,-2,1,0,-1,-3
1480098843379578,-1,-2,-2,-2,-5,-4,2,-2
1480098843380582,-2,3,5,-2,-5,1,2,3
1480098843380582,0,-2,-1,1,3,0,-2,-6
1480098843402648,0,0,2,0,-1,-3,-4,-1
1480098843402648,0,-2,-2,-2,0,-2,-1,2
1480098843403646,-1,1,3,2,-2,1,0,-1
1480098843403646,-2,-3,0,0,-1,2,-2,0
1480098843416678,0,1,0,-1,0,0,-3,2
1480098843416678,2,2,-1,-4,3,2,1,-1
1480098843417682,0,-1,2,-1,-3,-5,-6,-1
1480098843417682,-2,0,-3,-3,-5,0,1,-2
1480098843439753,-2,-3,-5,0,0,0,3,-4
1480098843439753,1,-1,-1,4,0,1,-2,1
1480098843439753,1,-1,-4,-3,4,3,3,2
1480098843439753,3,0,0,1,-2,-1,-5,0
1480098843462815,-11,-3,1,2,5,2,2,0
1480098843462815,0,0,-1,-2,-5,-2,-1,-5
1480098843463818,1,-1,-1,0,-1,2,1,4
1480098843463818,-1,-1,2,1,1,-2,-2,-2
1480098843476851,0,-2,1,-3,-8,-5,-2,-1
1480098843476851,0,-1,1,-2,-3,-4,-3,-1
1480098843477854,-3,-1,1,2,8,4,3,-1
1480098843477854,-1,0,-2,0,2,5,0,-1
1480098843498911,0,0,2,0,-2,-3,-3,1
1480098843498911,-1,1,-2,-3,-4,-4,-6,-4
1480098843499913,4,0,-1,-1,-2,-7,-12,-1
1480098843499913,-4,-3,1,-2,0,2,10,-2
1480098843523979,5,0,-5,-1,4,11,14,0
1480098843523979,3,-1,1,-2,-2,-4,-5,4
1480098843524480,-3,0,-4,-3,-2,-2,-4,-3
1480098843524480,-2,1,-1,1,0,0,-2,-1
1480098843537015,0,-2,0,0,0,-6,-5,-2
1480098843537015,3,1,3,3,3,2,0,0
1480098843538018,-6,-1,-4,-2,-1,3,6,0
1480098843538018,2,-1,0,0,0,-2,-5,1
1480098843559074,1,-1,-1,-4,-4,-3,-2,1
1480098843559074,-1,1,3,3,0,1,0,-4
1480098843560077,1,-2,-8,0,-2,3,-2,0
1480098843560077,0,-2,1,0,2,-4,-2,-3
1480098843583139,-2,-2,0,0,2,0,-10,-2
1480098843583139,1,-1,1,3,9,7,6,-1
1480098843584141,3,0,-3,-3,-1,1,9,4
1480098843584141,-2,-2,0,-4,-10,-4,-2,-3
1480098843597176,0,0,3,0,-3,-1,0,-1
1480098843597176,-2,-2,-5,-2,-2,-7,-5,-5
1480098843598180,-1,-1,-2,-1,-2,1,1,-2
1480098843598180,0,-1,-3,1,-3,-2,-3,0
1480098843619738,-2,1,-3,0,1,-2,2,-1
1480098843619738,-4,-4,-6,-1,-1,2,0,0
1480098843620241,0,3,4,2,1,-1,0,1
1480098843620241,1,-1,-1,-2,1,-4,-3,-1
1480098843642894,0,0,-1,2,0,4,4,-1
1480098843642894,-1,-2,0,1,5,9,13,3
1480098843643897,0,-2,0,0,-2,-2,-3,-2
1480098843643897,1,-1,0,1,2,0,0,0
1480098843656932,-9,-4,-1,-5,-8,-7,-10,-2
1480098843656932,1,2,-2,-3,0,-8,-5,1
1480098843657934,0,-1,4,1,-1,4,3,-4
1480098843657934,2,0,-7,0,4,5,5,5
1480098843679030,-1,2,-1,0,-1,-1,-3,-2
1480098843679030,0,-3,-1,-2,-9,-6,-3,-2
1480098843679993,2,3,7,1,4,-5,-7,-2
1480098843679993,-2,-2,-9,-1,-4,-2,3,3
1480098843703055,2,1,5,4,6,8,4,2
1480098843703055,-3,0,4,0,-1,0,-1,-1
1480098843703055,2,-5,-7,0,-1,-4,-2,-1
1480098843703055,-2,-2,8,0,-3,0,-3,-2
1480098843717092,0,4,1,-4,-7,-9,-2,-1
1480098843717092,1,-1,-6,-5,-7,-3,-2,0
1480098843718097,-1,-1,-1,0,4,3,2,-2
1480098843718097,0,-2,-2,-1,0,0,1,0
1480098843739166,1,-2,0,1,-5,-4,-1,-1
1480098843739166,-2,-2,2,1,5,1,-1,2
1480098843740168,0,0,-4,1,-1,2,2,-3
1480098843740168,-8,1,3,-3,-3,-6,-4,-1
1480098843762289,10,1,2,1,5,-4,-15,1
1480098843762289,-2,-2,-3,-1,0,15,27,2
1480098843763229,-1,-1,1,1,4,-2,-4,5
1480098843763229,-2,0,1,1,1,0,-1,-3
1480098843785314,-2,-3,-3,-1,-3,-3,-3,-3
1480098843785314,-1,0,-2,-1,-3,-6,-7,-2
1480098843786290,2,0,0,-1,-2,2,1,0
1480098843786290,-1,0,6,2,4,2,5,1
1480098843800327,-2,-2,-7,-3,-5,-1,2,2
1480098843800327,0,4,0,0,1,-1,-7,-3
1480098843801330,0,1,6,-3,-4,0,3,2
1480098843801330,0,-5,-7,-1,-2,1,-4,-1
1480098843822896,-1,-2,-6,-4,5,1,4,-3
1480098843822896,-2,-4,9,1,-5,-4,-7,1
1480098843823898,0,2,-8,0,1,-1,-2,-3
1480098843823898,0,-1,-1,-1,2,6,3,0
1480098843837092,-1,-1,5,1,-2,3,10,3
1480098843837092,-1,-2,-2,-2,-1,-6,-7,-2
1480098843838095,-3,-4,-5,-6,-6,-5,-3,1
1480098843838095,1,0,1,2,3,4,0,-1
1480098843859150,0,-2,-4,0,6,2,1,0
1480098843859150,0,-1,-2,-1,-4,-1,-3,-4
1480098843860152,-1,0,3,3,6,2,11,1
1480098843860152,1,1,5,-2,0,-3,-10,2
1480098843882247,0,1,2,1,1,6,9,1
1480098843882247,-2,1,-8,-1,-7,2,7,2
1480098843883215,-2,-2,3,-2,2,-4,-9,-8
1480098843883215,3,1,1,1,-6,-6,0,1
1480098843897284,-1,-2,-1,-3,-2,-4,-5,0
1480098843897284,0,1,-2,1,9,4,0,2
1480098843897284,0,-5,1,0,-5,2,1,1
1480098843897284,-2,4,-5,-3,0,-1,2,-2
1480098843919813,1,-2,-3,-1,-6,-1,-2,-1
1480098843919813,0,0,-3,-1,0,-1,0,0
1480098843920314,-2,-2,2,3,5,0,-13,0
1480098843920314,3,1,3,-2,1,4,9,-1
1480098843942956,-2,-2,-8,0,0,1,-5,-1
1480098843942956,-2,0,0,2,4,-3,-1,-6
1480098843943959,2,2,1,0,-3,3,5,3
1480098843943959,0,-2,-2,-3,-2,-5,-5,-1
1480098843955988,0,2,4,1,5,2,3,1
1480098843955988,-1,4,-2,0,-5,-5,-8,-2
1480098843964047,-1,-7,-4,-1,-1,-4,-3,-3
1480098843964047,-1,-1,-2,2,4,4,3,2
1480098843979081,1,0,3,1,-1,2,2,-1
1480098843979081,2,7,-1,-3,0,-1,-1,2
1480098843980052,-2,2,-3,-3,-6,-4,0,-3
1480098843980052,-4,-4,-5,-1,-6,-7,-11,-5
1480098844002132,0,-3,0,-1,4,6,12,8
1480098844002132,0,-1,2,4,5,7,5,3
1480098844003123,-4,-2,-3,-4,-2,-1,-2,-11
1480098844003123,6,2,-1,0,0,1,-2,7
1480098844016154,0,1,2,-2,-3,-4,0,-4
1480098844016154,-5,-3,-3,0,2,-1,-2,-2
1480098844024672,-2,-1,1,1,2,-1,0,2
1480098844024672,-1,-2,-1,-3,-6,-1,-2,-4
1480098844039451,-1,0,3,0,0,-5,-5,-4
1480098844039451,0,-4,0,-3,-4,-1,-2,1
1480098844040454,1,1,-1,-2,-1,0,-4,0
1480098844040454,-1,2,5,1,0,-1,-1,-3
1480098844062539,-4,-3,-11,-3,-3,-3,-1,-1
1480098844062539,-1,-1,1,-2,0,3,0,-2
1480098844063518,-2,-1,-1,2,1,-4,-8,-3
1480098844063518,1,0,2,2,1,9,14,3
1480098844076552,-2,1,-1,-2,-6,-2,-8,-1
1480098844076552,-2,-4,1,2,4,-3,-1,-2
1480098844091590,1,-1,-5,0,-4,-2,-2,1
1480098844091590,-4,-1,-7,-3,-2,-7,0,-4
1480098844099616,-2,-2,2,4,4,0,-2,-1
1480098844099616,1,0,-2,0,1,4,2,2
1480098844100633,-1,-1,-3,-3,-4,1,3,2
1480098844100633,-2,2,9,-2,-5,-10,-7,-5
1480098844122677,-1,-2,-6,0,-2,-1,2,0
1480098844122677,2,0,3,1,5,5,-1,-2
1480098844123681,3,0,0,-1,2,6,7,3
1480098844123681,-14,-3,-4,-1,4,3,-4,-2
1480098844136685,-1,1,5,-1,-7,-4,-7,-3
1480098844136685,-2,-5,-7,-3,-6,-7,0,-2
1480098844144679,1,1,1,-3,1,1,0,-1
1480098844144679,2,1,-1,0,-2,-1,7,1
1480098844159720,-1,-1,-6,-1,1,1,4,0
1480098844159720,-4,-4,-1,0,-3,-2,-2,0
1480098844160723,2,2,1,-1,-9,0,4,2
1480098844160723,1,1,1,-1,6,0,-7,-2
1480098844181778,-1,0,0,0,-4,-1,0,0
1480098844181778,1,-2,5,-1,-2,-5,2,0
1480098844182781,-1,1,-3,2,2,1,3,0
1480098844182781,1,-3,-1,4,8,9,0,1
1480098844196838,1,1,-3,-5,-5,-5,-2,-2
1480098844196838,2,-1,4,-2,-6,-9,-13,0
1480098844204911,-2,-3,2,3,-2,6,15,2
1480098844204911,1,-1,-1,0,1,2,1,0
1480098844219879,0,-3,4,1,5,2,-3,-1
1480098844219879,0,1,-3,-3,-4,-2,-3,-1
1480098844220382,0,0,-2,-4,-2,-7,-6,0
1480098844220382,2,1,-3,0,-1,0,-1,-3
1480098844241958,1,5,4,2,4,2,1,-1
1480098844241958,-1,-1,1,-5,-7,-2,-1,-2
1480098844242962,0,-3,0,4,8,4,1,3
1480098844242962,4,1,-1,0,2,0,-2,-2
1480098844265018,-1,0,-2,-1,-3,-2,-4,-1
1480098844265018,-3,-1,0,0,-2,0,4,0
1480098844266034,0,0,-11,-4,-2,-4,-6,-2
1480098844266034,-4,-2,0,-2,-4,-1,-1,-1
1480098844279093,-1,-4,-1,0,1,-1,3,2
1480098844279093,-2,2,5,4,4,6,-4,-5
1480098844280057,1,0,-2,-1,4,7,7,1
1480098844280057,-2,-4,-4,-2,-3,-4,-4,0
1480098844302125,0,0,-3,-2,-6,-6,-10,-2
1480098844302125,-2,-2,-4,-3,-8,-6,3,-5
1480098844303120,3,3,9,1,4,-2,-5,3
1480098844303120,-4,-4,-15,-2,-4,-1,1,-1
1480098844325220,-1,-1,2,0,3,-1,6,-2
1480098844325220,1,2,1,2,0,-2,-5,-2
1480098844326202,-3,-5,-4,-1,-1,1,-5,-5
1480098844326202,3,6,6,0,0,2,4,1
1480098844339792,2,-3,-4,2,-1,-2,-9,1
1480098844339792,-13,-2,3,-2,2,3,4,-2
1480098844339792,0,-2,2,-2,-6,-5,7,-1
1480098844339792,1,-4,1,1,-4,-2,1,2
1480098844361851,0,8,3,2,1,4,-2,-2
1480098844361851,3,0,-4,-1,6,-2,2,1
1480098844362815,3,1,-1,-2,-2,-1,-7,-2
1480098844362815,-5,-2,-9,1,-4,-4,12,0
1480098844384875,-1,-7,-11,-3,0,5,1,-1
1480098844384875,-3,-1,-1,-3,-4,-3,-2,1
1480098844385878,-1,-4,-8,-1,-3,-1,-3,0
1480098844385878,5,2,9,1,2,-3,-5,-3
1480098844398937,-2,-2,1,-2,3,3,1,-2
1480098844398937,-1,-3,-7,-2,-5,2,6,3
1480098844399913,-2,3,4,-1,1,-5,-6,-2
1480098844399913,0,-1,0,2,1,1,-2,-2
1480098844421978,-4,-3,0,-5,-3,-2,2,0
1480098844421978,1,-1,4,1,-1,2,1,-1
1480098844422981,-3,1,-3,1,-3,-4,-2,-2
1480098844422981,1,-2,0,0,1,3,-1,2
1480098844445547,2,4,1,1,-1,-3,-2,-3
1480098844445547,-9,-2,-5,-1,3,2,-3,-3
1480098844445547,-1,-1,5,2,1,-2,-3,-2
1480098844445547,1,-2,-6,0,-1,5,13,1
1480098844459584,3,1,7,-1,-2,-4,-6,0
1480098844459584,5,-2,-7,-2,-1,-2,4,1
1480098844460595,-5,0,-4,-4,-3,0,-1,-1
1480098844460595,-5,0,5,1,1,-4,-9,-4
1480098844481641,2,1,8,0,-6,-4,11,4
1480098844481641,2,0,-4,2,8,1,-3,-1
1480098844482643,-1,-1,-2,-1,0,1,1,-1
1480098844482643,1,-2,-2,-4,-9,-6,-4,-1
1480098844505706,-1,1,1,0,5,4,1,-1
1480098844505706,5,2,4,1,1,-1,-4,1
1480098844505706,-1,-5,-5,-6,-5,-1,10,0
1480098844505706,-3,5,9,-1,1,0,-5,1
1480098844519742,-3,-1,-15,-1,-1,-1,-2,-9
1480098844519742,2,0,3,1,0,0,-8,0
1480098844519742,0,0,-2,0,0,-1,-4,-2
1480098844519742,2,-2,0,0,-2,-3,1,3
1480098844542354,-3,0,2,-1,-3,1,0,-1
1480098844542354,1,1,6,1,6,3,-2,-1
1480098844542354,0,-1,-6,0,-4,0,0,1
1480098844542354,-3,-1,-1,-2,-1,-1,-3,-3
1480098844565416,0,-2,-2,1,-1,-1,-3,1
1480098844565416,4,-1,-3,0,-2,-2,6,2
1480098844565416,0,2,6,4,5,0,-3,1
1480098844565416,-5,-2,-2,-4,-1,1,7,-5
1480098844579469,-2,-4,-7,-2,-2,-2,3,0
1480098844579469,-1,-2,-1,-1,-7,-2,-1,-1
1480098844580461,3,5,6,5,5,1,-2,0
1480098844580461,-1,-3,1,-2,0,-1,-4,1
1480098844610536,-2,-2,-6,-1,-1,-2,1,1
1480098844610536,0,-1,0,-3,-6,-5,-1,-2
1480098844610536,-3,-1,0,-2,-2,0,-3,-2
1480098844610536,0,-1,-3,2,4,1,-8,1
1480098844625598,0,2,1,-2,3,5,2,0
1480098844625598,0,-1,-5,-4,-1,0,-1,-3
1480098844626095,-2,1,1,0,0,-3,1,2
1480098844626095,0,-1,-4,-3,-6,-3,2,0
1480098844639210,-2,-1,-1,0,-1,0,-2,-3
1480098844639210,-1,1,0,-1,-1,-3,-5,-1
1480098844640210,-3,-2,3,1,7,4,5,-3
1480098844640210,3,1,-7,-1,-1,0,0,0
1480098844662283,0,0,3,-3,-4,-2,1,2
1480098844662283,-1,0,-3,1,-1,2,-2,2
1480098844662283,0,-2,-1,-1,-1,0,4,-1
1480098844662283,-2,-1,-1,-1,-3,-5,-12,-4
1480098844685355,2,-1,1,-1,-1,3,13,0
1480098844685355,-1,-1,0,1,-4,-5,-3,0
1480098844686354,0,0,-2,-2,-2,1,-2,-2
1480098844686354,4,-1,-2,1,1,3,0,-2
1480098844699368,-9,-2,2,0,0,-1,-9,-1
1480098844699368,1,0,2,0,-3,-2,4,0
1480098844700372,-1,-3,-2,0,5,-1,-2,0
1480098844700372,-1,1,-2,-3,-2,2,5,-2
1480098844721984,1,-1,0,0,2,1,-1,2
1480098844721984,1,-2,-1,-2,-1,0,3,-1
1480098844722970,-3,0,-9,-2,-8,-5,-11,-5
1480098844722970,1,0,2,1,2,0,8,0
1480098844745181,2,-2,-5,-2,1,-3,-10,0
1480098844745181,-2,-1,-4,-2,-1,1,4,2
1480098844746149,3,3,3,-1,-4,-1,0,-1
1480098844746149,0,-1,-1,0,4,-1,-3,-2
1480098844759184,-1,-1,-1,-1,-3,-2,-6,-2
1480098844759184,-2,-1,2,2,8,1,-1,-1
1480098844760186,0,-3,1,0,-1,1,1,3
1480098844760186,-2,1,-2,-3,-4,-2,-2,0
1480098844782270,-1,-2,-1,-3,-2,-5,-3,-4
1480098844782270,1,0,-1,-1,-2,0,-1,-1
1480098844782270,-3,0,1,-1,2,0,2,-1
1480098844782270,0,-1,-3,-2,-1,2,-5,0
1480098844805307,1,1,2,2,-1,3,10,2
1480098844805307,-4,-3,3,-3,-3,-6,-1,-2
1480098844806329,-3,-2,-3,-2,-8,-6,-3,-2
1480098844806329,-1,-2,-1,0,-1,-5,-2,-1
1480098844819343,-2,-1,-1,-1,3,4,-3,-1
1480098844819343,1,2,4,2,5,6,-1,2
1480098844820346,0,0,-5,-3,-2,2,3,0
1480098844820346,-4,-3,-1,-5,-7,-6,7,-2
1480098844842440,-1,0,-1,0,1,-2,-4,-2
1480098844842440,1,1,-1,-3,0,-3,-7,-2
1480098844842440,1,0,0,-1,-4,-3,4,-2
1480098844842440,-9,-1,1,2,4,6,-1,0
1480098844865537,1,0,0,-1,-2,0,9,-2
1480098844865537,0,-1,-5,0,3,2,3,0
1480098844865537,1,0,8,-2,-1,-2,-5,0
1480098844865537,3,-1,-3,-2,-4,-3,-4,0
1480098844878546,-1,-4,-2,1,0,-1,1,-1
1480098844878546,1,4,-3,0,-3,-1,-3,-1
1480098844886562,-1,0,4,0,-2,0,1,-2
1480098844886562,0,-2,0,0,4,-1,0,-1
1480098844901609,0,2,-1,-1,-2,6,0,2
1480098844901609,3,-1,1,2,11,9,13,3
1480098844902602,-1,0,-8,-5,-7,-2,-3,1
1480098844902602,-1,2,15,2,-2,-1,-3,-1
1480098844932739,-2,-3,-12,-1,-2,-5,-1,0
1480098844932739,-3,-1,0,-4,-12,-5,-5,-3
1480098844933736,2,0,-6,1,4,4,1,4
1480098844933736,-1,-1,2,4,10,2,0,-6
1480098844938853,0,4,8,2,1,1,-2,1
1480098844938853,-3,-1,0,0,-6,-3,0,-2
1480098844946866,-4,-3,-1,-4,-2,-3,-4,-1
1480098844946866,1,-1,-5,-3,-4,-5,-5,-1
1480098844961909,0,-1,1,-1,0,4,1,2
1480098844961909,-1,0,-3,1,5,-1,0,0
1480098844962910,-3,-3,-2,-2,-6,-6,-2,-3
1480098844962910,-1,-2,-2,0,-3,0,-4,0
1480098844984969,0,2,1,2,11,6,1,1
1480098844984969,1,-2,2,-1,-3,2,9,1
1480098844985970,1,-2,-5,-2,0,0,0,-2
1480098844985970,-2,-3,0,-1,-3,-4,-2,-2
1480098844999008,-2,-2,1,-2,-5,-9,-1,-1
1480098844999008,-2,-2,-4,-2,-6,-3,-4,-4
1480098845007042,-2,0,3,3,8,5,-3,-1
1480098845007042,0,1,-1,3,2,8,8,2
1480098845022069,-1,-1,-7,-5,-4,-3,-1,-1
1480098845022069,1,-3,-4,-2,-2,-4,-6,-2
1480098845023072,1,-1,1,-2,-5,-7,-1,-2
1480098845023072,-9,0,-3,0,1,1,5,2
1480098845045742,0,-2,3,2,3,-2,-5,-3
1480098845045742,2,2,1,3,1,4,11,-2
1480098845045742,3,1,0,2,9,12,18,5
1480098845045742,2,-2,-2,-5,-6,-3,-6,2
1480098845058776,-1,0,-1,-1,-8,-7,-1,-2
1480098845058776,-5,-2,-1,0,5,1,-8,0
1480098845066797,2,1,10,1,-3,-2,-3,-2
1480098845066797,1,0,-6,-1,0,0,3,2
1480098845081838,-1,0,0,-2,-2,-3,1,-1
1480098845081838,-1,-1,-3,-1,0,-1,-6,0
1480098845082839,-3,-2,2,-1,-1,-2,-4,-3
1480098845082839,4,0,1,0,-1,0,-1,2
1480098845112919,-1,-2,-2,0,-2,-6,-4,-2
1480098845112919,-1,1,-2,0,3,7,1,1
1480098845113924,-1,-2,-2,1,0,-2,-1,-2
1480098845113924,3,1,4,1,1,-1,1,0
1480098845118980,-2,-2,-2,-2,-3,-7,-17,-4
1480098845118980,0,1,0,-1,-5,1,17,2
1480098845126962,-2,-1,-3,2,3,3,-4,-1
1480098845126962,2,-1,-4,0,9,4,-1,2
1480098845142604,0,-2,5,3,-4,-4,-3,-1
1480098845142604,-4,-6,-12,-9,-9,-4,0,-4
1480098845149622,1,1,-8,-3,-5,-2,-3,3
1480098845149622,-2,3,5,1,2,-1,-2,-2
1480098845164664,0,1,1,1,2,3,7,2
1480098845164664,1,0,5,0,2,-4,-12,-1
1480098845165665,-1,-1,-1,-1,0,0,6,2
1480098845165665,1,1,3,-4,-4,-2,0,0
1480098845178719,-4,-3,-8,-2,2,3,1,0
1480098845178719,-1,-3,3,1,-2,-3,-5,-3
1480098845186725,-1,2,0,-3,-2,-5,-6,-5
1480098845186725,3,1,6,3,-3,-4,-5,1
1480098845202782,2,0,-5,-4,4,6,10,-2
1480098845202782,0,1,-1,2,2,0,1,2
1480098845202782,-2,-3,3,1,-1,-1,-1,0
1480098845202782,-1,-2,-6,-1,-5,-3,-4,-2
1480098845225340,1,0,3,-1,-2,-4,-5,-1
1480098845225340,-1,1,-5,2,4,12,6,0
1480098845226329,-1,-2,5,3,2,-3,-7,-2
1480098845226329,-1,-2,-7,-2,-3,1,10,-1
1480098845247888,0,-2,3,-1,3,-1,-3,1
1480098845247888,0,0,4,-3,-4,-10,-11,-2
1480098845248891,0,0,-4,3,-4,3,1,-1
1480098845248891,-3,-2,-3,0,1,1,-5,-3
1480098845261926,0,-1,-10,-2,3,0,1,1
1480098845261926,0,-1,3,-2,-1,-3,-3,-3
1480098845262928,0,1,-1,-3,-2,-3,2,1
1480098845262928,-1,-1,-2,1,3,5,0,-2
1480098845293008,1,2,6,4,1,4,-1,2
1480098845293008,-1,1,-3,-1,-1,0,11,12
1480098845293008,0,-2,-4,-5,-3,-3,-4,-2
1480098845293008,-1,0,0,-1,3,4,1,1
1480098845308047,-2,-1,2,-1,-1,-2,-2,-2
1480098845308047,0,-1,0,2,-3,-1,-2,0
1480098845308047,-1,-1,5,-1,0,-3,-5,-1
1480098845308047,-1,-1,-4,-2,-1,-1,1,-3
1480098845322089,0,0,4,2,-1,-3,-5,0
1480098845322089,3,-5,-3,-2,-1,5,8,0
1480098845329610,-11,0,-3,3,1,-2,3,3
1480098845329610,2,-2,-1,-2,-5,-3,-3,-2
1480098845344682,1,-1,-3,1,6,0,-2,-1
1480098845344682,-2,1,0,0,0,0,1,-3
1480098845345685,2,-2,0,-1,0,1,0,-2
1480098845345685,0,0,-1,-2,-1,-2,-1,2
1480098845367744,-2,-1,0,-1,-7,-2,6,0
1480098845367744,1,1,7,2,4,-2,-6,-3
1480098845368748,-1,0,-5,0,0,4,-2,-1
1480098845368748,-3,-4,-13,-6,0,-2,-11,-2
1480098845381782,0,-1,-2,-1,-3,3,16,-4
1480098845381782,-2,0,-3,-3,-7,-5,-9,1
1480098845382783,2,0,4,3,4,1,-1,2
1480098845382783,0,0,0,-2,-4,-6,-1,-1
1480098845404844,2,1,0,2,2,4,-3,2
1480098845404844,-2,-3,-1,1,0,-3,-4,-1
1480098845405845,-1,0,1,-2,1,1,2,-1
1480098845405845,4,-1,4,1,1,1,2,3
1480098845427925,-1,0,0,-3,-4,-2,0,0
1480098845427925,-3,-7,7,2,-1,-3,-4,-1
1480098845428927,2,-1,-10,-5,1,0,1,1
1480098845428927,0,2,2,2,2,8,4,2
1480098845442154,0,1,0,1,3,2,6,2
1480098845442154,-1,3,0,-2,-3,-8,-6,-3
1480098845443155,-3,-2,2,-2,-5,-3,-1,-1
1480098845443155,-1,-1,1,0,-3,-4,1,-2
1480098845465213,-3,-3,-3,-4,-4,-4,-3,-1
1480098845465213,2,1,2,1,5,6,0,2
1480098845466216,2,0,0,0,1,-2,2,-1
1480098845466216,-2,0,-3,0,-4,0,4,-1
1480098845487271,-1,0,5,-2,3,3,1,1
1480098845487271,-2,-5,-12,-3,-5,-5,-4,-4
1480098845488274,0,1,6,2,0,1,8,0
1480098845488274,-1,-1,-7,-2,-3,-5,-2,1
1480098845502311,-1,-1,2,1,-3,-1,-5,-2
1480098845502311,-2,0,-1,1,6,7,0,-1
1480098845502311,0,-1,-2,-1,-5,-2,-3,0
1480098845502311,1,-1,6,0,0,-3,-2,-2
1480098845525374,0,1,6,2,2,0,0,1
1480098845525374,-2,2,-5,-3,-1,-4,-4,-2
1480098845525876,1,-6,-15,-1,0,-2,-6,-2
1480098845525876,-9,1,3,1,-1,4,11,4
1480098845547999,1,-1,-6,-4,0,-2,-4,-3
1480098845547999,-1,-1,-1,-2,-2,-3,-2,0
1480098845547999,2,2,5,0,2,-2,-4,-2
1480098845547999,-1,-3,-1,-1,-1,-1,-3,-3
1480098845562082,-3,-4,-1,1,-2,-3,1,2
1480098845562082,0,-1,-7,0,0,3,2,-1
1480098845563040,-2,0,4,-2,-2,-1,1,0
1480098845563040,2,-1,0,0,3,1,-2,-2
1480098845585117,0,1,0,-3,-3,0,-3,1
1480098845585117,2,-2,-1,-2,-6,-1,1,-4
1480098845586106,-2,-2,0,-4,-2,2,-3,1
1480098845586106,0,-1,2,3,12,3,3,-1
1480098845607157,-1,0,0,0,-1,5,10,-2
1480098845607157,0,1,1,-3,-2,-3,6,3
1480098845608160,-1,-3,-6,-5,-7,-3,-3,-1
1480098845608160,-1,1,7,1,2,0,-10,-5
1480098845622217,2,-2,-6,-2,-1,-3,-1,2
1480098845622217,-1,-1,3,1,2,5,1,-1
1480098845622715,2,0,0,0,4,0,0,-1
1480098845622715,1,-1,-4,-1,-5,-5,-2,3
1480098845644918,-2,-2,-2,-3,-8,-6,-1,0
1480098845644918,-1,-1,0,-1,3,-3,-5,-2
1480098845644918,-1,1,1,2,3,6,4,1
1480098845644918,-1,0,-2,0,0,-2,-7,-2
1480098845667961,-2,0,-2,-1,-2,-2,-8,-1
1480098845667961,0,0,2,-1,-2,1,3,0
1480098845667961,-2,-3,-4,2,-1,0,0,0
1480098845667961,2,0,-3,-2,0,1,3,-2
1480098845682000,-1,-1,1,-1,-2,-2,-3,-1
1480098845682000,-1,-1,0,0,-2,-2,-1,1
1480098845683000,0,1,3,1,-1,-4,-2,-1
1480098845683000,0,0,-1,0,-2,1,-2,-2
1480098845704056,1,-1,-7,0,3,1,4,0
1480098845704056,-2,-1,-2,-2,4,-2,7,0
1480098845705059,-4,0,3,1,-2,1,-1,-2
1480098845705059,1,0,0,-1,1,0,-10,2
1480098845735648,2,2,2,3,6,16,18,4
1480098845735648,-3,-2,-2,-2,-6,-4,-8,1
1480098845735648,0,-1,-3,-2,-4,-6,-3,-3
1480098845735648,-2,-3,-1,-1,-4,-2,-2,1
1480098845741731,-3,0,-2,-1,5,-1,-7,-1
1480098845741731,2,0,3,1,-1,3,3,1
1480098845742722,0,-2,-12,-3,-1,2,1,-1
1480098845742722,-2,1,-3,-1,-4,-3,-1,-3
1480098845764779,0,-2,-2,-1,-2,-5,2,1
1480098845764779,-2,0,5,0,-3,-1,1,-3
1480098845764779,-2,-1,4,0,4,-2,-1,0
1480098845764779,-1,-2,3,0,-1,-1,2,-1
1480098845787885,-1,-1,-3,-1,-2,-3,-8,-2
1480098845787885,-1,0,-3,-3,-4,-2,-2,0
1480098845788844,0,1,3,0,-2,1,-1,0
1480098845788844,2,2,0,0,2,1,3,1
1480098845801880,-1,0,3,0,1,-1,-2,-1
1480098845801880,-2,-2,0,-1,-5,0,-5,-3
1480098845802880,-2,-1,-2,-3,-3,-3,-2,-2
1480098845802880,-2,-1,5,-1,-5,-4,-6,0
1480098845824474,1,-1,1,4,8,12,13,1
1480098845824474,1,-1,-2,0,5,4,10,3
1480098845825443,0,-2,3,1,-3,-1,6,1
1480098845825443,-1,-3,-11,-5,-6,-7,-3,-1
1480098845848136,-1,-1,3,-5,-7,-7,-7,0
1480098845848136,-1,1,0,0,6,-2,-3,-1
1480098845848136,-1,0,2,1,1,1,0,-2
1480098845848136,-1,-2,0,-1,-4,0,4,-2
1480098845877214,3,0,1,1,4,2,-5,-1
1480098845877214,-3,-1,-1,0,1,5,2,2
1480098845878216,3,0,0,-2,-2,-5,-4,-1
1480098845878216,-1,-2,3,-3,-1,1,7,2
1480098845884232,0,-1,-1,-4,-6,-5,-4,-3
1480098845884232,1,-1,-1,-2,1,-5,-3,0
1480098845885234,-2,-1,1,0,1,0,-3,-1
1480098845885234,1,2,2,4,13,11,9,1
1480098845915350,-2,-1,1,-2,-5,0,0,0
1480098845915350,-2,1,-6,-2,-3,-1,1,-1
1480098845916316,-2,0,0,-3,-3,-3,-1,0
1480098845916316,0,-3,-3,-2,-6,-9,-7,-3
1480098845921380,-3,0,-2,-2,-7,-10,-19,-4
1480098845921380,0,2,0,6,13,12,12,0
1480098845929886,2,-1,1,1,1,4,1,1
1480098845929886,-1,2,-8,-1,1,2,0,1
1480098845944422,-1,-2,0,-2,-3,-9,-7,-2
1480098845944422,0,0,-1,-3,-9,-6,-4,-1
1480098845945430,-1,-1,-10,-3,-4,-1,1,1
1480098845945430,-2,0,4,2,7,3,1,-1
1480098845975507,-2,1,-3,2,1,3,5,-1
1480098845975507,3,-3,-4,-5,-6,-5,-4,3
1480098845975507,-2,0,5,0,4,-1,1,-6
1480098845975507,-1,-2,-5,-4,-12,-11,-10,-3
1480098845981525,-3,1,-1,2,3,6,9,-1
1480098845981525,2,1,3,4,8,7,-7,-1
1480098845996598,-2,0,-4,-4,0,5,5,2
1480098845996598,0,-2,-1,1,-5,-3,-2,2
1480098846004584,1,-1,-5,-3,-3,-6,-4,-1
1480098846004584,-4,-1,16,2,-1,-6,-12,-7
1480098846005586,4,-2,-5,-1,-1,2,3,5
1480098846005586,-4,-4,0,0,2,5,1,-4
1480098846035196,-3,2,-5,-6,-7,-2,2,0
1480098846035196,-1,-2,-7,-1,7,1,-2,-2
1480098846036174,-1,3,10,5,0,-2,-8,-1
1480098846036174,5,3,4,0,1,5,8,3
1480098846041362,-1,-8,-6,-3,-3,-7,-8,-2
1480098846041362,-12,-4,-14,-6,-9,-6,2,-1
1480098846049399,-1,3,0,0,-3,-5,-10,-3
1480098846049399,2,1,1,4,9,7,8,3
1480098846064421,3,-1,-1,0,-2,3,3,3
1480098846064421,2,0,-1,0,-3,-1,0,1
1480098846065415,-1,-3,-1,-2,2,-3,-3,-2
1480098846065415,-2,2,-1,-2,-3,-3,-9,-1
1480098846087514,1,-3,0,0,2,3,4,0
1480098846087514,-1,-3,-2,-3,-2,-3,0,-1
1480098846088480,-4,-2,0,-1,-1,4,5,0
1480098846088480,-2,-1,4,-3,-8,-4,-3,-2
1480098846101510,-2,-3,0,-1,5,2,3,2
1480098846101510,1,-2,-4,0,-1,-2,-2,-4
1480098846109532,2,2,0,1,2,-2,-1,0
1480098846109532,0,-1,-4,-1,0,4,3,1
1480098846124576,0,1,9,1,-3,-4,-9,-5
1480098846124576,0,0,-4,-3,-2,-1,-5,0
1480098846125577,0,2,-1,1,0,-3,-8,-2
1480098846125577,-1,-2,-4,-1,4,5,13,2
1480098846147332,0,0,3,1,1,2,-5,1
1480098846147332,2,1,13,1,-2,-3,-2,-1
1480098846148336,2,-4,-15,-3,0,0,3,1
1480098846148336,-3,-1,-2,-3,-6,-5,-8,-4
1480098846170432,-1,1,-5,1,1,-2,1,6
1480098846170432,0,-1,2,0,1,-1,-3,-3
1480098846171401,-3,0,3,1,-1,4,10,3
1480098846171401,3,0,1,0,-2,-4,-2,-2
1480098846184429,-1,-3,-5,-2,-3,-5,0,2
1480098846184429,1,2,2,1,4,5,0,-2
1480098846185432,-2,-2,0,-2,-2,-6,-2,-1
1480098846185432,-3,1,0,3,6,2,1,0
1480098846207491,-3,-1,10,-1,-4,0,-7,0
1480098846207491,-3,-5,-14,-7,-11,-5,7,0
1480098846208493,0,-1,1,0,3,4,0,1
1480098846208493,0,1,0,-1,1,-2,-2,-1
1480098846230603,-1,3,5,1,-2,-3,2,-3
1480098846230603,2,0,-9,-2,-1,-2,-4,4
1480098846231106,0,0,2,-1,-1,2,4,-1
1480098846231106,-3,-1,-3,0,-5,-6,-5,1
1480098846244175,3,2,6,2,6,6,6,-1
1480098846244175,-2,-1,1,0,-1,-3,-5,-5
1480098846245177,-1,-2,-8,-4,-6,-5,0,-2
1480098846245177,-3,-3,3,-1,2,0,-7,-3
1480098846266234,-1,1,-11,1,2,1,-4,-1
1480098846266234,2,-1,5,1,2,7,7,4
1480098846274255,0,0,3,0,-1,1,-7,-1
1480098846274255,0,-2,-9,0,1,1,8,0
1480098846290298,-2,-3,-6,-1,-3,-4,4,-2
1480098846290298,0,0,2,-1,-4,-6,0,1
1480098846291301,-3,-4,-4,0,-1,-1,-2,-1
1480098846291301,0,2,1,-2,1,-1,-4,-1
1480098846304369,-1,-1,0,-2,0,1,1,-2
1480098846304369,-1,-2,0,-3,-3,-3,-6,1
1480098846305337,-3,-1,-3,-2,-3,2,6,-7
1480098846305337,0,-1,8,1,1,-1,-2,3
1480098846328402,1,-3,-3,-1,0,4,6,2
1480098846328402,-1,0,-3,3,3,-2,-2,0
1480098846329420,4,1,3,-1,0,3,-11,-1
1480098846329420,-9,-3,-3,-3,-8,-1,7,0
1480098846349660,0,0,1,-2,4,-1,-7,-4
1480098846349660,1,1,2,3,-4,1,9,1
1480098846350677,-1,-4,-3,2,10,0,-7,2
1480098846350677,1,-1,-2,-1,0,5,7,-1
1480098846364701,2,-1,-3,-3,-6,-6,-6,-1
1480098846364701,-2,1,4,1,1,1,6,3
1480098846365704,-1,1,-2,0,-2,-3,0,0
1480098846365704,1,0,0,0,-2,-5,-8,-1
1480098846387799,-2,1,2,1,0,2,7,-1
1480098846387799,-1,-2,1,1,1,0,-7,-3
1480098846388777,-1,1,3,0,-1,-1,5,2
1480098846388777,1,-2,6,-1,-1,-1,-2,0
1480098846409847,-3,-2,-15,-2,-1,-1,-2,-1
1480098846409847,0,0,1,0,-1,-2,-1,-3
1480098846410824,-1,-1,2,-1,2,0,4,1
1480098846410824,3,0,-4,0,-3,-1,-4,0
1480098846424884,0,-1,4,1,5,7,6,1
1480098846424884,-2,1,-2,-2,-3,-4,-7,1
1480098846425387,-1,0,-6,-2,-4,-3,6,0
1480098846425387,1,-1,8,0,-2,-4,-5,-3
1480098846447967,-1,-1,-16,-3,-2,0,3,1
1480098846447967,-2,-1,1,2,4,0,-5,-2
1480098846447967,2,-1,6,0,0,3,9,-1
1480098846447967,3,0,-9,-3,-4,0,-3,-1
1480098846470043,-11,1,9,0,-4,-7,-7,-2
1480098846470043,3,0,-6,-3,2,1,0,0
1480098846471014,-1,-1,-2,0,-1,-2,-4,-2
1480098846471014,-1,-3,-3,2,9,5,5,-2
1480098846484093,2,0,4,2,-2,0,-4,-3
1480098846484093,-1,0,0,-2,-2,-1,1,-2
1480098846485065,-4,-1,8,0,-5,-3,-4,1
1480098846485065,1,0,-15,-4,-1,1,-3,-3
1480098846508110,1,-1,3,-2,-4,-3,1,3
1480098846508110,-2,0,2,0,3,0,2,-2
1480098846508110,1,-1,-1,1,1,2,-3,2
1480098846508110,-2,2,3,1,0,-2,0,1
1480098846530193,0,-2,1,0,-2,-4,0,1
1480098846530193,0,-2,-2,-4,-5,0,-2,1
1480098846531213,-1,-2,-3,2,0,-2,-9,-4
1480098846531213,1,0,5,1,7,6,5,0
1480098846544313,2,-2,0,-3,-3,-2,-3,-3
1480098846544313,-1,0,5,0,-2,-2,2,-2
1480098846545309,0,-2,-13,-4,-5,-5,-2,-2
1480098846545309,-1,-3,1,-2,-6,-3,-1,1
1480098846567420,0,2,1,0,9,3,0,1
1480098846567420,0,-1,-2,1,-2,1,4,-1
1480098846568370,-4,0,2,-2,2,0,3,-2
1480098846568370,-2,0,-2,-2,-8,-6,-10,-1
1480098846590431,0,0,0,-1,0,3,6,0
1480098846590431,-2,-2,0,1,2,0,-3,-1
1480098846590431,1,0,-1,-2,-3,-2,-1,2
1480098846590431,-1,1,5,1,1,-3,-5,-5
1480098846604466,-1,-3,-1,2,-3,-4,-2,3
1480098846604466,-1,-2,-3,-2,3,-2,-4,-3
1480098846605474,4,2,2,1,0,5,3,2
1480098846605474,-1,-4,-1,-3,-4,-3,-2,-2
1480098846628036,-2,-2,1,0,-5,-1,0,-3
1480098846628036,-1,1,0,1,6,3,1,1
1480098846628534,0,0,4,0,2,-2,-4,-2
1480098846628534,1,0,-1,0,-2,2,5,1
1480098846649671,1,-1,0,-5,-4,-3,-1,-1
1480098846649671,-1,-2,-5,0,-4,-1,4,2
1480098846650669,-2,-1,2,3,9,6,1,1
1480098846650669,0,0,-1,1,1,2,4,-2
1480098846664756,4,0,1,-2,-3,-2,0,1
1480098846664756,-14,-2,-5,-5,-6,-6,-3,-4
1480098846665715,2,1,1,-2,-4,-8,-4,0
1480098846665715,-1,-1,-2,-1,1,-4,-1,0
1480098846687801,-1,0,5,4,-2,2,-1,-2
1480098846687801,5,0,-3,0,6,9,10,4
1480098846688770,-4,-2,-12,-3,-6,-4,-9,-3
1480098846688770,0,0,-3,0,1,1,15,6
1480098846709838,0,1,2,0,-3,0,-4,-9
1480098846709838,1,0,2,0,-3,-5,-8,-2
1480098846710830,-3,-1,2,0,1,0,1,0
1480098846710830,0,-2,-3,-2,-3,-2,-7,-3
1480098846724909,-8,-2,-8,0,3,-3,-2,1
1480098846724909,6,0,7,-4,-6,0,3,-4
1480098846725410,1,-3,-5,0,5,4,9,4
1480098846725410,-3,1,-6,2,8,5,-4,-3
1480098846747621,0,2,5,0,1,1,0,0
1480098846747621,-4,0,-3,-3,-8,-6,-13,-5
1480098846748615,2,3,5,0,-4,-2,10,1
1480098846748615,-3,-5,-2,-3,-4,-5,-4,0
1480098846769684,0,3,-1,4,7,4,3,2
1480098846769684,0,0,0,1,2,0,-8,-1
1480098846770675,1,-1,0,-4,-4,-5,-1,0
1480098846770675,0,-1,-2,1,-1,2,0,2
1480098846783710,3,-4,-4,-2,-6,-3,4,0
1480098846783710,-8,-2,-10,-2,5,5,0,1
1480098846791731,-1,0,10,1,-1,3,1,-1
1480098846791731,2,-1,-10,-2,1,2,3,1
1480098846807814,-2,-1,1,0,-3,-6,-6,0
1480098846807814,2,-1,-3,-2,-4,-5,0,2
1480098846808778,-5,-4,-1,-1,0,3,1,-3
1480098846808778,3,1,6,1,1,-1,-6,-2
1480098846837531,2,0,-5,-1,6,3,0,2
1480098846837531,1,0,6,3,1,3,6,2
1480098846838520,-3,0,-2,-3,-3,-2,-3,-3
1480098846838520,0,1,6,1,-4,-5,-4,0
1480098846843574,-2,-2,-2,-2,-1,0,-2,-3
1480098846843574,0,0,-9,-2,2,-1,0,-5
1480098846851597,1,0,-1,0,-1,-2,-1,0
1480098846851597,0,-1,-1,-3,-2,-1,-1,1
1480098846867636,1,0,1,0,1,-1,-3,1
1480098846867636,1,0,2,2,4,1,7,3
1480098846868600,-1,-4,-3,-2,-9,-5,-11,-5
1480098846868600,-1,1,9,2,4,1,13,3
1480098846889658,-2,-5,-12,-1,2,5,6,0
1480098846889658,3,0,3,0,-1,-1,-6,-2
1480098846890660,-2,0,-2,1,1,1,3,0
1480098846890660,-3,0,2,-2,-2,-1,-2,-2
1480098846903734,1,3,6,0,1,1,-7,-1
1480098846903734,0,-1,3,4,-1,-1,6,2
1480098846911757,4,-1,-9,-2,3,2,0,0
1480098846911757,-1,0,-4,-2,-6,-9,-6,-3
1480098846927800,-1,1,10,1,-2,-2,-1,2
1480098846927800,0,-4,-15,-4,-2,2,-4,-1
1480098846928771,-1,1,5,0,1,0,1,3
1480098846928771,-6,-2,1,3,1,-3,-2,-4
1480098846950420,1,-2,-4,-2,0,2,5,1
1480098846950420,-1,3,10,1,-3,0,-3,-2
1480098846950420,-3,-3,-4,-1,-3,-1,-6,2
1480098846950420,-3,0,2,-1,3,2,0,-4
1480098846963528,1,-1,0,1,-4,1,13,3
1480098846963528,0,0,4,1,5,2,0,-6
1480098846971489,-4,0,-6,-6,-3,-7,-4,-4
1480098846971489,0,-2,4,1,-1,2,2,3
1480098846987574,-2,0,-6,-2,3,-1,-9,-2
1480098846987574,-1,-1,-7,-4,-6,-3,1,2
1480098846988520,-1,0,0,0,-1,-1,-1,-2
1480098846988520,0,0,-3,-2,0,-7,-6,-1
1480098847010579,-1,-2,-1,1,2,4,4,-1
1480098847010579,-2,-4,0,-1,-3,0,-2,0
1480098847010579,3,1,-2,1,-2,-3,-6,-3
1480098847010579,0,-1,2,-1,-5,-3,3,3
1480098847024165,-3,-2,-7,-1,1,2,-5,1
1480098847024165,-1,0,5,0,-2,1,4,0
1480098847032190,1,0,6,1,3,-4,-8,0
1480098847032190,2,-1,-10,-4,-3,5,5,0
1480098847047349,-1,2,-4,-1,0,-2,-1,-4
1480098847047349,-1,-2,-1,-1,6,5,1,3
1480098847048350,-2,-3,1,0,-7,-2,1,-2
1480098847048350,-1,0,-1,-1,0,-3,-7,-3
1480098847070434,1,1,2,-1,1,-1,-2,-1
1480098847070434,0,-1,0,-1,-4,-2,0,1
1480098847070434,-1,0,2,2,0,1,4,0
1480098847070434,0,-4,-8,1,-3,-1,-5,0
1480098847083481,-3,-2,1,-2,-1,0,3,0
1480098847083481,1,1,4,-1,-3,0,-3,-1
1480098847091503,2,0,-3,-1,2,3,8,2
1480098847091503,1,0,3,-2,-2,0,-2,0
1480098847107511,-2,1,5,1,-5,-6,-6,-5
1480098847107511,-3,-4,-10,-3,4,-2,-1,-1
1480098847108512,-1,0,3,-1,3,9,2,1
1480098847108512,-1,-3,1,1,3,3,7,0
1480098847131117,-1,2,1,0,-5,-4,-3,-2
1480098847131117,-1,-1,0,1,-1,-6,-7,-2
1480098847132088,-1,-1,-2,2,4,0,1,-3
1480098847132088,-2,-1,1,0,0,6,3,0
1480098847152361,-3,-4,-5,-1,-4,-1,-4,-3
1480098847152361,0,3,-11,-2,-3,-4,0,-2
1480098847153305,-2,-3,0,-1,-2,-2,0,1
1480098847153305,-1,1,0,0,1,0,6,1
1480098847167379,0,-1,3,0,-1,-3,0,-3
1480098847167379,-1,0,2,-2,-2,0,0,0
1480098847167379,1,-2,0,-1,0,-1,-4,-1
1480098847167379,3,1,-3,-1,1,1,1,0
1480098847190413,-9,-3,-5,-3,-4,-1,-1,-1
1480098847190413,2,-1,6,2,1,1,3,1
1480098847190413,2,2,-1,1,4,3,3,3
1480098847190413,-1,-2,2,0,-1,-3,-4,-3
1480098847212466,2,4,6,-2,2,0,0,-1
1480098847212466,0,1,-6,2,0,0,1,1
1480098847213459,-4,-4,-9,-3,-7,-2,-2,-2
1480098847213459,-1,0,2,1,-1,3,1,-2
1480098847227029,0,-3,-5,-3,-1,-5,-3,1
1480098847227029,-2,3,4,-2,-4,-3,-3,0
1480098847228000,0,1,-1,-1,-5,-3,1,-1
1480098847228000,-2,0,-3,2,4,5,0,-4
1480098847250144,1,-1,3,2,2,0,-1,0
1480098847250144,1,-3,-5,-2,-9,-6,-7,-1
1480098847251145,-2,-1,-5,-4,4,-2,5,-1
1480098847251145,1,0,-1,-1,0,3,-9,-5
1480098847272243,2,0,6,1,2,4,6,3
1480098847272243,-2,-2,5,2,1,1,4,3
1480098847273205,-3,-1,0,-3,-7,-7,-5,-3
1480098847273205,0,0,3,-3,-4,-5,-6,0
1480098847287243,0,-1,-9,-1,-2,-2,-2,0
1480098847287243,1,-1,14,3,1,4,-1,-1
1480098847287243,0,-1,-17,-5,-2,1,-4,0
1480098847287243,-1,4,-2,-2,0,-1,-1,2
1480098847310303,-5,0,7,-2,-4,0,-1,-3
1480098847310303,-2,-4,-13,-1,1,0,1,-2
1480098847311307,0,-1,2,3,5,2,-2,-5
1480098847311307,4,0,-7,-2,-4,-2,7,4
1480098847332941,-1,-4,1,0,-3,-2,-1,0
1480098847332941,-2,3,2,0,8,5,-3,-2
1480098847333900,0,1,5,0,-2,-3,6,2
1480098847333900,-4,-3,-3,-2,-10,-6,-5,-5
1480098847347055,3,2,-5,0,10,2,4,1
1480098847347055,3,1,9,1,0,7,9,0
1480098847348059,-2,-1,2,-1,2,0,-7,1
1480098847348059,-2,-1,11,4,-4,3,5,5
1480098847370162,-1,-2,-19,-4,-3,-5,-7,-3
1480098847370162,-3,-2,-3,-4,-3,-4,4,1
1480098847371120,1,1,1,0,-6,-5,-3,1
1480098847371120,-3,-2,-3,1,4,-1,-1,-3
1480098847392184,4,2,12,4,10,6,3,3
1480098847392184,-1,0,-6,-2,0,-1,-4,-1
1480098847393177,-1,-2,-7,-1,-1,2,-2,-2
1480098847393177,2,-2,-2,-2,-4,-6,-8,0
1480098847407228,3,-3,2,-1,-3,-2,1,-1
1480098847407228,-11,1,2,-1,-3,-8,-6,-4
1480098847407228,-1,-2,2,3,3,6,2,-1
1480098847407228,2,0,-4,0,6,0,-7,-1
1480098847430276,2,-1,-3,1,-1,3,6,2
1480098847430276,4,0,2,-1,0,1,1,1
1480098847431305,-2,0,4,-1,-9,-5,-1,-1
1480098847431305,-2,-1,-6,-1,0,0,3,1
1480098847453041,-3,-2,4,1,5,-1,-7,-3
1480098847453041,-1,-2,-5,-3,-6,-2,1,1
1480098847453041,0,0,2,6,9,4,1,0
1480098847453041,-1,-1,5,-3,-2,0,-5,-1
1480098847467126,-3,-5,-4,-3,-4,-1,3,-1
1480098847467126,0,3,4,0,-1,-3,-5,-1
1480098847468073,-1,-3,4,2,4,2,2,2
1480098847468073,-3,0,-8,0,0,0,0,0
1480098847490133,-5,-4,3,-1,-2,-4,-7,-2
1480098847490133,3,-2,-6,-4,-1,-2,0,-2
1480098847491134,1,2,6,0,-5,-6,-3,0
1480098847491134,-1,0,3,-2,3,1,5,0
1480098847512222,0,1,-7,-3,-9,-3,-2,-1
1480098847512222,-1,-3,0,0,8,2,2,-1
1480098847513203,-1,0,-2,-1,-3,1,2,-2
1480098847513203,1,-2,-1,0,0,2,2,1
1480098847527275,-1,0,-3,-3,-5,-3,-5,-3
1480098847527275,2,-1,-5,-2,0,-1,0,-2
1480098847527760,-1,-1,3,1,2,0,-1,-4
1480098847527760,-7,-1,-2,0,1,-2,-2,-2
1480098847549991,3,-1,0,-2,4,3,5,3
1480098847549991,2,-1,1,1,-2,3,2,1
1480098847550994,1,0,-2,-3,-1,0,-1,1
1480098847550994,1,-1,3,0,-3,0,1,0
1480098847573104,0,-2,-3,-2,0,-3,-5,-1
1480098847573104,-2,-1,-1,-2,-4,-3,6,-3
1480098847574055,-2,-2,-4,-2,-1,-1,-2,0
1480098847574055,0,-2,-1,1,1,-1,-2,-1
1480098847586135,0,5,3,2,4,-2,0,-1
1480098847586135,-2,-1,-4,-1,-3,-4,-8,-5
1480098847595113,2,4,5,2,3,1,3,3
1480098847595113,0,-3,-7,-5,-6,-4,3,-2
1480098847610151,-2,-3,2,-1,-1,4,3,-2
1480098847610151,-3,-1,0,2,-2,-4,-3,-1
1480098847612157,-1,1,-2,-2,5,0,-1,-1
1480098847612157,0,0,2,5,5,5,-3,1
1480098847632799,0,4,0,2,-5,-1,0,0
1480098847632799,-5,-2,2,0,0,2,-4,1
1480098847634724,0,-3,-5,-2,-6,0,6,1
1480098847634724,4,5,1,-2,-9,-4,0,0
1480098847646066,0,-1,-3,0,8,3,-2,-1
1480098847646066,2,1,3,4,4,3,-2,0
1480098847655095,-4,-3,-4,-3,-1,-1,-4,-3
1480098847655095,-1,-1,-1,-1,-5,-5,-2,-1
1480098847670124,-1,-1,0,-1,-7,-7,-5,-3
1480098847670124,2,2,-1,4,10,6,15,5
1480098847672152,-2,-1,-1,-2,-1,1,-10,-4
1480098847672152,0,-6,2,-2,0,-2,5,-3
1480098847700204,-3,3,0,1,-3,0,2,0
1480098847700204,0,-3,0,-1,-5,-4,-6,0
1480098847701220,0,1,0,1,-5,-2,1,0
1480098847701220,1,2,4,1,8,4,1,0
1480098847706265,-4,-5,-2,-4,-3,-3,-2,-3
1480098847706265,5,-2,-4,-3,0,-3,1,2
1480098847715244,2,4,4,1,0,0,1,-1
1480098847715244,-5,-4,-4,-1,2,2,0,2
1480098847730286,1,-3,3,0,-2,1,0,0
1480098847730286,2,1,-6,-3,-2,2,2,0
1480098847731808,-2,-6,0,-3,-5,-9,-3,-1
1480098847731808,-1,0,-2,0,-2,3,-2,-2
1480098847752920,-1,0,0,5,9,2,-3,1
1480098847752920,-3,-3,2,-1,-5,0,0,0
1480098847753923,4,-3,-6,-2,-1,1,2,-7
1480098847753923,-1,5,2,-1,-5,-5,-3,0
1480098847765949,-1,-9,-6,-3,-2,-1,-3,0
1480098847765949,-2,6,11,4,5,2,6,3
1480098847774974,-1,-8,-16,-3,3,1,0,1
1480098847774974,2,3,1,-1,-6,-1,-3,-1
1480098847790014,-6,0,2,0,2,-2,2,-2
1480098847790014,-2,-7,-15,-4,-3,-4,-6,-4
1480098847792019,-2,1,5,1,-2,-2,-1,3
1480098847792019,2,3,1,-2,1,-2,-2,0
1480098847813075,3,-3,-3,0,-1,1,0,1
1480098847813075,0,2,0,-2,-2,2,3,-3
1480098847814077,0,0,-2,1,0,-2,0,-1
1480098847814077,-5,-6,0,1,-4,-5,-3,-2
1480098847826626,0,0,-3,2,5,3,3,2
1480098847826626,-2,0,3,-1,-5,0,-3,0
1480098847835656,6,3,-4,-4,1,-4,-3,3
1480098847835656,3,-1,-1,-1,1,2,9,-4
1480098847850201,0,2,-1,-2,-9,-3,-1,-1
1480098847850201,-1,-2,2,1,3,3,-2,1
1480098847852219,1,1,-3,1,1,4,1,-1
1480098847852219,-9,3,3,2,4,0,0,2
1480098847872280,8,-7,-2,0,-3,-6,-3,-1
1480098847872280,-2,0,-5,-4,-7,-5,-5,-6
1480098847874248,5,-2,5,-1,-4,-5,-3,0
1480098847874248,7,-1,-4,-1,5,0,1,1
1480098847886291,-13,-1,2,-2,-3,2,1,-2
1480098847886291,6,0,-1,1,3,1,-2,3
1480098847895304,-7,-2,6,2,1,2,3,-2
1480098847895304,10,0,-8,-1,1,-1,-3,0
1480098847908341,3,0,3,1,-3,-2,-1,1
1480098847908341,-12,-4,-10,-4,-6,-5,-4,-3
1480098847917376,5,-1,10,2,-1,2,1,0
1480098847917376,0,3,-6,-3,-1,-2,-2,-2
1480098847932447,-9,-3,0,2,1,2,0,0
1480098847932447,6,-2,0,2,5,3,1,0
1480098847939079,-2,0,0,0,-1,-4,-1,1
1480098847939079,-6,-3,0,-2,-6,-7,-10,-4
1480098847946098,8,4,0,0,-2,5,10,2
1480098847946098,-5,2,2,3,8,5,0,1
1480098847955122,4,-1,-3,0,-3,0,-9,-2
1480098847955122,-15,-6,-1,-4,-2,-2,7,-3
1480098847970208,-3,0,1,-3,-7,-7,-8,-1
1480098847970208,1,-3,-14,-2,4,1,-1,-4
1480098847976185,-11,2,0,1,3,6,4,3
1480098847976185,4,-3,2,3,4,5,-2,1
1480098847992232,-1,-3,-3,-1,-3,-3,-2,-4
1480098847992232,-1,2,8,-2,-5,-8,-3,1
1480098847994225,-5,-2,-7,-4,-3,-1,-1,-2
1480098847994225,2,-1,7,3,0,3,1,-1
1480098848006258,-3,-1,-10,-5,1,2,1,-1
1480098848006258,1,-1,4,-1,-8,-12,-10,-4
1480098848015281,-1,-1,-12,-3,2,3,15,5
1480098848015281,4,-3,4,3,9,9,5,-1
1480098848030360,-11,2,3,1,1,0,-3,1
1480098848030360,4,-1,-4,-1,-4,-3,-2,1
1480098848031864,-4,-1,5,1,-2,-5,-5,-5
1480098848031864,-2,-1,-4,-3,-1,3,3,1
1480098848053056,6,3,4,3,11,6,3,0
1480098848053056,-2,0,4,1,-2,-1,1,0
1480098848054011,-2,0,3,-1,-4,-4,-5,-2
1480098848054011,-3,-5,-7,-4,-7,-9,-9,-3
1480098848075105,5,2,0,0,-3,-4,-8,0
1480098848075105,-3,1,1,2,8,7,0,4
1480098848077072,5,-5,0,0,4,7,11,-4
1480098848077072,-7,6,1,-2,-5,-6,-11,-3
1480098848090123,4,-4,-5,-1,-4,-3,7,5
1480098848090123,0,0,-1,-1,-6,1,5,-2
1480098848092124,-4,0,0,0,9,2,-5,0
1480098848092124,0,-4,0,3,2,-1,-2,0
1480098848112166,-2,-1,0,-5,-10,-5,-3,-4
1480098848112166,-1,-4,-8,-3,2,-2,3,0
1480098848114176,0,0,4,2,-4,-4,-6,0
1480098848114176,1,1,-1,-3,-1,5,11,2
1480098848135249,1,0,3,-2,2,-2,-5,0
1480098848135249,1,-2,2,1,-1,6,7,2
1480098848136801,0,2,-4,0,2,-1,-8,-3
1480098848136801,2,-2,4,2,-3,1,3,1
1480098848149834,-10,-3,-10,-5,-4,-8,-7,-2
1480098848149834,-1,-1,0,-1,-1,0,0,-1
1480098848151841,0,0,-2,-1,-2,-3,-1,-1
1480098848151841,2,2,6,0,-5,-2,-11,-3
1480098848172897,2,-2,-2,2,12,7,13,2
1480098848172897,-1,-1,0,-1,-5,-4,-2,0
1480098848173898,-1,-1,4,0,3,5,0,0
1480098848173898,5,1,-8,-1,1,0,-4,1
1480098848194991,-15,-3,0,-2,-6,-6,-6,-5
1480098848194991,-5,-4,2,-3,-4,-5,-4,-3
1480098848196960,2,0,7,0,-5,1,3,2
1480098848196960,0,1,-5,1,6,-1,4,0
1480098848209029,4,-1,0,0,0,3,-4,0
1480098848209029,3,2,1,-1,1,-2,5,1
1480098848216046,-4,-2,-4,-4,-4,-4,-5,-3
1480098848216046,-1,-3,-1,-4,-4,-3,-1,0
1480098848233072,5,1,2,2,-2,1,1,-2
1480098848233072,-8,0,2,2,10,1,-1,0
1480098848234564,3,2,-3,0,-5,1,4,3
1480098848234564,0,0,0,-2,0,0,-1,-1
1480098848254718,2,2,1,-3,-2,-2,-3,-1
1480098848254718,4,-1,-2,-4,-7,-4,0,-1
1480098848256713,-3,0,5,0,-2,-4,-4,-1
1480098848256713,-3,-1,-3,1,5,2,1,1
1480098848269747,3,2,4,1,1,2,-1,0
1480098848269747,-1,0,4,-3,-7,-2,-5,-2
1480098848275763,1,-3,-11,-3,3,1,3,1
1480098848275763,-2,-2,1,-1,-3,1,1,-3
1480098848292806,1,-2,-1,2,3,2,1,1
1480098848292806,1,1,4,2,-6,-2,-7,0
1480098848293825,-3,0,-1,1,4,1,17,0
1480098848293825,-1,-1,0,-1,-6,-1,-1,0
1480098848314914,2,1,-4,-1,9,3,-2,-2
1480098848314914,0,1,-2,-2,1,0,-1,1
1480098848316871,1,-1,2,0,-8,-6,-8,-3
1480098848316871,-2,-2,-9,0,2,0,2,1
1480098848329943,3,-1,4,-1,-4,-2,-7,0
1480098848329943,4,0,-1,2,-2,5,10,-2
1480098848343662,-11,-1,-2,-2,1,-2,-7,-2
1480098848343662,2,-2,6,0,1,1,2,-1
1480098848352675,1,-2,-6,-2,-3,-4,-3,2
1480098848352675,1,-1,-3,-1,5,0,-5,-4
1480098848354656,0,0,4,0,-7,-3,3,0
1480098848354656,-4,-1,-1,-2,6,-1,0,1
1480098848374746,2,0,0,-2,-1,3,3,0
1480098848374746,2,0,-3,0,-1,-2,-7,-1
1480098848376712,-1,-2,-2,-1,1,0,4,-2
1480098848376712,-2,-1,0,-2,-10,-5,-6,0
1480098848389768,0,0,-2,-1,1,3,10,2
1480098848389768,-3,1,2,4,9,4,0,-1
1480098848395787,0,-1,0,0,-3,-1,-3,-1
1480098848395787,1,1,-1,-1,-2,-1,-2,-2
1480098848412809,-4,-4,0,-4,-6,-5,-5,-1
1480098848412809,-1,0,1,2,-3,-2,8,2
1480098848413810,2,-1,-4,0,7,0,-4,0
1480098848413810,-2,0,4,1,-1,0,-2,-1
1480098848435456,0,1,-1,0,0,4,8,2
1480098848435456,0,0,-1,-2,3,-1,-1,1
1480098848436542,2,-2,-3,-3,-2,-4,-3,-1
1480098848436542,1,-1,-1,-1,0,0,0,0
1480098848449576,-1,1,-1,-2,-3,-2,-4,-1
1480098848449576,-1,-3,-4,-1,-3,-5,-4,-1
1480098848456595,0,-1,0,-1,-3,-2,1,0
1480098848456595,-3,0,0,1,3,3,0,-1
1480098848472637,0,0,1,0,-1,2,1,-1
1480098848472637,-1,-2,-3,-2,-3,-3,-2,-2
1480098848474642,-3,-2,-13,-1,-2,-5,-5,0
1480098848474642,0,1,3,0,-1,3,4,4
1480098848495709,-2,0,2,0,2,0,-1,-3
1480098848495709,-1,-2,-1,-3,-3,1,-2,0
1480098848497733,3,2,3,0,-4,-1,0,-1
1480098848497733,-1,-1,-1,0,1,-4,-2,-1
1480098848509737,-1,-2,-3,0,6,0,-7,-1
1480098848509737,-1,0,-1,-2,-5,0,-1,1
1480098848523830,2,-1,2,0,1,4,3,3
1480098848523830,0,-1,-6,-1,-1,-2,1,0
1480098848532819,0,1,6,0,0,1,-3,-3
1480098848532819,-1,0,-5,-2,-3,-2,-2,-3
1480098848534322,1,-1,-11,-4,0,-5,-6,-1
1480098848534322,-10,-2,3,1,3,1,8,-2
1480098848555499,0,0,-2,3,2,-1,0,0
1480098848555499,0,-2,-1,-1,0,2,2,0
1480098848556501,1,3,2,-1,-4,-2,-3,-3
1480098848556501,3,0,0,-3,-2,-2,-3,0
1480098848568542,-1,-2,-6,-2,-3,1,0,-1
1480098848568542,-1,-1,2,1,2,-2,0,0
1480098848577559,-1,-1,-2,0,4,5,5,2
1480098848577559,-1,1,-3,1,2,2,-2,-1
1480098848592596,-1,-1,2,3,-1,-2,3,0
1480098848592596,2,-1,-1,-3,-1,2,-1,0
1480098848594602,-3,-1,4,1,-4,1,1,-4
1480098848594602,0,-1,-3,-1,-3,-6,-3,0
1480098848614656,-1,0,-3,-3,-2,-4,2,0
1480098848614656,-4,-1,1,0,2,2,-1,-4
1480098848616661,0,1,5,4,6,4,0,3
1480098848616661,-1,-2,-11,-5,-4,-4,0,-4
1480098848628696,1,1,4,1,-5,-3,-6,-1
1480098848628696,2,-1,-5,-2,-2,-6,-6,0
1480098848637426,-8,-1,-2,-1,-2,0,0,-3
1480098848637426,2,-1,2,-2,-1,1,-3,-1
1480098848652435,0,0,1,1,1,-4,0,-1
1480098848652435,-1,0,2,1,-1,3,4,0
1480098848654439,3,0,0,1,6,0,-2,1
1480098848654439,0,1,-1,2,-2,2,-1,1
1480098848674501,-2,-2,-3,-4,-3,-1,1,-2
1480098848674501,1,-1,-1,-2,-2,-2,1,0
1480098848681534,-2,-2,0,0,-4,-6,-4,-1
1480098848681534,0,0,4,0,0,2,2,1
1480098848688568,-1,0,-4,1,1,2,1,0
1480098848688568,-1,-3,-2,0,-3,0,0,-3
1480098848697553,1,0,1,-1,2,0,-1,0
1480098848697553,1,-1,6,-1,-1,-3,1,0
1480098848712636,5,1,-7,-3,-5,-2,-4,-1
1480098848712636,-13,0,3,1,-1,-2,-1,-2
1480098848714598,-1,-2,0,2,1,2,4,-1
1480098848714598,1,-2,-2,0,1,1,-3,0
1480098848735219,3,-2,-2,2,1,5,5,2
1480098848735219,3,-1,4,-3,1,-1,0,0
1480098848736619,-9,0,1,-1,-2,1,0,-2
1480098848736619,-1,-2,-15,-2,-4,-4,-1,-2
1480098848748651,-3,-1,2,-3,-6,-4,-2,-1
1480098848748651,2,0,-2,-1,5,-2,-4,-3
1480098848757690,2,-4,-4,-4,-5,-3,1,-2
1480098848757690,0,-1,5,1,-6,-3,0,1
1480098848772715,0,1,-2,4,13,9,-1,-1
1480098848772715,1,0,-6,-2,-3,5,8,4
1480098848774721,2,0,4,1,-1,3,2,-1
1480098848774721,-1,-3,1,-2,-1,-2,-4,-1
1480098848794785,0,-1,2,1,-4,-2,1,0
1480098848794785,0,-2,1,-3,-3,-2,-8,0
1480098848796779,2,0,-2,1,5,1,-1,1
1480098848796779,1,3,5,1,-1,4,0,-3
1480098848808856,-5,-6,-4,-4,-7,-12,-6,-3
1480098848808856,1,1,-2,0,-1,-2,-2,1
1480098848817838,3,-1,-1,-3,-6,-3,-1,-1
1480098848817838,1,2,-1,3,11,6,1,1
1480098848832936,0,2,-1,-2,3,4,1,1
1480098848832936,0,-1,0,0,-7,-5,-4,-3
1480098848834443,-11,-3,0,-2,-3,-6,-2,-3
1480098848834443,0,0,0,-1,-3,-5,-1,-1
1480098848855590,-1,-1,2,0,5,-1,-5,-1
1480098848855590,1,0,0,0,2,3,7,2
1480098848861587,3,-1,-7,-1,-2,-2,-1,-1
1480098848861587,-1,-2,0,0,-2,5,10,0
1480098848868604,-1,0,-4,-2,-6,-2,0,-1
1480098848868604,-1,1,3,3,6,1,-2,0
1480098848877651,2,1,-3,-1,0,-2,-6,-1
1480098848877651,0,-3,-2,-2,-3,-4,-2,0
1480098848892699,0,-1,-1,-5,-6,-6,-6,-2
1480098848892699,-1,0,1,2,4,4,16,2
1480098848894691,1,3,3,4,4,5,4,1
1480098848894691,-1,-1,-8,-2,-2,-3,-5,1
1480098848914741,-1,-1,7,0,-4,-2,-1,1
1480098848914741,1,-1,-6,-4,-2,1,-4,-1
1480098848916730,1,-1,1,-3,5,-1,0,0
1480098848916730,-2,-2,-3,-3,1,-2,-1,-4
1480098848928802,-2,0,4,0,-3,0,7,0
1480098848928802,0,-2,-4,-1,0,-1,-1,-3
1480098848937477,4,-1,-2,-2,-6,-3,-2,1
1480098848937477,-5,0,1,-1,-1,-3,-4,1
1480098848959534,0,1,-5,1,0,2,1,-2
1480098848959534,1,-2,2,1,0,-2,-2,-1
1480098848961539,0,1,1,-2,-1,-8,-14,-1
1480098848961539,3,0,-3,1,-1,7,11,1
1480098848974621,0,-1,1,1,-1,2,-1,-3
1480098848974621,-6,-1,-4,2,2,0,-3,-5
1480098848976580,0,-3,-3,-1,-2,-1,2,5
1480098848976580,3,0,0,-5,-4,-7,-7,-3
1480098848988612,-1,-2,10,4,4,1,7,-5
1480098848988612,-2,6,-11,-4,3,2,-9,0
1480098848997636,-7,-27,-22,-2,-3,3,4,-4
1480098848997636,1,20,18,2,-3,-5,-4,-1
1480098849012712,-1,2,-10,-6,-3,-1,2,1
1480098849012712,-2,-11,7,0,-3,-5,-7,-4
1480098849014702,-1,1,7,4,3,2,4,-2
1480098849014702,-4,-8,-8,-3,-3,0,3,0
1480098849035273,2,1,4,2,4,-1,-5,0
1480098849035273,1,-1,-6,-2,-1,-1,3,2
1480098849036378,-1,5,5,-3,-6,-1,0,-1
1480098849036378,-2,-5,-2,0,2,0,0,-2
1480098849057402,0,1,-2,1,8,-2,-11,-2
1480098849057402,1,-2,0,0,-1,7,13,4
1480098849059407,0,5,3,0,-4,-3,0,0
1480098849059407,0,0,-2,2,7,0,-2,-1
1480098849073444,0,-6,-5,-3,-3,1,3,1
1480098849073444,1,1,4,-1,-5,-4,-12,-1
1480098849078458,-6,3,-2,2,-4,3,12,-2
1480098849078458,-1,-5,0,0,1,0,-1,-1
1480098849102560,-2,0,-1,-1,2,0,0,0
1480098849102560,5,0,6,2,-1,-5,-6,-1
1480098849104531,1,3,3,-1,0,0,-1,-1
1480098849104531,-2,-4,-2,-3,-5,-4,-6,0
1480098849117562,-1,-1,-5,-2,-5,-1,6,-2
1480098849117562,-1,1,3,0,0,-2,-2,-1
1480098849119569,1,-1,0,2,4,3,-2,1
1480098849119569,-3,-2,-5,-1,2,-1,-3,-1
1480098849133612,1,0,5,1,-1,1,-4,-1
1480098849133612,-2,1,-1,0,0,-3,4,-3
1480098849147650,2,0,-2,-3,-1,-4,-5,0
1480098849147650,2,-1,-3,-1,-6,0,1,2
1480098849155721,-5,-1,-2,0,5,0,-2,-1
1480098849155721,-1,-1,2,2,-3,-4,-1,1
1480098849161712,-1,0,-6,-6,-7,0,-1,-3
1480098849161712,1,2,6,0,2,-2,-1,-1
1480098849177732,-1,-1,-5,-2,-1,-2,2,0
1480098849177732,0,-3,-8,0,5,5,2,-3
1480098849178735,2,2,7,3,-4,-2,-12,1
1480098849178735,0,-4,0,0,2,4,8,-1
1480098849191778,0,-3,-1,-2,-3,-4,-2,3
1480098849191778,-3,-2,-3,-2,1,-1,-15,-5
1480098849198791,2,1,-3,-1,1,1,10,0
1480098849198791,-2,-1,-3,-1,-2,-1,-1,-2
1480098849214830,2,1,2,-1,-2,1,-2,-1
1480098849214830,0,2,5,-1,-1,-2,3,-1
1480098849216836,0,-2,-8,1,1,1,-4,2
1480098849216836,0,-3,-10,-4,3,2,-1,1
1480098849237901,2,1,2,2,0,-1,-1,-2
1480098849237901,-8,0,-1,-4,-5,-2,0,3
1480098849238916,0,-1,3,-1,3,-5,-7,-9
1480098849238916,1,1,-1,1,-3,-3,0,1
1480098849251936,4,0,0,1,-2,1,-7,1
1480098849251936,0,-1,-2,-1,4,2,12,1
1480098849258957,-1,1,0,-1,1,6,2,1
1480098849258957,-1,-2,7,-2,-6,-6,-2,-2
1480098849275043,-1,-1,-3,-3,-5,-3,3,-1
1480098849275043,0,0,1,-1,0,-1,-2,1
1480098849277005,-1,-1,-4,2,4,1,6,2
1480098849277005,-2,-3,-7,-1,0,0,-6,-2
1480098849297058,-1,1,0,-1,-4,-3,4,5
1480098849297058,1,1,1,1,6,-2,-4,-1
1480098849299063,3,0,3,-3,-6,-6,-7,1
1480098849299063,-1,-1,-1,0,-2,-2,1,-2
1480098849312147,-3,-2,-4,0,3,4,-1,-3
1480098849312147,2,1,0,-1,-3,-2,2,0
1480098849319117,-2,0,2,-1,1,0,-5,-2
1480098849319117,-3,-1,-3,-1,-5,-1,-3,-2
1480098849335178,-1,-1,-2,2,5,3,16,2
1480098849335178,2,1,9,3,-4,-1,-9,1
1480098849336699,0,0,-2,-3,3,-1,-1,-2
1480098849336699,0,0,3,2,1,2,-7,-3
1480098849357756,-9,-2,-1,-3,-4,2,11,0
1480098849357756,-2,-2,-1,-1,0,2,-2,1
1480098849358758,0,0,1,4,3,0,3,-6
1480098849358758,2,1,-3,0,-3,-2,-4,-1
1480098849371807,-2,-1,0,-5,-6,-8,-11,-1
1480098849371807,-4,-1,-2,-3,-8,-5,3,-2
1480098849378872,3,-2,-1,2,5,5,4,2
1480098849378872,2,0,-5,-1,4,1,-6,2
1480098849394894,-1,0,1,-1,-3,-2,1,-4
1480098849394894,0,-1,-5,-1,-2,0,4,1
1480098849396859,-2,-1,-3,-3,-5,-3,-6,0
1480098849396859,-3,-1,4,0,0,1,2,-1
1480098849417915,2,-1,-1,0,6,5,0,1
1480098849417915,1,-1,0,2,2,1,-2,-2
1480098849418918,-4,-1,-9,-4,-2,-1,4,-3
1480098849418918,-1,0,7,0,-3,-5,2,4
1480098849431995,1,-1,-5,-1,-3,-6,-6,-3
1480098849431995,-2,-3,-6,-1,-2,-3,3,-3
1480098849439079,-2,0,7,-1,-8,-4,-5,0
1480098849439079,-2,1,-2,2,14,9,6,-1
1480098849455086,0,0,-3,-1,-2,1,-7,-1
1480098849455086,-1,0,1,-1,0,-2,-12,1
1480098849457091,2,2,4,0,-3,1,7,2
1480098849457091,1,-1,-5,-4,-3,-2,2,1
1480098849477145,-3,-1,4,3,3,4,-3,1
1480098849477145,-1,-1,-5,-3,-4,-2,-2,-3
1480098849479150,-2,-1,0,0,-4,-6,-7,0
1480098849479150,3,1,-4,-2,0,-2,-2,-1
1480098849491193,-1,-2,2,1,0,1,7,1
1480098849491193,2,-1,-1,-3,-3,2,3,4
1480098849500207,0,-1,-3,1,3,1,5,0
1480098849500207,-2,0,1,-1,-5,-7,-6,-1
1480098849515283,-2,-3,1,-3,-1,-1,-3,-2
1480098849515283,1,-1,0,0,1,1,2,0
1480098849516249,-1,-2,0,0,2,1,-3,-1
1480098849516249,-2,1,-2,-2,-5,-1,-3,-3
1480098849537913,-3,0,-1,1,0,-7,-4,-4
1480098849537913,0,2,2,3,5,5,7,0
1480098849538903,0,0,-12,-2,2,2,-2,1
1480098849538903,-2,-2,-3,-2,0,4,2,0
1480098849550926,0,-1,-2,-2,-4,-2,-2,-3
1480098849550926,-1,-1,-2,-3,-1,-6,-4,-2
1480098849559936,-3,-1,6,-3,-10,-5,-3,0
1480098849559936,-1,-1,2,2,3,-1,5,1
1480098849575000,2,-1,-4,2,7,8,-1,-1
1480098849575000,0,-1,2,2,1,-1,-1,-1
1480098849576981,0,1,4,1,0,0,-10,-1
1480098849576981,-3,-3,0,-3,-4,-2,-2,-4
1480098849598039,-1,-3,-13,-4,-4,0,10,5
1480098849598039,-3,1,0,0,-2,3,-1,-9
1480098849601047,0,1,5,0,3,0,-1,2
1480098849601047,0,-1,-2,-2,-1,-3,-4,1
1480098849611073,0,0,3,-2,-4,-3,-4,-1
1480098849611073,0,-2,-5,-1,-2,-6,3,1
1480098849620604,0,-1,1,2,3,2,4,1
1480098849620604,0,0,3,0,0,2,-4,-2
1480098849635142,0,0,4,1,0,0,2,0
1480098849635142,0,0,-3,-2,-3,-1,1,0
1480098849641663,-4,-1,1,-1,-1,-2,-4,-4
1480098849641663,1,0,-10,-4,-4,1,4,1
1480098849657707,1,-2,-5,-1,-1,-3,-4,0
1480098849657707,-1,-1,7,1,5,0,-2,2
1480098849658709,1,1,-4,2,3,5,1,0
1480098849658709,1,1,6,1,1,2,6,-1
1480098849670742,0,0,-7,-3,-3,-2,-5,-2
1480098849670742,1,-1,-1,-3,-7,-8,-8,-2
1480098849679765,2,-3,-1,0,2,2,10,0
1480098849679765,-11,-3,0,0,-1,-3,-1,0
1480098849694805,1,-1,-1,-1,-5,-4,-5,0
1480098849694805,0,-2,1,3,8,1,3,1
1480098849696811,-1,-2,-5,-3,-4,-1,1,-2
1480098849696811,3,1,3,1,1,-2,0,0
1480098849717867,-1,0,2,-1,0,-1,0,-3
1480098849717867,-1,0,-4,-3,-4,1,-2,0
1480098849718870,1,-1,-4,-4,-3,-4,1,-1
1480098849718870,-2,0,9,3,-4,-1,5,-1
1480098849731443,0,0,1,1,5,6,-4,0
1480098849731443,1,-1,-10,-1,4,3,2,1
1480098849740085,-1,-1,0,-1,-2,-3,-4,-1
1480098849740085,1,0,2,1,-4,-1,0,0
1480098849755158,0,0,0,-3,2,-7,1,0
1480098849755158,-2,-1,0,0,-2,-1,0,-1
1480098849757144,-2,-2,2,-3,3,3,0,0
1480098849757144,1,-3,-6,-3,-2,-1,-3,-1
1480098849777182,-1,1,2,0,-5,-5,-4,-5
1480098849777182,-3,-3,-5,-1,2,1,4,0
1480098849779190,0,1,2,2,1,1,-1,0
1480098849779190,1,-1,-2,-1,3,0,-3,-1
1480098849791221,-1,1,5,2,5,3,7,2
1480098849791221,-1,-3,-4,-2,-6,-3,-2,0
1480098849800244,-1,0,2,-1,-5,1,-4,-1
1480098849800244,0,0,-4,-1,0,-2,2,0
1480098849815289,-2,-1,2,0,8,0,-5,-3
1480098849815289,3,1,4,0,-1,10,7,3
1480098849816289,-2,-2,-4,-2,-4,-9,-3,-2
1480098849816289,0,-1,-2,-4,0,-2,-6,-2
1480098849837347,4,-1,-1,-1,-5,-1,0,-1
1480098849837347,2,1,1,-2,-2,-3,-3,-2
1480098849839352,0,-3,-4,-1,1,3,-3,0
1480098849839352,-1,-1,-1,0,-1,-3,0,-1
1480098849851385,0,0,-2,1,0,2,0,1
1480098849851385,-1,-2,-1,0,4,0,-3,-5
1480098849860409,-3,-2,2,3,1,0,4,0
1480098849860409,-1,2,1,1,1,0,0,1
1480098849875480,-2,-3,-7,-3,-3,-3,1,0
1480098849875480,0,1,-1,-1,-9,-4,-10,0
1480098849876465,-3,-1,0,-2,2,0,0,0
1480098849876465,-2,-2,2,1,-5,-5,-6,-3
1480098849897508,-1,1,-3,1,7,11,9,1
1480098849897508,0,1,1,2,4,0,3,2
1480098849899545,0,0,-1,-3,-4,-5,-6,-1
1480098849899545,3,-1,-1,-3,1,1,4,1
1480098849911580,-1,-1,2,0,-6,-6,-9,-3
1480098849911580,-5,-1,1,-2,-5,-1,-2,-1
1480098849920602,0,0,-4,0,7,5,5,1
1480098849920602,0,1,8,1,1,-1,2,0
1480098849935170,1,0,-4,-2,-3,2,1,1
1480098849935170,-3,0,4,2,7,3,2,-2
1480098849936146,-1,1,-2,1,-6,-5,-10,-4
1480098849936146,-2,-2,-1,-1,2,4,10,1
1480098849957214,-1,-1,3,0,0,-3,-4,-1
1480098849957214,-1,-1,-6,-5,-10,-4,5,0
1480098849959220,2,2,2,0,0,2,0,-1
1480098849959220,1,-1,-4,-1,-3,-3,-4,0
1480098849980276,-13,0,1,1,5,2,2,-2
1480098849980276,0,0,-2,-3,-3,0,-4,-1
1480098849982283,-1,0,5,-1,-3,-7,-3,-2
1480098849982283,0,0,-13,-3,1,7,4,1
1480098849995328,2,0,0,0,-2,-5,-4,0
1480098849995328,-2,-2,2,1,2,4,7,1
1480098850001355,-2,-2,-3,0,2,3,1,-1
1480098850001355,0,-1,3,1,2,-2,-8,-3
1480098850017387,3,-2,-8,-3,-3,-5,-2,1
1480098850017387,-1,1,0,-3,0,1,2,-1
1480098850025399,1,-2,-4,-1,-2,-3,0,0
1480098850025399,-2,0,-2,-2,-7,-4,-2,-1
1480098850040078,1,-1,4,-2,-6,-3,-7,-3
1480098850040078,0,-1,2,3,7,-1,1,-2
1480098850042123,0,-1,-2,2,3,5,13,0
1480098850042123,-1,0,2,3,-2,6,-1,1
1480098850055117,2,1,0,-3,1,-1,0,0
1480098850055117,-1,1,0,-1,-7,-7,-7,-4
1480098850057124,0,2,0,-3,-3,-3,-3,2
1480098850057124,-3,-3,-5,-3,-1,-2,4,0
1480098850077222,-2,-1,-1,0,-1,3,3,0
1480098850077222,2,0,-3,1,5,-4,-7,-1
1480098850079181,0,1,0,0,1,5,2,-1
1480098850079181,0,0,2,-3,-2,0,0,-2
1480098850100237,-1,-2,-1,-3,-7,-7,-2,-1
1480098850100237,1,-2,-2,-1,3,-2,-1,1
1480098850101256,-6,-1,1,-1,0,-1,-2,-1
1480098850101256,3,1,2,-1,-3,-3,-2,0
1480098850114297,1,1,-2,3,6,4,6,-1
1480098850114297,2,0,-3,-2,-5,2,2,1
1480098850121303,2,-2,-2,-1,1,-2,-1,0
1480098850121303,-4,0,2,0,1,-4,1,-5
1480098850137340,1,-2,1,2,3,7,12,3
1480098850137340,2,0,4,2,2,2,-1,1
1480098850139321,-1,-3,-7,-3,-1,-2,-4,-3
1480098850139321,-4,-2,-4,0,-3,0,2,-2
1480098850160378,1,0,-1,-2,-2,-3,-3,0
1480098850160378,-2,-2,0,-2,-4,0,0,1
1480098850161380,-2,0,2,1,-1,0,-1,-1
1480098850161380,0,-4,-5,-4,0,-3,-4,0
1480098850174451,-1,-2,1,-1,-11,-6,-8,-3
1480098850174451,-3,0,-2,3,6,1,1,0
1480098850181434,-1,-1,-1,0,2,-3,-4,-3
1480098850181434,1,1,0,1,1,4,-1,0
1480098850197478,-1,-1,-4,-2,2,1,3,-2
1480098850197478,-1,0,3,-2,-4,-3,-1,-1
1480098850199482,1,-1,-9,-3,-5,-10,-6,2
1480098850199482,1,0,-2,-2,-3,7,5,1
1480098850220538,0,-1,3,3,6,2,3,2
1480098850220538,-3,-2,-5,-2,2,3,0,-2
1480098850222048,1,1,2,2,4,3,10,0
1480098850222048,0,0,-2,-1,1,-1,-7,-2
1480098850234577,0,-2,-1,-4,-7,-8,-7,-1
1480098850234577,0,-2,3,1,-3,1,0,1
1480098850241213,-1,0,-1,-2,-5,-3,-3,-2
1480098850241213,-3,-1,-2,2,5,-2,-3,-1
1480098850257306,2,-1,0,1,-1,0,-2,1
1480098850257306,1,0,-1,3,6,3,1,-2
1480098850259262,-10,-4,3,-4,-6,0,0,-2
1480098850259262,0,0,4,1,5,-6,-4,-1
1480098850280317,-2,-1,-11,-3,0,6,9,0
1480098850280317,1,0,-3,-2,-6,-3,2,-1
1480098850281318,3,1,1,0,0,0,-3,4
1480098850281318,0,1,3,1,-1,-1,3,-2
1480098850294354,-1,-1,3,1,-1,-3,-7,-3
1480098850294354,-2,0,-1,-1,1,0,-1,1
1480098850301375,3,-1,4,1,4,3,-1,-2
1480098850301375,-2,-2,-3,-1,1,3,2,1
1480098850325442,-2,1,1,-1,0,-3,-1,-3
1480098850325442,0,-3,-1,-1,-5,-2,-4,-1
1480098850326993,1,-2,1,1,5,0,5,0
1480098850326993,0,-2,-2,-1,0,1,0,-3
1480098850340078,0,1,5,0,-3,1,-1,-3
1480098850340078,-2,0,-2,-2,0,-1,-5,-4
1480098850346124,0,0,-4,-2,-1,-3,-5,0
1480098850346124,0,0,2,1,-1,-1,2,2
1480098850354127,0,-2,2,0,-2,0,-1,-4
1480098850354127,-2,0,-2,0,-1,-5,-1,-1
1480098850361172,5,-1,4,0,-5,2,0,-1
1480098850361172,-9,-2,-8,-3,-1,0,-1,-3
1480098850377215,1,-1,-2,1,-2,-3,-4,0
1480098850377215,1,0,-3,-2,-1,-5,-3,1
1480098850379179,0,0,-2,1,4,5,5,-3
1480098850379179,1,1,-1,-2,-4,0,-2,3
1480098850400236,0,0,-2,-1,0,-5,-2,2
1480098850400236,-2,-1,0,-3,-11,0,3,1
1480098850401240,0,-1,-2,0,8,0,-1,-1
1480098850401240,-2,1,4,-3,-1,-2,-6,-4
1480098850414319,-1,-1,-2,-1,2,3,4,3
1480098850414319,-1,1,1,-4,-2,2,0,-3
1480098850421370,-3,-1,-1,0,-3,-4,-4,-2
1480098850421370,1,-1,1,4,3,-2,-1,-2
1480098850438034,-2,-1,-1,0,0,-4,-3,-1
1480098850438034,1,-2,0,-2,-4,0,1,0
1480098850439033,-1,-1,1,-3,-5,-3,-2,-1
1480098850439033,-7,-3,-1,0,-1,-4,-7,-4
1480098850460075,2,-1,1,-1,-2,-1,-3,0
1480098850460075,-1,-1,-1,3,9,3,-2,0
1480098850462082,2,-1,-3,-2,-2,1,4,1
1480098850462082,5,-2,1,-1,1,-2,-2,1
1480098850474114,-2,-1,-4,-1,-3,1,-1,0
1480098850474114,-1,-3,-1,-3,1,-4,-5,-8
1480098850483137,-2,-2,1,0,-2,0,-2,1
1480098850483137,1,0,3,0,-2,1,-1,1
1480098850497175,-3,0,-4,-1,1,0,-1,-2
1480098850497175,2,0,2,0,-2,2,4,4
1480098850499182,1,1,-1,-1,-6,0,1,-2
1480098850499182,3,1,-5,-3,-7,-1,3,0
1480098850520235,-1,-1,2,-1,11,3,0,-1
1480098850520235,-3,2,0,5,3,1,0,-3
1480098850521758,-1,-2,-1,-1,-4,-6,2,-1
1480098850521758,2,0,-2,3,4,5,4,2
1480098850533774,-1,-1,0,-3,-4,-1,-2,0
1480098850533774,1,-2,3,-2,2,-1,-1,2
1480098850542850,-1,1,-1,1,-8,2,2,1
1480098850542850,0,-2,-1,-2,3,-2,-1,-3
1480098850557891,1,-2,-1,1,1,3,9,-1
1480098850557891,-1,1,2,-4,-3,-4,-4,1
1480098850558904,-3,0,0,0,-1,-3,-4,0
1480098850558904,1,0,-8,-4,-1,-5,1,0
1480098850579951,-2,-5,2,-1,-3,-3,-2,0
1480098850579951,0,-1,-3,-2,-3,0,1,0
1480098850581958,1,-1,-1,-1,-4,-2,-2,-1
1480098850581958,-1,2,0,4,5,4,0,-3
1480098850594020,2,1,0,0,2,2,-2,-1
1480098850594020,0,-1,-3,0,-2,0,0,3
1480098850603012,-1,0,2,-2,0,2,0,1
1480098850603012,-3,-1,1,-1,-1,-5,-5,-1
1480098850618072,-2,-1,-7,-2,-7,-4,3,-2
1480098850618072,-1,-1,-1,2,4,-1,-3,0
1480098850619059,0,-2,1,1,4,0,-6,-5
1480098850619059,0,1,0,0,-3,2,7,3
1480098850640111,-1,1,1,-2,2,-1,-6,0
1480098850640111,-2,-1,-3,-3,-10,-4,1,-1
1480098850642116,0,-1,-3,-1,3,-4,-5,0
1480098850642116,1,-1,3,0,1,0,-2,0
1480098850654148,1,0,0,-3,-6,1,5,3
1480098850654148,0,-1,1,1,4,0,-3,-3
1480098850662168,-9,-1,-3,1,4,1,0,0
1480098850662168,1,-1,1,-3,-10,-9,-5,-3
1480098850678213,1,0,0,-4,-3,-6,-4,-1
1480098850678213,1,0,0,3,-2,5,7,3
1480098850684231,4,0,1,0,16,6,4,1
1480098850684231,-1,-1,-1,-1,-5,0,2,3
1480098850700271,-2,-3,2,0,-2,-2,-4,-5
1480098850700271,1,-1,-5,-3,-6,-6,-4,-2
1480098850701276,-2,-3,-4,-1,-7,-5,-3,-1
1480098850701276,0,0,-2,-1,2,1,0,-2
1480098850713306,1,0,1,1,3,0,0,1
1480098850713306,-4,-2,-1,0,-4,4,3,-3
1480098850722841,2,0,0,-1,3,2,0,0
1480098850722841,0,-3,-1,0,1,-2,-3,0
1480098850745447,0,0,-3,-1,-5,-3,1,1
1480098850745447,-2,-4,-2,-3,1,-2,-2,-2
1480098850746403,-5,-1,0,-5,-10,-6,-8,-5
1480098850746403,1,-1,0,3,5,7,6,2
1480098850760478,2,1,4,6,14,2,-2,1
1480098850760478,-1,-3,-10,-2,-5,-3,5,1
1480098850761450,4,0,-3,-2,-6,-1,1,2
1480098850761450,-3,-2,2,-4,-7,-6,-8,-4
1480098850773484,-3,-3,-1,0,-4,-1,1,-1
1480098850773484,3,4,-1,0,1,2,0,4
1480098850782516,2,0,-3,-1,5,3,2,-2
1480098850782516,-2,-2,-2,-1,-1,4,-2,1
1480098850796538,-1,1,1,1,1,0,1,-2
1480098850796538,0,-2,1,-1,0,-4,-4,0
1480098850805561,0,0,3,0,-7,-2,0,0
1480098850805561,-3,0,-1,-2,-2,-5,-6,-2
1480098850820605,-1,1,-1,3,9,4,-2,-1
1480098850820605,0,-2,-10,-3,1,5,2,-1
1480098850823117,-1,-1,2,1,3,-3,-2,0
1480098850823117,3,-2,2,1,1,4,3,2
1480098850834194,-2,-1,1,-4,-7,-5,-1,1
1480098850834194,-3,0,2,-1,0,-6,-3,-3
1480098850843214,0,-1,-5,0,-6,3,7,4
1480098850843214,-1,0,-3,0,1,0,-1,1
1480098850858249,0,2,6,2,0,1,8,-1
1480098850858249,-9,-2,0,-1,-3,-4,-7,-1
1480098850863287,0,0,-1,0,2,1,-1,-2
1480098850863287,1,1,0,3,4,1,1,-2
1480098850880305,3,-1,-10,-7,-3,1,-3,2
1480098850880305,0,1,6,-2,-2,1,0,-2
1480098850881360,-5,-1,0,-3,-5,-3,1,-2
1480098850881360,-2,-1,-3,-1,3,-1,-1,3
1480098850902408,-2,-1,4,2,-3,0,-6,-2
1480098850902408,1,2,0,-1,5,3,5,2
1480098850904376,-2,-1,0,1,-2,1,-1,1
1480098850904376,2,1,0,-1,-2,-3,1,0
1480098850917431,0,1,-2,-3,-3,-3,-4,-3
1480098850917431,3,0,-1,3,2,0,3,0
1480098850919439,-1,0,-10,-1,3,0,-2,-3
1480098850919439,0,-1,3,1,-4,1,-2,0
1480098850940045,-1,-4,1,-1,5,0,1,2
1480098850940045,-1,1,0,0,-2,-2,-4,-3
1480098850942050,1,1,0,-2,1,0,2,2
1480098850942050,-2,-2,-5,-1,-4,-9,-6,-2
1480098850962104,-3,-3,-3,-2,0,4,10,2
1480098850962104,2,-1,4,2,0,4,0,2
1480098850964111,0,0,6,1,9,3,0,1
1480098850964111,-1,-2,2,0,-6,-3,-6,-2
1480098850978150,2,0,-6,-3,-5,-2,-4,0
1480098850978150,0,0,1,0,5,0,6,1
1480098850980150,-2,-4,-2,-2,-3,1,4,0
1480098850980150,0,2,4,-2,-1,2,0,-1
1480098851000204,-1,-1,-8,2,3,-1,-5,-1
1480098851000204,3,-2,-3,-1,1,-2,-5,-2
1480098851002209,-1,-2,4,-1,-5,-4,-4,0
1480098851002209,-3,-2,-10,-3,-3,-3,3,0
1480098851022854,0,1,2,-1,0,-4,-5,-3
1480098851022854,-2,-1,-2,0,3,8,6,0
1480098851024314,-1,-1,-1,0,4,1,-3,-4
1480098851024314,1,0,5,0,0,3,1,0
1480098851037924,-1,-2,-6,-3,-6,-4,-1,-1
1480098851037924,-1,0,3,-3,-4,-8,-3,0
1480098851038948,0,-2,-6,-2,-3,-3,-5,-3
1480098851038948,-1,-1,0,-1,4,2,7,-2
1480098851059982,-2,-1,2,1,1,3,-2,0
1480098851059982,3,0,4,1,-2,1,4,3
1480098851061990,3,-1,-1,-1,-2,0,1,0
1480098851061990,-1,0,1,-2,-2,1,-2,-2
1480098851082043,-1,0,-1,-2,-4,-1,-1,0
1480098851082043,-2,-2,-4,-2,0,-4,-1,-5
1480098851084046,1,-1,5,2,2,0,-3,1
1480098851084046,-1,0,-4,-1,1,-2,-5,3
1480098851097109,0,0,6,1,0,3,5,0
1480098851097109,-3,-1,-1,-1,-7,-2,-2,1
1480098851104100,2,0,-3,-3,-1,-2,0,1
1480098851104100,-2,-3,1,1,2,-2,-4,-2
1480098851120142,-1,-2,0,0,0,2,4,1
1480098851120142,0,-1,-3,-2,-3,-4,-6,-2
1480098851122149,-1,0,1,1,2,-1,6,0
1480098851122149,-1,0,-5,-1,-5,-1,-4,-1
1480098851141926,2,1,0,1,2,-1,7,3
1480098851141926,0,1,6,4,12,9,-1,-1
1480098851149915,0,-1,-2,-3,-6,-4,-3,-1
1480098851149915,0,-1,-2,-3,-6,-2,2,0
1480098851156933,0,1,-2,-1,6,-3,-6,-7
1480098851156933,-1,-2,-1,0,0,-3,-4,0
1480098851163951,-1,0,1,1,-4,-1,-2,2
1480098851163951,-3,-1,0,1,4,2,5,-2
1480098851179993,-1,-1,2,-2,-2,1,-2,-1
1480098851179993,-1,0,2,1,2,0,3,0
1480098851182000,0,1,-6,-2,0,1,-3,0
1480098851182000,1,-2,4,0,-4,-5,-4,-2
1480098851203056,-2,-3,-4,-2,-4,-3,0,0
1480098851203056,-1,-1,0,-4,0,2,-1,-1
1480098851204059,-1,-1,0,0,0,0,-1,-2
1480098851204059,0,1,1,0,5,1,-3,-1
1480098851217097,-1,-3,-1,1,-2,-3,5,-1
1480098851217097,-1,-3,-3,-2,-3,-1,5,1
1480098851224120,-4,-4,0,-4,-12,-5,-3,-2
1480098851224120,0,2,-5,1,9,2,1,2
1480098851240183,2,2,3,4,7,4,0,1
1480098851240183,-1,1,-1,-3,-7,-3,-3,0
1480098851242204,-2,-3,-10,-2,0,0,-1,-2
1480098851242204,1,0,0,-3,-3,1,2,-2
1480098851270249,-2,-2,0,-2,-5,-5,-1,-3
1480098851270249,2,0,0,1,4,0,1,1
1480098851271276,-1,0,4,0,1,1,-1,0
1480098851271276,0,0,-2,1,-1,1,-3,-3
1480098851277266,0,-1,1,0,0,0,3,2
1480098851277266,-3,0,-8,-1,-3,-4,-9,-5
1480098851283309,-1,-2,0,-5,-3,-5,2,-1
1480098851283309,-1,-1,0,2,1,4,1,0
1480098851300329,-2,0,2,1,-1,0,-3,0
1480098851300329,-2,-2,0,-1,-2,-1,0,0
1480098851301331,0,0,2,2,1,-1,-9,-1
1480098851301331,1,0,0,-2,-7,0,8,2
1480098851322905,-2,0,-2,1,12,5,0,0
1480098851322905,0,-2,-7,-1,0,3,1,-2
1480098851324407,1,1,3,0,3,-1,-2,-1
1480098851324407,-1,-1,-2,0,-3,-3,-7,-2
1480098851336439,-1,0,-3,-2,-5,-3,-4,0
1480098851336439,0,0,1,-2,-1,-3,-2,-2
1480098851343462,0,1,1,1,0,7,5,-2
1480098851343462,1,-1,1,2,0,-1,-4,-1
1480098851360558,0,-1,0,1,4,4,3,0
1480098851360558,-3,0,-2,-1,-6,-2,-4,0
1480098851361521,4,1,4,1,0,-4,7,2
1480098851361521,-1,1,1,-1,0,-1,0,-1
1480098851382630,0,-2,-4,-2,-7,-4,-15,-3
1480098851382630,-2,-2,-2,-4,-6,0,10,-1
1480098851384584,0,2,1,0,-1,-2,-1,-4
1480098851384584,-1,0,1,1,10,7,7,2
1480098851396622,0,-1,1,0,2,1,-6,0
1480098851396622,-1,-1,2,1,1,1,0,0
1480098851405634,-3,-2,0,-3,-5,-6,-4,1
1480098851405634,-1,-1,3,-2,-6,-2,2,1
1480098851419664,0,0,-5,-3,-2,-3,-5,-2
1480098851419664,3,0,3,3,4,3,1,-1
1480098851422180,-11,-2,-4,-2,-2,0,-4,-2
1480098851422180,0,0,1,1,1,-4,-2,-2
1480098851442330,-2,-1,-5,0,-4,-4,2,-1
1480098851442330,-1,-1,-7,-4,-4,-4,-5,-3
1480098851444316,5,-1,-1,2,7,3,4,0
1480098851444316,-2,-1,-1,-1,-2,-3,-4,-2
1480098851456355,-2,0,4,0,-7,1,3,0
1480098851456355,2,-1,0,4,15,2,-2,0
1480098851465372,0,-2,-3,-1,-3,2,-5,-5
1480098851465372,-3,-1,3,-3,-3,-4,5,-1
1480098851480411,-3,-2,-10,-3,1,-6,-1,0
1480098851480411,-1,-1,0,-2,-4,0,-1,2
1480098851481415,1,-1,1,2,3,2,-2,1
1480098851481415,-3,-3,-4,-4,-6,-3,-1,-3
1480098851502470,-1,-1,2,-1,0,0,1,-1
1480098851502470,-1,-1,1,-2,-3,-5,-4,1
1480098851504477,0,-1,0,1,-1,-1,2,1
1480098851504477,4,-1,-1,3,1,2,-3,1
1480098851516510,1,0,-10,1,10,8,3,0
1480098851516510,1,0,-3,-2,-5,-3,-1,-3
1480098851525545,1,-1,2,-3,-3,-4,-4,-2
1480098851525545,-6,-1,-7,-2,-5,-4,-2,-1
1480098851539137,0,-1,7,0,2,0,-1,3
1480098851539137,-1,0,-1,0,-3,-1,1,-1
1480098851548134,1,0,-3,0,0,-8,-3,-3
1480098851548134,0,0,0,2,8,7,1,0
1480098851562171,-2,-1,8,1,3,5,3,0
1480098851562171,0,-1,-2,-1,-3,-3,-2,-3
1480098851564175,-2,-2,-2,-1,0,-1,-4,0
1480098851564175,0,-1,-3,-2,-3,-5,-4,-2
1480098851576206,0,-1,0,-3,-3,-2,-1,-1
1480098851576206,0,2,5,0,1,0,4,0
1480098851585234,-1,-2,-10,1,-2,-1,-3,1
1480098851585234,3,-2,-2,-2,-1,-2,3,0
1480098851600270,-2,-1,-6,-2,-7,-5,1,-5
1480098851600270,-1,1,12,4,7,3,-5,0
1480098851601273,-1,-1,-6,-3,-5,2,5,3
1480098851601273,1,-2,1,-1,-1,0,-2,-4
1480098851622881,-4,-2,-1,-2,-5,-4,-9,-1
1480098851622881,-2,-2,-2,2,-4,4,4,1
1480098851624397,0,2,2,-1,5,0,-1,-2
1480098851624397,1,-1,-3,0,-3,-2,-2,0
1480098851636418,0,-1,3,-2,-7,-4,-3,-1
1480098851636418,-1,-1,-3,-1,1,-3,-2,0
1480098851644763,4,1,6,2,2,7,5,1
1480098851644763,-12,-2,-6,-3,0,-1,2,-2
1480098851659764,2,-1,-3,-1,-2,-5,-1,0
1480098851659764,-1,-1,-3,-3,-4,-2,-2,0
1480098851661770,-1,0,7,0,3,-5,-2,-1
1480098851661770,2,1,-2,0,2,3,-1,-3
1480098851682835,0,-1,5,2,3,6,8,1
1480098851682835,-2,-2,-3,-3,0,-3,-7,-2
1480098851683850,-1,-2,2,-1,-5,2,8,0
1480098851683850,5,-1,-6,-4,-2,-8,-11,0
1480098851695872,0,1,1,-1,-5,-1,-2,-2
1480098851695872,0,-1,-2,2,7,3,1,0
1480098851704885,-1,0,-2,0,-2,2,-3,-3
1480098851704885,0,1,2,1,-2,3,4,2
1480098851719926,-2,-1,-11,0,-1,-4,0,-1
1480098851719926,-1,-1,0,-1,-4,-3,-1,-1
1480098851721932,-3,0,2,-1,-2,1,0,0
1480098851721932,1,1,0,1,6,1,-2,-1
1480098851742556,0,0,-1,-2,-5,-2,0,-1
1480098851742556,0,1,0,-1,-3,-3,-1,-1
1480098851744598,0,-1,-3,1,3,3,2,2
1480098851744598,0,-2,3,3,4,3,4,0
1480098851756630,-1,-2,0,-2,-2,0,-2,0
1480098851756630,-1,0,-2,-1,0,-2,0,0
1480098851765618,2,-2,0,-1,-2,-4,-1,-4
1480098851765618,-2,-1,1,0,3,0,-5,-2
1480098851779676,-1,-1,0,0,1,5,5,-1
1480098851779676,1,1,4,1,0,2,-1,-1
1480098851781659,0,-2,-14,-3,-3,0,0,-1
1480098851781659,-1,-2,-1,-2,-4,-7,-11,-2
1480098851802728,-2,0,6,0,-4,-3,-5,1
1480098851802728,-1,-1,1,0,2,0,-1,-3
1480098851804722,-1,-2,-12,-2,1,0,6,1
1480098851804722,0,1,-1,-1,-1,3,0,4
1480098851815751,1,1,0,-1,-5,-3,-4,-2
1480098851815751,0,-3,-1,0,-3,-3,-2,1
1480098851825286,-2,1,2,2,7,2,-2,0
1480098851825286,-1,-2,1,0,-1,2,4,0
1480098851839834,-2,0,-2,-2,-1,0,1,-1
1480098851839834,1,0,0,-2,-5,-3,-2,-4
1480098851841834,-1,0,1,-1,-4,-2,0,-2
1480098851841834,1,-2,2,1,1,1,3,0
1480098851862902,2,-2,-9,0,5,-1,0,-2
1480098851862902,-1,0,-3,0,-3,0,-1,0
1480098851863894,-9,-1,4,-1,-2,1,3,-1
1480098851863894,-1,0,-2,-2,-5,-1,2,1
1480098851884948,2,-1,2,0,0,-1,2,-1
1480098851884948,1,-1,-10,-4,1,-4,-3,2
1480098851886976,1,1,4,1,-3,-7,-4,-3
1480098851886976,-1,1,3,0,-4,-2,2,-3
1480098851900000,-1,3,-6,2,6,8,2,2
1480098851900000,-5,-1,-2,0,3,2,3,-1
1480098851901995,1,-1,5,-2,-4,-5,-2,0
1480098851901995,0,-1,-6,-4,-3,-1,0,0
1480098851930070,1,3,9,0,2,-2,0,1
1480098851930070,-1,0,-1,2,0,4,2,0
1480098851932075,2,-1,2,2,4,4,0,0
1480098851932075,2,-2,-2,-1,-2,0,2,-1
1480098851944646,-2,-2,1,-1,-7,-6,-4,1
1480098851944646,0,0,3,-2,-9,-5,-2,-2
1480098851946643,1,-1,-4,-1,2,-1,0,0
1480098851946643,-2,2,2,3,6,4,-1,-1
1480098851959731,-1,-2,-2,-1,-2,2,0,-1
1480098851959731,0,-2,4,3,5,2,-3,1
1480098851961690,0,0,-8,-6,-11,-10,-8,-2
1480098851961690,0,-3,-6,0,3,7,12,4
1480098851982741,-2,-4,4,1,0,-1,-8,-2
1480098851982741,0,6,2,-3,-2,4,11,2
1480098851984749,0,-2,-8,0,-3,-3,-4,0
1480098851984749,-4,8,3,0,1,-8,-9,-3
1480098852004800,-1,-6,-4,-1,1,3,5,0
1480098852004800,3,-1,6,2,-1,-2,-2,2
1480098852006804,1,2,2,0,5,2,1,2
1480098852006804,-2,-2,-3,-4,-7,-7,-6,-4
1480098852018913,0,0,1,2,0,-5,-6,-3
1480098852018913,0,-2,-5,-2,-4,-1,3,-3
1480098852027943,-2,0,1,0,5,0,2,2
1480098852027943,2,-6,-13,-4,-8,-2,-4,-1
1480098852042506,0,3,6,1,4,-1,-5,-7
1480098852042506,-4,1,0,4,4,5,5,2
1480098852044551,8,5,2,-1,-1,7,13,0
1480098852044551,-3,-2,8,-2,-2,-3,-3,-2
1480098852065582,0,-3,-18,-3,-4,-7,-2,2
1480098852065582,-2,-7,1,0,0,-4,-2,-3
1480098852067577,1,-3,0,-1,-5,-4,-7,-3
1480098852067577,-1,2,1,0,1,0,4,1
1480098852079605,1,4,1,2,-2,2,3,1
1480098852079605,-2,0,3,1,6,5,2,-1
1480098852086624,2,-1,-2,-1,-2,0,-2,2
1480098852086624,1,-1,4,1,-3,-3,1,-1
1480098852102677,-7,-3,-2,-3,-8,-5,-5,-3
1480098852102677,5,2,4,0,2,-6,1,0
1480098852104673,-2,-3,-1,-2,0,1,-4,-2
1480098852104673,1,0,-1,1,2,-1,5,0
1480098852125229,2,-1,4,-3,0,1,-2,1
1480098852125229,-4,-2,0,-2,0,6,6,-1
1480098852126735,-3,-2,-9,1,-2,-3,-4,-1
1480098852126735,2,-1,1,1,-5,-3,-6,0
1480098852139847,0,1,2,0,0,0,1,-1
1480098852139847,0,1,8,2,2,-3,-7,-2
1480098852145864,-3,-4,-7,-4,0,1,-3,0
1480098852145864,-1,1,6,2,1,5,4,-1
1480098852162909,-3,-1,1,-2,0,-4,-8,0
1480098852162909,3,-1,-5,-4,-8,-3,-1,3
1480098852163912,-2,-1,3,-1,5,0,4,0
1480098852163912,0,0,-4,-3,-3,1,3,-1
1480098852184969,2,1,2,-1,-5,-5,-2,-1
1480098852184969,-4,-4,-18,-4,-2,-2,-6,-2
1480098852186989,-1,0,7,2,-1,2,-1,0
1480098852186989,-2,-4,-3,0,3,1,-3,-3
1480098852199006,0,2,7,1,3,4,3,-1
1480098852199006,0,-1,-3,-4,-7,-4,4,2
1480098852206094,-2,-4,-6,0,0,0,2,-4
1480098852206094,2,0,1,-3,0,-1,-2,0
1480098852223610,0,-1,-2,-1,3,1,6,-1
1480098852223610,-1,-2,-6,-1,-5,-6,-7,-1
1480098852225125,1,4,7,1,-1,-1,-3,-3
1480098852225125,-3,0,-3,2,-1,3,4,3
1480098852245190,0,-2,-6,-3,6,-2,-2,0
1480098852245190,2,-1,-1,-2,-3,-3,-6,0
1480098852246191,0,-1,1,0,-1,0,5,-3
1480098852246191,0,-1,0,-1,-8,-1,-4,-2
1480098852259230,1,1,3,2,7,5,9,0
1480098852259230,-2,-3,-6,1,0,-3,-12,-6
1480098852266245,1,0,3,-1,-4,-2,12,4
1480098852266245,-3,0,-1,-2,-3,-10,-19,-1
1480098852290308,-1,-1,8,2,-2,8,19,0
1480098852290308,-2,-1,-2,1,4,1,-4,-2
1480098852291321,-2,0,2,2,3,2,-4,0
1480098852291321,-1,0,1,-1,2,-3,-4,-1
1480098852305403,-1,-1,-7,-4,-4,0,-1,2
1480098852305403,2,1,2,-2,-4,-3,0,-2
1480098852306354,-3,0,0,-1,1,-1,-3,-1
1480098852306354,1,0,5,1,4,4,3,-2
1480098852319388,2,-1,-2,2,-6,-4,-3,-1
1480098852319388,-1,0,-1,1,11,6,7,1
1480098852326415,-2,-2,0,-1,-6,-5,-8,-1
1480098852326415,1,-1,2,-2,-4,-4,5,2
1480098852342707,0,-1,-11,-3,5,0,-4,-1
1480098852342707,-1,0,4,-1,-4,2,1,0
1480098852343708,2,-1,-8,-6,-7,-4,1,1
1480098852343708,-8,-4,-3,4,7,2,2,1
1480098852364767,-3,-2,1,0,-4,-4,-5,-4
1480098852364767,9,2,4,0,2,4,3,7
1480098852366777,2,-1,-1,0,3,5,-1,1
1480098852366777,3,-1,1,-4,-5,-4,0,1
1480098852378805,-5,-3,-14,-4,-1,-2,-1,0
1480098852378805,-6,0,2,-2,-2,-4,-5,-6
1480098852387825,3,-1,0,3,0,4,1,-3
1480098852387825,0,2,-4,0,1,0,-1,-2
1480098852402865,-2,0,0,-4,0,0,-2,0
1480098852402865,-4,-1,-5,-2,-6,-5,-2,-2
1480098852408920,-3,-1,-2,-2,0,-5,0,-1
1480098852408920,2,-1,-2,2,6,6,3,1
1480098852425429,0,0,6,1,-2,-4,-3,-2
1480098852425429,-1,-1,-5,-2,-5,-3,3,1
1480098852426970,-2,1,-2,3,1,6,2,1
1480098852426970,-1,-2,2,2,6,1,1,0
1480098852438570,2,2,6,0,-2,1,-6,3
1480098852438570,-1,-2,-12,-2,-4,0,9,0
1480098852447594,-2,0,2,-1,1,-3,-9,2
1480098852447594,0,-1,-1,-3,-4,-1,-1,-7
1480098852462653,-3,-4,-5,-3,-3,-5,-1,-3
1480098852462653,2,0,4,-1,1,-1,-3,0
1480098852468651,0,-1,-2,-1,-2,-4,-4,-1
1480098852468651,-5,-1,-4,-1,-3,-1,-2,-1
1480098852484694,3,2,1,0,0,1,2,3
1480098852484694,0,0,2,2,8,5,7,0
1480098852486723,1,0,6,3,6,1,2,-1
1480098852486723,0,0,0,-4,-3,-1,-4,-1
1480098852498731,-1,1,0,1,-4,-6,-1,-1
1480098852498731,-1,1,-2,-3,-5,-3,-3,0
1480098852507755,1,-1,3,-1,-3,-4,0,-1
1480098852507755,-2,-1,-2,-1,3,0,2,0
1480098852522819,1,-2,-4,2,0,3,2,2
1480098852522819,0,1,1,0,3,-3,-5,-2
1480098852524319,0,1,-4,-1,2,0,-7,-2
1480098852524319,0,0,3,1,-2,3,8,0
1480098852544514,0,0,0,-3,0,-2,-1,1
1480098852544514,-3,-2,3,-1,-4,-1,-3,1
1480098852546519,-4,-2,-4,-2,-3,-2,-4,-2
1480098852546519,3,-2,-8,-3,-3,-1,2,2
1480098852558591,-1,1,0,0,1,2,-4,-2
1480098852558591,-3,-1,2,1,-3,-1,1,0
1480098852567574,-2,0,-2,1,5,6,8,-1
1480098852567574,1,-1,4,0,-2,-1,-1,-2
1480098852582658,-3,0,-3,-1,0,-1,-4,-3
1480098852582658,-1,-2,-2,-1,-3,-2,-2,1
1480098852584664,0,-2,-7,-5,-3,-1,5,-1
1480098852584664,0,0,0,-2,-2,-3,-5,-1
1480098852604674,0,0,5,1,0,2,11,5
1480098852604674,-1,-1,1,-1,6,3,-1,-5
1480098852606678,-1,0,1,0,1,-1,-1,-1
1480098852606678,0,0,6,1,-1,-2,-2,-2
1480098852618713,-1,-2,-9,-2,-4,-7,-3,0
1480098852618713,-1,0,1,0,-2,2,3,-1
1480098852627788,-1,0,-2,1,-1,2,2,-1
1480098852627788,-1,0,2,0,3,-4,-1,1
1480098852642420,2,0,0,-2,0,6,0,0
1480098852642420,-2,-1,-6,-1,-3,-2,-4,-5
1480098852644421,1,1,2,-1,-4,-7,-8,-1
1480098852644421,-1,-3,-2,0,-5,-3,-1,-1
1480098852665481,-3,-1,1,2,6,4,5,-3
1480098852665481,1,-1,2,0,-2,3,-3,-2
1480098852666480,-2,0,-1,0,1,-1,-10,1
1480098852666480,0,1,1,1,-2,-2,-2,0
1480098852678556,1,1,7,0,-1,-1,-4,-2
1480098852678556,-2,-3,-14,-2,-1,-2,0,0
1480098852687536,1,0,-2,-3,-6,-4,-2,-1
1480098852687536,0,-1,-2,-1,3,1,2,-1
1480098852702619,0,-2,-3,-2,-2,-2,-3,-2
1480098852702619,-3,1,5,1,-1,0,0,0
1480098852704597,0,-3,-3,-1,-2,0,0,-1
1480098852704597,0,0,1,1,4,3,5,3
1480098852725183,-13,0,1,-1,0,-2,-2,-5
1480098852725183,1,-1,1,-1,-7,-4,-6,1
1480098852726647,1,-1,-2,2,13,7,6,2
1480098852726647,2,0,2,2,-3,0,-1,-1
1480098852738480,1,-3,-3,-2,-2,-4,-4,0
1480098852738480,-3,-1,-1,-2,-3,-2,1,-3
1480098852747507,-1,-1,4,1,-7,-7,-5,0
1480098852747507,-2,-1,-13,-4,3,3,0,0
1480098852762554,2,2,1,0,1,4,6,2
1480098852762554,0,-2,0,0,1,-3,-3,1
1480098852764550,-2,-1,-5,-4,-7,-5,0,-1
1480098852764550,-1,-2,6,0,-2,-3,-5,2
1480098852784604,3,-1,-8,-2,1,5,0,2
1480098852784604,0,0,2,2,3,1,6,0
1480098852786608,-4,-1,2,-3,-4,1,1,-4
1480098852786608,-2,-1,-2,1,-3,-6,-8,-4
1480098852807680,0,-1,5,0,1,0,0,1
1480098852807680,0,2,1,-1,2,5,0,2
1480098852809708,-1,-2,-9,-4,-3,-1,0,0
1480098852809708,-1,-1,-1,0,1,-1,-3,-3
1480098852822706,1,-2,-1,2,0,-6,-4,-2
1480098852822706,-2,-1,-1,-4,-3,1,0,1
1480098852824216,1,3,6,4,2,0,6,-5
1480098852824216,-1,1,-6,-1,2,2,-9,-2
1480098852844772,2,-3,-1,-2,-6,-2,-3,1
1480098852844772,1,-1,1,2,7,3,-2,3
1480098852846778,-1,0,6,-2,-4,3,2,-2
1480098852846778,-1,-2,-8,-3,-3,-3,0,0
1480098852866831,-2,1,-4,0,0,1,0,-2
1480098852866831,-2,-1,2,-3,-5,-5,-7,-3
1480098852873928,-2,-3,1,-2,-3,-6,-4,0
1480098852873928,1,0,4,1,2,1,4,-1
1480098852882918,1,-3,-1,1,-3,-4,-4,2
1480098852882918,-1,-2,1,-1,0,4,8,-2
1480098852883891,1,3,0,1,9,0,-6,2
1480098852883891,-1,-1,1,-2,-6,4,13,2
1480098852904932,0,-1,-1,1,0,-2,0,2
1480098852904932,1,1,2,1,-2,-2,-1,-3
1480098852906937,-2,-1,-2,-2,-7,-3,-3,-3
1480098852906937,-1,2,1,1,-3,0,-3,3
1480098852928015,3,0,9,2,10,6,6,-7
1480098852928015,-2,-3,-16,-5,-1,-2,3,0
1480098852929511,-2,-1,-1,-2,-5,-1,-3,-1
1480098852929511,0,1,-2,-1,1,-9,-5,1
1480098852942146,-3,0,-1,-1,-4,2,0,-3
1480098852942146,-1,1,3,1,3,0,-1,0
1480098852948161,-4,-2,-2,2,0,0,4,-2
1480098852948161,2,-1,6,-1,-1,0,-4,-1
1480098852965198,-4,-1,-8,-4,-7,-11,-10,-3
1480098852965198,1,1,0,2,4,7,14,1
1480098852966201,2,0,5,1,5,2,0,1
1480098852966201,-5,-4,-12,-1,-2,4,5,-5
1480098852988260,-1,-1,3,-1,3,-5,-6,0
1480098852988260,1,-3,-2,-2,-3,-4,-4,0
1480098852993273,0,-2,-2,-3,-4,-3,-1,-1
1480098852993273,-1,0,2,-1,2,1,-3,-1
1480098853002300,1,1,-1,-1,-4,0,3,4
1480098853002300,0,0,1,3,5,1,-2,4
1480098853008325,-1,-1,0,1,7,6,3,-3
1480098853008325,-2,-2,-7,-3,-8,-6,-5,-2
1480098853025363,-1,0,-4,-1,-1,0,6,-1
1480098853025363,-2,1,8,1,-1,1,0,-2
1480098853026867,0,-3,-13,-1,2,1,0,1
1480098853026867,1,1,2,-1,-2,-3,-2,-1
1480098853047998,0,-2,7,-2,-6,-4,-1,-1
1480098853047998,-2,-2,-15,-4,-2,-4,-7,-3
1480098853048978,-2,0,5,2,2,4,8,-1
1480098853048978,1,0,0,0,3,4,5,-1
1480098853062024,-1,1,-3,0,-1,2,-1,0
1480098853062024,-4,-1,5,-1,-2,-5,-7,-4
1480098853069072,3,2,-2,-2,-2,-1,-2,3
1480098853069072,-4,-1,-1,0,-6,-1,-1,-1
1480098853085074,-1,1,2,2,4,1,1,3
1480098853085074,0,0,3,1,0,0,-4,-3
1480098853087078,-2,-4,-3,-2,-5,-5,-4,-2
1480098853087078,-1,0,-1,0,0,1,1,0
1480098853107169,-2,-1,0,-2,0,1,-3,-5
1480098853107169,0,-1,1,-2,0,-2,-3,0
1480098853109143,-3,-1,0,-2,-7,-3,-3,0
1480098853109143,1,0,6,3,6,0,0,0
1480098853130213,0,1,-5,-2,-2,-1,0,-2
1480098853130213,0,-3,3,0,1,2,-1,-4
1480098853132217,3,0,-6,1,1,6,5,3
1480098853132217,-1,-3,0,-3,-2,0,-1,1
1480098853144818,-4,-2,-1,-3,-4,-3,-1,1
1480098853144818,1,-1,-1,1,-1,-6,-5,0
1480098853146823,3,1,0,-1,-2,-4,-4,-1
1480098853146823,-10,-2,0,-2,-2,-1,-1,-2
1480098853167878,2,0,3,2,3,1,-2,1
1480098853167878,-1,-2,-7,-2,-4,-1,6,0
1480098853168882,1,-1,0,0,3,1,-1,-1
1480098853168882,1,1,-2,1,1,-2,-4,-1
1480098853181916,-1,-1,2,0,-4,-1,8,-2
1480098853181916,-1,0,-2,-2,1,0,2,3
1480098853188966,-2,0,-3,-1,-3,-2,-4,-2
1480098853188966,1,-1,2,-1,1,-3,-2,0
1480098853204005,-7,-2,-3,0,1,-1,-4,-5
1480098853204005,6,-2,-11,-1,-7,-2,2,2
1480098853213000,-3,-2,0,1,7,2,0,-1
1480098853213000,2,-2,-3,-3,0,4,2,0
1480098853227629,1,1,0,0,-1,0,-3,0
1480098853227629,0,0,4,-1,0,-2,5,1
1480098853229600,-1,-3,0,0,-11,-8,-10,1
1480098853229600,1,0,-3,-1,5,8,6,-2
1480098853241765,0,-4,-4,-3,-1,-1,-5,-2
1480098853241765,-2,0,2,0,0,1,-2,-1
1480098853248783,0,1,1,-1,-1,0,-2,0
1480098853248783,2,0,0,2,0,-3,-4,1
1480098853264817,3,0,-7,-2,1,1,2,4
1480098853264817,-2,-2,1,-2,-3,-3,-6,-2
1480098853266817,-1,-1,3,1,4,4,2,-1
1480098853266817,1,1,1,-1,0,-3,2,1
1480098853287928,-1,-1,-4,-1,-2,-1,2,-1
1480098853287928,-2,0,-3,-1,1,2,0,1
1480098853288880,0,0,-1,-2,-3,-4,-6,0
1480098853288880,0,-3,-1,-1,-5,-3,5,-3
1480098853300911,3,0,4,2,2,1,0,4
1480098853300911,-3,-2,-1,2,12,8,2,-1
1480098853309932,-4,-1,0,1,-3,-4,-2,-4
1480098853309932,2,0,4,2,2,3,-1,2
1480098853325488,-3,1,-1,-4,-7,-4,-4,-2
1480098853325488,-2,0,-9,-1,-1,-3,-14,-3
1480098853326993,0,1,2,1,5,7,13,2
1480098853326993,-6,0,2,-3,-6,-3,-3,-1
1480098853351060,2,-3,-7,-2,0,-4,-2,-1
1480098853351060,-1,0,2,2,-3,-3,1,5
1480098853351060,0,0,3,-2,-2,-3,-3,-6
1480098853351060,-1,-1,-12,-3,-2,-3,0,-1
1480098853361086,-2,0,1,2,0,1,-2,0
1480098853361086,0,0,-2,-2,0,0,4,0
1480098853370111,-1,-3,1,0,-1,0,4,2
1480098853370111,-1,0,1,-2,-3,-2,-3,0
1480098853385151,-1,-1,0,2,2,-1,-3,-2
1480098853385151,0,2,5,1,3,-1,2,0
1480098853387176,0,-1,-12,-4,0,2,3,0
1480098853387176,1,2,2,3,0,-1,-4,2
1480098853407210,-3,-2,-1,-1,1,-4,-2,0
1480098853407210,0,-2,4,-1,-6,-4,-2,-3
1480098853409233,0,0,-4,0,3,7,3,3
1480098853409233,0,-1,-3,-1,3,-1,-3,0
1480098853421263,-1,0,2,-1,-4,-1,-1,-2
1480098853421263,0,-2,-2,-4,-8,-6,-4,-1
1480098853437802,3,0,-1,-1,-2,-5,-2,-3
1480098853437802,-1,-1,2,1,-1,0,0,-2
1480098853444836,0,-3,0,0,1,5,4,-2
1480098853444836,0,-2,-3,0,0,-2,-3,-1
1480098853446827,0,1,5,-2,-3,-2,-1,-3
1480098853446827,3,-1,0,-1,-2,1,1,1
1480098853467896,-1,1,4,2,2,0,-1,0
1480098853467896,0,1,0,-2,-1,1,1,0
1480098853468884,-1,-1,-3,-3,-7,-7,-2,0
1480098853468884,-1,-1,2,2,0,-3,-2,-1
1480098853480948,-1,1,-4,0,9,4,0,0
1480098853480948,-1,-1,0,2,-4,2,2,-1
1480098853489942,-4,-1,0,-3,-1,-3,-4,-2
1480098853489942,-2,-1,0,1,2,-1,-1,-2
1480098853504982,0,-1,0,0,-3,-2,1,1
1480098853504982,2,1,-2,-2,-2,-1,-4,0
1480098853506987,-3,-3,-1,0,-2,-1,2,5
1480098853506987,-1,0,-4,-3,-5,-4,-4,-9
1480098853527548,3,-1,-1,2,3,3,2,1
1480098853527548,-1,-1,2,-2,-1,2,2,-1
1480098853529554,0,-2,1,1,-1,-2,-4,2
1480098853529554,-1,-1,-4,-2,-2,1,10,0
1480098853541298,-3,-1,1,-1,0,-2,-8,-3
1480098853541298,2,-1,-1,2,-1,-1,7,3
1480098853550275,-1,-2,-1,-1,0,-2,-5,-3
1480098853550275,0,-2,0,-2,-3,-2,-3,2
1480098853565315,-1,0,-1,-2,-3,-4,1,-1
1480098853565315,-2,-1,-1,1,0,-1,-3,-1
1480098853566380,-1,1,0,2,4,0,-3,-1
1480098853566380,-1,-1,-1,-1,2,2,1,0
1480098853587381,1,0,6,0,-5,0,0,0
1480098853587381,0,0,-6,-2,0,-2,-4,-3
1480098853589378,-4,-3,-2,0,0,-1,3,-2
1480098853589378,0,-1,0,-1,0,2,-4,0
1480098853601411,1,0,-1,-3,-6,-2,2,2
1480098853601411,3,0,3,0,3,-5,-8,-4
1480098853610443,-1,-1,0,3,4,6,14,0
1480098853610443,1,0,1,0,5,4,-1,2
1480098853625485,-1,0,-3,-2,-4,-1,-3,-1
1480098853625485,-3,-1,4,1,-4,-3,-2,-1
1480098853626985,2,-1,-3,-3,-3,-8,-13,-2
1480098853626985,-1,-1,-5,0,-5,1,5,1
1480098853647177,-1,0,2,1,2,-1,-1,2
1480098853647177,-1,-1,-3,0,-1,3,7,0
1480098853649183,0,4,10,2,2,2,-2,-1
1480098853649183,1,-3,-10,-5,-2,-5,-5,-3
1480098853661251,1,-2,-3,-2,-1,1,-1,-2
1480098853661251,-3,-1,2,-1,-1,-1,-2,0
1480098853670239,1,-1,-4,2,0,-2,-5,-1
1480098853670239,0,1,2,-1,1,2,6,-1
1480098853685279,-1,0,-2,-3,-4,-4,1,-1
1480098853685279,-1,-1,1,-1,0,3,1,0
1480098853686280,-1,-2,-1,-2,-2,-2,2,0
1480098853686280,0,2,4,1,0,-3,-4,0
1480098853707366,2,1,2,2,-2,2,2,0
1480098853707366,-11,-2,-2,-5,-5,-5,-4,-4
1480098853709355,0,-1,1,1,3,4,4,-1
1480098853709355,-2,-2,-5,-6,-5,-1,2,0
1480098853721376,-1,-1,-2,2,5,0,-1,-1
1480098853721376,2,0,-6,-3,-4,-4,1,-1
1480098853735914,-1,-1,1,1,2,4,-2,0
1480098853735914,0,-1,5,2,-2,-3,-3,-1
1480098853745029,-1,-1,-10,-6,-8,-3,0,-2
1480098853745029,-1,-2,2,0,4,2,-4,-5
1480098853747038,0,0,1,2,0,-4,-1,2
1480098853747038,-1,-3,-4,1,1,3,0,0
1480098853767090,-1,0,0,1,1,0,-3,-1
1480098853767090,2,0,1,0,-3,-2,0,0
1480098853769094,-1,-2,-5,-3,-6,-4,-4,-1
1480098853769094,-3,3,4,1,2,-4,-3,-1
1480098853791187,-2,0,-6,0,-3,-2,-2,-2
1480098853791187,3,-3,3,-3,1,2,-1,-1
1480098853792155,-4,0,-1,-3,-3,-3,0,-2
1480098853792155,0,-1,-1,1,3,-2,-1,1
1480098853805197,-2,-2,3,-1,4,-1,-4,0
1480098853805197,2,0,-8,0,-4,-5,-6,-3
1480098853806194,1,1,-6,1,8,10,6,1
1480098853806194,0,1,-3,-1,0,1,-2,1
1480098853827829,-2,-3,-1,-3,-3,-1,1,-2
1480098853827829,-1,0,1,2,-5,2,2,1
1480098853829297,0,-2,1,0,1,-6,-10,-2
1480098853829297,-2,-2,-1,1,-1,5,6,0
1480098853848967,0,-2,2,-1,3,-2,-2,1
1480098853848967,-2,0,-2,-1,-4,-3,-7,-4
1480098853857986,0,-2,0,-1,-6,-3,-4,-4
1480098853857986,-1,0,0,-2,0,-2,2,-3
1480098853864002,-1,1,6,1,1,-2,2,0
1480098853864002,2,0,0,0,4,2,4,5
1480098853871027,-1,-1,3,0,-3,0,4,-1
1480098853871027,2,1,1,-4,-5,-3,-4,-2
1480098853887065,-2,-2,0,0,-7,1,3,3
1480098853887065,0,1,2,0,6,0,1,7
1480098853889073,-1,0,1,1,3,1,4,-6
1480098853889073,2,-2,0,2,3,4,2,2
1480098853910171,-6,-3,-6,-2,0,1,0,-4
1480098853910171,2,1,2,-2,-6,-4,2,1
1480098853912179,-1,1,1,-2,-3,-6,-7,-1
1480098853912179,-4,0,-7,-2,-4,-2,-6,-1
1480098853924742,7,-1,-10,1,7,1,4,0
1480098853924742,-1,2,4,1,-1,6,3,-3
1480098853931722,1,-6,-3,-1,1,1,3,3
1480098853931722,0,2,0,1,-1,-4,-6,-8
1480098853946916,-1,8,18,-2,-6,-2,-3,2
1480098853946916,-4,-7,-6,-2,1,-5,-2,-2
1480098853954899,-3,0,-2,1,1,4,1,4
1480098853954899,1,-2,4,2,-5,0,6,0
1480098853969937,1,-3,0,0,9,1,1,1
1480098853969937,1,5,2,1,1,1,0,-3
1480098853971944,-2,-1,-2,-4,-9,-4,-2,-3
1480098853971944,0,-2,1,-1,1,-9,-10,4
1480098853984007,0,0,-6,-2,1,2,2,-2
1480098853984007,-1,-1,-6,-3,-1,4,-5,-2
1480098853991017,-1,1,1,0,-1,-3,2,1
1480098853991017,0,-3,-2,-3,-5,-3,-1,-2
1480098854008039,-1,-1,0,-1,-2,-6,-16,-2
1480098854008039,0,-2,3,1,1,0,5,0
1480098854009041,-4,1,-1,0,-4,-1,-8,-2
1480098854009041,3,1,5,1,0,-1,4,1
1480098854030099,0,-2,-6,-3,-4,-2,-3,0
1480098854030099,-1,-1,-4,0,-3,2,5,0
1480098854032108,1,0,-1,-2,3,1,-3,-2
1480098854032108,-2,-1,0,1,1,2,1,1
1480098854044149,2,-2,1,3,2,2,2,4
1480098854044149,3,0,-7,-2,-1,-2,-2,1
1480098854051179,0,-1,0,-2,-1,-1,2,1
1480098854051179,-5,-3,-6,-4,-2,-1,-2,1
1480098854067213,1,0,1,2,-1,9,6,2
1480098854067213,-2,0,4,-1,-1,-3,0,1
1480098854069214,0,-3,-14,-2,-5,-5,-11,0
1480098854069214,-2,0,3,2,0,-1,1,-2
1480098854090270,-2,0,-1,-1,4,3,6,0
1480098854090270,-1,-2,4,-2,0,-1,-5,-1
1480098854091273,1,-2,1,-1,-3,-1,2,1
1480098854091273,0,0,-8,-2,-1,-4,-6,-1
1480098854104345,-3,-2,-2,0,1,-5,3,-2
1480098854104345,-2,-2,-1,2,1,4,0,-2
1480098854112361,3,3,2,1,0,-3,-9,0
1480098854112361,-1,1,5,0,-2,3,17,-1
1480098854127873,-1,-1,2,0,2,0,0,0
1480098854127873,-1,-3,-8,-2,-3,-6,-7,-1
1480098854129388,5,1,1,1,3,4,8,0
1480098854129388,-12,-1,0,-1,1,1,-11,-1
1480098854150099,-2,-1,-10,-3,-7,-8,-6,-1
1480098854150099,0,-2,2,1,3,-1,3,-3
1480098854152143,0,-1,-11,-3,-6,0,1,1
1480098854152143,2,-2,3,0,9,2,0,0
1480098854164137,0,1,2,-1,-3,-1,-2,0
1480098854164137,-2,-3,-1,-1,-5,1,-3,-3
1480098854171159,-1,0,4,1,5,-3,1,-2
1480098854171159,3,-1,-4,-3,-9,-2,3,1
1480098854187197,-3,0,-1,-1,3,0,-3,-4
1480098854187197,1,-2,4,3,1,5,-2,1
1480098854189202,-1,-2,-1,-2,0,5,6,-3
1480098854189202,-5,-2,2,-2,-8,-1,0,-1
1480098854210302,7,0,8,1,3,-1,0,1
1480098854210302,-4,-1,-13,-3,-2,-5,-4,-2
1480098854211263,-2,-1,-1,-1,-1,-3,-1,-1
1480098854211263,2,1,-1,-1,4,3,-3,-2
1480098854224846,0,-3,2,-1,-5,-1,-2,-3
1480098854224846,0,0,5,-3,0,-2,7,3
1480098854231319,-2,1,-3,1,5,4,4,-2
1480098854231319,1,0,-1,-3,-5,-9,-4,-2
1480098854248047,-1,-2,-8,-3,-3,-2,-8,2
1480098854248047,4,2,1,4,9,8,20,-1
1480098854249052,-1,-1,5,1,2,-2,-9,-4
1480098854249052,-1,-3,0,2,-1,-2,-5,-2
1480098854270104,-4,0,-4,-1,-1,0,13,-2
1480098854270104,0,2,2,-1,-3,0,-3,2
1480098854272111,2,0,7,-1,-3,-2,-1,3
1480098854272111,1,-1,-3,-2,-2,0,2,-1
1480098854284161,-8,-2,-5,1,-2,-3,-5,-2
1480098854284161,-1,-1,12,1,7,1,-4,-1
1480098854292164,-1,-1,-4,1,-2,-1,7,3
1480098854292164,4,1,-2,0,4,2,-1,1
1480098854307204,2,1,-2,-3,-8,-3,1,-1
1480098854307204,-4,-2,-1,-5,-2,-3,-5,0
1480098854309210,0,1,2,-1,-4,1,-3,0
1480098854309210,-3,-2,-2,1,2,0,-3,-1
1480098854330317,0,-1,0,-1,-1,-2,2,-2
1480098854330317,-4,-1,-4,0,3,1,0,-3
1480098854331784,2,-1,4,0,-7,0,-1,2
1480098854331784,0,-1,-13,-1,3,0,1,-1
1480098854343996,-1,-1,4,0,-5,0,-4,-2
1480098854343996,-1,-1,-2,1,1,-2,-6,1
1480098854353022,-3,-3,-3,-1,0,-1,5,-2
1480098854353022,-2,-1,-2,-1,-2,0,-3,0
1480098854367091,4,0,0,2,5,4,1,1
1480098854367091,-1,0,1,-2,-8,-4,-1,0
1480098854369063,-1,-6,-4,-4,5,-2,0,-3
1480098854369063,3,-1,-4,-1,-2,-2,1,2
1480098854390138,-2,1,-1,-2,-4,1,-2,-1
1480098854390138,-1,0,0,2,3,0,0,-1
1480098854392125,-2,2,6,-1,0,2,2,0
1480098854392125,3,2,2,2,3,4,2,1
1480098854403195,0,-1,-9,0,-2,-5,-10,0
1480098854403195,1,-2,-3,-2,-4,-2,0,-2
1480098854418231,-1,0,-2,0,-3,-3,0,0
1480098854418231,-2,-2,3,-1,1,-5,-1,-2
1480098854427725,-1,-1,5,0,2,3,0,1
1480098854427725,-1,-3,-8,-4,-3,-3,-3,0
1480098854429229,0,0,-5,-2,-2,-5,-6,0
1480098854429229,0,-4,5,0,-2,-1,2,3
1480098854449911,-2,0,2,0,1,2,4,-3
1480098854449911,-2,-1,-1,1,0,2,-1,-2
1480098854451943,0,-3,-1,-2,-6,-1,-1,-1
1480098854451943,0,0,-1,-2,1,-1,-2,-1
1480098854463971,0,-1,1,-2,-5,-5,-1,-1
1480098854463971,0,0,0,2,1,1,2,-3
1480098854472962,-3,0,-6,0,4,1,0,-3
1480098854472962,0,-1,6,4,3,4,1,-1
1480098854486996,0,-1,1,1,5,1,-1,-2
1480098854486996,-13,-4,-11,-3,-3,-3,-1,-2
1480098854489001,0,-2,-2,-1,-6,-5,-3,-2
1480098854489001,0,0,-5,-1,-1,1,-1,0
1480098854510059,0,-2,9,3,3,0,0,0
1480098854510059,3,1,-2,-2,-3,-2,-2,2
1480098854512063,0,-2,-1,0,6,3,-3,0
1480098854512063,-2,-2,2,-2,-3,2,-1,-2
1480098854524106,0,-1,-2,-1,-4,-1,6,-1
1480098854524106,2,1,2,0,0,-1,-2,3
1480098854533127,-3,-2,-3,-4,-3,-4,-3,-8
1480098854533127,-1,1,0,0,0,0,0,-1
1480098854547791,-1,-1,7,2,7,9,6,0
1480098854547791,0,-1,-11,0,2,-5,-1,1
1480098854548796,0,2,5,-1,-6,1,3,1
1480098854548796,1,0,-4,-3,-3,-6,-6,-1
1480098854570852,-2,-2,-4,-2,-2,-5,-3,-2
1480098854570852,3,2,4,0,-2,1,-1,-1
1480098854571855,-1,1,0,0,3,0,0,1
1480098854571855,-2,0,-2,-1,-1,2,3,-2
1480098854583885,-1,0,1,-1,-1,-2,-3,0
1480098854583885,-1,-3,-4,-3,-5,-6,-6,-2
1480098854592913,-2,-2,-1,-1,0,1,8,1
1480098854592913,-1,0,2,1,5,5,1,1
1480098854608030,2,1,-4,-1,-2,-1,-1,0
1480098854608030,-1,-1,11,1,0,-2,0,-4
1480098854608966,0,0,-2,-1,-4,-1,-4,-1
1480098854608966,-3,-1,-12,-3,2,-1,1,-1
1480098854630018,-2,-2,-3,-2,-6,-2,-5,-2
1480098854630018,0,0,4,1,7,4,5,0
1480098854632017,0,1,3,3,2,-1,-3,0
1480098854632017,-4,0,2,-2,-6,-2,-1,-3
1480098854643689,0,-1,-6,-3,-2,-3,-1,1
1480098854643689,0,0,0,1,1,-1,2,2
1480098854652713,1,-1,-5,-2,0,0,0,-1
1480098854652713,0,0,3,0,-6,-3,1,-2
1480098854667754,-1,0,-2,-1,2,0,3,-1
1480098854667754,1,-1,2,0,-2,3,-3,-1
1480098854668757,-2,-1,-3,-2,2,-1,5,-1
1480098854668757,2,-1,-3,-1,-3,-1,-3,1
1480098854689812,-1,1,4,-1,3,1,-2,0
1480098854689812,-1,-3,-16,-3,-1,3,3,-1
1480098854691817,2,1,3,0,1,1,0,3
1480098854691817,-3,-4,1,-1,-4,-2,0,-2
1480098854712874,-1,-1,-6,-1,-5,-4,-3,-3
1480098854712874,1,-1,2,-3,0,-1,2,5
1480098854713877,-4,-4,-2,-1,-1,0,-3,-1
1480098854713877,0,1,3,-1,0,-3,-3,0
1480098854727914,0,0,1,2,2,-2,-4,-1
1480098854727914,1,-1,0,2,2,5,4,-1
1480098854729419,-3,0,-2,1,4,6,1,-1
1480098854729419,4,0,3,0,0,0,-4,3
1480098854749675,-3,-3,-2,-3,-5,-2,5,-2
1480098854749675,0,1,3,-1,-5,-3,-2,-1
1480098854751684,-1,-2,0,-1,-5,-4,-1,-4
1480098854751684,-2,-1,-4,1,8,0,-2,1
1480098854772790,3,2,1,2,4,3,-1,5
1480098854772790,-1,-1,3,-3,-5,-1,2,-2
1480098854773767,-1,-3,-6,-4,-1,-5,-1,0
1480098854773767,0,0,3,-1,-3,0,-1,-1
1480098854787779,-2,-2,-4,2,3,-3,-8,-3
1480098854787779,-2,-1,4,-1,-1,2,4,-1
1480098854788792,1,1,2,1,0,1,-5,0
1480098854788792,-2,-2,-6,-2,-1,-4,-1,-2
1480098854809858,-1,-2,-1,-1,-1,10,16,2
1480098854809858,-1,-1,5,1,1,-1,-4,0
1480098854811841,0,0,-11,-1,-5,-3,-6,-3
1480098854811841,0,-1,1,3,10,3,0,1
1480098854832901,-2,-2,1,-1,-6,-1,9,5
1480098854832901,-1,0,-9,-4,-5,-7,-3,-5
1480098854834403,2,-1,3,1,4,1,-1,2
1480098854834403,1,2,-1,-2,-1,-6,-2,-1
1480098854846475,-9,-1,-2,-2,-2,3,0,-3
1480098854846475,2,2,3,2,0,-1,-2,3
1480098854855497,1,-3,-1,-3,-3,-6,4,-2
1480098854855497,-1,-1,-1,1,-2,0,0,0
1480098854877557,2,0,-2,-3,-2,-2,-6,-2
1480098854877557,-1,0,-3,2,2,3,-9,-2
1480098854879580,-1,0,1,1,1,4,4,-1
1480098854879580,0,-1,2,-1,0,-2,0,0
1480098854892631,1,1,2,2,2,1,-1,-2
1480098854892631,-3,-3,-2,-3,-6,-2,0,0
1480098854894613,-1,2,5,2,8,0,-1,0
1480098854894613,-2,-2,-2,1,-2,-1,1,-2
1480098854906633,0,-1,6,-2,0,2,-4,-1
1480098854906633,1,-1,2,1,3,-1,-3,-2
1480098854913669,0,1,3,-2,-4,1,4,2
1480098854913669,0,0,0,-2,-1,2,5,-3
1480098854930213,-2,-1,2,-4,-2,-2,-8,-3
1480098854930213,-1,-1,-5,-3,-5,-6,3,-1
1480098854931717,-1,-3,2,1,6,2,0,2
1480098854931717,-1,-1,0,0,-3,3,1,-1
1480098854952836,3,0,-2,-2,3,-2,-4,0
1480098854952836,-3,0,1,1,-4,0,3,1
1480098854953807,3,1,-3,-1,-5,-4,-9,1
1480098854953807,-1,-4,-4,-5,-8,-3,5,1
1480098854966861,0,0,-2,2,0,-3,-5,-1
1480098854966861,2,0,-1,4,9,4,5,2
1480098854973911,0,-2,2,-1,-1,-1,1,-2
1480098854973911,-5,0,-3,0,-4,0,-4,-1
1480098854989901,1,0,2,1,-1,2,5,-2
1480098854989901,1,0,-2,-3,-1,0,-9,-3
1480098854991905,0,0,2,0,-1,-1,0,1
1480098854991905,4,0,2,3,2,-2,-1,-1
1480098855013964,0,1,-3,1,3,0,0,1
1480098855013964,-2,-2,1,-4,-3,-4,-5,-2
1480098855013964,0,-1,-3,-2,-6,-2,7,-1
1480098855013964,-2,1,6,0,7,1,-8,-3
1480098855027017,-3,-4,-2,-3,-6,-2,9,0
1480098855027017,1,2,5,1,2,1,0,1
1480098855034523,-6,-1,-4,-4,0,-5,-10,-3
1480098855034523,4,-1,-5,-3,-4,1,3,0
1480098855050570,0,-2,0,1,-3,-2,-3,1
1480098855050570,-1,-2,-2,2,3,0,-2,-2
1480098855051573,-2,-1,7,0,-6,-1,-8,-5
1480098855051573,-4,-2,-10,0,3,-1,-6,-1
1480098855072629,2,0,-4,-1,4,3,5,1
1480098855072629,0,-2,-4,-3,-4,-1,3,1
1480098855074666,0,-2,-2,0,-1,1,-3,-1
1480098855074666,-2,-1,5,1,0,2,-1,-1
1480098855086682,-2,0,-1,1,-2,-1,-2,-2
1480098855086682,1,-1,0,0,0,-1,-3,0
1480098855093728,-1,-2,1,3,3,1,4,-1
1480098855093728,1,-1,-6,-4,-2,-5,-3,0
1480098855109726,-1,-1,-1,-2,-5,-1,6,-1
1480098855109726,-1,-2,-1,-1,1,-2,-1,-1
1480098855111733,1,0,2,-1,-1,1,-1,1
1480098855111733,-1,0,4,0,-7,-4,2,1
1480098855132832,1,-1,3,-2,5,0,-10,0
1480098855132832,0,1,-7,0,-2,1,1,-2
1480098855134349,1,-2,0,0,-1,1,5,1
1480098855134349,-1,-1,1,-3,-3,-5,-13,-3
1480098855146951,1,0,-2,0,0,-3,-2,2
1480098855146951,1,-1,1,-1,1,4,3,0
1480098855153967,-2,1,-5,-1,1,0,-3,-1
1480098855153967,-1,0,5,-1,-3,-1,2,1
1480098855170008,0,-2,-3,0,1,-4,-2,-1
1480098855170008,-1,-3,-2,-3,-2,-3,-3,1
1480098855172014,0,0,-4,-3,-2,2,-1,2
1480098855172014,-2,-1,4,0,2,2,5,-1
1480098855192069,1,2,4,1,-1,-1,1,2
1480098855192069,-6,-3,-11,0,2,2,3,-3
1480098855194073,-2,0,3,2,2,-2,-1,-1
1480098855194073,1,-1,-3,-2,0,0,2,1
1480098855206105,-2,0,2,-3,-13,-3,0,-2
1480098855206105,-1,-1,3,-1,0,-5,-3,-1
1480098855215132,1,0,-3,2,12,7,0,1
1480098855215132,-3,-1,-3,-1,-2,1,0,-1
1480098855230233,-2,-2,-3,-3,0,1,-3,-1
1480098855230233,0,0,2,0,-9,-4,-1,-1
1480098855231704,-2,-1,-2,-3,1,-1,-3,-2
1480098855231704,1,1,2,3,7,7,2,0
1480098855251213,1,-1,0,0,1,3,2,-1
1480098855251213,-1,-1,-4,-4,-5,-4,2,1
1480098855260231,-1,-4,-11,-2,-3,0,0,-2
1480098855260231,-2,-2,-5,-1,0,-2,1,0
1480098855266255,1,0,5,1,-3,0,-2,0
1480098855266255,0,0,7,2,4,2,0,-1
1480098855275272,-3,-2,-1,-1,-2,-5,-2,0
1480098855275272,1,-1,-1,1,-2,-3,1,-2
1480098855290311,-1,-1,-6,0,5,3,-2,0
1480098855290311,-2,-1,2,-2,-8,-2,-1,2
1480098855291314,3,1,1,0,-1,-2,6,-1
1480098855291314,0,0,0,-1,-2,-1,-2,0
1480098855312370,-2,0,3,1,5,-1,-1,-1
1480098855312370,-2,0,-1,-1,-1,-1,-2,0
1480098855314408,-1,-1,3,0,0,1,1,0
1480098855314408,0,-2,1,0,-3,-1,0,-3
1480098855326433,-2,0,-7,-2,-1,-4,-2,-1
1480098855326433,1,0,3,1,3,2,-3,-5
1480098855335942,-1,1,-1,-3,-11,-3,-2,0
1480098855335942,1,-1,-2,-2,5,3,0,-3
1480098855350443,0,-2,-2,0,1,1,0,0
1480098855350443,0,1,7,3,2,-1,-1,0
1480098855351367,0,0,-6,-3,-6,-2,-1,-1
1480098855351367,0,-1,-2,-2,0,-3,-3,0
1480098855372423,1,1,-4,-3,-5,-3,2,-3
1480098855372423,1,0,3,0,5,1,-1,2
1480098855374430,-3,-1,0,-1,-3,0,3,-2
1480098855374430,1,-2,-4,0,3,1,1,1
1480098855386470,-4,-1,-4,-1,-4,-2,-6,-2
1480098855386470,0,-1,2,0,-4,-7,0,2
1480098855395488,-3,0,4,2,3,4,-1,-6
1480098855395488,3,0,-2,0,2,4,-1,3
1480098855410523,-2,-2,0,1,3,1,-3,-3
1480098855410523,-1,-2,-7,-1,-3,-1,1,-1
1480098855411526,2,-2,-4,-1,-1,0,-2,1
1480098855411526,-3,-1,1,0,-1,-4,-1,-1
1480098855432628,-1,-3,-1,-1,-3,-4,-2,0
1480098855432628,0,2,-3,-5,0,-1,-3,-2
1480098855434681,2,0,6,2,4,5,4,4
1480098855434681,-3,-2,2,-1,-5,-3,0,-2
1480098855446243,0,-1,3,0,-4,1,-3,-1
1480098855446243,-1,0,-4,-4,-2,3,5,-2
1480098855455265,1,-1,1,-1,-2,-5,-2,0
1480098855455265,-2,-2,-1,-2,-2,-2,-6,-1
1480098855470304,1,-1,-1,-1,1,-4,-6,1
1480098855470304,-1,-2,1,2,2,6,5,-2
1480098855471306,-2,-1,-2,-3,-2,-4,-6,0
1480098855471306,0,0,-2,0,-1,0,6,0
1480098855492399,-2,0,-3,-2,-2,0,2,0
1480098855492399,-1,0,0,3,1,-1,-6,-1
1480098855494369,-2,-2,2,-3,4,-5,-1,-2
1480098855494369,3,0,5,0,-4,2,-3,-1
1480098855506437,-2,-2,0,-3,-10,-1,2,0
1480098855506437,1,-1,-3,1,6,1,0,5
1480098855515428,1,2,5,2,0,3,-4,-6
1480098855515428,-3,-2,-2,-1,-2,-2,11,-3
1480098855530470,0,0,2,-3,-2,0,-1,0
1480098855530470,-1,-2,-3,-1,2,2,1,-1
1480098855531973,-1,-1,-4,0,-5,-5,-3,1
1480098855531973,-2,0,0,0,1,-2,-7,-3
1480098855552694,2,0,-5,1,4,5,4,0
1480098855552694,1,1,4,1,-1,-3,0,-2
1480098855554705,-1,-1,-3,-4,-4,-2,2,-1
1480098855554705,0,1,0,0,0,1,-1,2
1480098855566705,0,-1,-7,-1,-1,-2,-2,-2
1480098855566705,-11,-3,1,-1,-3,-2,-4,-4
1480098855575707,4,0,4,3,4,2,-4,0
1480098855575707,0,-1,0,0,-3,-6,-2,2
1480098855589743,2,0,0,1,2,1,4,0
1480098855589743,1,1,0,-3,1,-1,0,-2
1480098855591749,-2,0,-4,-1,0,1,4,2
1480098855591749,-1,0,-1,2,-3,-1,-1,-2
1480098855612811,-1,-2,-2,0,2,-1,-2,-2
1480098855612811,3,0,-4,-2,-5,-2,2,3
1480098855613808,-1,-1,1,-1,-1,-1,-2,-1
1480098855613808,-1,0,0,-1,-2,-2,-7,-1
1480098855626362,-3,-1,-8,1,1,-1,2,-1
1480098855626362,-3,-1,-3,-2,-2,-1,-9,1
1480098855635370,2,0,0,0,0,3,10,-3
1480098855635370,-1,2,-3,-2,5,4,-2,2
1480098855657645,1,1,8,2,-4,-2,0,1
1480098855657645,1,-2,-3,-1,2,-3,0,-1
1480098855659614,-4,-2,-4,-1,-10,-7,-10,-2
1480098855659614,-2,-1,2,-1,3,1,2,0
1480098855672687,-1,-3,-1,1,3,2,1,-1
1480098855672687,4,2,3,-2,-3,5,3,-1
1480098855674664,-2,-2,-1,-1,0,0,-4,-2
1480098855674664,-1,-2,-3,-3,-2,-2,1,-2
1480098855694707,-3,0,4,-1,-1,-2,-1,-1
1480098855694707,-1,-2,-5,-2,-5,-4,-5,0
1480098855696712,0,-1,0,0,2,3,4,2
1480098855696712,0,1,2,1,2,2,2,1
1480098855709746,1,0,-3,-1,0,-1,1,-2
1480098855709746,2,0,6,2,2,-2,-7,0
1480098855711752,2,0,-13,-4,-2,5,7,-2
1480098855711752,-4,-3,-2,-1,-3,-2,1,0
1480098855732811,0,1,4,-1,-1,-5,-6,1
1480098855732811,1,-2,-1,3,5,4,8,-1
1480098855734314,3,0,2,0,2,3,2,8
1480098855734314,2,0,-1,-1,-8,-4,-6,-9
1480098855755510,-2,-1,3,0,4,1,1,1
1480098855755510,-2,-2,-11,-2,-5,-2,-1,-2
1480098855756513,-1,1,0,-3,3,-2,-6,-1
1480098855756513,-1,0,0,1,-5,0,2,0
1480098855769548,2,1,3,-3,0,0,-2,-1
1480098855769548,-1,1,2,1,3,0,-1,-2
1480098855776567,-3,-1,3,2,-6,-3,-3,-2
1480098855776567,-1,-4,-11,-3,3,4,3,0
1480098855792610,-3,-1,4,2,6,5,1,0
1480098855792610,-1,0,-2,-4,-5,-4,0,0
1480098855794625,-1,0,1,2,4,1,-2,0
1480098855794625,1,2,2,-5,-4,-3,1,0
1480098855814698,-2,-1,0,1,-2,-1,2,-1
1480098855814698,0,-2,-8,-2,-3,0,1,2
1480098855816673,-1,-3,4,0,0,-4,-5,-4
1480098855816673,1,0,2,2,1,-1,0,0
1480098855829710,0,0,-2,-4,-9,-3,-1,-1
1480098855829710,-1,2,11,3,5,-1,1,3
1480098855836268,-3,-2,-6,6,1,0,-1,-8
1480098855836268,-2,-1,0,-6,-2,-1,-3,0
1480098855852346,-1,-4,-6,-1,-3,-3,-3,1
1480098855852346,0,1,6,2,-1,-1,0,-3
1480098855854351,2,-7,-8,1,-2,-3,-1,4
1480098855854351,4,14,27,8,1,2,1,3
1480098855875450,-5,-9,-30,-6,1,-1,-4,-4
1480098855875450,-1,-2,-3,-1,-3,2,1,2
1480098855876411,-1,0,5,0,-1,1,2,1
1480098855876411,3,-3,0,-2,-2,-3,-1,-1
1480098855889462,0,2,8,-2,-4,-3,0,3
1480098855889462,0,-1,0,7,11,4,-1,-2
1480098855896463,0,6,0,-8,-6,0,0,1
1480098855896463,-2,-7,-12,-4,-2,-4,-2,0
1480098855912543,-1,3,4,2,0,-1,-3,-5
1480098855912543,-1,-3,-6,-4,-8,-2,2,-1
1480098855914511,-1,2,6,-2,0,-2,0,1
1480098855914511,-1,2,-8,-3,4,6,3,2
1480098855935571,-1,-2,-1,1,2,-1,-1,-7
1480098855935571,2,0,3,-4,-7,-3,1,3
1480098855937075,2,3,1,2,8,2,1,1
1480098855937075,-1,-3,-5,-1,-2,0,-2,-1
1480098855950108,0,2,-1,0,2,0,-1,-2
1480098855950108,2,0,-1,-2,-3,-4,-3,-2
1480098855958133,-8,-5,-4,-5,-8,-13,-11,-2
1480098855958133,0,-2,3,5,2,8,6,2
1480098855972206,3,3,6,-2,10,11,11,5
1480098855972206,1,-1,-8,-3,0,-1,3,-5
1480098855974173,-2,-3,0,0,-3,0,0,-2
1480098855974173,-1,0,-5,-1,-11,-10,-9,-5
1480098855995266,-2,-1,4,-1,2,-2,-5,2
1480098855995266,-3,-4,-13,-2,-1,2,-3,1
1480098855996273,1,1,-4,0,2,-1,-4,-1
1480098855996273,-2,-1,3,0,3,7,10,1
1480098856009267,-1,-1,4,0,-4,-5,-3,-2
1480098856009267,-1,0,1,-3,0,0,-1,0
1480098856016288,0,0,1,0,0,-1,-1,0
1480098856016288,0,-2,-3,-1,-7,-5,-4,-3
1480098856032839,0,-1,3,0,2,-3,0,2
1480098856032839,-2,-3,0,0,0,-4,-4,-5
1480098856034343,0,0,-9,-2,0,5,6,0
1480098856034343,-3,0,1,-1,4,2,-2,-3
1480098856055464,3,2,-2,-2,-3,-2,-2,2
1480098856055464,-2,0,4,-1,-4,-5,-2,-2
1480098856056406,5,-1,2,-2,-4,-4,0,-1
1480098856056406,-13,-2,-5,0,4,1,4,0
1480098856069440,0,1,-3,-2,-7,-1,-8,-1
1480098856069440,1,2,4,2,8,5,2,-1
1480098856076459,-2,0,0,-1,-2,-5,-2,-1
1480098856076459,1,-1,-1,1,5,4,0,-2
1480098856092501,-1,0,0,-2,-6,-2,1,1
1480098856092501,-2,-1,-7,-2,-5,-5,-6,0
1480098856094526,0,0,5,1,6,5,2,-1
1480098856094526,1,-2,-5,-3,-4,-6,-6,2
1480098856114559,-2,-2,-14,-3,-6,-4,3,0
1480098856114559,-1,-1,1,3,2,2,0,-1
1480098856116565,-2,1,0,3,3,3,6,2
1480098856116565,3,0,2,0,1,-1,-4,-3
1480098856129140,-1,-1,2,1,1,3,4,0
1480098856129140,0,-1,2,-1,-4,-1,-4,1
1480098856137770,-2,-1,-8,-3,-4,0,2,-3
1480098856137770,-2,-3,2,1,1,-4,-3,-3
1480098856152851,3,0,2,-4,-3,-7,-7,0
1480098856152851,-1,-1,-1,1,-1,4,11,3
1480098856153813,0,1,2,-1,0,7,5,0
1480098856153813,2,1,-2,0,1,-1,-3,1
1480098856174869,-1,1,9,1,-1,-3,0,-1
1480098856174869,-1,-2,-6,-7,-5,-8,-10,-2
1480098856176873,2,1,4,0,0,3,2,2
1480098856176873,-5,1,0,0,5,0,0,2
1480098856188906,1,-2,-2,1,-2,1,3,0
1480098856188906,2,3,5,2,1,1,0,3
1480098856197931,0,-2,-5,-1,-2,-2,-2,-1
1480098856197931,4,2,-3,-3,-3,-2,0,2
1480098856212969,-4,-3,-3,-1,1,-3,-2,1
1480098856212969,-3,-1,0,-1,-1,-2,-7,-3
1480098856213975,0,-1,-3,-1,-1,-4,8,1
1480098856213975,0,0,11,4,1,5,9,-1
1480098856235531,-4,-1,-25,-3,-3,2,-3,-3
1480098856235531,2,0,-2,-4,-6,-4,2,0
1480098856236542,-2,0,5,2,7,1,-2,2
1480098856236542,1,-4,-8,-2,-1,-1,-4,-1
1480098856248681,0,0,4,3,3,2,5,-1
1480098856248681,-1,-1,-3,-1,-3,2,0,-3
1480098856257688,-5,-3,-2,-7,-8,-10,-11,-4
1480098856257688,1,0,1,0,2,0,1,0
1480098856272717,1,-1,1,-1,0,2,-2,2
1480098856272717,0,1,1,-2,2,3,-4,-1
1480098856274714,1,-2,-1,-3,-5,-1,1,0
1480098856274714,0,-1,-4,-1,-2,-5,-3,-2
1480098856294774,1,0,10,2,-1,2,0,-1
1480098856294774,-3,-2,-1,0,3,-3,-8,-1
1480098856296774,1,0,-1,0,-3,4,9,-1
1480098856296774,1,0,-1,-3,1,1,1,3
1480098856308861,-3,-3,1,-1,-5,-7,-6,-8
1480098856308861,0,-1,0,-2,0,-2,2,-1
1480098856317829,-11,-4,-5,0,-5,-3,-4,-1
1480098856317829,1,-1,-1,0,5,2,-1,2
1480098856332929,0,-1,4,0,-1,-1,0,-2
1480098856332929,1,0,0,-1,-4,-1,1,1
1480098856334431,2,0,1,0,-1,-3,-6,-2
1480098856334431,-3,0,-2,-1,-5,-1,-3,-1
1480098856354600,0,0,-9,-2,3,3,3,1
1480098856354600,1,-3,-1,1,-1,3,6,0
1480098856356606,0,-2,0,0,-2,-2,-7,0
1480098856356606,0,0,1,0,-1,-1,1,-1
1480098856368638,0,1,3,1,0,0,2,2
1480098856368638,-7,-1,-3,-1,-4,-1,0,-1
1480098856377659,2,1,3,1,5,5,5,2
1480098856377659,2,-1,1,-1,-6,-7,-8,1
1480098856392708,-3,-1,-2,0,-2,2,10,4
1480098856392708,1,2,3,2,9,4,2,-3
1480098856394703,-3,-1,-4,2,5,3,-5,-1
1480098856394703,0,-1,3,-2,-4,-6,-7,-2
1480098856414810,-2,0,-5,-4,-6,-3,-2,-2
1480098856414810,-2,-1,-7,-3,0,1,4,-1
1480098856416763,2,0,1,1,2,0,-3,-1
1480098856416763,-1,-2,3,-2,-1,-2,1,-2
1480098856428797,-4,-2,1,-1,-2,1,-1,-2
1480098856428797,-1,0,3,1,1,2,-1,-1
1480098856437397,-2,-2,-11,-4,-6,-7,-1,-3
1480098856437397,-1,1,2,1,-2,3,4,0
1480098856452433,3,-1,-3,0,5,2,-2,1
1480098856452433,-1,-1,-1,1,-1,2,1,-3
1480098856454440,0,-1,3,-2,-3,-3,-5,0
1480098856454440,-1,-2,-5,-3,-5,-5,-1,-2
1480098856475526,-2,-1,0,-1,0,-2,-1,-3
1480098856475526,1,1,1,-1,-5,-4,-3,4
1480098856476497,1,-1,2,0,5,3,-2,-3
1480098856476497,1,0,2,1,-7,2,3,2
1480098856488530,2,1,-2,-2,2,0,1,1
1480098856488530,2,-2,-13,-2,4,-1,-2,1
1480098856497566,-5,-1,2,2,-3,2,6,2
1480098856497566,-1,1,-2,-1,0,1,2,-1
1480098856512593,-1,-2,5,1,0,-2,-11,-2
1480098856512593,-1,-2,0,-2,-4,-2,5,3
1480098856513596,6,3,2,1,1,1,4,2
1480098856513596,-4,-6,-10,-2,1,-2,-3,-3
1480098856535157,2,-1,1,1,-2,-3,-1,2
1480098856535157,1,0,5,0,-4,-3,-1,-1
1480098856536659,0,-1,-4,2,7,-2,-10,1
1480098856536659,-1,1,0,-1,1,0,2,0
1480098856548762,-1,0,1,0,-6,-2,3,-1
1480098856548762,-3,-5,-1,-3,1,2,-1,-4
1480098856557786,1,-2,5,3,1,1,-1,2
1480098856557786,-1,-1,-11,-3,-2,-1,-3,-1
1480098856571831,2,-2,-6,-2,1,-2,-2,-1
1480098856571831,-1,0,7,1,-7,-6,-4,-2
1480098856579861,1,1,-2,1,3,3,0,-1
1480098856579861,1,1,-1,1,2,4,3,-2
1480098856594887,-1,-1,1,-1,-3,0,0,1
1480098856594887,-3,-1,2,1,1,2,5,-2
1480098856596893,-4,-2,-7,-4,-4,-3,-2,-2
1480098856596893,-1,-1,-2,-1,-2,-3,-11,-1
1480098856617973,-1,0,-1,1,-2,1,11,1
1480098856617973,-1,1,2,1,6,4,2,1
1480098856618948,1,1,7,4,-6,1,1,-1
1480098856618948,-3,-3,-16,-5,3,-4,-1,-2
1480098856632039,2,1,5,3,5,1,-3,1
1480098856632039,-1,-1,1,0,-6,-2,-4,-2
1480098856638650,-2,-3,-5,-4,-1,-4,2,-2
1480098856638650,0,0,6,3,0,1,5,-1
1480098856654720,-1,0,-2,-1,-3,-3,-7,-3
1480098856654720,2,-1,-3,3,7,0,-5,1
1480098856656685,1,0,-2,-3,-3,1,7,1
1480098856656685,0,-2,6,0,-4,-4,-5,-1
1480098856677742,-1,-2,-4,-1,3,4,5,-5
1480098856677742,0,1,0,-2,-3,-3,-3,1
1480098856678747,-12,-2,0,1,-2,-3,-12,-2
1480098856678747,3,2,5,-2,-2,1,3,0
1480098856692787,-1,0,1,1,-2,0,5,3
1480098856692787,1,-2,-8,0,3,-5,-5,2
1480098856693784,3,3,0,0,4,8,7,-6
1480098856693784,-2,-4,2,-3,-3,0,1,1
1480098856714840,-1,1,-1,-3,-3,-1,-3,2
1480098856714840,-2,-1,-4,-1,-3,-4,-2,1
1480098856716845,2,-1,-2,0,-3,-3,-2,1
1480098856716845,-2,-2,1,1,1,-1,-2,-3
1480098856737580,2,-1,0,-1,1,1,1,0
1480098856737580,-3,-2,1,-1,0,1,-2,-1
1480098856739623,3,-2,-4,-4,-7,-5,3,1
1480098856739623,0,-2,2,3,0,4,0,1
1480098856751610,-1,1,-1,0,3,4,4,-1
1480098856751610,0,-3,0,1,2,2,3,-2
1480098856758656,-1,1,7,-2,-2,1,-6,-1
1480098856758656,0,-2,-15,-1,5,-3,-6,0
1480098856774664,0,-1,2,-4,-9,-2,-2,1
1480098856774664,-2,0,2,0,5,-1,3,-1
1480098856776670,2,-2,0,1,-6,-3,-1,-1
1480098856776670,1,1,2,-1,2,-2,3,2
1480098856797732,-2,-1,-2,-2,4,2,-6,-2
1480098856797732,2,1,-1,-1,-2,1,2,1
1480098856799732,-1,-1,-1,-1,-3,-4,-2,1
1480098856799732,-1,1,1,-1,-3,-2,-1,0
1480098856811771,0,0,3,2,-2,-4,-3,-4
1480098856811771,2,-1,1,-1,-3,-1,-1,-1
1480098856818783,-13,-1,-4,1,-1,2,1,-3
1480098856818783,0,0,9,0,2,0,5,-2
1480098856835365,2,-3,-13,-3,0,0,4,1
1480098856835365,2,1,6,-1,-6,1,2,-3
1480098856836367,3,-1,-1,2,5,-2,-2,1
1480098856836367,-2,-1,3,1,-3,0,0,0
1480098856857561,-3,-1,2,1,-4,-4,-6,-1
1480098856857561,-2,0,-1,-2,0,-3,0,-1
1480098856859580,1,-2,-3,-3,2,-3,-3,-2
1480098856859580,-1,0,-3,-2,-1,3,2,2
1480098856871600,2,-1,0,0,1,0,1,0
1480098856871600,-3,-1,-2,-5,-6,-5,-6,-1
1480098856878619,1,0,1,-1,1,1,1,1
1480098856878619,3,-1,3,0,-2,-2,-4,-2
1480098856894659,-1,-3,-12,-2,3,-1,-2,0
1480098856894659,-1,-4,-8,0,-6,0,-2,-1
1480098856896665,0,3,2,0,6,2,4,1
1480098856896665,-1,-1,-1,0,3,2,2,-2
1480098856917729,-1,-1,5,2,0,-3,-7,-1
1480098856917729,1,0,2,0,1,2,0,0
1480098856918725,0,-2,-5,-4,-9,-8,-6,-1
1480098856918725,0,0,-3,0,3,-1,-1,0
1480098856932262,2,0,3,2,6,5,7,1
1480098856932262,1,-2,2,5,4,-4,-9,-1
1480098856938823,-9,-1,-4,-3,-2,2,3,-2
1480098856938823,2,-1,-5,-1,-6,-1,7,3
1480098856954827,-2,1,7,-1,-3,-2,0,-2
1480098856954827,0,0,4,1,0,-1,-1,2
1480098856956833,2,-2,1,-1,-1,-1,-2,-5
1480098856956833,-2,-1,2,-1,-3,-3,-4,-1
1480098856977925,-4,-1,1,-1,-1,0,0,-1
1480098856977925,2,1,-1,1,1,1,1,-1
1480098856978891,0,-1,-2,-3,2,3,0,1
1480098856978891,3,3,4,-1,3,3,-5,3
1480098856991971,-2,-4,-1,0,-7,-4,0,-3
1480098856991971,-1,7,10,1,2,0,2,1
1480098856998944,3,-10,-18,-3,-4,-3,-2,0
1480098856998944,-3,-6,-1,2,1,-3,-6,-4
1480098857014987,-1,5,1,-4,-3,0,-1,2
1480098857014987,-1,-1,-1,-1,0,-2,-4,-1
1480098857016999,2,4,8,2,6,7,15,0
1480098857016999,-1,-2,-1,-3,-7,-5,-2,-2
1480098857045266,1,-1,-4,-1,-1,-3,-4,-1
1480098857045266,-3,-4,-2,-1,-2,0,2,-3
1480098857046268,4,2,2,-3,-3,-4,0,1
1480098857046268,0,-1,0,2,5,6,0,1
1480098857052298,0,-1,0,4,1,6,8,2
1480098857052298,-2,-2,-7,-2,1,-2,-3,-5
1480098857059302,-2,0,-1,1,1,-4,-11,-2
1480098857059302,1,-2,-18,-5,-11,-3,12,0
1480098857075350,-1,-2,3,-1,5,0,0,3
1480098857075350,2,-2,-8,0,-2,4,2,2
1480098857076353,3,-2,6,4,4,3,3,1
1480098857076353,-14,1,5,0,0,-2,-5,-3
1480098857097442,-1,-2,-3,-3,-6,-6,-2,-3
1480098857097442,-3,-2,-6,-1,1,-2,1,0
1480098857099410,4,0,3,-1,2,0,-3,0
1480098857099410,1,1,1,1,1,4,-1,1
1480098857111446,-1,-1,1,1,3,-1,0,-1
1480098857111446,-2,-1,5,-4,-9,-7,-9,-2
1480098857120465,-1,-2,-21,-3,-7,2,4,1
1480098857120465,2,-1,3,0,2,1,3,-1
1480098857135060,1,2,1,1,-1,0,-4,0
1480098857135060,0,2,4,0,3,-2,-8,0
1480098857136025,-5,-1,0,-2,-10,-3,4,-4
1480098857136025,2,-3,-6,0,1,-4,0,3
1480098857157322,0,1,-5,-2,0,4,1,-4
1480098857157322,-1,-1,-4,-3,-1,0,-1,1
1480098857159293,-1,2,8,3,4,4,-1,1
1480098857159293,0,2,-2,-1,-4,-5,-5,-2
1480098857171324,-6,-3,-12,-4,-7,-5,1,-8
1480098857171324,7,0,-2,-1,4,-5,5,8
1480098857180348,-2,-2,7,1,-3,2,-5,0
1480098857180348,1,5,8,1,3,6,6,-1
1480098857195388,-3,-5,-1,3,0,-1,-6,-1
1480098857195388,-3,0,1,-2,-8,0,5,-3
1480098857196392,-1,0,-2,-1,2,-5,-7,0
1480098857196392,-1,1,2,0,-1,-1,3,-2
1480098857217447,0,-2,-2,-2,0,0,-2,-1
1480098857217447,-3,-2,-1,2,3,2,2,-3
1480098857219452,1,-2,-1,-3,-9,-6,-7,1
1480098857219452,0,-1,-1,0,10,5,4,-1
1480098857231512,-2,0,1,2,0,1,2,-1
1480098857231512,-1,-1,3,1,1,4,6,1
1480098857240196,-3,0,-4,-4,-2,-3,-2,2
1480098857240196,1,-2,2,-3,-8,-7,-8,-3
1480098857255255,1,-1,-8,-1,1,1,4,3
1480098857255255,-3,0,7,2,4,1,0,-4
1480098857256222,5,-1,-9,-1,-3,-3,0,2
1480098857256222,-3,-2,1,-1,0,-1,-4,-1
1480098857277278,0,0,5,3,2,-1,-3,2
1480098857277278,0,0,-7,-2,-5,-3,-5,-5
1480098857279282,-1,0,3,1,2,-1,-10,-1
1480098857279282,3,-2,0,2,1,1,7,3
1480098857291322,-3,-1,-1,-2,1,-2,-2,-1
1480098857291322,0,1,5,-1,-5,4,4,0
1480098857300339,0,0,1,0,5,1,6,-3
1480098857300339,-1,-3,-3,-2,-6,-3,-7,-2
1480098857315379,0,2,5,0,3,2,-3,0
1480098857315379,0,-2,-9,-1,-2,-1,-1,1
1480098857316381,0,0,5,0,3,2,2,1
1480098857316381,1,1,0,1,-3,0,-1,3
1480098857337975,1,-2,-9,-3,-6,-7,-5,0
1480098857337975,2,1,2,-1,0,5,9,1
1480098857338978,-5,-3,0,3,7,0,-2,-3
1480098857338978,-1,0,-4,-2,-5,-2,1,-2
1480098857351058,2,-2,-1,-4,-4,-4,-7,0
1480098857351058,-3,-2,-1,-3,-6,2,-1,0
1480098857360032,3,0,-1,0,5,2,2,-3
1480098857360032,1,-1,-3,-3,-1,-3,-3,-3
1480098857375072,1,1,6,3,-1,0,-6,0
1480098857375072,-1,-3,-13,-5,0,-2,3,0
1480098857377078,-3,-1,1,-2,-4,-1,0,-2
1480098857377078,-1,-2,-1,2,0,-2,-5,0
1480098857398139,-1,0,0,0,1,2,2,-4
1480098857398139,-2,0,0,2,2,-1,-3,-1
1480098857399136,0,-2,-3,0,-2,-3,-6,1
1480098857399136,-2,-1,-5,-2,0,5,10,-1
1480098857411216,-1,-1,3,1,-2,-3,2,1
1480098857411216,2,1,1,0,-5,-2,2,3
1480098857420711,-2,0,4,0,2,1,5,-1
1480098857420711,-1,0,-7,0,0,-5,-5,-1
1480098857435241,-1,0,-5,-2,-4,2,-1,-2
1480098857435241,0,0,2,0,3,3,3,-1
1480098857436739,-2,-2,-4,-2,-3,-3,-4,0
1480098857436739,0,-1,2,2,0,2,0,-1
1480098857457812,1,1,2,-1,1,-4,4,-3
1480098857457812,-4,-3,-4,0,-4,-3,-6,-4
1480098857458815,2,0,0,-1,-2,0,0,0
1480098857458815,-4,1,5,-1,-1,-1,-1,-4
1480098857470833,1,-1,-8,-5,-3,2,-2,2
1480098857470833,3,1,8,7,8,4,7,2
1480098857479855,-2,-1,-6,-3,0,-2,-3,-8
1480098857479855,-6,-2,-2,-2,-3,0,2,2
1480098857494897,-1,-1,6,-1,-4,-6,-5,-1
1480098857494897,-1,0,-3,-1,-1,-3,-5,-2
1480098857496931,-2,-1,-4,1,-4,0,1,2
1480098857496931,1,-1,-2,0,-1,-1,-6,-2
1480098857517972,0,0,5,5,7,5,2,0
1480098857517972,-1,-2,-5,-4,4,0,4,1
1480098857518961,1,0,1,0,-2,1,1,2
1480098857518961,-2,-2,-3,-3,-3,-2,-5,-1
1480098857531496,0,0,0,-2,-3,-1,2,0
1480098857531496,1,0,-2,-1,-5,-4,-5,-2
1480098857540027,-2,-2,-4,-3,0,-1,-1,0
1480098857540027,1,1,3,0,-2,-2,3,1
1480098857556070,-2,1,3,4,6,2,-6,-2
1480098857556070,-1,-2,-10,-2,1,-3,-2,-2
1480098857557073,-4,1,4,0,-3,7,9,0
1480098857557073,7,0,-6,1,1,-2,-2,4
1480098857577169,-3,-2,-4,-2,-4,-2,-1,-3
1480098857577169,-1,-1,0,-3,-3,-6,-4,1
1480098857579131,0,-1,-1,-4,-5,-5,-1,2
1480098857579131,-3,-1,1,0,7,0,-1,-3
1480098857600186,0,0,-3,-1,-8,0,4,-1
1480098857600186,1,1,4,-1,3,1,-5,-2
1480098857602192,1,0,0,1,-3,-4,-1,2
1480098857602192,0,0,5,2,2,6,3,0
1480098857615245,0,-1,-5,-3,-1,0,-1,-2
1480098857615245,-1,-1,0,-1,-3,-2,-2,-4
1480098857616231,-1,-1,-1,1,-5,-5,-5,-3
1480098857616231,1,-2,0,-1,6,2,0,-2
1480098857637830,0,0,3,4,-4,0,3,-1
1480098857637830,-1,-1,-3,0,9,4,-1,1
1480098857638815,-1,-1,-3,-2,1,2,2,1
1480098857638815,-2,0,3,-1,-6,-2,-2,0
1480098857659882,-1,-1,-1,-2,1,-2,0,0
1480098857659882,0,-2,-1,0,-3,-3,-2,-1
1480098857661879,1,2,4,-1,-1,-1,-1,-1
1480098857661879,-2,0,-4,-4,-4,-2,0,-2
1480098857674936,1,-2,-2,-2,3,1,1,0
1480098857674936,-1,0,3,1,-4,-1,-1,1
1480098857676932,0,-1,-5,1,6,1,0,-1
1480098857676932,2,-1,-4,-2,-5,-6,-4,-1
1480098857698000,-2,-1,3,-2,1,1,4,1
1480098857698000,1,-1,-9,-1,3,4,2,1
1480098857698980,-1,0,2,2,-2,0,2,0
1480098857698980,-3,-2,-5,-1,3,0,-2,-3
1480098857720032,0,-1,0,-2,-1,-1,-2,0
1480098857720032,0,1,3,-1,-1,2,-1,-5
1480098857726555,0,-2,1,-2,-3,-4,-4,0
1480098857726555,1,0,-1,0,-3,0,-1,2
1480098857734629,-1,0,0,1,-2,-7,-5,-2
1480098857734629,-2,0,-6,-4,-4,-2,2,0
1480098857741730,-1,-1,3,2,0,2,-1,-2
1480098857741730,-1,2,3,-1,-1,-1,-2,-2
1480098857757812,0,-1,-3,-1,-1,1,1,6
1480098857757812,-2,-2,0,-1,-2,-3,-2,-7
1480098857758807,-1,0,0,-2,1,-1,0,-1
1480098857758807,-2,-1,6,-1,-1,-2,0,0
1480098857779831,0,-2,-9,1,5,-1,1,0
1480098857779831,1,0,2,2,1,3,-1,3
1480098857781838,-2,-1,-1,0,7,6,3,0
1480098857781838,-1,-2,0,-1,-9,2,2,-3
1480098857794873,1,0,2,-2,-3,-6,-3,0
1480098857794873,-2,-3,-5,-2,-4,-5,-4,-3
1480098857800888,1,0,-1,0,2,4,-1,0
1480098857800888,1,0,1,0,1,3,3,1
1480098857817933,-3,-4,-1,-2,0,-3,-1,-1
1480098857817933,-1,0,-9,-4,-6,-2,-9,-3
1480098857818936,-1,-1,1,1,2,-3,3,-2
1480098857818936,-2,0,-5,0,1,0,-2,-1
1480098857839590,-2,1,-3,-1,-2,-1,-3,0
1480098857839590,-1,0,8,1,3,2,1,1
1480098857841594,1,0,-5,-4,-6,-7,-3,-1
1480098857841594,-1,-1,-2,1,0,-2,1,0
1480098857854629,0,0,3,2,6,4,2,-2
1480098857854629,-1,1,4,0,-1,0,1,1
1480098857861700,0,-2,0,-3,-3,-1,0,2
1480098857861700,4,0,0,0,1,-2,0,-3
1480098857877684,0,-1,-1,-2,-1,-3,-2,-1
1480098857877684,-2,1,2,-1,-4,-2,2,-2
1480098857879690,-1,-1,0,0,5,0,-2,1
1480098857879690,-3,-1,-4,-2,0,2,-1,1
1480098857899748,0,-1,-1,-2,-2,0,-4,-4
1480098857899748,1,0,0,3,1,0,2,1
1480098857901767,-3,-3,-15,-2,0,1,0,-3
1480098857901767,1,0,1,-1,-2,-5,0,0
1480098857914784,-1,2,4,-2,-2,3,9,-2
1480098857914784,1,-2,3,0,-2,-4,-1,3
1480098857921390,-1,-1,-5,-3,-3,-3,-1,-2
1480098857921390,-2,-1,1,-1,-1,-3,-4,-2
1480098857937664,-1,0,-1,2,4,3,-1,1
1480098857937664,-2,0,-1,-2,-3,0,3,-1
1480098857939638,0,-1,5,2,-4,-4,-5,-1
1480098857939638,0,-2,-3,-1,3,4,1,-2
1480098857959733,0,-3,1,0,-3,-2,-5,-2
1480098857959733,-2,-3,-4,-3,-3,-3,6,0
1480098857961693,1,-1,3,0,3,2,-3,-2
1480098857961693,-2,-3,-13,-3,-4,0,-1,1
1480098857974728,0,0,1,0,1,-2,-6,-1
1480098857974728,1,-1,-8,-2,-5,-3,-3,-3
1480098857980784,-3,0,1,-2,-2,-4,-1,-1
1480098857980784,0,2,7,3,2,0,0,2
1480098857997806,-1,-1,-4,-3,-1,-1,-4,2
1480098857997806,1,0,1,1,2,5,8,-1
1480098857998793,-1,2,4,-1,0,0,1,1
1480098857998793,0,-2,-4,-2,-2,-5,-4,0
1480098858019873,-1,1,-1,1,-2,1,-4,-2
1480098858019873,0,0,2,-3,2,-1,1,0
1480098858021867,-1,-2,-1,0,-6,1,0,0
1480098858021867,2,1,1,0,2,-4,-2,1
1480098858033900,-3,0,-3,-1,2,6,2,-1
1480098858033900,2,0,7,0,2,2,1,1
1480098858042474,-1,-1,-7,-6,0,0,0,-3
1480098858042474,2,1,4,0,-2,0,-2,3
1480098858057514,0,-1,-4,-1,-3,-6,1,-1
1480098858057514,-3,-1,4,0,2,-1,-6,-2
1480098858060521,1,1,3,1,-7,-1,1,0
1480098858060521,-3,-1,-5,0,7,3,3,-2
1480098858080576,1,-1,3,1,0,1,-1,-2
1480098858080576,-2,-2,-2,-1,-1,-1,0,2
1480098858081577,1,0,1,-3,-3,-6,-4,-1
1480098858081577,-1,-1,-1,-2,-2,-1,-3,-5
1480098858093618,1,0,-1,-1,-3,-1,2,1
1480098858093618,0,0,0,4,3,2,-5,-1
1480098858102632,-1,-2,-8,-2,0,-2,-2,-3
1480098858102632,0,0,5,1,0,-1,-6,-1
1480098858117673,-1,-2,-13,-2,-1,3,6,1
1480098858117673,0,1,-1,-1,0,2,-1,1
1480098858118692,-1,-1,3,-1,-3,-2,-4,-5
1480098858118692,-1,-1,3,0,-2,-1,-1,-1
1480098858139778,-1,-2,2,0,0,-4,-1,-1
1480098858139778,-2,-2,-3,0,2,2,-1,0
1480098858141795,-1,0,-2,1,-5,-2,-2,1
1480098858141795,-1,-2,3,1,6,1,0,-1
1480098858153831,-1,1,5,2,-2,2,0,-1
1480098858153831,-2,-3,-7,-4,-8,-3,-1,-3
1480098858162840,2,-1,1,3,11,2,1,1
1480098858162840,-1,-3,-3,-1,-5,-1,4,2
1480098858177926,-3,-2,0,-2,-1,1,-2,-3
1480098858177926,-1,-1,0,-1,-3,-3,-1,-2
1480098858178883,-1,-1,5,-2,-4,-2,-3,1
1480098858178883,0,-1,-12,0,1,-1,-1,-3
1480098858207973,-1,-1,3,-1,-2,2,0,-1
1480098858207973,-1,-1,-1,1,7,3,-1,3
1480098858208964,1,1,0,1,3,5,1,-2
1480098858208964,-3,-1,3,-4,-5,-2,-1,-1
1480098858213976,-7,-4,-6,0,-4,-5,-1,-1
1480098858213976,3,-1,-4,-4,-5,-8,-6,-1
1480098858223509,-1,-1,3,3,6,6,6,1
1480098858223509,2,0,2,-1,1,2,2,0
1480098858237794,3,-1,-4,-5,-3,-4,-3,1
1480098858237794,-3,0,2,0,-1,-2,-1,-3
1480098858238797,-1,-1,-5,-1,0,0,2,2
1480098858238797,-2,-1,-2,0,-3,3,-2,-2
1480098858259855,0,0,1,-1,-3,-2,-3,-3
1480098858259855,-1,-4,-2,-1,-4,-5,-4,0
1480098858261858,-1,1,6,1,3,4,2,-1
1480098858261858,-1,1,-2,2,8,6,6,0
1480098858273899,0,0,-11,-3,1,2,3,2
1480098858273899,1,-1,1,-2,-4,-1,-3,1
1480098858282916,-2,-2,-3,-2,-5,-7,-4,-5
1480098858282916,-2,-2,-1,-1,-7,-2,2,-1
1480098858297990,2,-1,3,3,13,6,1,-2
1480098858297990,-2,-1,-3,-1,2,2,1,-3
1480098858299960,-2,-1,-6,-1,-6,-3,0,0
1480098858299960,-3,-3,-2,-4,-6,-9,-5,-1
1480098858320013,0,-1,1,0,-7,-4,0,-1
1480098858320013,2,2,0,1,13,9,2,1
1480098858322060,-1,0,3,1,2,-1,-2,-1
1480098858322060,0,0,2,1,4,1,-3,0
1480098858334089,-1,-1,3,0,-8,-6,-3,-1
1480098858334089,-5,-4,-10,-7,-5,-3,-1,-3
1480098858342697,4,1,-1,0,1,4,2,4
1480098858342697,3,1,0,0,2,1,-5,-2
1480098858357766,-5,0,9,1,5,2,6,2
1480098858357766,-1,1,1,0,-6,-4,8,-6
