timestamp,x,y,z
1480098842224811,-1.3125,-1.375,-1.4375
1480098842240358,-2.3125,-1.625,-1.6875
1480098842261424,-0.3125,-2.375,-0.6875
1480098842283475,0.125,-2.75,-1.4375
1480098842300520,0.625,-2.1875,-1.875
1480098842321598,-0.1875,-2.3125,-1.625
1480098842344218,-0.5625,-1.6875,-1
1480098842361260,-0.875,-0.9375,-1.1875
1480098842389308,-0.25,-0.9375,-0.875
1480098842403351,-2.4375,-1.6875,-1.4375
1480098842421959,-0.5,-1.4375,-0.25
1480098842441077,2.0625,-0.4375,-0.375
1480098842467093,2.5625,-0.0625,-1.0625
1480098842482134,2.9375,0.75,-0.6875
1480098842501185,0.5,0.8125,-0.125
1480098842524282,-0.5,0,-0.0625
1480098842541333,1.9375,0.1875,-0.125
1480098842561383,1.9375,0.1875,-1.8125
1480098842583443,0.625,0.1875,-1.4375
1480098842602494,-0.375,0.5625,0.0625
1480098842621601,-0.625,0.5625,0.875
1480098842644319,0.25,1.4375,-0.375
1480098842661365,-1.25,1.625,-1.3125
1480098842681417,-1.1875,0.9375,-0.625
1480098842703489,-0.125,0.25,-0.1875
1480098842728548,1.375,0.375,0.375
1480098842741590,1.5,0,1.0625
1480098842763650,0.5,-0.0625,1.125
1480098842786709,0.3125,-0.1875,1.375
1480098842801750,2.1875,0.5625,1.25
1480098842823811,2.3125,0.6875,1.25
1480098842846669,-0.5625,0.1875,1.3125
1480098842861700,-1.5625,-0.125,1.4375
1480098842883760,-0.875,0.125,1.875
1480098842906819,-0.1875,0.8125,1.0625
1480098842921414,-2,1.0625,-0.1875
1480098842943644,-2.9375,0.3125,0
1480098842966707,-1,-0.25,-0.0625
1480098842982711,-0.1875,-0.0625,-0.0625
1480098843003796,-1.0625,-0.25,-0.0625
1480098843026856,-0.375,-0.125,0.4375
1480098843044762,0.5625,0.0625,0.3125
1480098843063777,0.4375,0.25,0.0625
1480098843085835,-0.6875,-0.0625,0.125
1480098843109899,-1.6875,-0.75,-0.3125
1480098843123943,-0.125,-0.375,0.125
1480098843146587,-0.3125,-0.9375,0.5625
1480098843162628,-0.1875,-1.125,0
1480098843183685,0.25,-1.25,-0.1875
1480098843206746,0.75,-1,-0.375
1480098843223297,0.9375,-0.375,-0.4375
1480098843251373,0.125,-0.625,-0.9375
1480098843266462,0,-0.625,-0.125
1480098843284467,1.25,-0.0625,0.375
1480098843303541,1.9375,0.5,0.875
1480098843326590,1.125,0.75,0.625
1480098843344488,0.1875,0.9375,0.75
1480098843363574,0.4375,0.8125,1.125
1480098843386599,1.375,0.8125,1.0625
1480098843404646,2.125,0.8125,1.125
1480098843424201,2.125,1,1.125
1480098843446771,1.9375,1.125,1.1875
1480098843463818,1.1875,0.0625,0.75
1480098843483870,1.9375,-0.25,0.4375
1480098843505928,2.5625,0.5,0.6875
1480098843528994,2.8125,1.0625,1.1875
1480098843544041,0.125,0.9375,1
1480098843566093,-1.4375,0.75,0.125
1480098843589156,-0.625,0.5625,-0.625
1480098843604195,1.0625,-0.0625,-0.4375
1480098843626255,0.375,-0.4375,0.375
1480098843643897,-0.8125,-0.6875,0.75
1480098843663950,-0.6875,0.5,0.625
1480098843686029,-0.6875,0.4375,0.125
1480098843704077,-0.6875,0.5,0
1480098843724114,-1.625,-0.0625,-0.3125
1480098843746185,-0.5625,-0.125,-0.1875
1480098843764231,1.25,-0.125,-0.3125
1480098843786290,1.6875,0,0.0625
1480098843806345,1.75,1.375,0.125
1480098843824398,1.6875,3.5,0
1480098843844184,2.375,4.875,0.125
1480098843866170,2.1875,4.9375,0.1875
1480098843884216,1.25,4,0.8125
1480098843904271,1.875,3.875,1.375
1480098843926332,1.6875,4.75,1.6875
1480098843943959,1.75,5.25,1.9375
1480098843965025,1.5,5.0625,2.4375
1480098843986092,3.0625,3.5625,2.6875
1480098844004115,4.3125,2.4375,2.3125
1480098844025675,3.1875,0.4375,1.625
1480098844046472,0.8125,-0.375,1.125
1480098844068535,-0.375,-1,0.8125
1480098844092593,-2,-1,1.0625
1480098844106641,-3.625,-1.6875,0.4375
1480098844124682,-2.375,-2.0625,1.1875
1480098844145714,-0.6875,-1.5,0.5625
1480098844166738,-1.5625,-1.25,-0.6875
1480098844188796,-1.9375,-1,-0.9375
1480098844204911,-2.75,-1,-1.0625
1480098844226399,-2.625,-0.9375,-0.625
1480098844248977,-1.75,-0.8125,-1.5
1480098844267044,0.3125,0,-1.4375
1480098844286077,-0.0625,-0.75,-1.5
1480098844309176,-2.375,-2.625,-1.0625
1480098844327192,-3.3125,-3.0625,-0.75
1480098844346799,-3,-3.5625,-0.875
1480098844368871,2.25,-3.8125,-2.1875
1480098844386881,5.875,-5.375,-3.6875
1480098844406001,2.375,-6.3125,-2.125
1480098844428997,1.0625,-5.5625,1.125
1480098844446549,-2.5,-4.375,-0.3125
1480098844466651,-2.4375,-3.25,-0.6875
1480098844490664,-0.0625,-3.1875,-0.75
1480098844506709,-0.625,-2.3125,-1.75
1480098844526290,-0.5,-0.5625,-1.8125
1480098844548372,-1,0.875,-0.9375
1480098844566420,-2.4375,1.875,-1.25
1480098844593493,-3.3125,1.8125,-1.1875
1480098844611550,-3.25,1.625,-1.5625
1480098844627097,-3.0625,1.375,-1.9375
1480098844646271,-2.8125,0.375,-2.5625
1480098844669288,-3.8125,-0.125,-2.5625
1480098844686354,-3.9375,-0.75,-1.1875
1480098844706387,-4,-1.5,-0.5625
1480098844728988,-3.4375,-2.0625,-0.4375
1480098844747176,-1.625,-2.125,-0.1875
1480098844766215,-0.375,-2,-0.8125
1480098844789263,0.1875,-2.25,-0.4375
1480098844806329,-0.3125,-2.625,-0.5
1480098844826411,0.75,-2.75,-0.9375
1480098844848458,1.75,-2.4375,-1.0625
1480098844866506,2.0625,-1.75,-1.3125
1480098844887566,0.5,-1.625,-1.4375
1480098844916638,-0.4375,-1.0625,-2
1480098844934240,-1,-1.0625,-2
1480098844947870,-1.125,-0.375,-1.75
1480098844968966,-1.375,-0.1875,-1
1480098844986974,-1.875,-0.4375,-0.75
1480098845008043,-2.625,-0.8125,-0.3125
1480098845029088,-2.8125,-0.5625,0
1480098845046758,-1.625,0.25,0.3125
1480098845067799,-1.3125,0.25,0.75
1480098845088855,-0.4375,1,1
1480098845113924,-1.375,1.375,2.25
1480098845127974,-0.875,1.3125,1.8125
1480098845150625,3.875,1.25,-0.4375
1480098845166668,4.125,-0.25,-2.5625
1480098845187723,2.5625,0,-1.0625
1480098845208779,0.5625,-0.4375,1.0625
1480098845226830,-1.5,-0.1875,0.3125
1480098845248891,-1,-0.125,1
1480098845268944,1,-0.6875,1.1875
1480098845294010,0.375,-1.3125,0.375
1480098845309050,-0.625,-2.125,-0.5
1480098845330613,-0.6875,-2.3125,0.125
1480098845346687,0.375,-2.4375,0.8125
1480098845368748,1.8125,-1.75,0.4375
1480098845388800,2.9375,-1.625,0.75
1480098845406847,1.875,-0.9375,-0.375
1480098845429429,-0.0625,-0.9375,0.125
1480098845449174,-0.125,-0.375,0
1480098845471229,-0.3125,0.125,-0.4375
1480098845489277,0.375,0.5,-0.1875
1480098845508345,-0.0625,0.6875,-1.4375
1480098845526878,-0.75,0.375,-0.5625
1480098845549002,-1.0625,0.5,-0.75
1480098845569057,-0.6875,1.4375,-0.8125
1480098845587106,-1.1875,1.125,-0.75
1480098845611168,-2,0.9375,-0.625
1480098845629235,-2.1875,0.4375,-0.125
1480098845650916,-1.3125,0.375,0.125
1480098845668964,0.1875,-0.375,0.6875
1480098845689016,0.1875,-1.125,1.375
1480098845711076,0.0625,-1.5625,1.75
1480098845736705,0.4375,-1.1875,1.5625
1480098845748756,1.1875,-0.5625,1.375
1480098845771797,1.3125,0.1875,1
1480098845788844,-0.125,-0.0625,1.25
1480098845808905,-0.5625,-0.75,0.9375
1480098845831460,-0.0625,-0.8125,-0.0625
1480098845849141,0.5625,-0.875,-0.4375
1480098845879219,0.375,-0.1875,-0.5
1480098845891273,-0.5,0.5,-0.8125
1480098845916316,-1.9375,0.4375,-1.3125
1480098845930383,-1.5625,0.0625,-0.4375
1480098845951442,-1.1875,-0.4375,0.4375
1480098845976507,-1.125,-0.5,1.375
1480098845997565,-1.6875,-0.625,2
1480098846011626,-0.875,-0.375,2
1480098846036174,1.6875,-0.3125,1.1875
1480098846050374,3.4375,-0.1875,0.0625
1480098846071432,3.4375,-0.1875,-0.625
1480098846089479,0.3125,0.75,0.625
1480098846110536,-1.9375,0.9375,1.5
1480098846131595,-2.1875,1.625,0.25
1480098846149353,0.75,1.3125,-0.1875
1480098846171401,1.5625,0.9375,-0.6875
1480098846191487,0.0625,0.8125,-1.0625
1480098846209496,-0.625,-0.0625,-0.8125
1480098846232107,-0.375,0,-1.125
1480098846251194,1,0.4375,-0.375
1480098846275258,1.3125,0.125,0.125
1480098846291301,0.1875,0.125,0.125
1480098846311353,0.4375,0,0.25
1480098846329916,0.25,0.25,0.5625
1480098846351668,0.875,0.625,0.5625
1480098846371722,1.0625,0.5,0.75
1480098846388777,0.875,0.5,1.25
1480098846411827,0.5,0.625,1
1480098846431401,0.4375,0.875,0.9375
1480098846448954,0.4375,0.0625,0.4375
1480098846472015,0.0625,-0.375,0.1875
1480098846491110,0.75,-0.5,0.1875
1480098846509113,1.8125,-0.25,-0.0625
1480098846532198,2.625,0.3125,-0.1875
1480098846551326,2.125,0.75,0
1480098846569387,0.0625,0.375,0.5625
1480098846591433,-1.1875,0.375,1.0625
1480098846611486,-0.3125,0.8125,1.125
1480098846629539,0.5625,1.3125,0.75
1480098846651671,1.125,1,0.6875
1480098846671765,0.4375,0.8125,0.75
1480098846688770,-0.4375,0.6875,0.875
1480098846711833,0.5625,0.4375,0.875
1480098846731428,2.1875,1.0625,0.625
1480098846749618,1.9375,0.6875,-0.375
1480098846771678,1.8125,0.375,0
1480098846792734,4.125,1.3125,-0.75
1480098846808778,3.8125,1.75,0.0625
1480098846839524,2.625,2.3125,2.25
1480098846852558,2.3125,2.625,4
1480098846869604,3.5625,3.125,4.125
1480098846891663,6.5625,3.3125,4.125
1480098846912718,7.3125,3.6875,3.625
1480098846929266,5.1875,3.25,3.375
1480098846951422,3.125,3.125,3.125
1480098846972479,2.875,2.75,3
1480098846989524,3.625,2.5625,2.25
1480098847011581,3.5625,2.0625,1.75
1480098847033191,2.5,1.625,1.5
1480098847049358,0.375,1,0.75
1480098847071412,-0.75,0.5,0.375
1480098847092473,-0.9375,-0.25,0.375
1480098847109534,0,-1.125,-0.0625
1480098847132583,0.5625,-1.25,-1.125
1480098847154303,1.5,-1.75,-1.1875
1480098847173353,0.6875,-1.6875,-1.3125
1480098847191421,-1.25,-2,-1.3125
1480098847214462,-1.4375,-2,-1.3125
1480098847234048,-2.25,-1.25,-1.5625
1480098847252163,-2.3125,-1.25,-0.4375
1480098847274211,0.5,-0.75,-0.625
1480098847294278,-1.9375,-0.5,-2.5
1480098847311307,-2.5,-0.6875,-1.0625
1480098847334419,-3.1875,-1,-1.25
1480098847354082,-3.625,-0.25,-0.75
1480098847372122,-5.1875,-0.5625,-1.4375
1480098847394180,-5.5625,-1.25,-1.5
1480098847414233,-4.8125,-1.5625,-1.5625
1480098847431780,-4.9375,-1.6875,-1.75
1480098847454035,-5.4375,-1.875,-2.5625
1480098847474105,-5.6875,-2.125,-2.4375
1480098847492199,-4.1875,-1.5,-2.6875
1480098847514199,-2.5625,-0.8125,-2.9375
1480098847541006,-2.9375,-1.5625,-2.75
1480098847551997,-2.4375,-2.1875,-2.1875
1480098847573104,-3,-1.8125,-2.1875
1480098847594163,-2.5625,-0.5625,-2.125
1480098847611155,-1.75,0.9375,-1.9375
1480098847633719,-2.375,1.25,-1.6875
1480098847654082,-2.5,2.125,-1.0625
1480098847671127,-1.6875,3.5625,-0.875
1480098847701220,0.3125,4.625,-0.1875
1480098847714241,1,4.5625,1.1875
1480098847731299,3.0625,5.125,1.0625
1480098847753923,2.8125,5.5,1.75
1480098847773971,2.625,6.5,2.1875
1480098847791018,2.9375,7.5625,2.125
1480098847813075,3.9375,7.8125,2.5
1480098847834643,3.5625,7.3125,2.75
1480098847851204,3,6.8125,3.125
1480098847873247,4.6875,6.5625,2.9375
1480098847894339,5.6875,5.75,2.25
1480098847917376,4.5625,3.0625,2.4375
1480098847933429,3.875,0.9375,1.875
1480098847954119,4.25,1.4375,0.4375
1480098847971182,7.125,1.8125,0.1875
1480098847993223,5.3125,1.1875,0.875
1480098848014279,2.125,0.3125,0.1875
1480098848031364,2.5625,-0.1875,-0.0625
1480098848053056,1.3125,-1.125,-1.0625
1480098848076070,-0.6875,-2.0625,-1.9375
1480098848091109,-0.6875,-2.8125,-2.5
1480098848113168,-1.5,-3.4375,-3.125
1480098848135732,-2.6875,-4.1875,-3.5625
1480098848150837,-3.5625,-4.9375,-3.9375
1480098848172897,-3.4375,-5.125,-4.3125
1480098848195957,-3.625,-5.4375,-3.625
1480098848209997,-3.1875,-6.4375,-1.75
1480098848233560,0.0625,-7.625,-2.125
1480098848255708,1.8125,-8.4375,-2.875
1480098848269747,1.9375,-8.875,-3.5625
1480098848293825,0.375,-8.5,-4.4375
1480098848315867,-1.125,-7.8125,-4.3125
1480098848330444,-1,-7.3125,-4.25
1480098848353675,-0.6875,-6.875,-3.8125
1480098848375710,-0.4375,-6.4375,-2.4375
1480098848389768,-1.5,-5.5625,-1.9375
1480098848413810,-3.9375,-4.4375,-1.0625
1480098848435456,-2.9375,-2.875,0.4375
1480098848450578,-2.375,-1.375,1.5
1480098848473638,-2.125,0,2.0625
1480098848496700,-2.75,0,2.1875
1480098848509737,-1.875,0.5,2.1875
1480098848533318,-0.9375,0.8125,2.0625
1480098848555499,-1.0625,0.875,1.5
1480098848576554,-0.25,0.6875,2.125
1480098848593601,-0.6875,0.5,1.6875
1480098848615659,-0.6875,0.125,1.5
1480098848637426,-0.75,-0.5,1.625
1480098848653435,-0.375,-0.8125,1.1875
1480098848675512,-0.6875,-0.75,0.75
1480098848696589,-0.4375,-1,0.875
1480098848713595,0,-1.0625,1.0625
1480098848735219,0,-1,1.125
1480098848756714,0.0625,-1.125,1.25
1480098848773717,-0.375,-1.6875,1.0625
1480098848795776,-1.375,-0.375,1
1480098848816879,-0.875,0.0625,0.125
1480098848833437,-0.1875,0.1875,-0.6875
1480098848856573,2.3125,-0.25,-0.3125
1480098848876662,1.5625,-0.25,-1.4375
1480098848893673,-0.625,-1.4375,-1.625
1480098848915729,-1.75,-2.25,-1.4375
1480098848937477,-2.375,-2.625,-1.75
1480098848960536,-0.125,-1.75,-0.8125
1480098848975579,1.75,-0.3125,-0.75
1480098848996724,3.1875,0.1875,-1.5
1480098849013679,6.4375,-0.25,-3.25
1480098849036378,6.125,0,-2.375
1480098849058405,5.125,0.5625,0.0625
1480098849073444,0.625,0.625,0.6875
1480098849103525,-2,-0.0625,1.375
1480098849118566,-1.8125,-0.25,0.9375
1480098849146693,-0.875,-0.4375,1
1480098849156696,-1.5,-0.5,0.25
1480098849178735,-2.4375,-0.9375,0.375
1480098849192771,-1.5,-0.8125,0.375
1480098849215832,-1.6875,-0.25,0.0625
1480098849238916,-0.8125,-0.1875,0.125
1480098849252941,-0.0625,0.25,0.3125
1480098849276001,-0.6875,-0.125,1
1480098849298060,-0.6875,-0.1875,1.75
1480098849313099,0.8125,0.25,1.125
1480098849335662,-0.4375,0,0
1480098849358758,-1.3125,-0.5625,-0.1875
1480098849372796,-2.5,-1,-0.8125
1480098849395855,-0.5625,-1.125,-0.0625
1480098849418918,1.25,-0.75,-0.0625
1480098849432958,1.875,-0.875,0.4375
1480098849456089,0.75,-0.5,0.5625
1480098849478147,0.6875,-1,1
1480098849499203,1.9375,-0.125,1.0625
1480098849516249,1.625,0.1875,0.375
1480098849538903,0.75,0.375,0.5625
1480098849558962,-0.625,-0.1875,0.0625
1480098849575979,0.25,0,0.5
1480098849600044,0.625,-0.375,0.875
1480098849619096,0.375,0.0625,0
1480098849635643,-0.9375,0.375,-0.4375
1480098849658709,-1.5625,0.0625,-0.625
1480098849679765,-0.6875,0.0625,-0.3125
1480098849695807,0.875,0.125,0.25
1480098849718870,0.3125,0.625,0.1875
1480098849739113,-0.6875,0.4375,0.5
1480098849756127,-0.4375,0.4375,0.75
1480098849778187,-0.0625,0.1875,0.375
1480098849799242,-0.0625,0.1875,0.1875
1480098849816289,-0.125,0.3125,0.1875
1480098849838351,0.5,0.125,0
1480098849859404,0.5,0,-0.5625
1480098849875480,-0.0625,-0.5,-0.25
1480098849898509,-1.125,-1.0625,-0.625
1480098849919598,-1,-0.9375,-1.5625
1480098849936146,-0.6875,-0.8125,-1.6875
1480098849958220,-0.3125,-1.0625,-1.1875
1480098849981311,0.0625,-1.1875,-0.9375
1480098849995328,0.1875,-1.3125,-0.5
1480098850024895,0.75,-1.0625,-0.75
1480098850041080,1.375,-0.625,-0.875
1480098850056120,1.125,-0.25,-0.8125
1480098850078181,0.75,-0.375,-0.4375
1480098850101256,0.5,-0.5,-0.4375
1480098850115279,0.5625,-0.5,-0.5625
1480098850138318,-0.1875,-0.375,-1.0625
1480098850160378,-0.375,-0.4375,-1.1875
1480098850175416,-1.125,-0.6875,-0.9375
1480098850198480,-0.625,-0.625,-1.0625
1480098850221060,-0.8125,-0.4375,-1.1875
1480098850235583,-0.75,-0.5625,-0.75
1480098850258259,-1.0625,-0.4375,-0.375
1480098850281318,-0.625,-0.3125,-0.8125
1480098850295356,0.5625,-0.1875,-0.625
1480098850325942,0.4375,-0.5,-0.0625
1480098850341079,-0.125,-0.5625,0.25
1480098850355116,0.25,-0.625,0.3125
1480098850378188,0.5625,-0.4375,0.375
1480098850401240,0.4375,-0.3125,0.3125
1480098850415276,0.4375,-0.3125,0.25
1480098850438034,0.125,-0.625,0.125
1480098850461079,0.1875,-0.9375,0.125
1480098850482138,0.3125,-0.9375,0.3125
1480098850498180,0.0625,-1,0
1480098850521241,0.0625,-0.9375,-0.3125
1480098850541905,0.875,-0.75,-0.0625
1480098850558904,2.25,-0.4375,-0.0625
1480098850580955,1.75,-0.5625,-0.0625
1480098850602010,0.875,-0.3125,0.5
1480098850618072,0.75,0.1875,0.875
1480098850641116,1,0.9375,1.25
1480098850662168,0.8125,1.125,0.6875
1480098850679230,-0.1875,0.9375,0.5625
1480098850701276,-1.3125,0.1875,0.5625
1480098850722338,-2.0625,-0.625,0.1875
1480098850745447,-1.625,-1,-0.3125
1480098850760478,-0.6875,-0.9375,-0.3125
1480098850781531,-1,-1.125,-0.1875
1480098850804560,-0.5,-1.0625,0.3125
1480098850823117,-0.875,-0.5,0.6875
1480098850842204,-1.625,-0.5,0.6875
1480098850859249,0.4375,0.0625,0.3125
1480098850881360,2.5,0.5625,-0.3125
1480098850903367,1.5,0,-0.875
1480098850918407,0.8125,0.125,-0.6875
1480098850941047,-0.0625,0.3125,-0.6875
1480098850963107,-0.75,0.3125,-0.375
1480098850979147,-1.5,0,-0.25
1480098851001207,-1.8125,-0.375,-0.0625
1480098851023814,-0.625,-0.6875,0.125
1480098851037924,-0.9375,-0.5625,-0.1875
1480098851060984,-0.9375,-0.1875,-0.4375
1480098851083044,-0.5,0.1875,0.3125
1480098851098084,-0.6875,0.125,0.5
1480098851121148,0.25,0.125,0.875
1480098851149915,0.5625,0.125,0.25
1480098851157935,0.125,-0.0625,-0.0625
1480098851180997,-0.5,-0.0625,0.3125
1480098851203056,-0.375,-0.125,0.1875
1480098851218111,-0.5625,0.25,-0.25
1480098851241171,-0.0625,0.125,-0.3125
1480098851271276,-0.5,-0.5,-0.125
1480098851277266,-1,-0.8125,-0.25
1480098851301331,0.0625,-0.3125,-0.3125
1480098851323405,-0.625,-0.125,-0.75
1480098851337445,-0.4375,-0.3125,-0.375
1480098851360558,0.375,-0.6875,-0.25
1480098851383568,-0.1875,-0.8125,0.0625
1480098851404623,-0.5625,-0.5625,-0.125
1480098851421208,0.125,-0.3125,0.125
1480098851443322,0.5625,-0.0625,0.1875
1480098851464370,-0.0625,0,0
1480098851480411,-0.5,-0.3125,0.25
1480098851503474,-0.1875,-0.3125,0.1875
1480098851524537,-0.0625,-0.125,0.1875
1480098851547130,0.375,-0.25,-0.0625
1480098851563172,-0.375,-0.1875,-0.5625
1480098851584237,-0.625,-0.4375,-0.5
1480098851601273,-0.8125,-0.5,-0.5625
1480098851623376,-0.5,-0.4375,-0.375
1480098851644763,0.0625,-0.0625,-0.0625
1480098851660767,0,-0.125,-0.0625
1480098851683850,0.0625,0.0625,0
1480098851703882,0.125,0.0625,0.125
1480098851720927,0.5625,0.1875,-0.0625
1480098851743558,0.4375,0.25,-0.0625
1480098851764649,-0.4375,0.125,0
1480098851780658,-0.25,0.0625,0.0625
1480098851803738,-0.4375,0,0.3125
1480098851824787,-1.125,-0.125,0.1875
1480098851840832,-0.25,0.0625,-0.0625
1480098851862902,-0.5625,-0.1875,0.375
1480098851885952,-0.625,-0.3125,0.375
1480098851900992,0.0625,-0.25,0.1875
1480098851931073,1.25,-0.0625,0.5
1480098851945645,1.9375,-0.625,1.4375
1480098851960681,1.0625,0.9375,1.875
1480098851983746,0.625,2.375,2.5625
1480098852005801,2.75,3.3125,1.5
1480098852026934,4.8125,2.125,-2.25
1480098852043509,4.6875,0.1875,-1.4375
1480098852066569,5.6875,-0.5625,-1.9375
1480098852080608,4.1875,-1.125,-1.8125
1480098852103692,5,1.1875,0.25
1480098852126272,1.875,1.0625,-1.375
1480098852139847,-2.9375,-0.0625,-1.375
1480098852162909,-2.25,-0.75,-0.1875
1480098852185970,-2.3125,-1.5,0.25
1480098852200007,-1.25,-1.5,0.75
1480098852224111,-0.5,-1.0625,1
1480098852246191,-0.625,-0.9375,-0.1875
1480098852260229,-2.3125,-0.375,-0.375
1480098852291321,-2.1875,-0.25,-0.875
1480098852306354,-1.3125,-0.25,-0.1875
1480098852320390,1.375,0.0625,0.4375
1480098852343708,1,-0.0625,0.4375
1480098852365768,0.1875,-0.25,0.625
1480098852386823,-0.125,-0.625,0.0625
1480098852403869,-0.6875,-0.5,-0.5
1480098852425929,-1.0625,-0.4375,-0.8125
1480098852446592,-0.9375,-0.375,-0.1875
1480098852463638,-0.4375,-0.8125,-0.0625
1480098852485696,0.125,-0.5,-0.25
1480098852506752,0.5,-0.125,-0.5625
1480098852523817,-0.1875,-0.25,-0.3125
1480098852545515,-0.6875,-0.1875,-0.25
1480098852566619,-0.5625,-0.25,0.75
1480098852583617,0.375,1.375,1.3125
1480098852605675,1.5,1.9375,1.8125
1480098852627319,1.75,1.5,1.0625
1480098852643418,0.625,0.8125,-1.5625
1480098852665481,-2.4375,-1.5,-2.625
1480098852686580,-2.3125,-2.0625,-0.6875
1480098852703578,-0.875,-1.25,0.125
1480098852726148,2.4375,-0.0625,0.625
1480098852746500,3.125,0.5625,0.4375
1480098852763571,0.3125,0.0625,0.0625
1480098852785605,-0.875,-0.0625,-0.0625
1480098852808669,0.4375,0,0.25
1480098852823709,1.1875,0.0625,0.375
1480098852845786,0.3125,-0.0625,0.375
1480098852867833,0.125,-0.5,0.4375
1480098852883891,0.875,-0.3125,0.125
1480098852905939,0.4375,0.0625,-0.6875
1480098852928507,0.4375,-0.125,0.1875
1480098852943177,0.4375,-0.6875,1.125
1480098852966201,2.5625,-0.25,1.5
1480098852989265,2.75,0.75,-0.4375
1480098853002300,0.5625,0.0625,-0.75
1480098853025864,-2.5625,-0.5,-0.75
1480098853047998,-2.375,-0.9375,-0.25
1480098853063015,1.3125,0.1875,0.0625
1480098853086076,2.5,0.5,-0.4375
1480098853108158,0.9375,-0.3125,-0.625
1480098853131256,-0.75,-0.9375,-0.125
1480098853145822,-0.5625,-0.875,0.6875
1480098853167878,1.5625,-0.0625,1.0625
1480098853182919,2.0625,0.5625,0.0625
1480098853211996,0.0625,-0.3125,-2
1480098853228595,-3.375,-2.0625,-0.875
1480098853242752,-0.6875,-1.6875,1
1480098853265817,1.6875,0.125,0
1480098853287928,3.25,0.6875,0.5
1480098853308960,0.75,0,-0.25
1480098853325990,-2.9375,-1.25,-0.5
1480098853351060,-1.5625,-1,-0.0625
1480098853369107,-0.25,-0.25,-0.1875
1480098853386153,0.125,-0.1875,-0.125
1480098853408213,-0.375,0.125,-0.75
1480098853436808,-0.5,-0.125,-0.25
1480098853445823,0,-0.4375,0.0625
1480098853467896,0.125,-0.5,-0.1875
1480098853488969,0.125,-0.3125,0.3125
1480098853505984,0.625,-0.3125,0.375
1480098853528552,0.4375,-0.3125,0.125
1480098853549274,-0.1875,-0.5,0.25
1480098853566380,0.0625,-0.4375,0.4375
1480098853588376,0.625,0.0625,0.375
1480098853609458,0.0625,-0.375,0.5
1480098853625981,0.4375,-0.4375,-0.25
1480098853648180,-0.5625,-0.625,-0.4375
1480098853669255,-0.0625,-0.0625,-0.4375
1480098853686280,0.9375,0.625,-1.3125
1480098853708339,0.5625,-0.0625,-1.5625
1480098853729898,0.625,-0.0625,-1.375
1480098853746034,0.4375,-0.125,-1.25
1480098853768092,-0.25,0.4375,-1
1480098853791187,0.1875,0.375,0.0625
1480098853806194,1.75,0.3125,0.5625
1480098853828805,-0.25,-1.125,0.6875
1480098853857011,-0.6875,-1.75,2.375
1480098853865007,-1.25,0.125,2.8125
1480098853888066,-4.5,1,1.1875
1480098853911129,-0.75,0.6875,0.375
1480098853925707,5.625,0.1875,-1.4375
1480098853953928,8.0625,-0.625,-3.1875
1480098853970940,9.1875,-1.0625,-2.5625
1480098853984978,5.5,-1.4375,-1.0625
1480098854008039,1.9375,-1,0.125
1480098854031102,-2.5,-0.0625,0.5
1480098854045149,-2.9375,1.5,1.0625
1480098854068211,-3.375,1.75,0
1480098854091273,-1.4375,0.8125,0.75
1480098854112361,-0.9375,-0.625,1.125
1480098854128373,-2.75,-1.5,0.5625
1480098854151102,-2.4375,-1,0
1480098854165139,-1.5625,0,-0.5625
1480098854188199,-2.0625,-0.4375,-0.125
1480098854211263,-1.125,-0.3125,0.375
1480098854225302,-1.125,0.0625,-0.3125
1480098854248047,-0.125,0.3125,0.0625
1480098854271118,0.25,0.1875,0.0625
1480098854292164,-1.0625,0.0625,0.0625
1480098854308207,-0.875,-0.0625,0.125
1480098854331325,-0.3125,-0.3125,0.1875
1480098854352021,-0.375,-0.6875,-0.0625
1480098854368060,-0.3125,-0.6875,0
1480098854391125,-0.6875,-0.4375,0.125
1480098854412221,0.125,0.0625,1.0625
1480098854428753,1.5,0.1875,1.625
1480098854450899,1.75,0.875,1.5625
1480098854471956,1.375,1.4375,-0.6875
1480098854487998,-2.375,-0.125,-1.75
1480098854511060,-1.5625,-1.1875,0.0625
1480098854532184,-1.1875,-0.8125,0.0625
1480098854548796,1,0.125,0.6875
1480098854570852,1.6875,0.375,0.1875
1480098854591907,0.0625,-0.3125,-0.1875
1480098854608030,-0.625,-0.5,-0.1875
1480098854631023,-0.6875,-0.3125,-0.1875
1480098854651712,-0.375,-0.125,-0.3125
1480098854668757,0.25,-0.125,-0.375
1480098854690814,1.0625,-0.125,-0.1875
1480098854712874,0.75,-0.5,-0.125
1480098854728918,0.0625,-0.625,0.125
1480098854750679,0.375,-0.0625,0.0625
1480098854773767,0.5,0,0.1875
1480098854788792,0.5625,-0.125,0.625
1480098854810838,-0.0625,-0.4375,0.5
1480098854833904,-0.6875,-0.9375,0.125
1480098854854494,-0.125,-0.8125,0.1875
1480098854878560,0.5,-0.375,-0.875
1480098854893615,-0.125,-0.4375,-0.375
1480098854907635,-0.625,0,-0.4375
1480098854931215,-0.3125,0.125,-0.3125
1480098854953807,0.4375,0.125,-0.1875
1480098854967841,0.1875,-0.375,0.25
1480098854990902,0.625,-0.25,0.1875
1480098855013964,0.375,0,-0.4375
1480098855028007,0,0.125,-0.25
1480098855050570,-0.875,-0.375,-0.125
1480098855073633,-0.3125,-0.3125,-0.5
1480098855087668,0.5625,-0.625,-0.3125
1480098855110729,0.25,-0.3125,-0.375
1480098855133334,0.125,0.125,-0.375
1480098855147962,-0.8125,0.0625,-0.6875
1480098855171012,-1.125,-0.25,-0.125
1480098855193070,-0.625,-0.3125,0.3125
1480098855214131,0.1875,0.125,0.0625
1480098855231203,0.4375,0.125,0.0625
1480098855259276,0.0625,-0.125,0.1875
1480098855274297,-0.5,-0.4375,0.1875
1480098855291314,0.25,-0.6875,0
1480098855313372,0.5625,-0.6875,-0.5
1480098855335478,0.4375,-0.625,-0.75
1480098855350443,-0.3125,-0.625,-0.875
1480098855373433,-0.5,-0.5625,-0.6875
1480098855394530,0.3125,-0.3125,-0.875
1480098855410523,0.75,-0.375,-0.9375
1480098855433632,0.0625,-0.625,-0.75
1480098855454263,-0.0625,-0.3125,-0.125
1480098855471306,-0.6875,0.125,-0.125
1480098855493368,-0.4375,0.375,0.25
1480098855514422,0.4375,-0.125,0.1875
1480098855530969,0.4375,-0.1875,-0.1875
1480098855553649,0.3125,0.125,-0.4375
1480098855574704,-0.5625,-0.25,-0.5625
1480098855590746,-0.125,-0.5625,0.125
1480098855613808,0.75,-0.375,0.0625
1480098855634417,1.3125,0,0.4375
1480098855658617,0.875,0.375,-0.0625
1480098855673662,0.4375,0.0625,0.0625
1480098855695709,0.125,-0.1875,0.5625
1480098855710748,0.375,0.0625,0.375
1480098855733312,0.5625,-0.0625,0.5625
1480098855755510,0.75,0.125,-0.1875
1480098855770553,0.0625,-0.375,-0.25
1480098855793612,-0.4375,-0.4375,-0.0625
1480098855815671,-0.1875,-0.4375,-0.375
1480098855830714,0.125,-0.5,-0.3125
1480098855853348,0.75,-0.1875,-0.5625
1480098855875450,0.375,0.625,-0.75
1480098855890465,0.625,0.75,-0.1875
1480098855913507,1.6875,0.4375,-0.125
1480098855936071,1.8125,-0.375,0.625
1480098855957165,-0.6875,-0.625,1.4375
1480098855973171,-3,-1.3125,2.125
1480098855996273,-3.1875,0.1875,1.3125
1480098856010269,-1.125,0,0.25
1480098856033342,1.6875,-0.1875,-0.625
1480098856055464,2.5625,-1,-0.5625
1480098856070443,-1.4375,-1.375,-0.625
1480098856093503,-3.125,-0.9375,-0.1875
1480098856115562,-1.375,-0.375,-0.625
1480098856136659,-0.25,-0.9375,0.0625
1480098856152851,-0.3125,-0.4375,0
1480098856175873,-1.8125,-0.8125,0.0625
1480098856196930,-2.1875,-0.5625,-0.375
1480098856212969,-0.75,-0.25,-0.25
1480098856236032,-0.0625,-0.25,-0.5
1480098856256666,0.25,-0.5625,-0.3125
1480098856273720,0.375,-0.625,-0.125
1480098856295773,-0.6875,-0.5625,-0.0625
1480098856316881,-0.8125,-0.1875,0.25
1480098856333428,-0.125,0.125,0.125
1480098856355603,-0.5,-0.1875,0
1480098856376659,-0.6875,-0.4375,0.3125
1480098856393712,-1,-0.6875,0.625
1480098856415761,-0.9375,-0.375,0.25
1480098856436356,-0.4375,-0.5,-0.4375
1480098856453436,-0.3125,-0.9375,-0.375
1480098856475526,-0.625,-1.0625,-0.1875
1480098856496606,0.25,-0.9375,0
1480098856513596,0.5,-1,-0.5625
1480098856536173,0.75,-0.75,-0.5625
1480098856556785,-0.125,-0.25,-0.125
1480098856579861,-0.75,0.1875,-0.375
1480098856595887,-0.875,0.8125,-0.125
1480098856617973,-0.375,0.1875,0.4375
1480098856633015,-0.1875,-0.125,-0.4375
1480098856655683,-0.3125,-0.3125,0
1480098856678747,-0.25,0.125,-0.0625
1480098856693784,-0.1875,0.125,-0.875
1480098856715842,0,0.125,-0.75
1480098856738567,0.125,0.25,-0.5
1480098856752604,-0.8125,0,-0.5625
1480098856775666,-0.6875,-0.1875,-0.375
1480098856798728,-0.1875,0.0625,-0.0625
1480098856812767,0.0625,0.125,-0.0625
1480098856835865,0,-0.0625,0
1480098856858565,-0.6875,-0.3125,-0.125
1480098856872601,-1.25,-0.3125,0.3125
1480098856895662,-0.6875,-0.1875,0.0625
1480098856918725,1.4375,-0.25,-0.375
1480098856932764,0.1875,-0.875,0.25
1480098856955829,-1.6875,-0.4375,1
1480098856977925,-1.75,-0.3125,1
1480098856992928,2.5,-0.25,-0.6875
1480098857015990,6.5,-0.0625,-1.375
1480098857046268,4.375,0.0625,-1.8125
1480098857052298,0.0625,0.1875,-0.3125
1480098857075350,-1.25,0.6875,0.75
1480098857098406,0.375,1.1875,0.0625
1480098857119499,2,0.625,0.0625
1480098857136025,0.9375,-0.5625,-0.3125
1480098857158288,-0.75,-0.6875,-0.375
1480098857179356,-1.9375,-0.75,-0.5625
1480098857195388,0.5625,0.125,-0.4375
1480098857218449,1.25,-0.25,-0.5625
1480098857239177,0,-0.75,-0.0625
1480098857256222,-0.875,-0.25,0.25
1480098857278280,-0.125,0.1875,0.125
1480098857299336,0.875,0.5,0.1875
1480098857315379,0.5625,0.1875,0.0625
1480098857337975,-0.1875,-0.25,0.1875
1480098857359074,-0.5,-0.3125,0.25
1480098857376075,0.3125,-0.5,-0.0625
1480098857398139,0.6875,-0.375,-0.5
1480098857419191,0.4375,-0.5,-0.375
1480098857436239,-0.6875,-0.4375,-0.1875
1480098857458815,-0.8125,-0.3125,-0.125
1480098857479855,-0.25,-0.1875,-0.3125
1480098857495899,0.9375,-0.375,-0.1875
1480098857517972,0.1875,-0.25,-0.125
1480098857539024,0.6875,-0.25,0.0625
1480098857556070,-0.3125,-0.0625,-0.1875
1480098857578129,-0.0625,-0.125,0.1875
1480098857601190,0.5,0.0625,0.25
1480098857616231,0.5,0.25,0.0625
1480098857638815,-0.5625,-0.1875,-0.125
1480098857660875,-1.25,-0.5,-0.5
1480098857675914,-0.4375,-0.375,-0.125
1480098857698000,0,-0.625,0
1480098857721037,0.0625,-0.9375,0.125
1480098857735579,0.5,-0.8125,0.25
1480098857758807,0.375,-0.875,0.25
1480098857780835,-0.5,-0.875,-0.4375
1480098857794873,-0.375,-0.875,-1.0625
1480098857817933,-0.25,-1.5625,0.0625
1480098857840585,2.125,-0.9375,0.625
1480098857855658,3.0625,-0.1875,1
1480098857879690,3.0625,0.75,2.3125
1480098857900745,2.3125,1.3125,2.0625
1480098857914784,2.6875,2.0625,2
1480098857938644,4.25,1.9375,1.1875
1480098857960691,6.375,1.5625,0.5
1480098857975731,7.25,0,1.375
1480098857997806,8.25,-0.875,2.0625
1480098858020850,8.1875,-0.4375,2.6875
1480098858042474,6.125,0.0625,2.0625
1480098858058516,4,0.25,1.1875
1480098858080576,3.1875,0.125,-0.125
1480098858101633,2,-0.6875,-0.4375
1480098858118692,-0.875,-1.5625,-0.8125
1480098858140782,-2.9375,-1.4375,-1
1480098858161863,-2.8125,-0.8125,-0.625
1480098858177926,-2,0.0625,-1
1480098858207973,-2.6875,0.75,-1.125
1480098858222001,-3.0625,0.625,-0.375
1480098858237794,-3.3125,0.1875,0
1480098858260856,-3.3125,0.1875,0.25
1480098858281921,-2.25,0.75,-0.0625
1480098858298957,-0.9375,0.375,0.5
1480098858321016,-0.5,0.4375,1.0625
1480098858341732,-2.0625,-0.25,1.1875
1480098858358777,-2.5,-0.75,1.125
1480098858380800,-3.8125,-0.6875,0.125
1480098858401856,-3.9375,-0.9375,-0.3125
1480098858417972,-0.1875,-0.625,-1.0625
1480098858440906,1.875,-1,-1.25
1480098858461964,1.5625,-1.8125,-1.5
1480098858478005,2.5,-1.625,-0.375
1480098858501071,1.8125,-1.5625,-0.125
1480098858523641,1.6875,-1.125,0.5
1480098858538745,3.4375,-0.5,1.5
1480098858560791,3.875,-0.9375,2.375
1480098858582852,7.4375,-0.1875,3.625
1480098858598892,2.625,-1.4375,5.5625
1480098858620951,-0.25,-1.6875,7
1480098858643141,-1.3125,-2.1875,6.5625
1480098858657180,2.6875,-1.4375,9.3125
1480098858681261,6.0625,-2,11.125
1480098858703302,5.25,-3.6875,7.1875
1480098858717339,1.1875,-5.9375,8.8125
1480098858741047,0.125,-6.4375,6.75
1480098858763106,1.9375,-3.75,1.0625
1480098858777142,5.4375,0.0625,-1.75
1480098858801207,13.5,2.375,-2.0625
1480098858823791,8.5625,1.0625,-6.3125
1480098858837934,7.125,1.25,-5.4375
1480098858860994,0.5625,1.25,-3.9375
1480098858883053,-4.3125,1.3125,-2
1480098858898095,-4.4375,1.25,-2.9375
1480098858921154,-3.0625,-0.0625,-3.125
1480098858943206,-1.9375,-0.0625,-2.875
1480098858957291,-6.3125,-2.0625,-1.9375
1480098858981308,-4.6875,-2.9375,-0.625
1480098859003369,-2.625,-3.1875,-2.4375
1480098859024473,-4.3125,-3.8125,-2.875
1480098859040509,-7.125,-4.125,-3.0625
1480098859063570,-9.625,-3.6875,-2.25
1480098859084629,-6.375,-2.9375,-0.5
1480098859100669,-1.6875,-1.1875,-0.6875
1480098859123784,-0.5,-1.0625,-1.0625
1480098859144589,-3.8125,-0.375,-0.875
1480098859160585,-4.875,0.0625,0.5625
1480098859183646,-2.8125,-0.375,0.5625
1480098859204742,-0.0625,0.125,0.375
1480098859220745,1.75,0.5625,0.125
1480098859243813,0.375,0.4375,0.5
1480098859265871,-1.0625,0.0625,0.3125
1480098859280912,-0.4375,1.625,-0.25
1480098859302973,-0.0625,1.6875,-1.5625
1480098859324561,-0.125,0.9375,-1.0625
1480098859341037,1.0625,0.3125,-1.0625
1480098859363098,0.875,0.625,-1.625
1480098859384152,0.875,1.3125,-1.9375
1480098859401197,0.1875,0.875,-2
1480098859423761,-0.3125,-0.0625,-1.5
1480098859445334,-1.1875,-0.4375,-1.0625
1480098859466378,-1.375,-0.5625,-0.3125
1480098859483423,-0.5625,-0.125,-0.5
1480098859505481,0.875,0.625,-0.5625
1480098859520521,1.3125,1,0.4375
1480098859543096,1.3125,0.4375,1.375
1480098859566166,1.625,0,0.5625
1480098859581198,1.4375,0.5625,0.4375
1480098859603257,0.875,0,1.625
1480098859625821,-0.25,-0.5625,1.4375
1480098859640467,0.625,0.0625,0.875
1480098859670549,0.375,0.0625,-0.1875
1480098859685587,-0.9375,-0.75,0.25
1480098859700630,-0.5,-1.0625,0.0625
1480098859723722,-0.375,-1.4375,0.0625
1480098859745571,0.5625,-1.3125,-0.0625
1480098859760613,0.875,-1.1875,0.1875
1480098859783674,-0.0625,-1,0.25
1480098859805732,-0.125,-0.9375,0.0625
1480098859819788,-0.375,-1.3125,0.0625
1480098859843442,1.1875,-0.875,0.375
1480098859871555,1.8125,0,0.3125
1480098859880539,1.0625,0.25,0.3125
1480098859903601,-0.3125,-0.1875,0
1480098859926164,-0.375,-0.5,0.625
1480098859954750,0,-0.375,-0.375
1480098859963767,0.25,-0.1875,-0.25
1480098859985824,0.75,-0.125,-0.75
1480098860006914,1.5,0.0625,-1.0625
1480098860023443,2.0625,0,-1
1480098860046131,2.5,-0.0625,-1.625
1480098860067189,3.25,-0.4375,-1.1875
1480098860083232,3.8125,-0.375,0.0625
1480098860105288,4.125,-0.125,1.25
1480098860126901,4.375,1.25,1.6875
1480098860142931,4.4375,1.75,1.3125
1480098860165991,1.8125,0.9375,1.0625
1480098860187094,-1.375,-0.1875,0.4375
1480098860203108,-3.8125,-1.4375,1.25
1480098860226170,-3.4375,-1.625,1.1875
1480098860246716,-1.1875,-1.0625,0.1875
1480098860262759,-0.6875,-2.1875,1.25
1480098860285821,-2.75,-2.25,3.0625
1480098860306890,-3.375,-1.625,2.875
1480098860323455,-4.75,-1.1875,1.5
1480098860345599,-4.25,-1.625,1.8125
1480098860368645,1.625,-0.5625,2.625
1480098860383684,4.5,0.625,2.9375
1480098860405742,1.625,-1.6875,2.0625
1480098860429318,-2.125,-3.5,2.6875
1480098860443461,-1.0625,-3.5,3.1875
1480098860465518,2.875,-3,3.75
1480098860488580,5.5,-1.6875,2.4375
1480098860503622,4,-2.1875,0.625
1480098860526194,0.8125,-2.625,0
1480098860548308,-0.6875,-2.125,0
1480098860562345,0.125,-1.125,-0.5
1480098860585409,0.1875,-1.375,-0.5
1480098860615487,-0.375,-2.125,-0.125
1480098860623011,-0.1875,-2.8125,0.75
1480098860646159,2.75,-1.8125,0.4375
1480098860668214,3.8125,-1.75,-0.0625
1480098860682277,4.625,-1,1.25
1480098860705318,6.0625,-0.625,0.5
1480098860728379,4.625,-1.3125,-0.125
1480098860742886,2.9375,-2.125,0.0625
1480098860765944,1.6875,-2.1875,-0.5
1480098860788008,2.625,-2,-1.125
1480098860803042,3.5,-1.1875,-1.75
1480098860826142,3.875,-0.625,-0.625
1480098860847853,0.0625,-0.875,-0.25
1480098860868869,-2.125,0.0625,-0.75
1480098860885914,-0.75,-0.9375,-1.1875
1480098860907971,1.0625,-1.75,-1.125
1480098860929537,1.75,-1.0625,-0.375
1480098860946082,0.25,-0.1875,-0.625
1480098860968140,-3.3125,0.0625,-0.8125
1480098860989208,-3.5625,0.25,-1.0625
1480098861006241,-3.25,-0.6875,-0.5
1480098861028841,-1.8125,-0.4375,-0.75
1480098861049549,-2.5,0.1875,-1.0625
1480098861065577,-1.125,0.9375,-0.5625
1480098861088640,0.3125,0.6875,-0.125
1480098861109696,1.25,0.8125,-0.6875
1480098861126260,1.0625,0.9375,0
1480098861148467,-1.0625,0.3125,0.0625
1480098861169544,-2.4375,-0.375,0.375
1480098861185558,-2.625,-0.75,0.1875
1480098861208619,-0.875,-1.3125,0.5625
1480098861229681,0.4375,-1.25,0.6875
1480098861245371,0.75,-0.9375,0.9375
1480098861268413,-0.5,-1.125,0.75
1480098861296518,-1.0625,-1.375,1.125
1480098861305510,-0.3125,-1.125,0.6875
1480098861328587,0,-0.9375,0.3125
1480098861350383,0.25,-0.9375,0.5
1480098861365438,0.75,-1.4375,1.25
1480098861388482,0,-1.625,0.9375
1480098861410540,-0.125,-1.5625,1.25
1480098861426086,0.6875,-1.25,1.125
1480098861448649,0.5,0.125,-0.0625
1480098861470706,-0.3125,0,-0.4375
1480098861484800,0.9375,-0.75,0.625
1480098861508812,2.4375,-1.0625,0.375
1480098861530885,1.1875,-0.75,-0.4375
1480098861545447,-0.625,-0.125,-0.8125
1480098861568504,-0.6875,-0.0625,-0.75
1480098861590564,0.25,-0.5,-0.625
1480098861605603,1,-0.4375,-1.125
1480098861628670,0.5,-0.1875,-1.5
1480098861650296,-1.125,0.0625,-0.6875
1480098861665353,-0.625,0.5,-0.75
1480098861688397,-0.1875,0,-1.0625
1480098861710489,-0.25,-0.4375,-0.9375
1480098861725504,0,-0.5,-0.6875
1480098861747839,0.6875,0.4375,-0.75
1480098861770872,-0.6875,0.5,-0.75
1480098861784905,-1.9375,0.3125,-0.4375
1480098861807966,-0.875,1.0625,0.25
1480098861831032,-0.625,1.5,-0.0625
1480098861851655,-1.0625,1,0.125
1480098861868680,-0.375,0.4375,0.1875
1480098861890724,0.25,0.1875,0.3125
1480098861895778,0.75,0.1875,-0.5625
1480098861913810,-0.9375,-0.0625,-0.8125
1480098861933896,-2.25,-0.3125,-0.4375
1480098861955933,-0.625,-0.0625,-0.3125
1480098861979043,-0.3125,0.6875,-0.9375
1480098861994040,-1.125,0.5,-0.625
1480098862016101,-1.3125,0.5,-0.625
1480098862038683,-1.0625,0,0.0625
1480098862054057,-0.25,-0.625,0.1875
1480098862076076,0.9375,0,0
1480098862099181,-0.5625,0.6875,-0.5625
1480098862114182,-0.9375,0.1875,-0.125
1480098862136252,0.125,-0.3125,0.25
1480098862158976,1.125,0.25,0.1875
1480098862173985,-0.9375,0.5625,-1.1875
1480098862196049,-1.625,-0.0625,-0.5
1480098862219127,0.5625,-0.6875,-0.3125
1480098862234188,-0.0625,-0.75,-0.875
1480098862255857,0.1875,-0.75,-0.9375
1480098862280918,-0.1875,0.125,-1.1875
1480098862293951,-0.75,0.125,-0.4375
1480098862316061,-0.1875,-0.0625,0.0625
1480098862338653,-0.3125,-0.75,0.5625
1480098862353831,0.5,-0.3125,0.75
1480098862375866,1.0625,0.5,0.1875
1480098862398935,-0.5625,0.9375,-0.4375
1480098862413972,-2.0625,0.6875,-0.625
1480098862436559,-1,0,-0.25
1480098862458658,0.625,0.375,-0.5
1480098862475721,0.9375,1.375,-0.5625
1480098862495758,-0.125,1.4375,-0.4375
1480098862518859,-1.375,1.0625,-0.0625
1480098862533875,-0.6875,0.1875,0.25
1480098862556027,0.3125,0,0.9375
1480098862579094,0.875,-0.625,0.375
1480098862593174,0.75,-0.75,0.75
1480098862623708,0.5625,-0.6875,1.3125
1480098862638748,1.75,-1,1.9375
1480098862653929,3.625,-0.8125,1.4375
1480098862675980,3.0625,-1.0625,0.9375
1480098862699005,1.875,-1.375,0.25
1480098862714082,0.75,-1.75,-0.1875
1480098862736606,2.125,-1.5,1
1480098862758730,2.6875,-0.25,0.5
1480098862782795,0.5,-0.6875,0.375
1480098862795830,1.9375,-1.375,0.875
1480098862818889,1.875,-1.0625,0.8125
1480098862835488,1.8125,-0.6875,0
1480098862855788,-0.625,-0.75,0.0625
1480098862878848,-2.5,-1.375,-0.125
1480098862894898,-0.1875,-1.4375,-0.25
1480098862915947,0.875,-1.1875,-0.5
1480098862938588,-0.375,-1.125,-1.125
1480098862954660,-0.3125,-0.75,-1
1480098862976719,-0.125,-0.0625,-0.875
1480098862998783,-0.1875,0.4375,-0.9375
1480098863014833,0.125,0.75,-1.25
1480098863036419,-1.625,1.875,-1.5
1480098863058569,-1.75,2.8125,-1.625
1480098863074612,-0.75,5.125,-1.75
1480098863096669,-0.3125,6.4375,-3.875
1480098863118785,-2.4375,5.8125,-5.3125
1480098863135292,-4.0625,6.25,-3.5
1480098863155852,-2.125,6.125,-4.4375
1480098863178951,1.25,6.1875,-5.6875
1480098863194954,6,6.75,-6.3125
1480098863216011,4.5625,6.1875,-5.1875
1480098863239194,0.8125,4.6875,-3.1875
1480098863256259,-1.5,4.375,-3.75
1480098863276298,-0.625,4.3125,-3.1875
1480098863298351,2.25,4.4375,-1.8125
1480098863316398,1.6875,3,-0.9375
1480098863336457,-3.6875,2.125,-0.1875
1480098863358714,-4.3125,1.8125,0.125
1480098863376753,-2.5,1.0625,-0.375
1480098863395804,-2.375,-0.125,-0.25
1480098863418865,-0.75,-0.25,0.75
1480098863440968,-1.25,0.3125,0.6875
1480098863457977,-1.625,0.625,-0.25
1480098863487053,-1.25,-0.25,-0.6875
1480098863501091,-1.9375,-1.0625,0.1875
1480098863516143,-1.125,-0.9375,-0.1875
1480098863538742,-0.625,-0.625,0.1875
1480098863561015,0.9375,-0.375,0.6875
1480098863576019,-1,-1.0625,0.8125
1480098863599081,0.125,-1.4375,1
1480098863621192,0.5,-1.1875,1.5
1480098863636235,0.5,-1.8125,1.8125
1480098863658825,0.5625,-1.75,1.6875
1480098863680938,0.4375,-1.5,0.9375
1480098863695930,1.9375,-1.5625,-0.375
1480098863718988,1.75,-1.8125,-2.4375
1480098863741171,-0.125,-3,-1.5
1480098863765235,-1.125,-2.4375,-1.0625
1480098863778271,-1.375,-1.25,-1.5
1480098863801333,-0.8125,-1.0625,-1.1875
1480098863816371,1,-0.4375,0.1875
1480098863838936,0.5625,-0.875,0.1875
1480098863861502,-0.9375,-1.8125,1.4375
1480098863877544,-0.6875,-1,0.75
1480098863898600,-1.1875,-0.9375,0.875
1480098863920659,-0.875,-1.5,1.6875
1480098863937713,-1.625,-1.75,2.0625
1480098863958354,-1.0625,-2.0625,2.375
1480098863981417,-1,-0.5625,1.1875
1480098863997458,-0.875,-0.9375,2.0625
1480098864018513,0.25,-1.375,2.125
1480098864041089,2.9375,-1.125,1.0625
1480098864057131,1.875,-0.875,0.9375
1480098864078188,0.5625,-1.4375,1.8125
1480098864101291,0.1875,-1.5,2
1480098864117289,1.125,-1.4375,1.0625
1480098864138856,2.5,-1.375,1.0625
1480098864161482,2.5625,-1,1.4375
1480098864179534,1.375,-0.9375,1.5
1480098864198621,2.5625,-0.5,1
1480098864221647,4.25,0.0625,0.375
1480098864239196,3.5625,0,0.5
1480098864261373,1.8125,-0.9375,0.6875
1480098864281445,0.4375,-1.8125,0.4375
1480098864299516,0.25,-1.4375,0.375
1480098864318527,1.0625,-0.625,0.5
1480098864344609,0.1875,-0.25,0.375
1480098864358654,0.25,0.125,0.25
1480098864378701,0.5,-0.125,0.0625
1480098864400766,0.8125,-0.4375,0.75
1480098864418823,1.0625,-0.0625,0.875
1480098864438888,1.3125,0.3125,0.625
1480098864461486,0.4375,0.1875,0.6875
1480098864479535,0,-0.3125,1
1480098864498586,-0.5,-0.4375,1.125
1480098864520668,-0.0625,0.3125,0.625
1480098864539197,0.1875,0.4375,0.3125
1480098864565835,-1,-0.5,0.5
1480098864580873,-1.75,-1.375,1.25
1480098864606899,-2.375,-1.125,1.25
1480098864618943,-2.5625,-0.6875,0.625
1480098864641087,-1.5,-0.375,0.0625
1480098864659095,-0.875,-0.25,-0.125
1480098864679203,-0.3125,0,0.25
1480098864701223,-0.8125,0,0.8125
1480098864719255,-1.6875,0.375,0.6875
1480098864755005,-1.8125,0.375,0.3125
1480098864760988,-0.6875,0.25,0.625
1480098864779033,0.1875,-0.4375,0
1480098864800087,-0.125,-1,0.0625
1480098864821145,-0.5625,-0.9375,-0.1875
1480098864839200,-0.25,-0.25,-0.375
1480098864861264,-1.1875,0.0625,0.0625
1480098864881317,-2.4375,0.125,0.9375
1480098864903401,-1.5,-0.3125,1
1480098864920420,0.375,-0.375,0.6875
1480098864941597,1.5,0,0.25
1480098864963679,-0.5625,-0.25,0.4375
1480098864979733,-0.625,-0.5,0.3125
1480098865000743,-0.125,-0.4375,0.4375
1480098865026816,1.5625,0.5625,-0.875
1480098865039952,1.375,0.8125,-0.0625
1480098865060992,-1.25,-0.0625,-0.125
1480098865084053,-1,-0.25,-0.375
1480098865100095,-0.4375,-0.125,0.125
1480098865121176,1.875,0.5,0.125
1480098865143834,2.3125,1.0625,0.1875
1480098865161862,0.0625,0.25,0.25
1480098865180914,-1.625,-0.5,0.3125
1480098865204019,-0.6875,-0.75,0.6875
1480098865221052,0.5625,-0.5625,0.3125
1480098865240762,0.0625,-0.5,-0.4375
1480098865263823,-1.3125,-0.8125,-0.8125
1480098865281860,-2.125,-1.375,-0.3125
1480098865300950,-1.625,-1.8125,-0.0625
1480098865323979,0.375,-0.8125,-0.125
1480098865341022,2,0.0625,-0.0625
1480098865361074,1.4375,0.625,-0.3125
1480098865383135,-0.9375,0.0625,-0.1875
1480098865401181,-1.375,-0.625,0.1875
1480098865424246,0.125,-0.5625,0.625
1480098865450924,1.3125,0.0625,-0.5625
1480098865461919,0.375,0.25,-1.0625
1480098865480992,-0.625,0.3125,-0.8125
1480098865504022,-1.6875,-0.1875,-0.4375
1480098865521067,-0.375,-1,-0.625
1480098865540848,2.0625,-0.9375,-0.3125
1480098865563841,2.3125,-0.1875,-0.75
1480098865581927,-0.375,0.4375,-0.625
1480098865600939,-2.625,0.4375,-0.375
1480098865624018,-2.4375,-0.0625,-0.1875
1480098865641113,-0.5,-0.6875,-0.0625
1480098865661156,0.25,-0.75,0
1480098865683217,0.6875,-0.5,0.1875
1480098865701262,-0.4375,0,-0.0625
1480098865728840,-0.875,0.0625,-0.375
1480098865743285,-0.625,-0.375,0
1480098865761336,-0.3125,-0.3125,-0.25
1480098865782390,-0.9375,-0.375,-0.1875
1480098865803454,-1.4375,-0.5,-0.4375
1480098865821495,-0.875,-0.4375,-0.4375
1480098865842528,0.8125,-0.375,-0.125
1480098865863583,0.4375,-0.25,-0.3125
1480098865881631,-0.75,-0.0625,-0.3125
1480098865902686,-0.3125,0.0625,-0.125
1480098865923783,0.8125,0.3125,-0.125
1480098865941528,0.5625,0.3125,-0.25
1480098865962583,-0.3125,-0.1875,0.3125
1480098865983651,0.6875,0.3125,-0.1875
1480098866001690,0.625,0.875,-0.0625
1480098866023748,0,0.4375,0.5
1480098866043727,-0.5625,-0.1875,-0.1875
1480098866061787,0,-0.4375,-0.375
1480098866083836,0.3125,-0.25,-0.3125
1480098866103923,0.5,-0.3125,0.375
1480098866121973,0.5,0.25,-0.125
1480098866144026,-0.5625,0.75,0.0625
1480098866164096,-1.3125,0.3125,-0.1875
1480098866182131,-0.375,0.0625,0.4375
1480098866204186,1.1875,0.125,0.4375
1480098866223237,0.9375,0.4375,0
1480098866241314,0,0.125,-0.3125
1480098866264360,-1,-0.5,-0.8125
1480098866285414,-0.0625,-0.9375,-0.3125
1480098866301456,0.6875,-0.375,-0.5625
1480098866323517,0.6875,0.125,-0.625
1480098866343195,0.625,0.125,-0.75
1480098866366259,0.125,-0.5625,-0.625
1480098866391322,-0.5625,-0.75,-0.4375
1480098866403352,-0.0625,-0.125,-1.25
1480098866426465,-0.125,0.875,-1.0625
1480098866444541,0.625,1.25,-0.9375
1480098866465536,-0.4375,0.25,-0.5
1480098866486582,-0.0625,0.3125,-1.0625
1480098866503627,1.625,0.5625,-0.75
1480098866523714,0.5,0.1875,-0.4375
1480098866546288,-0.25,0.625,-0.8125
1480098866564337,-1.4375,0.5625,-0.75
1480098866583407,-1.375,0.5,-1.25
1480098866606458,-0.625,-0.0625,-0.9375
1480098866624541,0.4375,-0.5,-0.25
1480098866643647,0.75,-0.625,-0.3125
1480098866665716,0.8125,-0.9375,0.0625
1480098866683749,1.625,-0.875,0.4375
1480098866704821,1.9375,-0.375,0.0625
1480098866726368,1.375,-0.375,-0.1875
1480098866743942,0.125,-0.9375,-0.375
1480098866764998,0.6875,-0.9375,-0.25
1480098866786054,0.375,-0.4375,-0.75
1480098866811138,-1.0625,-1.125,-1
1480098866825158,-0.0625,-1.4375,-0.5625
1480098866846017,-0.3125,-0.9375,-0.8125
1480098866864032,-1.25,-0.4375,-0.75
1480098866885089,-1.375,-0.125,-0.5625
1480098866906145,0.25,0.3125,0.5625
1480098866924193,1.0625,0.75,0.6875
1480098866944922,0.375,0.6875,0.4375
1480098866966022,0.0625,0.9375,0.5
1480098866984024,0.3125,1.125,0.25
1480098867005080,0.375,0.375,0.125
1480098867026144,0.75,-0.1875,0
1480098867044200,-0.0625,-1.375,0
1480098867066257,-0.5,-1.9375,0.5
1480098867086308,-0.1875,-1.5,0.8125
1480098867104358,0.25,-0.75,0.125
1480098867126920,0.625,-0.4375,-0.4375
1480098867146215,1.5,0.0625,0.125
1480098867164217,-0.0625,0.25,-0.125
1480098867186274,-0.125,0.3125,0.25
1480098867206362,0.5,-0.3125,0.1875
1480098867224376,-0.1875,-0.875,0.3125
1480098867246481,0.375,-0.6875,0.625
1480098867266552,-0.625,-1.25,1.5
1480098867283579,0,-0.9375,0.6875
1480098867306641,0.875,0.25,0.5625
1480098867326202,1,0.1875,-0.125
1480098867343750,0.6875,-0.3125,-0.375
1480098867373831,2.1875,-0.9375,0.625
1480098867385863,1.0625,-1.0625,0.375
1480098867403910,-0.0625,-0.75,0.4375
1480098867427473,1.9375,0.5,-0.125
1480098867445781,1.5,0,-0.125
1480098867463831,0.5,-0.1875,-0.6875
1480098867486890,0.1875,-0.75,-0.375
1480098867505967,-0.125,-1,-0.5625
1480098867523989,-0.3125,-0.5625,-0.4375
1480098867546739,-0.5,-0.3125,-0.5625
1480098867566775,-0.5,-0.3125,-0.3125
1480098867583831,0.6875,0.125,0
1480098867606882,0.25,0.3125,0
1480098867626520,-0.375,0.0625,0.25
1480098867643708,0.5,0.5625,-0.3125
1480098867666747,0.375,0.3125,-0.0625
1480098867687802,1.4375,0,-0.25
1480098867703845,0.4375,-0.25,0
1480098867726911,-0.0625,-0.8125,-0.25
1480098867747511,0.75,-0.75,-0.375
1480098867764555,0.5625,-1.125,-0.3125
1480098867786612,-0.8125,-1.125,-0.3125
1480098867807670,-1.3125,-0.6875,-0.625
1480098867823714,-0.6875,-0.9375,-0.1875
1480098867846200,-0.4375,-0.75,-0.125
1480098867867234,-0.625,-0.875,0.0625
1480098867888301,0.1875,-0.75,0.5625
1480098867906338,0.25,-0.4375,0.125
1480098867927898,0.5,0,-0.3125
1480098867950066,0.0625,0,-0.125
1480098867966144,-1.25,-0.125,-0.25
1480098867989169,-0.9375,-0.1875,0.0625
1480098868008255,0.375,-0.375,-0.5
1480098868026779,-0.25,-0.3125,-0.625
1480098868049244,-1.1875,-0.75,-0.4375
1480098868068332,-1.3125,-0.75,-0.25
1480098868091361,-0.625,-0.75,-0.1875
1480098868109405,0.375,-0.625,0.125
1480098868128959,0.375,0,0.1875
1480098868146510,-0.625,0.375,0.0625
1480098868168586,-0.6875,0.25,0.125
1480098868188626,0,-0.125,-0.0625
1480098868206679,0.0625,-0.25,-0.25
1480098868229266,-0.125,-0.375,0.25
1480098868248389,-0.9375,-0.25,-0.5625
1480098868266435,-0.9375,-0.1875,-0.6875
1480098868289527,-0.6875,0,-0.625
1480098868308578,-0.75,-0.1875,-0.8125
1480098868326597,-0.6875,-0.1875,-0.3125
1480098868349287,-0.375,0.5625,-0.4375
1480098868368378,-1,0.375,-0.625
1480098868386385,-0.9375,0.1875,-0.125
1480098868409445,-0.25,0.625,0.25
1480098868429022,-0.25,0.5,0.1875
1480098868446551,0.0625,1.125,-0.125
1480098868468609,0.4375,1.3125,-0.9375
1480098868488697,-0.8125,0.4375,-1.0625
1480098868506714,-1,-0.125,0.125
1480098868529274,-0.6875,0.4375,-0.5
1480098868548512,-0.25,0.8125,-1.125
1480098868566522,0.4375,0.25,-1.4375
1480098868589587,-0.6875,-0.5625,-0.875
1480098868609639,-0.875,-1.625,-0.8125
1480098868626684,0,-1.375,-0.3125
1480098868649440,1.9375,0,0
1480098868669519,1.1875,0.6875,-0.25
1480098868686524,0.5,0.625,0.25
1480098868708582,0.25,0.1875,0.1875
1480098868730148,0.0625,0,-0.125
1480098868745286,0.4375,-0.1875,-0.625
1480098868768346,0.4375,-0.6875,-0.8125
1480098868789402,0.25,-1,-0.5625
1480098868805444,0.125,-1.25,0.375
1480098868828507,1.125,-0.9375,0.375
1480098868856600,2.25,-0.4375,0.0625
1480098868865624,1.875,-0.1875,-0.625
1480098868888685,1.375,-0.5,-0.75
1480098868908756,0.5625,-2.0625,-0.1875
1480098868924781,2.0625,-1.9375,0.1875
1480098868948551,2.6875,-1.125,-0.75
1480098868970608,1.6875,-0.75,-0.6875
1480098868991667,1.125,-1.0625,-0.8125
1480098869008712,0.3125,-2.5,0
1480098869030812,-0.3125,-3.125,0.5
1480098869051552,0.875,-2.5625,0.9375
1480098869068571,1.125,-1.5,1.3125
1480098869090620,1.25,-0.1875,1.125
1480098869111736,0.5625,0.0625,0.25
1480098869128238,0.1875,-0.4375,-0.125
1480098869150422,2.6875,-0.875,-0.3125
1480098869165481,3.875,-0.5625,-0.4375
1480098869188523,3.375,0.3125,-0.4375
1480098869210582,3.3125,1.0625,-0.9375
1480098869224619,4.4375,1.625,-1.25
1480098869248341,6.5,2.1875,-2.875
1480098869270398,3.25,2.25,-2.1875
1480098869285439,0.3125,1.6875,0.625
1480098869308501,0,0.9375,1.875
1480098869331089,1.8125,1.75,2.375
1480098869351455,4.375,4.1875,1.4375
1480098869368446,1.875,5.5,-0.375
1480098869390505,0,4.625,1.4375
1480098869411563,0.6875,4.0625,3.5625
1480098869428610,2.75,4.25,4.5
1480098869450548,2.6875,4.125,4.125
1480098869472616,-0.125,3.0625,3
1480098869488650,-3.0625,1.4375,2.625
1480098869510709,-2.3125,0.3125,1.5625
1480098869532268,0,0.375,0.9375
1480098869548396,1.125,-0.5,-0.125
1480098869570452,0.3125,-0.6875,-0.8125
1480098869591509,0.875,-1.25,-0.75
1480098869608555,0.125,-1.3125,-1.0625
1480098869631118,0,-1.125,-1.3125
1480098869652197,-0.5625,-1.6875,-1.3125
1480098869668218,-0.75,-2.375,-1.0625
1480098869690290,-0.5625,-2.3125,-1.6875
1480098869711349,-0.75,-1.5625,-1.8125
1480098869728400,-0.1875,-1.375,-2
1480098869750481,-1.6875,-1.25,-2.0625
1480098869771535,-1.125,-1.5,-1.0625
1480098869788583,-0.625,-0.875,-0.625
1480098869810640,0.0625,-0.5,-0.5
1480098869832241,0.125,-0.1875,0.4375
1480098869848614,-0.6875,-0.375,0
1480098869870672,-0.625,-0.375,0.8125
1480098869893739,0.75,0,1.125
1480098869907775,-0.125,-0.0625,0.6875
1480098869930838,-1.875,-0.0625,0.25
1480098869952898,-3.125,-0.375,-0.0625
1480098869967938,-2.4375,-0.9375,-0.25
1480098869991000,-0.5625,-1.4375,-0.6875
1480098870021080,0.1875,-1.375,-0.8125
1480098870027097,-0.4375,-1.25,-1
1480098870050955,-1.8125,-1.5625,-0.8125
1480098870073025,-0.6875,-1.0625,-0.5
1480098870094069,0.3125,-0.6875,-0.6875
1480098870111118,0.8125,0.3125,-0.75
1480098870133714,1.125,0.5,-1.0625
1480098870147778,-0.1875,0.375,0
1480098870170839,-0.75,0.8125,-0.5625
1480098870193901,-1.25,0.8125,-0.8125
1480098870207938,-1.25,1.4375,-1.0625
1480098870238577,-1.1875,1.8125,-0.5
1480098870253696,-0.5,1.75,0.1875
1480098870267735,-0.5,2,0
1480098870290793,0.8125,1.8125,0.8125
1480098870312853,2.5625,1.9375,1.4375
1480098870327893,3.3125,2.125,1.5
1480098870364088,2.375,2.625,1.5625
1480098870373111,0.8125,2.25,0.625
1480098870394167,-1.0625,1.375,-1.125
1480098870411213,-0.625,0.75,-1.5625
1480098870433298,-1.75,-0.625,-1.875
1480098870454133,-3.1875,-1.1875,-1.6875
1480098870470177,-3,-0.5,-0.625
1480098870493237,0.0625,0.9375,0.3125
1480098870514293,1.9375,2.1875,0.8125
1480098870530858,0.8125,3,-0.125
1480098870553439,-3.3125,1.3125,-0.1875
1480098870574530,-2.5,0.9375,0.5
1480098870590552,-0.375,1.3125,-0.625
1480098870613600,2.4375,2.0625,-1
1480098870634658,1.75,4.4375,-0.6875
1480098870650707,-2.5625,6.0625,-2.5625
1480098870672805,-8.625,5.6875,-2.9375
1480098870693839,-12.4375,3.625,-2.75
1480098870710868,-9.5,2.8125,-3.6875
1480098870733450,-9.1875,-0.25,-4.1875
1480098870754052,-6.9375,-3.3125,-2.5
1480098870771059,-8.3125,-1.25,-2.25
1480098870794129,-6.0625,0.5625,0.0625
1480098870814174,1.125,2.125,1.125
1480098870830721,7.3125,2.5625,1.25
1480098870853073,5.625,-1.4375,1.6875
1480098870876134,4.6875,-1.4375,1.9375
1480098870891196,8.125,0.75,-0.1875
1480098870913234,7.0625,2.0625,-0.9375
1480098870935797,3.9375,3.25,-1.6875
1480098870951223,2.125,3.125,-2.4375
1480098870980335,3.625,-0.125,-0.375
1480098870995348,9.875,-6.4375,0.6875
1480098871010378,11.8125,-11.125,-1.75
1480098871033482,8.1875,-10.9375,-1.125
1480098871056130,7.125,-8.4375,0.6875
1480098871070165,4.3125,-6.9375,-2
1480098871093230,7.75,-5.25,0
1480098871115305,11.875,-5,2.625
1480098871130833,9.125,-6.875,3.125
1480098871153395,8.375,-3.4375,1.5
1480098871175471,8.8125,-0.5,0.0625
1480098871190538,7,-0.25,0
1480098871213556,7.8125,-2.5,1.25
1480098871236119,9.4375,-2.0625,1.0625
1480098871249820,7.875,0.375,-0.3125
1480098871272877,4.375,0.9375,-0.0625
1480098871295943,0.75,0.0625,1.0625
1480098871309976,0.6875,0.375,-0.9375
1480098871333581,2.1875,1.375,-1.6875
1480098871355774,4.5,3.5,-1.5
1480098871376865,2.5625,2.5,-0.9375
1480098871392871,1.3125,-0.1875,0.0625
1480098871415932,1.9375,-0.1875,0
1480098871437026,3.6875,0.5625,0.625
1480098871453615,3.75,-0.25,0
1480098871475674,2.6875,-1.0625,-0.625
1480098871496745,3.75,-1.625,-0.5
1480098871512849,2.75,-0.875,-0.875
1480098871535851,2.125,-0.875,-0.5625
1480098871556480,-0.5,-1.25,-0.5
1480098871573513,-0.9375,-0.75,-0.9375
1480098871595552,-0.5625,-0.4375,-0.5
1480098871616607,-1,-1,0.625
1480098871633661,-3.25,-0.8125,0.625
1480098871655221,-4.9375,-0.125,0.625
1480098871676278,-6.5625,0.375,0.5
1480098871693325,-10.25,1.3125,0.5
1480098871715381,-14.4375,3.5625,0.875
1480098871736955,-18,7.125,1.875
1480098871753031,-21.625,10.0625,2.6875
1480098871776092,-20,7.5,6.625
1480098871798151,-12.8125,7.875,4.5625
1480098871812188,-10.75,5.4375,3.375
1480098871835780,-11.6875,1.4375,6.8125
1480098871857933,1.625,0.625,4.9375
1480098871872973,3.5625,0.875,4.125
1480098871896035,4.4375,1.125,2.3125
1480098871918093,4.0625,-0.125,0.5
1480098871932636,0.5,-3.5,0.6875
1480098871955953,-1.875,-5.5625,2.25
1480098871978013,-2.125,-5.125,4.8125
1480098871992049,-6.0625,-3.0625,3.375
1480098872016143,-8.625,-1.75,3
1480098872038705,-5.75,-2,4.875
1480098872052887,-1,-2.1875,5.0625
1480098872075950,0.8125,-3.125,3.8125
1480098872098006,0.875,-5.5625,4.4375
1480098872112043,2.5625,-9.375,4.5625
1480098872136108,2.875,-9.0625,4.0625
1480098872158171,0.75,-6.6875,0.6875
1480098872172208,-1.5,-2.8125,-1.6875
1480098872195303,-3,-2.25,-1.0625
1480098872218331,0.9375,1.875,-2.75
1480098872232928,1.375,2.75,-3.375
1480098872256049,0.25,3.125,-3.4375
1480098872278110,-3.8125,2.0625,-2.75
1480098872299204,-5.4375,1.5,-2.5625
1480098872315226,-1.25,2.3125,-0.875
1480098872338276,0.5,1.6875,-0.875
1480098872360351,1.3125,0.625,-1.8125
1480098872375376,1.4375,0.5625,-0.9375
1480098872398436,0.3125,-0.25,-0.125
1480098872419496,-1.0625,-0.625,0.125
1480098872436058,-2.25,-0.5,-0.1875
1480098872458266,-0.9375,0.9375,0.0625
1480098872479346,0.375,1.5,-0.4375
1480098872495363,0.5625,2.1875,-1.75
1480098872518424,-1.9375,1.9375,-1.875
1480098872539532,-4.375,2.1875,0.875
1480098872555421,0,3.25,1.3125
1480098872578463,-0.6875,3.75,0.0625
1480098872599514,-2.125,-0.875,0.1875
1480098872615558,-4.1875,-1.5625,1.375
1480098872638622,-0.4375,-0.5,2.75
1480098872659684,3.0625,-0.8125,1.5
1480098872675727,3.1875,-0.6875,1.875
1480098872698791,5.1875,-0.125,1.5625
1480098872718882,2.375,-3.625,0.4375
1480098872735917,1.6875,-4.9375,1.75
1480098872758535,5.25,-5.75,3.25
1480098872780577,7.5625,-5.0625,2.25
1480098872795618,7.4375,-0.3125,-0.75
1480098872817678,1.0625,-0.8125,-4.1875
1480098872840743,0.0625,1.75,-8.0625
1480098872861300,-0.5,1.5,-3.0625
1480098872878345,7.875,4.6875,-0.0625
1480098872900404,6,5.0625,0.6875
1480098872915469,-0.375,3.0625,1.5
1480098872938544,-4,0.9375,2.1875
1480098872960713,-3.5625,-0.375,2.3125
1480098872974776,-2.9375,-2.0625,-0.3125
1480098872997815,-3.3125,-2.625,-1.625
1480098873020874,-4.875,-2.5625,-1.6875
1480098873035449,-2.6875,-1.8125,-1.625
1480098873058568,1.0625,0.125,-0.9375
1480098873080624,3,1,-0.0625
1480098873094712,1,1.125,0.375
1480098873118725,-2.9375,0.375,0.25
1480098873140789,-3.75,0.25,0.5
1480098873155255,-1.75,0.875,0.6875
1480098873178320,-1.25,1.6875,0.625
1480098873200375,-3.125,1.6875,-0.375
1480098873215432,-4.8125,0.9375,-0.8125
1480098873238534,-1.8125,1.3125,-0.8125
1480098873261184,1.0625,1.9375,0.3125
1480098873281223,1.875,3.4375,-0.6875
1480098873298264,1.4375,3.5,-0.625
1480098873320323,0,4.1875,0.125
1480098873341884,0.375,5,-0.375
1480098873361438,-3.375,1.875,-1.875
1480098873380492,-6,0.125,-2.25
1480098873401545,-3.25,-0.25,-2.375
1480098873425608,-0.1875,0.3125,-2.5
1480098873441163,-1.6875,-0.4375,-2
1480098873461279,-3.625,-1.875,-1
1480098873478311,-2.1875,-1.5,-0.75
1480098873500370,-0.125,-0.6875,0.125
1480098873521469,1.0625,-0.3125,0
1480098873539049,0.9375,-0.125,-0.1875
1480098873561163,1.1875,0.5,-1.0625
1480098873582218,0.75,0.6875,-1.5625
1480098873598259,0.375,-0.25,-1.375
1480098873620363,-0.5,0.125,-1.6875
1480098873641879,-0.5,1.0625,-3.125
1480098873658431,0.3125,1.6875,-3.3125
1480098873680489,2.6875,2.875,-2
1480098873703552,0.5625,3.3125,-1.75
1480098873718591,-1.4375,4.3125,-2.4375
1480098873740706,-3.5625,3.0625,-1.8125
1480098873763428,0.8125,2.625,-1.125
1480098873778466,0.6875,1.375,-1.25
1480098873808558,-1,-0.75,-1.5625
1480098873823595,5.125,-1.75,-0.375
1480098873844678,3.5,-2.875,-2.625
1480098873860300,-1.75,-3.9375,-1.0625
1480098873883344,-6.375,-0.25,-1.25
1480098873897380,-7.0625,-1.625,-1.4375
1480098873920443,-1.875,-6.875,0.5625
1480098873943555,6.1875,-13.5,2.0625
1480098873964153,18.5,-15.3125,6.125
1480098873980201,27.875,-8.6875,8.5
1480098874003249,21.75,1.875,3.3125
1480098874024344,11.5,14.5,2.125
1480098874040932,-2.1875,19.375,-3.875
1480098874063041,2.6875,16.25,-1.8125
1480098874084098,3.5625,11.5625,-2.625
1480098874101143,-5.4375,4.625,-2.9375
1480098874123200,-12.875,2.5625,-2.75
1480098874137763,-11.6875,1.9375,-4.75
1480098874160849,-8.5,2.8125,-2.8125
1480098874182906,-13.75,3,-2.25
1480098874203964,-17.0625,4.8125,-1.5625
1480098874221009,-12.4375,8.875,-2.375
1480098874243574,-6.1875,11.1875,-2.125
1480098874264521,-0.0625,7.0625,-1
1480098874280520,0.25,1.1875,-2.6875
1480098874303580,0.875,-5.0625,-2.4375
1480098874324653,6.0625,-10.6875,-1.125
1480098874340695,-12,-14.3125,-3.0625
1480098874363348,-22.1875,-10.4375,-0.3125
1480098874384407,-13.1875,-4.3125,3.8125
1480098874400447,-2.0625,-1.375,2
1480098874423530,-6.8125,-7.125,-2.375
1480098874444600,-8.5,-9.25,-0.625
1480098874460245,7.0625,-3.3125,3.3125
1480098874483303,13.125,2.4375,2.9375
1480098874504408,12.625,4.5,-0.375
1480098874520401,11.0625,2,-1.625
1480098874543509,7.875,-1.6875,0.8125
1480098874563972,1.125,-2.9375,0.8125
1480098874588028,-1.625,-4.3125,-0.25
1480098874603068,0.375,-3.3125,-1.1875
1480098874624161,1.25,-1.9375,-0.0625
1480098874640708,6.25,3.5,-0.3125
1480098874662807,13.0625,15.5,1.5
1480098874685869,12.0625,31,2
1480098874699906,14.6875,42.8125,-7
1480098874722972,10.9375,45.75,-7.5625
1480098874746120,-1.125,39.625,3.1875
1480098874760163,-5.875,28.875,7.875
1480098874783223,-19.4375,14.75,4.375
1480098874805280,-8.4375,5.6875,1.75
1480098874820358,4.8125,-2.6875,-0.75
1480098874843422,2.875,-11.5,-0.125
1480098874865602,-8.5,-20.6875,1.875
1480098874888666,-18.875,-29.375,2.5
1480098874903704,-21.5,-31.9375,3.0625
1480098874925761,-10.4375,-27.4375,2.3125
1480098874946423,-3.0625,-22.625,2.125
1480098874963550,1.3125,-20.5625,3.125
1480098874985607,-0.125,-12.125,2.875
1480098875006663,9.1875,-4.8125,2
1480098875023708,12.5625,0.375,0.25
1480098875045811,13.875,4.5625,-0.125
1480098875060447,9.5,8.5,1.625
1480098875083510,10.875,14.375,0.125
1480098875105566,1.625,15.25,-2.375
1480098875126622,-1.1875,13.5625,0.6875
1480098875143678,-5.0625,9,0.25
1480098875165732,-4.0625,6.1875,-0.5625
1480098875186788,-0.4375,4.9375,-1.25
1480098875202831,-1.8125,4.5625,-2.125
1480098875225892,-5.0625,3.8125,-2.25
1480098875246961,-6.375,2.0625,-0.4375
1480098875263008,-0.25,3.125,0.875
1480098875286074,3.4375,8.5625,-0.75
1480098875307127,7.0625,12.8125,-2.5
1480098875323168,4.3125,14.4375,-0.25
1480098875345747,2.0625,14.5625,0.625
1480098875366978,-2.9375,14.1875,-1
1480098875383005,-2.9375,14.875,-0.8125
1480098875420109,0.375,16.3125,-0.375
1480098875427128,-2.6875,12.9375,0.75
1480098875443674,-6.125,5.125,3.375
1480098875465809,-6.375,-1.5625,5.125
1480098875486865,-1.8125,-5.0625,4.375
1480098875502920,-0.8125,-5.375,4.125
1480098875525985,-3.1875,-5.1875,2.9375
1480098875546588,-7.5625,-5.875,3.375
1480098875562712,-7.0625,-6.5,4.125
1480098875585771,-5.0625,-7.9375,3.5
1480098875607832,-5.3125,-10.625,2.625
1480098875622871,-3.3125,-8.4375,1.6875
1480098875645989,-2.25,-5.0625,1.1875
1480098875668672,-7.5625,-2.625,1.0625
1480098875683712,-6.5625,-7.875,1.0625
1480098875705769,2.3125,-11.375,3.75
1480098875735864,8,-13,-0.125
1480098875748901,1.875,-9.0625,-1.5625
1480098875765946,-4.3125,-7.8125,1.5
1480098875788004,-2.5,-5,1.875
1480098875802080,4.0625,-3.1875,1
1480098875826114,7.25,-5.25,0.6875
1480098875848699,5.125,-8.125,-0.0625
1480098875862746,1.1875,-7.375,0.375
1480098875885795,-1.0625,-5.75,0.5625
1480098875907852,-0.6875,-4.875,1.5625
1480098875922894,0.5625,-4.25,1.625
1480098875945980,-0.5625,-4.375,0.1875
1480098875968583,-0.9375,-2.625,0.4375
1480098875982618,-1.25,-1.5625,0.8125
1480098876005678,-0.75,-1.9375,0.5
1480098876027737,-1.875,-3.125,0.75
1480098876042790,-0.0625,-2.875,0.75
1480098876065483,1,-2.375,0.875
1480098876088540,-1,-4.125,1.3125
1480098876109596,-1.625,-5.125,1.4375
1480098876125638,1.3125,-5.125,0.6875
1480098876148681,4.625,-8.5625,0.4375
1480098876168760,2.375,-12.75,3.75
1480098876185765,7.3125,-12.375,6
1480098876207858,8.3125,-10.4375,5.8125
1480098876228920,7.6875,-8.9375,7.1875
1480098876246435,5.25,-9.25,5.625
1480098876268572,1.875,-7.6875,5.75
1480098876289628,4.9375,-5.125,4.125
1480098876305670,5.5,-3.3125,1.25
1480098876327739,0.8125,-3.875,1.0625
1480098876349397,-1.8125,-4.125,1.6875
1480098876365445,0.8125,-3.3125,0.625
1480098876388539,-1.9375,-3.375,-1.75
1480098876410557,-2.6875,-3.0625,1.25
1480098876425596,-0.6875,-2.125,-0.0625
1480098876448212,-0.1875,-1.625,-0.4375
1480098876469286,5.9375,1.625,-1
1480098876485312,4,2.25,-3.375
1480098876508372,-3.8125,0.8125,-5
1480098876530935,-4.75,3.0625,-2.3125
1480098876545975,-1.25,5.25,-0.3125
1480098876568673,1.75,5.0625,-0.1875
1480098876590710,1.5625,1.5625,-0.625
1480098876605750,-2.1875,-0.4375,1.5
1480098876627849,-3,-0.4375,0.9375
1480098876650583,-1.6875,0.3125,-0.625
1480098876664619,0.75,0.75,-2.25
1480098876688693,-0.1875,2.6875,-2.6875
1480098876717759,0.8125,6.75,-2.1875
1480098876724779,-0.8125,9.625,-3.625
1480098876747874,1.9375,8.8125,-3.375
1480098876770936,-4.8125,7.3125,-5.125
1480098876784975,-13.3125,8.375,-5.25
1480098876808034,-14.5625,8.375,-5.1875
1480098876831097,-11.3125,7.1875,-6.375
1480098876845137,-6.9375,3,-3.8125
1480098876868040,-7.1875,3.1875,-2.875
1480098876891140,-1.1875,2.125,1.5
1480098876905139,-0.25,-0.25,2.375
1480098876928209,0.125,-0.5,3.0625
1480098876951016,4.75,-0.3125,5.125
1480098876965053,7.5625,-0.9375,4.8125
1480098876988114,3.625,-2.875,3.3125
1480098877011177,4.125,-5.4375,2.9375
1480098877031781,6,-7.625,2.9375
1480098877047832,8.125,-3.5,-0.1875
1480098877070895,5.8125,5.1875,-0.625
1480098877091950,-0.875,10.1875,-1.5625
1480098877107992,-1.625,13.6875,-3.6875
1480098877131055,-2.0625,12,-5.1875
1480098877151792,-3.0625,7,-4.4375
1480098877167795,-0.875,2.375,-2.125
1480098877190856,-0.5625,3.5,-2.5
1480098877211915,-2.25,5.375,-2.375
1480098877227955,-8.375,7.6875,-5
1480098877250671,-16.3125,16.3125,-15.375
1480098877271775,-25.5625,22.3125,-27
1480098877287786,-35.6875,20.625,-33.1875
1480098877310832,-39.8125,10.4375,-21.875
1480098877331959,-27.75,4.875,-7.625
1480098877347605,-1.3125,8.75,-2.125
1480098877370667,14.8125,19.3125,-1.9375
1480098877391724,9,23.4375,0.25
1480098877407767,-2.0625,20.4375,1.875
1480098877430828,-7.0625,15.625,1.625
1480098877451504,-0.25,9.375,2.875
1480098877467473,8.25,3.125,2
1480098877490534,8.0625,-3.1875,-0.5625
1480098877513598,6.5625,-6.125,0.5
1480098877528653,5.375,-7.8125,1.1875
1480098877550362,3.5,-8.875,0.6875
1480098877573422,3.75,-9.125,0.9375
1480098877588462,1.125,-8.4375,1
1480098877610526,-5.0625,-7.5,1.5625
1480098877633600,-6.625,-7.1875,1.5625
1480098877647262,-6.8125,-7.875,0.125
1480098877670332,-4.375,-9.5,-1
1480098877693373,-1.625,-10.5625,-2.3125
1480098877707410,-0.5625,-10.0625,-3.5
1480098877731016,-1.25,-8,-3.5625
1480098877753216,-1.3125,-6.1875,-2.6875
1480098877767252,-2.1875,-4.25,-3.0625
1480098877790327,-2.9375,-2.75,-2.8125
1480098877813375,-1.875,-1.5625,-2.75
1480098877827410,-5.8125,-2.3125,-3.375
1480098877850112,-5.0625,-2.5625,-0.9375
1480098877873173,-5.3125,-3.125,-1.5625
1480098877887211,-4.1875,-4.4375,-0.6875
1480098877911274,-2.625,-4.0625,-1.3125
1480098877933342,-2.4375,-3.875,-0.625
1480098877954406,-2.1875,-2.8125,0.6875
1480098877970445,-3.3125,-1.8125,1.5625
1480098877993508,-4.4375,-1.75,2.125
1480098878014563,-5.375,-1.875,1.5625
1480098878031110,-5.875,-1.875,1.3125
1480098878053265,-7.6875,-2.1875,1.4375
1480098878074323,-8.5,-2.3125,1.4375
1480098878090366,-7.0625,-2.8125,1.125
1480098878113430,-4.9375,-2.8125,0.75
1480098878134515,-2.8125,-2.625,1.375
1480098878150246,-2.25,-2.25,1
1480098878173306,-1,-2.125,1.8125
1480098878194366,1.4375,-1.75,2.4375
1480098878210405,3.3125,-1.1875,3.0625
1480098878233566,1.9375,-0.625,3.375
1480098878254438,-0.25,-0.25,3.5625
1480098878270443,-0.75,-0.3125,3.6875
1480098878293505,-0.75,-1,3.125
1480098878314585,-0.6875,-1.6875,2.5
1480098878330602,0.0625,-2.5625,2.1875
1480098878354301,-0.3125,-3.25,1.125
1480098878374381,0.0625,-3.5,1
1480098878390391,2.0625,-3,0.3125
1480098878413449,1.125,-2.375,0.25
1480098878436085,2.4375,-1.75,0.4375
1480098878450264,0.8125,-0.875,-0.1875
1480098878473326,-0.3125,0.0625,1.25
1480098878495384,-0.6875,1.5625,0.375
1480098878510426,0.8125,1.875,0.9375
1480098878533531,2.3125,3.0625,0.875
1480098878555207,1.5,2.4375,1.25
1480098878570284,1.9375,3.25,0.3125
1480098878593309,3.5625,3.125,0.5
1480098878615367,4.75,3.125,0.1875
1480098878630407,5.25,3.0625,0.5625
1480098878653077,4.4375,3.0625,0.625
1480098878676139,3.9375,3.5625,0.6875
1480098878690177,4.0625,4.125,1.1875
1480098878713237,3.375,4.3125,1.1875
1480098878735850,2.8125,4.6875,0.9375
1480098878750015,2.875,5.3125,1.625
1480098878773076,3.8125,5.75,1.5
1480098878796138,2.9375,5.875,1.25
1480098878810176,1.75,5.125,0.1875
1480098878833265,0.875,4.1875,-0.5
1480098878855914,0.375,4.3125,-0.125
1480098878877971,0.125,4.4375,-1
1480098878893012,-0.5,3.4375,-2.125
1480098878916091,-1.4375,2.5,-2.3125
1480098878937167,-2.0625,1.9375,-1.875
1480098878952856,-2,1.4375,-1.125
1480098878975914,-1.3125,1.6875,-0.9375
1480098878996975,-0.5625,3.3125,0.375
1480098879013013,-2.4375,4.3125,1.6875
1480098879036102,-2.875,5,1.5
1480098879056768,-3.875,5.0625,1.3125
1480098879072799,-3.3125,4.6875,1.75
1480098879095860,-2.5625,4.3125,1.25
1480098879116918,-3.5625,4.3125,1.1875
1480098879133463,-3.375,5.1875,1.125
1480098879155819,0.375,5.5625,1
1480098879176875,3.5625,5.6875,-0.875
1480098879192917,4.5,5.8125,-0.0625
1480098879215978,3.6875,4.8125,2.3125
1480098879237082,1.0625,4.4375,3.1875
1480098879252714,1.5625,4.3125,3.4375
1480098879275729,5.875,5.75,3.625
1480098879296831,6.5,6.6875,4
1480098879312828,2.9375,6.5,3.8125
1480098879335895,0.75,5.875,2.9375
1480098879356661,0.8125,5.1875,3.6875
1480098879373703,1.5625,4.9375,4.125
1480098879402778,1,4.25,2.8125
1480098879417810,3.8125,4.0625,2.4375
1480098879433367,3.875,3.6875,2.625
1480098879455932,1.4375,2.9375,2.9375
1480098879482001,-0.9375,2.5,2.1875
1480098879493032,-0.125,1.9375,1.6875
1480098879516133,2.125,1.6875,1.5625
1480098879538656,3.375,1.5625,1.625
1480098879552798,3.0625,1.25,1.8125
1480098879575860,2.5625,0.875,2.25
1480098879597918,2.875,0.375,3.1875
1480098879618974,4.125,0.1875,3.5625
1480098879636027,4.125,0.1875,4.125
1480098879658594,4.25,-0.1875,4.125
1480098879672626,5.125,-1.25,5.0625
1480098879695687,5.9375,-2.125,6.1875
1480098879717814,6.25,-2.0625,7.0625
1480098879732823,6.75,-2.1875,7.625
1480098879755708,7.8125,-1.5,6
1480098879777800,11.25,-0.5625,6.1875
1480098879792807,10.4375,-0.0625,5.375
1480098879815868,6.1875,-1.25,4.4375
1480098879838443,4.1875,-2.5,3.3125
1480098879851970,4.5,-4.1875,3.4375
1480098879876038,6.0625,-7.0625,1.9375
1480098879898089,3.75,-6.5,1.5625
1480098879919179,0.9375,-4.625,2.9375
1480098879935695,-1,-4.5,0.875
1480098879958207,2.0625,-3.375,1.6875
1480098879979269,5.125,-2.125,3
1480098879995307,6.5,-2,3.9375
1480098880018367,6.1875,-3.75,3.75
1480098880039440,4.5625,-6.125,4.125
1480098880055147,-0.375,-8.875,4.75
1480098880078207,-1.1875,-9.75,7.8125
1480098880099264,2.6875,-8.9375,7.375
1480098880115307,3.75,-7.625,5
1480098880138391,5.875,-8.125,5.875
1480098880159202,8.1875,-9.125,6.4375
1480098880175280,9.3125,-10.8125,6.125
1480098880198311,7,-10.75,4.125
1480098880219398,6.5,-9.25,5.3125
1480098880235908,7.875,-7.375,6.4375
1480098880258046,7.5625,-5.6875,6.1875
1480098880279103,4.9375,-5.4375,6
1480098880295194,2.9375,-6.25,4.8125
1480098880325225,6.5625,-5.5625,5.3125
1480098880340815,8.6875,-4.625,6.0625
1480098880354867,8.5625,-4.375,7.0625
1480098880377929,6.25,-5.8125,6.75
1480098880400997,7.4375,-5.4375,5.6875
1480098880416082,9.375,-5.4375,5.0625
1480098880438613,9.1875,-5.6875,5.3125
1480098880461240,7.125,-6.5625,4.75
1480098880475277,5.1875,-7.375,4.8125
1480098880498340,5.3125,-6.625,4.3125
1480098880520418,7.5625,-4.5625,2.4375
1480098880534937,6.875,-3.9375,2.25
1480098880558067,4.5,-4.25,3.125
1480098880581129,5.5625,-3.875,2.5625
1480098880595166,6.625,-3.5,1.875
1480098880618228,3.75,-3.625,2.1875
1480098880640791,0.9375,-3.5,2.8125
1480098880655432,1.75,-3.875,2.4375
1480098880677498,2.25,-3.375,1.875
1480098880700549,2.8125,-2.25,1
1480098880714606,1.0625,-1.1875,0.625
1480098880739155,0.5625,-1.5,0.9375
1480098880760306,0.3125,-0.875,0.5
1480098880775345,-0.1875,-0.9375,0.6875
1480098880798407,0.375,-1.75,-0.1875
1480098880820465,2.6875,-0.9375,0.875
1480098880842036,1.9375,-0.4375,1.0625
1480098880857684,-0.8125,-0.875,1
1480098880880742,-1.75,-1.25,0.875
1480098880901798,0.5,-1,0.5625
1480098880917840,2.4375,-0.75,-0.25
1480098880940906,1.3125,-1.5,0.0625
1480098880962230,-0.5625,-1.625,0.3125
1480098880978268,0.125,-1.5625,0.3125
1480098881000326,-1.1875,-1.1875,0.125
1480098881021419,-0.25,-0.75,-0.125
1480098881038464,2.0625,-0.5,0.1875
1480098881061132,1.75,-1.4375,0.375
1480098881082163,0.875,-1.1875,0.375
1480098881098201,0.1875,-0.875,0.125
1480098881120262,-0.6875,-0.875,-0.25
1480098881141823,-0.5625,-0.5,-0.4375
1480098881157869,0.75,-0.3125,-0.125
1480098881180947,1.6875,-0.9375,-0.4375
1480098881201986,2.25,-1.25,-0.3125
1480098881218029,1.25,-1.5625,-0.375
1480098881241120,0.6875,-1.375,-0.125
1480098881263179,-0.5,-1.6875,0.3125
1480098881277217,-0.8125,-1.0625,0.0625
1480098881308301,0.6875,-0.375,0.0625
1480098881323339,2.125,-0.9375,-0.1875
1480098881338473,-1,-2.8125,0.25
1480098881360582,-1.4375,-3.875,0.4375
1480098881382684,-0.75,-3.4375,1.0625
1480098881397688,1.25,-0.5625,1.0625
1480098881420744,4.3125,2.0625,-2.375
1480098881443347,4.5,3.4375,-5.5
1480098881457412,7.1875,5.75,-4.9375
1480098881480472,5.875,5.5,-4.1875
1480098881503533,3.25,5.125,-1.1875
1480098881517584,-1,2.125,0.25
1480098881540684,-1.5625,0.125,-0.0625
1480098881563326,0.75,-0.75,0.0625
1480098881577364,2.25,-0.875,-0.1875
1480098881601427,1.25,-1.0625,-0.3125
1480098881623486,-0.6875,-1.125,-0.5625
1480098881637574,0.3125,-0.5625,-1.0625
1480098881660249,-0.25,-0.125,-1.0625
1480098881683309,0.0625,0.1875,-0.4375
1480098881697348,-0.3125,-0.125,0.3125
1480098881720408,0.4375,-0.3125,0.4375
1480098881743473,0.5,-0.375,-0.3125
1480098881771218,0.5,-0.375,-0.5625
1480098881780224,-0.8125,-0.75,-1.3125
1480098881803275,-1.3125,-1.1875,-0.6875
1480098881824331,0.6875,-1,-0.5625
1480098881840877,0.6875,-1.0625,-0.9375
1480098881863016,0.375,-0.75,-1
1480098881884072,-2,-0.1875,-1.25
1480098881901118,-1.75,-0.3125,-0.125
1480098881923176,-1.5625,-0.5,-1.0625
1480098881944277,-1.0625,0,-1
1480098881960862,0.6875,-0.0625,-0.9375
1480098881982920,-0.3125,-0.4375,-0.9375
1480098882003975,-0.6875,-1,-0.9375
1480098882021021,-2.0625,-0.8125,-1.125
1480098882043675,-1.25,-0.4375,-1.3125
1480098882063829,-1.5,-0.6875,-1.5625
1480098882080872,-2.3125,-0.8125,-0.75
1480098882102929,-0.6875,-1.0625,-0.6875
1480098882124002,-0.375,-1.4375,-1
1480098882141074,-1.6875,-1.4375,-1.6875
1480098882162678,-0.9375,-1,-1.8125
1480098882183784,-1.875,-1.75,-1.5
1480098882200779,-3,-1.25,-1.6875
1480098882222840,-2.5,-0.5625,-2.75
1480098882245902,-3.125,-0.25,-2.75
1480098882261039,-3.3125,-0.75,-3.0625
1480098882283096,-1.6875,-1.125,-2.5625
1480098882305172,-1.625,-1.125,-2.4375
1480098882320196,-2.0625,-0.0625,-4.0625
1480098882343267,-2.3125,-0.375,-4.1875
1480098882365962,-2.9375,-0.8125,-2.9375
1480098882379998,-4.1875,-1.125,-3.375
1480098882403059,-5.5,-1.0625,-5.4375
1480098882426121,-4.4375,-3.4375,-7.0625
1480098882440163,-4.4375,-4.4375,-5.5625
1480098882462874,-3.5,-4.4375,-4.1875
1480098882486936,-2.8125,-4.6875,-3.375
1480098882499971,-4.875,-4.6875,-3.875
1480098882523031,-5.8125,-4.9375,-4.125
1480098882546095,-6.1875,-4.125,-2.5
1480098882559726,-3.0625,-3.625,-1.5625
1480098882582788,-2.625,-2.625,-1.9375
1480098882605852,-2.4375,-1.6875,-2.875
1480098882619885,-3.375,-1.6875,-1.625
1480098882643488,-3.25,-1.25,-0.875
1480098882665075,-3.5625,-1,-1.875
1480098882680114,-3.5,-0.4375,-1.9375
1480098882703174,-2.5625,0.0625,-1.875
1480098882725244,-3.4375,0.5,-2.75
1480098882746848,-3.875,0.6875,-2.5625
1480098882762895,-3.875,0.125,-2
1480098882785957,-7.1875,1.0625,-3.375
1480098882807012,-7.375,0.1875,-5.3125
1480098882823055,-5.25,-1.8125,-6.0625
1480098882846121,-3.75,-2.5625,-6.75
1480098882866231,-2.375,-2.1875,-6.0625
1480098882883275,-2.5625,-1.6875,-7.0625
1480098882905336,-5.8125,-3.6875,-5.5625
1480098882934431,-7.875,-4.875,-5.4375
1480098882943450,-3.0625,-4.875,-4
1480098882965256,-0.875,-4.8125,-2.4375
1480098882986296,2.75,-5.5625,-2.9375
1480098883003341,1.875,-6.6875,-2.5625
1480098883025400,1.5625,-6.625,-1.8125
1480098883031416,-2.375,-7.5625,-2.4375
1480098883053128,-6.25,-7.1875,-4.25
1480098883068230,-2.8125,-5.5,-4
1480098883091228,-1,-3.9375,-3.8125
1480098883113325,-4.875,-4.125,-3.9375
1480098883128327,-6.5,-4.0625,-3.5
1480098883151414,-4.0625,-4.125,-3.4375
1480098883182477,1,-3.5625,-2.9375
1480098883188494,0.75,-5.9375,-2.9375
1480098883210587,-0.25,-7.25,-1.25
1480098883233683,-1.8125,-7.375,-1.875
1480098883248236,-0.3125,-5.6875,-3.125
1480098883271351,2.8125,-4,-4.0625
1480098883293437,0.8125,-3.5,-2.8125
1480098883308493,-2,-4.125,-2.5625
1480098883331506,-2.4375,-3.875,-3.0625
1480098883353612,0.125,-2.375,-3.625
1480098883368662,1.5,-1.375,-3.875
1480098883390737,-1.25,-0.5,-3.6875
1480098883413772,-0.875,-0.1875,-4
1480098883428811,1.25,-1.0625,-4.1875
1480098883451078,2.875,-2.4375,-2.625
1480098883473172,1.625,-3.5,-2.1875
1480098883490163,0.875,-4.5625,-1.125
1480098883511219,1.625,-5.125,-0.75
1480098883533826,1.875,-5,-1.125
1480098883550364,2.5,-4.6875,-1.0625
1480098883571398,-0.75,-5.375,-0.9375
1480098883593489,-2.125,-4.375,-1.5
1480098883609491,1.875,-2.25,-1.6875
1480098883630545,1.125,-1.3125,-3.1875
1480098883653646,2.5,-0.5,-4.6875
1480098883669655,0,-0.125,-5.75
1480098883690712,-0.0625,0.3125,-4.1875
1480098883714776,2.125,-0.8125,-2.8125
1480098883729815,-0.75,-2.875,-0.6875
1480098883751454,-2.9375,-2.9375,-0.5
1480098883773481,0.125,-1.125,-1.4375
1480098883789544,1.9375,-0.9375,-0.375
1480098883810586,0.375,-1.75,-0.125
1480098883833688,1.0625,-1,-1.5
1480098883849875,3.8125,0,-0.875
1480098883870938,3.5625,0.25,1.375
1480098883893005,0.4375,0.4375,1.5
1480098883910035,1.3125,0.9375,-0.6875
1480098883931135,4.6875,0.5,0.1875
1480098883953763,2.8125,-1,1.5625
1480098883971773,0.9375,-1.5,0.8125
1480098883990825,1.125,-1.0625,-1.0625
1480098884020904,2.25,-0.3125,-2.0625
1480098884030929,0.375,-1.5625,-0.9375
1480098884050623,-1.75,-1.5,-0.1875
1480098884080725,-1.9375,-0.8125,-0.9375
1480098884095793,-0.0625,0.6875,-0.8125
1480098884110784,0.5,1.125,-0.125
1480098884133887,-0.0625,0.9375,0.1875
1480098884156453,-0.25,0.375,0.125
1480098884171479,1.6875,0.0625,0.375
1480098884193539,2.4375,0.375,0.75
1480098884215600,0.8125,0.75,1.4375
1480098884230639,-0.5625,0.9375,0.5
1480098884253205,1.625,1.25,0.1875
1480098884276303,2.625,1,1.0625
1480098884291352,0.8125,0.5625,1.5
1480098884313412,-0.5625,-0.125,0.4375
1480098884336443,0.75,0.0625,-0.1875
1480098884350957,2.625,0.0625,0
1480098884373013,1.875,-0.8125,0.5625
1480098884396123,0,-0.75,0.5
1480098884411121,1.1875,0.0625,-0.4375
1480098884433775,1.1875,0.6875,-0.375
1480098884456182,1.375,1,0.25
1480098884471219,0.625,1.5625,1.375
1480098884493290,0.5625,2.875,2.25
1480098884516341,-0.0625,4.3125,3.125
1480098884531381,-0.75,5.8125,2.5
1480098884553457,0.125,4.4375,2.1875
1480098884575499,-0.125,1.5625,3.6875
1480098884590578,1.75,-0.375,2.6875
1480098884616599,3.5625,-1.0625,1.625
1480098884639211,1.3125,-2.0625,1.875
1480098884650889,-1.8125,-1.375,1.5
1480098884673950,-1.25,0,0.9375
1480098884696047,0.4375,1.125,1.25
1480098884712051,-1.8125,1.75,1.5
1480098884733612,-4.375,2.6875,1.75
1480098884755760,-6.125,3.8125,0.5625
1480098884772796,-5.25,4.125,-1.375
1480098884793851,-1.75,3.4375,-2.875
1480098884815912,-2.25,1.9375,-2.625
1480098884832960,-1.8125,1.5625,-3.5625
1480098884853118,2.0625,1.125,-4.4375
1480098884876180,5.625,1.25,-2.75
1480098884892224,6,1.375,0.3125
1480098884916286,6.0625,2.375,0.75
1480098884936385,3.125,2.875,0.8125
1480098884952063,-0.8125,1.9375,0.6875
1480098884973120,-4.5,1.625,1.3125
1480098884996190,-6.9375,0.125,0.25
1480098885018240,-8.5625,-0.9375,-0.625
1480098885033785,-8.9375,-1.8125,-0.375
1480098885055921,-7.0625,-1.625,-1.625
1480098885073971,-7.1875,-1.9375,-1.9375
1480098885093023,-11.1875,-3.4375,-0.0625
1480098885116100,-11.1875,-2.75,-0.5
1480098885134174,-9.1875,-0.625,-1.625
1480098885153914,-7.1875,0.75,-2.1875
1480098885175985,-10.125,1.625,-1.5625
1480098885194023,-10.4375,2.375,-2.25
1480098885213049,-8.9375,2.25,-3.4375
1480098885236115,-7.125,1.6875,-4.3125
1480098885254170,-6.9375,-1.0625,-2.9375
1480098885273217,-5.3125,-2.1875,-1.75
1480098885296318,-2.125,-1.75,-1.6875
1480098885314327,3.5625,-0.875,-3.4375
1480098885333920,4.5625,-0.9375,-4.25
1480098885355664,-0.375,-2.125,-3.625
1480098885373697,-3.25,-2.875,-3
1480098885393751,-4.375,-2.8125,-4.5
1480098885415819,-6.75,-3.5,-5.0625
1480098885433899,-9.1875,-4,-3.25
1480098885453928,-11.5625,-4.9375,-2.875
1480098885475975,-12.0625,-5.375,-4.3125
1480098885494008,-9.25,-5.875,-5.4375
1480098885513111,-6.5,-5.8125,-5.1875
1480098885536146,-4.9375,-6.5,-4
1480098885558791,-3.625,-5.9375,-3.375
1480098885573832,-2.1875,-5.5625,-4
1480098885595926,1.5625,-4.6875,-4.625
1480098885613938,3.1875,-5,-5.625
1480098885633585,1.75,-6,-5.375
1480098885655702,0.5625,-6.6875,-5.375
1480098885678758,0.5,-6.5625,-6.4375
1480098885694772,-0.125,-5.5625,-7.3125
1480098885715819,-2.125,-5,-7.0625
1480098885738901,-5.4375,-4.375,-7.625
1480098885754475,-6.75,-4.375,-8.25
1480098885775541,-3.6875,-3.875,-6
1480098885798622,0.5625,-2.3125,-3.3125
1480098885814625,4.375,0,-2.625
1480098885836212,3.3125,-0.5,-1.5625
1480098885858920,0.25,-2.9375,-1.0625
1480098885874937,0.1875,-4.375,0.0625
1480098885895994,3.75,-4.0625,1.125
1480098885918052,4.6875,-3.3125,1.3125
1480098885935100,3,-2.5,2
1480098885959173,1.9375,-2.125,2.4375
1480098885986246,2.25,-1.4375,2.9375
1480098885995269,1.4375,-0.375,2.5625
1480098886016326,2.3125,0,4.125
1480098886038895,1.1875,-0.5625,4.875
1480098886064414,0.9375,-1.25,4.25
1480098886076462,4.8125,-1.9375,3.1875
1480098886098513,7.375,-1.8125,5.125
1480098886116521,6.0625,-1.375,6.5
1480098886136125,6.8125,0.8125,5.3125
1480098886158286,6.625,2,4.0625
1480098886176286,8.5,2.1875,4.8125
1480098886196341,6.1875,0.8125,6.4375
1480098886218399,2.4375,0.25,7.4375
1480098886236536,2.3125,0.75,7.0625
1480098886256159,2,1.125,7.0625
1480098886278257,1.0625,2.25,7.3125
1480098886296266,-0.1875,2.8125,6.4375
1480098886316356,2,3.9375,4.3125
1480098886338920,1.6875,4.3125,3.875
1480098886356068,3.1875,4.125,4.0625
1480098886376145,1.375,3.5,3.25
1480098886398186,1.5625,4.5,2.75
1480098886416226,2.8125,4.5,2.75
1480098886436291,3.3125,4.25,2.0625
1480098886458345,2.0625,2.5625,2.125
1480098886476393,-1.3125,1.3125,2.25
1480098886496447,-2.3125,1,3.5
1480098886518553,-0.8125,0.25,3.4375
1480098886536556,-1.25,-0.8125,1.75
1480098886555612,-2.125,-2.1875,1.9375
1480098886578728,-1.5625,-1.3125,2.4375
1480098886600761,-0.4375,-0.125,2.1875
1480098886615772,2.9375,1.375,1.625
1480098886638908,4.75,1.8125,1.6875
1480098886655998,3.5,2.0625,1.1875
1480098886679061,1.125,1.6875,1.9375
1480098886698129,3.875,2.8125,0.375
1480098886716157,3.375,3.6875,0.6875
1480098886737748,7.9375,2.125,1.5625
1480098886758968,5.875,1.6875,-0.625
1480098886776014,1.3125,3.6875,-2.125
1480098886797083,-1.4375,5.3125,-2.6875
1480098886820142,-0.1875,5.9375,-2.3125
1480098886836679,-0.5,4.375,-1.3125
1480098886857769,-0.3125,3.125,-0.875
1480098886878823,-0.0625,2.8125,-2.25
1480098886896898,-2.1875,2.3125,-2.25
1480098886916961,-2.25,1,-1
1480098886938503,-0.5,0.0625,-1.375
1480098886956845,-1,-0.9375,-2.25
1480098886978874,-2.3125,-2.3125,-2.5625
1480098887005959,-1.0625,-0.4375,-1.5625
1480098887015973,3.6875,1,-2.125
1480098887039035,3.0625,1.75,-4.5
1480098887058139,0.625,1.1875,-2.6875
1480098887076141,4.6875,1.125,-1.75
1480098887099198,4.5625,-0.375,-1.0625
1480098887118249,3.125,-1.3125,0.625
1480098887141318,1.875,-1.4375,0.3125
1480098887159398,1.9375,-1.625,0.25
1480098887178491,2,-1.4375,0.4375
1480098887201493,-2.1875,-1.375,0
1480098887219541,-3.6875,-1.625,-0.8125
1480098887238642,-4.3125,-2.3125,-3.3125
1480098887261361,-7.75,-3.25,-3.875
1480098887279374,-11.3125,-3.25,-4.6875
1480098887298400,-14.875,-4.1875,-4.0625
1480098887321460,-13.4375,-3.6875,-4.375
1480098887343565,-10,-1.5625,-4.1875
1480098887358500,-5.5625,0.625,-2.25
1480098887380531,-0.0625,1.4375,0
1480098887398578,3.6875,2.625,0.1875
1480098887418645,-2.625,2.125,-1.5625
1480098887441210,-6.3125,0.75,-0.3125
1480098887459301,-6.25,1.6875,0.1875
1480098887478349,0.1875,2.9375,1.875
1480098887501436,4.0625,4.5625,0.9375
1480098887518463,2.8125,5.375,-0.4375
1480098887538511,-2.5,5.25,-0.1875
1480098887561077,-3.125,4.3125,1.5
1480098887579135,-1.25,2.625,1.8125
1480098887600181,1.25,1.6875,1.375
1480098887621267,0.4375,1,1.9375
1480098887639325,-1.9375,-0.1875,3.5625
1480098887661458,-1.5625,-0.6875,4.375
1480098887680509,1.875,-1.125,4.4375
1480098887698555,4.1875,0,3.6875
1480098887720619,-0.875,0.9375,2.3125
1480098887741202,-2.375,1.6875,2.875
1480098887758319,2.625,1.25,4.9375
1480098887780375,10.375,1.25,5.4375
1480098887801436,6.4375,-1.0625,3.6875
1480098887818458,-0.6875,-3.5,6
1480098887840018,4.9375,-4.875,6.5625
1480098887861194,9.375,-6.4375,9
1480098887879197,11.6875,-7.375,8.6875
1480098887906268,-0.3125,-9.125,5.75
1480098887921331,-8,-12,5.375
1480098887938903,-4.375,-10.375,7.1875
1480098887961079,7.5625,-2.8125,3.125
1480098887981171,6.3125,4.0625,-0.25
1480098887999179,4.6875,8.4375,0.25
1480098888026285,6.25,9.875,-0.3125
1480098888041312,6.8125,10.9375,2.125
1480098888058387,4.1875,8.875,1.75
1480098888081446,-0.25,6.0625,3.6875
1480098888100509,0.1875,3.25,4.5
1480098888118557,0.9375,1.875,4.3125
1480098888141611,4.1875,1.75,3.75
1480098888160890,2.75,1.125,4
1480098888178896,0.625,0.875,4.0625
1480098888200954,2.8125,2.125,4.125
1480098888221008,6.875,3.3125,3.875
1480098888242076,6.6875,3.25,5.1875
1480098888261125,4.75,2.5625,5.5625
1480098888281228,3.75,1.625,5.5
1480098888299226,5.9375,1.6875,6.1875
1480098888321285,6.0625,1.6875,5.8125
1480098888341365,4,1.625,5.375
1480098888358985,3.1875,1.375,4.6875
1480098888381046,4.25,0.8125,4.8125
1480098888401099,4.5,0.75,5.375
1480098888419146,4.5625,0.9375,4.875
1480098888441730,5.625,2,5
1480098888461062,5.625,3.25,5.4375
1480098888479070,5.4375,3.5625,5.625
1480098888501127,5.4375,4.1875,5.75
1480098888524190,3.375,4.0625,5.5
1480098888539233,3.1875,4.25,6
1480098888561148,4.5625,5.5,5.5625
1480098888582203,4.75,5.375,5.8125
1480098888603262,5.5,5.1875,6.625
1480098888626368,4.625,5.4375,6.0625
1480098888642886,4.5625,5.6875,4.125
1480098888663098,4.1875,5.9375,3.5625
1480098888681127,5.875,5.3125,4.1875
1480098888702166,5.1875,4.1875,4.9375
1480098888723220,4.25,3.5625,4.4375
1480098888741774,4.25,2.5,4.1875
1480098888762335,3.375,2.8125,3.9375
1480098888783431,4.5,4.125,2.375
1480098888801434,4.3125,4.25,2.75
1480098888822490,4,4.8125,2.3125
1480098888843625,1.5,3.125,1.375
1480098888861195,-1.125,0.75,2.0625
1480098888888269,-2.9375,0.1875,1.5625
1480098888903307,-2.625,0.9375,1
1480098888921357,-4.125,1.75,0.75
1480098888943967,-6.25,1.75,0
1480098888963108,-8.125,1.5,0.375
1480098888981099,-8.375,0.625,0.625
1480098889004164,-7.3125,1.0625,0.4375
1480098889023211,-5.6875,1.875,-0.75
1480098889041783,-5.9375,2.125,-1.0625
1480098889063459,-8.5,1.25,-1.1875
1480098889083512,-8.9375,-0.25,-0.125
1480098889101560,-8.6875,0.4375,-1.4375
1480098889123619,-8.5,-0.125,-1.5
1480098889143724,-9,-0.6875,-2
1480098889161390,-9.3125,-1.125,-2.125
1480098889183453,-6.9375,-0.8125,-2.6875
1480098889203541,-5.625,0.5,-3.25
1480098889221551,-4.0625,1.25,-2.6875
1480098889244149,-4.75,1.3125,-2.625
1480098889270791,-5.625,0.9375,-2.1875
1480098889287784,-5.6875,1,-2.375
1480098889303810,-3.9375,1.25,-1.0625
1480098889323866,-3.5625,1,-0.9375
1480098889341412,-5.4375,1.1875,-0.6875
1480098889363573,-4.0625,1.3125,-1
1480098889383663,-2.3125,1.375,-0.875
1480098889401687,-1.125,1.5,-0.9375
1480098889423734,-3,1.1875,-0.375
1480098889443792,-4.4375,0.0625,0.25
1480098889461849,-3.3125,0,0.375
1480098889483899,-1.75,-0.1875,-0.3125
1480098889503953,-1.375,-0.25,0.25
1480098889520998,-3,-0.3125,-0.0625
1480098889544083,-2.5625,0,0.3125
1480098889565266,-0.625,-0.125,0.25
1480098889581307,0.4375,-0.3125,0.8125
1480098889604372,0.75,-0.5,1
1480098889624425,0.0625,-0.5,1.1875
1480098889641471,0.5625,-0.3125,1.1875
1480098889671101,1,-0.5,1.625
1480098889685155,2.1875,-0.3125,1.375
1480098889701181,1.9375,-0.1875,1.25
1480098889724243,0.1875,0.0625,0.5625
1480098889745319,0.6875,0.4375,0.5625
1480098889760981,1.8125,0.5625,0.4375
1480098889784038,1.375,0.8125,0.75
1480098889805094,-0.4375,0.625,1
1480098889821138,-1.4375,0.3125,0.8125
1480098889844243,-0.875,0.5,0.75
1480098889865890,0.1875,1,0.5625
1480098889886940,-0.9375,1.5,1
1480098889902981,-1.4375,1.625,1.125
1480098889926045,0.4375,1.6875,1.1875
1480098889947105,-0.3125,2,0.4375
1480098889962647,-1.125,1.9375,1.4375
1480098889985709,-0.75,2.0625,1.25
1480098890006768,-2.25,2.1875,0.0625
1480098890022808,-3.375,2,-1.375
1480098890045891,-5.625,-0.1875,-1.9375
1480098890066508,-4.5,-0.375,-0.4375
1480098890082541,-1.125,1.625,0.125
1480098890105603,-1.625,4,0.75
1480098890126684,-3.3125,4.5625,1.25
1480098890143209,-4,4,2.3125
1480098890165374,-0.6875,4.25,3.125
1480098890186485,1,5.1875,3
1480098890203526,0,4.5,2.375
1480098890225535,-0.0625,3.0625,3
1480098890246631,2.375,2.6875,3.4375
1480098890263431,2.375,2.25,3.125
1480098890285486,-1.5,1,3.25
1480098890306544,-3.625,1,4.0625
1480098890322587,0.1875,1.8125,3.3125
1480098890346167,5.25,3.125,3.75
1480098890366275,5.3125,3.5,4.125
1480098890383358,1.5,3.3125,3.25
1480098890405379,1.5625,2.625,2.125
1480098890426477,5.6875,2,1.4375
1480098890443486,7.4375,1.6875,1.125
1480098890465547,5.5,1.5,0.875
1480098890486602,1.9375,1.1875,0.375
1480098890502679,0.5625,1.0625,0.6875
1480098890525707,-0.4375,0.6875,0.75
1480098890546790,-0.375,1.0625,0.75
1480098890562721,-0.4375,1.75,0.5625
1480098890585786,-0.5,1.875,-0.0625
1480098890606841,-3.125,0.9375,0.375
1480098890622879,-2.875,1.25,0.25
1480098890652791,-1.6875,2,-1.125
1480098890673865,-2,2.375,-1.875
1480098890682871,-3.3125,1.8125,-1.75
1480098890705935,-5,0.625,-1.0625
1480098890726990,-3.8125,0.9375,-1.1875
1480098890743538,-1.3125,1.6875,-1.625
1480098890766059,-0.625,1.9375,-1.3125
1480098890788117,-2.125,1.125,-1.4375
1480098890803157,-3.3125,0.1875,-1.4375
1480098890825214,-1.1875,-0.125,-1.625
1480098890848279,0.3125,0,-1.875
1480098890862865,-0.5625,-1.3125,-1.25
1480098890885934,-2,-1.8125,-1.1875
1480098890907987,-2.0625,-1.125,-1.3125
1480098890922023,-0.9375,-0.3125,-1.8125
1480098890945590,-0.4375,0.1875,-1.5
1480098890968158,-1.125,-0.625,-1
1480098890982195,-1.125,-0.8125,-0.8125
1480098891005284,0.25,-0.375,-1.5625
1480098891028317,-0.6875,-0.4375,-2.125
1480098891042887,-2.8125,-1.25,-1.125
1480098891065077,-2.625,-1.75,-0.75
1480098891088109,0.125,-1.4375,-1.25
1480098891102156,0.375,-1.4375,-0.875
1480098891125208,-0.4375,-1.8125,-0.5
1480098891148278,-0.875,-1.6875,-0.125
1480098891161915,0.9375,-1.5,-0.125
1480098891185975,0.6875,-1.1875,-0.6875
1480098891207998,0.3125,-0.9375,-0.75
1480098891222036,0.625,-1,-0.1875
1480098891245636,1.375,-1.1875,0.5
1480098891268233,-0.1875,-0.3125,0.4375
1480098891289290,0.1875,-0.0625,0.6875
1480098891305333,1.6875,1.6875,0.8125
1480098891328394,0.25,1.6875,0.25
1480098891349021,-1.125,1.5,0.75
1480098891365156,-0.125,1.5,0.3125
1480098891388180,1.25,1.25,-0.1875
1480098891409237,0.5,1,-0.3125
1480098891425279,-0.8125,0.3125,-0.1875
1480098891448343,-0.25,0.1875,0
1480098891469406,0.9375,0.625,-0.375
1480098891485461,-0.4375,0.1875,-0.3125
1480098891508512,-1.3125,-0.25,-0.5
1480098891528563,-0.9375,-0.4375,-1.0625
1480098891545618,-0.1875,0.0625,-1.0625
1480098891568213,0.5625,0.125,-1.4375
1480098891589287,0.5,0.625,-1.0625
1480098891605310,-0.9375,0.4375,-1
1480098891634394,-1,0.5625,-1.0625
1480098891649460,0.625,1.5,-2.3125
1480098891665652,1.375,1.875,-2.4375
1480098891687710,1.3125,3,-1.5
1480098891708784,1.0625,2.8125,-1.6875
1480098891725813,-1,3,-1.9375
1480098891748387,0.25,2.8125,-2.3125
1480098891770628,-0.4375,0.9375,-1.5625
1480098891785667,-0.1875,-1.4375,-0.625
1480098891807747,-1.875,-1.375,-1.375
1480098891830787,-1.8125,0.3125,-0.8125
1480098891845829,-2.6875,1,-1.0625
1480098891867533,-1.625,4.5625,-0.9375
1480098891890595,0.375,8.625,-1.375
1480098891904632,-0.0625,10,-1.9375
1480098891927692,-2.0625,9,-1.0625
1480098891950811,-1.8125,7.25,0.0625
1480098891964848,1.25,4.4375,0.9375
1480098891987909,2.25,1.5625,0.5625
1480098892010971,3.4375,0.6875,0.125
1480098892032027,0.4375,0.3125,1.6875
1480098892048071,-1.5625,-0.8125,0.75
1480098892070839,0.6875,-1.375,1.375
1480098892084876,0.9375,-0.875,1.6875
1480098892107938,5.1875,0,2.375
1480098892131002,2.5625,-0.375,1.0625
1480098892145040,-2,-1.5,0.625
1480098892168142,-2.8125,-2.5625,0.125
1480098892190198,-2.125,-3.1875,0.8125
1480098892211292,-0.4375,-3.125,1.8125
1480098892228299,-0.375,-2.375,1.875
1480098892250893,-5.875,-3.3125,0.125
1480098892271958,-0.75,-4.0625,3.5
1480098892287975,-1.75,-4.625,3.5
1480098892318055,-2.625,-4.25,3.625
1480098892332092,-0.25,-2.125,3.875
1480098892348138,1,-1.25,1.5625
1480098892370763,-2.375,-1.1875,0.0625
1480098892391805,-5,-1.25,-0.4375
1480098892407846,-2.4375,-1.125,-1.6875
1480098892430909,-0.625,-0.9375,-0.875
1480098892451622,0.9375,-1.3125,-0.125
1480098892467661,0.8125,-1.9375,0.5
1480098892490722,-0.5625,-2.1875,0.8125
1480098892511825,-0.1875,-1.9375,0.5625
1480098892527820,0.125,-2.375,0
1480098892550919,-0.1875,-2.125,-0.0625
1480098892571942,-0.625,-1.9375,-0.9375
1480098892587985,0.125,-1.6875,-1.0625
1480098892610043,0.5625,-2,-1.25
1480098892631099,0.125,-1.625,-0.75
1480098892648155,0.0625,-1.375,-0.8125
1480098892670215,-0.6875,-0.5,-0.375
1480098892693276,-0.3125,-0.125,0.125
1480098892708317,-0.6875,-0.4375,-0.5
1480098892730378,-2.5,-1.125,-1.125
1480098892753454,-1.8125,-1.375,-1.8125
1480098892768480,-0.75,-0.5625,-1.8125
1480098892790538,0.6875,-0.375,-0.5
1480098892812597,0.3125,-0.4375,-0.5
1480098892827639,-0.4375,-0.1875,-0.25
1480098892850240,0.4375,0.0625,0.125
1480098892873336,1.9375,-0.1875,-0.625
1480098892887372,1.6875,-0.8125,-1.0625
1480098892910436,0.6875,-1.5625,-0.5625
1480098892932501,0.8125,-0.8125,0.125
1480098892947537,2.1875,0,0.3125
1480098892970138,1.75,0.375,0
1480098892993199,-0.0625,0.375,-0.4375
1480098893007237,-0.6875,-0.3125,-0.625
1480098893030299,-0.5625,-0.8125,-0.25
1480098893052924,0,-0.625,-0.4375
1480098893066962,1,-1.375,0.75
1480098893090048,0.75,-1.0625,0.4375
1480098893113084,0.9375,-1,0.6875
1480098893127123,0.875,-0.125,0.8125
1480098893156205,0.1875,0.5625,0.3125
1480098893173253,-0.0625,0.375,0.5625
1480098893194352,0.375,-0.0625,1.3125
1480098893210350,1.625,-0.0625,1.3125
1480098893240954,1.75,-0.125,1.1875
1480098893254246,1.4375,0,0.8125
1480098893278311,1,0.0625,0.6875
1480098893293351,-0.8125,-0.1875,0
1480098893314409,-1.25,-0.4375,-0.6875
1480098893330449,0.5,-0.4375,-0.375
1480098893353148,1.25,-0.9375,-0.125
1480098893374206,0.125,-0.875,0
1480098893390247,0.1875,-0.5,0.4375
1480098893413309,-0.25,0.25,0.25
1480098893434404,-0.375,0.75,0.3125
1480098893450929,-0.3125,0.75,-0.125
1480098893474086,-0.875,0,0.25
1480098893494137,0.5625,0.25,0.5625
1480098893510181,0.125,0.3125,0.4375
1480098893533243,-0.1875,-0.1875,0.5625
1480098893553936,0.4375,-0.125,0.375
1480098893570980,-0.875,-0.875,0.0625
1480098893593037,0,-0.8125,0.5625
1480098893615098,0.4375,-0.0625,-0.5625
1480098893630138,-1.875,0.1875,-0.5625
1480098893653107,-1.375,0.25,-0.25
1480098893675213,-0.75,0.0625,-0.375
1480098893690205,-0.6875,-0.4375,-0.25
1480098893713266,-0.875,-0.5625,0.5
1480098893735838,-0.1875,-0.4375,0.375
1480098893750377,-0.1875,-0.625,0.9375
1480098893773051,0.1875,-0.3125,0.4375
1480098893795121,0.125,0.125,0.0625
1480098893810150,-0.375,0.1875,-0.3125
1480098893833211,-0.6875,-0.25,-0.375
1480098893855897,-0.0625,-0.5,-0.75
1480098893869936,0,-0.8125,-0.375
1480098893892995,-0.4375,-0.4375,-0.1875
1480098893915081,-0.75,-0.4375,-0.3125
1480098893930093,-1.5,-0.0625,0.0625
1480098893952774,-0.75,0.5,0
1480098893975836,0.3125,0.5625,0.375
1480098893989873,-0.1875,0,0.5625
1480098894012934,-0.3125,-0.375,0.25
1480098894036012,0.375,-0.25,0
1480098894050052,0.625,-0.1875,-0.3125
1480098894073178,0.8125,-0.3125,0.0625
1480098894095236,0,-0.5,0.3125
1480098894116294,-0.125,-0.75,0.625
1480098894133340,0,-0.75,0.6875
1480098894155078,0.1875,-0.4375,0.6875
1480098894176102,0.0625,-0.1875,0.4375
1480098894193144,1.125,-0.4375,0.5
1480098894216201,1.1875,-0.9375,0.5
1480098894236826,0.6875,-1.3125,0.125
1480098894261007,0.375,-1.6875,0.25
1480098894275022,0.8125,-1.5,0.25
1480098894297071,0.125,-1.375,-0.125
1480098894313130,-0.375,-0.9375,0.3125
1480098894335676,-0.75,-0.25,-0.4375
1480098894356911,-1.3125,-0.375,-0.5
1480098894372943,-1,-0.5625,-0.6875
1480098894396004,-1.25,-0.75,-0.5625
1480098894416058,-1.125,-0.9375,-0.8125
1480098894433103,0.1875,-1.0625,-0.9375
1480098894455847,1.125,-0.9375,-0.875
1480098894476902,0.1875,-1,-0.25
1480098894500984,-0.4375,-0.75,-0.5
1480098894516043,0.3125,-0.25,-0.375
1480098894536579,-0.1875,0,-0.375
1480098894552710,-0.625,0.125,-0.3125
1480098894575771,-0.875,-0.375,-0.3125
1480098894597829,-0.125,-0.5625,-0.0625
1480098894612870,0.125,-0.5625,-0.3125
1480098894635936,-0.625,-0.0625,0.1875
1480098894658321,-0.6875,0.1875,-0.1875
1480098894673374,-0.625,-0.0625,-0.1875
1480098894695419,-0.25,-0.125,-0.375
1480098894717515,0.1875,-0.125,-1.125
1480098894732518,1,-0.1875,-1.125
1480098894755232,1.125,-0.1875,-0.875
1480098894778306,0.3125,0.1875,-0.6875
1480098894792322,-0.75,0.5,-0.4375
1480098894815377,0.4375,0.8125,-0.375
1480098894838972,-0.125,0.8125,0
1480098894852157,-0.5,0.5625,0.625
1480098894875234,-0.75,0.3125,-0.0625
1480098894898276,-0.75,-0.25,0
1480098894912312,0.0625,-0.3125,-0.0625
1480098894935880,-0.6875,-0.375,-0.25
1480098894958389,-1.3125,-0.4375,-0.1875
1480098894972423,-0.0625,-0.125,-0.125
1480098894995483,-0.75,-0.125,0.375
1480098895017542,-1.8125,-0.25,1.1875
1480098895032615,-0.5625,-0.375,0.8125
1480098895055656,0.4375,-0.5,1.0625
1480098895077715,1.1875,-0.375,1.125
1480098895098810,1.5625,-0.5,0.75
1480098895115817,1.5625,-0.4375,0.875
1480098895138883,2,0.3125,1.375
1480098895158652,2.5625,0.6875,0.5625
1480098895175648,2.5625,0.75,1.0625
1480098895197706,2.8125,0.875,1.125
1480098895218779,1.9375,0.625,0.75
1480098895243387,1.125,0.75,0.5625
1480098895257546,0.25,0.8125,-0.375
1480098895278592,0.25,0.5625,-0.25
1480098895296637,0.4375,0.3125,-0.375
1480098895317692,0.5,-0.1875,-1.125
1480098895339253,0.1875,-0.25,-1.0625
1480098895355375,0.6875,-0.375,-1.25
1480098895378438,-0.1875,-0.5,-1.4375
1480098895406514,-0.875,-0.5625,-1.3125
1480098895415534,-1.8125,-0.75,-1.125
1480098895438108,-2.4375,-0.9375,-0.875
1480098895459345,-1.875,-0.75,-0.6875
1480098895475313,-0.5,-0.625,-0.0625
1480098895498372,-0.5,-0.5625,0.25
1480098895520432,0.375,-0.875,0
1480098895535975,1.0625,-1.25,-0.0625
1480098895558257,1.25,-1.0625,0.125
1480098895580316,1.9375,-0.625,0.5625
1480098895595354,1.8125,-0.5,1.3125
1480098895618433,-0.0625,-0.4375,1.375
1480098895640982,-0.25,-0.1875,1.0625
1480098895662091,0.6875,-0.125,1.5
1480098895678133,0.5625,0.25,1.375
1480098895701196,-0.0625,0.3125,1.1875
1480098895715247,-0.8125,-0.125,0.25
1480098895738333,1.5,-0.3125,-0.6875
1480098895760401,3.25,-1,-1.5625
1480098895774439,0.5,-2.4375,-1.0625
1480098895797500,-0.6875,-3.625,-2.0625
1480098895820561,0.125,-4.0625,-4.6875
1480098895834599,1.25,-4.25,-6
1480098895857766,0.9375,-4.8125,-6.1875
1480098895880816,1.3125,-5,-5.75
1480098895894854,1.9375,-4.4375,-6.0625
1480098895917915,0.9375,-4.375,-6
1480098895940478,-1.8125,-4.3125,-7
1480098895955127,0.875,-3.3125,-7.75
1480098895978168,3.5625,-3.25,-4.875
1480098896000245,3.4375,-2.9375,-3.5625
1480098896021282,2.9375,-2.1875,-2.75
1480098896038367,2.9375,-1.375,-1.5625
1480098896061030,3.9375,-0.75,0.3125
1480098896081119,2.8125,-0.1875,1.6875
1480098896098124,-0.125,-0.1875,1.5
1480098896120183,-0.8125,-0.4375,0.3125
1480098896141747,-1.5,-1.9375,0.8125
1480098896157791,-1.3125,-2.4375,0.8125
1480098896180856,0,-1.9375,-0.5625
1480098896201908,-0.625,-1.4375,-1.5625
1480098896217966,-0.875,-1.125,-2.125
1480098896240516,-0.6875,-0.875,-2.375
1480098896261762,-1.375,-1.0625,-2.1875
1480098896277762,-1.875,-1.375,-2.1875
1480098896300824,-1.9375,-1.5625,-2.0625
1480098896321880,-2.3125,-2,-1.4375
1480098896338442,-3.0625,-2.0625,-1.375
1480098896361003,-3.0625,-1.9375,-1.9375
1480098896381086,-1.3125,-2,-2.6875
1480098896398099,-0.1875,-2.5625,-1.9375
1480098896420160,-0.8125,-3.375,-1.8125
1480098896441765,0.25,-3.125,-2.5625
1480098896458404,2.9375,-2.9375,-2.6875
1480098896480463,4.375,-2.875,-2
1480098896502541,2.5625,-2.875,-1.6875
1480098896517575,1.0625,-1.9375,-2.25
1480098896540630,0.75,-1.5,-2.0625
1480098896563308,0.3125,-1.375,-2.0625
1480098896578357,0.125,-1,-2.5625
1480098896601408,1.375,-0.9375,-1.875
1480098896623473,1.1875,-1.625,-1.5625
1480098896637508,-0.0625,-2.1875,-1.25
1480098896660123,0.1875,-1.25,-1.4375
1480098896683227,0.625,-0.4375,-0.75
1480098896697221,1.1875,-0.4375,0.1875
1480098896720294,0.8125,-0.5,0.1875
1480098896743403,0.625,-0.1875,-0.3125
1480098896757067,1.375,0.0625,-0.875
1480098896780117,1.375,-0.5,-0.125
1480098896803180,1.875,-0.5,0.3125
1480098896817217,2.375,-0.3125,-0.0625
1480098896840783,3.25,-0.1875,-0.5625
1480098896863363,3.125,-0.6875,-0.125
1480098896877384,2.4375,-1.25,0.375
1480098896900445,1.8125,-1.375,0.1875
1480098896923521,1.4375,-1,-0.625
1480098896944578,0.25,-1.75,-0.6875
1480098896960532,-1.125,-2.625,-0.875
1480098896982592,-1.375,-2.625,-1.4375
1480098897003646,-0.3125,-2,-2.6875
1480098897020694,0.25,-2.5625,-2.375
1480098897043255,-0.125,-2.875,-2
1480098897064496,0.3125,-2.125,-2.3125
1480098897087527,1,-1.3125,-2.25
1480098897102566,0.4375,-0.9375,-1.625
1480098897123627,-0.4375,-0.4375,-1.125
1480098897140673,-0.4375,0.4375,-0.625
1480098897162737,0.25,0.375,0.125
1480098897183838,-0.9375,0.0625,1
1480098897200875,-1.75,-0.375,1.1875
1480098897222895,-0.6875,-0.4375,0.875
1480098897244496,-0.4375,-0.6875,0
1480098897260606,-1,-1.6875,-0.375
1480098897282665,-0.625,-2.4375,0.0625
1480098897305726,-0.75,-2.6875,0.1875
1480098897320767,-1.75,-2,0.5625
1480098897343330,-3.6875,-1.125,0.6875
1480098897363940,-4.5,-1.0625,0.5
1480098897380949,-3.75,-1.125,-0.4375
1480098897402994,-2.5625,-0.9375,-0.375
1480098897425065,-1.75,-0.9375,0
1480098897440636,-1.5625,-0.6875,0.4375
1480098897462772,-1.375,-0.1875,0.4375
1480098897485833,-0.6875,0.75,0.5
1480098897500873,0,1.375,1
1480098897522933,-0.375,1.75,1.3125
1480098897546046,-0.75,1.6875,1.5
1480098897559599,-1.1875,2,1.375
1480098897582648,-0.5625,1.9375,2
1480098897605712,-0.125,2,1.9375
1480098897619747,0.3125,1.6875,2
1480098897643320,0.8125,1.4375,1.5
1480098897665418,0.8125,0.8125,1.5
1480098897680461,0.4375,0.375,1.75
1480098897702561,1,0.5,1.5625
1480098897725578,1.375,0.6875,1.5
1480098897740120,0.9375,0.375,1.375
1480098897763377,0,-0.375,1.625
1480098897785414,-0.4375,-0.5625,1.5625
1480098897799452,-0.1875,-0.4375,1.75
1480098897823514,-0.75,-0.6875,1.8125
1480098897845579,-0.75,-0.9375,1.3125
1480098897859622,0.3125,-0.9375,0.9375
1480098897888701,0.0625,-1.375,0.375
1480098897905744,-0.125,-1.75,0.125
1480098897926814,-0.3125,-1.625,-0.25
1480098897943396,-0.5,-1.5625,-0.5
1480098897965626,-1.0625,-1.25,-0.8125
1480098897986726,-1.125,-1.125,-1.0625
1480098898002726,-0.625,-1.0625,-1.0625
1480098898025787,-0.1875,-1.125,-0.9375
1480098898046902,-0.6875,-0.9375,-0.625
1480098898062539,-1,-0.75,-0.3125
1480098898085597,-0.375,-0.5,-0.4375
1480098898106702,0.125,-0.25,-0.4375
1480098898122711,0.125,0.0625,-0.5625
1480098898145804,-0.125,-0.0625,-0.1875
1480098898166471,-0.4375,0.1875,0.375
1480098898182516,-0.375,0.25,0.375
1480098898205577,0.375,0.4375,0.25
1480098898226671,0.125,-0.0625,0.25
1480098898243186,-1.25,-0.5,0.5625
1480098898265260,-1.0625,-0.5,0.8125
1480098898286315,-0.5625,-0.25,-0.125
1480098898303370,-0.625,-0.5,0.375
1480098898325420,-0.9375,-0.9375,0.6875
1480098898346984,-2.1875,-1.5625,0.375
1480098898363030,-1.375,-1.375,0.25
1480098898385093,-0.25,-0.9375,0.375
1480098898408151,-0.0625,-0.625,0.1875
1480098898423190,-0.625,-0.5625,0.4375
1480098898445757,-0.8125,-0.3125,0.6875
1480098898468322,0.9375,0.375,0.5625
1480098898482359,0.5625,0.5625,1.0625
1480098898505420,0,0.4375,0.6875
1480098898527479,0.4375,0.5,0.8125
1480098898542558,1.375,0.9375,0.75
1480098898565226,0.6875,0.875,0.8125
1480098898588288,0.25,0.4375,0.875
1480098898602324,-0.125,0.5,0.75
1480098898625385,0.5625,0.5,0.8125
1480098898648480,0.125,0.5625,0.625
1480098898662114,-0.1875,0.4375,0.25
1480098898685177,0.125,0.5,0.0625
1480098898708237,1.25,0.3125,0.3125
1480098898722275,1.125,-0.25,0.4375
1480098898746351,0.5625,-0.3125,0.4375
1480098898768265,0.0625,-0.3125,0.375
1480098898782301,0.4375,-0.125,-0.4375
1480098898805364,1.0625,-0.5625,-0.5625
1480098898828458,0.5,-0.75,-0.3125
1480098898850487,-0.3125,-0.75,0.0625
1480098898865530,0,-0.6875,-0.25
1480098898887590,0.625,-0.5625,-0.625
1480098898908649,1.1875,-0.4375,-0.0625
1480098898925690,0.5625,-0.625,-0.0625
1480098898948300,-0.5,-0.875,-0.1875
1480098898969485,-0.3125,-0.8125,-1.0625
1480098898985485,1,-0.625,-0.8125
1480098899007593,0.75,-0.625,-0.5
1480098899028601,-0.3125,-0.6875,-0.1875
1480098899045647,0.9375,-0.25,-0.25
1480098899067714,1.1875,0.1875,-0.125
1480098899088788,0.375,0,0.125
1480098899105816,0.125,0.1875,0.25
1480098899127872,0.0625,0.125,0.0625
1480098899149433,1.0625,0.375,0.3125
1480098899165660,0.125,0,0.4375
1480098899187710,-0.4375,-0.0625,0.25
1480098899208768,-0.625,-0.1875,-0.1875
1480098899225812,0.1875,-0.25,-0.125
1480098899248435,0.3125,-0.0625,0
1480098899268617,-0.3125,0.0625,-0.125
1480098899285661,-1.3125,-0.0625,-0.25
1480098899307721,-1,-0.125,-0.375
1480098899330804,-0.5,-0.3125,0
1480098899345826,0.125,-0.1875,0.25
1480098899368441,0.125,0.1875,0.25
1480098899396539,0.125,0.125,0.4375
1480098899405539,0.125,0.1875,0.5
1480098899427622,0.0625,0.25,0.625
1480098899450711,0.0625,0.3125,0.875
1480098899464404,-0.6875,0.3125,0.4375
1480098899487429,-0.6875,0.125,0.25
1480098899510490,-0.75,0,-0.0625
1480098899524528,-0.6875,0.0625,-0.4375
1480098899548100,-0.6875,0,-0.5
1480098899570329,-0.3125,0.0625,-0.0625
1480098899593397,-0.3125,0.0625,-0.1875
1480098899608431,-1.0625,0.6875,-0.375
1480098899630488,-1.25,1.125,-0.125
1480098899645086,-0.4375,1,0.1875
1480098899667681,-1.6875,0,-0.1875
1480098899690718,-0.4375,0.375,-0.625
1480098899704758,-0.75,0.0625,-0.75
1480098899727817,-0.5625,0.4375,-1.25
1480098899750953,-2.1875,0.25,-0.75
1480098899771251,-0.5625,1.25,-0.625
1480098899788292,0.1875,2.625,-0.5625
1480098899810348,-1.4375,4.8125,-1.4375
1480098899831445,-3.125,7.125,-0.4375
1480098899848457,-3.0625,6.1875,0.4375
1480098899870133,-4,5.4375,1.25
1480098899891183,1.0625,5.5625,3.6875
1480098899908229,6.0625,5.1875,3.875
1480098899930288,7.5,4.3125,2.8125
1480098899951881,7.8125,3.3125,3.125
1480098899968029,9.4375,0.125,4.6875
1480098899990103,10.8125,5.4375,5.3125
1480098900012188,6.5,9.5,5.3125
1480098900028186,3.9375,12.125,6.5
1480098900050754,1.875,13.3125,5.75
1480098900073329,2.5,13.4375,5.4375
1480098900088367,3.625,13.6875,4.375
1480098900110423,3,12.0625,3.75
1480098900131512,1.75,10.125,2.875
1480098900148036,1.3125,9.25,2.375
1480098900170832,1.5,8.25,2.9375
1480098900191862,0.625,6.875,3
1480098900207906,-1.125,5.25,3.6875
1480098900229963,-1.5625,3.375,3.0625
1480098900252691,-1.9375,2.9375,2.625
1480098900267741,-4.25,2.3125,2.9375
1480098900290774,-6.1875,1.5625,2.4375
1480098900312856,-5.8125,0.5,1.9375
1480098900341924,-6.25,-0.0625,1.5
1480098900350943,-7.8125,-1.375,1.9375
1480098900372600,-10.3125,-3.25,1.75
1480098900387641,-10.5,-5.125,1.5
1480098900411704,-10.3125,-7.375,1.625
1480098900432760,-9.0625,-10.4375,1.875
1480098900447803,-8.625,-13.9375,2.0625
1480098900470528,-8.75,-17.3125,2.9375
1480098900492638,-7.5625,-18.6875,3.8125
1480098900513643,-6.6875,-20.0625,4
1480098900530688,-4.75,-28.9375,5.5625
1480098900552758,11.25,-27.0625,5.1875
1480098900573845,1.1875,-1.625,-15.875
1480098900590859,-31.6875,11.875,-16.75
1480098900612917,-21.875,14.25,-12.25
1480098900634011,-10.6875,17.6875,-10.375
1480098900650558,-6.3125,10.1875,-5.9375
1480098900672674,-1.8125,1.625,-2.625
1480098900695734,3.1875,-5.0625,2
1480098900710776,4.9375,-7,4.875
1480098900732833,1.875,-4.6875,9.0625
1480098900754569,0.625,-0.125,9.8125
1480098900770611,2.6875,4.25,9.3125
1480098900792669,4.9375,7.8125,8.875
1480098900813725,7.25,11.6875,9.5625
1480098900830790,6.875,14.1875,9.125
1480098900853371,11.5,16,7.1875
1480098900881448,18.0625,15.375,7.5
1480098900890470,23.5625,14.5625,7.875
1480098900920551,21.625,13.375,7.875
1480098900943116,14.875,11.75,5.8125
1480098900956372,9.625,9.3125,5.5625
1480098900972380,7.125,7.0625,4.125
1480098900994455,3.5,4.75,3
1480098901010464,5.1875,2.4375,3
1480098901032525,3.875,0.5,3.625
1480098901054283,3.625,1.4375,4.875
1480098901070324,1.75,1.6875,4.75
1480098901093383,-2.1875,3,4.4375
1480098901114469,-5.125,3.6875,4.5625
1480098901130481,-6.625,4.0625,4.5625
1480098901153128,-5.0625,2.9375,5.375
1480098901174182,-5.1875,3,6.125
1480098901196241,-9.3125,1.9375,5.375
1480098901219303,-7.125,1.875,7
1480098901235883,-3.125,0.5625,6.5625
1480098901256917,-4.625,-1.625,5.3125
1480098901272963,-9.1875,-3.375,7.3125
1480098901295037,5.1875,-2.5,6.4375
1480098901310054,-0.4375,-2.875,4.5625
1480098901333116,-14.875,-5,10.125
1480098901355785,-6.625,0.8125,13.75
1480098901369819,3.5,8.8125,9.625
1480098901392881,-7.0625,11.0625,8.6875
1480098901415942,-13.3125,11.3125,7.0625
1480098901429979,-9.625,11,7
1480098901452560,-12.25,7.875,6.0625
1480098901475624,-10.25,6.5,6
1480098901497685,-4.125,6.3125,4.6875
1480098901512722,2.3125,4.375,3.5625
1480098901535784,2.875,2.625,3.1875
1480098901550342,-2,2.8125,2.625
1480098901573508,-9.5625,2.375,1.9375
1480098901595567,-13.5,-0.0625,2.4375
1480098901609603,-10.4375,-0.9375,1.375
1480098901632663,-6.9375,-1.1875,-0.0625
1480098901655409,-7.8125,-3.75,0.3125
1480098901669448,-9.5,-6.875,0.0625
1480098901692523,-8.8125,-7.8125,0.5
1480098901715571,-9,-7.8125,1.375
1480098901736626,-10.5625,-7.6875,2.375
1480098901754679,-9,-7.9375,2.875
1480098901775736,-7.5,-7.875,3.9375
1480098901796811,-8.1875,-8.1875,3.625
1480098901812834,-8.875,-7.625,2.5
1480098901835895,-11.5,-6.3125,3.625
1480098901856833,-14.375,-5.8125,4.4375
1480098901872876,-16,-5.75,4.625
1480098901894960,-18.0625,-6.375,3.25
1480098901916993,-11.6875,-4.375,1.25
1480098901933036,-11.625,-7.25,-2.5
1480098901955132,-10.0625,-7.5,-2.625
1480098901976205,-4.625,-7.6875,-4.375
1480098901993235,-3.0625,-4.1875,-5.3125
1480098902015290,-5.875,-4.6875,-2.875
1480098902036348,-10.8125,-5.6875,1.1875
1480098902052423,-6.8125,-2.875,2.4375
1480098902075718,0.4375,0,3.875
1480098902096770,3,1.0625,3.0625
1480098902112813,2.25,1,3.5
1480098902141922,1.4375,1.8125,3.6875
1480098902157607,4.5625,5.4375,0.4375
1480098902172648,7.9375,6.875,-1.3125
1480098902195711,12.5,6.75,-0.625
1480098902217781,10.5,6.125,-0.1875
1480098902232808,10.3125,6.875,0.25
1480098902255880,10.25,8,-1.0625
1480098902277936,5.375,10.0625,-2.75
1480098902291972,3.3125,11.5,-2.3125
1480098902315071,5.5625,9.5,-3.5
1480098902338099,-0.5625,8.25,-0.375
1480098902352655,17.0625,8.3125,2.625
1480098902375768,36.625,10.625,2.25
1480098902397808,32.125,14.4375,-2.25
1480098902419870,26.5625,11.0625,-5.875
1480098902435910,12.4375,9.5,0.75
1480098902458507,18.3125,10.75,3.4375
1480098902478560,19.1875,13.8125,0.9375
1480098902495606,33.0625,15.375,-4.25
1480098902517664,31.25,17.1875,-8.1875
1480098902539354,16.5,12.0625,-9.0625
1480098902554974,7.125,10.5,-6.25
1480098902578019,3.3125,9.1875,-7.5
1480098902599075,12.9375,12.75,-9.125
1480098902615140,15.875,14.0625,-5.875
1480098902638231,13.8125,12.9375,-5.125
1480098902658963,6.625,10.6875,-10.75
1480098902675017,-1.125,6,-14.125
1480098902698030,-4.25,2.0625,-14.0625
1480098902719087,0.0625,0.8125,-15.375
1480098902735133,5.9375,-2.75,-14.5625
1480098902757696,4.6875,-11.25,-6.625
1480098902778753,-10.0625,-18.9375,-3.6875
1480098902795814,-27.75,-25.4375,-6.3125
1480098902817859,-34.4375,-33.6875,-10.4375
1480098902839443,-45.5625,-40,-11.8125
1480098902855494,-54.0625,-40.0625,-11.25
1480098902877544,-41.75,-30.4375,-16.5625
1480098902898625,-18.5625,-20.4375,-17.1875
1480098902917652,-1.4375,-18.375,-13.1875
1480098902938212,2.25,-22.9375,-12.0625
1480098902959296,-1.1875,-30.4375,-13.0625
1480098902974372,1.875,-32.9375,-12.9375
1480098902998398,-0.5,-32.8125,-13.75
1480098903019464,1.3125,-37.125,-10.5625
1480098903034503,10.25,-37.5625,-6.25
1480098903058126,15.625,-36.4375,-4.0625
1480098903079182,23.8125,-31,1.75
1480098903095230,31.3125,-23.0625,8.5625
1480098903118287,36.5,-15.4375,12.375
1480098903140865,43.3125,-7.3125,18.125
1480098903155041,45.9375,4.75,20.25
1480098903178080,64.4375,15.8125,31.3125
1480098903200140,71.9375,29.625,38.25
1480098903215183,80.1875,44.875,38.0625
1480098903238241,92.0625,55.5,31.125
1480098903260308,108.438,60.5625,26.4375
1480098903274346,118.438,64.5,19.4375
1480098903298409,130.063,69.375,10.875
1480098903320467,147.25,71.0625,4.6875
1480098903341526,129.563,62.1875,-3.3125
1480098903357686,98.125,55.25,-16.9375
1480098903380759,72,51.875,-24.4375
1480098903401794,46.25,50.8125,-26.375
1480098903425871,48.8125,46.5625,-26.9375
1480098903440398,59.6875,42.875,-35.9375
1480098903461470,6.5,29.8125,-36.1875
1480098903477503,-11.875,12.4375,-25.3125
1480098903500566,7.0625,-2.25,-16.0625
1480098903521663,25,-6.0625,-12.1875
1480098903537663,18,-4.375,-16.625
1480098903560319,4.3125,-0.9375,-18.0625
1480098903581372,1.1875,0.0625,-14
1480098903605438,-1.5625,0.8125,-9.8125
1480098903620476,3.875,4.9375,-14.125
1480098903641635,5.9375,11.625,-13.875
1480098903658199,-4.75,18.75,-11.5
1480098903680259,-7.75,22.0625,-19.0625
1480098903701355,-3.0625,19.5,-21.3125
1480098903718381,0.875,11.9375,-20.625
1480098903740429,1.875,5.1875,-21.25
1480098903761135,2.5,-3.125,-18.125
1480098903778127,3.8125,-11.875,-11.0625
1480098903806202,13.75,-16.3125,-1.875
1480098903821278,24.25,-18.3125,1.125
1480098903838296,20.5,-18,3.625
1480098903859907,10.75,-15.25,1.625
1480098903881978,7,-13.0625,-0.5
1480098903898000,8.4375,-10.625,-1.5
1480098903920058,6.625,-5.6875,-1.4375
1480098903941619,12.125,4.125,-3
1480098903958669,5.6875,11.75,-2.5
1480098903980727,0.625,15.125,-2.9375
1480098904001782,0.375,16.75,0
1480098904017825,-3.1875,16.5625,-3
1480098904040425,1.625,10.75,-6.25
1480098904062985,-1.5625,7.375,-4.1875
1480098904078025,-3.375,6.0625,-4.6875
1480098904100085,-10.4375,6.875,-7.75
1480098904123147,-10.25,11.4375,-11.5625
1480098904138185,-8.8125,7.5,-6.625
1480098904160146,-20.8125,3.5625,-6.5625
1480098904166161,-17.375,1.6875,-4.5
1480098904188220,-5.4375,-1.1875,-2.1875
1480098904205285,-1.875,-7.25,-3.5625
1480098904226321,-4.9375,-17.25,-0.6875
1480098904248427,-3.25,-21.875,0.5625
1480098904271075,0.25,-21.5,-2
1480098904286114,1.5625,-22.125,-7.3125
1480098904308176,-6.6875,-24.5625,-9.625
1480098904326222,-6.5625,-24.3125,-9.4375
1480098904346304,1,-18.375,-9.875
1480098904367967,1.3125,-10,-7.4375
1480098904386015,2.375,-12.8125,-4.5
1480098904406103,-4.6875,-12.375,-5.875
1480098904428137,-7.3125,-10.0625,-7.9375
1480098904446185,12.8125,-6.25,-4.25
1480098904465903,16.25,-8.75,-3.0625
1480098904490982,17.75,-8.8125,-0.5
1480098904511023,24.5625,-7.6875,-1.0625
1480098904526062,18.3125,-5.5,-1.625
1480098904548631,9.75,-5.25,2.375
1480098904578947,13.5,-8.0625,5.8125
1480098904588992,17.6875,-4.1875,5.5625
1480098904608026,10.4375,-3.9375,2.375
1480098904625071,4.3125,-4.0625,1.5
1480098904646178,7.1875,-9.5,4.625
1480098904667851,6.4375,-8.0625,4.625
1480098904684896,6.4375,-4.875,5.1875
1480098904705990,11.0625,-2.125,7.5
1480098904728036,12.6875,1.4375,8.1875
1480098904746598,8.75,4.6875,2.875
1480098904766151,17,-0.375,4.375
1480098904788285,24.875,-6.6875,6.8125
1480098904811283,27.875,-9.8125,10.6875
1480098904826311,30.9375,-8.8125,7
1480098904848395,29.1875,-10.8125,3.75
1480098904873450,20.9375,-15.375,1.625
1480098904885486,21,-21.3125,2.125
1480098904908581,25.375,-26.75,2.6875
1480098904930600,22.4375,-24.3125,0.125
1480098904946145,22.3125,-20.6875,2.75
1480098904968727,6.6875,-14.4375,0.25
1480098904990816,-11.375,-8.5,-3.625
1480098905005828,-13.3125,-9.4375,0.8125
1480098905027866,-7.75,-16.625,-0.625
1480098905050978,-5.875,-15.4375,-0.5
1480098905066109,-1.0625,-7.8125,5.5625
1480098905088193,4,3.3125,12.625
1480098905111228,-4.5,10.3125,7.0625
1480098905125267,-29.5625,15.6875,-0.375
1480098905148835,-43.875,17.3125,-6.3125
1480098905171196,-49.0625,19.8125,-11.6875
1480098905186236,-53.375,22.5,-14.375
1480098905208295,-57.5,29.1875,-16.5625
1480098905230354,-57,31.875,-17.4375
1480098905247416,-63,29,-19.0625
1480098905268071,-64.25,24.5,-22.5625
1480098905291128,-59.625,25.1875,-19.8125
1480098905307171,-54.8125,29.0625,-14
1480098905328227,-52.4375,31.0625,-9.5
1480098905351293,-58.9375,30.5,-10.4375
1480098905367501,-60.5625,27.875,-8.25
1480098905389559,-44.3125,21.625,-6.25
1480098905410616,-28.5,12.3125,-3.5625
1480098905427667,-18.375,8.375,0.125
1480098905448727,-12.25,1.5625,1.3125
1480098905470789,0.9375,-3.125,1.9375
1480098905486839,8.1875,-6.125,0
1480098905507886,12.5625,-6.125,-1.125
1480098905530992,14.1875,-6.125,-5.3125
1480098905546047,8.8125,-5.25,-9.5625
1480098905568132,7.8125,-6.0625,-10.8125
1480098905591201,14.6875,-2.875,-13.0625
1480098905607238,13.1875,0.8125,-17.25
1480098905628293,3.75,6.625,-16.6875
1480098905658445,-0.25,6.0625,-14.1875
1480098905673485,2.4375,7,-12.6875
1480098905688550,3.375,7.875,-12.5625
1480098905710596,1,6.875,-12.5625
1480098905727616,0.5625,6.0625,-11.1875
1480098905748674,2.375,5.25,-8.875
1480098905771272,3.125,6.25,-6.25
1480098905787314,5.0625,6.125,-5.0625
1480098905808369,7.4375,7.375,-2.375
1480098905830481,8,10.1875,1.4375
1480098905847488,6.5,10.3125,3.75
1480098905867959,8.1875,8.5625,4.9375
1480098905890977,4.875,6.0625,7.4375
1480098905907035,1.6875,4.25,8
1480098905928098,-0.0625,1.75,7.3125
1480098905951142,-2.125,-0.625,8
1480098905968220,-2.625,-3.1875,9.5
1480098905988267,-4,-4.25,10.875
1480098906010324,-3.75,-3.6875,13.875
1480098906028352,-2.1875,-2,14.75
1480098906048451,1.5625,2.1875,16.625
1480098906071225,6.1875,4.75,17.375
1480098906093249,8.375,7.6875,18.125
1480098906108282,3.0625,9.75,19.1875
1480098906130341,-2.125,10.625,19.4375
1480098906154910,-6.0625,11.5625,17.8125
1480098906168109,-6.5625,12.125,16.6875
1480098906191206,-4.375,13,13
1480098906213230,-2.5,12.1875,10.5
1480098906228269,-8.6875,9.4375,8
1480098906250840,-14.375,5.9375,5.125
1480098906268986,-14.125,3.1875,1.625
1480098906288037,-12.3125,0.875,-0.875
1480098906311109,-8.3125,-3.375,-0.125
1480098906329157,-3.6875,-6.125,-0.3125
1480098906348765,-1.375,-8.1875,-1
1480098906370964,-1.625,-8.3125,-1.0625
1480098906392986,-2.8125,-7.1875,0.4375
1480098906408030,-2.4375,-6.25,2.4375
1480098906431124,-0.1875,-3.9375,2.375
1480098906454182,0.5625,-1.375,1.5625
1480098906468222,-1.625,0,1.75
1480098906491287,-5.625,0.9375,2.8125
1480098906522394,-6.3125,1.375,2.9375
1480098906528427,-7.0625,1.6875,2.625
1480098906550944,-8.75,1.6875,1.8125
1480098906573710,-7,0.9375,1.625
1480098906591771,-5.625,0.0625,1
1480098906610808,-5.875,-1,-0.1875
1480098906641896,-6.875,-2,-1.0625
1480098906649925,-6.1875,-2.5625,-1.4375
1480098906670660,-7,-2.375,-1.75
1480098906693730,-7.75,-2.0625,-2.6875
1480098906709745,-9.1875,-1.625,-3.1875
1480098906730834,-8,-1.25,-3.375
1480098906753402,-6.875,-1.1875,-3.375
1480098906771433,-7.9375,-0.8125,-2
1480098906790483,-6.6875,1,0.6875
1480098906813548,-6.3125,1.6875,2.25
1480098906829587,-7.5625,2.5625,1
1480098906851214,-5.875,2.6875,-1.75
1480098906873334,-4,1.8125,-3.375
1480098906891386,-4.8125,0.75,-2.5
1480098906910448,-5.5625,0.3125,-0.4375
1480098906941067,-6.5,0.375,0.5625
1480098906951593,-5.5,0.25,0.5625
1480098906970659,-2.5,0,-0.5625
1480098906993738,-0.8125,0,-1.9375
1480098907010814,-0.9375,0.5625,-1.875
1480098907031836,-2.125,0.25,-0.8125
1480098907060500,-5,-0.625,-0.375
1480098907071528,-6.625,-1.4375,0.125
1480098907090581,-5.25,-2.1875,0.4375
1480098907113641,-2.6875,-3.3125,1.5625
1480098907130686,-2.5625,-3.8125,2
1480098907151243,-3.25,-3.6875,2.0625
1480098907176422,-1.75,-4,1.6875
1480098907191462,-1.0625,-4.25,1.6875
1480098907213520,-2.375,-4,2.1875
1480098907233607,-2.875,-3.375,3.125
1480098907251625,-1.6875,-2.3125,2.875
1480098907270677,0.375,-0.9375,1.375
1480098907293739,0.5,0.375,0.6875
1480098907310784,-2.9375,1.3125,1.3125
1480098907330837,-5.625,1.5625,1.75
1480098907355406,-5,1.625,2
1480098907370898,-2.75,1.5,1.9375
1480098907390952,-0.75,2.0625,1.75
1480098907413009,1.0625,2.5,1.3125
1480098907431058,2,1.8125,1.3125
1480098907451119,-0.8125,0.8125,2.5625
1480098907473180,-3.3125,0.0625,3.875
1480098907491227,-2,0.75,3.25
1480098907512285,1.4375,1.1875,2.75
1480098907533340,2.375,1.3125,2.75
1480098907551390,1.0625,2.375,2.3125
1480098907571987,0.4375,2.8125,2.125
1480098907593043,1.5,1.375,2.375
