timestamp,roll,pitch,yaw
1480098842224811,-1.1352,-0.27249,0.827437
1480098842240358,-1.13615,-0.273312,0.827615
1480098842261424,-1.13657,-0.273525,0.828389
1480098842283475,-1.13682,-0.274045,0.829133
1480098842300520,-1.13627,-0.275175,0.829384
1480098842321598,-1.13651,-0.276098,0.829943
1480098842344218,-1.13669,-0.276494,0.830284
1480098842361260,-1.13678,-0.276943,0.830314
1480098842389308,-1.13694,-0.276853,0.83046
1480098842403351,-1.13799,-0.277426,0.830809
1480098842421959,-1.13824,-0.277882,0.831227
1480098842441077,-1.13766,-0.277887,0.831301
1480098842467093,-1.1368,-0.278058,0.831225
1480098842482134,-1.13564,-0.278546,0.830784
1480098842501185,-1.1358,-0.278456,0.83093
1480098842524282,-1.1358,-0.278456,0.83093
1480098842541333,-1.13521,-0.278615,0.830791
1480098842561383,-1.13468,-0.279277,0.830563
1480098842583443,-1.13434,-0.280077,0.830201
1480098842602494,-1.13434,-0.280077,0.830201
1480098842621601,-1.13434,-0.280077,0.830201
1480098842644319,-1.13373,-0.279976,0.829586
1480098842661365,-1.13399,-0.279801,0.828952
1480098842681417,-1.13439,-0.279399,0.828536
1480098842703489,-1.13439,-0.279399,0.828536
1480098842728548,-1.13397,-0.278902,0.828495
1480098842741590,-1.13344,-0.278425,0.828568
1480098842763650,-1.13303,-0.278124,0.828672
1480098842786709,-1.13332,-0.27746,0.829105
1480098842801750,-1.1325,-0.276856,0.828979
1480098842823811,-1.13155,-0.276481,0.828972
1480098842846669,-1.13198,-0.275935,0.829219
1480098842861700,-1.13235,-0.275655,0.82935
1480098842883760,-1.13261,-0.275102,0.829547
1480098842906819,-1.13251,-0.27471,0.8294
1480098842921414,-1.13314,-0.274721,0.82904
1480098842943644,-1.13425,-0.274498,0.829028
1480098842966707,-1.13439,-0.274464,0.829055
1480098842982711,-1.13423,-0.274554,0.828909
1480098843003796,-1.1347,-0.274472,0.829043
1480098843026856,-1.1347,-0.274472,0.829043
1480098843044762,-1.1347,-0.274472,0.829043
1480098843063777,-1.13463,-0.274315,0.829064
1480098843085835,-1.13478,-0.274281,0.829091
1480098843109899,-1.13525,-0.274545,0.829156
1480098843123943,-1.13545,-0.274571,0.829258
1480098843146587,-1.13533,-0.274646,0.829254
1480098843162628,-1.13517,-0.274703,0.829533
1480098843183685,-1.13523,-0.27473,0.830033
1480098843206746,-1.13523,-0.27473,0.830033
1480098843223297,-1.13521,-0.274786,0.829915
1480098843251373,-1.13535,-0.274656,0.830038
1480098843266462,-1.13535,-0.274656,0.830038
1480098843284467,-1.13506,-0.274377,0.830052
1480098843303541,-1.13473,-0.273982,0.83011
1480098843326590,-1.13426,-0.274065,0.829976
1480098843344488,-1.1344,-0.27403,0.830003
1480098843363574,-1.1343,-0.273291,0.829926
1480098843386599,-1.13355,-0.272844,0.829781
1480098843404646,-1.13283,-0.272126,0.829639
1480098843424201,-1.13224,-0.271589,0.829642
1480098843446771,-1.13146,-0.271157,0.829357
1480098843463818,-1.1314,-0.270598,0.829568
1480098843483870,-1.13105,-0.270574,0.829865
1480098843505928,-1.1301,-0.270644,0.829696
1480098843528994,-1.1293,-0.269985,0.829695
1480098843544041,-1.12904,-0.269683,0.829405
1480098843566093,-1.12942,-0.2694,0.829201
1480098843589156,-1.12945,-0.269225,0.829108
1480098843604195,-1.12874,-0.269361,0.829063
1480098843626255,-1.12874,-0.269361,0.829063
1480098843643897,-1.12874,-0.269361,0.829063
1480098843663950,-1.12874,-0.269361,0.829063
1480098843686029,-1.12865,-0.26926,0.828967
1480098843704077,-1.12867,-0.269204,0.829085
1480098843724114,-1.12925,-0.269198,0.829007
1480098843746185,-1.12916,-0.269098,0.82891
1480098843764231,-1.12857,-0.268812,0.828941
1480098843786290,-1.12794,-0.269049,0.828994
1480098843806345,-1.12715,-0.268865,0.828403
1480098843824398,-1.12622,-0.268203,0.827288
1480098843844184,-1.12497,-0.267273,0.825718
1480098843866170,-1.12407,-0.266042,0.82423
1480098843884216,-1.12341,-0.265269,0.823152
1480098843904271,-1.12251,-0.264644,0.822069
1480098843926332,-1.12181,-0.263248,0.820879
1480098843943959,-1.12098,-0.262076,0.819475
1480098843965025,-1.12028,-0.260483,0.81815
1480098843986092,-1.11912,-0.258693,0.817436
1480098844004115,-1.1173,-0.257799,0.817056
1480098844025675,-1.11616,-0.257049,0.817044
1480098844046472,-1.11585,-0.256504,0.817329
1480098844068535,-1.11585,-0.256504,0.817329
1480098844092593,-1.11682,-0.25643,0.817962
1480098844106641,-1.11832,-0.256581,0.818483
1480098844124682,-1.11945,-0.256613,0.819402
1480098844145714,-1.12018,-0.25659,0.820125
1480098844166738,-1.12079,-0.257019,0.820345
1480098844188796,-1.12135,-0.257677,0.820538
1480098844204911,-1.12272,-0.25805,0.820846
1480098844226399,-1.12345,-0.2585,0.820976
1480098844248977,-1.12405,-0.259078,0.820985
1480098844267044,-1.12398,-0.259072,0.820794
1480098844286077,-1.12378,-0.259337,0.82074
1480098844309176,-1.12415,-0.259666,0.821266
1480098844327192,-1.12548,-0.26022,0.822002
1480098844346799,-1.12677,-0.26041,0.823094
1480098844368871,-1.12651,-0.26094,0.824102
1480098844386881,-1.12485,-0.26252,0.825262
1480098844406001,-1.12435,-0.264452,0.82697
1480098844428997,-1.12464,-0.264978,0.828966
1480098844446549,-1.12593,-0.26548,0.830419
1480098844466651,-1.12736,-0.266325,0.831403
1480098844490664,-1.1281,-0.266903,0.832537
1480098844506709,-1.12873,-0.268281,0.833099
1480098844526290,-1.12925,-0.26961,0.833113
1480098844548372,-1.12935,-0.269591,0.832998
1480098844566420,-1.13021,-0.270046,0.832263
1480098844593493,-1.13141,-0.270201,0.831608
1480098844611550,-1.13249,-0.270216,0.830834
1480098844627097,-1.1332,-0.270165,0.83
1480098844646271,-1.13374,-0.270424,0.829472
1480098844669288,-1.13482,-0.270756,0.829056
1480098844686354,-1.13585,-0.27094,0.829111
1480098844706387,-1.13675,-0.27079,0.829235
1480098844728988,-1.13794,-0.270538,0.82984
1480098844747176,-1.13797,-0.270871,0.830248
1480098844766215,-1.13805,-0.271189,0.830797
1480098844789263,-1.1383,-0.271707,0.831542
1480098844806329,-1.13832,-0.272702,0.832239
1480098844826411,-1.13853,-0.273647,0.833106
1480098844848458,-1.13811,-0.274766,0.833693
1480098844866506,-1.13747,-0.275917,0.834061
1480098844887566,-1.13775,-0.276761,0.834433
1480098844916638,-1.13806,-0.277623,0.834521
1480098844934240,-1.13873,-0.278726,0.834769
1480098844947870,-1.13939,-0.279224,0.834608
1480098844968966,-1.13987,-0.279584,0.834581
1480098844986974,-1.14039,-0.279713,0.834578
1480098845008043,-1.14161,-0.279435,0.834882
1480098845029088,-1.14233,-0.279297,0.834932
1480098845046758,-1.14296,-0.279059,0.834883
1480098845067799,-1.14366,-0.278283,0.834947
1480098845088855,-1.14342,-0.278022,0.834674
1480098845113924,-1.14383,-0.277121,0.834537
1480098845127974,-1.14411,-0.275946,0.834462
1480098845150625,-1.14268,-0.275907,0.834006
1480098845166668,-1.14129,-0.277089,0.833636
1480098845187723,-1.14053,-0.27775,0.833613
1480098845208779,-1.14035,-0.277515,0.833842
1480098845226830,-1.14121,-0.277247,0.834014
1480098845248891,-1.1417,-0.276759,0.834334
1480098845268944,-1.14138,-0.276211,0.834602
1480098845294010,-1.14133,-0.275748,0.835049
1480098845309050,-1.14169,-0.276247,0.835684
1480098845330613,-1.14176,-0.276467,0.836332
1480098845346687,-1.142,-0.276097,0.837406
1480098845368748,-1.14122,-0.276239,0.83795
1480098845388800,-1.14043,-0.276286,0.83859
1480098845406847,-1.14,-0.276453,0.838838
1480098845429429,-1.14,-0.276453,0.838838
1480098845449174,-1.14009,-0.276554,0.838937
1480098845471229,-1.14021,-0.276575,0.838846
1480098845489277,-1.14016,-0.27671,0.838917
1480098845508345,-1.14052,-0.277081,0.838554
1480098845526878,-1.1406,-0.277182,0.838652
1480098845549002,-1.1411,-0.277518,0.838317
1480098845569057,-1.14124,-0.277323,0.837772
1480098845587106,-1.14156,-0.277111,0.837307
1480098845611168,-1.14193,-0.276982,0.836888
1480098845629235,-1.14262,-0.276609,0.836767
1480098845650916,-1.14262,-0.276295,0.836408
1480098845668964,-1.14264,-0.276239,0.836527
1480098845689016,-1.14259,-0.275428,0.83704
1480098845711076,-1.14285,-0.275035,0.837807
1480098845736705,-1.14293,-0.274907,0.838522
1480098845748756,-1.14288,-0.274541,0.838874
1480098845771797,-1.14244,-0.274765,0.839004
1480098845788844,-1.14266,-0.274733,0.839225
1480098845808905,-1.14266,-0.274733,0.839225
1480098845831460,-1.14275,-0.274834,0.839323
1480098845849141,-1.14274,-0.27489,0.839205
1480098845879219,-1.14282,-0.27499,0.839304
1480098845891273,-1.14282,-0.27499,0.839304
1480098845916316,-1.14373,-0.275182,0.839028
1480098845930383,-1.14422,-0.274978,0.83895
1480098845951442,-1.14471,-0.274836,0.839203
1480098845976507,-1.14518,-0.273959,0.839567
1480098845997565,-1.14568,-0.272906,0.839836
1480098846011626,-1.14609,-0.271817,0.840337
1480098846036174,-1.14602,-0.271062,0.840732
1480098846050374,-1.145,-0.271043,0.84091
1480098846071432,-1.14389,-0.271618,0.840855
1480098846089479,-1.14389,-0.271618,0.840855
1480098846110536,-1.1444,-0.271551,0.840704
1480098846131595,-1.14506,-0.271386,0.84025
1480098846149353,-1.14481,-0.27128,0.839764
1480098846171401,-1.14406,-0.271629,0.839385
1480098846191487,-1.14397,-0.271779,0.838978
1480098846209496,-1.14388,-0.271679,0.83888
1480098846232107,-1.14394,-0.271891,0.838741
1480098846251194,-1.14371,-0.271575,0.838588
1480098846275258,-1.1433,-0.271372,0.838596
1480098846291301,-1.1433,-0.271372,0.838596
1480098846311353,-1.14321,-0.271272,0.838498
1480098846329916,-1.14321,-0.271272,0.838498
1480098846351668,-1.14345,-0.271338,0.838624
1480098846371722,-1.1435,-0.270759,0.838715
1480098846388777,-1.14309,-0.270556,0.838724
1480098846411827,-1.14314,-0.270421,0.838653
1480098846431401,-1.14314,-0.270421,0.838653
1480098846448954,-1.143,-0.270456,0.838626
1480098846472015,-1.143,-0.270456,0.838626
1480098846491110,-1.143,-0.270456,0.838626
1480098846509113,-1.14194,-0.270548,0.838568
1480098846532198,-1.14121,-0.270395,0.838471
1480098846551326,-1.14032,-0.270083,0.838202
1480098846569387,-1.14032,-0.270083,0.838202
1480098846591433,-1.14073,-0.269375,0.838211
1480098846611486,-1.14072,-0.268737,0.83823
1480098846629539,-1.14033,-0.268317,0.837787
1480098846651671,-1.13982,-0.26782,0.837554
1480098846671765,-1.13982,-0.26782,0.837554
1480098846688770,-1.13982,-0.26782,0.837554
1480098846711833,-1.13975,-0.267664,0.837575
1480098846731428,-1.13863,-0.267285,0.837183
1480098846749618,-1.1381,-0.266963,0.837045
1480098846771678,-1.13752,-0.266213,0.836931
1480098846792734,-1.13621,-0.266197,0.836394
1480098846808778,-1.13483,-0.265732,0.835831
1480098846839524,-1.13396,-0.264606,0.835496
1480098846852558,-1.13301,-0.262936,0.835233
1480098846869604,-1.13181,-0.261124,0.834918
1480098846891663,-1.12968,-0.25933,0.834563
1480098846912718,-1.12685,-0.257996,0.833794
1480098846929266,-1.12506,-0.256595,0.833386
1480098846951422,-1.12386,-0.25528,0.832803
1480098846972479,-1.12293,-0.254053,0.832393
1480098846989524,-1.12192,-0.252669,0.832009
1480098847011581,-1.12076,-0.251787,0.831738
1480098847033191,-1.11991,-0.251005,0.831354
1480098847049358,-1.11981,-0.250323,0.831171
1480098847071412,-1.11966,-0.250358,0.831145
1480098847092473,-1.11969,-0.250397,0.831169
1480098847109534,-1.11946,-0.250592,0.831519
1480098847132583,-1.11858,-0.25123,0.831593
1480098847154303,-1.11729,-0.251919,0.831708
1480098847173353,-1.11661,-0.252292,0.831835
1480098847191421,-1.1168,-0.252635,0.832285
1480098847214462,-1.11746,-0.252483,0.832605
1480098847234048,-1.11831,-0.252216,0.832763
1480098847252163,-1.1192,-0.251838,0.833161
1480098847274211,-1.11927,-0.251647,0.833211
1480098847294278,-1.11963,-0.252306,0.832877
1480098847311307,-1.12037,-0.252208,0.832937
1480098847334419,-1.1217,-0.252589,0.833097
1480098847354082,-1.12288,-0.252809,0.833091
1480098847372122,-1.12417,-0.253452,0.8328
1480098847394180,-1.1263,-0.253796,0.833097
1480098847414233,-1.12793,-0.254745,0.833289
1480098847431780,-1.12996,-0.255455,0.833635
1480098847454035,-1.13218,-0.256247,0.833964
1480098847474105,-1.13437,-0.257559,0.83432
1480098847492199,-1.13613,-0.258782,0.834457
1480098847514199,-1.137,-0.260037,0.834266
1480098847541006,-1.13784,-0.261372,0.834267
1480098847551997,-1.13898,-0.262333,0.834751
1480098847573104,-1.14051,-0.263206,0.835176
1480098847594163,-1.14157,-0.263907,0.834997
1480098847611155,-1.14243,-0.263826,0.834525
1480098847633719,-1.14324,-0.264073,0.833933
1480098847654082,-1.14393,-0.263986,0.833077
1480098847671127,-1.1445,-0.263371,0.831811
1480098847701220,-1.14411,-0.262286,0.830301
1480098847714241,-1.14321,-0.261264,0.828944
1480098847731299,-1.14192,-0.26023,0.827412
1480098847753923,-1.14034,-0.258915,0.825899
1480098847773971,-1.139,-0.257313,0.824138
1480098847791018,-1.13733,-0.255153,0.821879
1480098847813075,-1.13548,-0.253159,0.819671
1480098847834643,-1.13396,-0.251273,0.817808
1480098847851204,-1.13265,-0.249317,0.816144
1480098847873247,-1.13049,-0.247524,0.814422
1480098847894339,-1.12815,-0.24584,0.812869
1480098847917376,-1.12655,-0.244272,0.812297
1480098847933429,-1.12524,-0.243474,0.812335
1480098847954119,-1.12327,-0.243304,0.811791
1480098847971182,-1.12087,-0.242903,0.811223
1480098847993223,-1.11875,-0.242537,0.810944
1480098848014279,-1.11811,-0.242475,0.810961
1480098848031364,-1.11731,-0.242702,0.810971
1480098848053056,-1.11698,-0.243351,0.811261
1480098848076070,-1.11748,-0.24409,0.81163
1480098848091109,-1.11782,-0.245271,0.812226
1480098848113168,-1.11834,-0.246592,0.812682
1480098848135732,-1.1194,-0.24784,0.813455
1480098848150837,-1.12083,-0.249663,0.81444
1480098848172897,-1.12237,-0.251624,0.815549
1480098848195957,-1.12376,-0.253581,0.816613
1480098848209997,-1.12509,-0.255779,0.818436
1480098848233560,-1.12529,-0.258274,0.820474
1480098848255708,-1.12478,-0.260809,0.822573
1480098848269747,-1.12444,-0.263894,0.824795
1480098848293825,-1.12484,-0.266942,0.826971
1480098848315867,-1.12571,-0.269995,0.828742
1480098848330444,-1.12674,-0.273014,0.830549
1480098848353675,-1.12788,-0.275319,0.832391
1480098848375710,-1.12896,-0.277466,0.834261
1480098848389768,-1.13039,-0.278996,0.835861
1480098848413810,-1.13254,-0.279626,0.837319
1480098848435456,-1.13411,-0.279751,0.838351
1480098848450578,-1.13531,-0.279342,0.839175
1480098848473638,-1.13602,-0.278411,0.839454
1480098848496700,-1.13671,-0.277536,0.839615
1480098848509737,-1.13727,-0.276444,0.83972
1480098848533318,-1.13769,-0.275388,0.839798
1480098848555499,-1.13787,-0.274927,0.839704
1480098848576554,-1.1379,-0.274057,0.839746
1480098848593601,-1.138,-0.273246,0.839863
1480098848615659,-1.13813,-0.272767,0.840054
1480098848637426,-1.1386,-0.271891,0.84042
1480098848653435,-1.13881,-0.271319,0.8409
1480098848675512,-1.13869,-0.271395,0.840896
1480098848696589,-1.13875,-0.27126,0.840825
1480098848713595,-1.13872,-0.270743,0.841392
1480098848735219,-1.13869,-0.270669,0.841796
1480098848756714,-1.13873,-0.270308,0.842343
1480098848773717,-1.13865,-0.270023,0.842886
1480098848795776,-1.13892,-0.270107,0.843063
1480098848816879,-1.13906,-0.270072,0.84309
1480098848833437,-1.13906,-0.270072,0.84309
1480098848856573,-1.13869,-0.270106,0.84327
1480098848876662,-1.13811,-0.270559,0.843183
1480098848893673,-1.1385,-0.271131,0.843413
1480098848915729,-1.13965,-0.271645,0.844073
1480098848937477,-1.1408,-0.272505,0.844666
1480098848960536,-1.14081,-0.273361,0.845105
1480098848975579,-1.14002,-0.273346,0.845078
1480098848996724,-1.13866,-0.27347,0.844605
1480098849013679,-1.13641,-0.274705,0.844349
1480098849036378,-1.13468,-0.27521,0.843987
1480098849058405,-1.13303,-0.275025,0.843957
1480098849073444,-1.13303,-0.275025,0.843957
1480098849103525,-1.13402,-0.274273,0.844318
1480098849118566,-1.13475,-0.274076,0.844483
1480098849146693,-1.13495,-0.274004,0.844681
1480098849156696,-1.13556,-0.273786,0.844937
1480098849178735,-1.13633,-0.273825,0.845271
1480098849192771,-1.13694,-0.273954,0.84546
1480098849215832,-1.13768,-0.273756,0.845625
1480098849238916,-1.13777,-0.273857,0.845723
1480098849252941,-1.13768,-0.273756,0.845625
1480098849276001,-1.13821,-0.273035,0.84597
1480098849298060,-1.13856,-0.27258,0.846263
1480098849313099,-1.13785,-0.272158,0.846168
1480098849335662,-1.13778,-0.272002,0.846188
1480098849358758,-1.1382,-0.272494,0.846229
1480098849372796,-1.13931,-0.272577,0.846574
1480098849395855,-1.13953,-0.272449,0.846891
1480098849418918,-1.13904,-0.272559,0.847066
1480098849432958,-1.13846,-0.27207,0.847426
1480098849456089,-1.13846,-0.27207,0.847426
1480098849478147,-1.13822,-0.271876,0.847824
1480098849499203,-1.13785,-0.271468,0.848168
1480098849516249,-1.13748,-0.271599,0.848252
1480098849538903,-1.13748,-0.271599,0.848252
1480098849558962,-1.1376,-0.271523,0.848256
1480098849575979,-1.13762,-0.271564,0.848279
1480098849600044,-1.13762,-0.271564,0.848279
1480098849619096,-1.13751,-0.271423,0.848157
1480098849635643,-1.13739,-0.271499,0.848153
1480098849658709,-1.13823,-0.271377,0.848107
1480098849679765,-1.13823,-0.271377,0.848107
1480098849695807,-1.13823,-0.271377,0.848107
1480098849718870,-1.13839,-0.271286,0.848253
1480098849739113,-1.13831,-0.271186,0.848155
1480098849756127,-1.13831,-0.271186,0.848155
1480098849778187,-1.13821,-0.270989,0.848152
1480098849799242,-1.13823,-0.27103,0.848175
1480098849816289,-1.13823,-0.27103,0.848175
1480098849838351,-1.13823,-0.27103,0.848175
1480098849859404,-1.13823,-0.27103,0.848175
1480098849875480,-1.13823,-0.27103,0.848175
1480098849898509,-1.13886,-0.271102,0.848482
1480098849919598,-1.13921,-0.271785,0.848475
1480098849936146,-1.13922,-0.272132,0.848407
1480098849958220,-1.13934,-0.272468,0.848676
1480098849981311,-1.13911,-0.272814,0.848814
1480098849995328,-1.13914,-0.272953,0.84908
1480098850024895,-1.13886,-0.273088,0.849358
1480098850041080,-1.13837,-0.273546,0.849466
1480098850056120,-1.13817,-0.273717,0.84951
1480098850078181,-1.13823,-0.273582,0.849438
1480098850101256,-1.13823,-0.273582,0.849438
1480098850115279,-1.13837,-0.273546,0.849466
1480098850138318,-1.13837,-0.273893,0.849398
1480098850160378,-1.13834,-0.274417,0.849425
1480098850175416,-1.13894,-0.2746,0.849495
1480098850198480,-1.13924,-0.275168,0.849533
1480098850221060,-1.13937,-0.275536,0.849374
1480098850235583,-1.13939,-0.27548,0.849493
1480098850258259,-1.13972,-0.275525,0.849505
1480098850281318,-1.1397,-0.275484,0.849482
1480098850295356,-1.13977,-0.275293,0.849529
1480098850325942,-1.13963,-0.275328,0.849501
1480098850341079,-1.13963,-0.275328,0.849501
1480098850355116,-1.13977,-0.275293,0.849529
1480098850378188,-1.13963,-0.275328,0.849501
1480098850401240,-1.13977,-0.275293,0.849529
1480098850415276,-1.13977,-0.275293,0.849529
1480098850438034,-1.13977,-0.275293,0.849529
1480098850461079,-1.13977,-0.275293,0.849529
1480098850482138,-1.13968,-0.275192,0.84943
1480098850498180,-1.13977,-0.275293,0.849529
1480098850521241,-1.13977,-0.275293,0.849529
1480098850541905,-1.13977,-0.275293,0.849529
1480098850558904,-1.13894,-0.275359,0.849692
1480098850580955,-1.1385,-0.275239,0.849892
1480098850602010,-1.1385,-0.275239,0.849892
1480098850618072,-1.1385,-0.275239,0.849892
1480098850641116,-1.13825,-0.274535,0.849782
1480098850662168,-1.138,-0.274275,0.849509
1480098850679230,-1.138,-0.274275,0.849509
1480098850701276,-1.13848,-0.273938,0.849615
1480098850722338,-1.13881,-0.273886,0.849722
1480098850745447,-1.13949,-0.273822,0.849959
1480098850760478,-1.13961,-0.273746,0.849963
1480098850781531,-1.13994,-0.274105,0.850334
1480098850804560,-1.14028,-0.2739,0.850656
1480098850823117,-1.14014,-0.273935,0.850629
1480098850842204,-1.14084,-0.273815,0.850984
1480098850859249,-1.14098,-0.27378,0.851012
1480098850881360,-1.13976,-0.273776,0.850661
1480098850903367,-1.13918,-0.274231,0.850574
1480098850918407,-1.13933,-0.274196,0.850601
1480098850941047,-1.1393,-0.274155,0.850578
1480098850963107,-1.1393,-0.274155,0.850578
1480098850979147,-1.13981,-0.273988,0.850522
1480098851001207,-1.1405,-0.274021,0.850663
1480098851023814,-1.1405,-0.274021,0.850663
1480098851037924,-1.1405,-0.274021,0.850663
1480098851060984,-1.1405,-0.274021,0.850663
1480098851083044,-1.14048,-0.27398,0.85064
1480098851098084,-1.14062,-0.273945,0.850667
1480098851121148,-1.14062,-0.273945,0.850667
1480098851149915,-1.14062,-0.273945,0.850667
1480098851157935,-1.14053,-0.273844,0.850568
1480098851180997,-1.14053,-0.273844,0.850568
1480098851203056,-1.14067,-0.273809,0.850595
1480098851218111,-1.14076,-0.273909,0.850694
1480098851241171,-1.14076,-0.273909,0.850694
1480098851271276,-1.14078,-0.273854,0.850813
1480098851277266,-1.14069,-0.273753,0.850714
1480098851301331,-1.14069,-0.273753,0.850714
1480098851323405,-1.14067,-0.273712,0.850691
1480098851337445,-1.14069,-0.273753,0.850714
1480098851360558,-1.14069,-0.273753,0.850714
1480098851383568,-1.14076,-0.273562,0.850762
1480098851404623,-1.14074,-0.273521,0.850738
1480098851421208,-1.14074,-0.273521,0.850738
1480098851443322,-1.14074,-0.273521,0.850738
1480098851464370,-1.14074,-0.273521,0.850738
1480098851480411,-1.14088,-0.273486,0.850766
1480098851503474,-1.14088,-0.273486,0.850766
1480098851524537,-1.14088,-0.273486,0.850766
1480098851547130,-1.14088,-0.273486,0.850766
1480098851563172,-1.14086,-0.273445,0.850742
1480098851584237,-1.14088,-0.273486,0.850766
1480098851601273,-1.14086,-0.273445,0.850742
1480098851623376,-1.14086,-0.273445,0.850742
1480098851644763,-1.141,-0.27341,0.85077
1480098851660767,-1.141,-0.27341,0.85077
1480098851683850,-1.14109,-0.27351,0.850868
1480098851703882,-1.14109,-0.27351,0.850868
1480098851720927,-1.14121,-0.273433,0.850872
1480098851743558,-1.14121,-0.273433,0.850872
1480098851764649,-1.14121,-0.273433,0.850872
1480098851780658,-1.14121,-0.273433,0.850872
1480098851803738,-1.14121,-0.273433,0.850872
1480098851824787,-1.14186,-0.273134,0.850939
1480098851840832,-1.14186,-0.273134,0.850939
1480098851862902,-1.14186,-0.273134,0.850939
1480098851885952,-1.14186,-0.273134,0.850939
1480098851900992,-1.14178,-0.272978,0.850959
1480098851931073,-1.14135,-0.272954,0.851063
1480098851945645,-1.14101,-0.271966,0.851497
1480098851960681,-1.14054,-0.271707,0.851431
1480098851983746,-1.14018,-0.271057,0.851008
1480098852005801,-1.13917,-0.269406,0.850246
1480098852026934,-1.13715,-0.269669,0.849137
1480098852043509,-1.13579,-0.270111,0.849027
1480098852066569,-1.13388,-0.270735,0.848832
1480098852080608,-1.13316,-0.271541,0.849078
1480098852103692,-1.13129,-0.271391,0.848833
1480098852126272,-1.13037,-0.27129,0.848232
1480098852139847,-1.13122,-0.27161,0.848018
1480098852162909,-1.13216,-0.271783,0.848214
1480098852185970,-1.13313,-0.271748,0.848744
1480098852200007,-1.13381,-0.271654,0.849407
1480098852224111,-1.13404,-0.271374,0.849939
1480098852246191,-1.13395,-0.271274,0.849841
1480098852260229,-1.13459,-0.271886,0.849886
1480098852291321,-1.13553,-0.27221,0.849869
1480098852306354,-1.1361,-0.272101,0.849886
1480098852320390,-1.13578,-0.272002,0.849995
1480098852343708,-1.13573,-0.271443,0.850204
1480098852365768,-1.13573,-0.271443,0.850204
1480098852386823,-1.13573,-0.271443,0.850204
1480098852403869,-1.1357,-0.271402,0.850181
1480098852425929,-1.13592,-0.27187,0.850118
1480098852446592,-1.13606,-0.271835,0.850145
1480098852463638,-1.13606,-0.271835,0.850145
1480098852485696,-1.13615,-0.271935,0.850244
1480098852506752,-1.13613,-0.271894,0.85022
1480098852523817,-1.13613,-0.271894,0.85022
1480098852545515,-1.13627,-0.271858,0.850248
1480098852566619,-1.13627,-0.271858,0.850248
1480098852583617,-1.13613,-0.271231,0.849929
1480098852605675,-1.13558,-0.270154,0.849595
1480098852627319,-1.13508,-0.269312,0.849431
1480098852643418,-1.13414,-0.269614,0.848642
1480098852665481,-1.1352,-0.270621,0.848821
1480098852686580,-1.13656,-0.271157,0.849582
1480098852703578,-1.13699,-0.2714,0.849933
1480098852726148,-1.13635,-0.2712,0.85015
1480098852746500,-1.13518,-0.270616,0.849897
1480098852763571,-1.13518,-0.270616,0.849897
1480098852785605,-1.13527,-0.270716,0.849995
1480098852808669,-1.13539,-0.27064,0.849999
1480098852823709,-1.13481,-0.270748,0.849981
1480098852845786,-1.13479,-0.270707,0.849958
1480098852867833,-1.13481,-0.270652,0.850077
1480098852883891,-1.13481,-0.270652,0.850077
1480098852905939,-1.13481,-0.270652,0.850077
1480098852928507,-1.13495,-0.270617,0.850104
1480098852943177,-1.13488,-0.270212,0.850436
1480098852966201,-1.13419,-0.269802,0.850796
1480098852989265,-1.13295,-0.269506,0.850401
1480098853002300,-1.13287,-0.269406,0.850303
1480098853025864,-1.13388,-0.269483,0.85045
1480098853047998,-1.1347,-0.269634,0.850738
1480098853063015,-1.13423,-0.269722,0.850605
1480098853086076,-1.13364,-0.269539,0.850539
1480098853108158,-1.1335,-0.269574,0.850512
1480098853131256,-1.13364,-0.269539,0.850539
1480098853145822,-1.13362,-0.269498,0.850515
1480098853167878,-1.13317,-0.269379,0.850718
1480098853182919,-1.1323,-0.269363,0.850502
1480098853211996,-1.1321,-0.269782,0.850234
1480098853228595,-1.13362,-0.270161,0.850806
1480098853242752,-1.13445,-0.270226,0.851642
1480098853265817,-1.13406,-0.270317,0.851703
1480098853287928,-1.13278,-0.270102,0.851498
1480098853308960,-1.13278,-0.270102,0.851498
1480098853325990,-1.13402,-0.270397,0.851894
1480098853351060,-1.13474,-0.270916,0.852229
1480098853369107,-1.13479,-0.270684,0.852253
1480098853386153,-1.13479,-0.270684,0.852253
1480098853408213,-1.13481,-0.270725,0.852277
1480098853436808,-1.13479,-0.270684,0.852253
1480098853445823,-1.13479,-0.270684,0.852253
1480098853467896,-1.13479,-0.270684,0.852253
1480098853488969,-1.13493,-0.270648,0.85228
1480098853505984,-1.13502,-0.270749,0.852379
1480098853528552,-1.13502,-0.270749,0.852379
1480098853549274,-1.135,-0.270708,0.852355
1480098853566380,-1.13514,-0.270672,0.852382
1480098853588376,-1.13514,-0.270672,0.852382
1480098853609458,-1.13514,-0.270672,0.852382
1480098853625981,-1.13514,-0.270672,0.852382
1480098853648180,-1.13514,-0.270672,0.852382
1480098853669255,-1.13512,-0.270728,0.852263
1480098853686280,-1.13471,-0.271123,0.851894
1480098853708339,-1.13453,-0.271487,0.851747
1480098853729898,-1.13411,-0.271786,0.851474
1480098853746034,-1.13378,-0.272185,0.851299
1480098853768092,-1.13378,-0.272185,0.851299
1480098853791187,-1.13378,-0.272185,0.851299
1480098853806194,-1.13338,-0.271986,0.85131
1480098853828805,-1.13371,-0.271338,0.851796
1480098853857011,-1.13427,-0.271071,0.852767
1480098853865007,-1.13448,-0.270652,0.853034
1480098853888066,-1.13595,-0.270033,0.852905
1480098853911129,-1.13597,-0.269977,0.853024
1480098853925707,-1.13403,-0.270119,0.852634
1480098853953928,-1.13111,-0.271179,0.852461
1480098853970940,-1.12829,-0.272245,0.852483
1480098853984978,-1.1269,-0.272524,0.852878
1480098854008039,-1.12623,-0.272755,0.85322
1480098854031102,-1.12702,-0.272765,0.853241
1480098854045149,-1.12802,-0.272232,0.852978
1480098854068211,-1.12911,-0.271828,0.852384
1480098854091273,-1.12979,-0.271447,0.852259
1480098854112361,-1.13039,-0.270785,0.85268
1480098854128373,-1.13143,-0.270904,0.853188
1480098854151102,-1.13242,-0.271255,0.853672
1480098854165139,-1.13314,-0.271206,0.85362
1480098854188199,-1.13376,-0.271429,0.85371
1480098854211263,-1.13428,-0.271109,0.853868
1480098854225302,-1.13478,-0.27094,0.85381
1480098854248047,-1.13467,-0.271017,0.853806
1480098854271118,-1.13478,-0.27094,0.85381
1480098854292164,-1.13524,-0.270907,0.853823
1480098854308207,-1.13526,-0.270948,0.853847
1480098854331325,-1.13515,-0.270807,0.853725
1480098854352021,-1.13529,-0.270771,0.853752
1480098854368060,-1.13529,-0.270771,0.853752
1480098854391125,-1.13531,-0.270716,0.853871
1480098854412221,-1.13544,-0.270237,0.854063
1480098854428753,-1.13503,-0.269595,0.854239
1480098854450899,-1.13447,-0.26889,0.854147
1480098854471956,-1.13334,-0.269018,0.853471
1480098854487998,-1.13423,-0.269104,0.853281
1480098854511060,-1.13533,-0.269087,0.853719
1480098854532184,-1.136,-0.26949,0.854098
1480098854548796,-1.1358,-0.269314,0.854212
1480098854570852,-1.13511,-0.268936,0.854142
1480098854591907,-1.13511,-0.268936,0.854142
1480098854608030,-1.13514,-0.268977,0.854166
1480098854631023,-1.13502,-0.268836,0.854044
1480098854651712,-1.13514,-0.268977,0.854166
1480098854668757,-1.13511,-0.268936,0.854142
1480098854690814,-1.13478,-0.268893,0.854133
1480098854712874,-1.13478,-0.268893,0.854133
1480098854728918,-1.13483,-0.268757,0.854062
1480098854750679,-1.13483,-0.268757,0.854062
1480098854773767,-1.13492,-0.268857,0.85416
1480098854788792,-1.13506,-0.268822,0.854187
1480098854810838,-1.13498,-0.268722,0.854089
1480098854833904,-1.13498,-0.268722,0.854089
1480098854854494,-1.13495,-0.268681,0.854065
1480098854878560,-1.13492,-0.268857,0.85416
1480098854893615,-1.13506,-0.268822,0.854187
1480098854907635,-1.13504,-0.268781,0.854163
1480098854931215,-1.13492,-0.268857,0.85416
1480098854953807,-1.13506,-0.268822,0.854187
1480098854967841,-1.13495,-0.268681,0.854065
1480098854990902,-1.13495,-0.268681,0.854065
1480098855013964,-1.13495,-0.268681,0.854065
1480098855028007,-1.13495,-0.268681,0.854065
1480098855050570,-1.13504,-0.268781,0.854163
1480098855073633,-1.13504,-0.268781,0.854163
1480098855087668,-1.13504,-0.268781,0.854163
1480098855110729,-1.13504,-0.268781,0.854163
1480098855133334,-1.13504,-0.268781,0.854163
1480098855147962,-1.13504,-0.268781,0.854163
1480098855171012,-1.13545,-0.268633,0.854221
1480098855193070,-1.13542,-0.268592,0.854197
1480098855214131,-1.13542,-0.268592,0.854197
1480098855231203,-1.13542,-0.268592,0.854197
1480098855259276,-1.13542,-0.268592,0.854197
1480098855274297,-1.13545,-0.268633,0.854221
1480098855291314,-1.13542,-0.268592,0.854197
1480098855313372,-1.13542,-0.268592,0.854197
1480098855335478,-1.13545,-0.268633,0.854221
1480098855350443,-1.13551,-0.268692,0.854296
1480098855373433,-1.13551,-0.268692,0.854296
1480098855394530,-1.13551,-0.268692,0.854296
1480098855410523,-1.13551,-0.268692,0.854296
1480098855433632,-1.13551,-0.268692,0.854296
1480098855454263,-1.13549,-0.268748,0.854176
1480098855471306,-1.13564,-0.268712,0.854203
1480098855493368,-1.13573,-0.268812,0.854302
1480098855514422,-1.13564,-0.268712,0.854203
1480098855530969,-1.13561,-0.268671,0.85418
1480098855553649,-1.13564,-0.268712,0.854203
1480098855574704,-1.13564,-0.268712,0.854203
1480098855590746,-1.13564,-0.268712,0.854203
1480098855613808,-1.13564,-0.268712,0.854203
1480098855634417,-1.13525,-0.268458,0.854334
1480098855658617,-1.13525,-0.268458,0.854334
1480098855673662,-1.13525,-0.268458,0.854334
1480098855695709,-1.13534,-0.268558,0.854433
1480098855710748,-1.13534,-0.268558,0.854433
1480098855733312,-1.13534,-0.268558,0.854433
1480098855755510,-1.13534,-0.268558,0.854433
1480098855770553,-1.13534,-0.268558,0.854433
1480098855793612,-1.13518,-0.268649,0.854286
1480098855815671,-1.13532,-0.268613,0.854313
1480098855830714,-1.13532,-0.268613,0.854313
1480098855853348,-1.13534,-0.268558,0.854433
1480098855875450,-1.13534,-0.268558,0.854433
1480098855890465,-1.13531,-0.268517,0.854409
1480098855913507,-1.13491,-0.268414,0.854325
1480098855936071,-1.13462,-0.26826,0.854554
1480098855957165,-1.13483,-0.268131,0.854872
1480098855973171,-1.13599,-0.267383,0.855618
1480098855996273,-1.13687,-0.267493,0.855738
1480098856010269,-1.13739,-0.267269,0.855799
1480098856033342,-1.13699,-0.267416,0.855742
1480098856055464,-1.13627,-0.267877,0.856059
1480098856070443,-1.13639,-0.268463,0.856354
1480098856093503,-1.13788,-0.268698,0.856662
1480098856115562,-1.13856,-0.268729,0.8568
1480098856136659,-1.13842,-0.268765,0.856773
1480098856152851,-1.13847,-0.268629,0.856702
1480098856175873,-1.13875,-0.268711,0.856879
1480098856196930,-1.13967,-0.269153,0.857076
1480098856212969,-1.13965,-0.269112,0.857052
1480098856236032,-1.13967,-0.269153,0.857076
1480098856256666,-1.13967,-0.269153,0.857076
1480098856273720,-1.13958,-0.269053,0.856977
1480098856295773,-1.13958,-0.269053,0.856977
1480098856316881,-1.13958,-0.269053,0.856977
1480098856333428,-1.13958,-0.269053,0.856977
1480098856355603,-1.13958,-0.269053,0.856977
1480098856376659,-1.13958,-0.269053,0.856977
1480098856393712,-1.13956,-0.269012,0.856954
1480098856415761,-1.13965,-0.269112,0.857052
1480098856436356,-1.13956,-0.269012,0.856954
1480098856453436,-1.1397,-0.268977,0.856981
1480098856475526,-1.13989,-0.269371,0.857325
1480098856496606,-1.13989,-0.269371,0.857325
1480098856513596,-1.13989,-0.269371,0.857325
1480098856536173,-1.13989,-0.269371,0.857325
1480098856556785,-1.14004,-0.269335,0.857352
1480098856579861,-1.14004,-0.269335,0.857352
1480098856595887,-1.14004,-0.269335,0.857352
1480098856617973,-1.14003,-0.269238,0.857448
1480098856633015,-1.14001,-0.269294,0.857329
1480098856655683,-1.14001,-0.269294,0.857329
1480098856678747,-1.1401,-0.269394,0.857427
1480098856693784,-1.1401,-0.269394,0.857427
1480098856715842,-1.1401,-0.269394,0.857427
1480098856738567,-1.14024,-0.269358,0.857454
1480098856752604,-1.14024,-0.269358,0.857454
1480098856775666,-1.14024,-0.269358,0.857454
1480098856798728,-1.14022,-0.269317,0.857431
1480098856812767,-1.14022,-0.269317,0.857431
1480098856835865,-1.14036,-0.269282,0.857458
1480098856858565,-1.14045,-0.269381,0.857557
1480098856872601,-1.14079,-0.269425,0.857567
1480098856895662,-1.14086,-0.269483,0.857642
1480098856918725,-1.14061,-0.26954,0.857731
1480098856932764,-1.14061,-0.26954,0.857731
1480098856955829,-1.14127,-0.269433,0.857943
1480098856977925,-1.14186,-0.26892,0.858147
1480098856992928,-1.14111,-0.269243,0.858198
1480098857015990,-1.13901,-0.269449,0.858089
1480098857046268,-1.1376,-0.270475,0.857888
1480098857052298,-1.13756,-0.27049,0.857745
1480098857075350,-1.13835,-0.269902,0.857809
1480098857098406,-1.13809,-0.269699,0.857417
1480098857119499,-1.13738,-0.269377,0.857228
1480098857136025,-1.13738,-0.269377,0.857228
1480098857158288,-1.13738,-0.269377,0.857228
1480098857179356,-1.13842,-0.269742,0.857427
1480098857195388,-1.13842,-0.269646,0.857523
1480098857218449,-1.13768,-0.269847,0.85736
1480098857239177,-1.13775,-0.269656,0.857408
1480098857256222,-1.13761,-0.269692,0.857381
1480098857278280,-1.13761,-0.269692,0.857381
1480098857299336,-1.13775,-0.269656,0.857408
1480098857315379,-1.13775,-0.269656,0.857408
1480098857337975,-1.13775,-0.269656,0.857408
1480098857359074,-1.13784,-0.269756,0.857506
1480098857376075,-1.13783,-0.269812,0.857387
1480098857398139,-1.13783,-0.269812,0.857387
1480098857419191,-1.13783,-0.269812,0.857387
1480098857436239,-1.13783,-0.269812,0.857387
1480098857458815,-1.13783,-0.269812,0.857387
1480098857479855,-1.1378,-0.269771,0.857364
1480098857495899,-1.13783,-0.269812,0.857387
1480098857517972,-1.1378,-0.269771,0.857364
1480098857539024,-1.13795,-0.269735,0.85739
1480098857556070,-1.13789,-0.26987,0.857462
1480098857578129,-1.13804,-0.269835,0.857489
1480098857601190,-1.13804,-0.269835,0.857489
1480098857616231,-1.13789,-0.26987,0.857462
1480098857638815,-1.13795,-0.269735,0.85739
1480098857660875,-1.13858,-0.269901,0.857601
1480098857675914,-1.13858,-0.269901,0.857601
1480098857698000,-1.13872,-0.269866,0.857628
1480098857721037,-1.13858,-0.269901,0.857601
1480098857735579,-1.13849,-0.269801,0.857503
1480098857758807,-1.13849,-0.269801,0.857503
1480098857780835,-1.13837,-0.269878,0.857499
1480098857794873,-1.13832,-0.27036,0.857502
1480098857817933,-1.13907,-0.270322,0.858243
1480098857840585,-1.13861,-0.270574,0.858686
1480098857855658,-1.13777,-0.270202,0.859018
1480098857879690,-1.13689,-0.269304,0.859129
1480098857900745,-1.13611,-0.26848,0.85903
1480098857914784,-1.13542,-0.267441,0.858669
1480098857938644,-1.13396,-0.266685,0.858339
1480098857960691,-1.13153,-0.266283,0.857843
1480098857975731,-1.12912,-0.265604,0.858093
1480098857997806,-1.12619,-0.265252,0.85853
1480098858020850,-1.12351,-0.264912,0.859215
1480098858042474,-1.12176,-0.264228,0.859588
1480098858058516,-1.12057,-0.263929,0.859686
1480098858080576,-1.11981,-0.263867,0.859791
1480098858101633,-1.11951,-0.263716,0.860026
1480098858118692,-1.11987,-0.26415,0.86032
1480098858140782,-1.12112,-0.264827,0.860655
1480098858161863,-1.12239,-0.265035,0.860849
1480098858177926,-1.12301,-0.265696,0.860765
1480098858207973,-1.12381,-0.266118,0.860302
1480098858222001,-1.12469,-0.266003,0.859961
1480098858237794,-1.12548,-0.266106,0.859882
1480098858260856,-1.12654,-0.265532,0.859786
1480098858281921,-1.12722,-0.265244,0.859561
1480098858298957,-1.12724,-0.265285,0.859584
1480098858321016,-1.12734,-0.264821,0.859635
1480098858341732,-1.128,-0.264464,0.859817
1480098858358777,-1.12872,-0.264166,0.860074
1480098858380800,-1.13022,-0.264438,0.860396
1480098858401856,-1.13157,-0.264456,0.860643
1480098858417972,-1.1317,-0.26467,0.860696
1480098858440906,-1.13134,-0.264709,0.860879
1480098858461964,-1.1306,-0.265479,0.861105
1480098858478005,-1.13006,-0.266048,0.861716
1480098858501071,-1.13007,-0.266213,0.862293
1480098858523641,-1.12975,-0.266338,0.862862
1480098858538745,-1.12843,-0.265673,0.863118
1480098858560791,-1.12784,-0.264214,0.86392
1480098858582852,-1.12571,-0.262784,0.864715
1480098858598892,-1.12551,-0.260762,0.866057
1480098858620951,-1.12496,-0.258605,0.867493
1480098858643141,-1.12565,-0.25683,0.869216
1480098858657180,-1.12582,-0.253587,0.871152
1480098858681261,-1.12426,-0.249966,0.873528
1480098858703302,-1.12306,-0.248224,0.875909
1480098858717339,-1.12384,-0.246258,0.879257
1480098858741047,-1.12504,-0.246276,0.882552
1480098858763106,-1.12369,-0.248663,0.883736
1480098858777142,-1.12304,-0.249786,0.883748
1480098858801207,-1.11826,-0.250026,0.882732
1480098858823791,-1.11548,-0.251871,0.881436
1480098858837934,-1.11338,-0.253682,0.880386
1480098858860994,-1.11265,-0.255412,0.879374
1480098858883053,-1.11415,-0.255909,0.878612
1480098858898095,-1.11549,-0.256154,0.87778
1480098858921154,-1.11614,-0.257314,0.877104
1480098858943206,-1.11605,-0.258149,0.876543
1480098858957291,-1.11841,-0.258508,0.876959
1480098858981308,-1.12009,-0.258973,0.877803
1480098859003369,-1.12105,-0.259742,0.878396
1480098859024473,-1.12243,-0.260648,0.879094
1480098859040509,-1.12448,-0.262227,0.879758
1480098859063570,-1.12792,-0.262859,0.880527
1480098859084629,-1.13055,-0.263226,0.881549
1480098859100669,-1.13125,-0.263444,0.881831
1480098859123784,-1.13164,-0.263664,0.882129
1480098859144589,-1.1327,-0.264334,0.881939
1480098859160585,-1.13434,-0.264141,0.882023
1480098859183646,-1.13563,-0.263467,0.882265
1480098859204742,-1.13563,-0.263467,0.882265
1480098859220745,-1.13483,-0.263523,0.882127
1480098859243813,-1.13483,-0.263523,0.882127
1480098859265871,-1.1351,-0.263753,0.882087
1480098859280912,-1.13485,-0.26409,0.88143
1480098859302973,-1.13463,-0.264345,0.880581
1480098859324561,-1.13474,-0.264514,0.88027
1480098859341037,-1.1345,-0.264603,0.879928
1480098859363098,-1.13428,-0.265079,0.87954
1480098859384152,-1.13373,-0.265763,0.87883
1480098859401197,-1.13387,-0.265851,0.878326
1480098859423761,-1.13372,-0.266039,0.878083
1480098859445334,-1.13401,-0.266312,0.878067
1480098859466378,-1.13462,-0.265962,0.878105
1480098859483423,-1.13464,-0.266003,0.878128
1480098859505481,-1.13464,-0.266003,0.878128
1480098859520521,-1.13427,-0.265382,0.878018
1480098859543096,-1.13363,-0.26453,0.877949
1480098859566166,-1.13307,-0.264027,0.878006
1480098859581198,-1.13265,-0.263888,0.8779
1480098859603257,-1.13226,-0.263294,0.878104
1480098859625821,-1.13254,-0.262876,0.878568
1480098859640467,-1.13254,-0.262876,0.878568
1480098859670549,-1.13242,-0.262955,0.878565
1480098859685587,-1.1324,-0.262913,0.878542
1480098859700630,-1.13271,-0.262883,0.878959
1480098859723722,-1.13318,-0.263107,0.879453
1480098859745571,-1.13323,-0.263095,0.879938
1480098859760613,-1.13309,-0.263104,0.880345
1480098859783674,-1.13304,-0.26324,0.880417
1480098859805732,-1.13318,-0.263203,0.880443
1480098859819788,-1.1333,-0.263443,0.88081
1480098859843442,-1.1331,-0.263643,0.881169
1480098859871555,-1.13271,-0.263395,0.881304
1480098859880539,-1.1321,-0.263526,0.881147
1480098859903601,-1.13224,-0.263489,0.881174
1480098859926164,-1.13223,-0.263393,0.881271
1480098859954750,-1.13222,-0.263448,0.88115
1480098859963767,-1.13236,-0.263411,0.881176
1480098859985824,-1.13228,-0.263256,0.881198
1480098860006914,-1.13135,-0.263445,0.880938
1480098860023443,-1.13055,-0.263501,0.8808
1480098860046131,-1.12949,-0.263768,0.880537
1480098860067189,-1.12834,-0.264308,0.880418
1480098860083232,-1.12716,-0.264311,0.880565
1480098860105288,-1.12622,-0.264031,0.880907
1480098860126901,-1.12499,-0.263726,0.880954
1480098860142931,-1.12358,-0.263099,0.880589
1480098860165991,-1.12295,-0.262594,0.880457
1480098860187094,-1.1233,-0.262578,0.880583
1480098860203108,-1.12474,-0.261967,0.881094
1480098860226170,-1.12612,-0.261712,0.881795
1480098860246716,-1.12631,-0.26201,0.882235
1480098860262759,-1.12677,-0.261698,0.882993
1480098860285821,-1.1278,-0.260893,0.884269
1480098860306890,-1.12917,-0.260194,0.885139
1480098860323455,-1.13071,-0.259679,0.885747
1480098860345599,-1.13214,-0.259187,0.886474
1480098860368645,-1.13206,-0.258,0.887049
1480098860383684,-1.13049,-0.256601,0.887332
1480098860405742,-1.1296,-0.256064,0.888138
1480098860429318,-1.1307,-0.25551,0.889634
1480098860443461,-1.13159,-0.255057,0.891247
1480098860465518,-1.13108,-0.254648,0.892791
1480098860488580,-1.12968,-0.254103,0.89386
1480098860503622,-1.12834,-0.254553,0.894546
1480098860526194,-1.12844,-0.255443,0.895497
1480098860548308,-1.12942,-0.255707,0.896387
1480098860562345,-1.1295,-0.256179,0.89673
1480098860585409,-1.12963,-0.256418,0.897097
1480098860615487,-1.13014,-0.25631,0.897713
1480098860623011,-1.13029,-0.256622,0.898763
1480098860646159,-1.12925,-0.256875,0.899284
1480098860668214,-1.12829,-0.256883,0.899975
1480098860682277,-1.12692,-0.256508,0.900538
1480098860705318,-1.12492,-0.256326,0.900827
1480098860728379,-1.12339,-0.256391,0.901173
1480098860742886,-1.12216,-0.257044,0.901864
1480098860765944,-1.1217,-0.257743,0.902444
1480098860788008,-1.12081,-0.258308,0.902922
1480098860803042,-1.11992,-0.259118,0.903082
1480098860826142,-1.11875,-0.259136,0.903239
1480098860847853,-1.11875,-0.259136,0.903239
1480098860868869,-1.11936,-0.259837,0.903027
1480098860885914,-1.11994,-0.260128,0.903302
1480098860907971,-1.11958,-0.260897,0.903665
1480098860929537,-1.11925,-0.261237,0.903905
1480098860946082,-1.11934,-0.261337,0.904003
1480098860968140,-1.12034,-0.26188,0.903846
1480098860989208,-1.12144,-0.262398,0.90357
1480098861006241,-1.1228,-0.262208,0.903713
1480098861028841,-1.12314,-0.262587,0.903647
1480098861049549,-1.1238,-0.263151,0.903366
1480098861065577,-1.12432,-0.262635,0.903079
1480098861088640,-1.12432,-0.262635,0.903079
1480098861109696,-1.12389,-0.262651,0.902755
1480098861126260,-1.12324,-0.262302,0.902402
1480098861148467,-1.1235,-0.26228,0.902332
1480098861169544,-1.1246,-0.262209,0.902447
1480098861185558,-1.12549,-0.262148,0.902779
1480098861208619,-1.1258,-0.262116,0.903198
1480098861229681,-1.12584,-0.261763,0.903759
1480098861245371,-1.12584,-0.261763,0.903759
1480098861268413,-1.1259,-0.261849,0.904151
1480098861296518,-1.12655,-0.261358,0.904866
1480098861305510,-1.12661,-0.261444,0.905258
1480098861328587,-1.12661,-0.261444,0.905258
1480098861350383,-1.12658,-0.261403,0.905234
1480098861365438,-1.12646,-0.261266,0.905866
1480098861388482,-1.12671,-0.260931,0.906528
1480098861410540,-1.12698,-0.260542,0.907312
1480098861426086,-1.12694,-0.260559,0.907922
1480098861448649,-1.12694,-0.260559,0.907922
1480098861470706,-1.12694,-0.260559,0.907922
1480098861484800,-1.12694,-0.260559,0.907922
1480098861508812,-1.1264,-0.260635,0.90838
1480098861530885,-1.12565,-0.260938,0.908418
1480098861545447,-1.12574,-0.261037,0.908518
1480098861568504,-1.12588,-0.260999,0.908543
1480098861590564,-1.12586,-0.260957,0.90852
1480098861605603,-1.1253,-0.261428,0.90844
1480098861628670,-1.12535,-0.261635,0.908295
1480098861650296,-1.12563,-0.261957,0.908154
1480098861665353,-1.12563,-0.261957,0.908154
1480098861688397,-1.12573,-0.262026,0.907936
1480098861710489,-1.12573,-0.262026,0.907936
1480098861725504,-1.12573,-0.262026,0.907936
1480098861747839,-1.12573,-0.262026,0.907936
1480098861770872,-1.12559,-0.262065,0.90791
1480098861784905,-1.12658,-0.261918,0.907899
1480098861807966,-1.12682,-0.261479,0.907559
1480098861831032,-1.12681,-0.261255,0.907093
1480098861851655,-1.12713,-0.260969,0.906731
1480098861868680,-1.12713,-0.260969,0.906731
1480098861890724,-1.12713,-0.260969,0.906731
1480098861895778,-1.12713,-0.260969,0.906731
1480098861913810,-1.12713,-0.260969,0.906731
1480098861933896,-1.12773,-0.261229,0.906693
1480098861955933,-1.12789,-0.261137,0.906841
1480098861979043,-1.12773,-0.261229,0.906693
1480098861994040,-1.12805,-0.261414,0.906479
1480098862016101,-1.12865,-0.2613,0.906196
1480098862038683,-1.12914,-0.261242,0.906349
1480098862054057,-1.12911,-0.2612,0.906325
1480098862076076,-1.12925,-0.261162,0.906351
1480098862099181,-1.12914,-0.261242,0.906349
1480098862114182,-1.12914,-0.261242,0.906349
1480098862136252,-1.12911,-0.2612,0.906325
1480098862158976,-1.12867,-0.261342,0.90622
1480098862173985,-1.12897,-0.261581,0.905885
1480098862196049,-1.12966,-0.261471,0.905799
1480098862219127,-1.12975,-0.26157,0.905898
1480098862234188,-1.12975,-0.26157,0.905898
1480098862255857,-1.12961,-0.261608,0.905872
1480098862280918,-1.1293,-0.262111,0.905601
1480098862293951,-1.12932,-0.261931,0.905504
1480098862316061,-1.12932,-0.261931,0.905504
1480098862338653,-1.12932,-0.261931,0.905504
1480098862353831,-1.12946,-0.261893,0.905529
1480098862375866,-1.12893,-0.262184,0.905352
1480098862398935,-1.12902,-0.262283,0.905451
1480098862413972,-1.12977,-0.262228,0.905097
1480098862436559,-1.12977,-0.262228,0.905097
1480098862458658,-1.12975,-0.262186,0.905073
1480098862475721,-1.12957,-0.262181,0.904679
1480098862495758,-1.12938,-0.262229,0.904163
1480098862518859,-1.12991,-0.261714,0.903875
1480098862533875,-1.12982,-0.261615,0.903776
1480098862556027,-1.12982,-0.261615,0.903776
1480098862579094,-1.12996,-0.261577,0.903802
1480098862593174,-1.12988,-0.261424,0.903824
1480098862623708,-1.1297,-0.261104,0.904161
1480098862638748,-1.1294,-0.26037,0.904786
1480098862653929,-1.12794,-0.260148,0.905274
1480098862675980,-1.12696,-0.259965,0.905818
1480098862699005,-1.12659,-0.259823,0.906204
1480098862714082,-1.12658,-0.260475,0.906793
1480098862736606,-1.1261,-0.260485,0.907518
1480098862758730,-1.12545,-0.260267,0.907728
1480098862782795,-1.12545,-0.260267,0.907728
1480098862795830,-1.125,-0.260097,0.908356
1480098862818889,-1.12444,-0.259883,0.908763
1480098862835488,-1.12379,-0.260232,0.909024
1480098862855788,-1.12379,-0.260232,0.909024
1480098862878848,-1.1247,-0.260459,0.909404
1480098862894898,-1.12472,-0.261029,0.909799
1480098862915947,-1.12478,-0.261116,0.910192
1480098862938588,-1.12492,-0.261796,0.910393
1480098862954660,-1.12492,-0.261796,0.910393
1480098862976719,-1.12492,-0.261796,0.910393
1480098862998783,-1.12492,-0.261796,0.910393
1480098863014833,-1.1245,-0.262254,0.909899
1480098863036419,-1.12501,-0.262725,0.909028
1480098863058569,-1.12535,-0.263095,0.907862
1480098863074612,-1.12505,-0.263184,0.905926
1480098863096669,-1.12447,-0.263316,0.903279
1480098863118785,-1.12485,-0.264381,0.900582
1480098863135292,-1.12581,-0.264676,0.898065
1480098863155852,-1.12567,-0.264821,0.895312
1480098863178951,-1.12436,-0.265568,0.892324
1480098863194954,-1.12178,-0.266593,0.88929
1480098863216011,-1.11932,-0.267093,0.886429
1480098863239194,-1.11802,-0.267214,0.884271
1480098863256259,-1.11786,-0.267661,0.882183
1480098863276298,-1.11804,-0.267651,0.880393
1480098863298351,-1.11696,-0.267201,0.878727
1480098863316398,-1.1164,-0.266399,0.877654
1480098863336457,-1.11745,-0.265779,0.876899
1480098863358714,-1.11846,-0.265547,0.87624
1480098863376753,-1.1194,-0.265231,0.875943
1480098863395804,-1.12018,-0.265232,0.875957
1480098863418865,-1.12018,-0.265232,0.875957
1480098863440968,-1.12065,-0.264765,0.875845
1480098863457977,-1.12086,-0.264813,0.875512
1480098863487053,-1.12135,-0.265106,0.875593
1480098863501091,-1.12242,-0.264787,0.875976
1480098863516143,-1.12288,-0.265413,0.876275
1480098863538742,-1.12288,-0.265413,0.876275
1480098863561015,-1.12288,-0.265413,0.876275
1480098863576019,-1.12338,-0.265115,0.876743
1480098863599081,-1.12386,-0.264845,0.877525
1480098863621192,-1.12395,-0.264258,0.878107
1480098863636235,-1.12411,-0.263799,0.8791
1480098863658825,-1.12416,-0.263294,0.879874
1480098863680938,-1.12397,-0.263346,0.880452
1480098863695930,-1.1231,-0.264286,0.880872
1480098863718988,-1.1225,-0.265647,0.881056
1480098863741171,-1.12265,-0.266499,0.881834
1480098863765235,-1.1231,-0.266933,0.88233
1480098863778271,-1.1239,-0.267346,0.882612
1480098863801333,-1.12436,-0.267501,0.882769
1480098863816371,-1.12419,-0.267276,0.883007
1480098863838936,-1.12419,-0.267276,0.883007
1480098863861502,-1.12488,-0.267025,0.883891
1480098863877544,-1.12488,-0.267025,0.883891
1480098863898600,-1.12557,-0.266801,0.884341
1480098863920659,-1.12603,-0.266488,0.885101
1480098863937713,-1.12695,-0.266079,0.885991
1480098863958354,-1.12738,-0.265502,0.887015
1480098863981417,-1.12779,-0.265448,0.887315
1480098863997458,-1.1286,-0.264397,0.888029
1480098864018513,-1.12898,-0.263487,0.888979
1480098864041089,-1.12801,-0.26364,0.889445
1480098864057131,-1.12739,-0.263306,0.889893
1480098864078188,-1.12731,-0.262934,0.890546
1480098864101291,-1.12753,-0.262682,0.891398
1480098864117289,-1.12754,-0.26241,0.89215
1480098864138856,-1.12673,-0.262157,0.892743
1480098864161482,-1.126,-0.261904,0.893191
1480098864179534,-1.12584,-0.26138,0.893867
1480098864198621,-1.12484,-0.261645,0.894095
1480098864221647,-1.12337,-0.261757,0.894167
1480098864239196,-1.12223,-0.261342,0.894198
1480098864261373,-1.12167,-0.261124,0.894603
1480098864281445,-1.12162,-0.261141,0.89521
1480098864299516,-1.1219,-0.261194,0.895823
1480098864318527,-1.12141,-0.261226,0.896108
1480098864344609,-1.12156,-0.261188,0.896133
1480098864358654,-1.12153,-0.261146,0.89611
1480098864378701,-1.12153,-0.261146,0.89611
1480098864400766,-1.12167,-0.261108,0.896136
1480098864418823,-1.12135,-0.260923,0.89635
1480098864438888,-1.12082,-0.260867,0.896245
1480098864461486,-1.12082,-0.260867,0.896245
1480098864479535,-1.1209,-0.260527,0.896513
1480098864498586,-1.12102,-0.260298,0.896735
1480098864520668,-1.12112,-0.260397,0.896833
1480098864539197,-1.12102,-0.260298,0.896735
1480098864565835,-1.12102,-0.260298,0.896735
1480098864580873,-1.12221,-0.259864,0.897554
1480098864606899,-1.12295,-0.259969,0.898076
1480098864618943,-1.1239,-0.260063,0.898383
1480098864641087,-1.12442,-0.260077,0.898464
1480098864659095,-1.12442,-0.260077,0.898464
1480098864679203,-1.12456,-0.260039,0.89849
1480098864701223,-1.12448,-0.259885,0.898513
1480098864719255,-1.12505,-0.259513,0.898496
1480098864755005,-1.12588,-0.259367,0.898435
1480098864760988,-1.12579,-0.259268,0.898337
1480098864779033,-1.1258,-0.259213,0.898458
1480098864800087,-1.1258,-0.259213,0.898458
1480098864821145,-1.12571,-0.259114,0.89836
1480098864839200,-1.12571,-0.259114,0.89836
1480098864861264,-1.12623,-0.258879,0.898415
1480098864881317,-1.12705,-0.258293,0.898524
1480098864903401,-1.12783,-0.257789,0.898826
1480098864920420,-1.12783,-0.257789,0.898826
1480098864941597,-1.12713,-0.257951,0.898791
1480098864963679,-1.12713,-0.257951,0.898791
1480098864979733,-1.12724,-0.257872,0.898793
1480098865000743,-1.12732,-0.258025,0.898771
1480098865026816,-1.1269,-0.257986,0.898569
1480098865039952,-1.12646,-0.257656,0.898318
1480098865060992,-1.12679,-0.257692,0.898323
1480098865084053,-1.12693,-0.257654,0.898349
1480098865100095,-1.12691,-0.257612,0.898325
1480098865121176,-1.12639,-0.257598,0.898244
1480098865143834,-1.1256,-0.257191,0.897964
1480098865161862,-1.12562,-0.257233,0.897988
1480098865180914,-1.12641,-0.257075,0.898219
1480098865204019,-1.12655,-0.257037,0.898245
1480098865221052,-1.12655,-0.257037,0.898245
1480098865240762,-1.12646,-0.256938,0.898146
1480098865263823,-1.12693,-0.257089,0.8983
1480098865281860,-1.12781,-0.257499,0.898776
1480098865300950,-1.12852,-0.257561,0.899275
1480098865323979,-1.12866,-0.257522,0.8993
1480098865341022,-1.12797,-0.25763,0.899387
1480098865361074,-1.1274,-0.257683,0.899038
1480098865383135,-1.1274,-0.257683,0.899038
1480098865401181,-1.12809,-0.25755,0.899389
1480098865424246,-1.12821,-0.257471,0.899391
1480098865450924,-1.12769,-0.257457,0.899309
1480098865461919,-1.12712,-0.257855,0.898889
1480098865480992,-1.12712,-0.257855,0.898889
1480098865504022,-1.12795,-0.258179,0.898975
1480098865521067,-1.12806,-0.2581,0.898977
1480098865540848,-1.12776,-0.25786,0.899313
1480098865563841,-1.12659,-0.25812,0.899149
1480098865581927,-1.12659,-0.25812,0.899149
1480098865600939,-1.12738,-0.257738,0.898917
1480098865624018,-1.12816,-0.257729,0.898929
1480098865641113,-1.1283,-0.257691,0.898955
1480098865661156,-1.1283,-0.257691,0.898955
1480098865683217,-1.1283,-0.257691,0.898955
1480098865701262,-1.1283,-0.257691,0.898955
1480098865728840,-1.1283,-0.257691,0.898955
1480098865743285,-1.1283,-0.257691,0.898955
1480098865761336,-1.12842,-0.257612,0.898957
1480098865782390,-1.12842,-0.257612,0.898957
1480098865803454,-1.12898,-0.257957,0.899113
1480098865821495,-1.12912,-0.257919,0.899139
1480098865842528,-1.12912,-0.257919,0.899139
1480098865863583,-1.12912,-0.257919,0.899139
1480098865881631,-1.12912,-0.257919,0.899139
1480098865902686,-1.12912,-0.257919,0.899139
1480098865923783,-1.12912,-0.257919,0.899139
1480098865941528,-1.12926,-0.257881,0.899165
1480098865962583,-1.12924,-0.25784,0.899141
1480098865983651,-1.12924,-0.25784,0.899141
1480098866001690,-1.12924,-0.25784,0.899141
1480098866023748,-1.12924,-0.25784,0.899141
1480098866043727,-1.12938,-0.257801,0.899167
1480098866061787,-1.12938,-0.257801,0.899167
1480098866083836,-1.12938,-0.257801,0.899167
1480098866103923,-1.12938,-0.257801,0.899167
1480098866121973,-1.12951,-0.257667,0.89929
1480098866144026,-1.12942,-0.257568,0.899191
1480098866164096,-1.13006,-0.257349,0.899152
1480098866182131,-1.13006,-0.257349,0.899152
1480098866204186,-1.12973,-0.257314,0.899146
1480098866223237,-1.12973,-0.257314,0.899146
1480098866241314,-1.12973,-0.257314,0.899146
1480098866264360,-1.12973,-0.257314,0.899146
1480098866285414,-1.12973,-0.257314,0.899146
1480098866301456,-1.12973,-0.257314,0.899146
1480098866323517,-1.12973,-0.257314,0.899146
1480098866343195,-1.12973,-0.257314,0.899146
1480098866366259,-1.12987,-0.257275,0.899172
1480098866391322,-1.12987,-0.257275,0.899172
1480098866403352,-1.12986,-0.257675,0.89898
1480098866426465,-1.12965,-0.258246,0.898492
1480098866444541,-1.12951,-0.258061,0.898002
1480098866465536,-1.12952,-0.258007,0.898124
1480098866486582,-1.12944,-0.258349,0.897857
1480098866503627,-1.12903,-0.258406,0.897557
1480098866523714,-1.12915,-0.258326,0.897559
1480098866546288,-1.12901,-0.258364,0.897534
1480098866564337,-1.1295,-0.258334,0.897249
1480098866583407,-1.12998,-0.258304,0.896965
1480098866606458,-1.12999,-0.258399,0.896868
1480098866624541,-1.12998,-0.258304,0.896965
1480098866643647,-1.12998,-0.258304,0.896965
1480098866665716,-1.13001,-0.258345,0.896989
1480098866683749,-1.12975,-0.257871,0.897348
1480098866704821,-1.12913,-0.258036,0.897509
1480098866726368,-1.12861,-0.258271,0.897453
1480098866743942,-1.12884,-0.258236,0.897675
1480098866764998,-1.1287,-0.25837,0.897552
1480098866786054,-1.12868,-0.258328,0.897528
1480098866811138,-1.12926,-0.25862,0.897806
1480098866825158,-1.12929,-0.25923,0.898222
1480098866846017,-1.12929,-0.25923,0.898222
1480098866864032,-1.12982,-0.259339,0.898208
1480098866885089,-1.1302,-0.259583,0.89807
1480098866906145,-1.13022,-0.259529,0.898191
1480098866924193,-1.12975,-0.258812,0.897985
1480098866944922,-1.12963,-0.258892,0.897983
1480098866966022,-1.12972,-0.258991,0.898082
1480098866984024,-1.12936,-0.258691,0.897589
1480098867005080,-1.12936,-0.258691,0.897589
1480098867026144,-1.12951,-0.258653,0.897615
1480098867044200,-1.12965,-0.258838,0.898105
1480098867066257,-1.12986,-0.258984,0.898767
1480098867086308,-1.13018,-0.258802,0.899404
1480098867104358,-1.13016,-0.258981,0.899501
1480098867126920,-1.13016,-0.258981,0.899501
1480098867146215,-1.12973,-0.258846,0.899397
1480098867164217,-1.12983,-0.258945,0.899496
1480098867186274,-1.12994,-0.258865,0.899498
1480098867206362,-1.12994,-0.258865,0.899498
1480098867224376,-1.12994,-0.258865,0.899498
1480098867246481,-1.13008,-0.258827,0.899523
1480098867266552,-1.13035,-0.257968,0.900158
1480098867283579,-1.13029,-0.258159,0.900109
1480098867306641,-1.1303,-0.258105,0.900231
1480098867326202,-1.1297,-0.257993,0.900049
1480098867343750,-1.1297,-0.257993,0.900049
1480098867373831,-1.12927,-0.257736,0.90048
1480098867385863,-1.12876,-0.257726,0.900741
1480098867403910,-1.12885,-0.257825,0.90084
1480098867427473,-1.12836,-0.257633,0.900661
1480098867445781,-1.12779,-0.257662,0.900749
1480098867463831,-1.12779,-0.257662,0.900749
1480098867486890,-1.12793,-0.257624,0.900775
1480098867505967,-1.12793,-0.257624,0.900775
1480098867523989,-1.12777,-0.257716,0.900628
1480098867546739,-1.12791,-0.257678,0.900654
1480098867566775,-1.12793,-0.257624,0.900775
1480098867583831,-1.12791,-0.257678,0.900654
1480098867606882,-1.12793,-0.257624,0.900775
1480098867626520,-1.12793,-0.257624,0.900775
1480098867643708,-1.12793,-0.257624,0.900775
1480098867666747,-1.12793,-0.257624,0.900775
1480098867687802,-1.12733,-0.25776,0.900621
1480098867703845,-1.12733,-0.25776,0.900621
1480098867726911,-1.12733,-0.25776,0.900621
1480098867747511,-1.12733,-0.25776,0.900621
1480098867764555,-1.12722,-0.257594,0.900936
1480098867786612,-1.12756,-0.257949,0.901307
1480098867807670,-1.1282,-0.258448,0.901441
1480098867823714,-1.12831,-0.258368,0.901443
1480098867846200,-1.12831,-0.258368,0.901443
1480098867867234,-1.12834,-0.258409,0.901466
1480098867888301,-1.12831,-0.258368,0.901443
1480098867906338,-1.1282,-0.258448,0.901441
1480098867927898,-1.1282,-0.258448,0.901441
1480098867950066,-1.1282,-0.258448,0.901441
1480098867966144,-1.12853,-0.258828,0.901375
1480098867989169,-1.12853,-0.258828,0.901375
1480098868008255,-1.12869,-0.258735,0.901522
1480098868026779,-1.12867,-0.258789,0.901401
1480098868049244,-1.12923,-0.259039,0.901655
1480098868068332,-1.12987,-0.259192,0.901861
1480098868091361,-1.12973,-0.25923,0.901835
1480098868109405,-1.12987,-0.259192,0.901861
1480098868128959,-1.12973,-0.25923,0.901835
1480098868146510,-1.12973,-0.25923,0.901835
1480098868168586,-1.12973,-0.25923,0.901835
1480098868188626,-1.12979,-0.259039,0.901883
1480098868206679,-1.12973,-0.25923,0.901835
1480098868229266,-1.12987,-0.259192,0.901861
1480098868248389,-1.12973,-0.25923,0.901835
1480098868266435,-1.12973,-0.25923,0.901835
1480098868289527,-1.12987,-0.259192,0.901861
1480098868308578,-1.12987,-0.259192,0.901861
1480098868326597,-1.12987,-0.259192,0.901861
1480098868349287,-1.12987,-0.259192,0.901861
1480098868368378,-1.12987,-0.259192,0.901861
1480098868386385,-1.12998,-0.259112,0.901863
1480098868409445,-1.12998,-0.259112,0.901863
1480098868429022,-1.12987,-0.259192,0.901861
1480098868446551,-1.12981,-0.259106,0.90147
1480098868468609,-1.12953,-0.259525,0.901003
1480098868488697,-1.12957,-0.259883,0.900641
1480098868506714,-1.12969,-0.259803,0.900643
1480098868529274,-1.12969,-0.259803,0.900643
1480098868548512,-1.12948,-0.260375,0.900155
1480098868566522,-1.12938,-0.260426,0.899837
1480098868589587,-1.12949,-0.260346,0.899839
1480098868609639,-1.13016,-0.260641,0.900315
1480098868626684,-1.13043,-0.260746,0.900807
1480098868649440,-1.12979,-0.260965,0.900846
1480098868669519,-1.12935,-0.260981,0.900523
1480098868686524,-1.12951,-0.260889,0.90067
1480098868708582,-1.12951,-0.260889,0.90067
1480098868730148,-1.12951,-0.260889,0.90067
1480098868745286,-1.12965,-0.260851,0.900696
1480098868768346,-1.12949,-0.260943,0.900548
1480098868789402,-1.12965,-0.260851,0.900696
1480098868805444,-1.12949,-0.260821,0.901083
1480098868828507,-1.12901,-0.260853,0.901368
1480098868856600,-1.12824,-0.260712,0.901573
1480098868865624,-1.12752,-0.260929,0.901416
1480098868888685,-1.12704,-0.261402,0.901532
1480098868908756,-1.12765,-0.261393,0.90225
1480098868924781,-1.12725,-0.261802,0.902977
1480098868948551,-1.12607,-0.262343,0.903155
1480098868970608,-1.12568,-0.262571,0.903442
1480098868991667,-1.12547,-0.263175,0.903613
1480098869008712,-1.12567,-0.263448,0.904496
1480098869030812,-1.12611,-0.263465,0.905482
1480098869051552,-1.12607,-0.263706,0.906557
1480098869068571,-1.12597,-0.263517,0.907311
1480098869090620,-1.12536,-0.263161,0.907447
1480098869111736,-1.12536,-0.263161,0.907447
1480098869128238,-1.1255,-0.263122,0.907473
1480098869150422,-1.12497,-0.263294,0.907832
1480098869165481,-1.12359,-0.26382,0.90791
1480098869188523,-1.12232,-0.263986,0.907647
1480098869210582,-1.12104,-0.263958,0.907235
1480098869224619,-1.11926,-0.264136,0.906451
1480098869248341,-1.11695,-0.2647,0.905393
1480098869270398,-1.11549,-0.265154,0.904296
1480098869285439,-1.11548,-0.264832,0.90393
1480098869308501,-1.11582,-0.263997,0.903983
1480098869331089,-1.11534,-0.262936,0.903854
1480098869351455,-1.11336,-0.262466,0.902707
1480098869368446,-1.11227,-0.261644,0.900792
1480098869390505,-1.11224,-0.260523,0.899575
1480098869411563,-1.11265,-0.2588,0.899073
1480098869428610,-1.11179,-0.256456,0.898565
1480098869450548,-1.11052,-0.254416,0.897789
1480098869472616,-1.1104,-0.25289,0.897215
1480098869488650,-1.11117,-0.251816,0.89713
1480098869510709,-1.11161,-0.251428,0.897209
1480098869532268,-1.11161,-0.251428,0.897209
1480098869548396,-1.11086,-0.251728,0.897251
1480098869570452,-1.11086,-0.251728,0.897251
1480098869591509,-1.11064,-0.251989,0.897491
1480098869608555,-1.11056,-0.252555,0.897681
1480098869631118,-1.11065,-0.253374,0.897943
1480098869652197,-1.11098,-0.253731,0.898308
1480098869668218,-1.11116,-0.254555,0.898767
1480098869690290,-1.11125,-0.255227,0.899251
1480098869711349,-1.11174,-0.255419,0.899424
1480098869728400,-1.11167,-0.256081,0.899517
1480098869750481,-1.11219,-0.256659,0.89964
1480098869771535,-1.11267,-0.256757,0.899912
1480098869788583,-1.11267,-0.256757,0.899912
1480098869810640,-1.1129,-0.256818,0.900035
1480098869832241,-1.11301,-0.256738,0.900037
1480098869848614,-1.11301,-0.256738,0.900037
1480098869870672,-1.11322,-0.256758,0.900136
1480098869893739,-1.11321,-0.256319,0.900309
1480098869907775,-1.11328,-0.256472,0.900285
1480098869930838,-1.11408,-0.256408,0.900414
1480098869952898,-1.11504,-0.256471,0.900398
1480098869967938,-1.1159,-0.256935,0.900746
1480098869991000,-1.11637,-0.257158,0.901238
1480098870021080,-1.11597,-0.25769,0.901428
1480098870027097,-1.11594,-0.258119,0.901549
1480098870050955,-1.11673,-0.25843,0.901922
1480098870073025,-1.11691,-0.258878,0.902143
1480098870094069,-1.11691,-0.258878,0.902143
1480098870111118,-1.11701,-0.258977,0.902242
1480098870133714,-1.11648,-0.259363,0.901967
1480098870147778,-1.11646,-0.259416,0.901845
1480098870170839,-1.11658,-0.259337,0.901846
1480098870193901,-1.11667,-0.259554,0.901408
1480098870207938,-1.11713,-0.259324,0.900974
1480098870238577,-1.11742,-0.258991,0.900245
1480098870253696,-1.11718,-0.258704,0.899659
1480098870267735,-1.11728,-0.258202,0.899051
1480098870290793,-1.11687,-0.257318,0.898464
1480098870312853,-1.11615,-0.256565,0.898117
1480098870327893,-1.11513,-0.255502,0.89777
1480098870364088,-1.11433,-0.254994,0.897254
1480098870373111,-1.11389,-0.254686,0.89657
1480098870394167,-1.11441,-0.254663,0.895991
1480098870411213,-1.11429,-0.254861,0.895453
1480098870433298,-1.11467,-0.255103,0.895309
1480098870454133,-1.11578,-0.255601,0.895463
1480098870470177,-1.11665,-0.256037,0.895495
1480098870493237,-1.11656,-0.255937,0.895397
1480098870514293,-1.11566,-0.255329,0.894782
1480098870530858,-1.1147,-0.254685,0.893658
1480098870553439,-1.11599,-0.254217,0.893259
1480098870574530,-1.11701,-0.253897,0.893148
1480098870590552,-1.11689,-0.254095,0.892612
1480098870613600,-1.1159,-0.254004,0.891825
1480098870634658,-1.11503,-0.253578,0.890265
1480098870650707,-1.11536,-0.253989,0.887888
1480098870672805,-1.11756,-0.25414,0.885485
1480098870693839,-1.1213,-0.254546,0.88388
1480098870710868,-1.1244,-0.255642,0.882467
1480098870733450,-1.12758,-0.25653,0.881887
1480098870754052,-1.13025,-0.25716,0.882634
1480098870771059,-1.13249,-0.258585,0.882485
1480098870794129,-1.13538,-0.257828,0.882563
1480098870814174,-1.13508,-0.257045,0.882071
1480098870830721,-1.13252,-0.255992,0.88139
1480098870853073,-1.13101,-0.255141,0.882207
1480098870876134,-1.12935,-0.255489,0.883003
1480098870891196,-1.12629,-0.256145,0.88264
1480098870913234,-1.12345,-0.256476,0.881702
1480098870935797,-1.12132,-0.25699,0.880389
1480098870951223,-1.12027,-0.256739,0.878877
1480098870980335,-1.11848,-0.256333,0.878806
1480098870995348,-1.11476,-0.256531,0.880816
1480098871010378,-1.11127,-0.258225,0.884061
1480098871033482,-1.10951,-0.260177,0.887402
1480098871056130,-1.10818,-0.261136,0.89042
1480098871070165,-1.10819,-0.262424,0.892505
1480098871093230,-1.10626,-0.263164,0.894356
1480098871115305,-1.10228,-0.262041,0.896304
1480098871130833,-1.0996,-0.261634,0.898951
1480098871153395,-1.09676,-0.262264,0.9002
1480098871175471,-1.0934,-0.262768,0.900375
1480098871190538,-1.0913,-0.262259,0.900423
1480098871213556,-1.08939,-0.262074,0.90167
1480098871236119,-1.08637,-0.262665,0.902514
1480098871249820,-1.08376,-0.263361,0.902355
1480098871272877,-1.08212,-0.263684,0.902055
1480098871295943,-1.08251,-0.263089,0.902286
1480098871309976,-1.08251,-0.263089,0.902286
1480098871333581,-1.08145,-0.263907,0.90161
1480098871355774,-1.07946,-0.26387,0.900166
1480098871376865,-1.0784,-0.263147,0.899275
1480098871392871,-1.07782,-0.263232,0.89925
1480098871415932,-1.07738,-0.263187,0.89935
1480098871437026,-1.07574,-0.26282,0.899215
1480098871453615,-1.07419,-0.262807,0.899196
1480098871475674,-1.07344,-0.263149,0.89956
1480098871496745,-1.07216,-0.263597,0.899947
1480098871512849,-1.07135,-0.264475,0.900175
1480098871535851,-1.07086,-0.26457,0.900346
1480098871556480,-1.07122,-0.264752,0.90061
1480098871573513,-1.07145,-0.264813,0.900731
1480098871595552,-1.07136,-0.264713,0.900636
1480098871616607,-1.07136,-0.264713,0.900636
1480098871633661,-1.07264,-0.264789,0.901046
1480098871655221,-1.07443,-0.26459,0.901192
1480098871676278,-1.07709,-0.264569,0.901333
1480098871693325,-1.08137,-0.264336,0.901235
1480098871715381,-1.08715,-0.263699,0.900417
1480098871736955,-1.09339,-0.262132,0.898573
1480098871753031,-1.10109,-0.25922,0.895982
1480098871776092,-1.10785,-0.254128,0.894657
1480098871798151,-1.11169,-0.25148,0.892781
1480098871812188,-1.11431,-0.25018,0.891448
1480098871835780,-1.11752,-0.24779,0.891803
1480098871857933,-1.11567,-0.247095,0.891991
1480098871872973,-1.11353,-0.245937,0.892064
1480098871896035,-1.11102,-0.245468,0.891817
1480098871918093,-1.10981,-0.24537,0.892033
1480098871932636,-1.11051,-0.244734,0.893451
1480098871955953,-1.11259,-0.244845,0.895764
1480098871978013,-1.1142,-0.244172,0.898305
1480098871992049,-1.11673,-0.243435,0.899779
1480098872016143,-1.11992,-0.24279,0.900818
1480098872038705,-1.12224,-0.240871,0.902203
1480098872052887,-1.12184,-0.238921,0.903407
1480098872075950,-1.12178,-0.237888,0.905022
1480098872098006,-1.12166,-0.237028,0.907367
1480098872112043,-1.1214,-0.236635,0.911054
1480098872136108,-1.12086,-0.237284,0.914544
1480098872158171,-1.12142,-0.239025,0.917005
1480098872172208,-1.12214,-0.241052,0.91756
1480098872195303,-1.12432,-0.24211,0.918396
1480098872218331,-1.12439,-0.242625,0.917513
1480098872232928,-1.12399,-0.243736,0.916211
1480098872256049,-1.12348,-0.244552,0.914665
1480098872278110,-1.12461,-0.244381,0.913473
1480098872299204,-1.12635,-0.245009,0.912724
1480098872315226,-1.12637,-0.244726,0.911625
1480098872338276,-1.12588,-0.244312,0.910987
1480098872360351,-1.12513,-0.244831,0.910395
1480098872375376,-1.12458,-0.244928,0.910074
1480098872398436,-1.1246,-0.244874,0.910196
1480098872419496,-1.12488,-0.24495,0.910369
1480098872436058,-1.12602,-0.245206,0.910547
1480098872458266,-1.12602,-0.245206,0.910547
1480098872479346,-1.12584,-0.245254,0.910033
1480098872495363,-1.12539,-0.245196,0.909029
1480098872518424,-1.12581,-0.245568,0.908055
1480098872539532,-1.12709,-0.245244,0.907431
1480098872555421,-1.12686,-0.243994,0.90665
1480098872578463,-1.12649,-0.242903,0.90531
1480098872599514,-1.12737,-0.242841,0.905633
1480098872615558,-1.12938,-0.242159,0.906476
1480098872638622,-1.12991,-0.241278,0.907042
1480098872659684,-1.1292,-0.241226,0.907646
1480098872675727,-1.12844,-0.240843,0.908179
1480098872698791,-1.12652,-0.240572,0.908437
1480098872718882,-1.12587,-0.240803,0.90958
1480098872735917,-1.12561,-0.240318,0.911484
1480098872758535,-1.12471,-0.239376,0.913928
1480098872780577,-1.1221,-0.238899,0.915807
1480098872795618,-1.11828,-0.240393,0.915524
1480098872817678,-1.11771,-0.243037,0.915164
1480098872840743,-1.11709,-0.245109,0.913168
1480098872861300,-1.11827,-0.245492,0.912509
1480098872878345,-1.11572,-0.244398,0.911186
1480098872900404,-1.11341,-0.242768,0.909631
1480098872915469,-1.11304,-0.241552,0.908836
1480098872938544,-1.11431,-0.24101,0.908841
1480098872960713,-1.11559,-0.240172,0.909289
1480098872974776,-1.11625,-0.240465,0.909751
1480098872997815,-1.11713,-0.241933,0.910302
1480098873020874,-1.11924,-0.243037,0.91096
1480098873035449,-1.12036,-0.24397,0.911277
1480098873058568,-1.12044,-0.244217,0.911154
1480098873080624,-1.11985,-0.243585,0.910959
1480098873094712,-1.11925,-0.243007,0.910643
1480098873118725,-1.12052,-0.242808,0.910575
1480098873140789,-1.12221,-0.242398,0.910681
1480098873155255,-1.12257,-0.242348,0.910487
1480098873178320,-1.12273,-0.241905,0.909952
1480098873200375,-1.12349,-0.241472,0.909347
1480098873215432,-1.12499,-0.241455,0.908866
1480098873238534,-1.12551,-0.241337,0.908381
1480098873261184,-1.12497,-0.240592,0.907674
1480098873281223,-1.12358,-0.240443,0.906376
1480098873298264,-1.12251,-0.239983,0.905156
1480098873320323,-1.12231,-0.239141,0.903894
1480098873341884,-1.12161,-0.238655,0.902045
1480098873361438,-1.12278,-0.238852,0.901245
1480098873380492,-1.12485,-0.23953,0.900835
1480098873401545,-1.12642,-0.240514,0.900717
1480098873425608,-1.12672,-0.241097,0.900303
1480098873441163,-1.12707,-0.241916,0.900059
1480098873461279,-1.12848,-0.241911,0.900483
1480098873478311,-1.12952,-0.242008,0.900977
1480098873500370,-1.12952,-0.242008,0.900977
1480098873521469,-1.1294,-0.241992,0.901073
1480098873539049,-1.12928,-0.242071,0.901072
1480098873561163,-1.1282,-0.242456,0.900577
1480098873582218,-1.12773,-0.242799,0.900134
1480098873598259,-1.12778,-0.243007,0.899988
1480098873620363,-1.12759,-0.243772,0.899645
1480098873641879,-1.12768,-0.244581,0.898817
1480098873658431,-1.12761,-0.245139,0.897916
1480098873680489,-1.1261,-0.245409,0.896542
1480098873703552,-1.12568,-0.245417,0.89513
1480098873718591,-1.12575,-0.245394,0.893432
1480098873740706,-1.12683,-0.245183,0.892181
1480098873763428,-1.12658,-0.244508,0.891308
1480098873778466,-1.12596,-0.244569,0.890479
1480098873808558,-1.12701,-0.244643,0.890658
1480098873823595,-1.12524,-0.245324,0.891148
1480098873844678,-1.12309,-0.247141,0.891486
1480098873860300,-1.12403,-0.248648,0.892556
1480098873883344,-1.12581,-0.249192,0.892403
1480098873897380,-1.1283,-0.249332,0.892601
1480098873920443,-1.12981,-0.249163,0.894973
1480098873943555,-1.12853,-0.248918,0.89972
1480098873964153,-1.12384,-0.247465,0.905695
1480098873980201,-1.11483,-0.246127,0.909778
1480098874003249,-1.10726,-0.247666,0.909702
1480098874024344,-1.10086,-0.247934,0.905078
1480098874040932,-1.10059,-0.246774,0.898335
1480098874063041,-1.09931,-0.244273,0.893119
1480098874084098,-1.09783,-0.243054,0.889112
1480098874101143,-1.10052,-0.243244,0.887525
1480098874123200,-1.10574,-0.244018,0.886417
1480098874137763,-1.11055,-0.245478,0.885292
1480098874160849,-1.11402,-0.245872,0.884165
1480098874182906,-1.11856,-0.246164,0.882787
1480098874203964,-1.1236,-0.245681,0.880948
1480098874221009,-1.12677,-0.244906,0.877533
1480098874243574,-1.12698,-0.24381,0.873327
1480098874264521,-1.12563,-0.242631,0.870748
1480098874280520,-1.12467,-0.243048,0.869727
1480098874303580,-1.12409,-0.244364,0.870817
1480098874324653,-1.12278,-0.245573,0.874044
1480098874340695,-1.12889,-0.248152,0.878533
1480098874363348,-1.13817,-0.249415,0.882096
1480098874384407,-1.14381,-0.247533,0.884236
1480098874400447,-1.14451,-0.245089,0.884912
1480098874423530,-1.1469,-0.246385,0.886771
1480098874444600,-1.14978,-0.248708,0.889553
1480098874460245,-1.14715,-0.249486,0.890862
1480098874483303,-1.14219,-0.248439,0.890425
1480098874504408,-1.1372,-0.24753,0.888986
1480098874520401,-1.1328,-0.247972,0.887933
1480098874543509,-1.1305,-0.248635,0.888678
1480098874563972,-1.13115,-0.248617,0.889873
1480098874588028,-1.13279,-0.249027,0.891445
1480098874603068,-1.13361,-0.249701,0.892549
1480098874624161,-1.13344,-0.250042,0.893178
1480098874640708,-1.12998,-0.250519,0.891749
1480098874662807,-1.12561,-0.249281,0.887263
1480098874685869,-1.12005,-0.245181,0.877784
1480098874699906,-1.11032,-0.241922,0.86266
1480098874722972,-1.10161,-0.237523,0.846442
1480098874746120,-1.09863,-0.228982,0.834147
1480098874760163,-1.09744,-0.220116,0.825875
1480098874783223,-1.10274,-0.215349,0.821701
1480098874805280,-1.10598,-0.212938,0.820414
1480098874820358,-1.10624,-0.212704,0.821431
1480098874843422,-1.10692,-0.213731,0.825255
1480098874865602,-1.11226,-0.215429,0.832462
1480098874888666,-1.12259,-0.218006,0.842634
1480098874903704,-1.13305,-0.220936,0.853538
1480098874925761,-1.13849,-0.225109,0.86279
1480098874946423,-1.13967,-0.228654,0.870141
1480098874963550,-1.13951,-0.231258,0.876822
1480098874985607,-1.13897,-0.233018,0.8809
1480098875006663,-1.13547,-0.233609,0.882676
1480098875023708,-1.13054,-0.233265,0.882478
1480098875045811,-1.12464,-0.232539,0.880724
1480098875060447,-1.12196,-0.23114,0.878567
1480098875083510,-1.11759,-0.22948,0.874042
1480098875105566,-1.11572,-0.22839,0.86873
1480098875126622,-1.11569,-0.225738,0.864657
1480098875143678,-1.11696,-0.223803,0.861723
1480098875165732,-1.11817,-0.223222,0.859651
1480098875186788,-1.11841,-0.22278,0.85806
1480098875202831,-1.11888,-0.222973,0.856216
1480098875225892,-1.12032,-0.223319,0.85468
1480098875246961,-1.12278,-0.222564,0.854049
1480098875263008,-1.12272,-0.221639,0.853113
1480098875286074,-1.12051,-0.221313,0.850194
1480098875307127,-1.11717,-0.219925,0.845691
1480098875323168,-1.11458,-0.217922,0.841097
1480098875345747,-1.11278,-0.215346,0.836437
1480098875366978,-1.11255,-0.212801,0.831781
1480098875383005,-1.11292,-0.210689,0.826861
1480098875420109,-1.11199,-0.207961,0.82168
1480098875427128,-1.11218,-0.204737,0.817672
1480098875443674,-1.11457,-0.201862,0.816666
1480098875465809,-1.11764,-0.199526,0.818096
1480098875486865,-1.11923,-0.198795,0.820498
1480098875502920,-1.11981,-0.198613,0.822749
1480098875525985,-1.12172,-0.198362,0.82497
1480098875546588,-1.12506,-0.198038,0.827367
1480098875562712,-1.12832,-0.197807,0.830262
1480098875585771,-1.13161,-0.197362,0.833497
1480098875607832,-1.1345,-0.198177,0.837274
1480098875622871,-1.13605,-0.199692,0.840252
1480098875645989,-1.13651,-0.200301,0.841914
1480098875668672,-1.13825,-0.200424,0.842658
1480098875683712,-1.14149,-0.200096,0.845513
1480098875705769,-1.14136,-0.199166,0.849671
1480098875735864,-1.13899,-0.202407,0.853872
1480098875748901,-1.13786,-0.205079,0.856323
1480098875765946,-1.13969,-0.206004,0.859038
1480098875788004,-1.14096,-0.206467,0.860932
1480098875802080,-1.13996,-0.206319,0.862152
1480098875826114,-1.13834,-0.206311,0.864016
1480098875848699,-1.13726,-0.207668,0.866673
1480098875862746,-1.13724,-0.209148,0.869063
1480098875885795,-1.13816,-0.210088,0.870984
1480098875907852,-1.13881,-0.210216,0.872872
1480098875922894,-1.13926,-0.209764,0.874624
1480098875945980,-1.13947,-0.2104,0.87591
1480098875968583,-1.13962,-0.210914,0.876789
1480098875982618,-1.14033,-0.21058,0.877464
1480098876005678,-1.1408,-0.210649,0.878158
1480098876027737,-1.14147,-0.210839,0.879185
1480098876042790,-1.14192,-0.210875,0.880313
1480098876065483,-1.14119,-0.211001,0.881056
1480098876088540,-1.14171,-0.210851,0.88257
1480098876109596,-1.14274,-0.210494,0.884447
1480098876125638,-1.14238,-0.210904,0.886151
1480098876148681,-1.14163,-0.21145,0.889035
1480098876168760,-1.14241,-0.211024,0.893908
1480098876185765,-1.14105,-0.21123,0.898838
1480098876207858,-1.13922,-0.21109,0.903033
1480098876228920,-1.1371,-0.210307,0.90698
1480098876246435,-1.13606,-0.21042,0.910871
1480098876268572,-1.13671,-0.209867,0.914375
1480098876289628,-1.13544,-0.209841,0.916674
1480098876305670,-1.13378,-0.210533,0.917874
1480098876327739,-1.13393,-0.210639,0.919262
1480098876349397,-1.13496,-0.210676,0.920962
1480098876365445,-1.13473,-0.211474,0.922031
1480098876388539,-1.13525,-0.21246,0.922751
1480098876410557,-1.13611,-0.212639,0.923843
1480098876425596,-1.13652,-0.212895,0.924498
1480098876448212,-1.13652,-0.213116,0.924961
1480098876469286,-1.13409,-0.213809,0.924263
1480098876485312,-1.13209,-0.214284,0.922978
1480098876508372,-1.13317,-0.215582,0.921932
1480098876530935,-1.13463,-0.216062,0.920649
1480098876545975,-1.13487,-0.21467,0.918877
1480098876568673,-1.13396,-0.213399,0.917186
1480098876590710,-1.13299,-0.213518,0.916558
1480098876605750,-1.13416,-0.213101,0.916919
1480098876627849,-1.13551,-0.213026,0.917253
1480098876650583,-1.13606,-0.213515,0.917172
1480098876664619,-1.13616,-0.214078,0.916655
1480098876688693,-1.13574,-0.214903,0.91531
1480098876717759,-1.13502,-0.214881,0.912805
1480098876724779,-1.13571,-0.214607,0.909448
1480098876747874,-1.1346,-0.214764,0.906124
1480098876770936,-1.13513,-0.216152,0.902882
1480098876784975,-1.13876,-0.217125,0.899352
1480098876808034,-1.14257,-0.218245,0.895693
1480098876831097,-1.14565,-0.218619,0.892341
1480098876845137,-1.14771,-0.218359,0.890805
1480098876868040,-1.1498,-0.218392,0.889319
1480098876891140,-1.15044,-0.216328,0.888966
1480098876905139,-1.15087,-0.213869,0.889361
1480098876928209,-1.15038,-0.212299,0.889823
1480098876951016,-1.14873,-0.210333,0.890651
1480098876965053,-1.14617,-0.208261,0.89168
1480098876988114,-1.14491,-0.207806,0.893061
1480098877011177,-1.14456,-0.207533,0.895258
1480098877031781,-1.14338,-0.208068,0.898277
1480098877047832,-1.14115,-0.210587,0.899544
1480098877070895,-1.13847,-0.211422,0.897612
1480098877091950,-1.13761,-0.210477,0.893978
1480098877107992,-1.13696,-0.209467,0.888977
1480098877131055,-1.13682,-0.208501,0.884369
1480098877151792,-1.13779,-0.207971,0.881584
1480098877167795,-1.13783,-0.207972,0.880504
1480098877190856,-1.13753,-0.208868,0.878957
1480098877211915,-1.13771,-0.208756,0.876775
1480098877227955,-1.1394,-0.210939,0.873436
1480098877250671,-1.14181,-0.216515,0.865485
1480098877271775,-1.14668,-0.223967,0.8539
1480098877287786,-1.15652,-0.232475,0.842249
1480098877310832,-1.17139,-0.236698,0.836272
1480098877331959,-1.18309,-0.235806,0.834235
1480098877347605,-1.18506,-0.234045,0.831608
1480098877370667,-1.17871,-0.231585,0.825022
1480098877391724,-1.17333,-0.227654,0.817067
1480098877407767,-1.17195,-0.223378,0.810472
1480098877430828,-1.17246,-0.219878,0.805299
1480098877451504,-1.17098,-0.216796,0.802453
1480098877467473,-1.16711,-0.214632,0.80153
1480098877490534,-1.16372,-0.214345,0.802386
1480098877513598,-1.16186,-0.214394,0.804361
1480098877528653,-1.16128,-0.214185,0.807245
1480098877550362,-1.16135,-0.214432,0.810394
1480098877573422,-1.16181,-0.215287,0.813783
1480098877588462,-1.16276,-0.215815,0.816835
1480098877610526,-1.16529,-0.216607,0.819585
1480098877633600,-1.16841,-0.217106,0.822211
1480098877647262,-1.1708,-0.218076,0.824738
1480098877670332,-1.17204,-0.220005,0.827489
1480098877693373,-1.17241,-0.2225,0.830443
1480098877707410,-1.17235,-0.225353,0.833022
1480098877731016,-1.17282,-0.228358,0.835126
1480098877753216,-1.17384,-0.230552,0.836889
1480098877767252,-1.17492,-0.232521,0.837902
1480098877790327,-1.17648,-0.234215,0.838459
1480098877813375,-1.17745,-0.235415,0.838596
1480098877827410,-1.17993,-0.236864,0.839042
1480098877850112,-1.18218,-0.237859,0.839857
1480098877873173,-1.18449,-0.238663,0.840722
1480098877887211,-1.18638,-0.239369,0.842144
1480098877911274,-1.1878,-0.240546,0.843398
1480098877933342,-1.18963,-0.24119,0.844751
1480098877954406,-1.19115,-0.241712,0.845906
1480098877970445,-1.19304,-0.241629,0.846776
1480098877993508,-1.19529,-0.240873,0.847813
1480098878014563,-1.19788,-0.240821,0.848829
1480098878031110,-1.20018,-0.240436,0.849525
1480098878053265,-1.20306,-0.240059,0.850456
1480098878074323,-1.20601,-0.239589,0.851338
1480098878090366,-1.20849,-0.238946,0.85239
1480098878113430,-1.21002,-0.238419,0.853289
1480098878134515,-1.21062,-0.237949,0.854152
1480098878150246,-1.2112,-0.23719,0.854956
1480098878173306,-1.21132,-0.236401,0.855859
1480098878194366,-1.21097,-0.235642,0.856744
1480098878210405,-1.2103,-0.234277,0.857555
1480098878233566,-1.20999,-0.233099,0.858311
1480098878254438,-1.21033,-0.232091,0.858838
1480098878270443,-1.21064,-0.230795,0.859309
1480098878293505,-1.21074,-0.230126,0.859981
1480098878314585,-1.21094,-0.229841,0.860811
1480098878330602,-1.21116,-0.229337,0.861966
1480098878354301,-1.21163,-0.229877,0.863188
1480098878374381,-1.21217,-0.230124,0.864546
1480098878390391,-1.21189,-0.230518,0.865666
1480098878413449,-1.21167,-0.23094,0.866502
1480098878436085,-1.21135,-0.231266,0.867238
1480098878450264,-1.21135,-0.231266,0.867238
1480098878473326,-1.21162,-0.231054,0.867361
1480098878495384,-1.21195,-0.23051,0.866951
1480098878510426,-1.21146,-0.230013,0.866396
1480098878533531,-1.2103,-0.229786,0.865418
1480098878555207,-1.20953,-0.228864,0.864744
1480098878570284,-1.20797,-0.228323,0.863559
1480098878593309,-1.20625,-0.227681,0.862531
1480098878615367,-1.20431,-0.226917,0.861497
1480098878630407,-1.20205,-0.226395,0.860511
1480098878653077,-1.2004,-0.225805,0.859568
1480098878676139,-1.19907,-0.224683,0.858528
1480098878690177,-1.19704,-0.223935,0.857175
1480098878713237,-1.19534,-0.222883,0.855898
1480098878735850,-1.19418,-0.221766,0.854471
1480098878750015,-1.19294,-0.220551,0.85295
1480098878773076,-1.19144,-0.219542,0.85131
1480098878796138,-1.19025,-0.21825,0.849607
1480098878810176,-1.18915,-0.217748,0.847874
1480098878833265,-1.18869,-0.217351,0.846464
1480098878855914,-1.18831,-0.21711,0.845035
1480098878877971,-1.18769,-0.216866,0.843368
1480098878893012,-1.1875,-0.216706,0.841923
1480098878916091,-1.18794,-0.216617,0.840777
1480098878937167,-1.18818,-0.216348,0.839742
1480098878952856,-1.18912,-0.21615,0.839196
1480098878975914,-1.18975,-0.215943,0.838666
1480098878996975,-1.18984,-0.215423,0.837556
1480098879013013,-1.19077,-0.214119,0.836386
1480098879036102,-1.19172,-0.213301,0.835081
1480098879056768,-1.19305,-0.212421,0.833573
1480098879072799,-1.19414,-0.211534,0.832272
1480098879095860,-1.19422,-0.210886,0.830906
1480098879116918,-1.19462,-0.209962,0.829474
1480098879133463,-1.19508,-0.208718,0.82783
1480098879155819,-1.19419,-0.20772,0.825998
1480098879176875,-1.1923,-0.207055,0.824012
1480098879192917,-1.19023,-0.206302,0.822048
1480098879215978,-1.18851,-0.204839,0.820675
1480098879237082,-1.18814,-0.202938,0.819679
1480098879252714,-1.18773,-0.200918,0.818731
1480098879275729,-1.1857,-0.199054,0.817437
1480098879296831,-1.1835,-0.196765,0.815798
1480098879312828,-1.18259,-0.19481,0.814252
1480098879335895,-1.18222,-0.193278,0.812738
1480098879356661,-1.18223,-0.191523,0.811674
1480098879373703,-1.18134,-0.189891,0.810533
1480098879402778,-1.18081,-0.188634,0.809465
1480098879417810,-1.17957,-0.187382,0.808605
1480098879433367,-1.17807,-0.186234,0.807722
1480098879455932,-1.17737,-0.184869,0.80715
1480098879482001,-1.17802,-0.183267,0.806749
1480098879493032,-1.1779,-0.181813,0.806182
1480098879516133,-1.17704,-0.180819,0.805958
1480098879538656,-1.17555,-0.179648,0.80555
1480098879552798,-1.17416,-0.178515,0.805355
1480098879575860,-1.17357,-0.177167,0.805466
1480098879597918,-1.17293,-0.175544,0.805838
1480098879618974,-1.17149,-0.174237,0.80614
1480098879636027,-1.17008,-0.172523,0.806638
1480098879658594,-1.16867,-0.170946,0.807394
1480098879672626,-1.167,-0.169551,0.808499
1480098879695687,-1.16537,-0.167888,0.810056
1480098879717814,-1.16338,-0.166144,0.811598
1480098879732823,-1.16171,-0.164121,0.813526
1480098879755708,-1.15972,-0.162536,0.814869
1480098879777800,-1.15637,-0.16117,0.816027
1480098879792807,-1.15323,-0.160225,0.816779
1480098879815868,-1.15172,-0.159103,0.817983
1480098879838443,-1.15062,-0.158418,0.81931
1480098879851970,-1.14925,-0.157448,0.821139
1480098879876038,-1.14721,-0.157475,0.823704
1480098879898089,-1.14529,-0.158407,0.82582
1480098879919179,-1.14485,-0.157722,0.8277
1480098879935695,-1.14524,-0.158092,0.829176
1480098879958207,-1.14465,-0.158126,0.830546
1480098879979269,-1.14347,-0.156746,0.831699
1480098879995307,-1.14131,-0.155265,0.832909
1480098880018367,-1.13924,-0.154162,0.834716
1480098880039440,-1.13825,-0.153138,0.83727
1480098880055147,-1.13906,-0.15286,0.840803
1480098880078207,-1.14011,-0.151903,0.845066
1480098880099264,-1.13979,-0.150857,0.849098
1480098880115307,-1.13797,-0.150773,0.851986
1480098880138391,-1.13622,-0.150318,0.855583
1480098880159202,-1.13392,-0.149533,0.859401
1480098880175280,-1.13097,-0.149599,0.863696
1480098880198311,-1.12921,-0.150349,0.867767
1480098880219398,-1.12785,-0.150193,0.871554
1480098880235908,-1.12583,-0.14934,0.874955
1480098880258046,-1.12369,-0.148136,0.877619
1480098880279103,-1.12248,-0.146843,0.880403
1480098880295194,-1.12183,-0.146453,0.883049
1480098880325225,-1.11984,-0.145949,0.885599
1480098880340815,-1.11719,-0.144514,0.888088
1480098880354867,-1.11415,-0.142747,0.890397
1480098880377929,-1.11236,-0.141182,0.893278
1480098880400997,-1.10978,-0.14012,0.895891
1480098880416082,-1.10679,-0.139485,0.898469
1480098880438613,-1.104,-0.138384,0.90099
1480098880461240,-1.10192,-0.137771,0.903917
1480098880475277,-1.10048,-0.137428,0.906939
1480098880498340,-1.09897,-0.137138,0.909653
1480098880520418,-1.09626,-0.137314,0.911449
1480098880534937,-1.09401,-0.137249,0.913094
1480098880558067,-1.093,-0.136467,0.914899
1480098880581129,-1.09096,-0.136309,0.916416
1480098880595166,-1.08884,-0.136267,0.917966
1480098880618228,-1.08776,-0.135917,0.919393
1480098880640791,-1.0876,-0.135742,0.920947
1480098880655432,-1.08724,-0.135461,0.92252
1480098880677498,-1.08639,-0.135599,0.92386
1480098880700549,-1.08524,-0.136109,0.924705
1480098880714606,-1.08497,-0.13612,0.925237
1480098880739155,-1.08487,-0.136115,0.925826
1480098880760306,-1.08487,-0.136115,0.925826
1480098880775345,-1.08487,-0.136115,0.925826
1480098880798407,-1.08506,-0.1364,0.926383
1480098880820465,-1.08403,-0.136775,0.926868
1480098880842036,-1.08317,-0.136235,0.927006
1480098880857684,-1.08331,-0.135962,0.927356
1480098880880742,-1.08414,-0.135873,0.928067
1480098880901798,-1.08414,-0.135873,0.928067
1480098880917840,-1.08312,-0.136271,0.928105
1480098880940906,-1.08259,-0.136404,0.928622
1480098880962230,-1.08306,-0.136307,0.929204
1480098880978268,-1.083,-0.136714,0.929746
1480098881000326,-1.08347,-0.136758,0.930101
1480098881021419,-1.08358,-0.13668,0.930096
1480098881038464,-1.08265,-0.136831,0.930321
1480098881061132,-1.08218,-0.136738,0.930872
1480098881082163,-1.08195,-0.136665,0.931212
1480098881098201,-1.08181,-0.136708,0.931191
1480098881120262,-1.08181,-0.136708,0.931191
1480098881141823,-1.08181,-0.136708,0.931191
1480098881157869,-1.08189,-0.136805,0.931279
1480098881180947,-1.08153,-0.136863,0.931497
1480098881201986,-1.08061,-0.136963,0.931849
1480098881218029,-1.08014,-0.137301,0.932201
1480098881241120,-1.08016,-0.137307,0.932686
1480098881263179,-1.0804,-0.137709,0.933179
1480098881277217,-1.0809,-0.138076,0.933587
1480098881308301,-1.08112,-0.138128,0.933696
1480098881323339,-1.07997,-0.13823,0.933813
1480098881338473,-1.08062,-0.138183,0.934801
1480098881360582,-1.08149,-0.138677,0.936055
1480098881382684,-1.0818,-0.139266,0.937318
1480098881397688,-1.08125,-0.139509,0.937582
1480098881420744,-1.07942,-0.140065,0.936473
1480098881443347,-1.07762,-0.141534,0.934539
1480098881457412,-1.07515,-0.142149,0.931994
1480098881480472,-1.07303,-0.142392,0.929656
1480098881503533,-1.07153,-0.141739,0.927777
1480098881517584,-1.0719,-0.140436,0.927259
1480098881540684,-1.07239,-0.140246,0.927163
1480098881563326,-1.07239,-0.140246,0.927163
1480098881577364,-1.07157,-0.14032,0.927385
1480098881601427,-1.07085,-0.140579,0.927593
1480098881623486,-1.07094,-0.141166,0.927834
1480098881637574,-1.07095,-0.141456,0.92786
1480098881660249,-1.07117,-0.141939,0.927767
1480098881683309,-1.07117,-0.141939,0.927767
1480098881697348,-1.07128,-0.14186,0.927761
1480098881720408,-1.07128,-0.14186,0.927761
1480098881743473,-1.07128,-0.14186,0.927761
1480098881771218,-1.07128,-0.14186,0.927761
1480098881780224,-1.07122,-0.14243,0.927626
1480098881803275,-1.07184,-0.14281,0.927926
1480098881824331,-1.07184,-0.14281,0.927926
1480098881840877,-1.07148,-0.143211,0.928043
1480098881863016,-1.07162,-0.143168,0.928064
1480098881884072,-1.0722,-0.143451,0.927982
1480098881901118,-1.07264,-0.14369,0.92798
1480098881923176,-1.07348,-0.143764,0.928015
1480098881944277,-1.07375,-0.144108,0.927856
1480098881960862,-1.07375,-0.144108,0.927856
1480098881982920,-1.07375,-0.144108,0.927856
1480098882003975,-1.07375,-0.144108,0.927856
1480098882021021,-1.07449,-0.144839,0.927952
1480098882043675,-1.07526,-0.145194,0.927827
1480098882063829,-1.0756,-0.145888,0.927759
1480098882080872,-1.07645,-0.146252,0.927824
1480098882102929,-1.07672,-0.146278,0.928096
1480098882124002,-1.07675,-0.146804,0.92828
1480098882141074,-1.07751,-0.147482,0.928506
1480098882162678,-1.07773,-0.148167,0.928545
1480098882183784,-1.07824,-0.149255,0.928786
1480098882200779,-1.07956,-0.150182,0.928912
1480098882222840,-1.08042,-0.151064,0.928683
1480098882245902,-1.0816,-0.152064,0.928333
1480098882261039,-1.08289,-0.152897,0.928082
1480098882283096,-1.08363,-0.153771,0.927963
1480098882305172,-1.08407,-0.154852,0.928022
1480098882320196,-1.08477,-0.156063,0.927324
1480098882343267,-1.08537,-0.157643,0.926664
1480098882365962,-1.08623,-0.15887,0.92635
1480098882379998,-1.08801,-0.159928,0.926271
1480098882403059,-1.09005,-0.161729,0.925825
1480098882426121,-1.09169,-0.16427,0.925705
1480098882440163,-1.09308,-0.166857,0.926147
1480098882462874,-1.09417,-0.169272,0.926837
1480098882486936,-1.09509,-0.171259,0.927677
1480098882499971,-1.09686,-0.17278,0.928535
1480098882523031,-1.09858,-0.174782,0.929378
1480098882546095,-1.10091,-0.176171,0.930227
1480098882559726,-1.10213,-0.176884,0.931154
1480098882582788,-1.10289,-0.177936,0.931648
1480098882605852,-1.1037,-0.178529,0.931717
1480098882619885,-1.10492,-0.179155,0.931967
1480098882643488,-1.10635,-0.179799,0.932307
1480098882665075,-1.10772,-0.180261,0.932362
1480098882680114,-1.10892,-0.181179,0.932166
1480098882703174,-1.10976,-0.182084,0.931835
1480098882725244,-1.11118,-0.182792,0.931275
1480098882746848,-1.11235,-0.183622,0.930697
1480098882762895,-1.11345,-0.184499,0.930292
1480098882785957,-1.11568,-0.18554,0.929336
1480098882807012,-1.11823,-0.187079,0.928512
1480098882823055,-1.11991,-0.189019,0.928097
1480098882846121,-1.12116,-0.191422,0.927959
1480098882866231,-1.12124,-0.193939,0.927455
1480098882883275,-1.12179,-0.196196,0.926954
1480098882905336,-1.12375,-0.19819,0.927165
1480098882934431,-1.12661,-0.200813,0.927995
1480098882943450,-1.12749,-0.202407,0.928785
1480098882965256,-1.12833,-0.203303,0.930032
1480098882986296,-1.12767,-0.204258,0.93135
1480098883003341,-1.12768,-0.205194,0.933226
1480098883025400,-1.12719,-0.206716,0.934979
1480098883031416,-1.12796,-0.208867,0.937029
1480098883053128,-1.13082,-0.211599,0.93876
1480098883068230,-1.13235,-0.214044,0.939929
1480098883091228,-1.13276,-0.215973,0.940602
1480098883113325,-1.13482,-0.217949,0.941365
1480098883128327,-1.13762,-0.219735,0.942305
1480098883151414,-1.13961,-0.221463,0.943208
1480098883182477,-1.13953,-0.222771,0.943899
1480098883188494,-1.13917,-0.224164,0.945307
1480098883210587,-1.13966,-0.225317,0.947555
1480098883233683,-1.14094,-0.22684,0.949611
1480098883248236,-1.14122,-0.229114,0.950957
1480098883271351,-1.14065,-0.231139,0.951758
1480098883293437,-1.14055,-0.232683,0.952435
1480098883308493,-1.1413,-0.234157,0.953291
1480098883331506,-1.14284,-0.235769,0.9544
1480098883353612,-1.14307,-0.237364,0.95464
1480098883368662,-1.14277,-0.239112,0.95458
1480098883390737,-1.14327,-0.240278,0.954175
1480098883413772,-1.14331,-0.241651,0.953546
1480098883428811,-1.14291,-0.243056,0.953358
1480098883451078,-1.14212,-0.243789,0.953832
1480098883473172,-1.14147,-0.244855,0.954583
1480098883490163,-1.14139,-0.245661,0.955884
1480098883511219,-1.14137,-0.246082,0.957431
1480098883533826,-1.14067,-0.247126,0.958782
1480098883550364,-1.14011,-0.24813,0.960158
1480098883571398,-1.14088,-0.248991,0.961872
1480098883593489,-1.14177,-0.250508,0.962976
1480098883609491,-1.14143,-0.251712,0.963491
1480098883630545,-1.14071,-0.252774,0.963278
1480098883653646,-1.13974,-0.254777,0.962772
1480098883669655,-1.13998,-0.256839,0.962061
1480098883690712,-1.14016,-0.258171,0.961462
1480098883714776,-1.13942,-0.258891,0.961316
1480098883729815,-1.14,-0.259528,0.962159
1480098883751454,-1.14111,-0.260258,0.962989
1480098883773481,-1.14067,-0.261088,0.963049
1480098883789544,-1.13995,-0.26126,0.963315
1480098883810586,-1.13978,-0.261418,0.963814
1480098883833688,-1.13946,-0.262164,0.963875
1480098883849875,-1.13789,-0.262285,0.963727
1480098883870938,-1.13672,-0.26209,0.963855
1480098883893005,-1.13668,-0.261703,0.963898
1480098883910035,-1.13655,-0.261413,0.963641
1480098883931135,-1.13478,-0.261468,0.963515
1480098883953763,-1.13412,-0.261203,0.964153
1480098883971773,-1.13401,-0.261074,0.964798
1480098883990825,-1.1336,-0.261852,0.96498
1480098884020904,-1.13261,-0.26227,0.964675
1480098884030929,-1.13257,-0.262442,0.965076
1480098884050623,-1.13317,-0.262866,0.965495
1480098884080725,-1.13422,-0.263177,0.965689
1480098884095793,-1.13436,-0.263136,0.965713
1480098884110784,-1.13404,-0.263175,0.965285
1480098884133887,-1.13415,-0.263091,0.965286
1480098884156453,-1.13401,-0.263132,0.965261
1480098884171479,-1.13324,-0.263167,0.96525
1480098884193539,-1.13235,-0.262761,0.965205
1480098884215600,-1.13188,-0.262478,0.965268
1480098884230639,-1.13184,-0.262488,0.965121
1480098884253205,-1.13144,-0.261979,0.964906
1480098884276303,-1.13042,-0.261711,0.964738
1480098884291352,-1.13009,-0.261161,0.964702
1480098884313412,-1.13023,-0.26112,0.964727
1480098884336443,-1.13023,-0.26112,0.964727
1480098884350957,-1.12953,-0.261209,0.964796
1480098884373013,-1.12876,-0.261095,0.965011
1480098884396123,-1.12886,-0.261193,0.965113
1480098884411121,-1.12843,-0.261071,0.965007
1480098884433775,-1.12786,-0.260839,0.964747
1480098884456182,-1.12717,-0.260466,0.964361
1480098884471219,-1.12693,-0.259734,0.964074
1480098884493290,-1.1266,-0.258475,0.963556
1480098884516341,-1.12659,-0.25696,0.962688
1480098884531381,-1.12688,-0.254772,0.961195
1480098884553457,-1.1265,-0.252996,0.960153
1480098884575499,-1.1263,-0.251538,0.960189
1480098884590578,-1.12601,-0.250691,0.960607
1480098884616599,-1.12462,-0.250848,0.9612
1480098884639211,-1.1244,-0.251086,0.962199
1480098884650889,-1.12575,-0.251169,0.963005
1480098884673950,-1.12653,-0.250986,0.963233
1480098884696047,-1.12679,-0.250431,0.96313
1480098884712051,-1.12762,-0.249305,0.962901
1480098884733612,-1.12887,-0.248417,0.962226
1480098884755760,-1.1307,-0.247248,0.961127
1480098884772796,-1.13156,-0.246465,0.959405
1480098884793851,-1.13109,-0.246723,0.957636
1480098884815912,-1.13097,-0.247138,0.956444
1480098884832960,-1.13134,-0.248255,0.955459
1480098884853118,-1.13019,-0.249596,0.954294
1480098884876180,-1.12817,-0.24998,0.953512
1480098884892224,-1.12629,-0.249639,0.95325
1480098884916286,-1.12408,-0.248992,0.952639
1480098884936385,-1.12315,-0.247937,0.951862
1480098884952063,-1.12353,-0.24702,0.951412
1480098884973120,-1.12504,-0.246391,0.951017
1480098884996190,-1.12785,-0.246235,0.951175
1480098885018240,-1.13032,-0.246972,0.951168
1480098885033785,-1.13304,-0.247865,0.951541
1480098885055921,-1.13582,-0.248843,0.951968
1480098885073971,-1.13823,-0.249805,0.95225
1480098885093023,-1.14237,-0.25012,0.953347
1480098885116100,-1.14693,-0.250462,0.954304
1480098885134174,-1.1499,-0.251062,0.954138
1480098885153914,-1.15196,-0.251556,0.953487
1480098885175985,-1.15497,-0.251376,0.952644
1480098885194023,-1.1581,-0.251367,0.951488
1480098885213049,-1.16088,-0.25139,0.950208
1480098885236115,-1.16275,-0.252051,0.948951
1480098885254170,-1.16464,-0.253007,0.948725
1480098885273217,-1.1665,-0.253673,0.949206
1480098885296318,-1.16715,-0.254582,0.949495
1480098885314327,-1.1656,-0.255944,0.949272
1480098885333920,-1.16369,-0.256988,0.94898
1480098885355664,-1.16375,-0.258091,0.949135
1480098885373697,-1.16558,-0.259139,0.949735
1480098885393751,-1.16759,-0.26041,0.950104
1480098885415819,-1.16977,-0.26251,0.950483
1480098885433899,-1.17324,-0.26374,0.951329
1480098885453928,-1.17781,-0.264509,0.952676
1480098885475975,-1.18233,-0.266093,0.953942
1480098885494008,-1.18585,-0.267987,0.955007
1480098885513111,-1.18841,-0.27025,0.956353
1480098885536146,-1.19039,-0.272931,0.95791
1480098885558791,-1.19226,-0.275114,0.959545
1480098885573832,-1.19354,-0.277547,0.960926
1480098885595926,-1.19337,-0.280075,0.961848
1480098885613938,-1.19266,-0.282406,0.962862
1480098885633585,-1.19261,-0.284774,0.964212
1480098885655702,-1.19281,-0.287398,0.965724
1480098885678758,-1.19337,-0.290152,0.967163
1480098885694772,-1.19336,-0.293001,0.967938
1480098885715819,-1.19426,-0.29602,0.968772
1480098885738901,-1.19671,-0.298901,0.969296
1480098885754475,-1.19929,-0.302099,0.969672
1480098885775541,-1.20114,-0.305161,0.970373
1480098885798622,-1.20126,-0.306592,0.970835
1480098885814625,-1.19949,-0.308023,0.970372
1480098885836212,-1.19853,-0.308759,0.970438
1480098885858920,-1.19889,-0.309459,0.971292
1480098885874937,-1.19963,-0.310478,0.972866
1480098885895994,-1.19934,-0.31096,0.974658
1480098885918052,-1.19815,-0.311352,0.975968
1480098885935100,-1.19738,-0.3119,0.97697
1480098885959173,-1.1976,-0.311783,0.97825
1480098885986246,-1.19739,-0.31146,0.979194
1480098885995269,-1.1974,-0.311224,0.979832
1480098886016326,-1.1971,-0.31024,0.980424
1480098886038895,-1.1973,-0.308981,0.981381
1480098886064414,-1.1977,-0.307918,0.982559
1480098886076462,-1.19631,-0.307159,0.983579
1480098886098513,-1.19367,-0.306345,0.984749
1480098886116521,-1.19176,-0.304809,0.986064
1480098886136125,-1.18947,-0.303009,0.986546
1480098886158286,-1.18728,-0.301642,0.986404
1480098886176286,-1.18472,-0.299703,0.986497
1480098886196341,-1.18295,-0.29707,0.987129
1480098886218399,-1.18261,-0.294668,0.988127
1480098886236536,-1.18207,-0.292074,0.988911
1480098886256159,-1.18165,-0.289596,0.989505
1480098886278257,-1.18107,-0.287471,0.989637
1480098886296266,-1.18116,-0.284967,0.989651
1480098886316356,-1.17986,-0.283236,0.988774
1480098886338920,-1.17866,-0.281756,0.987788
1480098886356068,-1.17745,-0.279777,0.987081
1480098886376145,-1.1767,-0.278133,0.986219
1480098886398186,-1.17549,-0.276807,0.985025
1480098886416226,-1.17398,-0.274691,0.983793
1480098886436291,-1.17247,-0.272804,0.982694
1480098886458345,-1.1715,-0.271132,0.982041
1480098886476393,-1.17164,-0.269558,0.981952
1480098886496447,-1.17199,-0.267994,0.981973
1480098886518553,-1.17206,-0.266015,0.982223
1480098886536556,-1.17223,-0.264659,0.982624
1480098886555612,-1.17284,-0.264176,0.983527
1480098886578728,-1.17314,-0.263586,0.984217
1480098886600761,-1.17296,-0.262787,0.984531
1480098886615772,-1.17187,-0.261713,0.984232
1480098886638908,-1.16996,-0.260435,0.983876
1480098886655998,-1.16837,-0.259588,0.983205
1480098886679061,-1.16805,-0.258657,0.983036
1480098886698129,-1.16603,-0.257986,0.981959
1480098886716157,-1.16485,-0.257038,0.980923
1480098886737748,-1.16294,-0.25614,0.980702
1480098886758968,-1.16091,-0.256501,0.980015
1480098886776014,-1.16001,-0.25799,0.97856
1480098886797083,-1.16006,-0.258958,0.976383
1480098886820142,-1.16011,-0.259004,0.974353
1480098886836679,-1.16038,-0.258811,0.972751
1480098886857769,-1.16074,-0.258548,0.971776
1480098886878823,-1.16078,-0.258702,0.970631
1480098886896898,-1.16119,-0.259225,0.969433
1480098886916961,-1.16202,-0.25955,0.969089
1480098886938503,-1.16234,-0.259728,0.968876
1480098886956845,-1.16252,-0.260374,0.968777
1480098886978874,-1.16366,-0.26169,0.969246
1480098887005959,-1.16402,-0.262584,0.969234
1480098887015973,-1.16258,-0.263134,0.968492
1480098887039035,-1.16125,-0.263948,0.967333
1480098887058139,-1.16111,-0.26431,0.966567
1480098887076141,-1.1593,-0.26467,0.965979
1480098887099198,-1.15798,-0.264512,0.966066
1480098887118249,-1.15712,-0.26427,0.966609
1480098887141318,-1.15622,-0.264039,0.967008
1480098887159398,-1.15548,-0.263714,0.967555
1480098887178491,-1.15451,-0.263859,0.968013
1480098887201493,-1.15527,-0.264336,0.96837
1480098887219541,-1.15689,-0.264831,0.968826
1480098887238642,-1.15845,-0.266423,0.969186
1480098887261361,-1.16112,-0.268207,0.969595
1480098887279374,-1.16496,-0.270127,0.969972
1480098887298400,-1.17046,-0.272259,0.970838
1480098887321460,-1.17543,-0.274554,0.971413
1480098887343565,-1.17849,-0.276113,0.971225
1480098887358500,-1.1802,-0.276717,0.970697
1480098887380531,-1.18069,-0.276094,0.970487
1480098887398578,-1.17881,-0.275617,0.969443
1480098887418645,-1.17924,-0.276098,0.968382
1480098887441210,-1.18139,-0.276147,0.968147
1480098887459301,-1.18331,-0.275814,0.967538
1480098887478349,-1.18325,-0.27483,0.966961
1480098887501436,-1.18158,-0.273667,0.965516
1480098887518463,-1.1799,-0.273158,0.963583
1480098887538511,-1.18004,-0.2727,0.961723
1480098887561077,-1.18131,-0.271086,0.960676
1480098887579135,-1.182,-0.26964,0.960146
1480098887600181,-1.18142,-0.268404,0.959794
1480098887621267,-1.18118,-0.266997,0.959652
1480098887639325,-1.1818,-0.265764,0.960164
1480098887661458,-1.18249,-0.263858,0.96091
1480098887680509,-1.18253,-0.261911,0.962095
1480098887698555,-1.18094,-0.26079,0.962494
1480098887720619,-1.18094,-0.260265,0.96245
1480098887741202,-1.1806,-0.259018,0.961893
1480098887758319,-1.18052,-0.256862,0.962401
1480098887780375,-1.17715,-0.254587,0.962793
1480098887801436,-1.17495,-0.25315,0.963652
1480098887818458,-1.17489,-0.251411,0.965431
1480098887840018,-1.17441,-0.24907,0.96806
1480098887861194,-1.17252,-0.246323,0.971668
1480098887879197,-1.16865,-0.244404,0.97513
1480098887906268,-1.16937,-0.243794,0.97888
1480098887921331,-1.17294,-0.244116,0.983467
1480098887938903,-1.1754,-0.244018,0.987905
1480098887961079,-1.17256,-0.244812,0.989081
1480098887981171,-1.16994,-0.245511,0.987721
1480098887999179,-1.1686,-0.244388,0.985201
1480098888026285,-1.16636,-0.243086,0.98199
1480098888041312,-1.1638,-0.240833,0.978934
1480098888058387,-1.16169,-0.238745,0.976232
1480098888081446,-1.16158,-0.236411,0.974731
1480098888100509,-1.16145,-0.23431,0.974335
1480098888118557,-1.16126,-0.232277,0.974443
1480098888141611,-1.15944,-0.230661,0.974272
1480098888160890,-1.15801,-0.229206,0.974387
1480098888178896,-1.15785,-0.227888,0.97469
1480098888200954,-1.15689,-0.226291,0.974612
1480098888221008,-1.15444,-0.224696,0.974034
1480098888242076,-1.1522,-0.222098,0.973827
1480098888261125,-1.15066,-0.219739,0.973783
1480098888281228,-1.14966,-0.217789,0.974095
1480098888299226,-1.14814,-0.215653,0.974537
1480098888321285,-1.14626,-0.213826,0.974864
1480098888341365,-1.14488,-0.212047,0.975144
1480098888358985,-1.14384,-0.210388,0.975326
1480098888381046,-1.14226,-0.208971,0.975766
1480098888401099,-1.14088,-0.207226,0.976384
1480098888419146,-1.13971,-0.205463,0.976779
1480098888441730,-1.1377,-0.203834,0.97689
1480098888461062,-1.13578,-0.201461,0.976712
1480098888479070,-1.1341,-0.199017,0.976439
1480098888501127,-1.13197,-0.196781,0.975956
1480098888524190,-1.13092,-0.19449,0.975433
1480098888539233,-1.12993,-0.192131,0.97519
1480098888561148,-1.12798,-0.189789,0.974104
1480098888582203,-1.12635,-0.187159,0.973424
1480098888603262,-1.12407,-0.184266,0.972652
1480098888626368,-1.12212,-0.182007,0.971793
1480098888642886,-1.12005,-0.179853,0.970496
1480098888663098,-1.11837,-0.177797,0.969244
1480098888681127,-1.11614,-0.175427,0.968225
1480098888702166,-1.11477,-0.172536,0.967696
1480098888723220,-1.11315,-0.170236,0.967292
1480098888741774,-1.11159,-0.168367,0.967199
1480098888762335,-1.11032,-0.166629,0.966843
1480098888783431,-1.1084,-0.165317,0.965864
1480098888801434,-1.10664,-0.16335,0.965008
1480098888822490,-1.10496,-0.161209,0.963763
1480098888843625,-1.10403,-0.159819,0.962977
1480098888861195,-1.10447,-0.158522,0.963109
1480098888888269,-1.10548,-0.157465,0.963149
1480098888903307,-1.10643,-0.156905,0.963152
1480098888921357,-1.10766,-0.156066,0.962627
1480098888943967,-1.10984,-0.155566,0.962044
1480098888963108,-1.11235,-0.155197,0.961684
1480098888981099,-1.11554,-0.154678,0.961646
1480098889004164,-1.11794,-0.154392,0.961294
1480098889023211,-1.11954,-0.154396,0.9605
1480098889041783,-1.12171,-0.154012,0.959673
1480098889063459,-1.12443,-0.153903,0.959084
1480098889083512,-1.12781,-0.153923,0.959157
1480098889101560,-1.13088,-0.153946,0.958801
1480098889123619,-1.13367,-0.154215,0.958652
1480098889143724,-1.13664,-0.155072,0.958484
1480098889161390,-1.13998,-0.156132,0.958601
1480098889183453,-1.1423,-0.157283,0.958387
1480098889203541,-1.14407,-0.15835,0.957734
1480098889221551,-1.14542,-0.15905,0.956984
1480098889244149,-1.14688,-0.159632,0.956208
1480098889270791,-1.14894,-0.160063,0.955568
1480098889287784,-1.15112,-0.160414,0.954929
1480098889303810,-1.15245,-0.160301,0.954425
1480098889323866,-1.15384,-0.160245,0.953992
1480098889341412,-1.15555,-0.160273,0.953426
1480098889363573,-1.1569,-0.16045,0.952969
1480098889383663,-1.15795,-0.160426,0.952424
1480098889401687,-1.15823,-0.160524,0.951801
1480098889423734,-1.15927,-0.16062,0.951479
1480098889443792,-1.16102,-0.160294,0.951488
1480098889461849,-1.16211,-0.160257,0.951435
1480098889483899,-1.16291,-0.160518,0.95146
1480098889503953,-1.16346,-0.160502,0.951668
1480098889520998,-1.16421,-0.160651,0.951747
1480098889544083,-1.16504,-0.160394,0.951755
1480098889565266,-1.16495,-0.1603,0.951659
1480098889581307,-1.16495,-0.1603,0.951659
1480098889604372,-1.16467,-0.15989,0.951916
1480098889624425,-1.16477,-0.15949,0.952312
1480098889641471,-1.16435,-0.159217,0.952448
1480098889671101,-1.16416,-0.158558,0.952879
1480098889685155,-1.16362,-0.157929,0.953196
1480098889701181,-1.16285,-0.157804,0.953438
1480098889724243,-1.16285,-0.157804,0.953438
1480098889745319,-1.16285,-0.157804,0.953438
1480098889760981,-1.16223,-0.15767,0.95326
1480098889784038,-1.16193,-0.157219,0.953152
1480098889805094,-1.1621,-0.156659,0.953156
1480098889821138,-1.16269,-0.156563,0.953166
1480098889844243,-1.16267,-0.156525,0.953142
1480098889865890,-1.1625,-0.156088,0.952933
1480098889886940,-1.1627,-0.155599,0.952518
1480098889902981,-1.16351,-0.154745,0.952115
1480098889926045,-1.16319,-0.154159,0.951741
1480098889947105,-1.16303,-0.153755,0.951089
1480098889962647,-1.16327,-0.152749,0.950657
1480098889985709,-1.16319,-0.152096,0.95018
1480098890006768,-1.16363,-0.151692,0.94944
1480098890022808,-1.16454,-0.151674,0.948508
1480098890045891,-1.16616,-0.151927,0.948214
1480098890066508,-1.168,-0.151948,0.948334
1480098890082541,-1.16875,-0.151597,0.947905
1480098890105603,-1.16927,-0.151038,0.946773
1480098890126684,-1.17038,-0.149696,0.945344
1480098890143209,-1.17208,-0.148076,0.94459
1480098890165374,-1.17221,-0.146442,0.943535
1480098890186485,-1.17178,-0.144747,0.942354
1480098890203526,-1.17132,-0.143358,0.941071
1480098890225535,-1.17128,-0.141904,0.940538
1480098890246631,-1.17045,-0.140376,0.940127
1480098890263431,-1.16918,-0.139185,0.939776
1480098890285486,-1.16984,-0.137965,0.939852
1480098890306544,-1.17163,-0.136544,0.940236
1480098890322587,-1.17184,-0.135526,0.940104
1480098890346167,-1.1703,-0.13417,0.939696
1480098890366275,-1.16866,-0.132434,0.939158
1480098890383358,-1.16795,-0.131322,0.938453
1480098890405379,-1.16767,-0.12999,0.937913
1480098890426477,-1.1658,-0.128603,0.937531
1480098890443486,-1.16271,-0.127628,0.937119
1480098890465547,-1.16067,-0.126513,0.936699
1480098890486602,-1.15971,-0.125865,0.93637
1480098890502679,-1.15935,-0.125412,0.936085
1480098890525707,-1.15925,-0.125282,0.935968
1480098890546790,-1.15951,-0.124967,0.935848
1480098890562721,-1.15961,-0.124903,0.93536
1480098890585786,-1.1598,-0.12453,0.934706
1480098890606841,-1.16088,-0.124311,0.934496
1480098890622879,-1.16178,-0.12417,0.934099
1480098890652791,-1.16209,-0.12387,0.933219
1480098890673865,-1.16256,-0.124002,0.932202
1480098890682871,-1.16369,-0.124008,0.931355
1480098890705935,-1.16554,-0.123831,0.930991
1480098890726990,-1.16665,-0.124147,0.930503
1480098890743538,-1.16699,-0.124173,0.929689
1480098890766059,-1.167,-0.124168,0.928888
1480098890788117,-1.16771,-0.124397,0.928347
1480098890803157,-1.16907,-0.124694,0.928115
1480098890825214,-1.16986,-0.125116,0.927904
1480098890848279,-1.16969,-0.125862,0.927699
1480098890862865,-1.17019,-0.126273,0.928009
1480098890885934,-1.17069,-0.12697,0.92836
1480098890907987,-1.17146,-0.127699,0.928508
1480098890922023,-1.17208,-0.128278,0.928498
1480098890945590,-1.17207,-0.128774,0.928194
1480098890968158,-1.17235,-0.129035,0.928155
1480098890982195,-1.17262,-0.129107,0.928313
1480098891005284,-1.17238,-0.129702,0.928139
1480098891028317,-1.1726,-0.130443,0.92809
1480098891042887,-1.17394,-0.130702,0.928306
1480098891065077,-1.17497,-0.131064,0.928797
1480098891088109,-1.17523,-0.131537,0.929216
1480098891102156,-1.17524,-0.131671,0.929478
1480098891125208,-1.1751,-0.132248,0.929979
1480098891148278,-1.17549,-0.132584,0.930519
1480098891161915,-1.17505,-0.132671,0.930893
1480098891185975,-1.17476,-0.133098,0.931234
1480098891207998,-1.17491,-0.133056,0.931256
1480098891222036,-1.17491,-0.133056,0.931256
1480098891245636,-1.17448,-0.133086,0.931753
1480098891268233,-1.17439,-0.132992,0.93166
1480098891289290,-1.17439,-0.132992,0.93166
1480098891305333,-1.17356,-0.132646,0.931258
1480098891328394,-1.17344,-0.132189,0.930738
1480098891349021,-1.17373,-0.131857,0.930299
1480098891365156,-1.17396,-0.13166,0.929933
1480098891388180,-1.17374,-0.13151,0.92958
1480098891409237,-1.17326,-0.131481,0.92921
1480098891425279,-1.17326,-0.131481,0.92921
1480098891448343,-1.17326,-0.131481,0.92921
1480098891469406,-1.17325,-0.131539,0.929087
1480098891485461,-1.17325,-0.131539,0.929087
1480098891508512,-1.1739,-0.131507,0.929162
1480098891528563,-1.17432,-0.131976,0.929163
1480098891545618,-1.17446,-0.132373,0.929005
1480098891568213,-1.17419,-0.132645,0.928766
1480098891589287,-1.17379,-0.133053,0.928406
1480098891605310,-1.17393,-0.133012,0.928428
1480098891634394,-1.17418,-0.133102,0.928103
1480098891649460,-1.17353,-0.133762,0.927187
1480098891665652,-1.17337,-0.134068,0.926364
1480098891687710,-1.17278,-0.134114,0.925197
1480098891708784,-1.17191,-0.134336,0.923888
1480098891725813,-1.1721,-0.134367,0.922698
1480098891748387,-1.17161,-0.134391,0.921406
1480098891770628,-1.17203,-0.133982,0.920967
1480098891785667,-1.17279,-0.133836,0.921479
1480098891807747,-1.17327,-0.134651,0.921589
1480098891830787,-1.17372,-0.134758,0.921355
1480098891845829,-1.17437,-0.135127,0.920894
1480098891867533,-1.17456,-0.135752,0.919307
1480098891890595,-1.17374,-0.135226,0.916228
1480098891904632,-1.17336,-0.133982,0.912823
1480098891927692,-1.1733,-0.132835,0.909623
1480098891950811,-1.17418,-0.131584,0.907342
1480098891964848,-1.17406,-0.130458,0.90605
1480098891987909,-1.17356,-0.129756,0.905699
1480098892010971,-1.17277,-0.129915,0.905505
1480098892032027,-1.17242,-0.129499,0.905573
1480098892048071,-1.17303,-0.129112,0.906019
1480098892070839,-1.17265,-0.128563,0.906621
1480098892084876,-1.17241,-0.128318,0.907164
1480098892107938,-1.17029,-0.127462,0.907377
1480098892131002,-1.16917,-0.126996,0.907597
1480098892145040,-1.16987,-0.126991,0.908174
1480098892168142,-1.17104,-0.127458,0.908937
1480098892190198,-1.17218,-0.127504,0.910197
1480098892211292,-1.1729,-0.127327,0.911475
1480098892228299,-1.17334,-0.126788,0.912557
1480098892250893,-1.17583,-0.126759,0.913651
1480098892271958,-1.17616,-0.125802,0.915371
1480098892287975,-1.17695,-0.12459,0.91742
1480098892318055,-1.17784,-0.124003,0.919284
1480098892332092,-1.1774,-0.123344,0.920278
1480098892348138,-1.17683,-0.122722,0.920917
1480098892370763,-1.17734,-0.123075,0.921351
1480098892391805,-1.17916,-0.123867,0.921631
1480098892407846,-1.18031,-0.124688,0.921839
1480098892430909,-1.18053,-0.124798,0.921831
1480098892451622,-1.18027,-0.124611,0.922252
1480098892467661,-1.18037,-0.124246,0.923005
1480098892490722,-1.18074,-0.124048,0.923818
1480098892511825,-1.18071,-0.124105,0.924494
1480098892527820,-1.18092,-0.1245,0.925325
1480098892550919,-1.18087,-0.125454,0.92596
1480098892571942,-1.18113,-0.126212,0.92642
1480098892587985,-1.18155,-0.126376,0.926862
1480098892610043,-1.18161,-0.126965,0.927453
1480098892631099,-1.18178,-0.127343,0.927779
1480098892648155,-1.18196,-0.127663,0.928228
1480098892670215,-1.18196,-0.127663,0.928228
1480098892693276,-1.18196,-0.127663,0.928228
1480098892708317,-1.18196,-0.127663,0.928228
1480098892730378,-1.18292,-0.128465,0.928353
1480098892753454,-1.18378,-0.129573,0.928647
1480098892768480,-1.18427,-0.130194,0.928622
1480098892790538,-1.18415,-0.130272,0.928625
1480098892812597,-1.18421,-0.130137,0.928553
1480098892827639,-1.18408,-0.130121,0.928653
1480098892850240,-1.18406,-0.130179,0.928531
1480098892873336,-1.18362,-0.130167,0.928666
1480098892887372,-1.18303,-0.130542,0.9287
1480098892910436,-1.18295,-0.130982,0.929131
1480098892932501,-1.18304,-0.131075,0.929225
1480098892947537,-1.18237,-0.131012,0.929245
1480098892970138,-1.18184,-0.131061,0.929067
1480098892993199,-1.18184,-0.131061,0.929067
1480098893007237,-1.18184,-0.131061,0.929067
1480098893030299,-1.1819,-0.131117,0.929135
1480098893052924,-1.18204,-0.131076,0.929157
1480098893066962,-1.1816,-0.130816,0.929611
1480098893090048,-1.18143,-0.130724,0.930127
1480098893113084,-1.18135,-0.130631,0.930033
1480098893127123,-1.1812,-0.130672,0.930011
1480098893156205,-1.18123,-0.130709,0.930036
1480098893173253,-1.18135,-0.130631,0.930033
1480098893194352,-1.18134,-0.130191,0.930211
1480098893210350,-1.18114,-0.129584,0.930519
1480098893240954,-1.18061,-0.129386,0.93066
1480098893254246,-1.17994,-0.129323,0.930681
1480098893278311,-1.17962,-0.129234,0.930815
1480098893293351,-1.17962,-0.129234,0.930815
1480098893314409,-1.18038,-0.129676,0.930929
1480098893330449,-1.18038,-0.129676,0.930929
1480098893353148,-1.17986,-0.129764,0.931112
1480098893374206,-1.17987,-0.129706,0.931235
1480098893390247,-1.17979,-0.129612,0.931141
1480098893413309,-1.17979,-0.129612,0.931141
1480098893434404,-1.17979,-0.129612,0.931141
1480098893450929,-1.17993,-0.129571,0.931163
1480098893474086,-1.17979,-0.129612,0.931141
1480098893494137,-1.17993,-0.129571,0.931163
1480098893510181,-1.17993,-0.129571,0.931163
1480098893533243,-1.17993,-0.129571,0.931163
1480098893553936,-1.17986,-0.129419,0.931193
1480098893570980,-1.17986,-0.129419,0.931193
1480098893593037,-1.17986,-0.129419,0.931193
1480098893615098,-1.17986,-0.129419,0.931193
1480098893630138,-1.1804,-0.129618,0.931052
1480098893653107,-1.18099,-0.129873,0.930979
1480098893675213,-1.18113,-0.129831,0.931001
1480098893690205,-1.18113,-0.129831,0.931001
1480098893713266,-1.18111,-0.129795,0.930976
1480098893735838,-1.18117,-0.12966,0.930905
1480098893750377,-1.18125,-0.129753,0.930998
1480098893773051,-1.18125,-0.129753,0.930998
1480098893795121,-1.18125,-0.129753,0.930998
1480098893810150,-1.18111,-0.129795,0.930976
1480098893833211,-1.18125,-0.129753,0.930998
1480098893855897,-1.18125,-0.129753,0.930998
1480098893869936,-1.18125,-0.129753,0.930998
1480098893892995,-1.18129,-0.129581,0.930902
1480098893915081,-1.18129,-0.129581,0.930902
1480098893930093,-1.18183,-0.129627,0.930981
1480098893952774,-1.18197,-0.129585,0.931003
1480098893975836,-1.18197,-0.129585,0.931003
1480098893989873,-1.18183,-0.129627,0.930981
1480098894012934,-1.18197,-0.129585,0.931003
1480098894036012,-1.18195,-0.129548,0.930978
1480098894050052,-1.18195,-0.129548,0.930978
1480098894073178,-1.18209,-0.129507,0.931
1480098894095236,-1.18202,-0.129355,0.931029
1480098894116294,-1.18202,-0.129355,0.931029
1480098894133340,-1.18202,-0.129355,0.931029
1480098894155078,-1.18202,-0.129355,0.931029
1480098894176102,-1.18214,-0.129277,0.931026
1480098894193144,-1.18177,-0.128978,0.931312
1480098894216201,-1.18126,-0.129008,0.931617
1480098894236826,-1.18128,-0.128988,0.932101
1480098894261007,-1.18153,-0.12902,0.9327
1480098894275022,-1.18143,-0.129079,0.933187
1480098894297071,-1.18167,-0.129168,0.933663
1480098894313130,-1.18175,-0.129262,0.933757
1480098894335676,-1.18175,-0.129262,0.933757
1480098894356911,-1.1824,-0.129286,0.933711
1480098894372943,-1.18241,-0.129228,0.933833
1480098894396004,-1.18268,-0.129394,0.933895
1480098894416058,-1.18349,-0.129509,0.934134
1480098894433103,-1.18346,-0.129872,0.934372
1480098894455847,-1.18302,-0.130493,0.934471
1480098894476902,-1.18318,-0.130393,0.934616
1480098894500984,-1.18318,-0.130393,0.934616
1480098894516043,-1.18311,-0.130586,0.934565
1480098894536579,-1.18316,-0.130356,0.934591
1480098894552710,-1.18314,-0.130414,0.934468
1480098894575771,-1.18316,-0.130356,0.934591
1480098894597829,-1.18316,-0.130356,0.934591
1480098894612870,-1.18316,-0.130356,0.934591
1480098894635936,-1.18337,-0.130465,0.934584
1480098894658321,-1.18337,-0.130465,0.934584
1480098894673374,-1.18337,-0.130465,0.934584
1480098894695419,-1.18339,-0.130407,0.934706
1480098894717515,-1.18331,-0.130753,0.934435
1480098894732518,-1.18299,-0.131104,0.93439
1480098894755232,-1.18277,-0.131053,0.934274
1480098894778306,-1.18278,-0.130995,0.934397
1480098894792322,-1.18292,-0.130953,0.934419
1480098894815377,-1.18292,-0.130953,0.934419
1480098894838972,-1.18292,-0.130953,0.934419
1480098894852157,-1.18292,-0.130953,0.934419
1480098894875234,-1.18304,-0.130874,0.934416
1480098894898276,-1.18304,-0.130874,0.934416
1480098894912312,-1.18304,-0.130874,0.934416
1480098894935880,-1.18319,-0.130832,0.934438
1480098894958389,-1.18358,-0.130919,0.934497
1480098894972423,-1.18358,-0.130919,0.934497
1480098894995483,-1.1835,-0.130826,0.934403
1480098895017542,-1.18422,-0.130504,0.934629
1480098895032615,-1.18431,-0.130597,0.934723
1480098895055656,-1.18438,-0.130155,0.935092
1480098895077715,-1.18377,-0.129806,0.935261
1480098895098810,-1.18372,-0.129788,0.935554
1480098895115817,-1.18336,-0.129776,0.935882
1480098895138883,-1.18262,-0.129564,0.935931
1480098895158652,-1.18186,-0.12922,0.935718
1480098895175648,-1.18106,-0.128952,0.9357
1480098895197706,-1.18023,-0.128361,0.935615
1480098895218779,-1.17986,-0.127816,0.935419
1480098895243387,-1.17966,-0.127457,0.93541
1480098895257546,-1.17966,-0.127457,0.93541
1480098895278592,-1.17966,-0.127457,0.93541
1480098895296637,-1.17966,-0.127457,0.93541
1480098895317692,-1.17938,-0.127636,0.935268
1480098895339253,-1.17944,-0.127501,0.935197
1480098895355375,-1.17905,-0.127758,0.935059
1480098895378438,-1.17905,-0.127758,0.935059
1480098895406514,-1.17919,-0.127716,0.93508
1480098895415534,-1.17945,-0.12794,0.935018
1480098895438108,-1.18012,-0.127848,0.935217
1480098895459345,-1.18086,-0.127907,0.935386
1480098895475313,-1.18086,-0.127907,0.935386
1480098895498372,-1.18086,-0.127907,0.935386
1480098895520432,-1.18086,-0.127907,0.935386
1480098895535975,-1.18078,-0.128347,0.935818
1480098895558257,-1.1809,-0.128515,0.936298
1480098895580316,-1.18058,-0.128619,0.936572
1480098895595354,-1.18015,-0.128801,0.936849
1480098895618433,-1.18091,-0.128649,0.937363
1480098895640982,-1.18139,-0.128828,0.937515
1480098895662091,-1.18146,-0.128731,0.937805
1480098895678133,-1.18187,-0.128415,0.938066
1480098895701196,-1.18199,-0.128336,0.938063
1480098895715247,-1.18199,-0.128336,0.938063
1480098895738333,-1.18173,-0.128457,0.938044
1480098895760401,-1.18032,-0.129026,0.938201
1480098895774439,-1.17992,-0.129379,0.938767
1480098895797500,-1.17994,-0.129952,0.939655
1480098895820561,-1.17974,-0.131503,0.940316
1480098895834599,-1.17921,-0.133369,0.940908
1480098895857766,-1.17856,-0.135315,0.941504
1480098895880816,-1.17775,-0.137669,0.942318
1480098895894854,-1.17692,-0.139889,0.942868
1480098895917915,-1.17657,-0.142097,0.943431
1480098895940478,-1.17728,-0.144792,0.94396
1480098895955127,-1.1769,-0.147078,0.943918
1480098895978168,-1.17533,-0.148901,0.944374
