timestamp,roll,pitch,yaw
1480697170615559,-0.758184,-0.425172,1.56457
1480697170637617,-0.758274,-0.425094,1.56457
1480697170652157,-0.758312,-0.425078,1.56473
1480697170676721,-0.758402,-0.425,1.56473
1480697170690761,-0.758714,-0.424574,1.56504
1480697170713319,-0.758648,-0.424208,1.5653
1480697170726352,-0.758648,-0.424208,1.5653
1480697170758940,-0.758054,-0.42389,1.56535
1480697170773480,-0.757678,-0.4234,1.56556
1480697170786514,-0.757689,-0.423452,1.56556
1480697170809575,-0.757264,-0.4234,1.56582
1480697170833137,-0.756503,-0.423292,1.56587
1480697170853191,-0.756593,-0.423214,1.56587
1480697170869734,-0.756905,-0.423264,1.56639
1480697170906333,-0.756983,-0.423133,1.56639
1480697170913350,-0.757024,-0.422755,1.56676
1480697170935910,-0.757182,-0.422706,1.56749
1480697170959976,-0.757626,-0.422488,1.56833
1480697170973513,-0.757873,-0.42236,1.56906
1480697171003089,-0.758249,-0.42185,1.56969
1480697171012113,-0.758249,-0.42185,1.56969
1480697171034172,-0.758249,-0.42185,1.56969
1480697171050214,-0.758249,-0.42185,1.56969
1480697171079807,-0.75812,-0.421757,1.56959
1480697171101865,-0.75812,-0.421757,1.56959
1480697171116404,-0.75812,-0.421757,1.56959
1480697171132446,-0.75799,-0.421664,1.56948
1480697171153504,-0.758028,-0.421648,1.56964
1480697171170548,-0.758028,-0.421648,1.56964
1480697171192105,-0.757899,-0.421555,1.56953
1480697171214665,-0.758082,-0.421511,1.56995
1480697171237225,-0.758409,-0.421439,1.57063
1480697171252265,-0.758617,-0.421139,1.57126
1480697171275828,-0.758764,-0.421037,1.572
1480697171312928,-0.758792,-0.420895,1.57263
1480697171314931,-0.758783,-0.420768,1.5731
1480697171334985,-0.758734,-0.420757,1.57373
1480697171349524,-0.758738,-0.420871,1.57415
1480697171378100,-0.758317,-0.421008,1.57436
1480697171394644,-0.758187,-0.420915,1.57425
1480697171409183,-0.758203,-0.421082,1.57467
1480697171438261,-0.757909,-0.421125,1.57504
1480697171455305,-0.757086,-0.421031,1.57525
1480697171476364,-0.756482,-0.420952,1.57557
1480697171492404,-0.756657,-0.421332,1.5762
1480697171523988,-0.756831,-0.421423,1.57657
1480697171529000,-0.756993,-0.421563,1.57725
1480697171552062,-0.757052,-0.42154,1.57799
1480697171612724,-0.757004,-0.421531,1.57862
1480697171615231,-0.75688,-0.421552,1.57894
1480697171636788,-0.756869,-0.4215,1.57894
1480697171657845,-0.757002,-0.42152,1.57952
1480697171660350,-0.756488,-0.421363,1.57983
1480697171680404,-0.756024,-0.421144,1.57999
1480697171694942,-0.755736,-0.420578,1.5802
1480697171708979,-0.754767,-0.420328,1.5802
1480697171732041,-0.754767,-0.420328,1.5802
1480697171762121,-0.754767,-0.420328,1.5802
1480697171784180,-0.754851,-0.420312,1.58062
1480697171793705,-0.754924,-0.420531,1.58131
1480697171814761,-0.754958,-0.420578,1.58189
1480697171837822,-0.755029,-0.42061,1.58263
1480697171858377,-0.755151,-0.420578,1.58321
1480697171888960,-0.755672,-0.420589,1.58384
1480697171912521,-0.75614,-0.420374,1.58437
1480697171915027,-0.756443,-0.420371,1.5849
1480697171950121,-0.75657,-0.420276,1.58505
1480697171971679,-0.756559,-0.420224,1.58505
1480697171981203,-0.756647,-0.420145,1.58505
1480697171994739,-0.756517,-0.420052,1.58495
1480697172015795,-0.756517,-0.420052,1.58495
1480697172032340,-0.75644,-0.420184,1.58495
1480697172070440,-0.75631,-0.420091,1.58484
1480697172075956,-0.756348,-0.420076,1.585
1480697172091998,-0.756348,-0.420076,1.585
1480697172114558,-0.756219,-0.419983,1.5849
1480697172143134,-0.756402,-0.41994,1.58532
1480697172158174,-0.756926,-0.420137,1.5859
1480697172182739,-0.756919,-0.420012,1.58637
1480697172195774,-0.7568,-0.419963,1.58717
1480697172212318,-0.75673,-0.419951,1.58812
1480697172235380,-0.756884,-0.420038,1.58881
1480697172257438,-0.757214,-0.419966,1.58949
1480697172271977,-0.757084,-0.419874,1.58939
1480697172295541,-0.757517,-0.419963,1.59002
1480697172317097,-0.757517,-0.419963,1.59002
1480697172339663,-0.757007,-0.419997,1.59029
1480697172375752,-0.757007,-0.419997,1.59029
1480697172386281,-0.756888,-0.419957,1.59018
1480697172398312,-0.756888,-0.419957,1.59018
1480697172420873,-0.7568,-0.420037,1.59019
1480697172444435,-0.75667,-0.419945,1.59008
1480697172460478,-0.756758,-0.419865,1.59008
1480697172489556,-0.756797,-0.41985,1.59024
1480697172513619,-0.756755,-0.419678,1.59013
1480697172518131,-0.75722,-0.419275,1.59071
1480697172534676,-0.757458,-0.419096,1.59145
1480697172557236,-0.757696,-0.418916,1.59219
1480697172579795,-0.75808,-0.419068,1.59298
1480697172601353,-0.758127,-0.419067,1.59325
1480697172617395,-0.758165,-0.419052,1.59341
1480697172631433,-0.758035,-0.418959,1.5933
1480697172654494,-0.758046,-0.419012,1.5933
1480697172678057,-0.757958,-0.419092,1.5933
1480697172699614,-0.757828,-0.418999,1.5932
1480697172720670,-0.757537,-0.419048,1.59357
1480697172737214,-0.757143,-0.418936,1.594
1480697172767294,-0.757221,-0.419156,1.59469
1480697172788351,-0.757371,-0.419056,1.59543
1480697172803389,-0.757522,-0.418956,1.59617
1480697172818429,-0.757597,-0.418989,1.59692
1480697172834472,-0.757798,-0.418825,1.5975
1480697172857033,-0.757894,-0.418861,1.59793
1480697172879593,-0.757894,-0.418861,1.59793
1480697172895134,-0.757894,-0.418861,1.59793
1480697172917192,-0.757852,-0.418689,1.59782
1480697172938249,-0.757224,-0.418687,1.59798
1480697172954793,-0.756417,-0.418657,1.5982
1480697172977353,-0.75597,-0.418683,1.59831
1480697172998408,-0.755941,-0.418814,1.59858
1480697173014451,-0.755874,-0.419063,1.599
1480697173044531,-0.755468,-0.419325,1.59965
1480697173067091,-0.755074,-0.41964,1.60029
1480697173074612,-0.754974,-0.419835,1.60104
1480697173097171,-0.754718,-0.420005,1.60152
1480697173118728,-0.754625,-0.419962,1.602
1480697173134771,-0.754973,-0.420131,1.60264
1480697173157331,-0.754717,-0.420301,1.60313
1480697173178387,-0.754625,-0.420259,1.60361
1480697173200947,-0.754544,-0.42027,1.60409
1480697173217491,-0.754152,-0.420162,1.60452
1480697173256094,-0.754071,-0.420173,1.605
1480697173260605,-0.753865,-0.420279,1.60533
1480697173277149,-0.753664,-0.420251,1.6057
1480697173299710,-0.753322,-0.420503,1.60619
1480697173314248,-0.753083,-0.420915,1.60662
1480697173336808,-0.752801,-0.421154,1.60695
1480697173359870,-0.752388,-0.421302,1.60717
1480697173373907,-0.752106,-0.421542,1.60749
1480697173397972,-0.751896,-0.421462,1.60787
1480697173427048,-0.752268,-0.421377,1.60872
1480697173434067,-0.7525,-0.421147,1.60947
1480697173457128,-0.752606,-0.421116,1.61038
1480697173479688,-0.752468,-0.421142,1.61103
1480697173500744,-0.75245,-0.421207,1.61178
1480697173530824,-0.75267,-0.421283,1.61232
1480697173562909,-0.752801,-0.421375,1.61242
1480697173566419,-0.752801,-0.421375,1.61242
1480697173576946,-0.75267,-0.421283,1.61232
1480697173602515,-0.75267,-0.421283,1.61232
1480697173622573,-0.75267,-0.421283,1.61232
1480697173644627,-0.752539,-0.421192,1.61221
1480697173659666,-0.752588,-0.42123,1.61237
1480697173680722,-0.752971,-0.421093,1.6129
1480697173705793,-0.752582,-0.420988,1.61333
1480697173726845,-0.752249,-0.42075,1.61409
1480697173740936,-0.751884,-0.420818,1.61495
1480697173757427,-0.75196,-0.420989,1.61566
1480697173780488,-0.752743,-0.421313,1.61646
1480697173809565,-0.75295,-0.421271,1.61656
1480697173825107,-0.753251,-0.42108,1.61715
1480697173846163,-0.753542,-0.420836,1.61774
1480697173868221,-0.753542,-0.420836,1.61774
1480697173877245,-0.753542,-0.420836,1.61774
1480697173900307,-0.753411,-0.420745,1.61763
1480697173920861,-0.753421,-0.420797,1.61763
1480697173937405,-0.753329,-0.420692,1.61768
1480697173966984,-0.753198,-0.4206,1.61758
1480697173982024,-0.753074,-0.420441,1.61795
1480697174012104,-0.752865,-0.420363,1.61833
1480697174025640,-0.753201,-0.420292,1.61903
1480697174040680,-0.753488,-0.420287,1.61989
1480697174057224,-0.753725,-0.420482,1.62086
1480697174095326,-0.753899,-0.420625,1.62156
1480697174101341,-0.75415,-0.420635,1.62226
1480697174117384,-0.754486,-0.420563,1.62296
1480697174139944,-0.754788,-0.420371,1.62354
1480697174164509,-0.754909,-0.42041,1.62365
1480697174177043,-0.755003,-0.420261,1.62413
1480697174199603,-0.755089,-0.42018,1.62413
1480697174222664,-0.754673,-0.420145,1.6244
1480697174237203,-0.754171,-0.420192,1.62468
1480697174267283,-0.75404,-0.420101,1.62458
1480697174289843,-0.75404,-0.420101,1.62458
1480697174312905,-0.753964,-0.420235,1.62458
1480697174327442,-0.753833,-0.420144,1.62447
1480697174357607,-0.753577,-0.420134,1.62501
1480697174363125,-0.753282,-0.420138,1.6254
1480697174379666,-0.75354,-0.420334,1.62605
1480697174403730,-0.753463,-0.420349,1.62654
1480697174416263,-0.753614,-0.420067,1.62734
1480697174440328,-0.75429,-0.420042,1.62825
1480697174478428,-0.754175,-0.420071,1.62858
1480697174483943,-0.753684,-0.419813,1.62908
1480697174499484,-0.753543,-0.419656,1.62978
1480697174522551,-0.753128,-0.419624,1.63005
1480697174544604,-0.753266,-0.419782,1.6306
1480697174567165,-0.7535,-0.419911,1.63114
1480697174588724,-0.753339,-0.420008,1.63163
1480697174613788,-0.752857,-0.419938,1.63207
1480697174619805,-0.752781,-0.419953,1.63256
1480697174642364,-0.752323,-0.419616,1.63278
1480697174663921,-0.752372,-0.419056,1.63288
1480697174679463,-0.752372,-0.419056,1.63288
1480697174702025,-0.752571,-0.418707,1.63353
1480697174723586,-0.75244,-0.418246,1.63445
1480697174739623,-0.752338,-0.417837,1.63504
1480697174762183,-0.752394,-0.417704,1.63537
1480697174800284,-0.752732,-0.417632,1.63607
1480697174802791,-0.753088,-0.417799,1.63672
1480697174823846,-0.753294,-0.417877,1.63758
1480697174843399,-0.753575,-0.41782,1.63845
1480697174865959,-0.753613,-0.417687,1.6391
1480697174883004,-0.753481,-0.417479,1.63949
1480697174910577,-0.753321,-0.417577,1.63998
1480697174919602,-0.753151,-0.417863,1.64075
1480697174942663,-0.75285,-0.418059,1.64141
1480697174963217,-0.752578,-0.418189,1.64224
1480697174979762,-0.752738,-0.418095,1.643
1480697175002323,-0.753453,-0.417814,1.6438
1480697175023377,-0.75384,-0.417422,1.64488
1480697175039921,-0.753852,-0.417122,1.64636
1480697175067996,-0.755222,-0.418733,1.64859
1480697175090556,-0.765377,-0.423914,1.65327
1480697175099079,-0.786712,-0.431148,1.65948
1480697175124145,-0.813047,-0.432342,1.66539
1480697175144700,-0.83458,-0.426957,1.67149
1480697175160241,-0.846691,-0.420577,1.67531
1480697175182300,-0.857745,-0.411765,1.67741
1480697175204860,-0.874156,-0.397219,1.68118
1480697175225917,-0.895947,-0.378474,1.68752
1480697175242961,-0.921648,-0.355664,1.69442
1480697175265521,-0.945799,-0.329461,1.70176
1480697175279058,-0.964174,-0.299283,1.70996
1480697175302121,-0.972209,-0.268419,1.71743
1480697175330694,-0.972068,-0.238176,1.72533
1480697175353255,-0.966894,-0.209531,1.73596
1480697175377319,-0.959741,-0.184035,1.74934
1480697175401383,-0.956236,-0.16238,1.76428
1480697175407900,-0.958296,-0.144262,1.7811
1480697175422440,-0.962836,-0.129921,1.80041
1480697175444498,-0.964208,-0.118207,1.82096
1480697175465553,-0.959742,-0.109678,1.84173
1480697175482097,-0.954269,-0.104085,1.86248
1480697175505159,-0.947756,-0.0989287,1.88218
1480697175525715,-0.941669,-0.0949572,1.90047
1480697175542262,-0.935707,-0.0922924,1.91915
1480697175564817,-0.929474,-0.0918565,1.93783
1480697175585874,-0.923619,-0.0932562,1.95602
1480697175608436,-0.917612,-0.0954708,1.97273
1480697175624477,-0.911562,-0.0981182,1.98773
1480697175646034,-0.90731,-0.105122,2.00125
1480697175675612,-0.912209,-0.115652,2.01813
1480697175690653,-0.918835,-0.121317,2.03445
1480697175705693,-0.922717,-0.120816,2.0476
1480697175721735,-0.92013,-0.117228,2.05561
1480697175744796,-0.917705,-0.116153,2.05806
1480697175765852,-0.915778,-0.117133,2.059
1480697175782397,-0.914073,-0.115462,2.06199
1480697175805458,-0.912012,-0.111812,2.06602
1480697175825512,-0.909349,-0.10874,2.06972
1480697175842055,-0.909085,-0.10805,2.07261
1480697175864616,-0.908683,-0.107858,2.07401
1480697175887174,-0.903125,-0.104418,2.07536
1480697175902218,-0.894217,-0.104282,2.07814
1480697175930790,-0.88796,-0.105129,2.08373
1480697175947335,-0.885838,-0.10512,2.09115
1480697175975914,-0.883447,-0.106035,2.09667
1480697175984433,-0.877656,-0.105392,2.10162
1480697176006995,-0.871405,-0.10461,2.10756
1480697176023537,-0.867933,-0.10552,2.11347
1480697176044593,-0.866787,-0.107693,2.11706
1480697176073169,-0.865748,-0.109773,2.11871
1480697176088209,-0.863364,-0.111166,2.12153
1480697176118289,-0.859204,-0.112066,2.12411
1480697176143355,-0.856821,-0.114462,2.12635
1480697176148870,-0.857306,-0.11584,2.12819
1480697176164913,-0.856956,-0.114887,2.12946
1480697176189480,-0.853646,-0.116411,2.12922
1480697176209532,-0.854933,-0.117745,2.1302
1480697176225075,-0.85745,-0.118131,2.13145
1480697176278716,-0.859069,-0.119651,2.13178
1480697176301777,-0.859756,-0.121523,2.13281
1480697176314310,-0.862974,-0.124857,2.13284
1480697176325343,-0.867178,-0.127063,2.13322
1480697176330854,-0.869872,-0.128017,2.13384
1480697176344894,-0.871261,-0.129967,2.13426
1480697176367452,-0.872982,-0.133736,2.13443
1480697176397031,-0.875597,-0.137917,2.13394
1480697176406055,-0.876564,-0.141792,2.13362
1480697176428113,-0.877255,-0.144608,2.13453
1480697176441650,-0.879327,-0.148272,2.13597
1480697176467719,-0.883405,-0.152932,2.13464
1480697176488774,-0.891928,-0.156308,2.132
1480697176508327,-0.899782,-0.15525,2.12961
1480697176524872,-0.905736,-0.157963,2.12838
1480697176546929,-0.909806,-0.161967,2.12524
1480697176575506,-0.916761,-0.164376,2.12085
1480697176584529,-0.926247,-0.166446,2.11765
1480697176607089,-0.934944,-0.168767,2.1163
1480697176628144,-0.943094,-0.170127,2.11647
1480697176644689,-0.949068,-0.170857,2.11403
1480697176667248,-0.950429,-0.167941,2.10866
1480697176687804,-0.95216,-0.166261,2.10175
1480697176704852,-0.954464,-0.168397,2.09562
1480697176741447,-0.956429,-0.172061,2.09036
1480697176748465,-0.956562,-0.177113,2.08358
1480697176764507,-0.959949,-0.179801,2.07582
1480697176787069,-0.963606,-0.180343,2.06636
1480697176809629,-0.968177,-0.180754,2.05759
1480697176824668,-0.97302,-0.183382,2.05203
1480697176847229,-0.974215,-0.186914,2.04602
1480697176870289,-0.971971,-0.190403,2.03985
1480697176883825,-0.97222,-0.192605,2.03541
1480697176907388,-0.968784,-0.194934,2.02939
1480697176928443,-0.968494,-0.198035,2.02273
1480697176951504,-0.970099,-0.198276,2.01697
1480697176953008,-0.968732,-0.195985,2.01076
1480697176972561,-0.969129,-0.194255,2.00503
1480697176995121,-0.969953,-0.193245,2.0008
1480697177019184,-0.966546,-0.191029,1.99728
1480697177033724,-0.95662,-0.190216,1.99481
1480697177057787,-0.946851,-0.18882,1.99178
1480697177071326,-0.939985,-0.188482,1.9909
1480697177092379,-0.932269,-0.189617,1.99065
1480697177114939,-0.921793,-0.192414,1.98765
1480697177141009,-0.916214,-0.193316,1.98252
1480697177152540,-0.903479,-0.194684,1.98112
1480697177183121,-0.893171,-0.198918,1.98852
1480697177197659,-0.876968,-0.204974,2.00109
1480697177212699,-0.863448,-0.210369,2.01329
1480697177235260,-0.844735,-0.218299,2.01849
1480697177252806,-0.811352,-0.228083,2.01676
1480697177273862,-0.779532,-0.232964,2.02097
1480697177294918,-0.745158,-0.236487,2.02746
1480697177312966,-0.715886,-0.238801,2.03419
1480697177335527,-0.696479,-0.239543,2.04241
1480697177356082,-0.681424,-0.239425,2.04939
1480697177377638,-0.656306,-0.238651,2.05425
1480697177392678,-0.628511,-0.237091,2.05772
1480697177431782,-0.608283,-0.234709,2.0606
1480697177439303,-0.596849,-0.232398,2.06501
1480697177455350,-0.590182,-0.23359,2.07249
1480697177474896,-0.584808,-0.237328,2.07845
1480697177492944,-0.580848,-0.240748,2.08204
1480697177512496,-0.570895,-0.24304,2.08557
1480697177535056,-0.556545,-0.246853,2.09126
1480697177553104,-0.548416,-0.251877,2.09687
1480697177572657,-0.543659,-0.25604,2.10333
1480697177595216,-0.537535,-0.261675,2.11117
1480697177621290,-0.52861,-0.268183,2.11918
1480697177632816,-0.517953,-0.272632,2.12403
1480697177655380,-0.506369,-0.277851,2.12805
1480697177673927,-0.497266,-0.285006,2.13241
1480697177692475,-0.489093,-0.289854,2.13282
1480697177715035,-0.487194,-0.293726,2.13113
1480697177740603,-0.482347,-0.298037,2.12887
1480697177760155,-0.478654,-0.303286,2.12715
1480697177778203,-0.479116,-0.309645,2.12591
1480697177797755,-0.48172,-0.314937,2.12667
1480697177828838,-0.482916,-0.319474,2.12876
1480697177834854,-0.482569,-0.324069,2.13246
1480697177866437,-0.480357,-0.329342,2.13587
1480697177872454,-0.480599,-0.335944,2.13949
1480697177896016,-0.482947,-0.342069,2.14352
1480697177921083,-0.484911,-0.346468,2.14784
1480697177932614,-0.485754,-0.349512,2.152
1480697177955174,-0.487483,-0.35226,2.15521
1480697177973222,-0.487806,-0.354112,2.15694
1480697178009318,-0.486595,-0.355511,2.15839
1480697178031376,-0.485899,-0.356739,2.16023
1480697178037392,-0.485908,-0.358923,2.16171
1480697178052433,-0.486893,-0.360707,2.16317
1480697178077499,-0.486446,-0.362024,2.16439
1480697178113094,-0.486105,-0.362854,2.16593
1480697178123120,-0.485584,-0.363494,2.16741
1480697178135152,-0.485769,-0.364112,2.16873
1480697178165733,-0.486895,-0.363539,2.17027
1480697178180273,-0.485255,-0.362491,2.17149
1480697178202833,-0.485037,-0.361279,2.17302
1480697178229403,-0.486902,-0.36014,2.17495
1480697178233915,-0.487076,-0.359352,2.17636
1480697178256474,-0.488562,-0.359428,2.17767
1480697178277532,-0.490931,-0.359935,2.17929
1480697178297584,-0.494318,-0.360705,2.1805
1480697178315132,-0.496942,-0.361724,2.18127
1480697178337694,-0.500657,-0.363805,2.18118
1480697178352731,-0.504718,-0.366769,2.18122
1480697178382810,-0.508945,-0.369104,2.1813
1480697178405872,-0.511258,-0.369737,2.18033
1480697178419909,-0.513412,-0.36897,2.17747
1480697178442469,-0.518899,-0.36714,2.17377
1480697178457509,-0.523556,-0.366385,2.17005
1480697178481573,-0.526447,-0.368048,2.16602
1480697178498619,-0.531154,-0.370368,2.1602
1480697178520678,-0.536458,-0.37233,2.15224
1480697178534213,-0.53894,-0.372394,2.1432
1480697178555270,-0.540552,-0.374621,2.13621
1480697178578331,-0.536488,-0.382984,2.12693
1480697178595376,-0.550316,-0.389358,2.11769
1480697178614928,-0.561453,-0.393452,2.10699
1480697178640497,-0.569387,-0.397139,2.09441
1480697178663056,-0.573578,-0.401147,2.07955
1480697178676592,-0.579559,-0.405015,2.06199
1480697178700656,-0.588267,-0.409432,2.04304
1480697178721716,-0.595461,-0.414549,2.02379
1480697178742770,-0.604321,-0.418655,2.00639
1480697178757808,-0.611712,-0.420925,1.99004
1480697178773851,-0.618505,-0.423017,1.97306
1480697178794906,-0.632722,-0.429069,1.95657
1480697178817468,-0.654853,-0.44077,1.94384
1480697178834012,-0.674675,-0.45325,1.93096
1480697178864091,-0.679894,-0.462689,1.91507
1480697178877627,-0.674974,-0.470391,1.8991
1480697178904197,-0.673348,-0.479208,1.88374
1480697178915227,-0.680597,-0.488133,1.86995
1480697178940294,-0.698956,-0.490192,1.86002
1480697178955333,-0.707227,-0.481164,1.85068
1480697178982405,-0.710157,-0.463385,1.84796
1480697179007973,-0.708502,-0.449102,1.84257
1480697179016496,-0.71959,-0.43912,1.83519
1480697179035045,-0.748759,-0.433645,1.82786
1480697179057604,-0.774447,-0.431747,1.82005
1480697179075653,-0.781465,-0.427641,1.81427
1480697179095205,-0.776439,-0.421711,1.81142
1480697179117765,-0.773405,-0.418039,1.81069
1480697179136816,-0.77665,-0.415409,1.81099
1480697179180934,-0.78268,-0.411605,1.81346
1480697179184945,-0.788727,-0.407233,1.81757
1480697179195973,-0.794461,-0.403462,1.82186
1480697179216528,-0.796362,-0.401217,1.8252
1480697179237585,-0.792366,-0.401005,1.82651
1480697179261146,-0.784244,-0.40085,1.82501
1480697179298245,-0.7801,-0.400517,1.82242
1480697179308273,-0.780197,-0.400201,1.81929
1480697179330330,-0.783465,-0.401543,1.8142
1480697179336347,-0.789406,-0.404876,1.80715
1480697179373947,-0.795901,-0.409019,1.79903
1480697179379963,-0.800473,-0.411882,1.79036
1480697179398010,-0.80301,-0.413377,1.78301
1480697179417562,-0.804783,-0.413738,1.77766
1480697179440122,-0.806268,-0.413229,1.77408
1480697179464186,-0.810039,-0.41272,1.77196
1480697179480230,-0.815108,-0.412428,1.77027
1480697179516826,-0.820671,-0.411706,1.7682
1480697179519333,-0.825639,-0.409977,1.76598
1480697179544901,-0.828438,-0.406863,1.76414
1480697179559941,-0.830305,-0.403396,1.76264
1480697179579493,-0.831987,-0.400121,1.76102
1480697179605062,-0.834285,-0.397554,1.75976
1480697179621606,-0.83748,-0.39588,1.75877
1480697179637147,-0.839502,-0.394898,1.75833
1480697179712347,-0.839474,-0.394278,1.75827
1480697179720369,-0.838161,-0.39401,1.75821
1480697179722875,-0.837092,-0.393798,1.7579
1480697179733903,-0.835926,-0.393434,1.75732
1480697179739921,-0.835494,-0.393183,1.75651
1480697179772005,-0.834957,-0.393088,1.75554
1480697179779024,-0.833789,-0.393469,1.75436
1480697179800079,-0.831719,-0.393485,1.75253
1480697179818128,-0.829813,-0.393002,1.75088
1480697179840688,-0.828069,-0.391986,1.74913
1480697179863248,-0.826983,-0.390604,1.74758
1480697179877787,-0.826373,-0.38928,1.74636
1480697179897338,-0.825512,-0.38777,1.74542
1480697179921403,-0.824282,-0.386612,1.74469
1480697179951482,-0.823079,-0.385819,1.74422
1480697179965018,-0.823058,-0.385635,1.74426
1480697179987578,-0.822403,-0.385127,1.74471
1480697180004124,-0.820946,-0.384462,1.7451
1480697180025179,-0.817932,-0.383595,1.74553
1480697180041723,-0.814197,-0.382421,1.74672
1480697180057765,-0.808688,-0.380393,1.74833
1480697180094362,-0.801015,-0.377205,1.75172
1480697180107398,-0.793472,-0.375336,1.75507
1480697180117926,-0.786767,-0.374161,1.75609
1480697180138480,-0.780241,-0.371904,1.757
1480697180160037,-0.775111,-0.367935,1.75866
1480697180178085,-0.76935,-0.364031,1.75993
1480697180197638,-0.762127,-0.360384,1.75861
1480697180227717,-0.756841,-0.356393,1.75638
1480697180238746,-0.750315,-0.352538,1.75433
1480697180265317,-0.745136,-0.350471,1.75006
1480697180298405,-0.744626,-0.350223,1.74424
1480697180302415,-0.742065,-0.351811,1.73712
1480697180318458,-0.739978,-0.355445,1.73126
1480697180340016,-0.740439,-0.36025,1.72874
1480697180358565,-0.744596,-0.366162,1.7282
1480697180385136,-0.752575,-0.370886,1.73089
1480697180400175,-0.759686,-0.373745,1.73507
1480697180419226,-0.765046,-0.376147,1.74051
1480697180437778,-0.771508,-0.379445,1.74543
1480697180460837,-0.778528,-0.382908,1.74838
1480697180478885,-0.784073,-0.384345,1.75
1480697180506458,-0.790733,-0.382784,1.7504
1480697180519994,-0.80209,-0.379059,1.75004
1480697180551077,-0.818205,-0.374647,1.75047
1480697180559600,-0.833542,-0.368074,1.75356
1480697180587678,-0.842253,-0.361353,1.7579
1480697180602714,-0.846098,-0.35606,1.76167
1480697180618757,-0.847218,-0.353041,1.76524
1480697180647333,-0.849165,-0.350919,1.76839
1480697180673904,-0.852852,-0.349429,1.77154
1480697180678916,-0.858988,-0.348012,1.77393
1480697180699973,-0.866299,-0.345194,1.7754
1480697180718522,-0.870154,-0.342081,1.77669
1480697180762639,-0.869383,-0.33897,1.77615
1480697180765146,-0.867233,-0.33593,1.77364
1480697180785200,-0.867788,-0.333758,1.7713
1480697180801242,-0.870278,-0.334539,1.76834
1480697180825305,-0.874107,-0.337645,1.76477
1480697180859396,-0.877053,-0.342044,1.76144
1480697180861903,-0.87773,-0.347421,1.758
1480697180884964,-0.876555,-0.353102,1.75425
1480697180905519,-0.874341,-0.358185,1.75074
1480697180920560,-0.873427,-0.362499,1.74888
1480697180951140,-0.874107,-0.366064,1.7483
1480697180962671,-0.875602,-0.369399,1.7485
1480697180993755,-0.876786,-0.372551,1.74914
1480697181000271,-0.87725,-0.374896,1.74978
1480697181021329,-0.877292,-0.376349,1.75051
1480697181040879,-0.877211,-0.376432,1.75052
1480697181063940,-0.877381,-0.375529,1.75029
1480697181100537,-0.877952,-0.373864,1.74943
1480697181105050,-0.879091,-0.371878,1.74831
1480697181138639,-0.880649,-0.369868,1.74693
1480697181142650,-0.881854,-0.367952,1.74564
1480697181165212,-0.8826,-0.366387,1.74457
1480697181187773,-0.882792,-0.365198,1.74375
1480697181202810,-0.882543,-0.364541,1.74313
1480697181234394,-0.882095,-0.36424,1.74267
1480697181249935,-0.88206,-0.364259,1.74252
1480697181270491,-0.882091,-0.364671,1.74276
1480697181281018,-0.881347,-0.365285,1.74286
1480697181300069,-0.880723,-0.365539,1.7433
1480697181322628,-0.880627,-0.365912,1.7439
1480697181340679,-0.880417,-0.366313,1.74437
1480697181360229,-0.880117,-0.366311,1.74476
1480697181384292,-0.879956,-0.366218,1.74498
1480697181413871,-0.879956,-0.366218,1.74498
1480697181422895,-0.88088,-0.366226,1.7452
1480697181442447,-0.881584,-0.366234,1.74533
1480697181460996,-0.88206,-0.365856,1.74558
1480697181482553,-0.88206,-0.365856,1.74558
1480697181504111,-0.88206,-0.365856,1.74558
1480697181527173,-0.881922,-0.365773,1.74547
1480697181543716,-0.881852,-0.365912,1.74547
1480697181564772,-0.881713,-0.365829,1.74536
1480697181586332,-0.882211,-0.365808,1.74586
1480697181602874,-0.88272,-0.365483,1.74625
1480697181631450,-0.883243,-0.364955,1.74682
1480697181640474,-0.883684,-0.36451,1.7474
1480697181663033,-0.88423,-0.363993,1.74765
1480697181682585,-0.884914,-0.363558,1.74801
1480697181706651,-0.885748,-0.362903,1.74836
1480697181723195,-0.886456,-0.36222,1.74859
1480697181750265,-0.886317,-0.362138,1.74848
1480697181762297,-0.886305,-0.362082,1.74849
1480697181782853,-0.886341,-0.362063,1.74864
1480697181819450,-0.886214,-0.362037,1.74852
1480697181821956,-0.886214,-0.362037,1.74852
1480697181856548,-0.88589,-0.362109,1.74875
1480697181862564,-0.88575,-0.362199,1.74894
1480697181880612,-0.885773,-0.362296,1.74939
1480697181921221,-0.886166,-0.362173,1.74993
1480697181924228,-0.886166,-0.362173,1.74993
1480697181961828,-0.88686,-0.361865,1.75027
1480697181964335,-0.886999,-0.361947,1.75038
1480697181982382,-0.886999,-0.361947,1.75038
1480697182000431,-0.886999,-0.361947,1.75038
1480697182029006,-0.88708,-0.361864,1.75037
1480697182060090,-0.88715,-0.36164,1.75085
1480697182072624,-0.886735,-0.361221,1.7515
1480697182083150,-0.886171,-0.360594,1.75206
1480697182110223,-0.885675,-0.360259,1.75272
1480697182140304,-0.88534,-0.36019,1.75345
1480697182159353,-0.885478,-0.36079,1.75442
1480697182169881,-0.885235,-0.361815,1.75513
1480697182180409,-0.88475,-0.363102,1.75538
1480697182232047,-0.88453,-0.364583,1.75538
1480697182239567,-0.884044,-0.365783,1.75486
1480697182244078,-0.883856,-0.366727,1.75414
1480697182263129,-0.883366,-0.367581,1.75304
1480697182282681,-0.882991,-0.36816,1.75179
1480697182301231,-0.882328,-0.369051,1.75072
1480697182336325,-0.88111,-0.369887,1.74981
1480697182342339,-0.880195,-0.370627,1.74947
1480697182361391,-0.878589,-0.371404,1.74946
1480697182382949,-0.876804,-0.372511,1.75009
1480697182427065,-0.875785,-0.373967,1.75126
1480697182438596,-0.875686,-0.375548,1.75296
1480697182459151,-0.875847,-0.376751,1.75482
1480697182480206,-0.875893,-0.377364,1.75663
1480697182485220,-0.876283,-0.377396,1.75828
1480697182518809,-0.877605,-0.377311,1.75985
1480697182532345,-0.87906,-0.377028,1.76095
1480697182540366,-0.87998,-0.376632,1.76188
1480697182563428,-0.880343,-0.376268,1.76247
1480697182586490,-0.880513,-0.376193,1.76323
1480697182614062,-0.880163,-0.376461,1.76361
1480697182627600,-0.880169,-0.376929,1.76451
1480697182650158,-0.880095,-0.37748,1.76541
1480697182665198,-0.879507,-0.378223,1.76643
1480697182690265,-0.878258,-0.378901,1.76716
1480697182705808,-0.877035,-0.379764,1.76785
1480697182733881,-0.876402,-0.380658,1.76854
1480697182808078,-0.876407,-0.381693,1.76936
1480697182826127,-0.876456,-0.382661,1.77002
1480697182830639,-0.875555,-0.383706,1.77029
1480697182845177,-0.87355,-0.386342,1.77112
1480697182862723,-0.87272,-0.387249,1.77139
1480697182885785,-0.871702,-0.388192,1.77203
1480697182904836,-0.871129,-0.389202,1.77286
1480697182928398,-0.870925,-0.390364,1.7739
1480697182945444,-0.870562,-0.391746,1.77528
1480697182964995,-0.869747,-0.393128,1.77679
1480697182990564,-0.868518,-0.39463,1.77807
1480697183013124,-0.867148,-0.396361,1.77937
1480697183056241,-0.866161,-0.397871,1.78043
1480697183066767,-0.866012,-0.399281,1.78144
1480697183081305,-0.866111,-0.400184,1.78228
1480697183092336,-0.865529,-0.400847,1.78252
1480697183102863,-0.865529,-0.400847,1.78252
1480697183124420,-0.866218,-0.400714,1.78267
1480697183146478,-0.866568,-0.400306,1.78246
1480697183162019,-0.866118,-0.399554,1.78202
1480697183190596,-0.866731,-0.398509,1.78183
1480697183207142,-0.867902,-0.397738,1.78209
1480697183222180,-0.868452,-0.396958,1.78221
1480697183244740,-0.869184,-0.396191,1.78227
1480697183267299,-0.870529,-0.395807,1.78293
1480697183282842,-0.870607,-0.395722,1.78292
1480697183304963,-0.870649,-0.395261,1.78346
1480697183325514,-0.871028,-0.394645,1.78393
1480697183356096,-0.872452,-0.394432,1.78438
1480697183367124,-0.873732,-0.394445,1.78484
1480697183385675,-0.873917,-0.39415,1.78467
1480697183403722,-0.874003,-0.393437,1.7844
1480697183424778,-0.874862,-0.392455,1.78396
1480697183445833,-0.875658,-0.391564,1.7832
1480697183462377,-0.876533,-0.391018,1.78287
1480697183493961,-0.87673,-0.390781,1.78269
1480697183505494,-0.876036,-0.390537,1.78242
1480697183545099,-0.874952,-0.389772,1.78216
1480697183547604,-0.874352,-0.389312,1.78206
1480697183567658,-0.8746,-0.389356,1.78264
1480697183598239,-0.87524,-0.39004,1.78352
1480697183619797,-0.875008,-0.390842,1.7843
1480697183625812,-0.87348,-0.391249,1.78483
1480697183641354,-0.871899,-0.391549,1.78522
1480697183664415,-0.870549,-0.392428,1.78533
1480697183688482,-0.8699,-0.393918,1.78581
1480697183703018,-0.86906,-0.395903,1.78628
1480697183724575,-0.867318,-0.397962,1.78617
1480697183747137,-0.865265,-0.399674,1.78588
1480697183761674,-0.86283,-0.401492,1.7855
1480697183800277,-0.86117,-0.403159,1.78526
1480697183821836,-0.860542,-0.404658,1.78541
1480697183824340,-0.860117,-0.40572,1.78555
1480697183852415,-0.859504,-0.406336,1.78532
1480697183874474,-0.858589,-0.406349,1.78475
1480697183906058,-0.858114,-0.406358,1.78438
1480697183910570,-0.858107,-0.406234,1.78406
1480697183942658,-0.858891,-0.406141,1.78419
1480697183948169,-0.859156,-0.405936,1.78464
1480697183970730,-0.85833,-0.406166,1.78501
1480697183993289,-0.857042,-0.406962,1.78577
1480697184001310,-0.855333,-0.407947,1.78663
1480697184025876,-0.853875,-0.408859,1.78776
1480697184046932,-0.853459,-0.40935,1.78914
1480697184063477,-0.853504,-0.409583,1.79026
1480697184085033,-0.85355,-0.409506,1.79127
1480697184107092,-0.853682,-0.4094,1.79224
1480697184128148,-0.854033,-0.409234,1.793
1480697184159733,-0.854337,-0.409016,1.7936
1480697184174773,-0.85425,-0.408223,1.7939
1480697184188809,-0.854162,-0.407486,1.79452
1480697184204855,-0.853444,-0.406745,1.79533
1480697184228414,-0.852668,-0.405452,1.79673
1480697184247966,-0.851986,-0.404129,1.79927
1480697184272030,-0.852569,-0.402823,1.80262
1480697184303113,-0.855054,-0.400385,1.80757
1480697184308127,-0.857466,-0.396443,1.81425
1480697184324670,-0.858839,-0.393005,1.82103
1480697184354752,-0.858081,-0.38764,1.82908
1480697184367785,-0.854618,-0.381448,1.83714
1480697184384831,-0.85157,-0.37588,1.84526
1480697184407391,-0.850768,-0.369311,1.85332
1480697184427945,-0.850454,-0.361226,1.861
1480697184444991,-0.850002,-0.354132,1.86807
1480697184467050,-0.849274,-0.348175,1.87583
1480697184488606,-0.846222,-0.343025,1.88564
1480697184504148,-0.841389,-0.339308,1.8971
1480697184534729,-0.835074,-0.337155,1.90961
1480697184548265,-0.830649,-0.336049,1.92443
1480697184572331,-0.825918,-0.336818,1.941
1480697184587872,-0.820076,-0.339935,1.95841
1480697184624468,-0.812126,-0.346361,1.97596
1480697184638005,-0.799955,-0.355784,1.99181
1480697184647028,-0.783862,-0.367375,2.00601
1480697184670089,-0.76662,-0.381623,2.01826
1480697184684128,-0.748908,-0.398298,2.02651
1480697184707188,-0.731372,-0.414498,2.03197
1480697184730250,-0.71555,-0.430611,2.03486
1480697184745291,-0.699841,-0.445651,2.03711
1480697184767348,-0.685192,-0.459737,2.03953
1480697184789407,-0.671943,-0.471975,2.04027
1480697184810462,-0.660217,-0.48149,2.04039
1480697184835530,-0.651105,-0.489615,2.04056
1480697184857087,-0.641125,-0.496609,2.04085
1480697184878142,-0.625623,-0.499031,2.03993
1480697184887668,-0.636341,-0.515171,2.04283
1480697184909728,-0.635703,-0.510818,2.0445
1480697184930783,-0.626226,-0.508262,2.04578
1480697184947351,-0.617846,-0.505692,2.04319
1480697184969889,-0.616878,-0.50396,2.04363
1480697184990942,-0.620138,-0.502432,2.04528
1480697185006985,-0.623759,-0.500301,2.04774
1480697185029545,-0.625346,-0.496726,2.04972
1480697185051102,-0.6274,-0.492327,2.05165
1480697185070155,-0.630348,-0.488104,2.05358
1480697185089705,-0.634362,-0.484403,2.05475
1480697185113269,-0.639113,-0.480964,2.05594
1480697185135326,-0.645617,-0.477829,2.05784
1480697185163902,-0.652385,-0.475727,2.0604
1480697185170422,-0.658013,-0.474019,2.06345
1480697185186967,-0.660702,-0.473124,2.06595
1480697185210025,-0.661664,-0.472436,2.06818
1480697185230580,-0.663787,-0.471839,2.0689
1480697185256148,-0.668266,-0.471383,2.06884
1480697185269687,-0.672175,-0.471406,2.06916
1480697185290740,-0.676213,-0.47216,2.0703
1480697185307285,-0.676213,-0.474524,2.06962
1480697185329843,-0.676258,-0.477287,2.06722
1480697185358420,-0.677642,-0.480193,2.0624
1480697185367946,-0.680683,-0.481614,2.05453
1480697185389503,-0.687194,-0.480728,2.04651
1480697185410558,-0.694577,-0.4796,2.0393
1480697185440639,-0.699103,-0.477807,2.0327
1480697185455679,-0.698783,-0.475818,2.02627
1480697185470221,-0.696189,-0.473748,2.01927
1480697185486260,-0.696623,-0.470022,2.01467
1480697185509822,-0.697231,-0.468011,2.0092
1480697185533886,-0.699141,-0.466468,2.0071
1480697185554441,-0.696653,-0.466707,2.00679
1480697185577000,-0.690354,-0.467416,2.00567
1480697185599561,-0.685114,-0.467174,2.00337
1480697185607582,-0.683824,-0.467922,2.00185
1480697185643177,-0.686888,-0.470179,2.00344
1480697185667742,-0.688004,-0.472585,2.0056
1480697185670250,-0.684982,-0.474261,2.00642
1480697185689299,-0.682109,-0.475214,2.00603
1480697185714867,-0.682348,-0.475886,2.00493
1480697185740937,-0.684587,-0.476354,2.00348
1480697185750462,-0.685271,-0.476296,2.0015
1480697185772521,-0.682984,-0.475469,1.9986
1480697185787563,-0.679177,-0.474206,1.99551
1480697185809621,-0.675996,-0.472761,1.99274
1480697185832682,-0.674472,-0.471311,1.99102
1480697185854741,-0.674223,-0.471211,1.99093
1480697185877299,-0.673752,-0.470885,1.99216
1480697185899358,-0.67376,-0.47118,1.99434
1480697185906377,-0.674759,-0.471577,1.99719
1480697185944478,-0.677904,-0.471389,2.00108
1480697185968542,-0.68025,-0.471211,2.00544
1480697185973054,-0.681297,-0.470653,2.00933
1480697185991103,-0.682256,-0.470026,2.01301
1480697186012158,-0.682525,-0.469857,2.01583
1480697186033213,-0.68209,-0.469575,2.01835
1480697186049758,-0.683031,-0.468584,2.02081
1480697186072318,-0.684405,-0.467726,2.02272
1480697186093375,-0.68636,-0.466634,2.02457
1480697186117438,-0.688706,-0.466319,2.0263
1480697186145513,-0.689351,-0.464672,2.02879
1480697186165566,-0.686425,-0.462025,2.03117
1480697186222718,-0.681811,-0.458767,2.03209
1480697186225225,-0.679605,-0.455125,2.0326
1480697186237256,-0.685125,-0.449146,2.03134
1480697186251795,-0.692425,-0.445921,2.03059
1480697186273353,-0.697141,-0.442825,2.02867
1480697186289395,-0.70021,-0.440351,2.02441
1480697186314462,-0.704864,-0.438667,2.01953
1480697186333011,-0.714094,-0.435136,2.01591
1480697186350057,-0.722183,-0.430791,2.01273
1480697186386152,-0.727939,-0.426163,2.00894
1480697186393171,-0.733477,-0.420323,2.00525
1480697186408713,-0.735162,-0.415218,2.00055
1480697186432276,-0.732907,-0.409704,1.99634
1480697186462355,-0.729944,-0.405091,1.99328
1480697186476894,-0.728256,-0.400793,1.99099
1480697186491934,-0.726901,-0.398744,1.98959
1480697186516499,-0.727292,-0.398373,1.98865
1480697186538557,-0.729706,-0.398808,1.98905
1480697186559613,-0.73266,-0.39989,1.99071
1480697186574654,-0.735341,-0.401111,1.99293
1480697186603231,-0.736848,-0.402333,1.995
1480697186612254,-0.737368,-0.403863,1.99695
1480697186643337,-0.737102,-0.405622,1.99789
1480697186662889,-0.737388,-0.407353,1.99812
1480697186686952,-0.738011,-0.408846,1.99778
1480697186703500,-0.738293,-0.409908,1.99702
1480697186709012,-0.738549,-0.41065,1.99616
1480697186732072,-0.73891,-0.411167,1.9959
1480697186754634,-0.739062,-0.411834,1.99609
1480697186775688,-0.73884,-0.412436,1.99636
1480697186799792,-0.73888,-0.412866,1.99672
1480697186823856,-0.739508,-0.412959,1.99716
1480697186828868,-0.74068,-0.412612,1.99761
1480697186852432,-0.741591,-0.412439,1.99798
1480697186874491,-0.741591,-0.412439,1.99798
1480697186889029,-0.741631,-0.412435,1.99812
1480697186912090,-0.742023,-0.412354,1.99792
1480697186935153,-0.742007,-0.412626,1.99791
1480697186955706,-0.741518,-0.412862,1.99796
1480697186972253,-0.74064,-0.412924,1.99782
1480697186994810,-0.740188,-0.413101,1.99805
1480697187017371,-0.739772,-0.413222,1.99846
1480697187031909,-0.739397,-0.413772,1.99924
1480697187054971,-0.739652,-0.414414,2.00045
1480697187077029,-0.739802,-0.414925,2.00176
1480697187093071,-0.739953,-0.415437,2.00307
1480697187122149,-0.740369,-0.415828,2.00444
1480697187135686,-0.740665,-0.416105,2.0055
1480697187152229,-0.740736,-0.416192,2.0063
1480697187174789,-0.740464,-0.416335,2.00685
1480697187197348,-0.73998,-0.416015,2.00716
1480697187218406,-0.740074,-0.415806,2.00736
1480697187235450,-0.740371,-0.415574,2.00764
1480697187255504,-0.740227,-0.415501,2.00754
1480697187287087,-0.740125,-0.415477,2.00755
1480697187308645,-0.74049,-0.41538,2.00759
1480697187323183,-0.74049,-0.41538,2.00759
1480697187332207,-0.739309,-0.41509,2.00808
1480697187355770,-0.739097,-0.415136,2.00861
1480697187375823,-0.739773,-0.415045,2.00972
1480697187398383,-0.740698,-0.415104,2.01087
1480697187414454,-0.741044,-0.414744,2.01178
1480697187435986,-0.741353,-0.414441,2.01249
1480697187452027,-0.742312,-0.414133,2.01348
1480697187474587,-0.743047,-0.413687,2.01417
1480697187497146,-0.743535,-0.413145,2.01478
1480697187512186,-0.74396,-0.412392,2.01505
1480697187540762,-0.744371,-0.411911,2.01533
1480697187558810,-0.74493,-0.411556,2.01565
1480697187585882,-0.744989,-0.411459,2.01563
1480697187600421,-0.744845,-0.411386,2.01553
1480697187633009,-0.744633,-0.411432,2.01607
1480697187639024,-0.74447,-0.411707,2.01653
1480697187654565,-0.7444,-0.411773,2.0172
1480697187677124,-0.74413,-0.411918,2.01776
1480697187691161,-0.744166,-0.412061,2.01838
1480697187714725,-0.7443,-0.412104,2.01912
1480697187744804,-0.744349,-0.411975,2.01975
1480697187751322,-0.744502,-0.411924,2.02033
1480697187774383,-0.744515,-0.411853,2.02076
1480697187797945,-0.744613,-0.411752,2.02089
1480697187811481,-0.744424,-0.411759,2.02121
1480697187835546,-0.74407,-0.411734,2.02165
1480697187863120,-0.743659,-0.411861,2.02207
1480697187887183,-0.743295,-0.412162,2.02247
1480697187895205,-0.743027,-0.412309,2.02303
1480697187918266,-0.742615,-0.412383,2.02349
1480697187938319,-0.742492,-0.412602,2.02414
1480697187955866,-0.742532,-0.412801,2.02473
1480697187976921,-0.742237,-0.41268,2.02514
1480697187998980,-0.742029,-0.412729,2.02568
1480697188014530,-0.742443,-0.412502,2.02635
1480697188038084,-0.742645,-0.412477,2.02642
1480697188065657,-0.742704,-0.412379,2.0264
1480697188076187,-0.742301,-0.412128,2.02691
1480697188097242,-0.741501,-0.412089,2.02715
1480697188118297,-0.741129,-0.412162,2.02776
1480697188135344,-0.741027,-0.412288,2.02824
1480697188162916,-0.741031,-0.412545,2.02864
1480697188177956,-0.740708,-0.412791,2.02923
1480697188194500,-0.740671,-0.41313,2.03004
1480697188217562,-0.740348,-0.413378,2.03063
1480697188238120,-0.739997,-0.413357,2.03107
1480697188254160,-0.739811,-0.413367,2.0314
1480697188278724,-0.739811,-0.413367,2.0314
1480697188298276,-0.740343,-0.412997,2.03198
1480697188314320,-0.740789,-0.412457,2.03244
1480697188352922,-0.741092,-0.411897,2.03276
1480697188365456,-0.741092,-0.411897,2.03276
1480697188375482,-0.741149,-0.411799,2.03274
1480697188397541,-0.741244,-0.411644,2.0329
1480697188421605,-0.741244,-0.411644,2.0329
1480697188442661,-0.741302,-0.411546,2.03288
1480697188457204,-0.741458,-0.411496,2.03346
1480697188479258,-0.741414,-0.411525,2.03393
1480697188495802,-0.741228,-0.411535,2.03425
1480697188516858,-0.741127,-0.411663,2.03474
1480697188563481,-0.741173,-0.411916,2.03529
1480697188567993,-0.741187,-0.411848,2.03573
1480697188577018,-0.741489,-0.41187,2.0364
1480697188607099,-0.741489,-0.41187,2.0364
1480697188615620,-0.741546,-0.411772,2.03638
1480697188637177,-0.741691,-0.411844,2.03647
1480697188675781,-0.741749,-0.411745,2.03645
1480697188681295,-0.741746,-0.411692,2.03649
1480697188698340,-0.741804,-0.411594,2.03647
1480697188719397,-0.741862,-0.411495,2.03645
1480697188741956,-0.741862,-0.411495,2.03645
1480697188756997,-0.741917,-0.411344,2.03647
1480697188780057,-0.74197,-0.411272,2.03705
1480697188794094,-0.741583,-0.411309,2.03731
1480697188817156,-0.741274,-0.41134,2.03786
1480697188841722,-0.741651,-0.411168,2.03834
1480697188862777,-0.741973,-0.411149,2.0388
1480697188885337,-0.741717,-0.410975,2.03941
1480697188899375,-0.740842,-0.411082,2.03989
1480697188920933,-0.740434,-0.411162,2.04036
1480697188936975,-0.740785,-0.411358,2.04102
1480697188967055,-0.741395,-0.411428,2.04171
1480697188988612,-0.741452,-0.41133,2.04169
1480697188998639,-0.741447,-0.411304,2.04234
1480697189020199,-0.741807,-0.411227,2.043
1480697189040750,-0.741864,-0.411129,2.04297
1480697189057295,-0.741719,-0.411057,2.04288
1480697189079353,-0.741815,-0.410955,2.043
1480697189107929,-0.741813,-0.410902,2.04304
1480697189119462,-0.741813,-0.410902,2.04304
1480697189139514,-0.741668,-0.41083,2.04295
1480697189162074,-0.74167,-0.410883,2.0429
1480697189177113,-0.74167,-0.410883,2.0429
1480697189199172,-0.74167,-0.410883,2.0429
1480697189229753,-0.741944,-0.41069,2.04339
1480697189237775,-0.741942,-0.410637,2.04344
1480697189259331,-0.741999,-0.410538,2.04341
1480697189281390,-0.742473,-0.410264,2.04402
1480697189296932,-0.742833,-0.410188,2.04467
1480697189319996,-0.743249,-0.410012,2.0453
1480697189343054,-0.743247,-0.409959,2.04534
1480697189357092,-0.743304,-0.40986,2.04532
1480697189379652,-0.743578,-0.409666,2.04581
1480697189404218,-0.743578,-0.409666,2.04581
1480697189418255,-0.743578,-0.409666,2.04581
1480697189439812,-0.743635,-0.409568,2.04578
1480697189462372,-0.74343,-0.409622,2.04633
1480697189476409,-0.743445,-0.409553,2.04677
1480697189505487,-0.743404,-0.409584,2.04724
1480697189522030,-0.743404,-0.409584,2.04724
1480697189546595,-0.743404,-0.409584,2.04724
1480697189559630,-0.743458,-0.409432,2.04726
1480697189582191,-0.744134,-0.40913,2.04793
1480697189597232,-0.744131,-0.409077,2.04798
1480697189625806,-0.74447,-0.408512,2.04844
1480697189648366,-0.745054,-0.407987,2.04904
1480697189656387,-0.745948,-0.407562,2.04962
1480697189692985,-0.746002,-0.40741,2.04964
1480697189702012,-0.746002,-0.40741,2.04964
1480697189716548,-0.745547,-0.407318,2.05014
1480697189739609,-0.745402,-0.407328,2.05061
1480697189763173,-0.745466,-0.407432,2.05103
1480697189784731,-0.745619,-0.407707,2.05157
1480697189799769,-0.745216,-0.407842,2.052
1480697189822329,-0.744955,-0.407996,2.05257
1480697189843886,-0.744715,-0.408108,2.05292
1480697189859427,-0.744472,-0.408166,2.05333
1480697189882990,-0.744529,-0.408067,2.0533
1480697189903046,-0.744568,-0.408064,2.05344
1480697189925603,-0.744625,-0.407965,2.05342
1480697189942649,-0.744824,-0.407884,2.05353
1480697189971225,-0.74512,-0.407269,2.0539
1480697189979748,-0.745341,-0.406848,2.05446
1480697190008324,-0.745435,-0.406693,2.05462
1480697190022863,-0.745851,-0.406516,2.05525
1480697190039407,-0.745665,-0.406476,2.05563
1480697190061966,-0.745412,-0.406359,2.0562
1480697190083022,-0.74512,-0.406245,2.05662
1480697190100068,-0.74512,-0.406245,2.05662
1480697190122126,-0.745064,-0.406343,2.05665
1480697190142681,-0.744976,-0.406255,2.0571
1480697190159726,-0.744992,-0.406187,2.05754
1480697190182286,-0.745226,-0.405996,2.05789
1480697190203342,-0.74528,-0.405844,2.05791
1480697190220387,-0.745808,-0.405469,2.05849
1480697190242947,-0.74594,-0.404879,2.05893
1480697190264003,-0.746217,-0.404359,2.05947
1480697190279544,-0.746256,-0.404356,2.05961
1480697190311131,-0.746313,-0.404257,2.05958
1480697190330680,-0.746743,-0.403931,2.06009
1480697190339705,-0.746996,-0.403778,2.0608
1480697190362264,-0.74725,-0.403625,2.0615
1480697190384323,-0.747458,-0.403747,2.06206
1480697190405881,-0.74715,-0.40373,2.06266
1480697190422424,-0.747202,-0.403606,2.06329
1480697190461027,-0.747438,-0.403467,2.06359
1480697190473561,-0.746924,-0.402572,2.06381
1480697190483587,-0.745407,-0.402333,2.06411
1480697190506148,-0.744367,-0.401814,2.06375
1480697190519184,-0.743467,-0.401636,2.06348
1480697190548259,-0.743173,-0.401049,2.06346
1480697190565305,-0.742443,-0.400627,2.06307
1480697190593379,-0.742777,-0.399981,2.06297
1480697190601902,-0.742568,-0.399456,2.06316
1480697190625966,-0.742132,-0.399275,2.0635
1480697190639001,-0.740357,-0.399013,2.06328
1480697190662062,-0.739801,-0.398825,2.06322
1480697190684622,-0.740099,-0.399171,2.06385
1480697190707183,-0.739836,-0.399653,2.06438
1480697190723725,-0.740018,-0.400092,2.06515
1480697190750797,-0.740523,-0.40094,2.06626
1480697190765838,-0.740771,-0.401862,2.06737
1480697190782382,-0.741313,-0.402978,2.06862
1480697190804441,-0.741679,-0.403756,2.06963
1480697190827001,-0.742016,-0.403992,2.0705
1480697190849561,-0.742012,-0.404295,2.07112
1480697190880142,-0.742508,-0.404777,2.07192
1480697190885660,-0.742899,-0.405239,2.07273
1480697190902202,-0.743182,-0.405899,2.07358
1480697190940314,-0.743324,-0.406219,2.07434
1480697190953337,-0.743429,-0.406594,2.07492
1480697190961858,-0.743479,-0.407068,2.07551
1480697190984419,-0.743371,-0.407624,2.07614
1480697191012995,-0.743079,-0.407787,2.07658
1480697191024525,-0.742574,-0.40813,2.07706
1480697191045081,-0.742228,-0.408393,2.07753
1480697191065636,-0.742068,-0.408724,2.07822
1480697191082179,-0.741963,-0.408956,2.07889
1480697191105241,-0.741961,-0.409153,2.07961
1480697191140838,-0.741962,-0.409404,2.08028
1480697191149358,-0.741712,-0.409566,2.08086
1480697191170414,-0.742204,-0.409548,2.08188
1480697191185956,-0.743072,-0.409699,2.08268
1480697191215533,-0.743182,-0.40975,2.0833
1480697191230574,-0.742825,-0.409787,2.08397
1480697191254136,-0.742377,-0.410034,2.08444
1480697191263663,-0.74258,-0.40993,2.08522
1480697191299758,-0.742906,-0.410178,2.0857
1480697191307278,-0.743201,-0.410568,2.08656
1480697191322318,-0.74286,-0.410834,2.08702
1480697191344378,-0.742451,-0.411298,2.08768
1480697191367939,-0.742005,-0.411818,2.08815
1480697191381474,-0.741612,-0.412238,2.0886
1480697191404536,-0.741473,-0.412474,2.08913
1480697191427098,-0.741387,-0.41261,2.08964
1480697191441635,-0.741409,-0.412546,2.0901
1480697191465699,-0.741722,-0.412567,2.09079
1480697191494776,-0.741889,-0.412519,2.09138
1480697191515833,-0.742202,-0.41254,2.09207
1480697191524856,-0.742569,-0.412461,2.09273
1480697191546916,-0.742882,-0.412428,2.09347
1480697191586022,-0.743197,-0.412503,2.09411
1480697191593038,-0.743311,-0.412554,2.09474
1480697191614595,-0.743387,-0.412661,2.09517
1480697191637155,-0.743104,-0.412883,2.09557
1480697191658712,-0.742769,-0.413204,2.09599
1480697191667736,-0.742432,-0.413473,2.09646
1480697191681272,-0.742391,-0.413933,2.09707
1480697191705336,-0.742202,-0.414272,2.09763
1480697191726893,-0.74196,-0.41471,2.09822
1480697191747949,-0.741772,-0.415049,2.09879
1480697191771512,-0.742236,-0.415411,2.09958
1480697191787555,-0.742461,-0.415587,2.10011
1480697191815629,-0.742725,-0.415709,2.10083
1480697191824657,-0.743042,-0.41573,2.10152
1480697191847216,-0.743158,-0.415728,2.1022
1480697191869774,-0.743622,-0.415764,2.10304
1480697191884312,-0.743541,-0.415901,2.10355
1480697191915896,-0.743446,-0.416085,2.10428
1480697191927929,-0.743114,-0.416355,2.10475
1480697191961517,-0.742675,-0.416556,2.10527
1480697191981070,-0.742729,-0.416809,2.1061
1480697191988589,-0.742786,-0.417334,2.10693
1480697192004633,-0.742658,-0.417845,2.10748
1480697192027193,-0.74257,-0.418355,2.10817
1480697192048248,-0.742737,-0.41895,2.10896
1480697192064793,-0.742409,-0.419276,2.10938
1480697192087352,-0.742478,-0.41943,2.11004
1480697192107906,-0.742599,-0.419537,2.11062
1480697192124450,-0.74272,-0.41959,2.11125
1480697192170574,-0.742894,-0.419542,2.11186
1480697192215192,-0.743521,-0.419546,2.11262
1480697192217197,-0.74383,-0.419613,2.11354
1480697192231234,-0.743785,-0.420015,2.11447
1480697192237251,-0.74345,-0.420606,2.11518
1480697192244771,-0.743111,-0.42157,2.11607
1480697192266829,-0.743126,-0.422897,2.11707
1480697192289389,-0.743161,-0.424395,2.11792
1480697192303928,-0.743245,-0.426165,2.11892
1480697192331000,-0.743075,-0.427799,2.11988
1480697192350051,-0.742445,-0.429111,2.12066
1480697192365593,-0.741932,-0.429692,2.12109
1480697192387150,-0.74156,-0.430124,2.12155
1480697192424248,-0.740844,-0.430256,2.12156
1480697192426755,-0.74007,-0.430272,2.12154
1480697192447309,-0.739425,-0.430262,2.12104
1480697192491426,-0.738729,-0.430353,2.12057
1480697192506968,-0.738172,-0.430507,2.12046
1480697192515992,-0.737416,-0.430693,2.12029
1480697192537048,-0.735795,-0.431051,2.11993
1480697192550585,-0.73482,-0.43142,2.12008
1480697192573143,-0.733944,-0.431852,2.12045
1480697192605732,-0.73357,-0.432607,2.12114
1480697192610744,-0.733597,-0.433188,2.12207
1480697192627288,-0.733979,-0.434132,2.12311
1480697192651353,-0.734423,-0.434816,2.12402
1480697192670911,-0.735009,-0.435243,2.12506
1480697192700483,-0.735696,-0.435574,2.12593
1480697192723560,-0.736127,-0.435338,2.12663
1480697192730562,-0.736807,-0.434912,2.12742
1480697192748611,-0.737437,-0.434697,2.12813
1480697192770669,-0.737859,-0.434189,2.12882
1480697192790723,-0.738249,-0.433952,2.12939
1480697192813783,-0.738879,-0.433681,2.13015
1480697192829827,-0.739459,-0.433513,2.13094
1480697192851384,-0.739989,-0.433446,2.13177
1480697192874445,-0.740212,-0.433346,2.13257
1480697192889485,-0.740295,-0.433449,2.1333
1480697192911042,-0.740627,-0.43347,2.134
1480697192927085,-0.740759,-0.433526,2.13464
1480697192950146,-0.740286,-0.43352,2.13497
1480697192978722,-0.739704,-0.433393,2.1354
1480697193002288,-0.739462,-0.43324,2.13631
1480697193026349,-0.738684,-0.433523,2.13686
1480697193031863,-0.738709,-0.433457,2.1376
1480697193052920,-0.738982,-0.43331,2.13832
1480697193069464,-0.7386,-0.433095,2.13886
1480697193090520,-0.738716,-0.432874,2.13977
1480697193107565,-0.739108,-0.433065,2.14046
1480697193130125,-0.739134,-0.433,2.1412
1480697193152184,-0.738332,-0.433058,2.14223
1480697193173240,-0.737455,-0.433229,2.1426
1480697193196802,-0.738055,-0.433282,2.14319
1480697193211842,-0.738924,-0.433796,2.14379
1480697193233400,-0.739227,-0.434252,2.14421
1480697193256962,-0.738925,-0.434432,2.14454
1480697193281026,-0.738962,-0.434804,2.14514
1480697193286541,-0.738922,-0.434802,2.145
1480697193310105,-0.738859,-0.435003,2.14547
1480697193338178,-0.738859,-0.435003,2.14547
1480697193346199,-0.738907,-0.434901,2.14544
1480697193371770,-0.738991,-0.434684,2.14594
1480697193392322,-0.739613,-0.434515,2.14687
1480697193406360,-0.739909,-0.434481,2.1475
1480697193436941,-0.740292,-0.4344,2.14818
1480697193451981,-0.740675,-0.434318,2.14886
1480697193466521,-0.740969,-0.434338,2.14943
1480697193489581,-0.741154,-0.434347,2.14999
1480697193512141,-0.741154,-0.434347,2.14999
1480697193534701,-0.741154,-0.434347,2.14999
1480697193557261,-0.741106,-0.434449,2.15002
1480697193572301,-0.740956,-0.434382,2.14993
1480697193593858,-0.740888,-0.434262,2.15017
1480697193610903,-0.740978,-0.434051,2.15038
1480697193631959,-0.741008,-0.433671,2.15061
1480697193653015,-0.74088,-0.433273,2.15097
1480697193669559,-0.740651,-0.432704,2.15121
1480697193692621,-0.740625,-0.432477,2.15169
1480697193713677,-0.74015,-0.432101,2.15184
1480697193729218,-0.740282,-0.431783,2.15231
1480697193752279,-0.740309,-0.431773,2.153
1480697193773335,-0.740535,-0.431674,2.15381
1480697193789378,-0.741034,-0.431979,2.15468
1480697193818456,-0.741635,-0.432455,2.15568
1480697193840514,-0.742087,-0.432862,2.15659
1480697193849538,-0.742034,-0.433331,2.15736
1480697193872098,-0.7422,-0.433985,2.15799
1480697193901175,-0.742002,-0.434021,2.15792
1480697193918223,-0.742133,-0.433811,2.15828
1480697193932258,-0.742133,-0.433811,2.15828
1480697193953819,-0.742181,-0.433654,2.1583
1480697193969356,-0.742222,-0.433655,2.15844
1480697193991917,-0.742119,-0.433485,2.15831
1480697194014477,-0.742119,-0.433485,2.15831
1480697194037036,-0.742203,-0.433323,2.15875
1480697194066113,-0.742498,-0.433397,2.15927
1480697194090178,-0.742787,-0.433521,2.16002
1480697194093687,-0.742777,-0.433511,2.16057
1480697194112237,-0.742718,-0.433658,2.16111
1480697194134798,-0.742919,-0.433938,2.16169
1480697194156856,-0.742861,-0.434086,2.16222
1480697194171895,-0.742495,-0.434205,2.16273
1480697194194455,-0.741932,-0.434415,2.16313
1480697194223031,-0.741636,-0.434652,2.16341
1480697194232055,-0.741379,-0.434892,2.16382
1480697194269655,-0.741472,-0.435107,2.16444
1480697194271660,-0.741176,-0.435346,2.16472
1480697194293720,-0.741428,-0.435468,2.16533
1480697194314776,-0.741417,-0.435568,2.16578
1480697194345357,-0.741236,-0.435326,2.16639
1480697194352377,-0.741629,-0.435083,2.16697
1480697194375437,-0.741603,-0.434912,2.16739
1480697194388973,-0.741427,-0.43462,2.16778
1480697194412034,-0.741205,-0.434431,2.16821
1480697194434594,-0.741045,-0.43441,2.16862
1480697194457656,-0.741234,-0.434364,2.16924
1480697194472194,-0.741178,-0.434514,2.16977
1480697194494754,-0.741274,-0.434675,2.17046
1480697194524834,-0.741068,-0.434758,2.1709
1480697194545388,-0.740918,-0.435169,2.17144
1480697194554414,-0.740821,-0.435372,2.17178
1480697194575468,-0.740821,-0.435372,2.17178
1480697194592012,-0.74086,-0.435315,2.17226
1480697194621090,-0.740906,-0.435212,2.17222
1480697194643150,-0.740907,-0.435157,2.17228
1480697194652674,-0.741491,-0.435037,2.17303
1480697194675233,-0.741687,-0.434886,2.17349
1480697194703308,-0.741965,-0.434684,2.17427
1480697194712834,-0.74231,-0.434654,2.17476
1480697194734393,-0.742656,-0.434569,2.17531
1480697194755449,-0.742656,-0.434569,2.17531
1480697194771993,-0.742656,-0.434569,2.17531
1480697194802071,-0.742188,-0.434632,2.17559
1480697194823138,-0.742038,-0.434566,2.1755
1480697194847191,-0.741832,-0.434704,2.17588
1480697194854713,-0.741674,-0.434685,2.1763
1480697194875767,-0.74162,-0.434835,2.17683
1480697194900333,-0.741571,-0.434935,2.17715
1480697194914871,-0.74187,-0.435008,2.17767
1480697194935426,-0.742211,-0.435029,2.17838
1480697194952974,-0.742201,-0.435072,2.17917
1480697194974530,-0.741837,-0.435247,2.17991
1480697195006114,-0.74163,-0.435383,2.18058
1480697195013633,-0.741794,-0.435713,2.18126
1480697195034690,-0.742665,-0.435833,2.18197
1480697195057249,-0.743314,-0.435879,2.18271
1480697195078305,-0.743314,-0.435879,2.18271
1480697195101869,-0.74336,-0.435775,2.18267
1480697195126935,-0.74336,-0.435775,2.18267
1480697195131948,-0.74397,-0.435878,2.18294
1480697195154509,-0.744276,-0.435904,2.18295
1480697195177068,-0.744276,-0.435904,2.18295
1480697195191608,-0.743403,-0.435667,2.18293
1480697195214668,-0.743007,-0.43525,2.1834
1480697195237230,-0.743136,-0.434982,2.1841
1480697195251266,-0.742764,-0.43473,2.18443
1480697195274326,-0.742934,-0.434409,2.18532
1480697195296886,-0.742927,-0.434398,2.18617
1480697195312929,-0.743203,-0.434248,2.18718
1480697195335490,-0.74368,-0.433952,2.18808
1480697195358050,-0.74418,-0.433877,2.18879
1480697195379606,-0.744721,-0.433803,2.18962
1480697195402669,-0.745023,-0.433821,2.19021
1480697195423222,-0.745023,-0.433821,2.19021
1480697195431244,-0.744871,-0.43381,2.19006
1480697195456812,-0.744437,-0.433341,2.19018
1480697195484385,-0.744854,-0.43283,2.19058
1480697195498423,-0.744704,-0.432765,2.19049
1480697195514465,-0.744704,-0.432765,2.19049
1480697195545549,-0.744704,-0.432765,2.19049
1480697195558081,-0.744553,-0.4327,2.1904
1480697195574625,-0.744547,-0.432747,2.19091
1480697195598188,-0.744582,-0.432797,2.19155
1480697195619246,-0.744515,-0.432568,2.19219
1480697195634785,-0.744662,-0.432626,2.19285
1480697195658348,-0.744898,-0.432531,2.19338
1480697195677899,-0.745355,-0.432563,2.19383
1480697195696449,-0.745395,-0.432506,2.19431
1480697195732044,-0.745042,-0.432583,2.19461
1480697195745580,-0.744731,-0.432607,2.1951
1480697195754604,-0.74458,-0.432542,2.19501
1480697195777164,-0.74458,-0.432542,2.19501
1480697195798220,-0.744529,-0.432749,2.19549
1480697195814764,-0.744546,-0.433068,2.19602
1480697195846354,-0.744541,-0.433117,2.19653
1480697195857878,-0.744627,-0.432957,2.19697
1480697195874424,-0.744518,-0.432781,2.19742
1480697195896984,-0.744689,-0.432519,2.19797
1480697195935088,-0.744689,-0.432519,2.19797
1480697195937591,-0.744734,-0.432415,2.19793
1480697195957143,-0.744759,-0.431927,2.19828
1480697195978198,-0.745127,-0.431572,2.19895
1480697195994742,-0.745172,-0.431467,2.19891
1480697196017303,-0.745237,-0.430982,2.1994
1480697196039361,-0.745063,-0.43064,2.19985
1480697196055408,-0.744995,-0.43047,2.20015
1480697196076961,-0.745365,-0.430062,2.20058
1480697196100524,-0.745541,-0.42964,2.20103
1480697196122085,-0.744951,-0.429216,2.20122
1480697196144642,-0.744601,-0.428645,2.20173
1480697196167201,-0.74408,-0.428279,2.20204
1480697196173719,-0.744161,-0.428226,2.20265
1480697196211819,-0.744464,-0.428243,2.20324
1480697196235883,-0.745028,-0.428387,2.20387
1480697196240395,-0.745719,-0.428376,2.2048
1480697196257440,-0.746065,-0.428286,2.20564
1480697196287019,-0.745953,-0.428218,2.20625
1480697196294038,-0.746148,-0.428178,2.20631
1480697196317099,-0.745997,-0.428114,2.20622
1480697196339660,-0.745997,-0.428114,2.20622
1480697196353696,-0.746041,-0.428009,2.20619
1480697196377261,-0.745714,-0.427659,2.20649
1480697196399819,-0.745536,-0.427428,2.20683
1480697196422881,-0.745256,-0.426922,2.20688
1480697196444439,-0.745322,-0.42644,2.20708
1480697196461985,-0.745496,-0.426075,2.20717
1480697196482039,-0.745825,-0.425664,2.20748
1480697196497078,-0.74593,-0.425185,2.20781
1480697196525654,-0.745802,-0.424689,2.20801
1480697196540697,-0.745846,-0.424584,2.20798
1480697196557740,-0.745888,-0.424532,2.20817
1480697196579798,-0.745711,-0.424246,2.20857
1480697196600353,-0.745687,-0.423971,2.20911
1480697196616898,-0.745969,-0.423662,2.20974
1480697196653996,-0.746401,-0.423418,2.21045
1480697196677558,-0.746984,-0.423237,2.21126
1480697196680065,-0.747176,-0.423191,2.21189
1480697196699617,-0.747129,-0.423291,2.21249
1480697196720673,-0.747082,-0.423445,2.21303
1480697196737217,-0.747078,-0.423494,2.21355
1480697196759777,-0.747076,-0.423489,2.21412
1480697196780833,-0.74718,-0.423707,2.21475
1480697196797878,-0.747026,-0.423693,2.21517
1480697196819436,-0.747262,-0.423543,2.21577
1480697196840492,-0.747415,-0.423552,2.21592
1480697196857036,-0.747415,-0.423552,2.21592
1480697196880097,-0.747458,-0.423448,2.21589
1480697196911181,-0.747502,-0.423343,2.21586
1480697196917196,-0.747504,-0.423289,2.21592
1480697196945270,-0.747548,-0.423184,2.21589
1480697196963820,-0.747591,-0.42308,2.21585
1480697196977857,-0.747654,-0.422596,2.21634
1480697196999414,-0.747654,-0.422596,2.21634
1480697197013452,-0.747214,-0.422241,2.21662
1480697197035509,-0.747214,-0.422241,2.21662
1480697197044032,-0.746756,-0.422207,2.21703
1480697197066594,-0.746558,-0.422298,2.21749
1480697197087649,-0.746924,-0.422641,2.21817
1480697197105696,-0.747337,-0.422773,2.21866
1480697197124747,-0.747531,-0.422673,2.21935
1480697197164356,-0.747681,-0.422732,2.22001
1480697197166860,-0.747725,-0.422628,2.21998
1480697197189419,-0.747725,-0.422628,2.21998
1480697197208972,-0.747635,-0.422135,2.22031
1480697197231532,-0.747484,-0.422072,2.22022
1480697197245068,-0.747567,-0.421969,2.22032
1480697197267627,-0.747613,-0.42181,2.22035
1480697197301220,-0.747613,-0.42181,2.22035
1480697197304726,-0.747613,-0.42181,2.22035
1480697197328789,-0.747347,-0.42179,2.22075
1480697197343830,-0.747109,-0.421934,2.22102
1480697197364886,-0.746802,-0.421965,2.22151
1480697197391041,-0.74691,-0.422077,2.22199
1480697197415606,-0.74691,-0.422073,2.22256
1480697197425131,-0.747145,-0.421977,2.2231
1480697197447189,-0.747256,-0.422035,2.22363
1480697197465237,-0.7476,-0.422053,2.22435
1480697197489803,-0.748033,-0.421807,2.22507
1480697197510357,-0.748033,-0.421807,2.22507
1480697197523893,-0.748358,-0.421393,2.22566
1480697197552470,-0.74857,-0.420972,2.22624
1480697197568512,-0.748632,-0.420489,2.22672
1480697197591216,-0.748632,-0.420489,2.22672
1480697197612272,-0.748609,-0.420163,2.22705
1480697197627814,-0.748652,-0.420058,2.22701
1480697197646363,-0.748541,-0.419997,2.22705
1480697197681456,-0.748541,-0.419997,2.22705
1480697197687472,-0.74839,-0.419934,2.22697
1480697197707526,-0.74839,-0.419934,2.22697
1480697197725072,-0.74839,-0.419934,2.22697
1480697197748134,-0.748627,-0.419784,2.22756
1480697197765180,-0.74867,-0.41968,2.22753
1480697197785235,-0.748821,-0.419742,2.22762
1480697197807292,-0.748864,-0.419638,2.22759
1480697197825339,-0.748908,-0.419479,2.22762
1480697197852411,-0.749296,-0.419391,2.2283
1480697197869960,-0.749188,-0.419224,2.22818
1480697197890012,-0.749317,-0.418906,2.22866
1480697197905052,-0.749357,-0.418908,2.22879
1480697197927611,-0.748986,-0.41867,2.22884
1480697197965211,-0.748853,-0.418229,2.22927
1480697197975240,-0.748287,-0.418086,2.2295
1480697197987270,-0.748092,-0.418182,2.22938
1480697198009830,-0.748241,-0.418296,2.22998
1480697198024870,-0.748352,-0.418354,2.23023
1480697198047430,-0.74835,-0.418406,2.23075
1480697198069990,-0.74835,-0.418403,2.23132
1480697198086534,-0.748542,-0.418411,2.23189
1480697198108092,-0.74889,-0.418322,2.23245
1480697198132657,-0.748713,-0.418041,2.23285
1480697198152209,-0.748799,-0.417828,2.23336
1480697198168753,-0.748843,-0.417669,2.23339
1480697198189809,-0.748883,-0.417671,2.23352
1480697198204848,-0.748925,-0.417566,2.23349
1480697198237937,-0.748925,-0.417566,2.23349
1480697198253478,-0.748775,-0.417504,2.2334
1480697198265510,-0.748775,-0.417504,2.2334
1480697198295089,-0.748732,-0.417607,2.23372
1480697198319153,-0.748732,-0.417607,2.23372
1480697198327174,-0.748732,-0.417607,2.23372
1480697198348229,-0.748731,-0.417659,2.23424
1480697198369788,-0.74858,-0.417648,2.23466
1480697198387837,-0.748924,-0.417665,2.23538
1480697198410396,-0.74923,-0.41768,2.23598
1480697198429948,-0.749661,-0.417432,2.23669
1480697198452507,-0.749941,-0.417177,2.23726
1480697198475067,-0.749983,-0.417072,2.23723
1480697198507152,-0.750262,-0.416817,2.23779
1480697198509158,-0.750264,-0.416763,2.23786
1480697198544253,-0.750391,-0.416499,2.23827
1480697198551271,-0.750391,-0.416499,2.23827
1480697198574344,-0.750279,-0.416491,2.23882
1480697198594886,-0.750128,-0.416429,2.23874
1480697198618450,-0.750128,-0.416429,2.23874
1480697198632486,-0.750128,-0.416429,2.23874
1480697198655050,-0.750128,-0.416429,2.23874
1480697198671591,-0.749977,-0.416367,2.23865
1480697198688636,-0.75002,-0.416262,2.23862
1480697198711195,-0.750171,-0.416324,2.2387
1480697198730747,-0.750171,-0.416324,2.2387
1480697198752306,-0.750213,-0.416219,2.23867
1480697198767346,-0.750257,-0.41606,2.2387
1480697198799931,-0.750341,-0.415902,2.23915
1480697198823995,-0.750425,-0.415745,2.23931
1480697198830513,-0.750247,-0.415464,2.23971
1480697198853073,-0.750291,-0.415305,2.23974
1480697198875632,-0.750291,-0.415305,2.23974
1480697198896187,-0.74996,-0.41507,2.24021
1480697198918246,-0.749051,-0.414965,2.24053
1480697198932283,-0.74851,-0.415203,2.24095
1480697198955849,-0.74862,-0.415315,2.24142
1480697198986932,-0.748838,-0.415648,2.24195
1480697198992443,-0.748756,-0.415803,2.24238
1480697199008987,-0.748647,-0.415741,2.243
1480697199030043,-0.748951,-0.41581,2.24353
1480697199063131,-0.749063,-0.415922,2.244
1480697199067644,-0.748693,-0.415686,2.24435
1480697199090205,-0.748693,-0.415686,2.24435
1480697199107750,-0.748735,-0.415581,2.24432
1480697199127302,-0.748779,-0.415422,2.24435
1480697199160390,-0.74886,-0.415319,2.24444
1480697199179441,-0.74886,-0.415319,2.24444
1480697199198491,-0.74871,-0.415258,2.24436
1480697199220550,-0.748752,-0.415205,2.24484
1480697199230075,-0.748753,-0.415258,2.24535
1480697199247622,-0.748753,-0.415311,2.24587
1480697199269681,-0.748714,-0.415361,2.24626
1480697199287729,-0.748715,-0.415414,2.24678
1480697199310288,-0.748715,-0.415414,2.24678
1480697199337360,-0.748866,-0.415475,2.24686
1480697199362929,-0.749298,-0.415174,2.24736
1480697199384990,-0.749773,-0.414713,2.24788
1480697199390000,-0.750006,-0.414672,2.24806
1480697199409553,-0.750006,-0.414672,2.24806
1480697199427600,-0.750049,-0.414513,2.24809
1480697199449659,-0.750091,-0.414408,2.24806
1480697199472219,-0.750091,-0.414408,2.24806
1480697199504304,-0.749983,-0.414294,2.24845
1480697199511323,-0.750025,-0.414241,2.24894
1480697199540436,-0.750025,-0.414241,2.24894
1480697199554940,-0.749875,-0.41418,2.24885
1480697199569979,-0.749875,-0.41418,2.24885
1480697199592539,-0.749873,-0.414234,2.24878
1480697199618608,-0.749875,-0.41418,2.24885
1480697199632646,-0.749875,-0.41418,2.24885
1480697199656207,-0.749875,-0.41418,2.24885
1480697199668741,-0.749916,-0.414075,2.24882
1480697199689797,-0.750109,-0.414031,2.24887
1480697199712365,-0.750111,-0.413977,2.24893
1480697199728901,-0.750625,-0.413518,2.24958
1480697199749957,-0.751444,-0.413021,2.25002
1480697199772519,-0.751483,-0.413024,2.25015
1480697199798085,-0.751237,-0.412527,2.25062
1480697199823653,-0.75033,-0.412427,2.25094
1480697199832678,-0.75018,-0.412419,2.25137
1480697199865264,-0.750526,-0.412381,2.25187
1480697199869775,-0.750748,-0.412606,2.25224
1480697199895346,-0.750557,-0.412703,2.2527
1480697199914896,-0.750406,-0.412803,2.25329
1480697199929936,-0.750407,-0.412856,2.25381
1480697199960517,-0.750066,-0.412892,2.25419
1480697199975558,-0.750109,-0.41284,2.25468
1480697199990096,-0.75015,-0.412735,2.25464
1480697200012655,-0.750192,-0.412629,2.25461
1480697200030203,-0.750235,-0.41247,2.25464
1480697200049755,-0.750427,-0.412426,2.25469
1480697200072314,-0.750427,-0.412426,2.25469
1480697200090864,-0.75051,-0.412269,2.25485
1480697200109915,-0.75051,-0.412269,2.25485
1480697200132474,-0.750551,-0.412163,2.25481
1480697200150523,-0.750551,-0.412163,2.25481
1480697200194639,-0.750594,-0.412111,2.2553
1480697200196645,-0.750486,-0.411998,2.2557
1480697200216198,-0.750256,-0.412094,2.25604
1480697200229733,-0.750409,-0.412208,2.25664
1480697200252293,-0.75033,-0.412365,2.25707
1480697200287386,-0.75033,-0.412365,2.25707
1480697200291397,-0.750562,-0.412323,2.25724
1480697200312954,-0.750605,-0.412163,2.25728
1480697200330502,-0.750605,-0.412163,2.25728
1480697200350053,-0.750797,-0.412119,2.25733
1480697200372613,-0.75084,-0.411959,2.25736
1480697200397680,-0.751118,-0.411704,2.25793
1480697200411216,-0.751357,-0.411499,2.25859
1480697200449317,-0.751247,-0.411333,2.25847
1480697200451824,-0.751247,-0.411333,2.25847
1480697200471376,-0.751287,-0.411335,2.2586
1480697200493936,-0.75133,-0.411283,2.25908
1480697200515500,-0.751596,-0.411348,2.25949
1480697200531536,-0.751596,-0.411348,2.25949
1480697200555600,-0.751144,-0.411327,2.25991
1480697200570138,-0.751229,-0.411224,2.26058
1480697200606234,-0.751839,-0.411197,2.26097
1480697200612754,-0.752031,-0.411152,2.26102
1480697200630299,-0.751856,-0.410876,2.26171
1480697200651356,-0.751447,-0.410696,2.26217
1480697200673414,-0.751878,-0.410446,2.26289
1480697200697978,-0.752418,-0.410309,2.2635
1480697200742597,-0.753111,-0.410178,2.26427
1480697200745104,-0.753238,-0.409915,2.26497
1480697200756133,-0.752596,-0.409994,2.26557
1480697200772677,-0.752216,-0.410138,2.26599
1480697200792229,-0.751831,-0.410499,2.26643
1480697200810277,-0.751492,-0.410538,2.26682
1480697200837352,-0.751457,-0.41059,2.26721
1480697200852389,-0.751457,-0.41059,2.26721
1480697200882469,-0.751457,-0.41059,2.26721
1480697200900522,-0.751457,-0.41059,2.26721
1480697200912549,-0.751536,-0.410487,2.2673
1480697200931098,-0.751577,-0.410381,2.26727
1480697200952656,-0.75173,-0.410388,2.26742
1480697200972207,-0.75177,-0.410282,2.26738
1480697201002287,-0.751813,-0.410122,2.26742
1480697201012815,-0.752242,-0.409927,2.26807
1480697201032368,-0.752328,-0.409716,2.26859
1480697201062447,-0.752372,-0.409664,2.26907
1480697201072975,-0.752074,-0.409598,2.26942
1480697201092527,-0.752078,-0.409653,2.26994
1480697201115087,-0.752042,-0.409705,2.27034
1480697201140154,-0.751894,-0.409753,2.27071
1480697201152188,-0.751707,-0.409854,2.27118
1480697201175248,-0.751707,-0.409854,2.27118
1480697201200319,-0.751707,-0.409854,2.27118
1480697201212346,-0.751898,-0.409808,2.27123
1480697201234906,-0.752056,-0.40976,2.27174
1480697201253455,-0.752096,-0.409655,2.27171
1480697201280026,-0.752176,-0.409552,2.27179
1480697201302586,-0.75287,-0.40931,2.2724
1480697201317630,-0.75341,-0.409171,2.27302
1480697201332667,-0.753425,-0.408797,2.27354
1480697201371770,-0.753816,-0.408652,2.27429
1480697201374277,-0.753856,-0.408546,2.27426
1480697201395333,-0.753856,-0.408546,2.27426
1480697201414885,-0.753144,-0.408413,2.27464
1480697201432933,-0.752159,-0.408591,2.27497
1480697201463013,-0.751891,-0.408957,2.27544
1480697201484073,-0.752007,-0.40907,2.27593
1480697201499109,-0.752198,-0.409291,2.27647
1480697201520165,-0.752245,-0.409295,2.27718
1480697201535206,-0.752139,-0.409185,2.27759
1480697201558767,-0.7526,-0.409257,2.27827
1480697201579824,-0.752751,-0.409317,2.27836
1480697201602383,-0.752793,-0.409157,2.27839
1480697201626960,-0.753296,-0.408693,2.27845
1480697201650010,-0.753335,-0.408587,2.27841
1480697201655023,-0.753375,-0.408481,2.27838
1480697201672570,-0.753377,-0.408427,2.27845
1480697201696132,-0.753266,-0.408261,2.27833
1480697201725210,-0.753266,-0.408261,2.27833
1480697201732732,-0.753266,-0.408261,2.27833
1480697201755289,-0.753224,-0.408421,2.2783
1480697201774842,-0.753224,-0.408421,2.2783
1480697201804922,-0.753303,-0.408318,2.27838
1480697201840016,-0.753305,-0.408264,2.27845
1480697201844026,-0.753345,-0.408158,2.27842
1480697201859066,-0.753345,-0.408158,2.27842
1480697201880121,-0.753385,-0.408052,2.27838
1480697201903184,-0.753427,-0.407893,2.27841
1480697201928752,-0.753578,-0.407952,2.2785
1480697201935269,-0.753618,-0.407846,2.27846
1480697201971865,-0.753659,-0.407687,2.2785
1480697201974372,-0.753659,-0.407687,2.2785
1480697201995429,-0.753739,-0.407583,2.27858
1480697202015482,-0.753739,-0.407583,2.27858
1480697202033533,-0.753739,-0.407583,2.27858
1480697202063610,-0.753587,-0.407524,2.2785
1480697202082660,-0.753587,-0.407524,2.2785
1480697202092687,-0.753587,-0.407524,2.2785
1480697202115247,-0.753587,-0.407524,2.2785
1480697202134799,-0.752981,-0.407448,2.27825
1480697202160367,-0.752417,-0.407375,2.27842
1480697202182426,-0.752035,-0.407576,2.27848
1480697202202480,-0.752411,-0.407804,2.27872
1480697202228548,-0.752829,-0.407872,2.27898
1480697202251610,-0.753246,-0.408049,2.27941
1480697202256623,-0.753246,-0.408049,2.27941
1480697202273167,-0.753399,-0.408055,2.27956
1480697202296229,-0.753399,-0.408055,2.27956
1480697202316282,-0.752904,-0.408145,2.27943
1480697202332826,-0.752832,-0.407982,2.27944
1480697202355385,-0.752792,-0.408088,2.27947
1480697202376442,-0.752832,-0.407982,2.27944
1480697202392986,-0.752792,-0.408088,2.27947
1480697202415547,-0.752792,-0.408088,2.27947
1480697202437605,-0.752792,-0.408088,2.27947
1480697202465178,-0.752792,-0.408088,2.27947
1480697202481220,-0.752832,-0.407982,2.27944
1480697202503781,-0.752832,-0.407982,2.27944
1480697202520324,-0.752872,-0.407876,2.2794
1480697202535364,-0.752914,-0.407716,2.27943
1480697202556420,-0.752914,-0.407716,2.27943
1480697202577477,-0.752953,-0.40761,2.2794
1480697202595524,-0.752953,-0.40761,2.2794
1480697202618085,-0.752993,-0.407613,2.27952
1480697202644655,-0.752953,-0.40761,2.2794
1480697202670223,-0.752993,-0.407613,2.27952
1480697202677743,-0.752993,-0.407613,2.27952
1480697202714340,-0.752842,-0.407553,2.27944
1480697202716850,-0.752802,-0.407659,2.27947
1480697202737902,-0.752802,-0.407659,2.27947
1480697202760964,-0.752802,-0.407659,2.27947
1480697202783023,-0.752802,-0.407659,2.27947
1480697202812601,-0.752802,-0.407659,2.27947
1480697202817614,-0.753598,-0.407634,2.27954
1480697202838169,-0.7536,-0.40758,2.27961
1480697202863737,-0.753377,-0.407358,2.27953
1480697202878777,-0.753116,-0.407296,2.27971
1480697202895321,-0.752964,-0.407236,2.27963
1480697202920388,-0.753501,-0.407095,2.27995
1480697202944955,-0.753541,-0.40699,2.27991
1480697202955481,-0.753501,-0.407095,2.27995
1480697202994084,-0.753,-0.407506,2.27995
1480697203014138,-0.753,-0.407506,2.27995
1480697203017149,-0.752808,-0.407606,2.27984
1480697203037700,-0.752768,-0.407712,2.27987
1480697203060260,-0.752768,-0.407712,2.27987
1480697203079812,-0.752768,-0.407712,2.27987
1480697203102372,-0.752768,-0.407712,2.27987
1480697203120420,-0.752768,-0.407712,2.27987
1480697203139976,-0.752808,-0.407606,2.27984
1480697203158020,-0.752961,-0.407612,2.27999
1480697203177572,-0.753,-0.407506,2.27995
1480697203195118,-0.753151,-0.407565,2.28004
1480697203225199,-0.753151,-0.407565,2.28004
1480697203237231,-0.753151,-0.407565,2.28004
1480697203270319,-0.753151,-0.407565,2.28004
1480697203290372,-0.753,-0.407506,2.27995
1480697203305412,-0.753,-0.407506,2.27995
1480697203314436,-0.752959,-0.407666,2.27992
1480697203336996,-0.752768,-0.407712,2.27987
1480697203359556,-0.752768,-0.407712,2.27987
1480697203375098,-0.752728,-0.407818,2.27991
1480697203405680,-0.752728,-0.407818,2.27991
1480697203428740,-0.752728,-0.407818,2.27991
1480697203448291,-0.752728,-0.407818,2.27991
1480697203457818,-0.752768,-0.407712,2.27987
1480697203478371,-0.752919,-0.407771,2.27996
1480697203528004,-0.752919,-0.407771,2.27996
1480697203531011,-0.752919,-0.407771,2.27996
1480697203550064,-0.752919,-0.407771,2.27996
1480697203569615,-0.752919,-0.407771,2.27996
1480697203577134,-0.752768,-0.407712,2.27987
1480697203600199,-0.753295,-0.407999,2.28019
1480697203613731,-0.753255,-0.408105,2.28022
1480697203637295,-0.753214,-0.408156,2.28003
1480697203659353,-0.753174,-0.408262,2.28007
1480697203680409,-0.753135,-0.408368,2.2801
1480697203705476,-0.753135,-0.408368,2.2801
1480697203720014,-0.753135,-0.408368,2.2801
1480697203748089,-0.753135,-0.408368,2.2801
1480697203757114,-0.753286,-0.408428,2.28019
1480697203779673,-0.753286,-0.408428,2.28019
1480697203794713,-0.753286,-0.408428,2.28019
1480697203847354,-0.753286,-0.408428,2.28019
1480697203849862,-0.753477,-0.408382,2.28024
1480697203869412,-0.753477,-0.408382,2.28024
1480697203876932,-0.753477,-0.408382,2.28024
1480697203899492,-0.753286,-0.408428,2.28019
1480697203914030,-0.753286,-0.408428,2.28019
1480697203937091,-0.753246,-0.408534,2.28022
1480697203960153,-0.753205,-0.408585,2.28003
1480697203981209,-0.753165,-0.408691,2.28007
1480697203997251,-0.753126,-0.408797,2.2801
1480697204019310,-0.753126,-0.408797,2.2801
1480697204040366,-0.753126,-0.408797,2.2801
1480697204056910,-0.753277,-0.408856,2.28019
1480697204080473,-0.753316,-0.408751,2.28015
1480697204100527,-0.75347,-0.408756,2.2803
1480697204123087,-0.75347,-0.408756,2.2803
1480697204147150,-0.75347,-0.408756,2.2803
1480697204171716,-0.752853,-0.409109,2.28005
1480697204177230,-0.752702,-0.409049,2.27997
1480697204199791,-0.752432,-0.409416,2.28015
1480697204220345,-0.752234,-0.409946,2.28033
1480697204236889,-0.752341,-0.410433,2.28058
1480697204259448,-0.752598,-0.411033,2.28085
1480697204280505,-0.752558,-0.41103,2.28073
1480697204306575,-0.752519,-0.411136,2.28077
1480697204335151,-0.752628,-0.411355,2.28082
1480697204340664,-0.752628,-0.411355,2.28082
1480697204359715,-0.752589,-0.411352,2.28069
1480697204379769,-0.752742,-0.411358,2.28085
1480697204400326,-0.752742,-0.411358,2.28085
1480697204424387,-0.752742,-0.411358,2.28085
1480697204439427,-0.752894,-0.411418,2.28093
1480697204460485,-0.752742,-0.411358,2.28085
1480697204483045,-0.752742,-0.411358,2.28085
1480697204501092,-0.752894,-0.411418,2.28093
1480697204520644,-0.752742,-0.411358,2.28085
1480697204537187,-0.752701,-0.411518,2.28081
1480697204559747,-0.752701,-0.411518,2.28081
1480697204581806,-0.752661,-0.411624,2.28085
1480697204611886,-0.752661,-0.411624,2.28085
1480697204635449,-0.752622,-0.41173,2.28088
1480697204648484,-0.752582,-0.411727,2.28076
1480697204659012,-0.752582,-0.411727,2.28076
1480697204680067,-0.752734,-0.411787,2.28085
1480697204702126,-0.752734,-0.411787,2.28085
1480697204716165,-0.752885,-0.411846,2.28093
1480697204741230,-0.752885,-0.411846,2.28093
1480697204761785,-0.752885,-0.411846,2.28093
1480697204783844,-0.752885,-0.411846,2.28093
1480697204814425,-0.753076,-0.4118,2.28098
1480697204821944,-0.752651,-0.412107,2.28078
1480697204836484,-0.752611,-0.412104,2.28066
1480697204859545,-0.75242,-0.41215,2.28061
1480697204889625,-0.752381,-0.412256,2.28064
1480697204903662,-0.752569,-0.412264,2.28062
1480697204920707,-0.752642,-0.412427,2.28062
1480697204941763,-0.752642,-0.412427,2.28062
1480697204956302,-0.752642,-0.412427,2.28062
1480697204979363,-0.752602,-0.412533,2.28066
1480697205003929,-0.752602,-0.412533,2.28066
1480697205022980,-0.752602,-0.412533,2.28066
1480697205039524,-0.752642,-0.412427,2.28062
1480697205070105,-0.752793,-0.412487,2.2807
1480697205083640,-0.752835,-0.412326,2.28074
1480697205105198,-0.752835,-0.412326,2.28074
1480697205122243,-0.752986,-0.412386,2.28082
1480697205142798,-0.752907,-0.412489,2.28074
1480697205159844,-0.753239,-0.412877,2.28064
1480697205183407,-0.753087,-0.412817,2.28056
1480697205202958,-0.753048,-0.412923,2.28059
1480697205220003,-0.752855,-0.413023,2.28047
1480697205242563,-0.752855,-0.413023,2.28047
1480697205264622,-0.752816,-0.413129,2.28051
1480697205279662,-0.752816,-0.413129,2.28051
1480697205302222,-0.752967,-0.413189,2.28059
1480697205324281,-0.753006,-0.413083,2.28056
1480697205346840,-0.753158,-0.413143,2.28064
1480697205361880,-0.753158,-0.413143,2.28064
1480697205390457,-0.75316,-0.413089,2.28071
1480697205406500,-0.75316,-0.413089,2.28071
1480697205422542,-0.7532,-0.412983,2.28068
1480697205445102,-0.753272,-0.413145,2.28067
1480697205460142,-0.753272,-0.413145,2.28067
1480697205482201,-0.753272,-0.413145,2.28067
1480697205506766,-0.753231,-0.413306,2.28064
1480697205519299,-0.753079,-0.413246,2.28056
1480697205541859,-0.75304,-0.413352,2.28059
1480697205565923,-0.75304,-0.413352,2.28059
1480697205579459,-0.75304,-0.413352,2.28059
1480697205602019,-0.753191,-0.413412,2.28068
1480697205624579,-0.753191,-0.413412,2.28068
1480697205647139,-0.753303,-0.413468,2.28064
1480697205670200,-0.753303,-0.413468,2.28064
1480697205693262,-0.753457,-0.413474,2.28079
1480697205698776,-0.753457,-0.413474,2.28079
1480697205722840,-0.753457,-0.413474,2.28079
1480697205744398,-0.753457,-0.413474,2.28079
1480697205765454,-0.753457,-0.413474,2.28079
1480697205781998,-0.753455,-0.413528,2.28072
1480697205804057,-0.753455,-0.413528,2.28072
1480697205825614,-0.753415,-0.413634,2.28076
1480697205842158,-0.753224,-0.41368,2.28071
1480697205874243,-0.753374,-0.413794,2.28072
1480697205885774,-0.753143,-0.413838,2.28055
1480697205902819,-0.753143,-0.413838,2.28055
1480697205924877,-0.753295,-0.413897,2.28064
1480697205947939,-0.753295,-0.413897,2.28064
1480697205967992,-0.753295,-0.413897,2.28064
1480697205984539,-0.753336,-0.413737,2.28067
1480697206006094,-0.753488,-0.413797,2.28076
1480697206022638,-0.753488,-0.413797,2.28076
1480697206045698,-0.753488,-0.413797,2.28076
1480697206066755,-0.75364,-0.413857,2.28084
1480697206087812,-0.75364,-0.413857,2.28084
1480697206104355,-0.7536,-0.413963,2.28088
1480697206125410,-0.7536,-0.413963,2.28088
1480697206141956,-0.753559,-0.414123,2.28084
1480697206164515,-0.753368,-0.41406,2.28064
1480697206202617,-0.753328,-0.414166,2.28067
1480697206205123,-0.75348,-0.414226,2.28076
1480697206224674,-0.75348,-0.414226,2.28076
1480697206245731,-0.75348,-0.414226,2.28076
1480697206269293,-0.75348,-0.414226,2.28076
1480697206284334,-0.753255,-0.414003,2.28067
1480697206306895,-0.753258,-0.413949,2.28074
1480697206321933,-0.753258,-0.413949,2.28074
1480697206345496,-0.753258,-0.413949,2.28074
1480697206365551,-0.753449,-0.413903,2.28079
1480697206389614,-0.753449,-0.413903,2.28079
1480697206412175,-0.753409,-0.414009,2.28083
1480697206425709,-0.75337,-0.414115,2.28086
1480697206457293,-0.753368,-0.414169,2.28079
1480697206481859,-0.753328,-0.414275,2.28083
1480697206487874,-0.753177,-0.414216,2.28074
1480697206503416,-0.753177,-0.414216,2.28074
1480697206524472,-0.753177,-0.414216,2.28074
1480697206548536,-0.753177,-0.414216,2.28074
1480697206562574,-0.753328,-0.414275,2.28083
1480697206584634,-0.753289,-0.414272,2.28071
1480697206613208,-0.753289,-0.414272,2.28071
1480697206621230,-0.75344,-0.414332,2.28079
1480697206644291,-0.753482,-0.414172,2.28082
1480697206666851,-0.753482,-0.414172,2.28082
1480697206683394,-0.753482,-0.414172,2.28082
1480697206710466,-0.753443,-0.414278,2.28086
1480697206734531,-0.75344,-0.414332,2.28079
1480697206741549,-0.75344,-0.414332,2.28079
1480697206778146,-0.753401,-0.414438,2.28083
1480697206793187,-0.753362,-0.414544,2.28086
1480697206801710,-0.753208,-0.414539,2.28071
1480697206825272,-0.75332,-0.414705,2.28083
1480697206846829,-0.753281,-0.414701,2.28071
1480697206861367,-0.753281,-0.414701,2.28071
1480697206884430,-0.753281,-0.414701,2.28071
1480697206906990,-0.753435,-0.414707,2.28086
1480697206945091,-0.753474,-0.414601,2.28082
1480697206947598,-0.753626,-0.414661,2.28091
1480697206967149,-0.753626,-0.414661,2.28091
1480697206989710,-0.753626,-0.414661,2.28091
1480697207004750,-0.753626,-0.414661,2.28091
1480697207027309,-0.753626,-0.414661,2.28091
1480697207048366,-0.753626,-0.414661,2.28091
1480697207064408,-0.753432,-0.414761,2.28079
1480697207086968,-0.753432,-0.414761,2.28079
1480697207108025,-0.753393,-0.414867,2.28083
1480697207126071,-0.753393,-0.414867,2.28083
1480697207147128,-0.753393,-0.414867,2.28083
1480697207168184,-0.753505,-0.414924,2.28079
1480697207184228,-0.753208,-0.414539,2.28071
1480697207212802,-0.75325,-0.414378,2.28074
1480697207227842,-0.75325,-0.414378,2.28074
1480697207244386,-0.753401,-0.414438,2.28083
1480697207267448,-0.75344,-0.414332,2.28079
1480697207288003,-0.75344,-0.414332,2.28079
1480697207306051,-0.75344,-0.414332,2.28079
1480697207327106,-0.75344,-0.414332,2.28079
1480697207347662,-0.75344,-0.414332,2.28079
1480697207364707,-0.75344,-0.414332,2.28079
1480697207386766,-0.753401,-0.414438,2.28083
1480697207409826,-0.75325,-0.414378,2.28074
1480697207439907,-0.75321,-0.414484,2.28078
1480697207448430,-0.753362,-0.414544,2.28086
1480697207469485,-0.753362,-0.414544,2.28086
1480697207492045,-0.753401,-0.414438,2.28083
1480697207512599,-0.753401,-0.414438,2.28083
1480697207529645,-0.753553,-0.414498,2.28091
1480697207543683,-0.753553,-0.414498,2.28091
1480697207566743,-0.753592,-0.414392,2.28087
1480697207589805,-0.753594,-0.414338,2.28094
1480697207614370,-0.753634,-0.414231,2.28091
1480697207626904,-0.753634,-0.414231,2.28091
1480697207649468,-0.753634,-0.414231,2.28091
1480697207664003,-0.753594,-0.414338,2.28094
1480697207689069,-0.753592,-0.414392,2.28087
1480697207709624,-0.753592,-0.414392,2.28087
1480697207723660,-0.75344,-0.414332,2.28079
1480697207753240,-0.753401,-0.414438,2.28083
1480697207769283,-0.753401,-0.414438,2.28083
1480697207783821,-0.753401,-0.414438,2.28083
1480697207806883,-0.753401,-0.414438,2.28083
1480697207829443,-0.753401,-0.414438,2.28083
1480697207868546,-0.753592,-0.414392,2.28087
1480697207871053,-0.753594,-0.414338,2.28094
1480697207891608,-0.753634,-0.414231,2.28091
1480697207910661,-0.753634,-0.414231,2.28091
1480697207927202,-0.753673,-0.414125,2.28087
1480697207949766,-0.753673,-0.414125,2.28087
1480697207970819,-0.753634,-0.414231,2.28091
1480697207989367,-0.753634,-0.414231,2.28091
1480697208009422,-0.753634,-0.414231,2.28091
1480697208031980,-0.753634,-0.414231,2.28091
1480697208047522,-0.753443,-0.414278,2.28086
1480697208070082,-0.75344,-0.414332,2.28079
1480697208090637,-0.75344,-0.414332,2.28079
1480697208107181,-0.75344,-0.414332,2.28079
1480697208146786,-0.753482,-0.414172,2.28082
1480697208150295,-0.753521,-0.414066,2.28079
1480697208166839,-0.753561,-0.414069,2.28091
1480697208189901,-0.7536,-0.413963,2.28088
1480697208210956,-0.7536,-0.413963,2.28088
1480697208226498,-0.753642,-0.413802,2.28091
1480697208250061,-0.753794,-0.413862,2.28099
1480697208270616,-0.753794,-0.413862,2.28099
1480697208287661,-0.753642,-0.413802,2.28091
1480697208309719,-0.753603,-0.413908,2.28094
1480697208330775,-0.7536,-0.413963,2.28088
1480697208346818,-0.753449,-0.413903,2.28079
1480697208369879,-0.753449,-0.413903,2.28079
1480697208398957,-0.753449,-0.413903,2.28079
1480697208420516,-0.753449,-0.413903,2.28079
1480697208429538,-0.753449,-0.413903,2.28079
1480697208452098,-0.753449,-0.413903,2.28079
1480697208466137,-0.75349,-0.413743,2.28082
1480697208489698,-0.753642,-0.413802,2.28091
1480697208512258,-0.753681,-0.413696,2.28087
1480697208526295,-0.75376,-0.413593,2.28096
1480697208549358,-0.753762,-0.413539,2.28103
1480697208571917,-0.753802,-0.413433,2.28099
1480697208586456,-0.753802,-0.413433,2.28099
1480697208609516,-0.753802,-0.413433,2.28099
1480697208632078,-0.753609,-0.413534,2.28088
1480697208646616,-0.753609,-0.413534,2.28088
1480697208669676,-0.753457,-0.413474,2.28079
1480697208692239,-0.753457,-0.413474,2.28079
1480697208706275,-0.753457,-0.413474,2.28079
1480697208735853,-0.753457,-0.413474,2.28079
1480697208759916,-0.753496,-0.413368,2.28076
1480697208774455,-0.753499,-0.413314,2.28083
1480697208789996,-0.753689,-0.413267,2.28087
1480697208812055,-0.753689,-0.413267,2.28087
1480697208834114,-0.753768,-0.413164,2.28096
1480697208857175,-0.753771,-0.41311,2.28103
1480697208872717,-0.75381,-0.413004,2.28099
1480697208893271,-0.75381,-0.413004,2.28099
1480697208909314,-0.75381,-0.413004,2.28099
1480697208931875,-0.75381,-0.413004,2.28099
1480697208953933,-0.753617,-0.413105,2.28088
1480697208975490,-0.753617,-0.413105,2.28088
1480697208999553,-0.753617,-0.413105,2.28088
1480697209012588,-0.753617,-0.413105,2.28088
1480697209029634,-0.753578,-0.413211,2.28091
1480697209053844,-0.753617,-0.413105,2.28088
1480697209074400,-0.753617,-0.413105,2.28088
1480697209095454,-0.753658,-0.412944,2.28091
1480697209119017,-0.753737,-0.412841,2.281
1480697209142079,-0.753777,-0.412735,2.28096
1480697209150100,-0.753777,-0.412735,2.28096
1480697209178175,-0.753818,-0.412575,2.281
1480697209193214,-0.753818,-0.412575,2.281
1480697209209257,-0.753818,-0.412575,2.281
1480697209233823,-0.753818,-0.412575,2.281
1480697209252874,-0.753818,-0.412575,2.281
1480697209275434,-0.753777,-0.412735,2.28096
1480697209299497,-0.753625,-0.412676,2.28088
1480697209331081,-0.753625,-0.412676,2.28088
1480697209343615,-0.753625,-0.412676,2.28088
1480697209354143,-0.753665,-0.41257,2.28084
1480697209374699,-0.753667,-0.412515,2.28091
1480697209395252,-0.753706,-0.412409,2.28088
1480697209434356,-0.753746,-0.412412,2.281
1480697209442879,-0.753785,-0.412306,2.28096
1480697209448898,-0.753978,-0.412206,2.28108
1480697209485491,-0.754018,-0.4121,2.28104
1480697209494516,-0.753866,-0.41204,2.28096
1480697209509556,-0.754057,-0.411994,2.28101
1480697209532116,-0.753905,-0.411934,2.28093
1480697209554174,-0.753905,-0.411934,2.28093
1480697209569214,-0.753866,-0.41204,2.28096
1480697209605311,-0.753866,-0.41204,2.28096
1480697209615337,-0.753754,-0.411983,2.281
1480697209628873,-0.753754,-0.411983,2.281
1480697209655444,-0.753754,-0.411983,2.281
1480697209674496,-0.753754,-0.411983,2.281
1480697209698559,-0.753906,-0.412043,2.28108
1480697209720116,-0.753945,-0.411937,2.28105
1480697209742175,-0.753987,-0.411777,2.28108
1480697209758217,-0.753987,-0.411777,2.28108
1480697209779273,-0.754177,-0.411731,2.28113
1480697209803839,-0.754217,-0.411625,2.28109
1480697209815371,-0.754219,-0.41157,2.28116
1480697209831913,-0.754068,-0.411511,2.28108
1480697209855978,-0.754107,-0.411405,2.28104
1480697209883049,-0.754107,-0.411405,2.28104
1480697209907614,-0.753995,-0.411348,2.28108
1480697209914634,-0.753953,-0.411508,2.28105
1480697209935689,-0.753953,-0.411508,2.28105
1480697209952233,-0.753953,-0.411508,2.28105
1480697209974793,-0.753953,-0.411508,2.28105
1480697209997437,-0.753993,-0.411402,2.28101
1480697210012476,-0.753995,-0.411348,2.28108
1480697210040551,-0.753773,-0.411181,2.28123
1480697210056091,-0.753813,-0.411075,2.28119
1480697210079656,-0.753815,-0.41102,2.28126
1480697210094694,-0.753854,-0.410914,2.28122
1480697210116254,-0.753894,-0.410808,2.28119
1480697210132297,-0.753894,-0.410808,2.28119
1480697210162374,-0.753933,-0.410811,2.28131
1480697210184433,-0.753894,-0.410808,2.28119
1480697210197970,-0.753894,-0.410808,2.28119
1480697210228050,-0.753933,-0.410811,2.28131
1480697210237073,-0.753933,-0.410811,2.28131
1480697210253116,-0.753933,-0.410811,2.28131
1480697210274674,-0.753933,-0.410811,2.28131
1480697210297233,-0.753821,-0.410646,2.28119
1480697210313777,-0.753821,-0.410646,2.28119
1480697210334833,-0.753975,-0.410651,2.28135
1480697210364412,-0.754014,-0.410545,2.28131
1480697210371431,-0.754205,-0.410499,2.28136
1480697210402012,-0.754247,-0.410339,2.28139
1480697210417052,-0.754286,-0.410233,2.28136
1480697210439612,-0.754286,-0.410233,2.28136
1480697210461169,-0.754288,-0.410179,2.28143
1480697210485233,-0.754288,-0.410179,2.28143
1480697210491248,-0.754286,-0.410233,2.28136
1480697210514814,-0.754286,-0.410233,2.28136
1480697210545394,-0.754286,-0.410233,2.28136
1480697210551408,-0.754286,-0.410233,2.28136
1480697210574471,-0.754286,-0.410233,2.28136
1480697210597031,-0.754326,-0.410236,2.28148
1480697210611569,-0.754326,-0.410127,2.28132
1480697210635132,-0.754328,-0.410073,2.28139
1480697210664713,-0.754519,-0.410026,2.28144
1480697210679249,-0.754597,-0.409923,2.28153
1480697210694290,-0.7546,-0.409869,2.2816
1480697210724871,-0.75479,-0.409823,2.28164
1480697210737906,-0.754832,-0.409663,2.28168
1480697210760465,-0.754832,-0.409663,2.28168
1480697210785532,-0.754871,-0.409557,2.28164
1480697210805585,-0.754871,-0.409557,2.28164
1480697210815114,-0.754871,-0.409557,2.28164
1480697210837674,-0.754871,-0.409557,2.28164
1480697210858225,-0.755286,-0.409624,2.28162
1480697210875772,-0.755286,-0.409624,2.28162
1480697210896829,-0.754681,-0.409603,2.28159
1480697210917884,-0.754117,-0.409531,2.28176
1480697210941947,-0.754117,-0.409531,2.28176
1480697210963004,-0.754915,-0.409451,2.2819
1480697210978043,-0.754915,-0.409451,2.2819
1480697210995089,-0.755106,-0.409405,2.28195
1480697211024668,-0.755147,-0.409245,2.28198
1480697211038205,-0.755147,-0.409245,2.28198
1480697211054748,-0.755187,-0.409139,2.28195
1480697211083323,-0.755187,-0.409139,2.28195
1480697211097863,-0.755268,-0.408982,2.2821
1480697211127942,-0.755268,-0.408982,2.2821
1480697211136967,-0.755268,-0.408982,2.2821
1480697211158022,-0.755268,-0.408982,2.2821
1480697211174567,-0.755268,-0.408982,2.2821
1480697211199132,-0.755268,-0.408982,2.2821
1480697211219686,-0.755268,-0.408982,2.2821
1480697211234225,-0.755307,-0.408876,2.28207
1480697211256785,-0.755307,-0.408876,2.28207
1480697211295889,-0.7555,-0.408775,2.28219
1480697211300401,-0.755539,-0.408669,2.28215
1480697211316945,-0.755539,-0.408669,2.28215
1480697211339506,-0.755579,-0.408563,2.28212
1480697211362065,-0.755581,-0.408509,2.28219
1480697211384625,-0.75562,-0.408403,2.28215
1480697211415710,-0.75562,-0.408403,2.28215
1480697211420220,-0.755699,-0.4083,2.28224
1480697211438769,-0.755699,-0.4083,2.28224
1480697211475868,-0.755548,-0.408241,2.28215
1480697211480881,-0.755548,-0.408241,2.28215
1480697211496924,-0.755548,-0.408241,2.28215
1480697211519487,-0.755548,-0.408241,2.28215
1480697211534022,-0.755548,-0.408241,2.28215
1480697211573127,-0.755548,-0.408241,2.28215
1480697211579644,-0.755588,-0.408135,2.28212
1480697211593680,-0.75578,-0.408034,2.28223
1480697211617245,-0.75578,-0.408034,2.28223
1480697211639303,-0.755971,-0.407988,2.28228
1480697211662864,-0.755973,-0.407934,2.28235
1480697211682919,-0.756436,-0.407575,2.28245
1480697211700966,-0.756475,-0.407469,2.28241
1480697211721521,-0.755949,-0.407237,2.28232
1480697211744582,-0.755265,-0.407428,2.28237
1480697211759623,-0.755113,-0.407369,2.28229
1480697211780678,-0.755113,-0.407369,2.28229
1480697211796720,-0.755113,-0.407369,2.28229
1480697211826801,-0.755113,-0.407369,2.28229
1480697211848861,-0.755113,-0.407369,2.28229
1480697211856880,-0.755265,-0.407428,2.28237
1480697211886961,-0.755265,-0.407428,2.28237
1480697211900496,-0.755265,-0.407428,2.28237
1480697211917041,-0.755306,-0.407268,2.2824
1480697211939601,-0.755497,-0.407222,2.28245
1480697211960656,-0.755538,-0.407062,2.28249
1480697211977200,-0.755578,-0.406956,2.28245
1480697212006779,-0.755617,-0.406959,2.28257
1480697212023824,-0.755657,-0.406853,2.28254
1480697212036859,-0.755657,-0.406853,2.28254
1480697212065435,-0.755505,-0.406793,2.28245
1480697212080476,-0.755466,-0.406899,2.28249
1480697212104539,-0.755466,-0.406899,2.28249
1480697212127099,-0.755466,-0.406899,2.28249
1480697212143142,-0.755466,-0.406899,2.28249
1480697212172220,-0.755466,-0.406899,2.28249
1480697212188262,-0.755505,-0.406793,2.28245
1480697212201798,-0.755657,-0.406853,2.28254
1480697212217339,-0.755657,-0.406853,2.28254
1480697212239399,-0.755698,-0.406693,2.28257
1480697212261957,-0.755889,-0.406646,2.28262
1480697212276497,-0.755889,-0.406646,2.28262
1480697212299557,-0.75593,-0.406486,2.28265
1480697212322118,-0.75593,-0.406486,2.28265
1480697212336156,-0.75593,-0.406486,2.28265
1480697212367237,-0.75593,-0.406486,2.28265
1480697212405340,-0.75593,-0.406486,2.28265
1480697212407345,-0.75593,-0.406486,2.28265
1480697212426896,-0.755889,-0.406646,2.28262
1480697212449456,-0.755738,-0.406587,2.28254
1480697212464498,-0.755738,-0.406587,2.28254
1480697212494576,-0.756534,-0.406561,2.2826
1480697212502096,-0.756536,-0.406507,2.28267
1480697212516636,-0.756163,-0.40628,2.28274
1480697212539196,-0.755748,-0.406213,2.28276
1480697212562256,-0.755788,-0.406107,2.28273
1480697212582811,-0.755788,-0.406107,2.28273
1480697212606875,-0.755829,-0.405947,2.28276
1480697212621917,-0.75598,-0.406007,2.28285
1480697212642971,-0.75602,-0.405901,2.28281
1480697212660517,-0.75598,-0.406007,2.28285
1480697212682576,-0.75598,-0.406007,2.28285
1480697212704635,-0.755829,-0.405947,2.28276
1480697212727195,-0.755829,-0.405947,2.28276
1480697212749254,-0.755827,-0.406001,2.28269
1480697212763291,-0.755829,-0.405947,2.28276
1480697212779333,-0.755829,-0.405947,2.28276
1480697212808912,-0.755829,-0.405947,2.28276
1480697212822949,-0.75598,-0.406007,2.28285
1480697212839495,-0.75602,-0.405901,2.28281
1480697212862054,-0.75602,-0.405901,2.28281
1480697212883111,-0.756213,-0.4058,2.28293
1480697212899653,-0.756213,-0.4058,2.28293
1480697212922213,-0.756252,-0.405694,2.28289
1480697212943269,-0.756252,-0.405694,2.28289
1480697212959312,-0.756252,-0.405694,2.28289
1480697212981875,-0.756252,-0.405694,2.28289
1480697213004432,-0.756369,-0.405431,2.28272
1480697213026993,-0.75667,-0.405387,2.2825
1480697213049555,-0.75667,-0.405387,2.2825
1480697213072113,-0.75667,-0.405387,2.2825
1480697213094673,-0.756558,-0.40533,2.28254
1480697213102192,-0.756558,-0.40533,2.28254
1480697213131774,-0.756711,-0.405335,2.28269
1480697213139292,-0.756711,-0.405227,2.28254
1480697213161852,-0.756711,-0.405227,2.28254
1480697213185417,-0.756863,-0.405286,2.28262
1480697213198951,-0.756941,-0.405183,2.2827
1480697213222512,-0.756943,-0.405129,2.28277
1480697213259610,-0.757851,-0.40516,2.2828
1480697213261616,-0.757698,-0.405154,2.28265
1480697213282173,-0.7569,-0.405234,2.28251
1480697213304229,-0.756022,-0.405472,2.28222
1480697213327290,-0.755871,-0.405412,2.28214
1480697213341829,-0.756242,-0.405693,2.28201
1480697213364390,-0.756233,-0.406122,2.28201
1480697213386949,-0.756193,-0.406119,2.28188
1480697213409509,-0.756191,-0.406173,2.28181
1480697213424550,-0.756303,-0.406338,2.28193
1480697213438587,-0.756305,-0.406284,2.282
1480697213461648,-0.756344,-0.406178,2.28197
1480697213492229,-0.756496,-0.406238,2.28205
1480697213516294,-0.756535,-0.406132,2.28202
1480697213524817,-0.756577,-0.405972,2.28205
1480697213544368,-0.756577,-0.405972,2.28205
1480697213565426,-0.756577,-0.405972,2.28205
1480697213581967,-0.756616,-0.405866,2.28201
1480697213604528,-0.756577,-0.405972,2.28205
1480697213625584,-0.756728,-0.406031,2.28213
1480697213642629,-0.756728,-0.406031,2.28213
1480697213665190,-0.756649,-0.406135,2.28205
1480697213685748,-0.756649,-0.406135,2.28205
1480697213702289,-0.756649,-0.406135,2.28205
1480697213724346,-0.7568,-0.406194,2.28213
1480697213745403,-0.7568,-0.406194,2.28213
1480697213771472,-0.7568,-0.406194,2.28213
1480697213790523,-0.756952,-0.406253,2.28221
1480697213806566,-0.756952,-0.406253,2.28221
1480697213829626,-0.756993,-0.406093,2.28225
1480697213860207,-0.756993,-0.406093,2.28225
1480697213865723,-0.757033,-0.405988,2.28221
1480697213882269,-0.757033,-0.405988,2.28221
1480697213904827,-0.757033,-0.405988,2.28221
1480697213925381,-0.757033,-0.405988,2.28221
1480697213949947,-0.756993,-0.406093,2.28225
1480697213965489,-0.757144,-0.406153,2.28233
1480697213987045,-0.757144,-0.406153,2.28233
1480697214007605,-0.757144,-0.406153,2.28233
1480697214024645,-0.757103,-0.406313,2.2823
1480697214046706,-0.757103,-0.406313,2.2823
1480697214069264,-0.757905,-0.406125,2.28257
1480697214084305,-0.758056,-0.406184,2.28266
1480697214114885,-0.758096,-0.406078,2.28262
1480697214123407,-0.758247,-0.406138,2.28271
1480697214144464,-0.758247,-0.406138,2.28271
1480697214167025,-0.758249,-0.406083,2.28278
1480697214181062,-0.758249,-0.406083,2.28278
1480697214205126,-0.758249,-0.406083,2.28278
1480697214228186,-0.758249,-0.406083,2.28278
1480697214249243,-0.758208,-0.406135,2.28259
1480697214264784,-0.758168,-0.406241,2.28262
1480697214294364,-0.758168,-0.406241,2.28262
1480697214325946,-0.758128,-0.406346,2.28266
1480697214330461,-0.758128,-0.406346,2.28266
1480697214348005,-0.758128,-0.406346,2.28266
1480697214369061,-0.75828,-0.406406,2.28274
1480697214390618,-0.75828,-0.406406,2.28274
1480697214414683,-0.75828,-0.406406,2.28274
1480697214428218,-0.758471,-0.406359,2.28279
1480697214444762,-0.758473,-0.406305,2.28286
1480697214469327,-0.758473,-0.406305,2.28286
1480697214481360,-0.758624,-0.406365,2.28294
1480697214504421,-0.758624,-0.406365,2.28294
1480697214526981,-0.758624,-0.406365,2.28294
1480697214548038,-0.758433,-0.406303,2.28274
1480697214570597,-0.758471,-0.406359,2.28279
1480697214589648,-0.758392,-0.406463,2.2827
1480697214608698,-0.758352,-0.406568,2.28274
1480697214625744,-0.758352,-0.406568,2.28274
1480697214647301,-0.758352,-0.406568,2.28274
1480697214669360,-0.758464,-0.406734,2.28286
1480697214684903,-0.758504,-0.406628,2.28282
1480697214706960,-0.758504,-0.406628,2.28282
1480697214736539,-0.758655,-0.406687,2.28291
1480697214746566,-0.758655,-0.406687,2.28291
1480697214767120,-0.758696,-0.406527,2.28294
1480697214795696,-0.758808,-0.406584,2.2829
1480697214804218,-0.758808,-0.406584,2.2829
1480697214826778,-0.758808,-0.406584,2.2829
1480697214848335,-0.758769,-0.40669,2.28294
1480697214879920,-0.758767,-0.406744,2.28287
1480697214886939,-0.758727,-0.40685,2.2829
1480697214907995,-0.758727,-0.40685,2.2829
1480697214924538,-0.758576,-0.40679,2.28282
1480697214947098,-0.758727,-0.40685,2.2829
1480697214968156,-0.758688,-0.406956,2.28294
1480697214985204,-0.758688,-0.406956,2.28294
1480697215007259,-0.758649,-0.406953,2.28282
1480697215029317,-0.7588,-0.407012,2.2829
1480697215046362,-0.75884,-0.406907,2.28287
1480697215080453,-0.758991,-0.406966,2.28295
1480697215089978,-0.758993,-0.406912,2.28302
1480697215107023,-0.759144,-0.406971,2.2831
1480697215127077,-0.759144,-0.406971,2.2831
1480697215149136,-0.759144,-0.406971,2.2831
1480697215167688,-0.759144,-0.406971,2.2831
1480697215187738,-0.759103,-0.407131,2.28307
1480697215210298,-0.759103,-0.407131,2.28307
1480697215223834,-0.759024,-0.407234,2.28298
1480697215246895,-0.759024,-0.407234,2.28298
1480697215271461,-0.758873,-0.407175,2.2829
1480697215283996,-0.759024,-0.407234,2.28298
1480697215307057,-0.759024,-0.407234,2.28298
1480697215329615,-0.759175,-0.407294,2.28307
1480697215357690,-0.759175,-0.407294,2.28307
1480697215369221,-0.759175,-0.407294,2.28307
1480697215395290,-0.759175,-0.407294,2.28307
1480697215404816,-0.759175,-0.407294,2.28307
1480697215434897,-0.759669,-0.407577,2.28356
1480697215449936,-0.759858,-0.407905,2.28397
1480697215471493,-0.760159,-0.408398,2.2845
1480697215487034,-0.76012,-0.408504,2.28454
1480697215510096,-0.759968,-0.408444,2.28446
1480697215530650,-0.759929,-0.40855,2.28449
1480697215547195,-0.759927,-0.408604,2.28442
1480697215569754,-0.759927,-0.408604,2.28442
1480697215590308,-0.760039,-0.408661,2.28439
1480697215615377,-0.76,-0.408767,2.28442
1480697215638437,-0.760039,-0.408661,2.28439
1480697215651974,-0.760193,-0.408666,2.28454
1480697215667014,-0.760193,-0.408666,2.28454
1480697215712634,-0.760344,-0.408725,2.28462
1480697215715141,-0.760344,-0.408725,2.28462
1480697215728676,-0.760344,-0.408725,2.28462
1480697215749232,-0.760344,-0.408725,2.28462
1480697215770288,-0.760344,-0.408725,2.28462
1480697215786831,-0.760344,-0.408725,2.28462
1480697215815408,-0.760266,-0.408829,2.28454
1480697215830448,-0.760264,-0.408883,2.28447
1480697215846992,-0.760225,-0.408989,2.2845
1480697215870554,-0.760185,-0.409095,2.28454
1480697215890609,-0.760034,-0.409035,2.28445
1480697215906650,-0.760185,-0.409095,2.28454
1480697215929711,-0.760185,-0.409095,2.28454
1480697215959791,-0.760337,-0.409154,2.28462
1480697215967812,-0.759919,-0.409033,2.28442
1480697215989954,-0.759959,-0.408927,2.28439
1480697216012013,-0.759959,-0.408927,2.28439
1480697216033204,-0.760073,-0.408929,2.28442
1480697216049246,-0.760719,-0.408953,2.28456
1480697216071806,-0.760719,-0.408953,2.28456
1480697216094366,-0.760679,-0.409058,2.2846
1480697216109406,-0.760679,-0.409058,2.2846
1480697216131966,-0.760601,-0.409162,2.28451
1480697216146504,-0.760408,-0.409262,2.2844
1480697216170067,-0.760447,-0.409265,2.28452
1480697216192125,-0.760408,-0.409262,2.2844
1480697216206164,-0.760408,-0.409262,2.2844
1480697216238249,-0.760408,-0.409262,2.2844
1480697216251787,-0.760408,-0.409262,2.2844
1480697216266825,-0.760408,-0.409262,2.2844
1480697216289384,-0.761212,-0.409182,2.28483
1480697216311945,-0.762087,-0.409318,2.2852
1480697216325981,-0.762238,-0.409377,2.28528
1480697216349545,-0.762238,-0.409377,2.28528
1480697216372106,-0.762238,-0.409377,2.28528
1480697216393160,-0.762238,-0.409377,2.28528
1480697216409203,-0.762351,-0.409542,2.2854
1480697216431763,-0.762271,-0.4097,2.28525
1480697216453320,-0.762231,-0.409806,2.28528
1480697216470869,-0.762231,-0.409806,2.28528
1480697216492424,-0.76219,-0.409966,2.28525
1480697216515486,-0.76219,-0.409966,2.28525
1480697216530526,-0.76219,-0.409966,2.28525
1480697216552087,-0.762151,-0.410072,2.28528
1480697216573140,-0.76219,-0.409966,2.28525
1480697216589683,-0.762305,-0.409968,2.28528
1480697216613748,-0.762305,-0.409968,2.28528
1480697216632799,-0.762344,-0.409862,2.28525
1480697216649355,-0.762344,-0.409862,2.28525
1480697216677934,-0.762344,-0.409862,2.28525
1480697216700479,-0.762344,-0.409862,2.28525
1480697216709502,-0.762344,-0.409862,2.28525
1480697216747604,-0.762305,-0.409968,2.28528
1480697216753117,-0.762305,-0.409968,2.28528
1480697216769160,-0.762264,-0.410129,2.28525
1480697216791721,-0.762264,-0.410129,2.28525
1480697216820296,-0.762224,-0.410234,2.28528
1480697216829320,-0.762337,-0.4104,2.2854
1480697216851883,-0.762298,-0.410397,2.28528
1480697216873939,-0.762298,-0.410397,2.28528
1480697216889480,-0.762983,-0.410206,2.28523
1480697216912040,-0.763135,-0.410265,2.28532
1480697216934602,-0.763174,-0.410159,2.28528
1480697216949641,-0.763174,-0.410159,2.28528
1480697216979219,-0.763174,-0.410159,2.28528
1480697217001785,-0.763474,-0.41017,2.285
1480697217025843,-0.763474,-0.41017,2.285
1480697217032361,-0.763282,-0.410216,2.28495
1480697217054420,-0.762555,-0.410459,2.28481
1480697217068457,-0.762516,-0.410565,2.28484
1480697217099540,-0.762514,-0.41062,2.28477
1480697217122600,-0.762475,-0.410726,2.28481
1480697217128616,-0.762436,-0.410832,2.28485
1480697217152183,-0.762588,-0.410891,2.28493
1480697217176744,-0.762549,-0.410888,2.28481
1480697217188776,-0.762549,-0.410888,2.28481
1480697217212339,-0.7627,-0.410948,2.28489
1480697217234405,-0.7627,-0.410948,2.28489
1480697217239912,-0.7627,-0.410948,2.28489
1480697217256455,-0.7627,-0.410948,2.28489
1480697217279016,-0.7627,-0.410948,2.28489
1480697217301577,-0.7627,-0.410948,2.28489
1480697217317620,-0.7627,-0.410948,2.28489
1480697217340679,-0.7627,-0.410948,2.28489
1480697217359730,-0.762661,-0.411053,2.28493
1480697217376274,-0.762507,-0.411049,2.28478
1480697217397330,-0.762468,-0.411154,2.28481
1480697217419891,-0.76262,-0.411214,2.2849
1480697217445459,-0.76262,-0.411214,2.2849
1480697217460499,-0.76262,-0.411214,2.2849
1480697217490078,-0.762581,-0.41132,2.28493
1480697217502109,-0.762581,-0.411211,2.28477
1480697217517150,-0.762581,-0.411211,2.28477
1480697217539710,-0.762735,-0.411216,2.28493
1480697217557757,-0.762887,-0.411275,2.28501
1480697217577309,-0.762848,-0.411381,2.28505
1480697217602877,-0.762848,-0.411381,2.28505
1480697217625439,-0.762846,-0.411436,2.28498
1480697217637469,-0.762846,-0.411436,2.28498
1480697217676573,-0.762654,-0.411482,2.28493
1480697217682088,-0.762615,-0.41148,2.28481
1480697217697139,-0.762576,-0.411585,2.28485
1480697217721192,-0.762574,-0.41164,2.28478
1480697217742248,-0.762535,-0.411746,2.28481
1480697217757287,-0.762535,-0.411746,2.28481
1480697217784362,-0.762535,-0.411746,2.28481
1480697217802408,-0.762535,-0.411746,2.28481
1480697217817448,-0.762726,-0.4117,2.28486
1480697217847530,-0.762728,-0.411645,2.28493
1480697217862067,-0.762728,-0.411645,2.28493
1480697217877608,-0.76288,-0.411704,2.28501
1480697217899667,-0.76288,-0.411704,2.28501
1480697217934262,-0.76288,-0.411704,2.28501
1480697217937266,-0.76288,-0.411704,2.28501
1480697217959826,-0.762841,-0.41181,2.28505
1480697217982389,-0.762839,-0.411865,2.28498
1480697217998932,-0.762648,-0.411911,2.28493
1480697218022493,-0.762648,-0.411911,2.28493
1480697218042546,-0.762648,-0.411911,2.28493
1480697218057585,-0.762569,-0.412014,2.28485
1480697218087165,-0.762569,-0.412014,2.28485
1480697218105214,-0.762721,-0.412074,2.28493
1480697218124765,-0.76276,-0.411968,2.2849
1480697218139807,-0.762912,-0.412027,2.28498
1480697218162364,-0.762912,-0.412027,2.28498
1480697218180915,-0.762912,-0.412027,2.28498
1480697218208989,-0.762912,-0.412027,2.28498
1480697218231047,-0.762914,-0.411973,2.28505
1480697218237565,-0.762912,-0.412027,2.28498
1480697218261128,-0.762873,-0.412133,2.28502
1480697218291709,-0.762873,-0.412133,2.28502
1480697218320286,-0.762682,-0.41218,2.28497
1480697218330311,-0.76268,-0.412234,2.2849
1480697218345351,-0.762601,-0.412337,2.28481
1480697218358887,-0.762601,-0.412337,2.28481
1480697218379943,-0.762715,-0.412503,2.28493
1480697218402503,-0.762715,-0.412503,2.28493
1480697218419549,-0.762867,-0.412562,2.28502
1480697218439602,-0.762906,-0.412456,2.28498
1480697218462161,-0.762908,-0.412402,2.28505
1480697218493244,-0.76306,-0.412461,2.28514
1480697218501274,-0.763099,-0.412355,2.2851
1480697218530845,-0.763099,-0.412355,2.2851
1480697218540371,-0.76306,-0.412461,2.28514
1480697218575964,-0.76302,-0.412458,2.28501
1480697218590002,-0.762906,-0.412456,2.28498
1480697218600030,-0.762827,-0.412559,2.2849
1480697218619581,-0.762867,-0.412562,2.28502
1480697218642644,-0.762827,-0.412559,2.2849
1480697218666204,-0.762788,-0.412665,2.28493
1480697218688764,-0.762788,-0.412665,2.28493
1480697218703804,-0.762788,-0.412665,2.28493
1480697218720350,-0.762788,-0.412665,2.28493
1480697218739901,-0.76294,-0.412725,2.28502
1480697218765470,-0.76294,-0.412725,2.28502
1480697218787527,-0.76294,-0.412725,2.28502
1480697218807581,-0.762979,-0.412619,2.28498
1480697218855207,-0.763092,-0.412784,2.2851
1480697218857212,-0.763092,-0.412784,2.2851
1480697218863229,-0.763092,-0.412784,2.2851
1480697218882280,-0.763092,-0.412784,2.2851
1480697218903335,-0.762862,-0.412828,2.28493
1480697218927399,-0.762862,-0.412828,2.28493
1480697218949960,-0.762821,-0.412988,2.2849
1480697218968008,-0.762782,-0.413094,2.28493
1480697218980039,-0.762782,-0.413094,2.28493
1480697219012627,-0.762782,-0.413094,2.28493
1480697219027666,-0.762934,-0.413154,2.28502
1480697219042706,-0.762934,-0.413154,2.28502
1480697219065768,-0.762934,-0.413154,2.28502
1480697219088828,-0.763127,-0.413053,2.28514
1480697219115902,-0.763127,-0.413053,2.28514
1480697219129938,-0.763127,-0.413053,2.28514
1480697219153500,-0.763127,-0.413053,2.28514
1480697219167541,-0.763127,-0.413053,2.28514
1480697219189596,-0.763127,-0.413053,2.28514
1480697219204637,-0.763088,-0.413159,2.28517
1480697219222684,-0.763046,-0.413211,2.28498
1480697219242236,-0.763007,-0.413316,2.28502
1480697219267806,-0.763007,-0.413316,2.28502
1480697219290364,-0.763007,-0.413316,2.28502
1480697219302396,-0.762968,-0.413422,2.28505
1480697219324956,-0.763007,-0.413316,2.28502
1480697219342503,-0.763422,-0.413438,2.28492
1480697219366569,-0.763463,-0.413277,2.28496
1480697219388625,-0.763615,-0.413337,2.28504
1480697219410183,-0.763615,-0.413337,2.28504
1480697219423218,-0.763654,-0.413231,2.28501
1480697219454301,-0.763654,-0.413231,2.28501
1480697219475858,-0.763654,-0.413231,2.28501
1480697219482378,-0.763654,-0.413231,2.28501
1480697219506441,-0.763615,-0.413337,2.28504
1480697219522983,-0.763463,-0.413277,2.28496
1480697219542535,-0.763424,-0.413383,2.28499
1480697219566099,-0.763422,-0.413438,2.28492
1480697219582142,-0.763383,-0.413544,2.28496
1480697219602195,-0.763344,-0.41365,2.285
1480697219624754,-0.763344,-0.41365,2.285
1480697219641298,-0.763344,-0.41365,2.285
1480697219662353,-0.763496,-0.413709,2.28508
1480697219686418,-0.763535,-0.413604,2.28504
1480697219703463,-0.763495,-0.413601,2.28492
1480697219725020,-0.763648,-0.41366,2.28501
1480697219746076,-0.76365,-0.413605,2.28508
1480697219776157,-0.763689,-0.4135,2.28504
1480697219790193,-0.763689,-0.4135,2.28504
1480697219804733,-0.763648,-0.41366,2.28501
1480697219822780,-0.763648,-0.41366,2.28501
1480697219843837,-0.763648,-0.41366,2.28501
1480697219890962,-0.763456,-0.413707,2.28496
1480697219897981,-0.763456,-0.413707,2.28496
1480697219905501,-0.763417,-0.413812,2.285
1480697219925051,-0.763415,-0.413867,2.28493
1480697219942600,-0.763415,-0.413867,2.28493
1480697219965660,-0.763415,-0.413867,2.28493
1480697219984712,-0.76357,-0.413872,2.28508
1480697220010278,-0.763609,-0.413766,2.28504
1480697220025821,-0.763648,-0.41366,2.28501
1480697220050386,-0.763648,-0.41366,2.28501
1480697220070439,-0.763648,-0.41366,2.28501
1480697220082472,-0.763648,-0.41366,2.28501
1480697220105032,-0.764065,-0.413836,2.28514
1480697220122578,-0.763986,-0.413939,2.28506
1480697220142129,-0.763986,-0.413939,2.28506
1480697220164691,-0.763947,-0.414045,2.28509
1480697220196774,-0.763906,-0.414206,2.28506
1480697220209809,-0.763906,-0.414206,2.28506
1480697220225853,-0.763754,-0.414146,2.28497
1480697220242898,-0.763715,-0.414252,2.28501
1480697220265959,-0.763754,-0.414146,2.28497
1480697220288519,-0.763754,-0.414146,2.28497
1480697220302556,-0.763906,-0.414206,2.28506
1480697220354193,-0.763945,-0.4141,2.28502
1480697220356700,-0.763795,-0.413985,2.28501
1480697220362716,-0.763947,-0.414045,2.28509
1480697220383772,-0.764026,-0.413942,2.28518
1480697220404829,-0.763874,-0.413882,2.28509
1480697220428892,-0.763874,-0.413882,2.28509
1480697220444934,-0.763874,-0.413882,2.28509
1480697220464989,-0.76368,-0.413983,2.28497
1480697220495570,-0.763641,-0.414089,2.28501
1480697220503591,-0.763641,-0.414089,2.28501
1480697220524647,-0.7636,-0.41425,2.28498
1480697220542695,-0.7636,-0.41425,2.28498
1480697220563751,-0.7636,-0.41425,2.28498
1480697220584811,-0.763448,-0.41419,2.28489
1480697220610374,-0.763448,-0.41419,2.28489
1480697220623911,-0.763641,-0.414089,2.28501
1480697220652486,-0.763641,-0.414089,2.28501
1480697220662514,-0.763641,-0.414089,2.28501
1480697220685575,-0.763641,-0.414089,2.28501
1480697220704625,-0.763641,-0.414089,2.28501
1480697220722673,-0.763641,-0.414089,2.28501
1480697220752753,-0.763641,-0.414089,2.28501
1480697220772306,-0.763489,-0.41403,2.28493
1480697220794866,-0.763448,-0.41419,2.28489
1480697220811409,-0.763448,-0.41419,2.28489
1480697220824946,-0.763409,-0.414296,2.28493
1480697220855026,-0.763255,-0.414292,2.28477
1480697220865053,-0.763255,-0.414292,2.28477
1480697220885105,-0.763409,-0.414296,2.28493
1480697220907165,-0.762837,-0.414116,2.28464
1480697220926214,-0.762837,-0.414116,2.28464
1480697220952284,-0.762876,-0.41401,2.2846
1480697220968827,-0.762876,-0.41401,2.2846
1480697220988379,-0.763029,-0.414069,2.28469
1480697221004931,-0.763068,-0.413963,2.28465
1480697221027483,-0.763068,-0.413963,2.28465
1480697221058566,-0.762915,-0.413904,2.28457
1480697221065586,-0.762876,-0.41401,2.2846
1480697221090150,-0.762876,-0.41401,2.2846
1480697221105692,-0.762722,-0.414005,2.28445
1480697221124742,-0.762683,-0.414111,2.28449
1480697221147302,-0.762683,-0.414111,2.28449
1480697221165351,-0.762531,-0.414051,2.2844
1480697221185405,-0.76257,-0.414054,2.28452
1480697221210470,-0.76257,-0.414054,2.28452
1480697221225009,-0.762723,-0.414114,2.28461
1480697221247068,-0.762762,-0.414008,2.28457
1480697221274641,-0.762724,-0.41395,2.28452
1480697221285170,-0.762724,-0.41395,2.28452
1480697221306226,-0.762876,-0.41401,2.2846
1480697221327283,-0.762803,-0.413847,2.28461
1480697221348338,-0.762724,-0.41395,2.28452
1480697221374908,-0.762724,-0.41395,2.28452
1480697221387441,-0.762764,-0.413953,2.28464
1480697221418022,-0.76257,-0.414054,2.28452
1480697221434567,-0.76257,-0.414054,2.28452
1480697221447100,-0.76257,-0.414054,2.28452
1480697221465148,-0.762379,-0.414101,2.28447
1480697221488710,-0.762377,-0.414155,2.2844
1480697221508764,-0.762377,-0.414155,2.2844
1480697221540349,-0.762379,-0.414101,2.28447
1480697221547869,-0.762531,-0.41416,2.28456
1480697221569425,-0.76257,-0.414054,2.28452
1480697221608529,-0.76257,-0.414054,2.28452
1480697221612039,-0.762609,-0.413948,2.28449
1480697221630086,-0.762609,-0.413948,2.28449
1480697221651144,-0.762609,-0.413948,2.28449
1480697221667686,-0.762457,-0.413889,2.2844
1480697221687239,-0.762457,-0.413889,2.2844
1480697221705286,-0.762418,-0.413995,2.28444
1480697221744390,-0.762266,-0.413935,2.28435
1480697221764946,-0.762266,-0.413935,2.28435
1480697221767453,-0.762303,-0.413993,2.28441
1480697221789008,-0.762151,-0.413933,2.28432
1480697221807056,-0.762151,-0.413933,2.28432
1480697221825104,-0.762722,-0.414005,2.28445
1480697221855185,-0.762915,-0.413904,2.28457
1480697221884267,-0.762915,-0.413904,2.28457
1480697221886768,-0.762915,-0.413904,2.28457
1480697221908328,-0.762915,-0.413904,2.28457
1480697221930386,-0.762954,-0.413798,2.28453
1480697221975505,-0.762954,-0.413798,2.28453
1480697221980017,-0.762954,-0.413798,2.28453
1480697221996059,-0.762994,-0.413801,2.28465
1480697222011101,-0.762842,-0.413741,2.28457
1480697222041681,-0.762842,-0.413741,2.28457
1480697222048701,-0.762648,-0.413842,2.28445
1480697222065746,-0.762648,-0.413842,2.28445
1480697222103345,-0.762648,-0.413842,2.28445
1480697222114878,-0.762648,-0.413842,2.28445
1480697222138941,-0.762648,-0.413842,2.28445
1480697222167017,-0.762648,-0.413842,2.28445
1480697222184062,-0.762648,-0.413842,2.28445
1480697222186566,-0.762648,-0.413842,2.28445
1480697222207622,-0.762689,-0.413682,2.28448
1480697222229179,-0.762689,-0.413682,2.28448
1480697222251239,-0.762768,-0.413579,2.28457
1480697222267782,-0.762616,-0.413519,2.28449
1480697222290341,-0.762616,-0.413519,2.28449
1480697222309894,-0.762616,-0.413519,2.28449
1480697222332457,-0.762464,-0.41346,2.2844
1480697222348498,-0.762462,-0.413514,2.28433
1480697222377073,-0.762423,-0.41362,2.28437
1480697222387601,-0.762423,-0.41362,2.28437
1480697222431720,-0.76227,-0.413561,2.28428
1480697222434226,-0.76227,-0.413561,2.28428
1480697222460293,-0.76227,-0.413561,2.28428
1480697222485862,-0.76227,-0.413561,2.28428
1480697222489872,-0.76227,-0.413561,2.28428
1480697222521456,-0.762423,-0.41362,2.28437
1480697222531484,-0.762462,-0.413514,2.28433
1480697222552539,-0.762309,-0.413455,2.28425
1480697222568091,-0.762388,-0.413352,2.28433
1480697222590138,-0.762197,-0.413398,2.28428
1480697222609691,-0.762197,-0.413398,2.28428
1480697222627739,-0.762197,-0.413398,2.28428
1480697222660325,-0.762197,-0.413398,2.28428
1480697222672872,-0.762045,-0.413338,2.2842
1480697222697929,-0.762003,-0.413499,2.28417
1480697222717981,-0.762003,-0.413499,2.28417
1480697222732518,-0.761964,-0.413605,2.2842
1480697222749564,-0.761964,-0.413605,2.2842
1480697222772126,-0.761964,-0.413605,2.2842
1480697222808219,-0.761851,-0.413439,2.28408
1480697222819750,-0.762045,-0.413338,2.2842
1480697222831282,-0.762045,-0.413338,2.2842
1480697222849833,-0.762123,-0.413235,2.28428
1480697222867877,-0.761971,-0.413176,2.2842
1480697222890438,-0.761971,-0.413176,2.2842
1480697222909990,-0.76201,-0.41307,2.28416
1480697222932050,-0.761858,-0.41301,2.28408
1480697222950100,-0.761898,-0.413013,2.2842
1480697222972656,-0.761707,-0.41306,2.28415
1480697222993712,-0.761704,-0.413114,2.28408
1480697223017779,-0.761704,-0.413114,2.28408
1480697223040339,-0.761513,-0.413161,2.28403
1480697223070919,-0.761513,-0.413161,2.28403
1480697223074928,-0.761513,-0.413161,2.28403
1480697223108518,-0.761552,-0.413055,2.284
1480697223114033,-0.761704,-0.413114,2.28408
1480697223135089,-0.761704,-0.413114,2.28408
1480697223149627,-0.761594,-0.412894,2.28403
1480697223167675,-0.761594,-0.412894,2.28403
1480697223193243,-0.761672,-0.412791,2.28412
1480697223211290,-0.761672,-0.412791,2.28412
1480697223227835,-0.76152,-0.412732,2.28403
1480697223250897,-0.76152,-0.412732,2.28403
1480697223275968,-0.761368,-0.412672,2.28395
1480697223308550,-0.761746,-0.41258,2.28375
1480697223316070,-0.761594,-0.41252,2.28367
1480697223331110,-0.761594,-0.41252,2.28367
1480697223359685,-0.761442,-0.412569,2.28374
1480697223380743,-0.76129,-0.41251,2.28365
1480697223391269,-0.761442,-0.412569,2.28374
1480697223407813,-0.761481,-0.412464,2.2837
1480697223430374,-0.761481,-0.412464,2.2837
1480697223451430,-0.761675,-0.412363,2.28382
1480697223467974,-0.761675,-0.412363,2.28382
1480697223505072,-0.761675,-0.412363,2.28382
1480697223528636,-0.761562,-0.412197,2.2837
1480697223534651,-0.761562,-0.412197,2.2837
1480697223550195,-0.761562,-0.412197,2.2837
1480697223594811,-0.761562,-0.412197,2.2837
1480697223597318,-0.76141,-0.412138,2.28362
1480697223617373,-0.761449,-0.41214,2.28374
1480697223633416,-0.761449,-0.41214,2.28374
1480697223652965,-0.761297,-0.412081,2.28365
1480697223677030,-0.761297,-0.412081,2.28365
1480697223692069,-0.761337,-0.411975,2.28362
1480697223715131,-0.761488,-0.412035,2.2837
1480697223729168,-0.761528,-0.411929,2.28366
1480697223759248,-0.76153,-0.411874,2.28373
1480697223772785,-0.761569,-0.411768,2.2837
1480697223789329,-0.761569,-0.411768,2.2837
1480697223828432,-0.761608,-0.411662,2.28366
1480697223834950,-0.761648,-0.411665,2.28378
1480697223849992,-0.761648,-0.411665,2.28378
1480697223872048,-0.761535,-0.4115,2.28366
1480697223893104,-0.761535,-0.4115,2.28366
1480697223923685,-0.761535,-0.4115,2.28366
1480697223955269,-0.761383,-0.41144,2.28358
1480697223957275,-0.761383,-0.41144,2.28358
1480697223970811,-0.761422,-0.411443,2.2837
1480697223992368,-0.761422,-0.411443,2.2837
1480697224012922,-0.762303,-0.411097,2.28384
1480697224036987,-0.762342,-0.410991,2.2838
1480697224058043,-0.762342,-0.410991,2.2838
1480697224083612,-0.762423,-0.410833,2.28396
1480697224104166,-0.762462,-0.410727,2.28392
1480697224126224,-0.763,-0.410476,2.28409
1480697224133246,-0.763039,-0.410371,2.28405
1480697224149790,-0.763079,-0.410373,2.28417
1480697224173851,-0.762927,-0.410314,2.28409
1480697224193402,-0.762927,-0.410314,2.28409
1480697224217469,-0.762775,-0.410254,2.284
1480697224239526,-0.762773,-0.410309,2.28393
1480697224253063,-0.762773,-0.410309,2.28393
1480697224269606,-0.762773,-0.410309,2.28393
1480697224291663,-0.762775,-0.410254,2.284
1480697224313221,-0.762814,-0.410149,2.28397
1480697224342800,-0.762814,-0.410149,2.28397
1480697224360848,-0.762854,-0.410043,2.28393
1480697224374886,-0.762893,-0.410045,2.28405
1480697224389424,-0.763086,-0.409945,2.28417
1480697224419002,-0.763086,-0.409945,2.28417
1480697224433042,-0.763125,-0.409839,2.28414
1480697224449586,-0.763125,-0.409839,2.28414
1480697224472144,-0.763165,-0.409733,2.2841
1480697224510747,-0.763013,-0.409673,2.28402
