timestamp,x,y,z
1480607524154475,-0.320313,-0.94043,-0.183105
1480607524160993,-0.323242,-0.952148,-0.1875
1480607524174527,-0.332031,-0.955566,-0.188965
1480607524197087,-0.334473,-0.955078,-0.177734
1480607524212127,-0.324219,-0.951172,-0.181641
1480607524228171,-0.321777,-0.944824,-0.180176
1480607524249226,-0.320313,-0.943359,-0.173828
1480607524274794,-0.325195,-0.950195,-0.180176
1480607524290838,-0.327148,-0.960449,-0.174805
1480607524309387,-0.335449,-0.961914,-0.178711
1480607524339471,-0.336914,-0.955078,-0.174316
1480607524349995,-0.330566,-0.939941,-0.174805
1480607524369546,-0.32666,-0.947266,-0.172852
1480607524392107,-0.322266,-0.950684,-0.175293
1480607524440235,-0.324707,-0.953613,-0.176758
1480607524445749,-0.327148,-0.955566,-0.178223
1480607524475328,-0.330078,-0.957031,-0.172852
1480607524484854,-0.33252,-0.951172,-0.17334
1480607524489365,-0.322266,-0.944336,-0.179688
1480607524519446,-0.324707,-0.940918,-0.181152
1480607524534485,-0.322754,-0.952148,-0.181152
1480607524551029,-0.32666,-0.959473,-0.176758
1480607524572086,-0.333984,-0.960449,-0.181152
1480607524595648,-0.333496,-0.946777,-0.180664
1480607524618208,-0.32959,-0.938477,-0.178223
1480607524631744,-0.32666,-0.938477,-0.181152
1480607524654807,-0.323242,-0.942871,-0.178711
1480607524669345,-0.323242,-0.951172,-0.18457
1480607524694912,-0.328613,-0.964844,-0.188477
1480607524715967,-0.332031,-0.956543,-0.183594
1480607524745046,-0.331055,-0.949707,-0.177246
1480607524759584,-0.332031,-0.939941,-0.172363
1480607524783147,-0.325195,-0.938477,-0.174316
1480607524797184,-0.32373,-0.952148,-0.166504
1480607524819746,-0.327637,-0.968262,-0.17627
1480607524834283,-0.332031,-0.967773,-0.176758
1480607524849322,-0.335449,-0.955078,-0.178223
1480607524874891,-0.331055,-0.942871,-0.179199
1480607524897452,-0.324707,-0.940918,-0.180176
1480607524909483,-0.322266,-0.950684,-0.177734
1480607524932043,-0.325195,-0.949707,-0.179199
1480607524954603,-0.33252,-0.955078,-0.183105
1480607524969645,-0.32959,-0.95459,-0.183594
1480607524991701,-0.33252,-0.941406,-0.183594
1480607525031306,-0.32666,-0.935059,-0.181152
1480607525033814,-0.322754,-0.931641,-0.188965
1480607525051861,-0.32373,-0.956543,-0.1875
1480607525074421,-0.333984,-0.967773,-0.18457
1480607525089461,-0.321777,-0.968262,-0.182129
1480607525112021,-0.331543,-0.95459,-0.180664
1480607525134584,-0.338379,-0.940918,-0.17041
1480607525158646,-0.327148,-0.941895,-0.171875
1480607525172183,-0.312988,-0.949219,-0.169434
1480607525203769,-0.323242,-0.958984,-0.169922
1480607525219809,-0.340332,-0.964844,-0.175781
1480607525231840,-0.336914,-0.958008,-0.17627
1480607525263926,-0.331543,-0.951172,-0.17627
1480607525270945,-0.324707,-0.937988,-0.181152
1480607525295009,-0.322754,-0.937012,-0.181641
1480607525314561,-0.322266,-0.946289,-0.183105
1480607525338625,-0.330566,-0.956543,-0.189453
1480607525351659,-0.336914,-0.94873,-0.185547
1480607525382742,-0.329102,-0.941895,-0.186523
1480607525396779,-0.320313,-0.942871,-0.181152
1480607525411819,-0.314941,-0.94873,-0.187988
1480607525442400,-0.31543,-0.947266,-0.179199
1480607525450923,-0.321289,-0.95166,-0.183105
1480607525471980,-0.327637,-0.962402,-0.178711
1480607525494539,-0.333496,-0.960449,-0.181641
1480607525511084,-0.334961,-0.954102,-0.178711
1480607525539661,-0.327148,-0.938965,-0.177734
1480607525554201,-0.322266,-0.942871,-0.186523
1480607525570743,-0.325195,-0.953125,-0.180176
1480607525591798,-0.32959,-0.960449,-0.180664
1480607525617366,-0.336426,-0.955078,-0.180664
1480607525630902,-0.331055,-0.947754,-0.179199
1480607525651958,-0.32666,-0.938965,-0.17627
1480607525674519,-0.326172,-0.943359,-0.183594
1480607525705601,-0.322754,-0.953125,-0.176758
1480607525712119,-0.324707,-0.961426,-0.184082
1480607525734177,-0.32959,-0.968262,-0.181641
1480607525752225,-0.331543,-0.957031,-0.178223
1480607525779297,-0.333984,-0.94043,-0.177246
1480607525794337,-0.32373,-0.933594,-0.180664
1480607525819905,-0.325684,-0.938477,-0.18457
1480607525831939,-0.32666,-0.94873,-0.186035
1480607525854499,-0.328613,-0.958496,-0.185059
1480607525872545,-0.32959,-0.956543,-0.176758
1480607525895105,-0.323242,-0.953125,-0.190918
1480607525914657,-0.323242,-0.944336,-0.183594
1480607525939724,-0.32666,-0.946777,-0.180176
1480607525951755,-0.330078,-0.949707,-0.183105
1480607525981836,-0.334473,-0.959961,-0.174805
1480607526005900,-0.337402,-0.963867,-0.182617
1480607526011916,-0.333984,-0.965332,-0.171387
1480607526050518,-0.326172,-0.950195,-0.177246
1480607526065057,-0.323242,-0.938965,-0.181152
1480607526073581,-0.32373,-0.938965,-0.181152
1480607526097142,-0.328613,-0.948242,-0.184082
1480607526118199,-0.32959,-0.959473,-0.176758
1480607526139255,-0.326172,-0.962891,-0.18457
1480607526154295,-0.332031,-0.949219,-0.18457
1480607526185879,-0.322754,-0.936523,-0.17627
1480607526191895,-0.317871,-0.934082,-0.174316
1480607526215959,-0.333008,-0.943848,-0.184082
1480607526237016,-0.336914,-0.95752,-0.185547
1480607526252055,-0.331543,-0.966309,-0.178711
1480607526285644,-0.324707,-0.966309,-0.179688
1480607526297174,-0.325195,-0.949707,-0.18457
1480607526329761,-0.319336,-0.938965,-0.178223
1480607526334273,-0.322754,-0.942871,-0.182617
1480607526356833,-0.325195,-0.95752,-0.177246
1480607526373378,-0.332031,-0.962891,-0.180664
1480607526395937,-0.328125,-0.959473,-0.16748
1480607526416993,-0.32959,-0.950195,-0.166992
1480607526433538,-0.325684,-0.942871,-0.167969
1480607526462114,-0.319824,-0.943848,-0.174805
1480607526477154,-0.324707,-0.953125,-0.166992
1480607526493196,-0.331055,-0.962402,-0.171387
1480607526514252,-0.332031,-0.963379,-0.176758
1480607526537317,-0.32373,-0.958008,-0.169922
1480607526562380,-0.324707,-0.944824,-0.178711
1480607526574413,-0.31543,-0.936035,-0.177246
1480607526606499,-0.322754,-0.937012,-0.183594
1480607526613516,-0.327637,-0.95166,-0.181152
1480607526642093,-0.331055,-0.960938,-0.179199
1480607526657132,-0.328613,-0.956543,-0.180664
1480607526674679,-0.320801,-0.951172,-0.178223
1480607526697239,-0.319336,-0.950195,-0.176758
1480607526724310,-0.31543,-0.944336,-0.177734
1480607526734839,-0.323242,-0.948242,-0.180664
1480607526754391,-0.327148,-0.964844,-0.169922
1480607526784470,-0.333008,-0.960449,-0.163574
1480607526794999,-0.325195,-0.951172,-0.170898
1480607526830593,-0.320801,-0.950684,-0.172363
1480607526837113,-0.322266,-0.952148,-0.179199
1480607526854658,-0.314941,-0.957031,-0.177734
1480607526877217,-0.324219,-0.958496,-0.177734
1480607526896769,-0.335938,-0.964355,-0.168945
1480607526922839,-0.338867,-0.957031,-0.168457
1480607526934369,-0.321289,-0.946777,-0.164063
1480607526964450,-0.320313,-0.944824,-0.17041
1480607526974979,-0.318848,-0.94043,-0.171875
1480607526994530,-0.31543,-0.946289,-0.179199
1480607527017090,-0.320313,-0.955078,-0.186523
1480607527035640,-0.327637,-0.961426,-0.174805
1480607527063213,-0.32959,-0.955566,-0.179199
1480607527076748,-0.324219,-0.943359,-0.17334
1480607527099308,-0.320313,-0.951172,-0.180664
1480607527115853,-0.321289,-0.953125,-0.17627
1480607527139918,-0.32373,-0.961426,-0.171875
1480607527169997,-0.330566,-0.962891,-0.170898
1480607527174510,-0.328613,-0.958496,-0.16748
1480607527197068,-0.327148,-0.943359,-0.163086
1480607527215116,-0.325684,-0.936035,-0.172363
1480607527236176,-0.319824,-0.945313,-0.169922
1480607527256727,-0.32373,-0.960938,-0.175781
1480607527280792,-0.32666,-0.971191,-0.175293
1480607527295831,-0.331543,-0.963867,-0.172363
1480607527324408,-0.32666,-0.946289,-0.169922
1480607527340952,-0.317383,-0.942383,-0.17334
1480607527355992,-0.322266,-0.938477,-0.177734
1480607527387576,-0.323242,-0.950195,-0.172363
1480607527399607,-0.329102,-0.960938,-0.178223
1480607527415650,-0.32373,-0.963379,-0.175293
1480607527436709,-0.32666,-0.956543,-0.172852
1480607527459266,-0.322266,-0.943848,-0.172852
1480607527483330,-0.312012,-0.939941,-0.173828
1480607527496866,-0.318848,-0.943359,-0.169922
1480607527522440,-0.325195,-0.954102,-0.168945
1480607527537476,-0.332031,-0.969238,-0.169434
1480607527560034,-0.333008,-0.964844,-0.172363
1480607527582094,-0.324707,-0.95166,-0.166504
1480607527620199,-0.314453,-0.940918,-0.166992
1480607527628216,-0.318848,-0.948242,-0.171387
1480607527639247,-0.322266,-0.949707,-0.169922
1480607527663309,-0.328613,-0.957031,-0.162598
1480607527676846,-0.327637,-0.962402,-0.171875
1480607527718455,-0.321289,-0.961914,-0.17334
1480607527723470,-0.325195,-0.949707,-0.175293
1480607527737009,-0.324707,-0.94043,-0.174316
1480607527761069,-0.321289,-0.941895,-0.177734
1480607527777112,-0.323242,-0.953125,-0.175293
1480607527799672,-0.32959,-0.963379,-0.168457
1480607527819726,-0.333984,-0.959961,-0.166992
1480607527838276,-0.325684,-0.951172,-0.174316
1480607527856824,-0.318848,-0.944336,-0.165039
1480607527879383,-0.318359,-0.948242,-0.177734
1480607527897432,-0.321777,-0.956055,-0.175293
1480607527916983,-0.32666,-0.958496,-0.174316
1480607527942552,-0.334961,-0.963867,-0.172363
1480607527957092,-0.330566,-0.958496,-0.178223
1480607527977144,-0.32373,-0.949707,-0.174805
1480607527999704,-0.324219,-0.942871,-0.177246
1480607528023268,-0.319824,-0.94043,-0.168457
1480607528039812,-0.326172,-0.959473,-0.177246
1480607528059362,-0.331543,-0.967285,-0.173828
1480607528077411,-0.333984,-0.963867,-0.167969
1480607528096962,-0.32666,-0.951172,-0.169922
1480607528119526,-0.326172,-0.942383,-0.171387
1480607528137572,-0.322266,-0.943848,-0.172852
1480607528158626,-0.330566,-0.948242,-0.170898
1480607528179182,-0.325195,-0.961426,-0.175293
1480607528197230,-0.331543,-0.967285,-0.171387
1480607528227309,-0.330078,-0.955566,-0.171875
1480607528239342,-0.327637,-0.942871,-0.173828
1480607528261901,-0.322266,-0.937012,-0.179199
1480607528279950,-0.328613,-0.944824,-0.175293
1480607528299501,-0.325684,-0.959961,-0.176758
1480607528317550,-0.326172,-0.970703,-0.179199
1480607528344621,-0.324707,-0.962402,-0.168457
1480607528359661,-0.32666,-0.947266,-0.175293
1480607528377209,-0.32373,-0.943848,-0.171387
1480607528398264,-0.327148,-0.948242,-0.171875
1480607528419325,-0.327148,-0.957031,-0.163574
1480607528451406,-0.330566,-0.960449,-0.166016
1480607528458424,-0.328125,-0.955566,-0.17334
1480607528479981,-0.324707,-0.956055,-0.173828
1480607528497528,-0.322754,-0.947266,-0.177734
1480607528520092,-0.319336,-0.941895,-0.175293
1480607528549667,-0.325195,-0.948242,-0.172852
1480607528557188,-0.328613,-0.953613,-0.175781
1480607528579747,-0.327637,-0.955566,-0.178223
1480607528599299,-0.328613,-0.954102,-0.17627
1480607528617347,-0.327637,-0.949707,-0.171875
1480607528639909,-0.325684,-0.947754,-0.17627
1480607528666979,-0.326172,-0.948242,-0.171387
1480607528677507,-0.32666,-0.958008,-0.161621
1480607528700068,-0.327637,-0.961914,-0.162598
1480607528727139,-0.33252,-0.959473,-0.159668
1480607528737166,-0.325195,-0.956543,-0.163086
1480607528759725,-0.329102,-0.946777,-0.163086
1480607528782287,-0.326172,-0.941406,-0.164551
1480607528797326,-0.327148,-0.949219,-0.171387
1480607528819886,-0.329102,-0.961914,-0.174316
1480607528839438,-0.328125,-0.958008,-0.173828
1480607528861998,-0.331543,-0.946289,-0.179688
1480607528880046,-0.325684,-0.939453,-0.185059
1480607528902106,-0.327148,-0.93457,-0.183594
1480607528922161,-0.319336,-0.939453,-0.180176
1480607528939710,-0.328125,-0.953125,-0.17627
1480607528959257,-0.334473,-0.960938,-0.179199
1480607528981817,-0.327637,-0.96582,-0.172852
1480607529005885,-0.325684,-0.958496,-0.166992
1480607529026936,-0.328613,-0.944336,-0.159668
1480607529041978,-0.330566,-0.938965,-0.161621
1480607529060025,-0.328125,-0.947754,-0.167969
1480607529087101,-0.32959,-0.971191,-0.166504
1480607529102141,-0.330566,-0.974609,-0.166504
1480607529124195,-0.333984,-0.956055,-0.16748
1480607529140742,-0.327637,-0.941406,-0.173828
1480607529161795,-0.320801,-0.936035,-0.17627
1480607529179844,-0.323242,-0.943359,-0.179199
1480607529200900,-0.334961,-0.957031,-0.179688
1480607529223461,-0.332031,-0.962891,-0.184082
1480607529240004,-0.336914,-0.966797,-0.187012
1480607529261060,-0.318848,-0.950684,-0.181152
1480607529282115,-0.327637,-0.937988,-0.178223
1480607529299662,-0.325195,-0.932129,-0.176758
1480607529328238,-0.32666,-0.946777,-0.17627
1480607529341774,-0.340332,-0.960449,-0.17627
1480607529360324,-0.337402,-0.95752,-0.180664
1480607529382382,-0.328125,-0.953613,-0.167969
1480607529401935,-0.327148,-0.944824,-0.168945
1480607529419986,-0.324219,-0.9375,-0.17334
1480607529441039,-0.331055,-0.944336,-0.17334
1480607529469619,-0.333984,-0.957031,-0.166992
1480607529492174,-0.330566,-0.964355,-0.18457
1480607529502202,-0.33252,-0.95752,-0.17041
1480607529521756,-0.32666,-0.949219,-0.185059
1480607529539802,-0.333008,-0.942871,-0.176758
1480607529568377,-0.326172,-0.936523,-0.177734
1480607529581913,-0.32373,-0.943848,-0.181152
1480607529599963,-0.330566,-0.961426,-0.177734
1480607529622521,-0.335449,-0.970703,-0.172852
1480607529642074,-0.335449,-0.953613,-0.178711
1480607529659620,-0.332031,-0.94043,-0.177734
1480607529682180,-0.328613,-0.937988,-0.178711
1480607529701734,-0.32666,-0.944336,-0.178711
1480607529719782,-0.328613,-0.958496,-0.179688
1480607529757381,-0.335449,-0.961426,-0.178711
1480607529761892,-0.337402,-0.95459,-0.182129
1480607529779940,-0.328613,-0.949219,-0.168945
1480607529802501,-0.322266,-0.943359,-0.175293
1480607529824558,-0.325195,-0.946777,-0.174805
1480607529839599,-0.324707,-0.946777,-0.180176
1480607529862159,-0.330566,-0.952637,-0.175781
1480607529881711,-0.334473,-0.949219,-0.176758
1480607529899760,-0.327148,-0.945801,-0.178223
1480607529929839,-0.326172,-0.945801,-0.176758
1480607529941871,-0.322266,-0.944824,-0.180176
1480607529959919,-0.324219,-0.950684,-0.188965
1480607529982480,-0.332031,-0.957031,-0.180176
1480607530002033,-0.335449,-0.963867,-0.174805
1480607530020095,-0.337891,-0.958496,-0.169434
1480607530042138,-0.328613,-0.949219,-0.165039
1480607530062190,-0.32666,-0.941895,-0.165527
1480607530079738,-0.320801,-0.941406,-0.163086
1480607530102801,-0.324707,-0.955078,-0.175293
1480607530123354,-0.33252,-0.968262,-0.176758
1480607530139898,-0.330078,-0.961914,-0.180176
1480607530162457,-0.32666,-0.949219,-0.182129
1480607530184015,-0.318359,-0.941895,-0.183594
1480607530200057,-0.318848,-0.927734,-0.182129
1480607530222116,-0.325684,-0.930176,-0.183594
1480607530243172,-0.32666,-0.952637,-0.19043
1480607530259716,-0.331543,-0.962891,-0.186035
1480607530282277,-0.331543,-0.95752,-0.178223
1480607530303333,-0.330566,-0.944824,-0.172852
1480607530331908,-0.317383,-0.944336,-0.17627
1480607530342437,-0.319824,-0.946289,-0.174316
1480607530363493,-0.321777,-0.964844,-0.165039
1480607530384549,-0.33252,-0.971191,-0.173828
1480607530402096,-0.333008,-0.966797,-0.165039
1480607530425157,-0.331055,-0.95459,-0.175781
1480607530444207,-0.320313,-0.939941,-0.175293
1480607530462757,-0.320801,-0.938965,-0.179199
1480607530484816,-0.325195,-0.948242,-0.17627
1480607530504368,-0.335449,-0.952637,-0.182129
1480607530522415,-0.327637,-0.959473,-0.183594
1480607530544975,-0.315918,-0.962402,-0.178711
1480607530564530,-0.320801,-0.945801,-0.183594
1480607530582075,-0.318359,-0.942383,-0.18457
1480607530604635,-0.320313,-0.940918,-0.179199
1480607530625690,-0.322754,-0.952637,-0.171387
1480607530642235,-0.331055,-0.963379,-0.168945
1480607530669808,-0.323242,-0.964844,-0.166504
1480607530684346,-0.324219,-0.958008,-0.166504
1480607530702395,-0.329102,-0.948242,-0.168457
1480607530724954,-0.328125,-0.941895,-0.165039
1480607530744506,-0.327148,-0.938965,-0.172363
1480607530770075,-0.334473,-0.947754,-0.171387
1480607530785115,-0.314941,-0.967773,-0.174316
1480607530804167,-0.32373,-0.969238,-0.171387
1480607530826724,-0.34082,-0.940918,-0.17627
1480607530844773,-0.328613,-0.915527,-0.173828
1480607530864325,-0.318359,-0.947266,-0.17041
1480607530889893,-0.321289,-0.966309,-0.17334
1480607530904934,-0.328613,-0.966797,-0.174805
1480607530924485,-0.326172,-0.962402,-0.169922
1480607530942533,-0.334961,-0.961914,-0.169434
1480607530964592,-0.32959,-0.938965,-0.175781
1480607530994672,-0.32373,-0.932129,-0.174805
1480607531002192,-0.32666,-0.944336,-0.177246
1480607531024751,-0.333008,-0.947754,-0.183594
1480607531045809,-0.324707,-0.95752,-0.175781
1480607531062352,-0.321289,-0.96582,-0.177734
1480607531092432,-0.323242,-0.953125,-0.181641
1480607531105969,-0.318848,-0.947266,-0.169922
1480607531122514,-0.323242,-0.952637,-0.177246
1480607531144070,-0.32959,-0.976563,-0.169434
1480607531165125,-0.328125,-0.963379,-0.165039
1480607531181669,-0.338867,-0.958496,-0.161621
1480607531204230,-0.332031,-0.963867,-0.168945
1480607531226288,-0.325195,-0.955566,-0.15332
1480607531247344,-0.336426,-0.937012,-0.155273
1480607531263888,-0.335449,-0.917969,-0.14209
1480607531284945,-0.320313,-0.942871,-0.145508
1480607531301489,-0.333008,-0.973145,-0.150391
1480607531331568,-0.332031,-0.971191,-0.167969
1480607531345104,-0.340332,-0.959473,-0.17334
1480607531360646,-0.29834,-0.953125,-0.136719
1480607531385212,-0.314941,-0.93457,-0.145508
1480607531413787,-0.349121,-0.935059,-0.151367
1480607531420807,-0.347168,-0.96875,-0.151367
1480607531445371,-0.332031,-0.986816,-0.155762
1480607531466427,-0.316406,-0.956543,-0.160156
1480607531487484,-0.34375,-0.937988,-0.170898
1480607531504030,-0.32959,-0.924316,-0.185059
1480607531526587,-0.300293,-0.953125,-0.167969
1480607531556667,-0.325684,-0.95752,-0.17041
1480607531564687,-0.324707,-0.928223,-0.174316
1480607531586748,-0.361816,-0.925781,-0.17627
1480607531607807,-0.329102,-0.932617,-0.179688
1480607531623846,-0.311523,-0.964844,-0.187988
1480607531646406,-0.308594,-0.977539,-0.181641
1480607531667461,-0.324707,-0.948242,-0.182129
1480607531691526,-0.311035,-0.953613,-0.175781
1480607531706566,-0.30957,-0.961914,-0.175293
1480607531735142,-0.345215,-0.945313,-0.194336
1480607531744166,-0.341797,-0.949707,-0.19873
1480607531782267,-0.370605,-0.950195,-0.222168
1480607531787782,-0.334473,-0.939453,-0.198242
1480607531804330,-0.299316,-0.948242,-0.204102
1480607531826384,-0.315918,-0.950195,-0.193359
1480607531847440,-0.321289,-0.958984,-0.198242
1480607531863984,-0.322266,-0.930664,-0.19043
1480607531886544,-0.317383,-0.90625,-0.193359
1480607531907604,-0.334961,-0.913086,-0.183105
1480607531930160,-0.353516,-0.949707,-0.175293
1480607531947206,-0.360352,-0.959961,-0.169434
1480607531967760,-0.40918,-0.931641,-0.196777
1480607531984304,-0.375,-0.942871,-0.189941
1480607532013883,-0.330078,-0.968262,-0.216797
1480607532027418,-0.35791,-0.990234,-0.245605
1480607532043963,-0.388184,-0.928711,-0.229492
1480607532066524,-0.356934,-0.905762,-0.195801
1480607532087579,-0.294434,-0.894531,-0.193848
1480607532104125,-0.282715,-0.942871,-0.187012
1480607532126683,-0.327148,-0.992676,-0.193359
1480607532147739,-0.385254,-0.968262,-0.210938
1480607532163782,-0.352539,-0.932617,-0.186035
1480607532186347,-0.279297,-0.92041,-0.161133
1480607532208902,-0.314941,-0.9375,-0.146484
1480607532223442,-0.297363,-0.940918,-0.124512
1480607532246502,-0.297852,-0.924316,-0.136719
1480607532267558,-0.325195,-0.944824,-0.161133
1480607532291623,-0.339355,-0.959961,-0.174805
1480607532306663,-0.319336,-0.958008,-0.185547
1480607532329723,-0.302246,-0.979004,-0.170898
1480607532345265,-0.328125,-0.960938,-0.164551
1480607532366320,-0.37207,-0.966309,-0.170898
1480607532388884,-0.40625,-0.944824,-0.189941
1480607532409937,-0.395508,-0.935059,-0.199707
1480607532426481,-0.360352,-0.92627,-0.197754
1480607532449041,-0.338379,-0.930176,-0.227051
1480607532470099,-0.286133,-0.949219,-0.200195
1480607532486643,-0.307129,-0.93457,-0.216309
1480607532509201,-0.335938,-0.922363,-0.219238
1480607532523239,-0.319824,-0.933105,-0.216797
1480607532552316,-0.338867,-0.938965,-0.226074
1480607532569361,-0.365234,-0.952148,-0.207031
1480607532583398,-0.353516,-0.94873,-0.19043
1480607532613979,-0.349121,-0.958496,-0.186035
1480607532629020,-0.338379,-0.932129,-0.194336
1480607532643560,-0.339355,-0.925293,-0.202637
1480607532667120,-0.331543,-0.933594,-0.188965
1480607532712743,-0.31543,-0.943359,-0.192383
1480607532717756,-0.327637,-0.946777,-0.203613
1480607532726278,-0.368164,-0.953613,-0.205566
1480607532755360,-0.363281,-0.957031,-0.200684
1480607532763377,-0.342773,-0.954102,-0.188965
1480607532786439,-0.322266,-0.938965,-0.182617
1480607532809500,-0.330566,-0.916016,-0.196289
1480607532830054,-0.33252,-0.92334,-0.192871
1480607532846598,-0.334961,-0.944824,-0.193359
1480607532877180,-0.334473,-0.952148,-0.193359
1480607532891718,-0.337402,-0.943848,-0.178711
1480607532906258,-0.350586,-0.952148,-0.183105
1480607532944860,-0.348145,-0.937012,-0.185547
1480607532949873,-0.330566,-0.939453,-0.195801
1480607532966919,-0.330078,-0.958008,-0.195801
1480607532988979,-0.339844,-0.967285,-0.200684
1480607533010034,-0.356445,-0.955078,-0.193848
1480607533026577,-0.35791,-0.918457,-0.187988
1480607533049137,-0.342773,-0.923828,-0.182617
1480607533077713,-0.334961,-0.913086,-0.1875
1480607533086738,-0.32666,-0.94873,-0.195313
1480607533108797,-0.314941,-0.962891,-0.204102
1480607533129862,-0.365723,-0.938965,-0.226563
1480607533153926,-0.225586,-1.01465,-0.242676
1480607533169477,-0.387695,-0.951172,-0.198242
1480607533190023,-0.380859,-0.90918,-0.161621
1480607533214087,-0.350098,-0.90625,-0.207031
1480607533229126,-0.303711,-0.987305,-0.193848
1480607533250182,-0.334961,-0.995605,-0.205566
1480607533266726,-0.350098,-0.943359,-0.215332
1480607533289289,-0.321777,-0.916992,-0.195313
1480607533311847,-0.325195,-0.899902,-0.186523
1480607533326385,-0.344727,-0.912109,-0.191406
1480607533363988,-0.332031,-0.956543,-0.185547
1480607533371506,-0.337402,-0.981934,-0.196777
1480607533386547,-0.333008,-0.96582,-0.197266
1480607533409105,-0.334473,-0.94873,-0.198242
1480607533431666,-0.32959,-0.931152,-0.187012
1480607533445707,-0.340332,-0.921387,-0.181641
1480607533469266,-0.341309,-0.935547,-0.184082
1480607533491825,-0.343262,-0.956543,-0.185547
1480607533505864,-0.345215,-0.970703,-0.20166
1480607533529425,-0.334473,-0.963379,-0.200684
1480607533551985,-0.336426,-0.936523,-0.196777
1480607533566023,-0.328125,-0.893555,-0.201172
1480607533589085,-0.309082,-0.918945,-0.196777
1480607533611644,-0.321777,-0.946289,-0.172852
1480607533634204,-0.365234,-0.958496,-0.202148
1480607533648742,-0.330566,-0.937988,-0.175781
1480607533686344,-0.356934,-0.921387,-0.187012
1480607533688855,-0.328125,-0.933594,-0.185547
1480607533709404,-0.319824,-0.981445,-0.188477
1480607533731462,-0.34375,-0.95459,-0.203125
1480607533746001,-0.32373,-0.946777,-0.200684
1480607533770068,-0.338867,-0.929199,-0.205566
1480607533791623,-0.346191,-0.946289,-0.197754
1480607533820201,-0.34375,-0.945801,-0.197266
1480607533829223,-0.345215,-0.939453,-0.202148
1480607533851282,-0.331055,-0.946289,-0.20752
1480607533872338,-0.332031,-0.94043,-0.201172
1480607533894898,-0.334473,-0.950684,-0.202637
1480607533911442,-0.351563,-0.945801,-0.20166
1480607533932497,-0.343262,-0.928223,-0.19873
1480607533949042,-0.32666,-0.944824,-0.200195
1480607533971602,-0.354004,-0.944824,-0.203125
1480607533992657,-0.318848,-0.96582,-0.177246
1480607534009202,-0.319336,-0.933594,-0.183594
1480607534054823,-0.353027,-0.908203,-0.184082
1480607534056828,-0.34375,-0.928711,-0.19043
1480607534070367,-0.350098,-0.95166,-0.185547
1480607534099442,-0.328125,-0.958984,-0.181152
1480607534112476,-0.328613,-0.934082,-0.197266
1480607534144563,-0.344727,-0.92041,-0.184082
1480607534151581,-0.351563,-0.922363,-0.187988
1480607534172637,-0.34375,-0.947266,-0.206543
1480607534189183,-0.336426,-0.97998,-0.217773
1480607534217757,-0.350098,-0.964844,-0.217285
1480607534234302,-0.339844,-0.929199,-0.214844
1480607534248839,-0.344238,-0.911133,-0.213867
1480607534271399,-0.348633,-0.937012,-0.207031
1480607534293960,-0.342285,-0.959473,-0.214844
1480607534309006,-0.34082,-0.972656,-0.20752
1480607534331559,-0.343262,-0.940918,-0.201172
1480607534354123,-0.348633,-0.913574,-0.201172
1480607534368157,-0.337891,-0.918945,-0.191895
1480607534391724,-0.343262,-0.930664,-0.191895
1480607534413778,-0.339844,-0.958496,-0.202637
1480607534428316,-0.337402,-0.952637,-0.205078
1480607534451379,-0.340332,-0.945313,-0.200195
1480607534473939,-0.341309,-0.93457,-0.191895
1480607534488477,-0.335938,-0.928711,-0.188477
1480607534511538,-0.339844,-0.945313,-0.18457
1480607534541619,-0.336426,-0.950684,-0.188477
1480607534548136,-0.34668,-0.956055,-0.195801
1480607534571700,-0.342285,-0.943359,-0.198242
1480607534608798,-0.358887,-0.928223,-0.19043
1480607534611332,-0.288574,-0.931152,-0.177246
1480607534655421,-0.325684,-0.916992,-0.194336
1480607534659932,-0.362305,-0.945313,-0.187012
1480607534668457,-0.335938,-0.962402,-0.186035
1480607534699037,-0.331543,-0.975098,-0.187988
1480607534714077,-0.336426,-0.963867,-0.172363
1480607534742653,-0.345215,-0.93457,-0.18457
1480607534751678,-0.324707,-0.921875,-0.1875
1480607534774239,-0.319824,-0.936523,-0.187012
1480607534794791,-0.336426,-0.94873,-0.187012
1480607534818858,-0.341309,-0.96582,-0.19043
1480607534833895,-0.339355,-0.964844,-0.188477
1480607534854954,-0.340332,-0.943848,-0.185059
1480607534871499,-0.327148,-0.927734,-0.186035
1480607534894055,-0.328613,-0.931641,-0.1875
1480607534915111,-0.334473,-0.951172,-0.194336
1480607534931655,-0.334961,-0.963867,-0.187012
1480607534954216,-0.337891,-0.958496,-0.187012
1480607534975272,-0.331055,-0.942383,-0.180664
1480607534991315,-0.331543,-0.937012,-0.178711
1480607535013874,-0.331055,-0.935547,-0.192871
1480607535034931,-0.324707,-0.94873,-0.184082
1480607535067016,-0.320313,-0.955566,-0.186523
1480607535074035,-0.33252,-0.964355,-0.182617
1480607535096594,-0.333008,-0.952148,-0.187012
1480607535111635,-0.33252,-0.930176,-0.177734
1480607535134197,-0.327637,-0.930176,-0.179688
1480607535156257,-0.328613,-0.939941,-0.179688
1480607535172798,-0.333008,-0.952148,-0.182617
1480607535193858,-0.331055,-0.960938,-0.183594
1480607535216413,-0.332031,-0.962402,-0.189941
1480607535231453,-0.32666,-0.95752,-0.19043
1480607535254021,-0.331055,-0.941406,-0.190918
1480607535276073,-0.326172,-0.941895,-0.186035
1480607535298130,-0.331055,-0.942871,-0.182617
1480607535314173,-0.334961,-0.959961,-0.184082
1480607535336735,-0.331055,-0.963379,-0.182617
1480607535350772,-0.330566,-0.956055,-0.178711
1480607535373833,-0.327148,-0.941406,-0.179199
1480607535396392,-0.326172,-0.932129,-0.188477
1480607535410930,-0.326172,-0.941406,-0.191406
1480607535441513,-0.32666,-0.952637,-0.1875
1480607535456552,-0.339355,-0.953125,-0.191406
1480607535471091,-0.332031,-0.953613,-0.192383
1480607535494151,-0.332031,-0.951172,-0.188477
1480607535516712,-0.325195,-0.944824,-0.189453
1480607535530749,-0.322266,-0.938965,-0.190918
1480607535553810,-0.325684,-0.946777,-0.184082
1480607535576872,-0.332031,-0.95752,-0.183594
1480607535590910,-0.335449,-0.960449,-0.175781
1480607535621492,-0.336914,-0.954102,-0.176758
1480607535637032,-0.331055,-0.939941,-0.174316
1480607535665107,-0.324219,-0.936523,-0.179199
1480607535674132,-0.323242,-0.942383,-0.189941
1480607535696691,-0.32959,-0.957031,-0.189941
1480607535717749,-0.33252,-0.961914,-0.187012
1480607535741309,-0.332031,-0.95459,-0.189453
1480607535763869,-0.332031,-0.953125,-0.184082
1480607535777907,-0.328613,-0.936523,-0.188965
1480607535801976,-0.325684,-0.933594,-0.185547
1480607535816510,-0.32373,-0.948242,-0.183594
1480607535837566,-0.331055,-0.959961,-0.175781
1480607535854110,-0.331055,-0.963379,-0.182617
1480607535876168,-0.328125,-0.955078,-0.181152
1480607535897725,-0.324219,-0.945313,-0.174316
1480607535913768,-0.324707,-0.94043,-0.174316
1480607535936330,-0.326172,-0.947754,-0.182617
1480607535957384,-0.325195,-0.957031,-0.186523
1480607535981448,-0.333008,-0.959961,-0.180664
1480607535996489,-0.335449,-0.949219,-0.180176
1480607536025064,-0.325684,-0.939941,-0.186523
1480607536035607,-0.321289,-0.937988,-0.191406
1480607536056649,-0.319336,-0.942383,-0.192383
1480607536078206,-0.330078,-0.950684,-0.19043
1480607536093748,-0.32959,-0.956055,-0.181152
1480607536116307,-0.329102,-0.958008,-0.17627
1480607536138867,-0.330566,-0.958984,-0.182129
1480607536160926,-0.320313,-0.949219,-0.174805
1480607536176969,-0.322266,-0.938965,-0.182129
1480607536198527,-0.32666,-0.945313,-0.170898
1480607536221588,-0.330566,-0.955566,-0.185547
1480607536236628,-0.333496,-0.962402,-0.18457
1480607536266707,-0.331543,-0.959961,-0.183594
1480607536273228,-0.330078,-0.947754,-0.180176
1480607536296787,-0.326172,-0.941406,-0.188477
1480607536318852,-0.32373,-0.941895,-0.181152
1480607536333385,-0.322266,-0.945313,-0.186523
1480607536356446,-0.32666,-0.951172,-0.189453
1480607536379006,-0.330078,-0.960449,-0.1875
1480607536393545,-0.327637,-0.952637,-0.186035
1480607536416606,-0.328125,-0.945313,-0.185059
1480607536439167,-0.326172,-0.939941,-0.179688
1480607536453204,-0.32666,-0.943359,-0.192871
1480607536477267,-0.32666,-0.957031,-0.182617
1480607536498825,-0.328125,-0.962402,-0.181641
1480607536513364,-0.331543,-0.958984,-0.175293
1480607536549960,-0.335449,-0.947266,-0.175781
1480607536558984,-0.326172,-0.930664,-0.177734
1480607536573524,-0.328613,-0.941406,-0.179199
1480607536596585,-0.327148,-0.950684,-0.184082
1480607536619146,-0.330566,-0.959473,-0.182617
1480607536640201,-0.32959,-0.960449,-0.184082
1480607536656746,-0.324219,-0.954102,-0.183105
1480607536678804,-0.324707,-0.941406,-0.182129
1480607536699859,-0.322754,-0.935547,-0.188477
1480607536716404,-0.323242,-0.948242,-0.181641
1480607536738964,-0.330078,-0.956055,-0.179199
1480607536760020,-0.332031,-0.960938,-0.179199
1480607536776564,-0.328613,-0.953125,-0.184082
1480607536799124,-0.32959,-0.945801,-0.182129
1480607536821684,-0.331055,-0.942383,-0.186523
1480607536836725,-0.328125,-0.936035,-0.186035
1480607536858782,-0.329102,-0.952637,-0.180664
1480607536879839,-0.333008,-0.958008,-0.179199
1480607536896382,-0.335938,-0.960449,-0.180176
1480607536918942,-0.328125,-0.95166,-0.178223
1480607536940000,-0.32373,-0.941895,-0.179199
1480607536964564,-0.32373,-0.939941,-0.185059
1480607536979103,-0.325195,-0.938477,-0.189453
1480607537000158,-0.328125,-0.944824,-0.189941
1480607537016703,-0.333984,-0.953613,-0.1875
1480607537061822,-0.332031,-0.956543,-0.188477
1480607537064329,-0.331543,-0.953125,-0.183594
1480607537076361,-0.321289,-0.938477,-0.188477
1480607537104937,-0.324219,-0.939453,-0.180664
1480607537121482,-0.328613,-0.950684,-0.18457
1480607537136522,-0.335449,-0.955078,-0.177734
1480607537159082,-0.336426,-0.958984,-0.184082
1480607537181642,-0.333984,-0.953125,-0.185547
1480607537196681,-0.32666,-0.943359,-0.188965
1480607537219244,-0.32666,-0.941406,-0.183105
1480607537241300,-0.328613,-0.948242,-0.186523
1480607537255839,-0.331543,-0.955566,-0.185547
1480607537278900,-0.333496,-0.959473,-0.183105
1480607537301462,-0.327148,-0.958496,-0.182129
1480607537316500,-0.328613,-0.943848,-0.18457
1480607537339063,-0.32666,-0.938477,-0.187012
1480607537361621,-0.329102,-0.937988,-0.181152
1480607537376661,-0.327637,-0.946289,-0.179688
1480607537412756,-0.32959,-0.954102,-0.188965
1480607537421279,-0.331055,-0.955566,-0.187012
1480607537435818,-0.328125,-0.947266,-0.187012
1480607537459380,-0.329102,-0.942383,-0.1875
1480607537481440,-0.328125,-0.935059,-0.188477
1480607537495977,-0.322266,-0.945801,-0.1875
1480607537519039,-0.323242,-0.958008,-0.183594
1480607537541599,-0.331543,-0.962402,-0.181152
1480607537562655,-0.332031,-0.954102,-0.186035
1480607537579199,-0.331055,-0.941895,-0.185547
1480607537601761,-0.33252,-0.940918,-0.181152
1480607537622314,-0.325195,-0.939941,-0.181152
1480607537638859,-0.327148,-0.955078,-0.18457
1480607537661418,-0.326172,-0.962891,-0.185547
1480607537682975,-0.333984,-0.960938,-0.179688
1480607537699018,-0.337891,-0.945313,-0.188477
1480607537721578,-0.328613,-0.937012,-0.186035
1480607537742634,-0.325195,-0.931152,-0.186035
1480607537759177,-0.327148,-0.942383,-0.183594
1480607537781738,-0.326172,-0.95459,-0.184082
1480607537803796,-0.332031,-0.959473,-0.1875
1480607537849417,-0.334961,-0.950195,-0.188965
1480607537851926,-0.33252,-0.94043,-0.1875
1480607537877994,-0.325684,-0.933105,-0.193359
1480607537888020,-0.32373,-0.939941,-0.19043
1480607537901556,-0.328125,-0.952637,-0.198242
1480607537922612,-0.33252,-0.959961,-0.18457
1480607537939158,-0.335938,-0.964355,-0.186035
1480607537961215,-0.332031,-0.953125,-0.181152
1480607537982271,-0.327148,-0.942871,-0.171387
1480607537998816,-0.319824,-0.944336,-0.175781
1480607538021375,-0.325684,-0.946289,-0.177734
1480607538043936,-0.330078,-0.961914,-0.179199
1480607538058975,-0.335938,-0.962891,-0.18457
1480607538081535,-0.335449,-0.951172,-0.182129
1480607538104597,-0.332031,-0.943359,-0.1875
1480607538119135,-0.320801,-0.929199,-0.19043
1480607538141195,-0.322754,-0.932129,-0.188965
1480607538163754,-0.324219,-0.944824,-0.191895
1480607538178293,-0.331543,-0.951172,-0.196289
1480607538202357,-0.333984,-0.957031,-0.193359
1480607538223914,-0.33252,-0.950684,-0.1875
1480607538238454,-0.32373,-0.948242,-0.194336
1480607538261515,-0.32373,-0.942383,-0.188965
1480607538290090,-0.325195,-0.94873,-0.188477
1480607538298111,-0.335449,-0.958008,-0.177734
1480607538321675,-0.336426,-0.956055,-0.176758
1480607538344736,-0.327637,-0.955566,-0.174805
1480607538358271,-0.326172,-0.953125,-0.181641
1480607538394869,-0.333008,-0.941406,-0.19043
1480607538405398,-0.325684,-0.938477,-0.1875
1480607538426453,-0.330078,-0.95166,-0.189453
1480607538441493,-0.333008,-0.958984,-0.185547
1480607538464053,-0.32959,-0.952637,-0.188477
1480607538478090,-0.327637,-0.939453,-0.187988
1480607538507670,-0.330566,-0.924316,-0.195313
1480607538524215,-0.328125,-0.930176,-0.199707
1480607538544768,-0.32666,-0.949219,-0.20459
1480607538561312,-0.32373,-0.960449,-0.194824
1480607538583872,-0.32959,-0.960938,-0.19043
1480607538604930,-0.333008,-0.955566,-0.182617
1480607538636512,-0.32959,-0.946777,-0.178223
1480607538644032,-0.328125,-0.943359,-0.175781
1480607538674116,-0.327637,-0.946777,-0.175293
1480607538683136,-0.331055,-0.955566,-0.177246
1480607538704693,-0.335449,-0.959961,-0.180664
1480607538725248,-0.337402,-0.957031,-0.181641
1480607538741291,-0.327637,-0.949219,-0.18457
1480607538763850,-0.327148,-0.935547,-0.19043
1480607538784908,-0.327148,-0.92334,-0.192383
1480607538801455,-0.326172,-0.930176,-0.195313
1480607538824011,-0.327637,-0.951172,-0.19043
1480607538845066,-0.333008,-0.958008,-0.196289
1480607538861611,-0.330566,-0.955078,-0.197266
1480607538884171,-0.328125,-0.943359,-0.1875
1480607538906733,-0.327148,-0.935059,-0.191895
1480607538921270,-0.32373,-0.945313,-0.189453
1480607538943830,-0.32959,-0.960449,-0.18457
1480607538966390,-0.333984,-0.965332,-0.178711
1480607538981430,-0.334473,-0.959473,-0.179199
1480607539003991,-0.333008,-0.947754,-0.184082
1480607539026549,-0.323242,-0.938477,-0.184082
1480607539041595,-0.321777,-0.935547,-0.181152
1480607539063648,-0.32959,-0.94873,-0.181152
1480607539094231,-0.332031,-0.954102,-0.19043
1480607539101250,-0.335449,-0.95752,-0.188477
1480607539123809,-0.333496,-0.956055,-0.188965
1480607539146368,-0.322266,-0.933594,-0.181641
1480607539160907,-0.314941,-0.928711,-0.186035
1480607539183968,-0.331055,-0.940918,-0.186523
1480607539214049,-0.337402,-0.964844,-0.194336
1480607539220565,-0.339355,-0.968262,-0.188477
1480607539244128,-0.328613,-0.964355,-0.180176
1480607539275212,-0.333984,-0.946777,-0.193359
1480607539282731,-0.32959,-0.931641,-0.18457
1480607539303787,-0.33252,-0.924316,-0.186523
1480607539326347,-0.379395,-0.934082,-0.204102
1480607539340889,-0.333984,-0.96875,-0.192383
1480607539363947,-0.335938,-0.964844,-0.200195
1480607539386508,-0.354492,-0.945313,-0.203125
1480607539407564,-0.367676,-0.910156,-0.185547
1480607539430123,-0.347656,-0.942383,-0.209961
1480607539447168,-0.371094,-0.996094,-0.225098
1480607539467725,-0.369629,-1.01025,-0.193848
1480607539484274,-0.334473,-1.00098,-0.20166
1480607539506326,-0.293945,-0.968262,-0.194824
1480607539534902,-0.312988,-0.968262,-0.22998
1480607539551447,-0.333496,-0.95166,-0.234863
1480607539566488,-0.298828,-0.927734,-0.206055
1480607539595061,-0.288574,-0.942383,-0.19043
1480607539604086,-0.29541,-0.92041,-0.20459
1480607539626646,-0.300293,-0.956543,-0.21582
1480607539647702,-0.300781,-0.984375,-0.218262
1480607539663244,-0.318848,-0.961914,-0.217285
1480607539687809,-0.307129,-0.916992,-0.227051
1480607539707361,-0.288086,-0.914551,-0.190918
1480607539723905,-0.276855,-0.951172,-0.193359
1480607539746465,-0.273438,-0.977539,-0.190918
1480607539769025,-0.270508,-0.98291,-0.183105
1480607539784067,-0.275879,-0.940918,-0.182129
1480607539812641,-0.300781,-0.918945,-0.179688
1480607539827680,-0.300781,-0.959473,-0.170898
1480607539844225,-0.289063,-0.958008,-0.160156
1480607539882326,-0.286133,-0.953613,-0.164063
1480607539887339,-0.317871,-0.969238,-0.167969
1480607539903884,-0.322266,-0.960938,-0.181641
1480607539926444,-0.353027,-0.899902,-0.192383
1480607539949004,-0.346191,-0.886719,-0.214844
1480607539963041,-0.313965,-0.957031,-0.230469
1480607539987106,-0.279785,-1.08496,-0.188965
1480607540016684,-0.310547,-1.05859,-0.155762
1480607540023201,-0.346191,-0.951172,-0.12207
1480607540046764,-0.299805,-0.878906,-0.158691
1480607540068823,-0.289063,-0.894531,-0.136719
1480607540089879,-0.288574,-0.930664,-0.128418
1480607540106424,-0.272949,-0.916992,-0.144531
1480607540128983,-0.246094,-0.938965,-0.179688
1480607540151544,-0.290527,-0.958008,-0.172852
1480607540166585,-0.240234,-0.980957,-0.173828
1480607540189143,-0.225098,-0.907227,-0.164063
1480607540210198,-0.291016,-0.848145,-0.147461
1480607540226241,-0.321289,-0.888672,-0.152344
1480607540248801,-0.310547,-1.07422,-0.201172
1480607540269857,-0.294922,-1.15869,-0.157715
1480607540293921,-0.25293,-1.04785,-0.137695
1480607540308961,-0.219727,-0.90918,-0.149414
1480607540330017,-0.145996,-0.868164,-0.0991211
1480607540346561,-0.131836,-1.00195,-0.116211
1480607540369121,-0.229492,-1.0708,-0.160645
1480607540390177,-0.272949,-1.02246,-0.154785
1480607540406230,-0.250977,-0.964844,-0.164551
1480607540429782,-0.25,-0.904785,-0.154297
1480607540449837,-0.270508,-0.92041,-0.177734
1480607540466381,-0.238281,-0.924805,-0.183594
1480607540489442,-0.248047,-0.947754,-0.202637
1480607540509996,-0.297852,-0.943848,-0.230469
1480607540526540,-0.360352,-0.930176,-0.241699
1480607540549601,-0.400879,-0.921387,-0.228027
1480607540569664,-0.407227,-0.941895,-0.177246
1480607540586701,-0.38916,-0.996094,-0.142578
1480607540609260,-0.348145,-1.00635,-0.133789
1480607540629815,-0.319336,-1.01074,-0.115723
1480607540646860,-0.286133,-1,-0.111816
1480607540676439,-0.267578,-0.981445,-0.121582
1480607540689974,-0.269531,-0.96875,-0.124512
1480607540712535,-0.271973,-0.961426,-0.106934
1480607540729079,-0.281738,-0.98877,-0.114746
1480607540750637,-0.300781,-1.01221,-0.116699
1480607540766681,-0.34082,-1.00439,-0.136719
1480607540789239,-0.348145,-0.961426,-0.159668
1480607540809793,-0.337402,-0.957031,-0.175293
1480607540826337,-0.324707,-0.958008,-0.181152
1480607540848898,-0.322754,-0.961914,-0.187012
1480607540878977,-0.304688,-0.933594,-0.197266
1480607540894018,-0.289063,-0.938477,-0.198242
1480607540909057,-0.28125,-0.945801,-0.197754
1480607540931618,-0.253906,-0.946777,-0.209473
1480607540946658,-0.263672,-0.92334,-0.217285
1480607540969218,-0.289063,-0.938965,-0.218262
1480607540991276,-0.287109,-0.957031,-0.226563
1480607541005816,-0.286621,-0.964355,-0.214355
1480607541028877,-0.312012,-0.973633,-0.20459
1480607541051938,-0.335938,-0.984375,-0.195313
1480607541066478,-0.337402,-0.986816,-0.181641
1480607541089036,-0.330078,-0.961914,-0.181152
1480607541111597,-0.338379,-0.928711,-0.159668
1480607541125634,-0.332031,-0.939453,-0.155762
1480607541148695,-0.322754,-0.964355,-0.147949
1480607541171257,-0.327637,-0.992676,-0.163574
1480607541185794,-0.330078,-0.979004,-0.155273
1480607541208855,-0.314453,-0.955078,-0.163574
1480607541231916,-0.303223,-0.936523,-0.177734
1480607541245954,-0.285156,-0.944824,-0.174805
1480607541269016,-0.297363,-0.958984,-0.164063
1480607541291576,-0.31543,-0.965332,-0.167969
1480607541305614,-0.322754,-0.955566,-0.17334
1480607541329175,-0.317383,-0.947266,-0.171875
1480607541360257,-0.313965,-0.938477,-0.174316
1480607541372793,-0.328125,-0.935547,-0.188965
1480607541389337,-0.308105,-0.94873,-0.180176
1480607541411394,-0.292969,-0.967285,-0.178223
1480607541433957,-0.291992,-0.967285,-0.18457
1480607541448994,-0.297852,-0.958008,-0.181641
1480607541479074,-0.305664,-0.960449,-0.187988
1480607541492611,-0.313477,-0.964844,-0.19043
1480607541509154,-0.296387,-0.968262,-0.193359
1480607541532216,-0.297852,-0.982422,-0.185059
1480607541552269,-0.321777,-0.973633,-0.178223
1480607541568813,-0.320801,-0.976563,-0.173828
1480607541591373,-0.325684,-0.967285,-0.160156
1480607541612429,-0.331543,-0.958008,-0.155762
1480607541628972,-0.317383,-0.957031,-0.155762
1480607541651533,-0.315918,-0.932129,-0.156738
1480607541680109,-0.304199,-0.92627,-0.153809
1480607541689133,-0.305176,-0.950684,-0.168945
1480607541717711,-0.29834,-0.969727,-0.180664
1480607541732750,-0.314453,-0.962402,-0.195801
1480607541771854,-0.320801,-0.94043,-0.195801
1480607541774360,-0.303223,-0.930176,-0.193848
1480607541792408,-0.29541,-0.939453,-0.193359
1480607541816473,-0.293945,-0.966309,-0.191406
1480607541831512,-0.287109,-0.975586,-0.178223
1480607541860087,-0.304199,-0.960449,-0.167969
1480607541869111,-0.321289,-0.934082,-0.175781
1480607541897688,-0.332031,-0.941895,-0.175781
1480607541914232,-0.327637,-0.951172,-0.162109
1480607541928770,-0.310059,-0.967773,-0.157715
1480607541952334,-0.306641,-0.963867,-0.164551
1480607541974392,-0.306641,-0.96875,-0.17334
1480607541988430,-0.309082,-0.958984,-0.177246
1480607542011491,-0.293457,-0.950195,-0.174805
1480607542034052,-0.308105,-0.945801,-0.175781
1480607542048088,-0.328125,-0.940918,-0.183105
1480607542071652,-0.331055,-0.953613,-0.181641
1480607542094211,-0.310547,-0.96875,-0.185547
1480607542108249,-0.308105,-0.975586,-0.180176
1480607542131310,-0.312012,-0.961426,-0.195313
1480607542153872,-0.314941,-0.949707,-0.183594
1480607542168408,-0.312988,-0.940918,-0.186523
1480607542191469,-0.311523,-0.954102,-0.177246
1480607542214029,-0.308105,-0.975098,-0.165039
1480607542228067,-0.3125,-0.973633,-0.17041
1480607542251629,-0.312988,-0.946289,-0.169434
1480607542273689,-0.304688,-0.935059,-0.177734
1480607542288227,-0.307129,-0.939941,-0.185059
1480607542311288,-0.311523,-0.963379,-0.197266
1480607542333850,-0.324707,-0.976074,-0.195313
1480607542354904,-0.323242,-0.955566,-0.20166
1480607542371450,-0.313477,-0.946289,-0.188477
1480607542394008,-0.327637,-0.944336,-0.194336
1480607542415065,-0.322754,-0.937988,-0.18457
1480607542432111,-0.300781,-0.947266,-0.177734
1480607542453667,-0.300293,-0.962891,-0.172363
1480607542475224,-0.312012,-0.969238,-0.167969
1480607542498787,-0.321289,-0.969727,-0.182617
1480607542514328,-0.314941,-0.949219,-0.17627
1480607542534883,-0.317871,-0.942871,-0.176758
1480607542558946,-0.330078,-0.945801,-0.191895
1480607542573987,-0.323242,-0.94043,-0.192383
1480607542603065,-0.30127,-0.953125,-0.195313
1480607542611587,-0.305176,-0.967773,-0.200684
1480607542634149,-0.308105,-0.96875,-0.196289
1480607542655202,-0.314453,-0.948242,-0.195313
1480607542671748,-0.307129,-0.929199,-0.188965
1480607542693806,-0.322266,-0.945801,-0.179199
1480607542714862,-0.328613,-0.953613,-0.186523
1480607542744941,-0.316895,-0.966797,-0.177246
1480607542754969,-0.312012,-0.976074,-0.179688
1480607542776526,-0.308105,-0.966309,-0.180664
1480607542791567,-0.302734,-0.935059,-0.178223
1480607542813624,-0.304199,-0.922363,-0.1875
1480607542836687,-0.315918,-0.920898,-0.199707
1480607542851225,-0.312988,-0.95166,-0.209473
1480607542881304,-0.322754,-0.985352,-0.208496
1480607542896845,-0.330566,-0.977051,-0.212402
1480607542924920,-0.344727,-0.948242,-0.204102
1480607542933946,-0.32373,-0.93457,-0.1875
1480607542956504,-0.306641,-0.932617,-0.188477
1480607542970542,-0.311035,-0.953125,-0.187012
1480607542994104,-0.314941,-0.959473,-0.183105
1480607543016666,-0.30957,-0.955566,-0.177246
1480607543030701,-0.302734,-0.955566,-0.186523
1480607543068804,-0.311035,-0.95459,-0.186035
1480607543076324,-0.31543,-0.94873,-0.19873
1480607543090861,-0.329102,-0.938965,-0.203613
1480607543113924,-0.330566,-0.947754,-0.202148
1480607543136484,-0.317383,-0.953613,-0.203125
1480607543159043,-0.309082,-0.960449,-0.214355
1480607543174084,-0.309082,-0.946289,-0.211426
1480607543196643,-0.310059,-0.935547,-0.212402
1480607543217699,-0.314941,-0.933594,-0.207031
1480607543234745,-0.320313,-0.95166,-0.206543
1480607543263823,-0.322754,-0.963379,-0.192871
1480607543277358,-0.31543,-0.966309,-0.185059
1480607543293902,-0.317871,-0.955078,-0.189941
1480607543316462,-0.326172,-0.936035,-0.197266
1480607543345038,-0.318848,-0.930176,-0.200684
1480607543354068,-0.312012,-0.946289,-0.199219
1480607543376622,-0.316406,-0.963379,-0.203613
1480607543397679,-0.320313,-0.960938,-0.206055
1480607543421743,-0.32666,-0.952148,-0.202637
1480607543436282,-0.332031,-0.929199,-0.208008
1480607543457337,-0.305664,-0.926758,-0.20752
1480607543487417,-0.303711,-0.945313,-0.210449
1480607543496943,-0.305176,-0.958008,-0.208008
1480607543534543,-0.313477,-0.964355,-0.19873
1480607543537049,-0.318359,-0.95752,-0.20459
1480607543562617,-0.320313,-0.947266,-0.20166
1480607543578660,-0.322266,-0.944824,-0.199219
1480607543593700,-0.313965,-0.943359,-0.20166
1480607543623780,-0.310547,-0.94873,-0.197754
1480607543637316,-0.319824,-0.955078,-0.201172
1480607543653864,-0.331055,-0.957031,-0.203613
1480607543676420,-0.328125,-0.946289,-0.19873
1480607543698980,-0.319824,-0.938965,-0.199219
1480607543721540,-0.311035,-0.935059,-0.200684
1480607543736581,-0.302734,-0.943359,-0.206055
1480607543766662,-0.310059,-0.958984,-0.209473
1480607543773177,-0.312012,-0.958984,-0.211426
1480607543802255,-0.325195,-0.960938,-0.211426
1480607543820302,-0.337891,-0.941406,-0.206055
1480607543834340,-0.319824,-0.933105,-0.208984
1480607543856900,-0.30127,-0.943848,-0.194336
1480607543878959,-0.306152,-0.956543,-0.199707
1480607543901519,-0.3125,-0.954102,-0.20459
1480607543916559,-0.324707,-0.947754,-0.196777
1480607543939119,-0.333008,-0.94043,-0.200195
1480607543953157,-0.325195,-0.938965,-0.208008
1480607543976217,-0.305176,-0.946289,-0.205078
1480607543999781,-0.30957,-0.950684,-0.207031
1480607544013316,-0.309082,-0.955078,-0.211426
1480607544043897,-0.318359,-0.946777,-0.204102
1480607544058937,-0.328613,-0.953613,-0.206055
1480607544073476,-0.325684,-0.953613,-0.20166
1480607544096537,-0.318359,-0.944336,-0.205078
1480607544119097,-0.314453,-0.933105,-0.198242
1480607544140155,-0.329102,-0.939941,-0.196289
1480607544170234,-0.34375,-0.948242,-0.209961
1480607544178756,-0.325195,-0.955566,-0.20459
1480607544193295,-0.310059,-0.956543,-0.206055
1480607544216357,-0.299805,-0.948242,-0.208496
1480607544238917,-0.314453,-0.94043,-0.211914
1480607544259973,-0.312012,-0.928223,-0.211914
1480607544276517,-0.311035,-0.943848,-0.216309
1480607544299077,-0.328125,-0.962402,-0.207031
1480607544320137,-0.319824,-0.963867,-0.203125
1480607544343695,-0.326172,-0.949219,-0.194824
1480607544365253,-0.326172,-0.931152,-0.201172
1480607544380292,-0.317383,-0.925293,-0.202148
1480607544403864,-0.304199,-0.954102,-0.199219
1480607544418895,-0.30957,-0.973633,-0.201172
1480607544439951,-0.319336,-0.969727,-0.201172
1480607544456495,-0.325195,-0.949707,-0.20752
1480607544485072,-0.32959,-0.934082,-0.200684
1480607544501615,-0.320801,-0.91748,-0.213867
1480607544516655,-0.309082,-0.937988,-0.214844
1480607544546234,-0.311035,-0.95459,-0.220215
1480607544559770,-0.310059,-0.959473,-0.211426
1480607544576314,-0.31543,-0.951172,-0.208984
1480607544598874,-0.317383,-0.932129,-0.212891
1480607544620431,-0.3125,-0.935059,-0.205566
1480607544636474,-0.319336,-0.943848,-0.201172
1480607544659034,-0.32959,-0.95752,-0.194824
1480607544689615,-0.332031,-0.943848,-0.206055
1480607544696634,-0.30957,-0.956055,-0.200195
1480607544719194,-0.313477,-0.966797,-0.201172
1480607544741253,-0.307129,-0.955566,-0.201172
1480607544756292,-0.306152,-0.937012,-0.206055
1480607544778853,-0.328613,-0.93457,-0.204102
1480607544801413,-0.333496,-0.943359,-0.208008
1480607544823973,-0.319336,-0.961426,-0.20459
1480607544839013,-0.313965,-0.962891,-0.202148
1480607544877615,-0.306641,-0.943359,-0.202637
1480607544882629,-0.303711,-0.92627,-0.213379
1480607544912207,-0.318359,-0.920898,-0.213379
1480607544921733,-0.326172,-0.944336,-0.219238
1480607544935771,-0.33252,-0.955566,-0.213379
1480607544958831,-0.324707,-0.955078,-0.210938
1480607544981391,-0.311035,-0.958496,-0.207031
1480607544995930,-0.302734,-0.958496,-0.202148
1480607545018993,-0.320801,-0.936035,-0.203125
1480607545041551,-0.322266,-0.938965,-0.200195
1480607545055589,-0.327148,-0.95166,-0.200195
1480607545078651,-0.331543,-0.960938,-0.195801
1480607545108731,-0.320801,-0.965332,-0.190918
1480607545115752,-0.313965,-0.956543,-0.191895
1480607545152851,-0.311523,-0.938965,-0.199219
1480607545161370,-0.314941,-0.930176,-0.211914
1480607545189946,-0.3125,-0.935547,-0.213379
1480607545198971,-0.319824,-0.944336,-0.21875
1480607545221531,-0.32666,-0.958984,-0.211914
1480607545242586,-0.327637,-0.944336,-0.215332
1480607545259130,-0.308105,-0.932129,-0.21582
1480607545281691,-0.305176,-0.938965,-0.213867
1480607545302748,-0.31543,-0.948242,-0.208008
1480607545318789,-0.315918,-0.955566,-0.198242
1480607545341350,-0.320313,-0.958984,-0.191406
1480607545362405,-0.324707,-0.958984,-0.192871
1480607545379450,-0.320801,-0.956055,-0.188477
1480607545401510,-0.314453,-0.945313,-0.202637
1480607545422565,-0.311523,-0.940918,-0.206055
1480607545439611,-0.318359,-0.943848,-0.20752
1480607545461672,-0.328613,-0.946289,-0.213379
1480607545482726,-0.323242,-0.95752,-0.213379
1480607545506289,-0.311035,-0.949707,-0.21875
1480607545521331,-0.313965,-0.932617,-0.215332
1480607545542385,-0.312012,-0.926758,-0.210449
1480607545549403,-0.315918,-0.937988,-0.206543
1480607545564442,-0.312012,-0.952148,-0.205078
1480607545587004,-0.320801,-0.966797,-0.203125
1480607545609563,-0.321289,-0.956055,-0.201172
1480607545624102,-0.31543,-0.950684,-0.202148
1480607545657190,-0.30957,-0.947754,-0.201172
1480607545669222,-0.30957,-0.941895,-0.201172
1480607545684262,-0.312988,-0.950195,-0.207031
1480607545706822,-0.320801,-0.95752,-0.208496
1480607545730886,-0.33252,-0.958008,-0.206055
1480607545744421,-0.318848,-0.957031,-0.207031
1480607545766982,-0.313965,-0.936523,-0.202637
1480607545789541,-0.308594,-0.937988,-0.206543
1480607545804080,-0.313965,-0.934082,-0.209961
1480607545834161,-0.314941,-0.943359,-0.208984
1480607545849200,-0.323242,-0.952148,-0.215332
1480607545871760,-0.312988,-0.95459,-0.211426
1480607545888304,-0.309082,-0.961426,-0.208008
1480607545909360,-0.306641,-0.950684,-0.203613
1480607545940443,-0.31543,-0.941406,-0.199219
1480607545946961,-0.322266,-0.939941,-0.196777
1480607545977541,-0.325684,-0.942871,-0.197754
1480607545985564,-0.325684,-0.96582,-0.194336
1480607546006619,-0.316895,-0.963379,-0.197754
1480607546029179,-0.311523,-0.943848,-0.203613
1480607546045723,-0.308594,-0.936523,-0.211914
1480607546066781,-0.307617,-0.9375,-0.210938
1480607546089339,-0.312988,-0.947754,-0.20166
1480607546105883,-0.312012,-0.953125,-0.203613
1480607546126939,-0.313477,-0.956543,-0.202637
1480607546149500,-0.311523,-0.956055,-0.197754
1480607546165543,-0.316895,-0.943359,-0.20166
1480607546186598,-0.315918,-0.933594,-0.211914
1480607546209158,-0.314453,-0.94043,-0.197266
1480607546225701,-0.316406,-0.95752,-0.193359
1480607546254277,-0.321289,-0.961426,-0.194824
1480607546269318,-0.319824,-0.955566,-0.196289
1480607546285862,-0.320801,-0.945313,-0.20459
1480607546306918,-0.313965,-0.9375,-0.208984
1480607546329477,-0.318848,-0.937012,-0.20459
1480607546346022,-0.310547,-0.938965,-0.209961
1480607546367078,-0.311035,-0.961426,-0.209961
1480607546396657,-0.313477,-0.961914,-0.200195
1480607546407185,-0.316895,-0.952148,-0.208008
1480607546428242,-0.311523,-0.94043,-0.205078
1480607546449297,-0.310059,-0.936523,-0.205078
1480607546474865,-0.313965,-0.946777,-0.203125
1480607546486897,-0.317383,-0.958984,-0.210449
1480607546510459,-0.32373,-0.96875,-0.197754
1480607546532017,-0.327148,-0.956543,-0.206055
1480607546547057,-0.312988,-0.94043,-0.203125
1480607546569115,-0.30127,-0.932617,-0.207031
1480607546591677,-0.313477,-0.930664,-0.203613
1480607546606716,-0.315918,-0.936523,-0.214844
1480607546629275,-0.320313,-0.964844,-0.205566
1480607546651837,-0.340332,-0.97168,-0.202637
1480607546666882,-0.338379,-0.937012,-0.212402
1480607546689435,-0.331543,-0.925293,-0.208984
1480607546711996,-0.300781,-0.9375,-0.213867
1480607546727035,-0.30127,-0.950684,-0.215332
1480607546750097,-0.302246,-0.954102,-0.211426
1480607546771666,-0.3125,-0.953613,-0.20752
1480607546786695,-0.324219,-0.947754,-0.205566
1480607546812764,-0.327148,-0.942871,-0.202637
1480607546831815,-0.3125,-0.938965,-0.20166
1480607546846855,-0.317383,-0.9375,-0.206055
1480607546869415,-0.310059,-0.949707,-0.208984
1480607546891974,-0.314941,-0.956055,-0.208008
1480607546907015,-0.315918,-0.949219,-0.211914
1480607546929574,-0.322754,-0.941406,-0.212891
1480607546951633,-0.328613,-0.933594,-0.20752
1480607546968178,-0.316406,-0.93457,-0.214844
1480607546989233,-0.312012,-0.944824,-0.212891
1480607547011793,-0.312012,-0.956055,-0.206543
1480607547028337,-0.318848,-0.959473,-0.211914
1480607547049397,-0.326172,-0.950195,-0.208008
1480607547071954,-0.315918,-0.939941,-0.208008
1480607547086994,-0.316895,-0.937012,-0.209961
1480607547109051,-0.315918,-0.947266,-0.21582
1480607547133119,-0.329102,-0.947754,-0.208496
1480607547146653,-0.318848,-0.95459,-0.212402
1480607547169216,-0.315918,-0.958496,-0.204102
1480607547191771,-0.319336,-0.95752,-0.205566
1480607547208316,-0.316406,-0.943848,-0.205078
1480607547232380,-0.312988,-0.932617,-0.207031
1480607547251932,-0.306641,-0.942871,-0.202637
1480607547269981,-0.312988,-0.956055,-0.212891
1480607547289031,-0.320313,-0.961914,-0.205566
1480607547311591,-0.333008,-0.950195,-0.213867
1480607547328135,-0.318848,-0.933594,-0.216309
1480607547349195,-0.307129,-0.937988,-0.210938
1480607547371751,-0.303223,-0.944824,-0.210449
1480607547388295,-0.310547,-0.949707,-0.210938
1480607547409350,-0.318359,-0.946777,-0.205566
1480607547431911,-0.323242,-0.955566,-0.210938
1480607547448455,-0.320313,-0.95459,-0.208008
1480607547469511,-0.327637,-0.941895,-0.207031
1480607547516140,-0.313477,-0.927734,-0.209473
1480607547519154,-0.30957,-0.939941,-0.205078
1480607547529169,-0.322754,-0.960938,-0.208496
1480607547551731,-0.318359,-0.956055,-0.212402
1480607547569779,-0.316895,-0.956543,-0.211426
1480607547596849,-0.320801,-0.943848,-0.204102
1480607547611889,-0.320801,-0.942383,-0.203125
1480607547629938,-0.314453,-0.935547,-0.204102
1480607547649490,-0.310547,-0.941895,-0.203125
1480607547673618,-0.314453,-0.960449,-0.206543
1480607547697116,-0.314453,-0.95752,-0.208008
1480607547709148,-0.317383,-0.945801,-0.213867
1480607547749257,-0.307617,-0.926758,-0.215332
1480607547751762,-0.313965,-0.93457,-0.211914
1480607547772317,-0.311035,-0.9375,-0.217773
1480607547793372,-0.314453,-0.959473,-0.216309
1480607547817437,-0.315918,-0.961426,-0.20459
1480607547832479,-0.318359,-0.953125,-0.210449
1480607547852029,-0.3125,-0.943848,-0.20752
1480607547877095,-0.314941,-0.944336,-0.200684
1480607547889127,-0.330566,-0.938477,-0.207031
1480607547911687,-0.324707,-0.942383,-0.206055
1480607547929735,-0.311523,-0.959961,-0.203125
1480607547949291,-0.310547,-0.967285,-0.203125
1480607547971847,-0.314453,-0.955078,-0.200195
1480607547994407,-0.314453,-0.933594,-0.204102
1480607548016967,-0.315918,-0.925293,-0.205566
1480607548032008,-0.317383,-0.943848,-0.203613
1480607548063091,-0.322266,-0.962402,-0.212891
1480607548069107,-0.322754,-0.956055,-0.20459
1480607548093169,-0.314941,-0.952637,-0.206055
1480607548114225,-0.30957,-0.941895,-0.199707
1480607548136787,-0.308105,-0.934082,-0.20752
1480607548151826,-0.308594,-0.938965,-0.214844
1480607548174385,-0.311035,-0.949219,-0.210938
1480607548190930,-0.323242,-0.961914,-0.213379
1480607548211986,-0.325684,-0.954102,-0.211914
1480607548242568,-0.323242,-0.942871,-0.200684
1480607548250589,-0.311035,-0.933594,-0.20752
1480607548271645,-0.300293,-0.943359,-0.210449
1480607548305235,-0.308594,-0.952148,-0.206543
1480607548310749,-0.319824,-0.956543,-0.208496
1480607548331806,-0.322266,-0.948242,-0.210449
1480607548354366,-0.322266,-0.949219,-0.209473
1480607548370910,-0.310547,-0.950195,-0.206055
1480607548391965,-0.310059,-0.945801,-0.212402
1480607548414524,-0.319336,-0.939453,-0.207031
1480607548438088,-0.329102,-0.935547,-0.200684
1480607548451624,-0.322266,-0.958008,-0.202637
1480607548474184,-0.30957,-0.963379,-0.197754
1480607548492231,-0.305664,-0.95752,-0.202637
1480607548513288,-0.311035,-0.934082,-0.206543
1480607548534344,-0.30957,-0.931641,-0.216797
1480607548552392,-0.3125,-0.942383,-0.215332
1480607548571944,-0.310547,-0.956543,-0.216797
1480607548594503,-0.320313,-0.958008,-0.21582
1480607548613053,-0.324219,-0.93457,-0.205566
1480607548631602,-0.311035,-0.939941,-0.205566
1480607548654162,-0.31543,-0.953613,-0.214355
1480607548672211,-0.328125,-0.945801,-0.20459
1480607548691762,-0.327637,-0.94043,-0.212891
1480607548714322,-0.325195,-0.95459,-0.209961
1480607548732374,-0.313965,-0.966309,-0.208008
1480607548751923,-0.3125,-0.953125,-0.205078
1480607548774501,-0.318848,-0.928711,-0.210449
1480607548792029,-0.314453,-0.920898,-0.208984
1480607548811581,-0.299316,-0.945801,-0.214844
1480607548834141,-0.314453,-0.959961,-0.205078
1480607548852190,-0.316895,-0.961914,-0.209473
1480607548871742,-0.328613,-0.949707,-0.212891
1480607548894301,-0.317383,-0.936035,-0.204102
1480607548912349,-0.316895,-0.928223,-0.208984
1480607548931902,-0.30957,-0.941406,-0.207031
1480607548954462,-0.306152,-0.961426,-0.213379
1480607548972008,-0.317871,-0.967773,-0.211426
1480607548991559,-0.322754,-0.949707,-0.211914
1480607549014119,-0.318359,-0.939453,-0.217773
1480607549032170,-0.3125,-0.943848,-0.203613
1480607549051721,-0.318848,-0.937012,-0.204102
1480607549074280,-0.320801,-0.9375,-0.210938
1480607549092328,-0.312988,-0.95752,-0.215332
1480607549113384,-0.306152,-0.978027,-0.214355
1480607549134440,-0.326172,-0.959961,-0.205566
1480607549158002,-0.325195,-0.937012,-0.20166
1480607549173043,-0.316406,-0.924805,-0.208984
1480607549201619,-0.316895,-0.937988,-0.20459
1480607549216660,-0.315918,-0.94873,-0.195313
1480607549233204,-0.319336,-0.966797,-0.192871
1480607549254258,-0.320801,-0.956055,-0.20166
1480607549272307,-0.300293,-0.951172,-0.194824
1480607549293362,-0.281738,-0.942383,-0.197266
1480607549314418,-0.313965,-0.933105,-0.202637
1480607549331966,-0.324707,-0.942383,-0.206055
1480607549353022,-0.353516,-0.936523,-0.217285
1480607549374078,-0.333496,-0.947754,-0.207031
1480607549392126,-0.308105,-0.961914,-0.202148
1480607549414687,-0.310059,-0.946777,-0.206055
1480607549434238,-0.314941,-0.940918,-0.196777
1480607549452287,-0.299316,-0.922363,-0.197754
1480607549474846,-0.312012,-0.925293,-0.194336
1480607549498409,-0.342285,-0.956543,-0.197754
1480607549516958,-0.336914,-0.964355,-0.206543
1480607549534505,-0.324219,-0.96875,-0.202637
1480607549554057,-0.314453,-0.95459,-0.195313
1480607549584139,-0.322754,-0.927734,-0.212891
1480607549595166,-0.331055,-0.927246,-0.204102
1480607549614216,-0.318848,-0.944824,-0.205078
1480607549636778,-0.314941,-0.954102,-0.202637
1480607549654824,-0.317871,-0.953125,-0.202148
1480607549681898,-0.31543,-0.950195,-0.214844
1480607549696936,-0.317383,-0.944336,-0.212891
1480607549714985,-0.311035,-0.939453,-0.209473
1480607549741555,-0.305176,-0.94043,-0.200684
1480607549758100,-0.305664,-0.942871,-0.193359
1480607549774643,-0.309082,-0.956543,-0.194824
1480607549801715,-0.345703,-0.960938,-0.1875
1480607549816756,-0.375488,-0.939453,-0.204102
1480607549834804,-0.354492,-0.910645,-0.200684
1480607549854355,-0.307129,-0.933594,-0.192871
1480607549876915,-0.298828,-0.963379,-0.185059
1480607549894462,-0.321777,-0.97168,-0.200195
1480607549914516,-0.325195,-0.959473,-0.192871
1480607549936574,-0.3125,-0.935547,-0.20459
1480607549954622,-0.316406,-0.927734,-0.197754
1480607549974174,-0.336426,-0.94043,-0.19873
1480607550004254,-0.347168,-0.950195,-0.199219
1480607550014782,-0.333496,-0.953125,-0.20166
1480607550037343,-0.306641,-0.964844,-0.197266
1480607550056894,-0.318848,-0.959473,-0.191406
1480607550082964,-0.32666,-0.936035,-0.195313
1480607550095497,-0.327148,-0.922363,-0.186523
1480607550117054,-0.32373,-0.931152,-0.199707
1480607550134602,-0.307617,-0.954102,-0.196289
1480607550157161,-0.32959,-0.979004,-0.203125
1480607550176713,-0.354492,-0.950684,-0.216797
1480607550199273,-0.331055,-0.949219,-0.210938
1480607550215817,-0.316406,-0.938477,-0.209473
1480607550238377,-0.336914,-0.942383,-0.204102
1480607550254921,-0.320801,-0.913086,-0.191406
1480607550275977,-0.305176,-0.922852,-0.183105
1480607550297033,-0.309082,-0.970215,-0.215332
1480607550315082,-0.335938,-0.969727,-0.212891
1480607550335636,-0.375,-0.937988,-0.224609
1480607550359700,-0.338379,-0.936523,-0.213867
1480607550374740,-0.311523,-0.94873,-0.211914
1480607550397300,-0.320801,-0.958008,-0.214844
1480607550419860,-0.318848,-0.955566,-0.209473
1480607550434900,-0.324219,-0.947754,-0.205566
1480607550456959,-0.34375,-0.913574,-0.210449
1480607550477011,-0.322754,-0.919922,-0.19873
1480607550494558,-0.310059,-0.94043,-0.202637
1480607550517118,-0.314941,-0.941895,-0.202637
1480607550536670,-0.3125,-0.958984,-0.20459
1480607550554718,-0.324707,-0.960449,-0.204102
1480607550577279,-0.32373,-0.941406,-0.202637
1480607550596830,-0.338379,-0.941406,-0.196777
1480607550614879,-0.344238,-0.926758,-0.207031
1480607550637439,-0.327148,-0.931152,-0.200195
1480607550656489,-0.307617,-0.945801,-0.208984
1480607550675039,-0.317383,-0.969727,-0.20459
1480607550697097,-0.326172,-0.974609,-0.210938
1480607550733695,-0.310547,-0.945313,-0.203125
1480607550736201,-0.307129,-0.928711,-0.202637
1480607550757258,-0.328125,-0.925293,-0.209961
1480607550776809,-0.33252,-0.933105,-0.208496
1480607550794857,-0.341309,-0.95752,-0.208008
1480607550817417,-0.323242,-0.974121,-0.19873
1480607550836970,-0.300781,-0.964844,-0.194824
1480607550854516,-0.307617,-0.952637,-0.200195
1480607550877076,-0.317383,-0.932617,-0.206543
1480607550896628,-0.329102,-0.924316,-0.210449
1480607550915179,-0.328613,-0.9375,-0.207031
1480607550937236,-0.330566,-0.96582,-0.20166
1480607550958292,-0.320313,-0.969238,-0.208984
1480607550979349,-0.307617,-0.960938,-0.216309
1480607551003412,-0.312012,-0.934082,-0.216309
1480607551018453,-0.317871,-0.926758,-0.214355
1480607551039508,-0.328613,-0.924316,-0.202637
1480607551057055,-0.33252,-0.942871,-0.203613
1480607551078110,-0.333496,-0.959961,-0.198242
1480607551099169,-0.297852,-0.968262,-0.197266
1480607551117216,-0.29541,-0.959961,-0.203125
1480607551144287,-0.322266,-0.926758,-0.213867
1480607551159327,-0.331055,-0.924316,-0.21582
1480607551177375,-0.331543,-0.948242,-0.211426
1480607551198432,-0.321289,-0.958496,-0.208008
1480607551219492,-0.307129,-0.963867,-0.196777
1480607551237035,-0.291504,-0.957031,-0.202148
1480607551258090,-0.314941,-0.936523,-0.20752
1480607551279146,-0.341309,-0.92627,-0.206055
1480607551297194,-0.336914,-0.930176,-0.218262
1480607551319755,-0.312012,-0.95459,-0.211426
1480607551339306,-0.307617,-0.977051,-0.20459
1480607551357354,-0.308594,-0.96582,-0.207031
1480607551392948,-0.319824,-0.930176,-0.208984
1480607551399466,-0.314941,-0.92041,-0.221191
1480607551424533,-0.311035,-0.935547,-0.213379
1480607551440576,-0.323242,-0.955078,-0.205566
1480607551459124,-0.322754,-0.957031,-0.20459
1480607551477177,-0.321289,-0.95752,-0.206055
1480607551499733,-0.326172,-0.944336,-0.203613
1480607551519285,-0.318359,-0.939941,-0.204102
1480607551537334,-0.311523,-0.938477,-0.210449
1480607551559893,-0.308594,-0.942871,-0.206055
1480607551579445,-0.318848,-0.955566,-0.209961
1480607551596992,-0.326172,-0.958008,-0.20752
1480607551619552,-0.322754,-0.956543,-0.203613
1480607551640609,-0.324219,-0.946289,-0.208984
1480607551657152,-0.321777,-0.932617,-0.212891
1480607551679712,-0.313477,-0.937988,-0.208496
1480607551700768,-0.299805,-0.956055,-0.210938
1480607551725333,-0.3125,-0.95752,-0.212891
1480607551745887,-0.319824,-0.94873,-0.208984
1480607551759423,-0.316406,-0.93457,-0.20752
1480607551776970,-0.319824,-0.939453,-0.21582
1480607551799531,-0.328125,-0.936523,-0.216309
1480607551819104,-0.319336,-0.944336,-0.211914
1480607551837131,-0.3125,-0.961914,-0.203125
1480607551859690,-0.315918,-0.966309,-0.203613
1480607551879242,-0.319824,-0.949219,-0.209473
1480607551897290,-0.321289,-0.933594,-0.210938
1480607551919854,-0.320801,-0.932129,-0.210938
1480607551940907,-0.320313,-0.944336,-0.210938
1480607551956950,-0.321777,-0.946777,-0.217285
1480607551979510,-0.313477,-0.95166,-0.212402
1480607552000566,-0.318848,-0.95752,-0.214844
1480607552023125,-0.313965,-0.949707,-0.211426
1480607552047189,-0.319824,-0.937012,-0.214844
1480607552060725,-0.312988,-0.934082,-0.208008
1480607552077269,-0.311035,-0.942383,-0.203613
1480607552100332,-0.321777,-0.955078,-0.208008
1480607552120886,-0.32666,-0.958984,-0.205078
1480607552137430,-0.314453,-0.94873,-0.206055
1480607552164501,-0.322754,-0.933594,-0.213379
1480607552180544,-0.325684,-0.933105,-0.220703
1480607552197087,-0.317383,-0.942383,-0.217773
1480607552219649,-0.317383,-0.95752,-0.212891
1480607552240704,-0.31543,-0.953125,-0.208984
1480607552262261,-0.316406,-0.954102,-0.211426
1480607552279808,-0.318359,-0.938477,-0.208496
1480607552315404,-0.313477,-0.936523,-0.212891
1480607552323424,-0.318848,-0.939453,-0.212891
1480607552339469,-0.321289,-0.944336,-0.216309
1480607552368044,-0.322754,-0.954102,-0.214844
1480607552381579,-0.315918,-0.958984,-0.210449
1480607552414667,-0.320801,-0.949707,-0.210449
1480607552422187,-0.320801,-0.939453,-0.218262
1480607552441739,-0.319824,-0.919434,-0.21582
1480607552459787,-0.314941,-0.934082,-0.209473
1480607552481345,-0.311035,-0.944336,-0.208008
1480607552503906,-0.331543,-0.959473,-0.211426
1480607552518946,-0.321289,-0.965332,-0.203613
1480607552541505,-0.325195,-0.943848,-0.211426
1480607552562560,-0.32373,-0.932617,-0.20752
1480607552580106,-0.313965,-0.925781,-0.205566
1480607552601165,-0.310547,-0.941406,-0.205078
1480607552622219,-0.320313,-0.962891,-0.212891
1480607552638763,-0.317871,-0.961426,-0.217285
1480607552661323,-0.322266,-0.95166,-0.210449
1480607552682400,-0.318359,-0.9375,-0.21582
1480607552698925,-0.313477,-0.929199,-0.209473
1480607552721483,-0.3125,-0.934082,-0.210938
1480607552742538,-0.317871,-0.950684,-0.209961
1480607552759083,-0.323242,-0.964355,-0.210938
1480607552781645,-0.319824,-0.953613,-0.212402
1480607552802198,-0.321777,-0.945313,-0.212891
1480607552818744,-0.331055,-0.929199,-0.216309
1480607552841302,-0.31543,-0.932617,-0.215332
1480607552862859,-0.306152,-0.945801,-0.203613
1480607552878902,-0.319824,-0.956543,-0.206543
1480607552901462,-0.321289,-0.9375,-0.222168
1480607552923019,-0.3125,-0.925293,-0.203613
1480607552945077,-0.321777,-0.939453,-0.211914
1480607552961120,-0.331543,-0.960938,-0.205566
1480607552982678,-0.33252,-0.952637,-0.206055
1480607552998724,-0.321777,-0.944336,-0.205078
1480607553021782,-0.328125,-0.947754,-0.212891
1480607553042336,-0.329102,-0.956055,-0.217773
1480607553058880,-0.311523,-0.953125,-0.219727
1480607553081441,-0.318848,-0.936523,-0.21582
1480607553102497,-0.319824,-0.918457,-0.216309
1480607553119042,-0.326172,-0.926758,-0.218262
1480607553141601,-0.318848,-0.953613,-0.213867
1480607553162658,-0.321289,-0.960449,-0.216309
1480607553178699,-0.314453,-0.954102,-0.211914
1480607553201763,-0.31543,-0.936035,-0.212891
1480607553223819,-0.317871,-0.933105,-0.214844
1480607553238860,-0.320801,-0.936035,-0.206055
1480607553261419,-0.33252,-0.959961,-0.206055
1480607553283980,-0.32959,-0.969238,-0.20752
1480607553299020,-0.328125,-0.95459,-0.203613
1480607553322081,-0.310547,-0.936523,-0.214355
1480607553344641,-0.316895,-0.928711,-0.217773
1480607553365198,-0.303711,-0.916504,-0.211426
1480607553381239,-0.318848,-0.93457,-0.214355
1480607553412321,-0.333496,-0.958496,-0.209961
1480607553426358,-0.339844,-0.957031,-0.209473
1480607553441398,-0.322754,-0.955566,-0.209473
1480607553471478,-0.308105,-0.945801,-0.20752
1480607553485515,-0.313477,-0.942871,-0.210449
1480607553501558,-0.317383,-0.937988,-0.209473
1480607553523617,-0.322754,-0.946289,-0.209961
1480607553544673,-0.32666,-0.958984,-0.210449
1480607553561217,-0.323242,-0.957031,-0.213867
1480607553583777,-0.318848,-0.940918,-0.212402
1480607553598317,-0.317871,-0.927246,-0.211426
1480607553621376,-0.323242,-0.917969,-0.21875
1480607553643937,-0.307617,-0.933105,-0.214355
1480607553657974,-0.310547,-0.958008,-0.208496
1480607553689058,-0.317871,-0.965332,-0.208984
1480607553704098,-0.320313,-0.950684,-0.20166
1480607553725153,-0.327148,-0.939453,-0.208008
1480607553755233,-0.325195,-0.925293,-0.206055
1480607553764257,-0.308594,-0.939453,-0.205566
1480607553784812,-0.311523,-0.957031,-0.20752
1480607553801356,-0.320801,-0.959961,-0.206055
1480607553823916,-0.32666,-0.95166,-0.209473
1480607553844972,-0.32959,-0.932617,-0.213867
1480607553861515,-0.317871,-0.932129,-0.20459
1480607553884077,-0.307617,-0.945313,-0.216797
1480607553905133,-0.308594,-0.949219,-0.219727
1480607553921175,-0.316406,-0.950684,-0.218262
1480607553943734,-0.325684,-0.950195,-0.216797
1480607553964792,-0.319824,-0.943848,-0.214844
1480607553981341,-0.319336,-0.945313,-0.210938
1480607554003895,-0.314941,-0.943848,-0.211914
1480607554024950,-0.322266,-0.940918,-0.210449
1480607554041496,-0.315918,-0.944824,-0.214844
1480607554064055,-0.319824,-0.955566,-0.216309
1480607554085111,-0.326172,-0.955078,-0.214844
1480607554101154,-0.318848,-0.947754,-0.218262
1480607554125218,-0.302734,-0.943359,-0.213867
1480607554144770,-0.311523,-0.931641,-0.210938
1480607554161313,-0.325684,-0.932617,-0.210938
1480607554183874,-0.329102,-0.94873,-0.218262
1480607554213954,-0.326172,-0.95752,-0.221191
1480607554221473,-0.311035,-0.964355,-0.208008
1480607554246039,-0.314941,-0.943359,-0.209473
1480607554266594,-0.319824,-0.92627,-0.208008
1480607554281635,-0.315918,-0.93457,-0.21582
1480607554309708,-0.325195,-0.953613,-0.21875
1480607554326252,-0.323242,-0.963379,-0.216797
1480607554340792,-0.321777,-0.960449,-0.220703
1480607554363855,-0.310059,-0.950684,-0.209961
1480607554393933,-0.316406,-0.933105,-0.209473
1480607554401454,-0.317871,-0.932129,-0.206543
1480607554424012,-0.315918,-0.941406,-0.210938
1480607554446573,-0.319824,-0.95752,-0.211426
1480607554460610,-0.322754,-0.95459,-0.219238
1480607554491191,-0.318848,-0.94873,-0.21582
1480607554506231,-0.310059,-0.936523,-0.220215
1480607554521271,-0.306641,-0.933105,-0.213867
1480607554543831,-0.312012,-0.943359,-0.213379
1480607554566893,-0.312012,-0.953613,-0.205566
1480607554589452,-0.322754,-0.946777,-0.208496
1480607554603992,-0.335938,-0.937988,-0.211426
1480607554633070,-0.318848,-0.954102,-0.217773
1480607554647608,-0.316895,-0.963867,-0.210449
1480607554671170,-0.342285,-0.953125,-0.217773
1480607554686210,-0.335938,-0.931641,-0.220215
1480607554707265,-0.312012,-0.94043,-0.212891
1480607554724311,-0.306152,-0.95459,-0.209961
1480607554754391,-0.304199,-0.953125,-0.20459
1480607554767429,-0.315918,-0.936523,-0.209961
1480607554783970,-0.318359,-0.930176,-0.208984
1480607554806531,-0.3125,-0.931152,-0.206543
1480607554827585,-0.32373,-0.944824,-0.20752
1480607554843628,-0.333984,-0.955566,-0.210449
1480607554866189,-0.333496,-0.957031,-0.211426
1480607554887244,-0.318359,-0.95459,-0.204102
1480607554903789,-0.312012,-0.944824,-0.20459
1480607554926349,-0.316406,-0.933105,-0.20752
1480607554947407,-0.316895,-0.942383,-0.208008
1480607554963951,-0.320801,-0.947754,-0.205566
1480607554986510,-0.327637,-0.961426,-0.209961
1480607555007564,-0.320313,-0.953613,-0.208008
1480607555024109,-0.311523,-0.942383,-0.20752
1480607555046167,-0.319336,-0.933594,-0.213379
1480607555074743,-0.314453,-0.93457,-0.206055
1480607555083768,-0.314453,-0.941406,-0.197754
1480607555106346,-0.321289,-0.952637,-0.203613
1480607555128888,-0.331543,-0.959961,-0.210449
1480607555144429,-0.320801,-0.948242,-0.214844
1480607555167491,-0.311523,-0.942871,-0.209961
1480607555189048,-0.311523,-0.9375,-0.20459
1480607555204088,-0.314453,-0.938965,-0.195801
1480607555226146,-0.322754,-0.94873,-0.208496
1480607555249208,-0.330078,-0.962891,-0.206055
1480607555263245,-0.322266,-0.952148,-0.207031
1480607555286306,-0.313965,-0.936035,-0.208496
1480607555308867,-0.308594,-0.931641,-0.214355
1480607555323404,-0.312988,-0.932129,-0.207031
1480607555346969,-0.320801,-0.951172,-0.217773
1480607555369027,-0.318848,-0.958008,-0.211914
1480607555383064,-0.323242,-0.961914,-0.208984
1480607555422676,-0.32959,-0.953125,-0.206055
1480607555428692,-0.327637,-0.927246,-0.209473
1480607555443230,-0.316895,-0.931152,-0.209961
1480607555467797,-0.31543,-0.945801,-0.208984
1480607555488851,-0.315918,-0.95752,-0.209961
1480607555509907,-0.319336,-0.958984,-0.208008
1480607555526451,-0.321777,-0.953125,-0.212402
1480607555556532,-0.330078,-0.9375,-0.212891
1480607555570069,-0.318848,-0.936035,-0.219727
1480607555586611,-0.306641,-0.947754,-0.208008
1480607555608670,-0.330566,-0.937988,-0.214844
1480607555647276,-0.329102,-0.948242,-0.20752
1480607555649279,-0.321777,-0.958984,-0.208984
1480607555668831,-0.319824,-0.95459,-0.214844
1480607555697408,-0.310547,-0.942383,-0.213867
1480607555706431,-0.308105,-0.920898,-0.209961
1480607555728991,-0.320313,-0.929199,-0.210938
1480607555750047,-0.329102,-0.956543,-0.212402
1480607555766593,-0.334961,-0.963867,-0.211426
1480607555788650,-0.318359,-0.955566,-0.20752
1480607555810206,-0.319824,-0.942383,-0.210449
1480607555826751,-0.297852,-0.935059,-0.200684
1480607555848810,-0.311523,-0.937012,-0.211426
1480607555869865,-0.33252,-0.938965,-0.21582
1480607555886409,-0.325684,-0.959961,-0.208984
1480607555908969,-0.326172,-0.958984,-0.204102
1480607555930025,-0.319824,-0.945313,-0.209961
1480607555946569,-0.321777,-0.931641,-0.209961
1480607555975145,-0.318359,-0.933594,-0.216797
1480607555991188,-0.319824,-0.943848,-0.216797
1480607556013750,-0.336914,-0.943359,-0.212402
1480607556028788,-0.321289,-0.953613,-0.208008
1480607556058868,-0.312012,-0.961426,-0.201172
1480607556066392,-0.314941,-0.954102,-0.208496
1480607556088948,-0.315918,-0.927734,-0.210938
1480607556111508,-0.314941,-0.925781,-0.21875
1480607556127050,-0.317383,-0.944336,-0.214355
1480607556149111,-0.323242,-0.960449,-0.213867
1480607556171167,-0.320801,-0.957031,-0.207031
1480607556186208,-0.322754,-0.947266,-0.20752
1480607556208767,-0.342285,-0.929199,-0.216309
1480607556231328,-0.305664,-0.936035,-0.208984
1480607556245866,-0.293457,-0.952148,-0.205078
1480607556268927,-0.32959,-0.943359,-0.216309
1480607556291988,-0.32666,-0.950684,-0.213867
1480607556305525,-0.319336,-0.960938,-0.214355
1480607556329087,-0.317383,-0.950195,-0.210938
1480607556351146,-0.315918,-0.934082,-0.21875
1480607556365686,-0.31543,-0.928711,-0.221191
1480607556388746,-0.324707,-0.942383,-0.217773
1480607556418826,-0.32959,-0.956055,-0.217773
1480607556425845,-0.316406,-0.959473,-0.210449
1480607556448908,-0.304688,-0.953613,-0.205078
1480607556487509,-0.314941,-0.934082,-0.212891
1480607556492522,-0.322266,-0.921875,-0.21875
1480607556508565,-0.304688,-0.937988,-0.212402
1480607556537642,-0.337402,-0.95166,-0.210449
1480607556553685,-0.330078,-0.952637,-0.213867
1480607556568725,-0.342285,-0.960449,-0.219238
1480607556591285,-0.339844,-0.978516,-0.213379
1480607556613846,-0.341309,-0.953125,-0.215332
1480607556628885,-0.36377,-0.921387,-0.229492
1480607556651445,-0.310059,-0.911621,-0.211426
1480607556672501,-0.285156,-0.938477,-0.204102
1480607556689045,-0.303711,-0.929688,-0.197266
1480607556711605,-0.338379,-0.921875,-0.217773
1480607556739679,-0.31543,-0.936523,-0.200684
1480607556756725,-0.318848,-0.95752,-0.197266
1480607556771263,-0.32666,-0.965332,-0.20752
1480607556809364,-0.319336,-0.956055,-0.210449
1480607556811871,-0.339844,-0.939453,-0.215332
1480607556831424,-0.327637,-0.939941,-0.21875
1480607556852982,-0.316895,-0.943359,-0.208496
1480607556869024,-0.333008,-0.9375,-0.210449
1480607556891583,-0.341797,-0.935547,-0.212402
1480607556912639,-0.317383,-0.936035,-0.205566
1480607556934699,-0.30957,-0.947754,-0.205566
1480607556951243,-0.320313,-0.95166,-0.212891
1480607556996864,-0.321777,-0.950195,-0.208496
1480607556999371,-0.324707,-0.937012,-0.213379
1480607557018922,-0.337402,-0.937988,-0.210938
1480607557033963,-0.341797,-0.937988,-0.209961
1480607557049006,-0.31543,-0.944824,-0.206055
1480607557072064,-0.313477,-0.960449,-0.208984
1480607557093621,-0.322266,-0.959961,-0.207031
1480607557108661,-0.319824,-0.936035,-0.208008
1480607557131221,-0.32666,-0.929688,-0.210938
1480607557153781,-0.336426,-0.929199,-0.208496
1480607557168321,-0.32373,-0.939941,-0.205566
1480607557191381,-0.317871,-0.958496,-0.212402
1480607557229483,-0.331055,-0.963379,-0.214844
1480607557231990,-0.304688,-0.944824,-0.213379
1480607557253045,-0.291504,-0.941895,-0.205566
1480607557274102,-0.320313,-0.92334,-0.21582
1480607557294656,-0.333008,-0.933105,-0.203613
1480607557311701,-0.338379,-0.952148,-0.217285
1480607557333760,-0.324219,-0.96875,-0.210938
1480607557363840,-0.32959,-0.962402,-0.210449
1480607557371360,-0.31543,-0.939453,-0.197754
1480607557409963,-0.332031,-0.92627,-0.200684
1480607557414977,-0.313477,-0.931641,-0.205078
1480607557439040,-0.315918,-0.949219,-0.207031
1480607557461098,-0.327148,-0.963867,-0.203613
1480607557475136,-0.368652,-0.95166,-0.208496
1480607557498703,-0.32959,-0.949707,-0.206055
1480607557513739,-0.273438,-0.95752,-0.201172
1480607557552843,-0.330078,-0.92627,-0.211426
1480607557557355,-0.321777,-0.927246,-0.212891
1480607557579915,-0.302734,-0.94873,-0.212402
1480607557594954,-0.32666,-0.966309,-0.206543
1480607557611499,-0.339355,-0.958984,-0.208496
1480607557634058,-0.322266,-0.937012,-0.209473
1480607557655114,-0.298828,-0.93457,-0.208496
1480607557671157,-0.318359,-0.946777,-0.206055
1480607557694721,-0.325684,-0.952148,-0.203125
1480607557714774,-0.319336,-0.956543,-0.198242
1480607557731318,-0.329102,-0.958984,-0.200684
1480607557753878,-0.331543,-0.950684,-0.197754
1480607557782455,-0.313477,-0.942871,-0.204102
1480607557791478,-0.309082,-0.937988,-0.208008
1480607557814038,-0.297852,-0.942871,-0.199707
1480607557835595,-0.306152,-0.949707,-0.20752
1480607557851137,-0.34082,-0.949707,-0.208984
1480607557873697,-0.325684,-0.953125,-0.215332
1480607557902273,-0.320801,-0.94873,-0.213867
1480607557911296,-0.325684,-0.935547,-0.204102
1480607557933857,-0.313477,-0.935059,-0.203125
1480607557956417,-0.3125,-0.950195,-0.200684
1480607557971456,-0.318848,-0.956543,-0.210449
1480607558017078,-0.327148,-0.960449,-0.205078
1480607558019584,-0.32373,-0.947754,-0.200684
1480607558031115,-0.314453,-0.94043,-0.20752
1480607558053675,-0.338379,-0.925781,-0.209473
1480607558076235,-0.311523,-0.93457,-0.211914
1480607558098800,-0.292969,-0.969238,-0.207031
1480607558113836,-0.321289,-0.954102,-0.206055
1480607558143915,-0.322754,-0.955566,-0.210449
1480607558150439,-0.324707,-0.937012,-0.205078
1480607558174497,-0.320313,-0.934082,-0.205078
1480607558196556,-0.314941,-0.94043,-0.203125
1480607558210593,-0.311035,-0.955078,-0.197266
1480607558233654,-0.33252,-0.947754,-0.20752
1480607558256214,-0.328613,-0.957031,-0.206055
1480607558286294,-0.317871,-0.962402,-0.212891
1480607558293814,-0.310059,-0.941895,-0.215332
1480607558332920,-0.320313,-0.928223,-0.211426
1480607558337430,-0.315918,-0.925293,-0.21582
1480607558353974,-0.312988,-0.946777,-0.214355
1480607558376534,-0.328613,-0.954102,-0.220215
1480607558390572,-0.333008,-0.95752,-0.216797
1480607558413633,-0.308594,-0.941406,-0.214844
1480607558436694,-0.289063,-0.936035,-0.212402
1480607558464770,-0.344238,-0.937988,-0.216797
1480607558473793,-0.342773,-0.922363,-0.224609
1480607558496353,-0.303711,-0.976074,-0.216309
1480607558518914,-0.331055,-0.96582,-0.211914
1480607558533953,-0.319336,-0.956543,-0.209961
1480607558556512,-0.304688,-0.936523,-0.209961
1480607558577568,-0.322754,-0.926758,-0.209473
1480607558593612,-0.34082,-0.94043,-0.211914
1480607558617676,-0.337402,-0.942871,-0.215332
1480607558637228,-0.327148,-0.961426,-0.222656
1480607558661292,-0.320313,-0.958984,-0.219727
1480607558676332,-0.304199,-0.92627,-0.216309
1480607558697388,-0.313965,-0.907227,-0.229004
1480607558713932,-0.309082,-0.912598,-0.210938
1480607558736492,-0.333008,-0.989746,-0.19873
1480607558757548,-0.362793,-1.0083,-0.201172
1480607558774092,-0.360352,-0.947266,-0.20166
1480607558796152,-0.33252,-0.901855,-0.202148
1480607558817206,-0.291504,-0.913086,-0.194824
1480607558833750,-0.288574,-0.948242,-0.197754
1480607558856310,-0.319336,-0.949219,-0.20459
1480607558878871,-0.327148,-0.939941,-0.204102
1480607558893911,-0.335938,-0.955566,-0.204102
1480607558917473,-0.355469,-0.958008,-0.218262
1480607558939030,-0.333496,-0.95166,-0.202637
1480607558961089,-0.318359,-0.932129,-0.196289
1480607558976129,-0.313477,-0.93457,-0.198242
1480607558998690,-0.32373,-0.950684,-0.201172
1480607559013730,-0.329102,-0.94873,-0.195313
1480607559036289,-0.339355,-0.940918,-0.196289
1480607559058849,-0.336426,-0.936523,-0.206055
1480607559073388,-0.330566,-0.935059,-0.197266
1480607559096450,-0.314453,-0.945801,-0.19873
1480607559119010,-0.313477,-0.957031,-0.200684
1480607559133047,-0.323242,-0.956543,-0.20459
1480607559156108,-0.330078,-0.936035,-0.209961
1480607559178668,-0.333008,-0.938965,-0.205078
1480607559201228,-0.335938,-0.946777,-0.196289
1480607559216268,-0.318848,-0.95166,-0.194824
1480607559238828,-0.32666,-0.955566,-0.203613
1480607559253366,-0.341309,-0.93457,-0.208496
1480607559276428,-0.338379,-0.936523,-0.205566
1480607559298988,-0.326172,-0.943359,-0.203125
1480607559313027,-0.330078,-0.950684,-0.198242
1480607559336086,-0.315918,-0.94873,-0.19873
1480607559358646,-0.31543,-0.950684,-0.206543
1480607559373185,-0.331543,-0.944824,-0.207031
1480607559396248,-0.353516,-0.938477,-0.20752
1480607559418806,-0.342773,-0.936523,-0.203613
1480607559439863,-0.319336,-0.957031,-0.197754
1480607559456408,-0.31543,-0.959473,-0.197266
1480607559484983,-0.321777,-0.937988,-0.206055
1480607559500023,-0.32959,-0.929688,-0.20459
1480607559516567,-0.339355,-0.933594,-0.219238
1480607559538625,-0.334961,-0.947266,-0.214844
1480607559567202,-0.322754,-0.95752,-0.20459
1480607559576226,-0.328613,-0.95459,-0.20459
1480607559598786,-0.327637,-0.938477,-0.195313
1480607559619841,-0.317871,-0.93457,-0.20166
1480607559636385,-0.32373,-0.943848,-0.209473
1480607559682007,-0.330566,-0.943848,-0.206543
1480607559684514,-0.333008,-0.949707,-0.200684
1480607559704567,-0.330566,-0.959961,-0.195313
1480607559719608,-0.322754,-0.946777,-0.195801
1480607559739660,-0.319824,-0.935547,-0.206055
1480607559756204,-0.317871,-0.933594,-0.208984
1480607559778764,-0.328125,-0.935547,-0.208008
1480607559807340,-0.325195,-0.945313,-0.206055
1480607559816866,-0.327637,-0.962891,-0.203613
1480607559838924,-0.331543,-0.952148,-0.204102
1480607559861485,-0.325195,-0.936523,-0.208008
1480607559876525,-0.321289,-0.931641,-0.205078
1480607559899085,-0.324219,-0.936035,-0.211426
1480607559921143,-0.327637,-0.946777,-0.208008
1480607559936183,-0.325195,-0.951172,-0.203613
1480607559958744,-0.326172,-0.958008,-0.205078
1480607559981304,-0.318359,-0.954102,-0.207031
1480607559996344,-0.317383,-0.940918,-0.209473
1480607560018903,-0.322754,-0.922852,-0.214355
1480607560041464,-0.330078,-0.941406,-0.211426
1480607560057005,-0.322266,-0.946289,-0.215332
1480607560087085,-0.31543,-0.958984,-0.211914
1480607560101624,-0.315918,-0.958984,-0.212402
1480607560115662,-0.319336,-0.945313,-0.208496
1480607560138722,-0.330078,-0.919922,-0.211426
1480607560161284,-0.327637,-0.927246,-0.209961
1480607560183842,-0.31543,-0.940918,-0.20752
1480607560198883,-0.324219,-0.962402,-0.209961
1480607560228962,-0.325684,-0.962891,-0.210938
1480607560235480,-0.316895,-0.949219,-0.211914
1480607560266565,-0.335449,-0.942871,-0.208496
1480607560281603,-0.339844,-0.928711,-0.214355
1480607560295640,-0.326172,-0.935059,-0.219727
1480607560319202,-0.30957,-0.956055,-0.208984
1480607560348781,-0.316895,-0.95166,-0.212891
1480607560362317,-0.324219,-0.949219,-0.213867
1480607560378864,-0.313965,-0.943848,-0.210938
1480607560415458,-0.327148,-0.939453,-0.20752
1480607560422477,-0.318359,-0.932617,-0.205566
1480607560439021,-0.318359,-0.941406,-0.20459
1480607560461080,-0.317383,-0.955078,-0.206543
1480607560482136,-0.322754,-0.956055,-0.211914
1480607560498680,-0.353027,-0.942383,-0.211914
1480607560521240,-0.310059,-0.930664,-0.208984
1480607560542297,-0.295898,-0.951172,-0.211914
1480607560558840,-0.332031,-0.947266,-0.215332
1480607560581400,-0.332031,-0.939941,-0.223145
1480607560602456,-0.312988,-0.947754,-0.213867
1480607560625016,-0.334961,-0.94873,-0.215332
1480607560641560,-0.32373,-0.943848,-0.210449
1480607560662114,-0.304688,-0.936035,-0.212891
1480607560686178,-0.335938,-0.937012,-0.214355
1480607560701218,-0.330078,-0.951172,-0.217285
1480607560722274,-0.289551,-0.956543,-0.208496
1480607560744835,-0.293457,-0.943359,-0.20459
1480607560761379,-0.32959,-0.953613,-0.216797
1480607560782438,-0.35498,-0.938477,-0.210938
1480607560798978,-0.318359,-0.896484,-0.223145
1480607560827554,-0.336426,-0.934082,-0.227539
1480607560843598,-0.319336,-0.989746,-0.206055
1480607560883203,-0.35791,-1.01318,-0.209961
1480607560887216,-0.385742,-0.938965,-0.229004
1480607560927821,-0.34668,-0.901367,-0.226074
1480607560932333,-0.304199,-0.916992,-0.22168
1480607560941859,-0.278809,-0.934082,-0.202637
1480607560963917,-0.270996,-0.9375,-0.192871
1480607560984974,-0.334961,-0.907715,-0.203125
1480607561001517,-0.343262,-0.915527,-0.197754
1480607561024078,-0.334473,-0.981934,-0.199219
1480607561038115,-0.327637,-0.989746,-0.183594
1480607561061176,-0.330566,-0.948242,-0.194824
1480607561091758,-0.328613,-0.92041,-0.208008
1480607561107800,-0.333984,-0.925293,-0.20752
1480607561121837,-0.322754,-0.952637,-0.206055
1480607561158936,-0.321289,-0.968262,-0.196777
1480607561161442,-0.323242,-0.950195,-0.20166
1480607561182504,-0.338867,-0.928711,-0.20166
1480607561204057,-0.326172,-0.915527,-0.20752
1480607561225112,-0.314941,-0.9375,-0.208008
1480607561241155,-0.328125,-0.960938,-0.194824
1480607561264216,-0.310059,-0.967773,-0.193359
1480607561278254,-0.3125,-0.95752,-0.196289
1480607561301315,-0.306641,-0.934082,-0.199707
1480607561323875,-0.323242,-0.931641,-0.211426
1480607561344930,-0.331543,-0.93457,-0.217285
1480607561361475,-0.331543,-0.958496,-0.20459
1480607561391555,-0.328125,-0.971191,-0.203613
1480607561405091,-0.3125,-0.966797,-0.203125
1480607561421134,-0.332031,-0.946777,-0.20459
1480607561443694,-0.320313,-0.920898,-0.20166
1480607561472270,-0.299805,-0.93457,-0.207031
1480607561481294,-0.341309,-0.936035,-0.208496
1480607561503854,-0.340332,-0.947754,-0.202148
1480607561525411,-0.322266,-0.962891,-0.19873
1480607561547470,-0.314453,-0.959473,-0.214844
1480607561564016,-0.310547,-0.947266,-0.20752
1480607561585070,-0.317383,-0.931152,-0.209961
1480607561615652,-0.31543,-0.934082,-0.205078
1480607561623673,-0.328613,-0.950195,-0.205078
1480607561645734,-0.336914,-0.967285,-0.20459
1480607561661273,-0.331055,-0.945801,-0.211914
1480607561683834,-0.313477,-0.941895,-0.208008
1480607561705390,-0.318359,-0.931641,-0.208984
1480607561721934,-0.3125,-0.937012,-0.209961
1480607561743992,-0.302246,-0.955078,-0.210449
1480607561766553,-0.334961,-0.950684,-0.207031
1480607561781092,-0.318848,-0.962402,-0.202148
1480607561803653,-0.328125,-0.955566,-0.20166
1480607561826211,-0.375977,-0.932617,-0.210449
1480607561841252,-0.350098,-0.904297,-0.213867
1480607561863811,-0.266602,-0.963867,-0.210449
1480607561886873,-0.294922,-0.969727,-0.214355
1480607561900910,-0.331055,-0.935547,-0.212891
1480607561923971,-0.326172,-0.923828,-0.223145
1480607561946535,-0.328125,-0.93457,-0.216797
1480607561967588,-0.331055,-0.949219,-0.208984
1480607561983630,-0.318359,-0.946289,-0.210938
1480607562006190,-0.307129,-0.949707,-0.208496
1480607562029753,-0.321777,-0.956543,-0.210449
1480607562043791,-0.33252,-0.955078,-0.207031
1480607562074372,-0.312988,-0.939453,-0.197266
1480607562080889,-0.336914,-0.924316,-0.211426
1480607562103951,-0.32959,-0.933105,-0.218262
1480607562126510,-0.303223,-0.947754,-0.21875
1480607562140548,-0.300781,-0.950195,-0.213379
1480607562163609,-0.352539,-0.949707,-0.217773
1480607562186670,-0.334473,-0.949707,-0.208008
1480607562207225,-0.302246,-0.942383,-0.211914
1480607562223769,-0.306152,-0.930176,-0.200684
1480607562246331,-0.32959,-0.945313,-0.208496
1480607562267385,-0.336914,-0.931152,-0.214355
1480607562283929,-0.319824,-0.958008,-0.211426
1480607562314009,-0.326172,-0.953125,-0.213867
1480607562327545,-0.331055,-0.942383,-0.212891
1480607562343587,-0.342285,-0.932617,-0.216309
1480607562366148,-0.318359,-0.925293,-0.223145
1480607562387203,-0.270996,-0.952148,-0.212402
1480607562403747,-0.311523,-0.946777,-0.215332
1480607562426307,-0.352051,-0.944824,-0.215332
1480607562447364,-0.34668,-0.950684,-0.217285
1480607562463910,-0.318359,-0.949219,-0.208008
1480607562485967,-0.316895,-0.940918,-0.202637
1480607562509028,-0.318848,-0.936523,-0.209473
1480607562524068,-0.312012,-0.943848,-0.211426
1480607562546632,-0.31543,-0.95166,-0.213379
1480607562568687,-0.337891,-0.951172,-0.216797
1480607562591748,-0.333008,-0.939453,-0.211914
1480607562606287,-0.31543,-0.931641,-0.214844
1480607562634863,-0.318359,-0.934082,-0.218262
1480607562643887,-0.313965,-0.945801,-0.216309
1480607562673966,-0.316895,-0.949219,-0.214844
1480607562687503,-0.323242,-0.959473,-0.209961
1480607562703545,-0.330078,-0.945801,-0.212891
1480607562726105,-0.325684,-0.943848,-0.210938
1480607562749668,-0.320801,-0.938477,-0.211426
1480607562763706,-0.321289,-0.93457,-0.211426
1480607562786265,-0.320313,-0.941895,-0.209473
1480607562809327,-0.316406,-0.95166,-0.216309
1480607562824367,-0.328613,-0.94873,-0.217773
1480607562846430,-0.32959,-0.944824,-0.216797
1480607562868985,-0.318848,-0.936035,-0.216309
1480607562883023,-0.322266,-0.937988,-0.219727
1480607562913606,-0.316406,-0.947266,-0.20459
1480607562928645,-0.320801,-0.952637,-0.212891
1480607562943183,-0.326172,-0.952148,-0.209473
1480607562966244,-0.334473,-0.951172,-0.209473
1480607562988804,-0.334473,-0.932129,-0.216309
1480607563003343,-0.308105,-0.931641,-0.215332
1480607563026406,-0.302734,-0.942871,-0.208496
1480607563049466,-0.319336,-0.944824,-0.21582
1480607563063507,-0.320801,-0.949219,-0.216309
1480607563086063,-0.322754,-0.948242,-0.212402
1480607563108623,-0.328613,-0.937012,-0.211426
1480607563123663,-0.31543,-0.938965,-0.219727
1480607563146226,-0.311035,-0.937988,-0.205078
1480607563168784,-0.318359,-0.942383,-0.209961
1480607563189839,-0.322754,-0.947754,-0.212891
1480607563206384,-0.333008,-0.95166,-0.211914
1480607563228943,-0.330078,-0.950195,-0.213867
1480607563249999,-0.319336,-0.943359,-0.214844
1480607563282084,-0.320801,-0.932617,-0.216309
1480607563289604,-0.308594,-0.935059,-0.213379
1480607563326703,-0.307129,-0.959961,-0.212402
1480607563329211,-0.330566,-0.945801,-0.206055
1480607563356282,-0.353027,-0.92041,-0.228516
1480607563369818,-0.351563,-0.925293,-0.23291
1480607563386362,-0.325195,-0.975586,-0.221191
1480607563414938,-0.331055,-1.01123,-0.211914
1480607563430479,-0.370605,-0.936035,-0.22168
1480607563447024,-0.34375,-0.906738,-0.239258
1480607563468580,-0.277344,-0.927734,-0.20166
1480607563489637,-0.255859,-0.931152,-0.192383
1480607563506682,-0.327148,-0.916992,-0.193359
1480607563528741,-0.324707,-0.908203,-0.192383
1480607563549797,-0.347656,-0.949219,-0.205078
1480607563566341,-0.355957,-0.994629,-0.193359
1480607563589402,-0.334961,-0.975098,-0.203125
1480607563609957,-0.30957,-0.955566,-0.194336
1480607563626501,-0.320313,-0.931641,-0.199707
1480607563648560,-0.338867,-0.910156,-0.201172
1480607563684656,-0.322754,-0.931152,-0.202637
1480607563701200,-0.344727,-0.945801,-0.20752
1480607563708720,-0.351563,-0.961914,-0.204102
1480607563746821,-0.313477,-0.960938,-0.202148
1480607563749328,-0.305664,-0.958984,-0.202637
1480607563768880,-0.327148,-0.931152,-0.199707
1480607563791941,-0.325684,-0.917969,-0.202148
1480607563805477,-0.321289,-0.935547,-0.196289
1480607563836058,-0.333008,-0.963379,-0.194824
1480607563851098,-0.341309,-0.971191,-0.20166
1480607563872154,-0.34375,-0.95752,-0.195801
1480607563888698,-0.312988,-0.941406,-0.195801
1480607563912262,-0.314453,-0.936523,-0.203125
1480607563925797,-0.327148,-0.926758,-0.198242
1480607563971920,-0.335449,-0.939453,-0.207031
1480607563974426,-0.356934,-0.95166,-0.203125
1480607563985456,-0.337891,-0.957031,-0.196289
1480607564023558,-0.307617,-0.954102,-0.191895
1480607564032080,-0.332031,-0.948242,-0.202637
1480607564045617,-0.34668,-0.953125,-0.198242
1480607564070182,-0.351563,-0.949219,-0.185059
1480607564091238,-0.321777,-0.926758,-0.180664
1480607564113797,-0.320801,-0.94043,-0.180664
1480607564128837,-0.327637,-0.955566,-0.180664
1480607564166939,-0.328613,-0.966309,-0.183594
1480607564172453,-0.333008,-0.94873,-0.198242
1480607564188997,-0.340332,-0.92627,-0.191895
1480607564211559,-0.322266,-0.927246,-0.184082
1480607564232613,-0.320801,-0.95166,-0.183594
1480607564248657,-0.322266,-0.967285,-0.177246
1480607564271216,-0.329102,-0.95166,-0.191406
1480607564301797,-0.333984,-0.943848,-0.194824
1480607564310320,-0.339355,-0.923828,-0.196289
1480607564338896,-0.316895,-0.898926,-0.212402
1480607564352432,-0.32959,-0.887695,-0.210449
1480607564368977,-0.357422,-0.962402,-0.205566
1480607564391536,-0.321289,-1.01221,-0.200684
1480607564412593,-0.340332,-0.989746,-0.200195
1480607564436154,-0.35791,-0.929688,-0.202637
1480607564451195,-0.354492,-0.899414,-0.204102
1480607564479771,-0.328125,-0.913086,-0.206055
1480607564488796,-0.317871,-0.958496,-0.197754
1480607564525392,-0.341309,-0.962891,-0.205078
1480607564533915,-0.341309,-0.938965,-0.209961
1480607564579543,-0.325195,-0.936035,-0.217285
1480607564581542,-0.332031,-0.920898,-0.222656
1480607564593574,-0.33252,-0.936035,-0.213867
1480607564608614,-0.326172,-0.944336,-0.21875
1480607564631174,-0.335449,-0.95166,-0.212402
1480607564670278,-0.341309,-0.940918,-0.216797
1480607564674789,-0.336914,-0.943848,-0.216309
1480607564691334,-0.341797,-0.933105,-0.215332
1480607564713894,-0.348633,-0.917969,-0.219727
1480607564728934,-0.338379,-0.933105,-0.220215
1480607564757509,-0.333984,-0.958984,-0.223145
1480607564773552,-0.337891,-0.984375,-0.218262
1480607564802128,-0.353516,-0.956543,-0.191895
1480607564812658,-0.324219,-0.917969,-0.193359
1480607564833712,-0.313965,-0.907227,-0.193359
1480607564856774,-0.333984,-0.919434,-0.188477
1480607564871313,-0.317871,-0.954102,-0.186035
1480607564909915,-0.317383,-0.966797,-0.193359
1480607564914929,-0.331543,-0.95752,-0.1875
1480607564931473,-0.331543,-0.945801,-0.189941
1480607564954033,-0.337891,-0.942871,-0.197266
1480607564968572,-0.347656,-0.9375,-0.191406
1480607564998652,-0.348633,-0.919922,-0.208984
1480607565022214,-0.330566,-0.946289,-0.192383
1480607565034747,-0.331543,-0.969727,-0.193848
1480607565051291,-0.324707,-0.971191,-0.194336
1480607565089894,-0.334473,-0.942383,-0.199219
1480607565096420,-0.333008,-0.924316,-0.200195
1480607565111451,-0.32959,-0.923828,-0.187012
1480607565134011,-0.33252,-0.947754,-0.185059
1480607565155067,-0.34668,-0.958008,-0.184082
1480607565178631,-0.341309,-0.950684,-0.188477
1480607565193670,-0.329102,-0.946777,-0.186523
1480607565214726,-0.320313,-0.949219,-0.188965
1480607565231270,-0.328613,-0.941406,-0.195313
1480607565253329,-0.32959,-0.943848,-0.194336
1480607565274886,-0.328125,-0.943848,-0.191895
1480607565290929,-0.341797,-0.945801,-0.194336
1480607565313994,-0.336914,-0.944336,-0.196777
1480607565335046,-0.32959,-0.949707,-0.203125
1480607565364625,-0.346191,-0.939453,-0.196289
1480607565373649,-0.329102,-0.936523,-0.196777
1480607565412758,-0.306641,-0.937988,-0.197266
1480607565417266,-0.325195,-0.949219,-0.197754
1480607565433809,-0.336426,-0.954102,-0.197754
1480607565456369,-0.337402,-0.950684,-0.194336
1480607565471409,-0.331055,-0.956543,-0.194336
1480607565493468,-0.347168,-0.942871,-0.192871
1480607565515025,-0.340332,-0.927246,-0.191406
1480607565531068,-0.319824,-0.938965,-0.193848
1480607565553628,-0.316895,-0.960938,-0.186523
1480607565576689,-0.334961,-0.965332,-0.19873
1480607565590726,-0.325195,-0.943359,-0.205078
1480607565615292,-0.326172,-0.930664,-0.206055
1480607565636849,-0.339844,-0.930176,-0.200195
1480607565651387,-0.338867,-0.933594,-0.192383
1480607565673948,-0.327148,-0.955078,-0.191406
1480607565696508,-0.328125,-0.956543,-0.200684
1480607565710545,-0.329102,-0.956055,-0.19873
1480607565733607,-0.323242,-0.942383,-0.191406
1480607565756167,-0.318359,-0.926758,-0.195313
1480607565770705,-0.325684,-0.927734,-0.19873
1480607565793766,-0.321289,-0.945313,-0.194336
1480607565816327,-0.335938,-0.962402,-0.196777
1480607565830866,-0.364746,-0.960938,-0.205078
1480607565868966,-0.335449,-0.945801,-0.198242
1480607565876487,-0.303223,-0.933105,-0.188477
1480607565898547,-0.32373,-0.929199,-0.190918
1480607565921105,-0.32959,-0.945801,-0.197266
1480607565936145,-0.331055,-0.959961,-0.194824
1480607565950689,-0.337402,-0.962402,-0.199707
1480607565973746,-0.347168,-0.952637,-0.194824
1480607565996307,-0.319824,-0.9375,-0.189941
1480607566012348,-0.315918,-0.931641,-0.197266
1480607566033907,-0.333008,-0.941895,-0.196777
1480607566056465,-0.32959,-0.950195,-0.197754
1480607566077521,-0.334961,-0.955566,-0.193848
1480607566108604,-0.341797,-0.950684,-0.193848
1480607566116125,-0.331055,-0.948242,-0.19043
1480607566144701,-0.318359,-0.936035,-0.199707
1480607566153724,-0.310547,-0.936523,-0.195313
1480607566191826,-0.344238,-0.938965,-0.205078
1480607566197341,-0.344238,-0.958984,-0.200195
1480607566213885,-0.324219,-0.955078,-0.189453
1480607566236444,-0.333008,-0.951172,-0.188477
1480607566257500,-0.332031,-0.939941,-0.191406
1480607566274045,-0.321289,-0.9375,-0.199219
1480607566296105,-0.325195,-0.943848,-0.195313
1480607566317159,-0.341309,-0.942871,-0.200195
1480607566333703,-0.342285,-0.946777,-0.196777
1480607566356263,-0.320801,-0.956055,-0.191406
1480607566377820,-0.321289,-0.957031,-0.189453
1480607566393863,-0.331543,-0.943359,-0.193359
1480607566415921,-0.325195,-0.929199,-0.196289
1480607566437479,-0.32666,-0.930176,-0.196289
1480607566454022,-0.337402,-0.950195,-0.193359
1480607566476081,-0.340332,-0.966309,-0.20166
1480607566498642,-0.348145,-0.949219,-0.203613
1480607566513681,-0.308594,-0.945313,-0.190918
1480607566542258,-0.306152,-0.93457,-0.195801
1480607566558802,-0.343262,-0.921387,-0.195313
1480607566573842,-0.337402,-0.935547,-0.203125
1480607566596402,-0.328613,-0.968262,-0.189941
1480607566618962,-0.332031,-0.963867,-0.193359
1480607566632999,-0.337891,-0.950195,-0.19043
1480607566656061,-0.325684,-0.935059,-0.191895
1480607566679124,-0.327637,-0.934082,-0.199707
1480607566701180,-0.330566,-0.940918,-0.19873
1480607566716222,-0.317383,-0.95752,-0.19043
1480607566744801,-0.342285,-0.952637,-0.199707
1480607566753319,-0.336426,-0.949219,-0.202637
1480607566776381,-0.328613,-0.942871,-0.200195
1480607566798941,-0.329102,-0.933594,-0.206055
1480607566812980,-0.320313,-0.936523,-0.191895
1480607566842556,-0.333008,-0.94873,-0.188965
1480607566858599,-0.333496,-0.962891,-0.189941
1480607566873138,-0.34668,-0.953125,-0.194336
1480607566886674,-0.330566,-0.955566,-0.192871
1480607566901714,-0.323242,-0.94043,-0.19873
1480607566935303,-0.319824,-0.929199,-0.194336
1480607566940819,-0.330078,-0.941406,-0.200684
1480607566961876,-0.335449,-0.953613,-0.203125
1480607566983934,-0.322754,-0.95752,-0.200684
1480607567008498,-0.333496,-0.958984,-0.192871
1480607567024541,-0.353027,-0.928711,-0.192383
1480607567044093,-0.338867,-0.925781,-0.194824
1480607567062142,-0.313965,-0.947266,-0.188965
1480607567081693,-0.325684,-0.960449,-0.199707
1480607567111773,-0.353027,-0.956055,-0.195801
1480607567122301,-0.344727,-0.946777,-0.195313
1480607567141853,-0.304199,-0.947266,-0.191895
1480607567172935,-0.320313,-0.938965,-0.196289
1480607567186472,-0.339844,-0.93457,-0.198242
1480607567209032,-0.327637,-0.947754,-0.198242
1480607567224071,-0.335449,-0.950684,-0.191406
1480607567255655,-0.336426,-0.948242,-0.197754
1480607567261677,-0.327148,-0.947754,-0.195801
1480607567284232,-0.319824,-0.946777,-0.197266
1480607567306792,-0.32959,-0.940918,-0.194336
1480607567321832,-0.32959,-0.94043,-0.194824
1480607567344391,-0.330566,-0.942383,-0.195801
1480607567366952,-0.335938,-0.958496,-0.195313
1480607567381490,-0.326172,-0.966309,-0.185547
1480607567404050,-0.323242,-0.950684,-0.19873
1480607567435634,-0.335938,-0.923828,-0.206055
1480607567441651,-0.32959,-0.934082,-0.200684
1480607567464211,-0.320801,-0.939453,-0.188965
1480607567496800,-0.332031,-0.953125,-0.193359
1480607567501811,-0.339355,-0.95752,-0.194336
1480607567524370,-0.317871,-0.965332,-0.191895
1480607567546931,-0.33252,-0.94873,-0.185547
1480607567564477,-0.32959,-0.935059,-0.188965
1480607567584029,-0.328125,-0.927246,-0.194336
1480607567606589,-0.325195,-0.95752,-0.193359
1480607567625139,-0.329102,-0.958008,-0.197754
1480607567644190,-0.331543,-0.95459,-0.188477
1480607567666749,-0.319336,-0.946777,-0.191895
1480607567681789,-0.356934,-0.935059,-0.201172
1480607567704349,-0.337402,-0.922363,-0.195801
1480607567726909,-0.280762,-0.954102,-0.194824
1480607567741448,-0.335938,-0.939453,-0.19873
1480607567767016,-0.341309,-0.95166,-0.194824
1480607567786568,-0.323242,-0.964355,-0.193359
1480607567803112,-0.332031,-0.942871,-0.199219
1480607567824168,-0.331055,-0.937012,-0.189453
1480607567846729,-0.325195,-0.938965,-0.190918
1480607567863272,-0.315918,-0.9375,-0.192383
1480607567884329,-0.332031,-0.957031,-0.187012
1480607567907890,-0.347656,-0.952148,-0.195801
1480607567921426,-0.337402,-0.942871,-0.199707
1480607567953011,-0.307129,-0.942871,-0.199219
1480607567966547,-0.320313,-0.942871,-0.188477
1480607567990611,-0.342285,-0.93457,-0.192871
1480607568004147,-0.338379,-0.949707,-0.20752
1480607568026707,-0.348145,-0.982422,-0.198242
1480607568043251,-0.334961,-0.989746,-0.193359
1480607568071827,-0.304688,-0.873047,-0.187988
1480607568086867,-0.318359,-0.789063,-0.248047
1480607568104414,-0.346191,-0.908691,-0.248047
1480607568132990,-0.336426,-1.06787,-0.217285
1480607568146529,-0.359375,-1.04199,-0.212891
1480607568164574,-0.36377,-0.920898,-0.232422
1480607568187135,-0.355957,-0.845215,-0.248535
1480607568206686,-0.296875,-0.898438,-0.237793
1480607568230750,-0.30957,-0.94043,-0.226563
1480607568244289,-0.364258,-0.944824,-0.233887
1480607568266846,-0.374512,-0.949219,-0.223633
1480607568284393,-0.357422,-0.948242,-0.210938
1480607568303944,-0.333984,-0.937012,-0.212891
1480607568326504,-0.312988,-0.919922,-0.228516
1480607568343048,-0.330566,-0.916016,-0.233398
1480607568364105,-0.34082,-0.915039,-0.231445
1480607568386664,-0.351563,-0.933594,-0.228027
1480607568420254,-0.365234,-0.960938,-0.224609
1480607568424264,-0.352539,-0.972656,-0.224609
1480607568454344,-0.335938,-0.92041,-0.220703
1480607568464372,-0.34375,-0.915527,-0.227051
1480607568484424,-0.391602,-0.95752,-0.256836
1480607568506484,-0.426758,-0.953613,-0.251953
1480607568529047,-0.34082,-0.945313,-0.192871
1480607568544083,-0.237305,-0.933105,-0.181641
1480607568566645,-0.282715,-0.898438,-0.166016
1480607568589203,-0.333008,-0.912109,-0.185059
1480607568604243,-0.325684,-0.960449,-0.195801
1480607568626803,-0.336426,-0.95459,-0.191406
1480607568649364,-0.3125,-0.950195,-0.181641
1480607568671923,-0.354492,-0.980469,-0.183105
1480607568686462,-0.372559,-0.966309,-0.179199
1480607568709523,-0.34668,-0.942383,-0.180664
1480607568725566,-0.347168,-0.930176,-0.179199
1480607568746622,-0.374023,-0.954102,-0.179688
1480607568786227,-0.356445,-0.927734,-0.181152
1480607568788734,-0.255371,-0.937012,-0.177246
1480607568806782,-0.320313,-0.936523,-0.208008
1480607568829343,-0.375,-0.937988,-0.225586
1480607568844383,-0.376465,-0.951172,-0.213867
1480607568866445,-0.34668,-0.929199,-0.203125
1480607568889001,-0.311035,-0.925293,-0.192871
1480607568904041,-0.320313,-0.939453,-0.192383
1480607568926601,-0.328613,-0.944336,-0.200684
1480607568949164,-0.335449,-0.955566,-0.191406
1480607568971721,-0.330566,-0.951172,-0.186035
1480607568994281,-0.33252,-0.950684,-0.177246
1480607569009321,-0.355957,-0.930664,-0.171875
1480607569026366,-0.330566,-0.956543,-0.166504
1480607569048435,-0.354004,-0.959961,-0.191895
1480607569068981,-0.339844,-0.945801,-0.186035
1480607569085525,-0.305176,-0.964355,-0.176758
1480607569106579,-0.338867,-0.955078,-0.177734
1480607569129140,-0.385742,-0.937012,-0.185059
1480607569145683,-0.33252,-0.915039,-0.179199
1480607569166741,-0.298828,-0.948242,-0.214355
1480607569189299,-0.324219,-0.958008,-0.206543
1480607569206846,-0.346191,-0.959961,-0.198242
1480607569226398,-0.353516,-0.930176,-0.200195
1480607569248962,-0.344238,-0.934082,-0.197266
1480607569265503,-0.34668,-0.917969,-0.19043
1480607569286559,-0.319336,-0.92627,-0.20752
1480607569309118,-0.319336,-0.955566,-0.193848
1480607569325663,-0.333496,-0.965332,-0.19873
1480607569346721,-0.329102,-0.94873,-0.186035
1480607569376799,-0.339355,-0.937012,-0.194336
1480607569387326,-0.343262,-0.930176,-0.195313
1480607569406377,-0.329102,-0.939453,-0.198242
1480607569428938,-0.324707,-0.939453,-0.199219
1480607569446989,-0.352051,-0.954102,-0.195801
1480607569474057,-0.34082,-0.948242,-0.1875
1480607569489097,-0.342773,-0.968262,-0.202148
1480607569507145,-0.337891,-0.942383,-0.187988
1480607569526697,-0.303711,-0.935547,-0.184082
1480607569549260,-0.326172,-0.916504,-0.182617
1480607569567306,-0.366699,-0.944336,-0.185547
1480607569586858,-0.383789,-0.955566,-0.200684
1480607569608916,-0.276855,-0.979492,-0.195313
1480607569631978,-0.303711,-0.964355,-0.212402
1480607569646518,-0.362305,-0.928711,-0.205078
1480607569669076,-0.356445,-0.927734,-0.194824
1480607569693140,-0.342773,-0.924805,-0.188477
1480607569706676,-0.316895,-0.945801,-0.188965
1480607569729237,-0.328125,-0.962402,-0.197754
1480607569754804,-0.340332,-0.955566,-0.197266
1480607569766836,-0.32666,-0.936523,-0.187012
1480607569788895,-0.358887,-0.929199,-0.194336
1480607569806943,-0.320313,-0.928223,-0.183105
1480607569826494,-0.313965,-0.952637,-0.19043
1480607569849057,-0.342773,-0.956543,-0.194824
1480607569874623,-0.323242,-0.962891,-0.1875
1480607569886655,-0.348633,-0.930664,-0.20166
1480607569909215,-0.341797,-0.922852,-0.189941
1480607569939796,-0.32959,-0.936035,-0.193359
1480607569948322,-0.333496,-0.945801,-0.189941
1480607569969375,-0.314941,-0.956543,-0.195801
1480607569986921,-0.300293,-0.953125,-0.1875
1480607570015502,-0.351074,-0.959473,-0.194824
1480607570029043,-0.367676,-0.935547,-0.192383
1480607570051594,-0.32666,-0.94873,-0.188965
1480607570068138,-0.323242,-0.939453,-0.192871
1480607570089194,-0.32373,-0.946777,-0.189453
1480607570111754,-0.333984,-0.950684,-0.190918
1480607570134315,-0.348145,-0.952148,-0.197754
1480607570149354,-0.334961,-0.946289,-0.195313
1480607570171413,-0.32959,-0.938477,-0.18457
1480607570187956,-0.33252,-0.932617,-0.186523
1480607570216533,-0.33252,-0.937012,-0.19043
1480607570231573,-0.331055,-0.952148,-0.19873
1480607570248119,-0.336914,-0.958496,-0.199707
1480607570269173,-0.341797,-0.95459,-0.19043
1480607570294742,-0.330078,-0.951172,-0.189941
1480607570309780,-0.331543,-0.936035,-0.194336
1480607570329334,-0.322266,-0.933105,-0.185547
1480607570354399,-0.344238,-0.946289,-0.195313
1480607570376960,-0.347656,-0.949707,-0.19043
1480607570405535,-0.323242,-0.954102,-0.198242
1480607570411552,-0.314941,-0.952637,-0.194336
1480607570429600,-0.325684,-0.942383,-0.192871
1480607570449152,-0.338379,-0.927734,-0.187988
1480607570471711,-0.338379,-0.932617,-0.194336
1480607570489759,-0.331055,-0.949219,-0.191406
1480607570509311,-0.333496,-0.959961,-0.193359
1480607570531873,-0.32959,-0.958984,-0.196777
1480607570549422,-0.33252,-0.945313,-0.194336
1480607570570475,-0.311523,-0.931152,-0.186035
1480607570591530,-0.326172,-0.926758,-0.190918
1480607570614092,-0.342773,-0.935547,-0.199707
1480607570629131,-0.333008,-0.96875,-0.190918
1480607570659210,-0.336914,-0.966309,-0.187012
1480607570677258,-0.326172,-0.95752,-0.177734
1480607570689290,-0.368164,-0.93457,-0.187988
1480607570711850,-0.362305,-0.92041,-0.187012
1480607570729900,-0.276367,-0.954102,-0.174316
1480607570748950,-0.339844,-0.931641,-0.188965
1480607570775018,-0.342773,-0.949219,-0.189941
1480607570789557,-0.321289,-0.963379,-0.201172
1480607570809110,-0.321777,-0.951172,-0.197754
1480607570831671,-0.319824,-0.926758,-0.201172
1480607570849717,-0.347168,-0.928711,-0.200684
1480607570870774,-0.356934,-0.935059,-0.189941
1480607570908874,-0.314941,-0.957031,-0.182617
1480607570910880,-0.333008,-0.969238,-0.1875
1480607570930433,-0.31543,-0.969727,-0.17627
1480607570951489,-0.366211,-0.931152,-0.19043
1480607570969536,-0.329102,-0.916504,-0.191895
1480607570998113,-0.302734,-0.95459,-0.193848
1480607571011648,-0.34082,-0.957031,-0.191406
1480607571029696,-0.348145,-0.950684,-0.193848
1480607571050752,-0.351074,-0.95459,-0.195801
1480607571079328,-0.350098,-0.946289,-0.188965
1480607571089354,-0.3125,-0.928223,-0.193359
1480607571110411,-0.3125,-0.92334,-0.196289
1480607571138986,-0.334961,-0.9375,-0.192383
1480607571149515,-0.322266,-0.946289,-0.191406
1480607571172075,-0.34082,-0.95459,-0.207031
1480607571191627,-0.378418,-0.958984,-0.195801
1480607571209675,-0.322266,-0.941895,-0.19043
1480607571230731,-0.291504,-0.936035,-0.192383
1480607571251787,-0.350586,-0.935547,-0.20459
1480607571269333,-0.337891,-0.960449,-0.191895
1480607571291894,-0.327148,-0.960449,-0.190918
1480607571311448,-0.351074,-0.959473,-0.186035
1480607571329493,-0.376465,-0.945313,-0.191406
1480607571352054,-0.337891,-0.929199,-0.190918
1480607571371605,-0.303223,-0.949219,-0.187012
1480607571389654,-0.328125,-0.961426,-0.203125
1480607571412719,-0.335449,-0.987793,-0.194824
1480607571431765,-0.336426,-0.882324,-0.23877
1480607571454326,-0.310059,-0.880859,-0.205078
1480607571471872,-0.304199,-0.898926,-0.230957
1480607571491424,-0.370605,-0.962402,-0.223145
1480607571515488,-0.37207,-0.996094,-0.224609
1480607571532032,-0.382813,-0.98584,-0.234863
1480607571553089,-0.473633,-0.942871,-0.273438
1480607571574144,-0.435547,-0.936035,-0.205566
1480607571592192,-0.242188,-0.932129,-0.174805
1480607571611747,-0.184082,-0.874512,-0.166016
1480607571641824,-0.291992,-0.868164,-0.184082
1480607571651852,-0.375488,-0.922852,-0.203125
1480607571672907,-0.293457,-0.979492,-0.188965
1480607571693965,-0.290039,-0.975586,-0.190918
1480607571712014,-0.394043,-0.974609,-0.19043
1480607571731563,-0.385742,-0.954102,-0.187012
1480607571754123,-0.360352,-0.908691,-0.189453
1480607571772174,-0.331543,-0.924316,-0.19043
1480607571791724,-0.308594,-0.950684,-0.209473
1480607571814283,-0.352539,-0.97998,-0.209473
1480607571831830,-0.345215,-0.966797,-0.197754
1480607571852886,-0.350586,-0.928711,-0.199219
1480607571881463,-0.334961,-0.902344,-0.20459
1480607571891990,-0.319336,-0.917969,-0.208496
1480607571913046,-0.327148,-0.952148,-0.203125
1480607571934103,-0.333008,-0.974609,-0.188477
1480607571952150,-0.34375,-0.969727,-0.187012
1480607571979224,-0.350098,-0.934082,-0.191406
1480607571994263,-0.32666,-0.907715,-0.192871
1480607572012313,-0.31543,-0.936523,-0.197266
1480607572032865,-0.349121,-0.951172,-0.19043
1480607572053922,-0.330078,-0.94873,-0.194336
1480607572071970,-0.317383,-0.96875,-0.19873
1480607572093025,-0.369141,-0.943359,-0.207031
1480607572123106,-0.342773,-0.931152,-0.197754
1480607572132129,-0.31543,-0.93457,-0.205566
1480607572153185,-0.321777,-0.936523,-0.196777
1480607572174241,-0.333496,-0.946777,-0.189941
1480607572192289,-0.33252,-0.946289,-0.194336
1480607572214347,-0.326172,-0.960449,-0.192383
1480607572234401,-0.347656,-0.959961,-0.202637
1480607572251948,-0.358887,-0.937012,-0.194824
1480607572280524,-0.311035,-0.911133,-0.194336
1480607572294059,-0.302246,-0.938965,-0.195801
1480607572312110,-0.334961,-0.958984,-0.206055
1480607572339180,-0.338867,-0.950195,-0.205078
1480607572354219,-0.330566,-0.943359,-0.213867
1480607572372268,-0.339355,-0.943848,-0.202637
1480607572394831,-0.325684,-0.944336,-0.198242
1480607572413878,-0.333496,-0.941895,-0.210449
1480607572431927,-0.331543,-0.938477,-0.216309
1480607572454988,-0.331055,-0.942871,-0.209961
1480607572475542,-0.322266,-0.943359,-0.208984
1480607572492087,-0.325684,-0.946289,-0.208008
1480607572514647,-0.338379,-0.937012,-0.203125
1480607572534199,-0.32666,-0.933105,-0.210449
1480607572559767,-0.324219,-0.933105,-0.211914
1480607572574807,-0.336426,-0.952148,-0.212891
1480607572594358,-0.347656,-0.944824,-0.206543
1480607572616921,-0.330078,-0.950195,-0.203125
1480607572634466,-0.314453,-0.955078,-0.192383
1480607572654017,-0.298828,-0.94873,-0.193359
1480607572672066,-0.335938,-0.929688,-0.208008
1480607572694628,-0.345703,-0.931152,-0.216309
1480607572714178,-0.347168,-0.947266,-0.211426
1480607572732226,-0.331055,-0.963379,-0.210449
1480607572754785,-0.3125,-0.958496,-0.214844
1480607572775841,-0.312988,-0.945801,-0.218262
1480607572796396,-0.324707,-0.922852,-0.218262
1480607572814444,-0.337891,-0.919922,-0.22168
1480607572843020,-0.333984,-0.936523,-0.211914
1480607572852044,-0.334473,-0.961426,-0.213867
1480607572879116,-0.333496,-0.960449,-0.216309
1480607572895660,-0.317871,-0.942871,-0.213379
1480607572912205,-0.319824,-0.918945,-0.215332
1480607572934263,-0.325684,-0.924316,-0.212402
1480607572955820,-0.321289,-0.941406,-0.202637
1480607572971863,-0.316895,-0.960449,-0.202637
1480607572994423,-0.341309,-0.953125,-0.207031
1480607573015479,-0.345215,-0.939453,-0.216797
1480607573036535,-0.333984,-0.941895,-0.223633
1480607573054583,-0.319336,-0.933105,-0.221191
1480607573075639,-0.3125,-0.937988,-0.214844
1480607573096695,-0.316895,-0.933594,-0.210938
1480607573114743,-0.338379,-0.946289,-0.21582
1480607573137303,-0.349609,-0.953613,-0.217773
1480607573156855,-0.336914,-0.949707,-0.21875
1480607573174402,-0.312012,-0.932617,-0.213867
1480607573196962,-0.308594,-0.934082,-0.208984
1480607573216516,-0.322754,-0.944824,-0.210449
1480607573234562,-0.345215,-0.946777,-0.214355
1480607573257122,-0.34375,-0.953613,-0.211914
1480607573276674,-0.339355,-0.948242,-0.212402
1480607573294725,-0.321777,-0.92041,-0.216797
1480607573317287,-0.311523,-0.929199,-0.214844
1480607573336834,-0.330566,-0.939453,-0.219727
1480607573362403,-0.327637,-0.942383,-0.214355
1480607573376941,-0.317383,-0.956543,-0.215332
1480607573396493,-0.338867,-0.947266,-0.209473
1480607573414541,-0.331055,-0.928223,-0.216797
1480607573437101,-0.326172,-0.933594,-0.210938
1480607573456652,-0.338867,-0.935547,-0.214355
1480607573474701,-0.336426,-0.941895,-0.21875
1480607573497262,-0.313965,-0.949219,-0.214844
1480607573516813,-0.311035,-0.95459,-0.214355
1480607573534360,-0.336426,-0.943359,-0.209473
1480607573556919,-0.344727,-0.938477,-0.206055
1480607573579480,-0.32959,-0.938477,-0.205078
1480607573594521,-0.324707,-0.915527,-0.233398
1480607573621591,-0.330078,-0.907227,-0.222656
1480607573636631,-0.336426,-0.932617,-0.222168
1480607573654679,-0.32959,-0.991211,-0.207031
1480607573684767,-0.341309,-0.97998,-0.212402
1480607573696791,-0.331055,-0.928223,-0.220215
1480607573714338,-0.331055,-0.894531,-0.224609
1480607573736899,-0.33252,-0.914551,-0.214355
1480607573757954,-0.348145,-0.963379,-0.21875
1480607573796055,-0.389648,-0.972168,-0.22168
1480607573798564,-0.374512,-0.975586,-0.213379
1480607573834157,-0.345215,-0.971191,-0.199219
1480607573839171,-0.32373,-0.937988,-0.20166
1480607573856216,-0.279785,-0.895996,-0.19873
1480607573878778,-0.301758,-0.870117,-0.205078
1480607573899832,-0.311035,-0.921387,-0.200195
1480607573916376,-0.306152,-0.974121,-0.183594
1480607573944969,-0.3125,-0.999512,-0.181152
1480607573961500,-0.333496,-0.972656,-0.197754
1480607573976034,-0.382324,-0.913574,-0.211426
1480607573997091,-0.366699,-0.904785,-0.202637
1480607574013635,-0.304688,-0.944336,-0.186523
1480607574036194,-0.302246,-0.972656,-0.179688
1480607574060259,-0.333008,-0.967773,-0.190918
1480607574073294,-0.335449,-0.941406,-0.200684
1480607574103875,-0.338867,-0.929199,-0.207031
1480607574118915,-0.343262,-0.924805,-0.202148
1480607574132952,-0.332031,-0.946777,-0.193359
1480607574157016,-0.326172,-0.957031,-0.191895
1480607574179079,-0.333984,-0.968262,-0.195313
1480607574199629,-0.328613,-0.961426,-0.184082
1480607574216174,-0.325195,-0.939941,-0.180664
1480607574238734,-0.32666,-0.921875,-0.191406
1480607574259789,-0.339844,-0.928711,-0.198242
1480607574283853,-0.334473,-0.947754,-0.19043
1480607574298893,-0.326172,-0.964844,-0.206055
1480607574337497,-0.324219,-0.960449,-0.195313
1480607574343011,-0.329102,-0.933594,-0.195313
1480607574358552,-0.325195,-0.92334,-0.199219
1480607574373092,-0.32373,-0.930176,-0.195313
1480607574396152,-0.328613,-0.946289,-0.201172
1480607574418712,-0.328125,-0.963867,-0.194336
1480607574433251,-0.338867,-0.962402,-0.194336
1480607574456312,-0.342285,-0.947754,-0.191406
1480607574478876,-0.336426,-0.941406,-0.189453
1480607574499928,-0.329102,-0.931152,-0.191406
1480607574516472,-0.324707,-0.938965,-0.192383
1480607574538532,-0.323242,-0.948242,-0.186523
1480607574559586,-0.324219,-0.960938,-0.183594
1480607574576135,-0.334473,-0.953613,-0.181641
1480607574598691,-0.32666,-0.941406,-0.185547
1480607574619746,-0.336914,-0.927246,-0.19873
1480607574636793,-0.314941,-0.946777,-0.20459
1480607574658850,-0.341309,-0.956055,-0.202148
1480607574679907,-0.344727,-0.957031,-0.200195
1480607574709988,-0.324707,-0.956055,-0.200684
1480607574718510,-0.338379,-0.939941,-0.194336
1480607574740067,-0.32959,-0.927246,-0.19043
1480607574756110,-0.327637,-0.933105,-0.200684
1480607574779173,-0.328613,-0.944336,-0.196289
1480607574799725,-0.335938,-0.950195,-0.194824
1480607574816277,-0.333008,-0.960938,-0.193359
1480607574838830,-0.32959,-0.956055,-0.185547
1480607574859887,-0.32959,-0.945313,-0.19043
1480607574876430,-0.333008,-0.926758,-0.194336
1480607574898490,-0.327637,-0.9375,-0.197754
1480607574920046,-0.330566,-0.943848,-0.203125
1480607574942104,-0.331055,-0.95459,-0.208984
1480607574959151,-0.334473,-0.953125,-0.203125
1480607574981210,-0.330566,-0.946289,-0.200195
1480607574996248,-0.327637,-0.934082,-0.199707
1480607575018808,-0.319824,-0.937012,-0.206543
1480607575041369,-0.323242,-0.935059,-0.209473
1480607575056408,-0.330078,-0.945313,-0.204102
1480607575078970,-0.341309,-0.952148,-0.212402
1480607575101027,-0.34082,-0.945801,-0.209961
1480607575116573,-0.334473,-0.942383,-0.206055
1480607575138628,-0.324219,-0.935059,-0.202637
1480607575168708,-0.320313,-0.933594,-0.202637
1480607575175726,-0.318359,-0.923828,-0.216797
1480607575214329,-0.338379,-0.929199,-0.212402
1480607575221347,-0.339844,-0.976074,-0.218262
1480607575235385,-0.341309,-0.994629,-0.206543
1480607575258948,-0.345703,-0.95459,-0.197754
1480607575287022,-0.350586,-0.907715,-0.209961
1480607575295545,-0.335938,-0.912109,-0.21582
1480607575318606,-0.313965,-0.940918,-0.209961
1480607575341166,-0.31543,-0.958984,-0.211914
1480607575362222,-0.322754,-0.959473,-0.20166
1480607575378767,-0.338379,-0.938477,-0.211426
1480607575401327,-0.341797,-0.91748,-0.211914
1480607575422382,-0.331543,-0.919922,-0.215332
1480607575438927,-0.313965,-0.942383,-0.208496
1480607575461486,-0.321777,-0.957031,-0.202148
1480607575483546,-0.336914,-0.957031,-0.196777
1480607575498586,-0.331543,-0.95166,-0.199219
1480607575521145,-0.333984,-0.936523,-0.200684
1480607575542201,-0.339844,-0.928711,-0.20752
1480607575558745,-0.334473,-0.917969,-0.205566
1480607575581305,-0.32666,-0.938477,-0.203613
1480607575601860,-0.318848,-0.968262,-0.200684
1480607575618905,-0.325195,-0.969727,-0.20752
1480607575640964,-0.333496,-0.941895,-0.211914
1480607575662521,-0.333496,-0.922852,-0.211914
