timestamp,x,y,z
1480607524154475,-0.625,-0.875,-0.5
1480607524160993,0.4375,-0.5625,-0.125
1480607524174527,0.5625,-0.3125,0.25
1480607524197087,-0.8125,-0.125,0.5625
1480607524212127,-1.625,0.3125,0.5625
1480607524228171,-0.1875,0.625,0.4375
1480607524249226,1.75,0.8125,0.375
1480607524274794,0.8125,0.375,0.125
1480607524290838,-0.5625,0.1875,-0.125
1480607524309387,-0.25,0.1875,-0.0625
1480607524339471,-0.625,0,0.125
1480607524349995,-1,0,-0.0625
1480607524369546,-0.375,0,-0.375
1480607524392107,1.125,0.0625,-0.25
1480607524440235,2.1875,-0.1875,-0.3125
1480607524445749,0.625,-0.4375,-0.4375
1480607524475328,-0.5625,-0.625,-0.25
1480607524484854,-0.5625,-0.5,-0.25
1480607524489365,-0.6875,-0.5,-0.375
1480607524519446,-0.125,-0.25,-0.375
1480607524534485,0.375,0,-0.625
1480607524551029,0.8125,-0.0625,-0.4375
1480607524572086,1.1875,-0.4375,-0.0625
1480607524595648,0,-0.375,0.125
1480607524618208,-1.625,-0.25,0.1875
1480607524631744,-0.9375,-0.3125,0.375
1480607524654807,0,0.0625,0.3125
1480607524669345,0.125,0.1875,0.3125
1480607524694912,-0.375,0.3125,0.3125
1480607524715967,-0.4375,0.5,0.375
1480607524745046,-0.75,0.75,0.3125
1480607524759584,0.0625,0.625,0.6875
1480607524783147,0.25,0.5,0.3125
1480607524797184,-0.5,0.1875,0
1480607524819746,-0.1875,-0.125,-0.0625
1480607524834283,0.875,-0.3125,-0.25
1480607524849322,0.8125,-0.75,-0.375
1480607524874891,-0.3125,-0.875,-0.5
1480607524897452,-0.3125,-0.875,-1
1480607524909483,0.5625,-0.6875,-0.9375
1480607524932043,1.6875,-0.5625,-0.8125
1480607524954603,1,-0.75,-0.3125
1480607524969645,-0.625,-0.875,0
1480607524991701,-0.4375,-0.5625,0.1875
1480607525031306,0.1875,0.0625,0.625
1480607525033814,-1.1875,0.125,0.5625
1480607525051861,-2,0.4375,0.3125
1480607525074421,-0.25,0.5,0.3125
1480607525089461,0.625,0.4375,0.4375
1480607525112021,0.4375,0.875,0.5625
1480607525134584,-0.6875,0.8125,0.25
1480607525158646,-1.0625,0.5,-0.5
1480607525172183,0.1875,0.25,-0.3125
1480607525203769,1.75,0,-0.0625
1480607525219809,1.1875,-0.25,-0.3125
1480607525231840,-0.5,-1,-0.375
1480607525263926,-0.875,-1.125,-0.8125
1480607525270945,0.375,-0.625,-0.625
1480607525295009,0.3125,-0.5,-0.9375
1480607525314561,-0.5,-0.75,-0.5625
1480607525338625,0.875,-0.625,-0.25
1480607525351659,1.375,-0.375,0.125
1480607525382742,-1.1875,-0.25,0.1875
1480607525396779,-1.875,-0.0625,0.1875
1480607525411819,-0.625,0.5,0.3125
1480607525442400,0.875,0.375,0.625
1480607525450923,0.3125,0.5,0.5
1480607525471980,-0.9375,0.5,0.3125
1480607525494539,-1.3125,0.4375,0.1875
1480607525511084,-0.625,0.5,0.1875
1480607525539661,-0.25,0.3125,0.3125
1480607525554201,-0.3125,0.0625,-0.125
1480607525570743,0.5625,-0.125,-0.125
1480607525591798,1.25,-0.0625,-0.0625
1480607525617366,0.625,-0.3125,-0.0625
1480607525630902,-1.0625,-0.625,0.0625
1480607525651958,-0.6875,-0.625,0.25
1480607525674519,-0.25,-0.6875,0.1875
1480607525705601,-0.25,-0.5625,0.125
1480607525712119,0.25,-0.4375,-0.0625
1480607525734177,0.4375,-0.3125,-0.25
1480607525752225,-0.3125,-0.4375,-0.0625
1480607525779297,-0.8125,-0.5625,-0.0625
1480607525794337,-1.125,-0.5625,-0.125
1480607525819905,-0.3125,-0.5625,0.1875
1480607525831939,-0.25,-0.375,0.25
1480607525854499,-0.3125,-0.3125,0.375
1480607525872545,-0.0625,-0.0625,0.5625
1480607525895105,-1.125,0,0.5625
1480607525914657,-1.6875,0.1875,0.25
1480607525939724,-0.4375,0.5,0.25
1480607525951755,-0.1875,0.3125,0.25
1480607525981836,-0.875,0.0625,-0.1875
1480607526005900,-0.6875,-0.3125,-0.25
1480607526011916,-0.0625,-0.1875,-0.5625
1480607526050518,1.1875,-0.4375,-0.75
1480607526065057,2.3125,-0.75,-0.875
1480607526073581,1.875,-0.875,-1.125
1480607526097142,0.875,-0.875,-0.8125
1480607526118199,-0.125,-0.875,-1.0625
1480607526139255,-0.0625,-0.4375,-1.125
1480607526154295,1.3125,-0.125,-0.8125
1480607526185879,1.5625,-0.375,-0.875
1480607526191895,1.3125,-0.125,-0.25
1480607526215959,1,0,-0.125
1480607526237016,0.0625,-0.25,-0.3125
1480607526252055,-0.375,-0.5,-0.4375
1480607526285644,0.75,-0.1875,-0.5
1480607526297174,2.0625,0.1875,-0.625
1480607526329761,1.75,0.1875,-0.75
1480607526334273,0.5625,0.125,-0.8125
1480607526356833,0.3125,0.375,-0.75
1480607526373378,1.125,0.6875,-0.5625
1480607526395937,1.1875,0.75,-0.75
1480607526416993,1.1875,0.5625,-0.5625
1480607526433538,1.5625,0.0625,-0.5
1480607526462114,0.9375,-0.1875,-0.5625
1480607526477154,1,-0.625,-0.625
1480607526493196,1.375,-0.625,-0.5625
1480607526514252,0.625,-0.8125,-1.0625
1480607526537317,-0.4375,-0.875,-1.1875
1480607526562380,0.5,-0.875,-1.0625
1480607526574413,1.25,-0.625,-0.5
1480607526606499,0.625,-0.625,-0.25
1480607526613516,-0.3125,-0.5625,-0.0625
1480607526642093,-0.5,-0.3125,0.4375
1480607526657132,-1,-0.1875,0.5
1480607526674679,-1.3125,-0.0625,0.1875
1480607526697239,-0.0625,0,0.25
1480607526724310,1.3125,0.125,0.25
1480607526734839,-0.125,-0.0625,0.0625
1480607526754391,-0.9375,-0.25,0.0625
1480607526784470,0.125,-0.25,0.375
1480607526794999,-0.0625,-0.25,0.375
1480607526830593,-1.125,-0.625,0.4375
1480607526837113,0.125,-0.5625,0
1480607526854658,1.1875,-0.3125,-0.0625
1480607526877217,-0.0625,-0.375,-0.125
1480607526896769,-0.8125,-0.75,-0.5625
1480607526922839,-0.4375,-0.9375,-1
1480607526934369,-0.625,-1.0625,-0.875
1480607526964450,0.0625,-1.0625,-0.8125
1480607526974979,1.125,-1.0625,-0.5625
1480607526994530,0.625,-1.0625,-0.3125
1480607527017090,-0.75,-1,-0.125
1480607527035640,-1.1875,-0.6875,-0.125
1480607527063213,-0.375,-0.375,0.375
1480607527076748,-0.1875,-0.5625,0.4375
1480607527099308,0,-0.25,-0.0625
1480607527115853,1.125,0,0
1480607527139918,0.875,0.3125,-0.1875
1480607527169997,0.0625,-0.125,-0.3125
1480607527174510,0,-0.1875,-0.375
1480607527197068,0.375,-0.1875,-0.375
1480607527215116,0,-0.4375,-0.25
1480607527236176,-0.25,-0.6875,-0.25
1480607527256727,0.25,-0.625,-0.125
1480607527280792,0.75,-0.5625,-0.625
1480607527295831,0.6875,-0.625,-0.5625
1480607527324408,0.5625,-1,-0.75
1480607527340952,0.25,-0.875,-0.8125
1480607527355992,0,-0.9375,-0.625
1480607527387576,-0.25,-1,-0.375
1480607527399607,-0.25,-0.875,-0.0625
1480607527415650,0.5,-0.5625,0
1480607527436709,0.5625,-0.375,0.1875
1480607527459266,0.1875,-0.125,0
1480607527483330,-0.0625,-0.25,0.125
1480607527496866,0.125,-0.4375,0.25
1480607527522440,-0.125,-0.5625,0.3125
1480607527537476,-0.875,-0.5,0.125
1480607527560034,-0.1875,-0.5625,0.25
1480607527582094,-0.25,-0.375,-0.125
1480607527620199,-1,-0.5625,-0.25
1480607527628216,-0.125,-0.75,-0.1875
1480607527639247,1.125,-0.875,-0.125
1480607527663309,1.125,-0.875,0
1480607527676846,-0.625,-1.0625,0
1480607527718455,-1.0625,-0.9375,0.1875
1480607527723470,-0.5,-0.5,0
1480607527737009,-0.25,-0.4375,0.4375
1480607527761069,-0.3125,-0.375,0.4375
1480607527777112,-0.8125,-0.25,0.0625
1480607527799672,-0.8125,-0.375,0.5625
1480607527819726,-0.5,-0.375,0.5625
1480607527838276,-0.875,-0.375,0.375
1480607527856824,-1.3125,-0.4375,0.1875
1480607527879383,-0.375,-0.375,0.125
1480607527897432,0.3125,-0.3125,-0.125
1480607527916983,0.25,-0.25,0
1480607527942552,-0.8125,-0.5,-0.0625
1480607527957092,-1.75,-0.625,-0.125
1480607527977144,-0.375,-0.375,-0.125
1480607527999704,0.75,-0.1875,-0.0625
1480607528023268,0.125,-0.3125,-0.0625
1480607528039812,-0.5625,-0.25,-0.25
1480607528059362,-0.5625,-0.3125,-0.0625
1480607528077411,-0.25,-0.1875,-0.1875
1480607528096962,-0.1875,-0.4375,-0.3125
1480607528119526,0.4375,-0.3125,-0.5
1480607528137572,1.125,-0.3125,-0.4375
1480607528158626,0.6875,-0.1875,-0.3125
1480607528179182,0.125,-0.5625,-0.3125
1480607528197230,0.4375,-0.5,-0.5
1480607528227309,0.75,-0.4375,-0.5
1480607528239342,0.5625,-0.5,-0.25
1480607528261901,0.375,-0.5,-0.125
1480607528279950,-0.125,-0.375,0.0625
1480607528299501,-0.5625,-0.375,0.0625
1480607528317550,0.0625,-0.125,0.125
1480607528344621,0.8125,-0.0625,0.125
1480607528359661,0.6875,0.125,0.25
1480607528377209,0.8125,0.0625,0.0625
1480607528398264,-0.5625,-0.125,-0.1875
1480607528419325,0.75,-0.1875,-0.3125
1480607528451406,1.625,-0.375,-0.25
1480607528458424,-0.125,-0.6875,-0.0625
1480607528479981,-0.875,-0.625,-0.125
1480607528497528,-0.25,-0.0625,-0.0625
1480607528520092,-0.5625,0.1875,0.125
1480607528549667,-0.5,-0.0625,0.3125
1480607528557188,-0.25,0.125,0.4375
1480607528579747,-0.4375,0.5,0.75
1480607528599299,-1.25,0.625,0.625
1480607528617347,-0.875,0.75,0.6875
1480607528639909,-0.375,0.75,0.5
1480607528666979,-0.125,0.8125,0.1875
1480607528677507,0.3125,0.6875,-0.0625
1480607528700068,1.1875,0.625,-0.125
1480607528727139,0.3125,0.3125,-0.25
1480607528737166,-0.875,-0.125,-0.3125
1480607528759725,0.5,-0.3125,-0.375
1480607528782287,1.1875,-0.625,-0.3125
1480607528797326,0.375,-0.9375,-0.25
1480607528819886,0.5625,-0.8125,-0.5625
1480607528839438,1,-0.5625,-0.6875
1480607528861998,-0.125,-0.4375,-0.125
1480607528880046,-0.25,-0.375,0.1875
1480607528902106,-0.5625,-0.125,0.4375
1480607528922161,-0.9375,0.375,0.9375
1480607528939710,-0.375,0.9375,1.125
1480607528959257,-0.375,1.375,1.1875
1480607528981817,-1.6875,1.5,0.9375
1480607529005885,-0.6875,1.125,1
1480607529026936,0.625,0.75,1
1480607529041978,0.4375,0.25,0.75
1480607529060025,-1,-0.5625,0.5
1480607529087101,-1.9375,-1,-0.25
1480607529102141,-0.25,-0.875,-0.1875
1480607529124195,0.875,-1.0625,-0.0625
1480607529140742,0.1875,-1.375,-0.0625
1480607529161795,-0.125,-1.4375,0
1480607529179844,-0.5625,-0.9375,0.0625
1480607529200900,-1.0625,-0.625,0.625
1480607529223461,-1.3125,-0.4375,0.3125
1480607529240004,-0.5625,-0.1875,-0.25
1480607529261060,1.375,0.75,0.0625
1480607529282115,1.25,1.125,-0.125
1480607529299662,-0.0625,0.8125,-0.0625
1480607529328238,-0.25,0.625,0.25
1480607529341774,0.4375,0.625,0.625
1480607529360324,-0.25,0.9375,0.125
1480607529382382,-1.125,1.1875,-0.0625
1480607529401935,-0.625,0.75,0.0625
1480607529419986,-0.1875,0.375,0.25
1480607529441039,-0.0625,0.125,0.25
1480607529469619,-0.3125,-0.0625,0.3125
1480607529492174,-1.0625,-0.125,0.125
1480607529502202,-1.4375,-0.25,-0.0625
1480607529521756,-0.6875,-0.3125,0.125
1480607529539802,0.125,-0.0625,0.3125
1480607529568377,0.4375,0,0.0625
1480607529581913,-1.0625,-0.25,0
1480607529599963,-1.25,-0.1875,-0.375
1480607529622521,-0.125,-0.125,-0.1875
1480607529642074,0.3125,-0.0625,-0.25
1480607529659620,-0.8125,-0.25,-0.125
1480607529682180,-0.9375,-0.25,-0.3125
1480607529701734,0,0,-0.5625
1480607529719782,0.75,-0.0625,-0.5
1480607529757381,0.9375,-0.1875,-0.3125
1480607529761892,0.375,-0.25,-0.375
1480607529779940,-0.8125,-0.1875,-0.6875
1480607529802501,-0.6875,0.125,-0.8125
1480607529824558,1.625,0.1875,-0.75
1480607529839599,2.0625,-0.0625,-0.625
1480607529862159,1.4375,0.0625,-0.3125
1480607529881711,0.5625,0.25,-0.1875
1480607529899760,-1.375,0.0625,0.125
1480607529929839,-1.75,0.125,0.1875
1480607529941871,-0.25,0.5,0
1480607529959919,0,0.5625,0.375
1480607529982480,-0.1875,0.5625,-0.0625
1480607530002033,-0.375,0.5625,-0.375
1480607530020095,-0.3125,0.4375,-0.5
1480607530042138,0.125,0.1875,-0.875
1480607530062190,0.5,-0.3125,-0.5
1480607530079738,0.6875,-0.75,-0.6875
1480607530102801,0.375,-0.9375,-0.5625
1480607530123354,0.0625,-0.875,-0.9375
1480607530139898,0.1875,-0.8125,-1
1480607530162457,0.1875,-0.8125,-1.375
1480607530184015,0.8125,-0.9375,-1.4375
1480607530200057,1.75,-0.625,-0.8125
1480607530222116,0.6875,-0.25,-0.5
1480607530243172,-1.375,-0.0625,-0.3125
1480607530259716,-1.875,-0.125,0.375
1480607530282277,-0.625,0.1875,0.75
1480607530303333,-0.1875,0.625,0.6875
1480607530331908,-0.9375,0.625,0.5625
1480607530342437,-0.5625,0.4375,0.125
1480607530363493,0.8125,0.3125,0.125
1480607530384549,0.875,0.125,-0.5
1480607530402096,0.5625,-0.25,-0.625
1480607530425157,0.5625,-0.5625,-1.3125
1480607530444207,1.0625,-0.75,-1.3125
1480607530462757,1.25,-0.75,-1.125
1480607530484816,1.4375,-0.625,-1.0625
1480607530504368,1.0625,-0.5625,-0.25
1480607530522415,-0.25,-0.4375,-0.5625
1480607530544975,-0.25,0,-0.6875
1480607530564530,1.25,0.25,0.0625
1480607530582075,1.8125,0.25,0.25
1480607530604635,0.9375,0.1875,-0.125
1480607530625690,-0.75,-0.1875,-0.125
1480607530642235,-2.5625,-0.6875,-0.3125
1480607530669808,-1.75,-0.875,-0.3125
1480607530684346,-0.375,-0.5625,-0.375
1480607530702395,1.1875,0,-0.125
1480607530724954,2,-0.25,0.625
1480607530744506,0.625,-0.1875,2.125
1480607530770075,-1.5,0.25,0
1480607530785115,-2.125,0.375,-1
1480607530804167,1.625,-1.375,-0.3125
1480607530826724,4.3125,-1,1.5
1480607530844773,0.75,-0.875,-0.3125
1480607530864325,-3.8125,-0.625,0.1875
1480607530889893,-1.6875,0,0.0625
1480607530904934,-0.125,-0.625,0.5625
1480607530924485,-1.0625,-0.75,0
1480607530942533,-1.5,-0.8125,-0.3125
1480607530964592,0.25,-0.1875,-0.6875
1480607530994672,0.125,-0.125,-0.0625
1480607531002192,0.25,0.25,0.875
1480607531024751,0.375,0.25,0.8125
1480607531045809,-1.5625,-0.0625,0.4375
1480607531062352,-1.6875,-0.0625,0.125
1480607531092432,-0.375,-0.375,1
1480607531105969,2.3125,1.3125,1.9375
1480607531122514,2.75,1.3125,2.1875
1480607531144070,7.25,0.8125,2.9375
1480607531165125,11.3125,1.25,3.125
1480607531181669,9.375,0.5625,-0.4375
1480607531204230,6.5,-1.625,-2.4375
1480607531226288,12.5,-1.0625,-0.625
1480607531247344,13.5,0.0625,0.4375
1480607531263888,6.8125,1.1875,1.9375
1480607531284945,-2.875,3.625,0.75
1480607531301489,-6.4375,3.875,-0.125
1480607531331568,-2.9375,4.125,0.5625
1480607531345104,-0.5,1.25,-1.3125
1480607531360646,7.25,2.75,1.25
1480607531385212,6.5,4.5,1.5625
1480607531413787,-3.375,2.5,0.25
1480607531420807,-9.9375,1.625,-0.375
1480607531445371,-6.3125,2.75,-0.5625
1480607531466427,1.25,4,0.4375
1480607531487484,-2.9375,1.75,-0.4375
1480607531504030,-7.5625,-0.625,-1.9375
1480607531526587,-1.25,-1.5,-1.125
1480607531556667,4,-0.5,0.875
1480607531564687,1.375,3.1875,2.6875
1480607531586748,-13.3125,4.25,0.75
1480607531607807,-22.125,2.5,-3.5625
1480607531623846,-17.125,0.75,-3.375
1480607531646406,-7.5,-1.1875,-1
1480607531667461,-5.625,-1.125,-1.0625
1480607531691526,-7.25,-1,0.875
1480607531706566,-10.375,1.5625,1.625
1480607531735142,-11.75,1.875,-0.875
1480607531744166,-7.5625,-0.4375,-1.5
1480607531782267,-3.125,-4.75,-2.875
1480607531787782,2.5625,-6.1875,-2.875
1480607531804330,4.25,-3.25,-1.125
1480607531826384,5.125,-1.125,0.8125
1480607531847440,3.3125,-0.25,2.375
1480607531863984,5.3125,0.125,5.25
1480607531886544,2.875,1.3125,6.1875
1480607531907604,-5.5625,2.5625,5.75
1480607531930160,-9.5625,4.6875,7.5625
1480607531947206,-8.125,8.8125,11
1480607531967760,-9.0625,10.6875,11.3125
1480607531984304,-11.4375,9.6875,5
1480607532013883,-8,5.1875,0.1875
1480607532027418,12,1.5,6.0625
1480607532043963,31.9375,-1.25,9.8125
1480607532066524,29.6875,-0.875,3.4375
1480607532087579,9.8125,-0.3125,-2.1875
1480607532104125,-6.1875,-1.375,-5.375
1480607532126683,-4.125,-3.75,-1.125
1480607532147739,12.625,-11.125,1.5
1480607532163782,21.625,-15.25,-1.3125
1480607532186347,13.6875,-12,-3.5
1480607532208902,7.125,-7.1875,-2.1875
1480607532223442,0.4375,-0.375,-2.625
1480607532246502,-4.875,5.125,-2.8125
1480607532267558,-8.8125,5.75,-3.625
1480607532291623,-11.5625,2.9375,-4
1480607532306663,-12.5,1.875,-5.875
1480607532329723,-10.875,-1.0625,-5.25
1480607532345265,-8.0625,-0.875,-2.5625
1480607532366320,-9.125,2,0.25
1480607532388884,-9.5625,2.8125,1.5625
1480607532409937,-6.6875,1.9375,-1.5625
1480607532426481,-8.375,3,-3.25
1480607532449041,-10.6875,0,-4.1875
1480607532470099,-4.0625,-1.6875,0.25
1480607532486643,-2.1875,-0.625,0.5625
1480607532509201,-4.6875,-1.9375,0.5625
1480607532523239,-4.9375,-2.0625,0.1875
1480607532552316,-3,-1.25,0.3125
1480607532569361,1.4375,-2.125,1.8125
1480607532583398,4,-1.3125,2.6875
1480607532613979,5.0625,-0.625,1.75
1480607532629020,4.1875,0,1.8125
1480607532643560,0.625,0.6875,0.1875
1480607532667120,-1,-1,-0.6875
1480607532712743,1,-1.625,-1.5625
1480607532717756,3.375,-0.875,0.8125
1480607532726278,4.125,-0.5625,2.9375
1480607532755360,5.6875,-0.375,1.5
1480607532763377,8.3125,0.5625,1.875
1480607532786439,9.75,2.5625,1.1875
1480607532809500,4.8125,3.5,0.375
1480607532830054,-0.0625,1.625,-0.5
1480607532846598,-1.4375,-0.3125,-0.9375
1480607532877180,-2.625,-0.9375,-0.625
1480607532891718,-3.5,-0.1875,-1.0625
1480607532906258,-1.1875,1.4375,0.6875
1480607532944860,2.25,2.125,2.4375
1480607532949873,2.25,1.75,-0.6875
1480607532966919,1.75,1.4375,-1
1480607532988979,-0.75,0.75,-0.0625
1480607533010034,2.75,-0.875,0.75
1480607533026577,5.4375,-1.1875,2.5
1480607533049137,-0.125,0.625,1
1480607533077713,-9.9375,3.25,0.3125
1480607533086738,-11.4375,3.125,-1.5625
1480607533108797,-3.625,2.5,-2.8125
1480607533129862,-8.0625,-3.1875,-5.9375
1480607533153926,-6.9375,-0.625,-2.6875
1480607533169477,4.5625,-2.3125,4.0625
1480607533190023,8.5,5.0625,7.75
1480607533214087,-8.4375,2.875,-2
1480607533229126,-5.75,1.75,-2.375
1480607533250182,8.3125,1.125,-3.1875
1480607533266726,16.5,-2.0625,0.3125
1480607533289289,15.9375,-2.125,-2.625
1480607533311847,5.875,-0.6875,-2.625
1480607533326385,-5.75,0.3125,0.5625
1480607533363988,-9.625,1.1875,-0.25
1480607533371506,-4.625,1.5625,-0.25
1480607533386547,2.75,2.5625,-0.1875
1480607533409105,6,1.125,-0.3125
1480607533431666,4.4375,0.4375,0.0625
1480607533445707,-0.125,-0.625,0.5
1480607533469266,-3.4375,-1,0.625
1480607533491825,-2.5625,-0.875,-0.1875
1480607533505864,-2.6875,0.25,-0.25
1480607533529425,1.875,-1.8125,1.0625
1480607533551985,6.375,-0.875,1.125
1480607533566023,3.125,-0.1875,-0.1875
1480607533589085,-7.25,-1.25,-3.5
1480607533611644,-9.4375,-3.3125,-2.4375
1480607533634204,-1.5,-5.6875,-2.0625
1480607533648742,1.625,-1.1875,2.25
1480607533686344,-7.625,2.25,4.4375
1480607533688855,-13.5,1.625,0.9375
1480607533709404,-7.875,0.8125,-2.125
1480607533731462,2.375,-0.4375,2.0625
1480607533746001,8.1875,-0.125,2
1480607533770068,4.25,-1,1.4375
1480607533791623,-4.25,-1.4375,0.6875
1480607533820201,-6.625,-0.625,1.1875
1480607533829223,-4.8125,-1.9375,-0.3125
1480607533851282,1.5,-1.6875,0.4375
1480607533872338,6.1875,-0.8125,1.3125
1480607533894898,6.125,-0.5625,1.0625
1480607533911442,3.4375,-1.375,0.9375
1480607533932497,-0.5,-3,-0.375
1480607533949042,0.5625,-5.75,0.0625
1480607533971602,5.0625,-6.9375,-2.1875
1480607533992657,10.5,-5.3125,-0.8125
1480607534009202,10.75,-0.875,2
1480607534054823,0.375,0.9375,2.0625
1480607534056828,-10.6875,-0.25,-0.125
1480607534070367,-11.5625,-1.1875,-2.25
1480607534099442,-3.125,-1,-1.8125
1480607534112476,2.375,1.375,-0.3125
1480607534144563,-0.5625,1.9375,0.75
1480607534151581,-11.125,2.3125,1.0625
1480607534172637,-19.6875,1.8125,-0.875
1480607534189183,-15.1875,2.1875,-0.8125
1480607534217757,-2.1875,1.9375,1.6875
1480607534234302,6.125,2.3125,1.5625
1480607534248839,5,2.0625,0.9375
1480607534271399,-0.9375,2.125,0.25
1480607534293960,-3.625,-0.3125,-0.75
1480607534309006,4.4375,-1.875,-0.5
1480607534331559,12.1875,-1.8125,-0.125
1480607534354123,12.75,-0.3125,0.5
1480607534368157,6.375,0.5625,0.6875
1480607534391724,0.5,1.1875,0.5625
1480607534413778,-2.8125,0.5625,0.1875
1480607534428316,-2.1875,0.625,-0.4375
1480607534451379,1.125,0.4375,-0.125
1480607534473939,4.5,-0.6875,-0.1875
1480607534488477,5.25,-1.0625,-1.4375
1480607534511538,5.8125,-2.125,-1.6875
1480607534541619,5.6875,-3.1875,-2.4375
1480607534548136,3.75,-2.9375,-3.25
1480607534571700,5.4375,-1.3125,-3.375
1480607534608798,6.25,-0.5,-4.625
1480607534611332,2.0625,0.8125,-1.9375
1480607534655421,-2.1875,0.3125,-0.625
1480607534659932,-5.0625,-1.4375,-1.9375
1480607534668457,-6.9375,-1.6875,-1.6875
1480607534699037,-2.875,-0.25,-1.5
1480607534714077,4.4375,1.75,0.4375
1480607534742653,6.75,1,-0.625
1480607534751678,3.5625,0.25,-1.0625
1480607534774239,-2,1.0625,-1.8125
1480607534794791,-6,0.5,-0.75
1480607534818858,-4.9375,-0.0625,-0.5
1480607534833895,0.125,-0.5625,-0.875
1480607534854954,3.6875,-0.5625,-0.75
1480607534871499,3.3125,0.375,-0.9375
1480607534894055,1.4375,0.625,-1
1480607534915111,-0.6875,-0.4375,-0.3125
1480607534931655,1.625,-0.5,0.375
1480607534954216,3.3125,-0.625,-0.1875
1480607534975272,3.5,-0.875,-0.125
1480607534991315,1.6875,-0.8125,-0.4375
1480607535013874,0.9375,-1.0625,-1
1480607535034931,0,-0.6875,-1.125
1480607535067016,-0.25,-0.25,-0.3125
1480607535074035,1.25,-0.0625,-0.5625
1480607535096594,2.5625,-0.375,-0.625
1480607535111635,2.3125,-0.625,-0.375
1480607535134197,-1,-0.1875,-0.1875
1480607535156257,-3.3125,-0.4375,-0.875
1480607535172798,-2.75,-0.875,-0.875
1480607535193858,-1.625,-1.125,-0.4375
1480607535216413,-1.5,-1.0625,-0.375
1480607535231453,-0.75,-0.8125,-0.5
1480607535254021,0.125,-0.3125,-0.5
1480607535276073,0,-0.5,-0.3125
1480607535298130,-0.25,-0.5625,-0.3125
1480607535314173,-0.5,-0.375,-0.75
1480607535336735,-0.0625,-0.75,-0.6875
1480607535350772,0.9375,-0.9375,-0.5625
1480607535373833,0.9375,-1.1875,-0.625
1480607535396392,0,-1.125,-0.75
1480607535410930,-1,-0.9375,-0.75
1480607535441513,-0.3125,-0.8125,-0.375
1480607535456552,0.375,-0.5625,0.25
1480607535471091,-0.375,-0.5,0.25
1480607535494151,-0.875,-0.25,-0.125
1480607535516712,0.1875,-0.1875,-0.1875
1480607535530749,1.125,0.1875,-0.1875
1480607535553810,0.75,0,-0.25
1480607535576872,0.25,-0.25,-0.4375
1480607535590910,-0.0625,-0.4375,-0.4375
1480607535621492,-0.0625,-0.625,-0.5625
1480607535637032,0.0625,-0.875,-0.5
1480607535665107,0,-0.8125,-0.375
1480607535674132,0.3125,-0.75,-0.4375
1480607535696691,0.375,-0.625,-0.25
1480607535717749,0.3125,-0.4375,0.0625
1480607535741309,-0.375,-0.4375,-0.5
1480607535763869,-0.1875,-0.375,-0.5625
1480607535777907,0.5,-0.3125,-0.5
1480607535801976,0.6875,-0.1875,-0.4375
1480607535816510,0.375,-0.375,-0.3125
1480607535837566,0.25,-0.5625,-0.3125
1480607535854110,0.6875,-0.375,0.125
1480607535876168,0.5625,-0.3125,0
1480607535897725,0.1875,-0.375,-0.375
1480607535913768,0.625,-0.5,-0.4375
1480607535936330,0.5,-0.625,-0.5
1480607535957384,-0.375,-0.8125,-0.8125
1480607535981448,0.5625,-0.6875,-0.9375
1480607535996489,1.625,-0.625,-0.5
1480607536025064,0.25,-0.5625,-0.625
1480607536035607,-1.25,-0.5625,-0.375
1480607536056649,-0.125,-0.0625,0
1480607536078206,0.5625,0.25,0.375
1480607536093748,-0.4375,0,0.4375
1480607536116307,-0.9375,0.3125,0.125
1480607536138867,-0.5,0.5625,0.1875
1480607536160926,0.1875,0.5625,0.25
1480607536176969,0.5,0.25,0.1875
1480607536198527,0.375,0.0625,0
1480607536221588,-0.625,-0.25,-0.3125
1480607536236628,-0.9375,-0.1875,-0.4375
1480607536266707,-0.75,-0.25,-0.375
1480607536273228,-0.5625,-0.3125,-0.125
1480607536296787,0.3125,-0.3125,-0.375
1480607536318852,1.4375,-0.25,-0.1875
1480607536333385,1.1875,-0.1875,-0.0625
1480607536356446,-0.4375,-0.4375,0.0625
1480607536379006,-1.75,-0.375,0
1480607536393545,-1.4375,-0.25,0.125
1480607536416606,-0.3125,-0.125,0.3125
1480607536439167,0.25,0.0625,0.3125
1480607536453204,0,0.3125,0.0625
1480607536477267,-0.5,0.3125,-0.25
1480607536498825,-0.25,0.3125,-0.1875
1480607536513364,0.375,0.1875,0
1480607536549960,0.375,-0.0625,0.1875
1480607536558984,0.125,-0.125,0.0625
1480607536573524,0,0,-0.0625
1480607536596585,0,-0.3125,0.125
1480607536619146,0.125,-0.25,0.1875
1480607536640201,0.0625,0,-0.125
1480607536656746,0.0625,-0.0625,0.125
1480607536678804,-0.1875,0,0.1875
1480607536699859,-0.875,0,0
1480607536716404,-1.1875,0,-0.1875
1480607536738964,0.1875,0,0
1480607536760020,1.0625,0.1875,-0.125
1480607536776564,-0.125,-0.25,-0.125
1480607536799124,-0.6875,-0.25,-0.0625
1480607536821684,-0.0625,0,0.0625
1480607536836725,-0.25,-0.25,0.1875
1480607536858782,-0.6875,-0.4375,-0.0625
1480607536879839,-0.3125,-0.375,0
1480607536896382,-0.125,-0.25,-0.0625
1480607536918942,-0.375,-0.25,-0.125
1480607536940000,-0.625,-0.3125,-0.375
1480607536964564,0.4375,-0.125,-0.125
1480607536979103,0.8125,0,-0.1875
1480607537000158,-0.25,0,0
1480607537016703,-1,0.0625,0.3125
1480607537061822,-1.0625,-0.0625,0.25
1480607537064329,-0.5625,0.1875,0.375
1480607537076361,0.375,0.4375,0.4375
1480607537104937,0.5625,0.5,0.3125
1480607537121482,0.0625,0.3125,0.1875
1480607537136522,-0.4375,0.0625,0.375
1480607537159082,-1.3125,0,0.125
1480607537181642,-0.9375,-0.0625,-0.0625
1480607537196681,-0.3125,-0.0625,0.0625
1480607537219244,0.125,0,0.0625
1480607537241300,0.875,0.0625,-0.125
1480607537255839,0.9375,0.125,-0.0625
1480607537278900,0.1875,0,-0.3125
1480607537301462,-0.3125,-0.3125,-0.4375
1480607537316500,-0.3125,-0.4375,-0.25
1480607537339063,-0.125,-0.375,-0.25
1480607537361621,-0.0625,-0.375,-0.3125
1480607537376661,0.25,-0.3125,-0.125
1480607537412756,0.3125,-0.25,-0.125
1480607537421279,-0.125,-0.0625,0.0625
1480607537435818,-0.625,-0.1875,0.1875
1480607537459380,0.0625,0,0.25
1480607537481440,0.375,0.25,0.1875
1480607537495977,-0.6875,0.0625,0.25
1480607537519039,-0.5625,0.375,0
1480607537541599,0.375,0.4375,0
1480607537562655,0.0625,0.0625,0.25
1480607537579199,-0.8125,-0.0625,0.0625
1480607537601761,-0.8125,-0.125,0.0625
1480607537622314,-0.25,-0.125,-0.0625
1480607537638859,0.0625,-0.125,-0.3125
1480607537661418,0.25,-0.375,-0.25
1480607537682975,0.8125,-0.375,-0.1875
1480607537699018,0.375,-0.3125,-0.4375
1480607537721578,-0.6875,-0.375,-0.625
1480607537742634,-0.1875,-0.25,-0.375
1480607537759177,0.3125,-0.25,-0.4375
1480607537781738,0.3125,-0.25,-0.1875
1480607537803796,0.8125,-0.1875,0.1875
1480607537849417,0.4375,-0.125,0.3125
1480607537851926,-1.0625,-0.1875,0.25
1480607537877994,-1.6875,-0.0625,0.3125
1480607537888020,-0.9375,0.3125,0.25
1480607537901556,-0.125,0.375,0.3125
1480607537922612,0.0625,0.5,0.3125
1480607537939158,-0.125,0.625,0.3125
1480607537961215,-0.0625,0.75,0.25
1480607537982271,0.0625,0.4375,0.0625
1480607537998816,0.125,0,-0.0625
1480607538021375,0.5,-0.1875,-0.3125
1480607538043936,0.0625,-0.625,-0.3125
1480607538058975,-0.25,-0.75,-0.5
1480607538081535,0.0625,-0.875,-0.75
1480607538104597,0.5,-0.875,-0.8125
1480607538119135,0.6875,-0.75,-0.375
1480607538141195,0.25,-0.4375,-0.3125
1480607538163754,-0.25,-0.4375,0.1875
1480607538178293,-0.6875,-0.1875,0.5
1480607538202357,-1.1875,0.0625,0.5
1480607538223914,-1.1875,0.4375,0.5
1480607538238454,-0.4375,0.625,0.4375
1480607538261515,0.0625,0.6875,0.4375
1480607538290090,0.3125,0.5625,0.125
1480607538298111,1.125,0.4375,0
1480607538321675,0.9375,0.25,0
1480607538344736,-1.125,-0.375,-0.375
1480607538358271,-0.375,-0.625,-0.3125
1480607538394869,1,-0.625,-0.375
1480607538405398,0.0625,-0.875,-0.4375
1480607538426453,-0.5625,-0.75,-1
1480607538441493,0.0625,-0.5625,-1
1480607538464053,0.75,-0.6875,-0.6875
1480607538478090,0.75,-0.75,-0.0625
1480607538507670,-0.5,-0.5,0.125
1480607538524215,-2,-0.1875,0.25
1480607538544768,-1.625,0.125,0.3125
1480607538561312,-0.5,0.6875,0.4375
1480607538583872,0.625,0.875,0.5625
1480607538604930,0.3125,0.8125,0.375
1480607538636512,-0.1875,0.5625,0.25
1480607538644032,0.375,0.3125,0.1875
1480607538674116,0.3125,-0.0625,0.0625
1480607538683136,0.125,-0.5625,-0.125
1480607538704693,0.125,-0.6875,-0.1875
1480607538725248,-0.25,-0.8125,-0.75
1480607538741291,-0.125,-0.875,-1
1480607538763850,0.8125,-0.75,-0.8125
1480607538784908,1.125,-0.625,-0.5
1480607538801455,0.0625,-0.4375,-0.0625
1480607538824011,-1.125,-0.1875,0.1875
1480607538845066,-0.6875,0,0.5
1480607538861611,0.25,0.4375,0.5625
1480607538884171,-0.125,0.5625,0.5625
1480607538906733,-0.6875,0.625,0.625
1480607538921270,-0.75,0.8125,0.3125
1480607538943830,0.125,0.5,0.375
1480607538966390,0.75,0.25,0.3125
1480607538981430,0.8125,0.125,0.0625
1480607539003991,0.5,0,-0.1875
1480607539026549,0.25,-0.375,-0.375
1480607539041595,0.3125,-0.625,-0.1875
1480607539063648,0.1875,-0.875,0.1875
1480607539094231,0.125,-0.875,0.25
1480607539101250,-0.5625,-0.8125,-0.3125
1480607539123809,-2.5,-0.5625,-0.1875
1480607539146368,-0.0625,0.0625,0.25
1480607539160907,-1.625,0.9375,0.5
1480607539183968,-2.0625,0.75,0.8125
1480607539214049,-4.0625,0.3125,0.75
1480607539220565,-2.875,-1.375,3.625
1480607539244128,1.8125,-0.5,4.125
1480607539275212,3.0625,-0.25,0.875
1480607539282731,1.0625,-0.5,1.0625
1480607539303787,-3.375,-0.1875,0.875
1480607539326347,-5.9375,-0.9375,-1.125
1480607539340889,-3.8125,-0.4375,-1.5625
1480607539363947,-3.875,0.5,-3.1875
1480607539386508,-10.9375,-1.625,-5.375
1480607539407564,-23.4375,-3.1875,-9.5625
1480607539430123,-31.5,-6.9375,-10.4375
1480607539447168,-26.625,-9.6875,-7.5
1480607539467725,-14.0625,-11,-9.8125
1480607539484274,-5.5625,-12,-13.125
1480607539506326,2.5625,-11.25,-13.125
1480607539534902,2.0625,-10.5625,-13.125
1480607539551447,1.9375,-12.1875,-10
1480607539566488,6.625,-10.9375,-8.0625
1480607539595061,4.5625,-10.1875,-6.0625
1480607539604086,-2.6875,-6.9375,-9.3125
1480607539626646,-5.0625,-7.0625,-10.5
1480607539647702,5.625,-9.3125,-6.25
1480607539663244,18.4375,-13.5,-5.6875
1480607539687809,17.375,-16.25,-5.1875
1480607539707361,9.9375,-15.75,-5.1875
1480607539723905,2.625,-9.75,-3.8125
1480607539746465,4.6875,-7.4375,-0.375
1480607539769025,11.3125,-6.375,-1.25
1480607539784067,11.8125,-5.1875,-0.75
1480607539812641,6.625,-4.9375,1.0625
1480607539827680,7.625,-3.5625,0.125
1480607539844225,10.25,-2.9375,0.5625
1480607539882326,8.75,-0.1875,1.1875
1480607539887339,7.3125,0.8125,-0.1875
1480607539903884,6.25,-0.5,1.3125
1480607539926444,0.25,-3.625,-0.9375
1480607539949004,-16,-7.125,-5.125
1480607539963041,-17.4375,-8.5,-4.8125
1480607539987106,-0.375,-11.0625,0.25
1480607540016684,22.5,-10.25,-2.3125
1480607540023201,33.1875,-12.0625,-2.0625
1480607540046764,11.1875,-12.9375,-0.25
1480607540068823,-12.1875,-11.625,-2.5625
1480607540089879,-22.0625,-10.4375,-1.0625
1480607540106424,-20.5625,-10.0625,-1.0625
1480607540128983,-22.3125,-11.4375,-8.875
1480607540151544,-15.125,-16.8125,-12.1875
1480607540166585,3.5,-20.25,-15.9375
1480607540189143,20.6875,-14.75,-15.375
1480607540210198,16.5,-4.8125,-20.4375
1480607540226241,-8.5625,3.9375,-22.625
1480607540248801,-33.6875,3,-19.6875
1480607540269857,-11.6875,-1.4375,3.5625
1480607540293921,30.3125,0.6875,12
1480607540308961,26.4375,1.75,4.625
1480607540330017,1.125,2.5,1.8125
1480607540346561,-7.75,5.875,-2.75
1480607540369121,1.0625,7.125,1.1875
1480607540390177,19.9375,4.5,5.875
1480607540406230,27.1875,5.375,5.6875
1480607540429782,15.4375,7.1875,6.5
1480607540449837,-4.6875,7.9375,4.4375
1480607540466381,-8.1875,8.625,5.625
1480607540489442,-3.4375,9.875,6.875
1480607540509996,2.0625,10.875,11.875
1480607540526540,-0.6875,13.625,13.8125
1480607540549601,-12.0625,16,12.4375
1480607540569664,-17.875,16.5,10.875
1480607540586701,-12.6875,13.75,12.5
1480607540609260,-4,12.25,11.5625
1480607540629815,1.5,11.6875,8.3125
1480607540646860,4.875,12.0625,6.125
1480607540676439,4.9375,11.25,4.8125
1480607540689974,-5.3125,7.0625,3.5625
1480607540712535,-12.875,1.5625,3.5625
1480607540729079,-11.375,-1.9375,3.3125
1480607540750637,-3.1875,-3.75,2.4375
1480607540766681,5.9375,-5.9375,0.375
1480607540789239,7.4375,-7.6875,-0.375
1480607540809793,3.5625,-6.9375,-0.5625
1480607540826337,0.6875,-5,-2.75
1480607540848898,0.5625,-3.6875,-5.125
1480607540878977,2.4375,-3.1875,-4.875
1480607540894018,-1.75,-2.9375,-4.125
1480607540909057,-8.3125,-0.8125,-2.9375
1480607540931618,-13.9375,2.25,-1.1875
1480607540946658,-19.4375,2.75,1.375
1480607540969218,-17.75,0.6875,2.875
1480607540991276,-12.375,-0.6875,4.4375
1480607541005816,-5.875,0.375,3.8125
1480607541028877,-3,2.4375,1.0625
1480607541051938,-2.3125,2.25,0.5625
1480607541066478,3.625,2.25,-0.0625
1480607541089036,8.625,1.6875,0
1480607541111597,11,0.9375,1.9375
1480607541125634,4.375,0.0625,0.25
1480607541148695,3.125,0.875,-0.9375
1480607541171257,6.375,0.25,0.5
1480607541185794,12.6875,-0.9375,2.125
1480607541208855,11.125,-1.8125,1.3125
1480607541231916,5.125,-3.4375,0.5
1480607541245954,0.4375,-2.625,0.125
1480607541269016,3.0625,-1.4375,-0.3125
1480607541291576,4,-2.1875,-0.9375
1480607541305614,6.1875,-2.4375,-0.4375
1480607541329175,2.625,-3.75,-1.125
1480607541360257,-2.9375,-3.125,-1.5
1480607541372793,-7.0625,-3,0.125
1480607541389337,-7.125,-1.4375,0.0625
1480607541411394,-5.75,1.75,-0.25
1480607541433957,-4.625,4.9375,1.125
1480607541448994,-5.5625,6.375,1.4375
1480607541479074,-5.25,5.8125,1.75
1480607541492611,-3.5625,2.9375,2.125
1480607541509154,0.25,1.3125,1.1875
1480607541532216,3.1875,2.125,1.1875
1480607541552269,3.75,2,1.1875
1480607541568813,3.75,2.9375,-1.375
1480607541591373,3.3125,0.625,-2.5
1480607541612429,5.0625,-1.75,-1.625
1480607541628972,7.875,-2.5,-1.0625
1480607541651533,10.8125,-1.9375,-0.875
1480607541680109,6.875,-1.125,-1.375
1480607541689133,-1.5625,-1.25,-1.5625
1480607541717711,-2.8125,-1.1875,-0.5
1480607541732750,-1.0625,-0.6875,0.5
1480607541771854,-0.25,0.6875,1.25
1480607541774360,-2.8125,2.875,0.125
1480607541792408,-5.875,4.0625,-0.5
1480607541816473,-2.6875,3.125,0.5
1480607541831512,3.25,2.25,1.8125
1480607541860087,4.9375,2.0625,3
1480607541869111,1.125,1.8125,2.1875
1480607541897688,-4.1875,1.4375,0.5625
1480607541914232,-3.8125,0.3125,0.5
1480607541928770,-2.1875,0,0.375
1480607541952334,-2.4375,0.125,0.4375
1480607541974392,-2.8125,0.5,0
1480607541988430,-1.5,-0.625,0.5625
1480607542011491,0.25,0.0625,0.8125
1480607542034052,0.9375,0.75,1.75
1480607542048088,-0.4375,1.3125,1.375
1480607542071652,-4.625,1,0.25
1480607542094211,-6.5625,0.875,0.3125
1480607542108249,-3.625,0.9375,0.125
1480607542131310,-0.875,0.0625,1.0625
1480607542153872,2.625,-0.0625,1.5
1480607542168408,1.875,0.5,0.5
1480607542191469,-2.5625,0,-1.25
1480607542214029,-3,0.0625,-1
1480607542228067,0.6875,0.3125,0
1480607542251629,2.375,0.3125,0.4375
1480607542273689,-0.4375,0.875,0.125
1480607542288227,-4,0.5625,0.3125
1480607542311288,-1.1875,1.125,0.375
1480607542333850,3.3125,0.9375,0.875
1480607542354904,3.8125,0.0625,0.5625
1480607542371450,0.875,-0.125,0.25
1480607542394008,-1.875,0.0625,0.75
1480607542415065,-1.25,0.0625,1.375
1480607542432111,-2.625,0.875,0.5625
1480607542453667,-3,1.1875,0.5
1480607542475224,0.3125,1.6875,0.875
1480607542498787,1.4375,1.0625,0.1875
1480607542514328,0.625,-0.875,-0.125
1480607542534883,-0.6875,-1.0625,0.125
1480607542558946,-0.6875,-0.4375,-0.4375
1480607542573987,-0.125,0.375,-0.4375
1480607542603065,-2.4375,0.8125,0.125
1480607542611587,-2.75,-0.125,0.375
1480607542634149,0,-0.3125,0.375
1480607542655202,2.5625,0,0.5
1480607542671748,2.1875,0.5625,0.6875
1480607542693806,0.5625,1.125,0.875
1480607542714862,-1.875,1.25,0.875
1480607542744941,-3.5,0.5,-0.3125
1480607542754969,-3.375,-0.625,0.125
1480607542776526,0.875,-0.8125,1.1875
1480607542791567,3.5625,-0.125,1.9375
1480607542813624,-0.0625,0.875,2.625
1480607542836687,-6.0625,2,1.625
1480607542851225,-11.3125,1.625,-0.25
1480607542881304,-8.6875,0.9375,0.0625
1480607542896845,-1.6875,1.25,0.25
1480607542924920,4.875,0.3125,-0.125
1480607542933946,3.4375,-0.5625,-1.5625
1480607542956504,1.625,-1.375,-2.1875
1480607542970542,1.6875,-1.0625,-0.5625
1480607542994104,1.25,-0.25,0.3125
1480607543016666,-1.8125,0.25,-0.1875
1480607543030701,-5.8125,0.125,-0.25
1480607543068804,-5.9375,-0.375,-0.6875
1480607543076324,-1.875,-0.0625,-0.4375
1480607543090861,-0.125,0.625,0.1875
1480607543113924,-1.6875,-0.375,-0.0625
1480607543136484,-3.75,-0.4375,-0.5
1480607543159043,-2.875,-0.1875,0.3125
1480607543174084,-0.4375,0.1875,0.875
1480607543196643,0.6875,0.4375,0.875
1480607543217699,-0.625,0.875,0.5625
1480607543234745,-1.875,1,0
1480607543263823,-1.75,0.875,-0.3125
1480607543277358,0.8125,0.0625,0.3125
1480607543293902,2.1875,-0.125,0.6875
1480607543316462,1.0625,0,1.0625
1480607543345038,-1.875,0.125,0
1480607543354068,-3.3125,0,-0.6875
1480607543376622,-1.75,-0.1875,-0.5625
1480607543397679,0.6875,0,-0.4375
1480607543421743,2,0.1875,-0.0625
1480607543436282,0.8125,0,0.6875
1480607543457337,-2.5625,-0.125,0.0625
1480607543487417,-3.0625,-0.375,-0.0625
1480607543496943,-0.4375,-0.1875,0.3125
1480607543534543,2.375,0.1875,0.375
1480607543537049,2.125,0.3125,0.5625
1480607543562617,0.0625,0.375,0.25
1480607543578660,-1.75,0.375,0.125
1480607543593700,-0.8125,0.3125,-0.3125
1480607543623780,0.1875,0.125,-0.625
1480607543637316,1.0625,0,-0.5625
1480607543653864,1.5,-0.25,0
1480607543676420,-0.25,-0.3125,-0.3125
1480607543698980,-1.25,-0.6875,-0.125
1480607543721540,-0.875,-0.75,0
1480607543736581,-0.8125,-0.5,0
1480607543766662,0.1875,-0.375,0.625
1480607543773177,0.6875,0.0625,0.5625
1480607543802255,0.6875,0.5,0.625
1480607543820302,-0.5,0.4375,1.1875
1480607543834340,-3,0.5,0.1875
1480607543856900,-3.9375,0.3125,-0.375
1480607543878959,-0.375,0.5625,-0.3125
1480607543901519,3.75,0.375,0.4375
1480607543916559,3.125,0.0625,0.4375
1480607543939119,-0.3125,-0.25,0.5625
1480607543953157,-3.0625,-0.5,-0.1875
1480607543976217,-2.8125,-0.375,-0.5
1480607543999781,-0.0625,-0.3125,0.0625
1480607544013316,2.625,0.1875,0.8125
1480607544043897,2.9375,0.75,1.3125
1480607544058937,-1.0625,0.3125,0.25
1480607544073476,-3.4375,-0.375,-0.1875
1480607544096537,-1.125,-0.25,-0.25
1480607544119097,1.125,-0.375,-0.1875
1480607544140155,1,-0.125,-0.25
1480607544170234,0.375,-0.5625,-0.125
1480607544178756,-1.875,-0.8125,-1.1875
1480607544193295,-3.1875,-0.625,-1.25
1480607544216357,-0.1875,-0.1875,-0.4375
1480607544238917,1.875,0,0.375
1480607544259973,1.8125,0.3125,0.4375
1480607544276517,-2.3125,0.25,-0.25
1480607544299077,-2.5625,-0.0625,-0.4375
1480607544320137,0.6875,0.1875,-0.375
1480607544343695,2.625,0.25,0.125
1480607544365253,3.0625,0.5625,0.125
1480607544380292,-1,-0.4375,-0.3125
1480607544403864,-4.125,-0.75,-0.5625
1480607544418895,-0.8125,-0.5625,-0.4375
1480607544439951,3.0625,-0.5,-0.3125
1480607544456495,3.25,-0.5625,-0.0625
1480607544485072,0.75,-0.5,-0.3125
1480607544501615,-1.5625,-0.1875,-0.125
1480607544516655,-2.875,-0.0625,-0.5625
1480607544546234,-1,-0.25,-0.25
1480607544559770,1.8125,0.125,0.1875
1480607544576314,2.25,0.5,0.4375
1480607544598874,0.5625,0.1875,0.3125
1480607544620431,-2.25,0.5,0.125
1480607544636474,-1.375,0.625,0.3125
1480607544659034,0.9375,0.6875,0.6875
1480607544689615,1.5625,0.4375,0.8125
1480607544696634,-2.5,0.6875,-0.4375
1480607544719194,-2.875,0.3125,-0.125
1480607544741253,1.0625,-0.5,-0.125
1480607544756292,3.5,-0.5,0.5625
1480607544778853,1.875,-0.375,0.5
1480607544801413,-1,-0.5,-0.6875
1480607544823973,-2.8125,-0.4375,-1.625
1480607544839013,-0.8125,-0.625,-0.9375
1480607544877615,2.125,-0.75,-0.5625
1480607544882629,2.25,-0.875,-0.0625
1480607544912207,0.0625,-0.25,0.4375
1480607544921733,-1.4375,-0.5,0.5
1480607544935771,-1.125,0.25,0.8125
1480607544958831,-1.5,0.5625,0.125
1480607544981391,-2.25,0.75,0.0625
1480607544995930,0.625,0.9375,0.375
1480607545018993,3.25,1.0625,0.6875
1480607545041551,0.625,0.375,0.625
1480607545055589,-1.5,-0.125,0.0625
1480607545078651,-1.0625,-0.0625,-0.375
1480607545108731,-0.8125,-0.1875,-0.625
1480607545115752,0.3125,-0.875,-0.6875
1480607545152851,2.25,-0.875,-0.625
1480607545161370,2.4375,-0.6875,-0.5625
1480607545189946,0.6875,-0.875,-0.5
1480607545198971,-2.125,-0.8125,-0.4375
1480607545221531,-1.6875,-0.125,-0.3125
1480607545242586,0.25,0.375,0.625
1480607545259130,-1.3125,0.625,0.1875
1480607545281691,-1.875,0.5,0.1875
1480607545302748,-0.1875,0.875,0.5
1480607545318789,1.3125,0.9375,0.6875
1480607545341350,0.8125,0.75,0.375
1480607545362405,0.4375,-0.125,0.0625
1480607545379450,-0.5,-0.5625,-0.25
1480607545401510,-0.25,-0.8125,-0.5
1480607545422565,1,-0.625,-0.75
1480607545439611,1.4375,-0.8125,-0.625
1480607545461672,0.1875,-0.75,-0.5
1480607545482726,-1.0625,-0.8125,-0.8125
1480607545506289,-0.0625,-0.5625,-0.5625
1480607545521331,0.6875,-0.4375,-0.25
1480607545542385,0.25,-0.25,-0.1875
1480607545549403,-0.1875,0.1875,-0.0625
1480607545564442,-0.5625,0.3125,0.0625
1480607545587004,0.1875,0.375,0.3125
1480607545609563,0.9375,0.25,0.6875
1480607545624102,-1,0.1875,-0.25
1480607545657190,-1.875,-0.375,-0.5
1480607545669222,0.25,0.0625,-0.5
1480607545684262,1.0625,-0.125,-0.4375
1480607545706822,1.0625,-0.75,-0.375
1480607545730886,0.625,-1.125,-0.8125
1480607545744421,0.25,-0.8125,-1.25
1480607545766982,0.625,-0.9375,-0.9375
1480607545789541,0.875,-0.875,-1
1480607545804080,1.3125,-1.1875,-0.4375
1480607545834161,0.75,-1,-0.1875
1480607545849200,-0.4375,-0.75,0.3125
1480607545871760,-1.5625,0.1875,-0.1875
1480607545888304,-1.875,0.4375,-0.5
1480607545909360,0.4375,0.125,0
1480607545940443,2.25,0.375,-0.125
1480607545946961,2,0.25,0.0625
1480607545977541,-0.875,0.0625,-0.25
1480607545985564,-2.3125,-0.625,-0.6875
1480607546006619,-0.25,-0.75,-0.3125
1480607546029179,1.125,-0.5,-0.5
1480607546045723,0.75,-0.875,-0.625
1480607546066781,0.25,-0.9375,-0.625
1480607546089339,0.9375,-0.3125,-0.4375
1480607546105883,0.25,-0.1875,0
1480607546126939,-0.9375,-0.125,0.125
1480607546149500,-0.1875,0.125,-0.0625
1480607546165543,0.6875,0,0.3125
1480607546186598,0.8125,-0.0625,0.3125
1480607546209158,-0.5625,0,-0.1875
1480607546225701,-1.1875,-0.375,-0.25
1480607546254277,-0.125,-0.25,0.0625
1480607546269318,-0.0625,0.25,-0.25
1480607546285862,-0.1875,-0.3125,0
1480607546306918,0.1875,-0.0625,0
1480607546329477,0.1875,0,0.125
1480607546346022,-0.5,0.0625,0.625
1480607546367078,-1.5625,0.3125,0.1875
1480607546396657,-1.0625,0.4375,0.375
1480607546407185,0.3125,0.3125,0.5625
1480607546428242,0.8125,0.1875,0.5
1480607546449297,0,0.25,0.3125
1480607546474865,-0.9375,0.3125,0.125
1480607546486897,-0.625,0.0625,0.25
1480607546510459,-0.1875,0.25,0.25
1480607546532017,0.4375,0.0625,1.0625
1480607546547057,-0.3125,0.375,1.5625
1480607546569115,-0.6875,1.25,3.4375
1480607546591677,-1,0.625,3.4375
1480607546606716,-4.9375,0.3125,1.125
1480607546629275,-6.1875,0.3125,-0.0625
1480607546651837,0,0.0625,0.875
1480607546666882,2.75,0.3125,0.75
1480607546689435,-0.25,-0.6875,-1.5625
1480607546711996,-2.375,-1,-2.4375
1480607546727035,0.5625,-0.5625,-1
1480607546750097,3.3125,-0.0625,0.3125
1480607546771666,1.75,-0.25,-0.3125
1480607546786695,-1.75,-0.625,-0.4375
1480607546812764,-2.8125,-0.5,-0.4375
1480607546831815,-1.625,-0.0625,-0.6875
1480607546846855,0.125,0.0625,-0.0625
1480607546869415,1.25,0.5,-0.4375
1480607546891974,1.0625,0.1875,0.25
1480607546907015,1.125,0.3125,0.25
1480607546929574,-0.5625,0.125,0.1875
1480607546951633,-1.875,0.125,0.3125
1480607546968178,-1.75,0.5625,0.0625
1480607546989233,-0.125,0.625,-0.0625
1480607547011793,0.6875,0.3125,-0.125
1480607547028337,1.4375,0.1875,0.25
1480607547049397,1.0625,0.25,0
1480607547071954,-0.9375,0.0625,-0.1875
1480607547086994,-1.3125,-0.375,0
1480607547109051,-0.375,0.1875,-0.25
1480607547133119,1.625,-0.0625,0.4375
1480607547146653,0.6875,0.125,0
1480607547169216,-1.5625,0.1875,-0.375
1480607547191771,-0.3125,0.375,0.25
1480607547208316,1.5,0.6875,0.0625
1480607547232380,1.4375,0.5,-0.0625
1480607547251932,0.125,0.0625,0
1480607547269981,0.25,0.0625,-0.125
1480607547289031,0.625,0.25,-0.125
1480607547311591,0.875,0.25,0
1480607547328135,-0.8125,-0.25,-0.1875
1480607547349195,-2.25,-0.125,-0.6875
1480607547371751,0.0625,-0.1875,-0.4375
1480607547388295,2.5625,0.1875,0.0625
1480607547409350,2,0.625,0.1875
1480607547431911,-0.5625,0.1875,-0.1875
1480607547448455,-1.1875,0.1875,-0.375
1480607547469511,1.0625,0.0625,0.1875
1480607547516140,1,0.0625,0.25
1480607547519154,-1.375,0.125,-0.1875
1480607547529169,-0.4375,0.0625,-0.125
1480607547551731,0.625,0.1875,0.1875
1480607547569779,-0.5625,-0.3125,0.0625
1480607547596849,-0.8125,-0.25,-0.0625
1480607547611889,0.3125,-0.0625,-0.5
1480607547629938,1.0625,0.0625,-0.3125
1480607547649490,-0.1875,-0.25,-0.5625
1480607547673618,-0.875,-0.375,-0.875
1480607547697116,-0.1875,-0.4375,-0.625
1480607547709148,1.1875,-0.5,-0.25
1480607547749257,1.0625,-0.3125,-0.1875
1480607547751762,-0.125,-0.125,-0.5
1480607547772317,-0.875,-0.3125,-0.0625
1480607547793372,0.0625,0.125,-0.0625
1480607547817437,1.375,0.3125,0
1480607547832479,0.8125,0.25,0.0625
1480607547852029,-0.5,0.0625,-0.0625
1480607547877095,0.125,0.125,-0.1875
1480607547889127,1.375,0,0.4375
1480607547911687,0.125,0.125,-0.25
1480607547929735,-2.75,-0.0625,-0.9375
1480607547949291,-1.5625,-0.4375,-0.375
1480607547971847,2.5625,-0.125,-0.1875
1480607547994407,3.3125,0.25,-0.1875
1480607548016967,0.25,0,-0.125
1480607548032008,-2.1875,-0.125,-0.5
1480607548063091,-1.5,-0.5,-0.375
1480607548069107,0.625,-0.125,0.1875
1480607548093169,0.75,0,-0.1875
1480607548114225,-0.1875,-0.0625,-0.1875
1480607548136787,0,-0.125,-0.3125
1480607548151826,0.5,0,0
1480607548174385,0.4375,-0.0625,0.1875
1480607548190930,-0.125,-0.0625,0.0625
1480607548211986,0.3125,0,0.4375
1480607548242568,0.25,0.5625,0.25
1480607548250589,-1.5,0.3125,-0.1875
1480607548271645,-1.8125,0.0625,-0.1875
1480607548305235,0.625,0.0625,0.1875
1480607548310749,2.875,0.1875,0.3125
1480607548331806,1.0625,0.0625,0.5625
1480607548354366,-2.3125,0.0625,-0.3125
1480607548370910,-1.9375,0,-0.1875
1480607548391965,1,0.25,0.1875
1480607548414524,1.375,-0.25,0.5625
1480607548438088,0.5625,0.125,0.3125
1480607548451624,-1.9375,0.3125,-0.9375
1480607548474184,-2,-0.125,-0.4375
1480607548492231,0.6875,-0.0625,-0.1875
1480607548513288,1.9375,-0.25,-0.0625
1480607548534344,0.375,-0.1875,-0.0625
1480607548552392,-1,-0.4375,0.5625
1480607548571944,-1.4375,0.5,1.5
1480607548594503,0.375,1.4375,2.875
1480607548613053,-1.125,1.5,1.9375
1480607548631602,-4.8125,0.625,0.5625
1480607548654162,-2.8125,0.3125,0.1875
1480607548672211,2.1875,0.4375,0.5
1480607548691762,2.875,-0.125,-0.375
1480607548714322,-0.875,-0.8125,-2.125
1480607548732374,-1.5,-1.4375,-2.25
1480607548751923,1.875,-0.75,-0.5625
1480607548774501,2.5,-0.5,0.1875
1480607548792029,-1.6875,-0.75,-0.375
1480607548811581,-4.1875,-1,-1
1480607548834141,-1.5,-0.1875,-0.375
1480607548852190,1.75,0,-0.125
1480607548871742,2.25,0,0.1875
1480607548894301,0.3125,-0.5,0.1875
1480607548912349,-2.125,-0.3125,-0.3125
1480607548931902,-3.0625,-0.375,-0.4375
1480607548954462,-1.25,-0.125,-0.125
1480607548972008,2.625,-0.25,0.125
1480607548991559,2.0625,-0.8125,0.375
1480607549014119,-0.3125,-0.625,-0.125
1480607549032170,-2.5625,-0.5625,-0.625
1480607549051721,0.0625,0.5,0.6875
1480607549074280,-2.0625,-0.5625,0.9375
1480607549092328,-2,-1.0625,1.1875
1480607549113384,2.5,-0.0625,0.875
1480607549134440,8.25,-1.125,1.375
1480607549158002,7.8125,-1.3125,1.9375
1480607549173043,1.875,-1.1875,0.5
1480607549201619,-1.125,0.9375,0.125
1480607549216660,0.125,2.0625,1.25
1480607549233204,2.625,2.1875,1.375
1480607549254258,4,1.6875,1.8125
1480607549272307,4.625,2.6875,1.25
1480607549293362,3.6875,3.5,0.125
1480607549314418,4.1875,3.3125,1.25
1480607549331966,5.75,2.5625,1.625
1480607549353022,2.3125,0.25,0.6875
1480607549374078,-1.875,-1.0625,-0.375
1480607549392126,-1.1875,-0.125,-1.25
1480607549414687,2.75,1.375,-1
1480607549434238,6,2,0.1875
1480607549452287,4.5,2.5,0.875
1480607549474846,-1.5,3.75,1.875
1480607549498409,-6.625,3.875,1.6875
1480607549516958,-6.375,1.625,0.1875
1480607549534505,-1.9375,-0.6875,-0.5625
1480607549554057,2.875,0,0.3125
1480607549584139,4.3125,0.5,0.9375
1480607549595166,0.625,-0.625,1.125
1480607549614216,-2.25,-1.625,-0.1875
1480607549636778,-3.1875,-1,-0.4375
1480607549654824,-3.375,0.5625,0.125
1480607549681898,-2.6875,-0.125,-0.1875
1480607549696936,-0.6875,-1.5625,-0.125
1480607549714985,4.8125,-2.375,1.125
1480607549741555,6.5,-2.8125,0.9375
1480607549758100,3.3125,-0.875,0.875
1480607549774643,-1.875,0.375,-0.25
1480607549801715,0.5,-0.4375,1.25
1480607549816756,4.3125,-0.875,2.375
1480607549834804,1.8125,-1.4375,0.875
1480607549854355,-3.75,-1.5625,-0.875
1480607549876915,-4.9375,-0.6875,-0.4375
1480607549894462,-1.0625,-0.8125,0.5
1480607549914516,3.625,-1.0625,0.5
1480607549936574,1.6875,-1.4375,0.8125
1480607549954622,-1.1875,-1.0625,0.875
1480607549974174,-2.875,0,0.8125
1480607550004254,-2.0625,0.6875,1.375
1480607550014782,-0.6875,-0.4375,0.8125
1480607550037343,-0.6875,-0.8125,0.375
1480607550056894,0.875,-0.5625,0.25
1480607550082964,3.3125,0,0.125
1480607550095497,1.5625,-0.8125,0.25
1480607550117054,-2.0625,-0.5,0.3125
1480607550134602,-4,0.25,-0.75
1480607550157161,-5.375,2.4375,-1.125
1480607550176713,-5.375,1.375,-0.5
1480607550199273,-2.75,-1.75,-0.625
1480607550215817,2.125,-3,-0.5
1480607550238377,2.5,-0.9375,0.6875
1480607550254921,-4.9375,1.5625,2
1480607550275977,-13.9375,0.5625,-2
1480607550297033,-13,-0.625,-0.75
1480607550315082,-7.6875,-0.0625,1.25
1480607550335636,-2.625,0.75,1.5
1480607550359700,-1.5625,0.25,-1.125
1480607550374740,0.0625,-0.3125,-1.625
1480607550397300,7.8125,-0.8125,0.875
1480607550419860,12.875,-0.5,0.75
1480607550434900,11.625,0.1875,0.1875
1480607550456959,6.6875,0.4375,1.6875
1480607550477011,-0.3125,0.3125,-0.3125
1480607550494558,-3.4375,-0.625,-1
1480607550517118,-2.3125,-0.5625,-0.8125
1480607550536670,0.5625,-0.4375,-1.375
1480607550554718,3.8125,-0.125,-0.625
1480607550577279,2.875,-0.5,-1.8125
1480607550596830,0.1875,-0.6875,-1.4375
1480607550614879,-0.75,-0.625,0.0625
1480607550637439,-3.4375,-0.125,-1
1480607550656489,-6.4375,0.1875,-1.8125
1480607550675039,-4.5,-0.9375,-2.5625
1480607550697097,0.8125,-0.125,-1.625
1480607550733695,5.75,0.4375,-1.125
1480607550736201,4.3125,-0.125,-1.75
1480607550757258,0.8125,-1.625,-1.5625
1480607550776809,-3.4375,-2.4375,-1.9375
1480607550794857,-5.875,-0.5625,-1.6875
1480607550817417,-4.5,0.875,-0.1875
1480607550836970,-0.625,2.0625,-0.4375
1480607550854516,3.25,1.25,-0.5625
1480607550877076,5.4375,0.3125,-0.375
1480607550896628,2.25,-0.25,-0.625
1480607550915179,-1.75,-0.375,-0.4375
1480607550937236,-4.375,-0.1875,-0.3125
1480607550958292,-3,-0.75,-0.3125
1480607550979349,1.9375,-0.0625,-0.8125
1480607551003412,5.5625,0.625,-0.3125
1480607551018453,3.4375,0.125,-0.125
1480607551039508,-1.3125,-0.5,-0.0625
1480607551057055,-5.0625,0,-0.4375
1480607551078110,-7.5,-0.5625,-1.125
1480607551099169,-3.5625,-1,-1.3125
1480607551117216,3,-0.3125,0.3125
1480607551144287,5.4375,0.3125,1.6875
1480607551159327,0.8125,-0.6875,-0.125
1480607551177375,-2.6875,-1.0625,-0.5
1480607551198432,-2.9375,-0.125,-0.25
1480607551219492,-1.875,0.0625,-0.375
1480607551237035,1.625,0.1875,0.3125
1480607551258090,4.375,1.375,0.125
1480607551279146,2.3125,1,0.4375
1480607551297194,-1.9375,0.1875,0.125
1480607551319755,-5.6875,-0.375,-0.75
1480607551339306,-3.4375,-0.625,-0.0625
1480607551357354,3.9375,0,0.4375
1480607551392948,5.8125,0.5625,0.6875
1480607551399466,1.8125,0.5625,0.4375
1480607551424533,-2.75,-0.4375,-0.5625
1480607551440576,-1.4375,-0.25,0.125
1480607551459124,0.875,0,0.125
1480607551477177,0.625,0.125,-0.125
1480607551499733,0.25,0.4375,-0.25
1480607551519285,-0.125,0.25,-0.75
1480607551537334,0.375,0.5,-0.25
1480607551559893,0.5625,0.5625,0.3125
1480607551579445,-1,0.4375,-0.3125
1480607551596992,-1.625,-0.125,-0.375
1480607551619552,-0.375,-0.625,-0.375
1480607551640609,1,0.0625,0.0625
1480607551657152,1.1875,-0.125,0.125
1480607551679712,-1.6875,0.0625,-0.125
1480607551700768,-1.4375,-0.625,-0.5
1480607551725333,2.0625,-0.0625,0.1875
1480607551745887,2.5625,0.25,0.125
1480607551759423,-1.0625,-0.0625,0
1480607551776970,-2.0625,0.0625,-0.125
1480607551799531,-0.3125,1,0.6875
1480607551819104,-1.875,1,0.5
1480607551837131,-2.1875,0.125,-0.1875
1480607551859690,0.625,-0.125,-0.0625
1480607551879242,2.25,0.1875,0.25
1480607551897290,0.1875,0.25,-0.125
1480607551919854,-2.25,-0.0625,-0.0625
1480607551940907,-1.75,-0.5,-0.125
1480607551956950,0.375,0.0625,0.25
1480607551979510,-0.4375,0.375,-0.125
1480607552000566,-1.25,0.4375,-0.125
1480607552023125,-0.1875,0.1875,0.3125
1480607552047189,0.4375,0.3125,0.3125
1480607552060725,-0.5,0.3125,0.3125
1480607552077269,-0.8125,-0.0625,0
1480607552100332,-0.4375,-0.125,0
1480607552120886,1.1875,-0.6875,0.0625
1480607552137430,1.25,-0.4375,0.0625
1480607552164501,-0.375,0.25,0.5625
1480607552180544,-2.3125,0.625,0.25
1480607552197087,-2.1875,-0.1875,-0.0625
1480607552219649,0.0625,0.1875,0.1875
1480607552240704,2.3125,0.5,0.5625
1480607552262261,1.3125,0.375,0.375
1480607552279808,0,0.375,0.4375
1480607552315404,-0.875,0.1875,0.0625
1480607552323424,-0.25,-0.25,-0.125
1480607552339469,0.6875,0.375,0.4375
1480607552368044,0.4375,0.1875,0.3125
1480607552381579,-0.0625,0.125,0.1875
1480607552414667,1.5625,-0.3125,0.0625
1480607552422187,2.125,-0.625,-0.0625
1480607552441739,1.8125,-0.1875,0.0625
1480607552459787,0,-0.125,-0.625
1480607552481345,-1,0.25,0.5
1480607552503906,-1.125,-0.0625,0.375
1480607552518946,-0.0625,-0.375,-0.375
1480607552541505,1.875,-0.5,-0.125
1480607552562560,1.375,-0.25,0.125
1480607552580106,-0.9375,-0.1875,0
1480607552601165,-2.375,0.125,-0.5625
1480607552622219,-1.375,0.0625,-0.375
1480607552638763,0.25,-0.125,-0.1875
1480607552661323,1.125,-0.3125,-0.4375
1480607552682400,1.3125,0,-0.1875
1480607552698925,0.375,0.0625,0
1480607552721483,-0.875,0,-0.375
1480607552742538,-0.625,-0.25,-0.5625
1480607552759083,-0.125,-0.3125,-0.3125
1480607552781645,0.9375,-0.25,-0.3125
1480607552802198,0.5,0.375,0.25
1480607552818744,0.375,0.25,0.625
1480607552841302,-0.9375,0.0625,-0.1875
1480607552862859,-2,-0.3125,0.25
1480607552878902,-1.25,-0.375,3
1480607552901462,-1.8125,0,4.75
1480607552923019,-6.875,0.625,3.25
1480607552945077,-11.3125,0.1875,1.625
1480607552961120,-5.875,0.0625,0.125
1480607552982678,5.0625,0.75,0
1480607552998724,7.3125,0.5,-1.0625
1480607553021782,2.5625,-0.5625,-2.125
1480607553042336,-0.8125,-1.6875,-2.875
1480607553058880,0.875,-1.625,-1.625
1480607553081441,4,-0.6875,-0.25
1480607553102497,2.9375,0.125,0.0625
1480607553119042,-1.125,-0.3125,-0.4375
1480607553141601,-3.125,-0.0625,-0.6875
1480607553162658,-0.875,0.25,0
1480607553178699,1.4375,0.1875,-0.1875
1480607553201763,2,0.3125,0.375
1480607553223819,0.75,0.0625,0.4375
1480607553238860,-0.9375,0.125,0.125
1480607553261419,-1.125,0.375,0.625
1480607553283980,0.6875,0.5625,0.875
1480607553299020,3.3125,0.5625,0.25
1480607553322081,3.5,0.75,0.5625
1480607553344641,2.625,-0.5,-1.125
1480607553365198,0.8125,-0.5,-0.3125
1480607553381239,-1.6875,-0.3125,-0.5625
1480607553412321,-1.4375,-0.4375,-0.0625
1480607553426358,0.375,-0.3125,0.0625
1480607553441398,-1.0625,0,-0.9375
1480607553471478,-0.8125,0,-0.5
1480607553485515,0.1875,-0.1875,-0.75
1480607553501558,1.5,-0.25,-0.25
1480607553523617,0.4375,-0.5625,-0.5625
1480607553544673,-0.9375,-0.625,-1.125
1480607553561217,-0.375,-0.5625,-1.5
1480607553583777,1.25,-0.4375,-0.875
1480607553598317,1.875,0.0625,-0.5
1480607553621376,-0.1875,0.1875,-0.3125
1480607553643937,-3.4375,0.4375,-0.6875
1480607553657974,-3.125,0.6875,-0.5
1480607553689058,-0.25,0.75,0.0625
1480607553704098,1.8125,0.625,0.4375
1480607553725153,1.75,0.375,0.6875
1480607553755233,-0.6875,0.5,0.375
1480607553764257,-3.0625,0,-0.5625
1480607553784812,-1.375,-0.3125,-0.3125
1480607553801356,1.5625,-0.3125,0.0625
1480607553823916,1.9375,-0.125,0.25
1480607553844972,-0.375,-0.25,0.375
1480607553861515,-4.0625,-0.125,-0.25
1480607553884077,-3.0625,-0.375,-0.1875
1480607553905133,0.625,0,0.3125
1480607553921175,2.375,0.1875,0.25
1480607553943734,1.375,0.1875,0.375
1480607553964792,-1,-0.1875,0.125
1480607553981341,-1.875,-0.3125,-0.3125
1480607554003895,-0.625,-0.125,-0.0625
1480607554024950,0.625,-0.1875,0.0625
1480607554041496,1.0625,-0.375,-0.125
1480607554064055,0.5,0,-0.125
1480607554085111,-1.25,0.0625,0.125
1480607554101154,-2,-0.75,-0.5
1480607554125218,0.1875,-1.3125,-0.9375
1480607554144770,2.4375,0.4375,0.875
1480607554161313,1.1875,0.5625,0.5625
1480607554183874,-1.0625,-0.0625,0
1480607554213954,-2.5625,-0.25,-0.6875
1480607554221473,-0.8125,-0.5,-0.375
1480607554246039,2.9375,0,0.375
1480607554266594,2.875,0,0.0625
1480607554281635,-1.0625,-0.625,0.1875
1480607554309708,-1.75,-0.4375,-0.125
1480607554326252,-0.375,0.1875,-0.8125
1480607554340792,0.5,0.0625,-0.625
1480607554363855,0.5,-0.6875,-0.6875
1480607554393933,1.375,-0.4375,-0.625
1480607554401454,0.75,-0.6875,-0.75
1480607554424012,-0.125,-1,-0.875
1480607554446573,0.1875,-1.1875,-0.4375
1480607554460610,1.3125,-0.75,-0.25
1480607554491191,1.0625,-0.4375,-0.3125
1480607554506231,-1.1875,-0.1875,-0.5625
1480607554521271,-1.5,-0.1875,-0.1875
1480607554543831,0,0,0.75
1480607554566893,1.0625,0.3125,3.0625
1480607554589452,0.9375,1.1875,3.25
1480607554603992,-3.0625,1.1875,1.125
1480607554633070,-6.625,0.25,0.125
1480607554647608,-1.875,0.625,0.4375
1480607554671170,4.1875,0.5625,1.375
1480607554686210,6.625,-0.4375,0.3125
1480607554707265,3.375,-2.375,-2.3125
1480607554724311,2.6875,-1.6875,-1.625
1480607554754391,4.875,0.3125,0.0625
1480607554767429,4,0.75,0.3125
1480607554783970,0.875,0,0.0625
1480607554806531,-0.0625,-0.375,-0.375
1480607554827585,-1.5625,-0.1875,-0.125
1480607554843628,-1.4375,0.3125,0.4375
1480607554866189,-0.9375,0.375,0.0625
1480607554887244,-0.5625,0.0625,-0.6875
1480607554903789,1.5,-0.4375,-0.25
1480607554926349,2.625,-0.6875,0.0625
1480607554947407,0.875,-0.5625,-0.4375
1480607554963951,-1,0.125,0.4375
1480607554986510,-1.625,0.375,-0.3125
1480607555007564,-0.1875,0,-0.5625
1480607555024109,0.4375,-0.25,-0.5625
1480607555046167,0.625,-0.4375,-0.125
1480607555074743,1.1875,-0.0625,-0.25
1480607555083768,0.6875,0.1875,0.4375
1480607555106346,-0.8125,0.625,0.875
1480607555128888,-1.4375,0.8125,0.75
1480607555144429,-1.4375,0.375,0.25
1480607555167491,-1.375,-0.3125,-0.0625
1480607555189048,0.125,-0.3125,0
1480607555204088,1.3125,0.0625,-0.0625
1480607555226146,0.0625,0.1875,0.375
1480607555249208,-1.5625,-0.125,0.0625
1480607555263245,-0.3125,-0.375,0.0625
1480607555286306,-0.5,-0.25,-0.0625
1480607555308867,-1.25,0.0625,0.0625
1480607555323404,-1,0.0625,0
1480607555346969,-1.5,0.0625,0.1875
1480607555369027,-0.6875,0.1875,1
1480607555383064,0.4375,0.875,0.375
1480607555422676,0.875,0.5,0.375
1480607555428692,0.6875,0.0625,0.5625
1480607555443230,-2.125,-0.125,-0.0625
1480607555467797,-3.125,-0.5,-0.125
1480607555488851,-0.625,-0.125,-0.25
1480607555509907,0.6875,0.3125,0
1480607555526451,1.125,0.4375,0
1480607555556532,-0.3125,0.0625,-0.0625
1480607555570069,-1.4375,-0.9375,-0.8125
1480607555586611,0.125,-0.625,0.0625
1480607555608670,1.6875,0.9375,0.75
1480607555647276,-0.5625,0.875,-0.25
1480607555649279,-2.875,-0.1875,-0.5625
1480607555668831,-1.1875,-0.5,-0.5
1480607555697408,1.4375,-0.0625,0.125
1480607555706431,2.3125,0.3125,0.4375
1480607555728991,-0.875,0.25,0.125
1480607555750047,-2.25,-0.25,0.0625
1480607555766593,-0.5625,0.125,0.1875
1480607555788650,0.6875,0.4375,-0.125
1480607555810206,0,0.25,-0.1875
1480607555826751,0.8125,-0.25,-0.6875
1480607555848810,0.6875,0.8125,0.875
1480607555869865,-1,0,0.125
1480607555886409,-1,-1.1875,-0.8125
1480607555908969,1.1875,-0.3125,-0.1875
1480607555930025,1,0.3125,-0.125
1480607555946569,0,0.3125,0.0625
1480607555975145,0.0625,-0.125,-0.25
1480607555991188,0.0625,-0.1875,0
1480607556013750,-0.5625,0.3125,0.4375
1480607556028788,-2.1875,0.3125,-0.875
1480607556058868,-1.8125,-0.1875,-0.625
1480607556066392,0.8125,-0.1875,0
1480607556088948,2.125,0.0625,0.4375
1480607556111508,0.3125,0.0625,0.0625
1480607556127050,-1.9375,-0.125,-0.5
1480607556149111,-1.875,0.0625,-0.25
1480607556171167,0.25,0.625,0
1480607556186208,0.0625,1,0.5625
1480607556208767,-1.875,0.625,0.875
1480607556231328,-1.9375,-0.9375,-1.1875
1480607556245866,1,-0.5,0.25
1480607556268927,1.875,1.3125,1.3125
1480607556291988,-1.5,-0.25,-0.6875
1480607556305525,-1.8125,-0.875,-0.0625
1480607556329087,-0.4375,-0.3125,0.3125
1480607556351146,1.25,0.3125,0.8125
1480607556365686,0.625,0.25,0.3125
1480607556388746,-1.5,0,-0.375
1480607556418826,-1.75,-0.25,-0.25
1480607556425845,-0.6875,-0.1875,-0.5
1480607556448908,1.125,0.125,0.25
1480607556487509,2.1875,0.5,1.6875
1480607556492522,0.4375,-0.1875,1.25
1480607556508565,-1.625,0.3125,1.9375
1480607556537642,-2.625,0.9375,3.8125
1480607556553685,-4.1875,0.875,2.375
1480607556568725,-5.5,0.5625,2.625
1480607556591285,-3.5625,2.1875,3.6875
1480607556613846,6.375,1,3.0625
1480607556628885,9.25,-3.6875,1.4375
1480607556651445,10.4375,-4.9375,-1.3125
1480607556672501,6.5625,-2.5625,-1.5
1480607556689045,2.4375,-1.9375,1
1480607556711605,-5.3125,-2.25,-1.8125
1480607556739679,-8.5625,-1.25,-1.5
1480607556756725,-3.5,1.125,-0.6875
1480607556771263,3.4375,0.875,-0.875
1480607556809364,5.75,1.4375,-1.5625
1480607556811871,3,0,-0.75
1480607556831424,-0.3125,-1.3125,-0.75
1480607556852982,-1.625,-0.5625,-0.5625
1480607556869024,-1.1875,-0.0625,-0.1875
1480607556891583,1.5625,0.125,-0.1875
1480607556912639,2,0.375,-0.875
1480607556934699,-0.6875,0.6875,-0.375
1480607556951243,-1.1875,-0.125,0.0625
1480607556996864,0.1875,0.125,0.0625
1480607556999371,0.125,0.25,0.125
1480607557018922,-0.4375,0.0625,0.4375
1480607557033963,0.625,-0.0625,0.875
1480607557049006,-0.375,0.3125,-0.1875
1480607557072064,-1,0,-0.8125
1480607557093621,0.625,-0.125,-0.8125
1480607557108661,2.3125,-0.8125,-0.8125
1480607557131221,0.5625,-1.0625,-0.5
1480607557153781,-0.75,-1.875,-0.6875
1480607557168321,-1.5625,-1.0625,-0.9375
1480607557191381,-1.8125,-0.25,-1.4375
1480607557229483,-1.5,0,-0.4375
1480607557231990,0.8125,-0.9375,-1.1875
1480607557253045,3,-0.8125,-0.75
1480607557274102,2,1.1875,1.3125
1480607557294656,-2.4375,0.875,-0.4375
1480607557311701,-3.875,-0.5625,-0.9375
1480607557333760,-1.3125,-0.25,-0.25
1480607557363840,1.3125,0.25,0.5
1480607557371360,4.625,0,0.0625
1480607557409963,2.8125,0.75,0.3125
1480607557414977,0,-0.75,-0.8125
1480607557439040,0.75,-1.6875,-0.8125
1480607557461098,1.1875,-0.625,-0.5
1480607557475136,-0.8125,0.8125,-0.125
1480607557498703,-0.8125,-2.25,-3.4375
1480607557513739,3.3125,-2.125,-2.25
1480607557552843,5.25,0.5625,1.4375
1480607557557355,1.25,-0.1875,-1.1875
1480607557579915,-1.25,-0.75,-0.75
1480607557594954,-0.5,0.9375,0.125
1480607557611499,3,1.0625,0.875
1480607557634058,2.125,0.3125,0.125
1480607557655114,-1.875,0.3125,-0.875
1480607557671157,-1.5625,0.4375,0
1480607557694721,1.0625,-0.4375,-0.375
1480607557714774,1.125,-0.75,-0.8125
1480607557731318,-0.8125,-0.8125,-0.75
1480607557753878,-1.3125,-0.5,-1.125
1480607557782455,-0.6875,-0.4375,-1.0625
1480607557791478,0.375,-0.75,-0.6875
1480607557814038,2.1875,-0.0625,-0.625
1480607557835595,1.375,1.9375,1
1480607557851137,-1.625,1,0.3125
1480607557873697,-1.625,-0.5,-0.1875
1480607557902273,-0.5625,0,0.5625
1480607557911296,0.75,0.375,0.5
1480607557933857,-0.0625,0.5625,0.0625
1480607557956417,-0.125,0.4375,0.25
1480607557971456,0.625,-0.1875,-0.1875
1480607558017078,0.1875,-0.3125,-0.4375
1480607558019584,0.1875,-0.0625,-0.5
1480607558031115,-1.125,0.4375,-0.375
1480607558053675,-2.9375,0.125,1.1875
1480607558076235,-3.5625,-1.375,-1.5
1480607558098800,-1.4375,0,0.1875
1480607558113836,0.625,1.5625,1.625
1480607558143915,0.4375,0.6875,0.0625
1480607558150439,-0.125,-0.0625,0.5
1480607558174497,-2.3125,0.25,0.5
1480607558196556,-2.0625,-0.4375,0.1875
1480607558210593,0.125,0.1875,0.0625
1480607558233654,-0.8125,0.6875,1.1875
1480607558256214,-3.75,0.4375,0.0625
1480607558286294,-2.6875,-1.125,-0.9375
1480607558293814,0.6875,-0.125,-0.125
1480607558332920,1.625,0.6875,0.3125
1480607558337430,0.6875,-0.125,-0.25
1480607558353974,-1.875,-0.125,-0.125
1480607558376534,-2.75,0.375,0.8125
1480607558390572,-1.375,-0.0625,0.3125
1480607558413633,0.75,0.3125,-0.1875
1480607558436694,1.25,0.25,0.1875
1480607558464770,0.125,0.8125,1.875
1480607558473793,-1.5625,-0.3125,-0.25
1480607558496353,-2.4375,-0.6875,-1.25
1480607558518914,-0.5625,1.5625,1.6875
1480607558533953,-0.0625,0.875,-0.9375
1480607558556512,2.25,0.8125,0
1480607558577568,1.8125,0.5,-0.1875
1480607558593612,-0.125,-0.8125,0.4375
1480607558617676,-0.4375,-1.3125,-0.0625
1480607558637228,-2.375,-2.1875,0.125
1480607558661292,0,-3,3.1875
1480607558676332,5.5625,-2.125,5.8125
1480607558697388,1.25,-1.1875,6.5625
1480607558713932,-7.25,0.1875,4.75
1480607558736492,-7.75,2.5,1.875
1480607558757548,4.0625,3.625,4.1875
1480607558774092,19.0625,0.0625,3
1480607558796152,14.1875,-2.4375,-0.375
1480607558817206,1.0625,-2.25,-3.375
1480607558833750,-1.0625,-0.1875,-2.8125
1480607558856310,3,0.6875,-1.75
1480607558878871,1.8125,-0.5,-0.875
1480607558893911,-1.625,-0.1875,-0.5625
1480607558917473,-1.8125,0.125,1
1480607558939030,0.8125,0.5625,-0.1875
1480607558961089,1.1875,0.75,-0.125
1480607558976129,0.625,0.0625,-0.0625
1480607558998690,2.75,-1.0625,-0.9375
1480607559013730,4.5,-1.3125,-0.4375
1480607559036289,2.3125,-0.6875,1.0625
1480607559058849,-1.3125,0.5,2.875
1480607559073388,-4.875,0.5625,0.8125
1480607559096450,-4.5,0.75,-0.3125
1480607559119010,-0.0625,1.125,-0.5
1480607559133047,6.125,0.4375,0.3125
1480607559156108,4.5,-0.6875,0.25
1480607559178668,-2,-1.1875,-0.3125
1480607559201228,-6.375,-0.6875,0.3125
1480607559216268,-4.5,1.375,0.875
1480607559238828,0.4375,1.5625,0.1875
1480607559253366,3.5,0.0625,0.25
1480607559276428,3.375,-0.375,-0.375
1480607559298988,-1.3125,-0.5625,-0.0625
1480607559313027,-4.3125,-0.1875,-0.6875
1480607559336086,-3.3125,0,-0.6875
1480607559358646,0.6875,0.4375,-0.3125
1480607559373185,2.75,0.625,-0.3125
1480607559396248,1.8125,-0.375,-0.0625
1480607559418806,-1.25,-0.875,-0.3125
1480607559439863,-4.5,-0.4375,-1.25
1480607559456408,-2.0625,-0.0625,-0.375
1480607559484983,2.875,0.6875,-0.1875
1480607559500023,3.6875,1.375,0.0625
1480607559516567,0.0625,0.6875,-0.3125
1480607559538625,-1.9375,-0.5,-1.125
1480607559567202,-1.9375,-0.5,-0.9375
1480607559576226,0.4375,0,0.125
1480607559598786,1.125,0.875,-0.3125
1480607559619841,-0.8125,0.8125,-0.25
1480607559636385,-0.5,-0.0625,-0.25
1480607559682007,0.6875,-0.875,-0.5
1480607559684514,-0.6875,-1,-0.5
1480607559704567,-2,-0.5,-0.875
1480607559719608,-0.75,0.625,-0.375
1480607559739660,0.3125,0.4375,-1
1480607559756204,1,0.1875,-0.6875
1480607559778764,0.4375,0.3125,-0.6875
1480607559807340,-0.75,0.375,-0.625
1480607559816866,-3.25,-0.3125,-0.6875
1480607559838924,-1.1875,-0.3125,-0.5
1480607559861485,0.5625,-0.5,-1.0625
1480607559876525,0.125,0.1875,-0.6875
1480607559899085,-0.0625,0.3125,-0.3125
1480607559921143,-0.5625,0.1875,0.0625
1480607559936183,-2,0.1875,-0.625
1480607559958744,-3.5,0.375,-1.3125
1480607559981304,-1.625,0,-0.8125
1480607559996344,1.25,0.3125,-0.6875
1480607560018903,0.4375,0.375,0
1480607560041464,-2.0625,0.1875,-0.0625
1480607560057005,-1.6875,-0.1875,0.0625
1480607560087085,-1.625,0.125,0.125
1480607560101624,-0.375,0.0625,0.6875
1480607560115662,2.1875,0.875,0.1875
1480607560138722,2,0.25,0.25
1480607560161284,-1.1875,-0.6875,-0.1875
1480607560183842,-3.625,-1,-0.6875
1480607560198883,-3.1875,-0.5,-0.75
1480607560228962,-1.3125,-0.375,-0.375
1480607560235480,0.5625,0.5625,0.0625
1480607560266565,1.5,0.9375,0.625
1480607560281603,1.5,0.875,0.3125
1480607560295640,-1.3125,0.5,-1
1480607560319202,-2.25,-0.5625,-0.5625
1480607560348781,-0.125,-0.75,-0.5625
1480607560362317,-0.1875,-0.875,-0.5625
1480607560378864,-0.3125,-0.25,0
1480607560415458,1,0.3125,-0.5625
1480607560422477,2.25,0.3125,-0.3125
1480607560439021,0,0.125,0.0625
1480607560461080,-1.125,-0.375,0
1480607560482136,-0.5625,-0.25,0.4375
1480607560498680,-1.875,-0.3125,0.625
1480607560521240,-3.25,-1.3125,-1.625
1480607560542297,-1.125,-0.625,-1.375
1480607560558840,2.8125,1.25,1.4375
1480607560581400,2.125,-0.5625,-0.3125
1480607560602456,0.375,-1.8125,-0.375
1480607560625016,-1.5625,-0.6875,0.625
1480607560641560,-1.875,0.0625,-0.125
1480607560662114,-0.9375,0.6875,-1.0625
1480607560686178,0.125,0.875,-0.0625
1480607560701218,0.6875,-0.8125,-0.75
1480607560722274,3.3125,-1.625,-0.4375
1480607560744835,3.375,-0.5,0.625
1480607560761379,-0.875,0.5,2.875
1480607560782438,-4.5,-0.875,5.3125
1480607560798978,-8.8125,-0.1875,2.4375
1480607560827554,-12.625,-1.8125,3.5625
1480607560843598,-8.8125,3,3.75
1480607560883203,1.125,5.4375,3.5
1480607560887216,12.9375,-0.5625,4.375
1480607560927821,15.875,-5.9375,-0.875
1480607560932333,10.0625,-5.8125,-2.9375
1480607560941859,11.375,-3.5,-3.4375
1480607560963917,14.25,-2.25,-1.8125
1480607560984974,7.0625,-1.0625,2.3125
1480607561001517,-8.25,0.125,-0.4375
1480607561024078,-14,-0.8125,-3.4375
1480607561038115,0.5625,1.5,-1.6875
1480607561061176,12.4375,2.6875,-0.9375
1480607561091758,10.25,-0.6875,-1.25
1480607561107800,-0.3125,-2.1875,-2.125
1480607561121837,-7.75,-1.625,-1.9375
1480607561158936,-5.5625,-0.3125,-0.4375
1480607561161442,0.0625,0,-0.5625
1480607561182504,3.3125,0.3125,-0.4375
1480607561204057,1,-0.375,-1.5625
1480607561225112,-2.6875,-1.5625,-3.375
1480607561241155,-5.4375,-1.125,-2.25
1480607561264216,-2.25,0.8125,-0.875
1480607561278254,1.25,0.875,-1.5625
1480607561301315,1.4375,0.4375,-0.4375
1480607561323875,0.375,-0.3125,0
1480607561344930,-2,-1.3125,-0.125
1480607561361475,-4.5,-0.875,-1.125
1480607561391555,-3.3125,-0.125,0
1480607561405091,0.5625,1.375,0.1875
1480607561421134,2.5,1.5,0.3125
1480607561443694,1.4375,-0.5625,-0.0625
1480607561472270,-0.0625,-0.6875,-0.1875
1480607561481294,-0.9375,0.9375,2
1480607561503854,-4.5,-0.125,0.5
1480607561525411,-6.375,0.25,-0.0625
1480607561547470,-3.625,0.6875,-0.25
1480607561564016,1.75,1,0.0625
1480607561585070,3.375,1.4375,0.625
1480607561615652,0.9375,0.8125,0.25
1480607561623673,-2.375,0.0625,0.1875
1480607561645734,-2.6875,0.1875,0.5
1480607561661273,-1.0625,-0.125,0.25
1480607561683834,-0.9375,0.625,0
1480607561705390,-1,0.4375,0.5
1480607561721934,-0.3125,-0.3125,-0.125
1480607561743992,1.3125,-0.0625,-0.125
1480607561766553,0.4375,1.0625,1.625
1480607561781092,-1.25,-0.125,-0.1875
1480607561803653,0.75,-1.0625,0
1480607561826211,1.0625,0.75,0.8125
1480607561841252,-4.25,0.5,-1.1875
1480607561863811,-6.625,-2.1875,-4.375
1480607561886873,3.375,-0.625,0.8125
1480607561900910,8.1875,1.5625,1.8125
1480607561923971,-0.0625,-0.875,-0.125
1480607561946535,-5,-1.25,-0.8125
1480607561967588,-3.125,0.6875,0.375
1480607561983630,0.5,1.3125,0.6875
1480607562006190,0.5625,0.875,-0.375
1480607562029753,0.0625,0.125,-0.625
1480607562043791,1.6875,-0.875,-0.375
1480607562074372,2.4375,0.0625,-0.4375
1480607562080889,-1.3125,0.6875,0.8125
1480607562103951,-2.875,-1.4375,-1.1875
1480607562126510,0.25,-0.625,-0.5625
1480607562140548,1.5,1.625,0.625
1480607562163609,0.3125,0.5,0.9375
1480607562186670,0.75,-1,-0.625
1480607562207225,0.3125,0.0625,0.125
1480607562223769,0.25,0.625,0.75
1480607562246331,0,0.8125,1.1875
1480607562267385,-0.625,0.5625,0.6875
1480607562283929,-1.75,0.125,-0.875
1480607562314009,-0.125,0.25,0.75
1480607562327545,0.75,0.1875,-0.125
1480607562343587,-1.3125,0,-0.0625
1480607562366148,-2.1875,-0.875,-1.25
1480607562387203,0.3125,-0.75,-0.75
1480607562403747,2.6875,1.9375,2.25
1480607562426307,-1.125,1.75,1.25
1480607562447364,-3.625,-0.9375,-0.0625
1480607562463910,-1.625,-0.5625,-0.0625
1480607562485967,-0.8125,0.75,0.5
1480607562509028,-0.3125,0.3125,0.25
1480607562524068,1,-0.5,-0.875
1480607562546632,1.25,-0.5625,-0.0625
1480607562568687,0.25,-0.4375,0.0625
1480607562591748,-0.5625,-0.1875,0
1480607562606287,-1.875,0.0625,-0.3125
1480607562634863,-2.75,-0.125,-0.375
1480607562643887,-0.4375,0,-0.1875
1480607562673966,1.8125,0.3125,-0.125
1480607562687503,1.4375,0.25,0.375
1480607562703545,0.375,-0.375,0.4375
1480607562726105,-1.0625,-0.3125,-0.375
1480607562749668,-0.875,-0.0625,-0.75
1480607562763706,0.25,0.1875,-0.375
1480607562786265,0.875,0,-0.375
1480607562809327,0.9375,0,-0.125
1480607562824367,0.375,0.0625,0.0625
1480607562846430,-0.375,-0.0625,0.0625
1480607562868985,-0.5625,0.1875,0.0625
1480607562883023,-0.625,0.5,-0.5
1480607562913606,0.6875,0.3125,-0.125
1480607562928645,2.125,0.1875,-0.25
1480607562943183,2.3125,-0.0625,-0.5625
1480607562966244,0.5625,-0.0625,0
1480607562988804,-1.125,-0.125,0.125
1480607563003343,-2.8125,-0.0625,-0.875
1480607563026406,-1.125,0,-0.4375
1480607563049466,2.625,0.0625,-0.0625
1480607563063507,3.5625,0,0.1875
1480607563086063,1.375,0.125,0
1480607563108623,-1.3125,0,-0.0625
1480607563123663,-2.0625,-0.0625,0
1480607563146226,-0.1875,-0.1875,0.3125
1480607563168784,2.125,0,0.25
1480607563189839,2.4375,0.3125,0.1875
1480607563206384,0.5625,-0.0625,0.125
1480607563228943,-1.125,-0.4375,-0.1875
1480607563249999,-1,-0.1875,0.125
1480607563282084,0.3125,0.0625,0.75
1480607563289604,0.3125,0.1875,0.875
1480607563326703,-1.5625,1.1875,1.875
1480607563329211,-4.0625,1.6875,5
1480607563356282,-6.3125,-0.25,6.625
1480607563369818,-11.125,-1.5,3.125
1480607563386362,-12.3125,-0.1875,1
1480607563414938,4.0625,3.625,5.75
1480607563430479,25.9375,3.25,6.125
1480607563447024,24.25,-3.6875,-1.0625
1480607563468580,15.9375,-6.1875,-2.9375
1480607563489637,11.5,-2.6875,-1.6875
1480607563506682,3.3125,-0.5625,-0.4375
1480607563528741,-8.8125,0.5,0.625
1480607563549797,-13.8125,-0.5625,-1.3125
1480607563566341,-4.875,-0.25,-2.3125
1480607563589402,3.4375,0.5625,-1.875
1480607563609957,8.8125,0.8125,-1.5
1480607563626501,6.1875,0.25,-0.5
1480607563648560,-0.1875,-1.8125,0.125
1480607563684656,-4.875,-2.375,-0.125
1480607563701200,-4.6875,-1.1875,-0.75
1480607563708720,-1.875,0.0625,-0.6875
1480607563746821,0.6875,0.3125,-0.875
1480607563749328,3.3125,-0.5625,-0.5625
1480607563768880,3.625,-0.5,1.5
1480607563791941,-0.6875,-0.375,0.875
1480607563805477,-4.3125,0.5,0.0625
1480607563836058,-2.9375,0.5,0.875
1480607563851098,1.5,1.375,0.875
1480607563872154,3.3125,0.1875,0.875
1480607563888698,1.875,-1.6875,-1
1480607563912262,1.625,-0.8125,0.125
1480607563925797,1.3125,0.375,1
1480607563971920,-0.4375,-0.25,0.0625
1480607563974426,2.1875,-1.125,1.3125
1480607563985456,2.125,-0.0625,0.0625
1480607564023558,1.75,1.1875,0.3125
1480607564032080,0.8125,0.5,0.5625
1480607564045617,8.0625,-2.25,-0.375
1480607564070182,12.1875,-5.5,0.75
1480607564091238,10.6875,-3.5625,0.625
1480607564113797,3.25,-0.5625,0.4375
1480607564128837,-2.0625,0.5,-0.3125
1480607564166939,-1.1875,0.375,-0.125
1480607564172453,2.1875,-1.25,1.125
1480607564188997,3.4375,-1.5,1.5
1480607564211559,0.75,-0.875,0.375
1480607564232613,-1.375,-0.5625,-0.125
1480607564248657,0.6875,-0.0625,0.25
1480607564271216,0.5,0.875,0.375
1480607564301797,-1.9375,0.3125,0.6875
1480607564310320,-9.0625,0.4375,1.4375
1480607564338896,-18.125,-0.125,1.375
1480607564352432,-28.9375,0.875,1.8125
1480607564368977,-27.5,1.375,4.375
1480607564391536,-11.5,0.9375,-0.0625
1480607564412593,7.4375,0.875,1.4375
1480607564436154,14.9375,1.125,1.25
1480607564451195,9.1875,0.4375,-0.875
1480607564479771,-2.75,-0.75,-2
1480607564488796,-8.9375,-0.5625,-1.5
1480607564525392,-4.9375,-0.0625,-0.625
1480607564533915,-3.375,-0.5,-0.9375
1480607564579543,-5.8125,-0.375,-1.0625
1480607564581542,-6.5625,-0.3125,-0.5
1480607564593574,-4.875,0.125,0.4375
1480607564608614,-0.5,1.4375,1
1480607564631174,0.25,1.9375,0.6875
1480607564670278,0.0625,-0.1875,-0.625
1480607564674789,0.3125,-1.75,-0.1875
1480607564691334,1,-1.375,0.625
1480607564713894,1.25,-0.625,1.375
1480607564728934,2.9375,0.1875,-0.125
1480607564757509,9.5625,-2.0625,0.75
1480607564773552,17.0625,-3.5625,-0.5
1480607564802128,24.25,-4,2.125
1480607564812658,17.875,-1,0.875
1480607564833712,4.75,0.125,-0.5625
1480607564856774,-5.9375,-0.75,-1.5625
1480607564871313,-4.3125,-0.375,-2.3125
1480607564909915,1.375,-0.875,-1.75
1480607564914929,5.1875,0.1875,-1.6875
1480607564931473,0.375,0.25,-2
1480607564954033,-0.0625,0.3125,-2
1480607564968572,1.0625,0.625,-0.25
1480607564998652,0,0.125,0.4375
1480607565022214,-2.5625,0.8125,-0.4375
1480607565034747,-3.4375,0.8125,-0.5625
1480607565051291,0.6875,1.6875,-0.625
1480607565089894,3.3125,1,-0.25
1480607565096420,1.375,-0.0625,0.3125
1480607565111451,-1.25,-0.6875,-0.4375
1480607565134011,-1.3125,-0.375,-1
1480607565155067,0.6875,0.625,0.4375
1480607565178631,-0.0625,0.625,-0.1875
1480607565193670,-3.375,0.625,-1.3125
1480607565214726,-3.5625,0.625,-0.8125
1480607565231270,-1.1875,-0.25,-0.0625
1480607565253329,1.5625,-0.5625,-0.5
1480607565274886,2.75,0.0625,-0.25
1480607565290929,-0.375,0.4375,-0.3125
1480607565313994,-2.75,-0.1875,-0.6875
1480607565335046,-3.125,0.3125,-0.875
1480607565364625,-1.5625,0.5,-0.3125
1480607565373649,2.4375,-0.5625,-0.25
1480607565412758,2.8125,-0.75,-0.1875
1480607565417266,0.9375,0.75,0.625
1480607565433809,-1.5,1.4375,1.25
1480607565456369,-3.1875,0.8125,0
1480607565471409,-1.75,0.75,-0.6875
1480607565493468,1.4375,0.1875,0.5
1480607565515025,3,-0.3125,0.5
1480607565531068,-0.1875,-0.5,-1.4375
1480607565553628,-2.5625,0.6875,-0.875
1480607565576689,-1.6875,0.9375,0.0625
1480607565590726,1.75,0.0625,-0.75
1480607565615292,2.75,-0.5,-0.4375
1480607565636849,0.25,0.0625,-0.0625
1480607565651387,-1.0625,0.1875,-0.0625
1480607565673948,-0.8125,0.1875,-0.1875
1480607565696508,-0.875,0.125,0.125
1480607565710545,0.5,0,0.25
1480607565733607,2.3125,0.0625,-0.1875
1480607565756167,2,0.125,-0.125
1480607565770705,-0.5,0.25,0.3125
1480607565793766,-2.1875,0.3125,0.1875
1480607565816327,-1.5625,0.5625,0.75
1480607565830866,-0.625,0.0625,0.375
1480607565868966,1.625,-1.3125,-1.125
1480607565876487,1.8125,0.1875,-0.0625
1480607565898547,-0.1875,1.1875,0.6875
1480607565921105,-1.0625,0.875,-0.375
1480607565936145,0.0625,-0.375,-0.1875
1480607565950689,0.5,-0.625,-0.125
1480607565973746,0.6875,-0.375,0.125
1480607565996307,0.9375,0,-0.4375
1480607566012348,-0.375,0.8125,0.375
1480607566033907,-1.4375,0.0625,0
1480607566056465,0.75,-0.5,0
1480607566077521,1.4375,-0.1875,0.1875
1480607566108604,0.25,-0.25,-0.3125
1480607566116125,-1.1875,-0.625,-0.125
1480607566144701,0.125,-0.1875,-0.4375
1480607566153724,1.5,1,-0.0625
1480607566191826,-0.5,1.0625,0.75
1480607566197341,-0.6875,-0.6875,-0.6875
1480607566213885,2.375,-0.625,0.1875
1480607566236444,0.4375,0.4375,0.375
1480607566257500,-2.25,0.4375,0.125
1480607566274045,-1.375,-0.0625,-0.625
1480607566296105,1.875,0,0.25
1480607566317159,1.5,0.0625,0.8125
1480607566333703,-0.625,0.25,0.3125
1480607566356263,-3.4375,0,-0.8125
1480607566377820,-2.0625,0.3125,-0.3125
1480607566393863,2.125,0.25,0.125
1480607566415921,3.625,-0.25,0.25
1480607566437479,0.375,0.5,-0.375
1480607566454022,-2.375,0.125,-0.3125
1480607566476081,-0.875,0.5625,-0.125
1480607566498642,-0.125,-0.625,-0.3125
1480607566513681,1.125,-2.25,-1.75
1480607566542258,3.625,0.3125,0.6875
1480607566558802,0.6875,1.8125,1.5
1480607566573842,-3.4375,0.125,-0.75
1480607566596402,-2.6875,-0.9375,0.0625
1480607566618962,0.8125,0,0.875
1480607566632999,1.4375,0.3125,0.0625
1480607566656061,0.125,0.125,-0.1875
1480607566679124,-1.3125,0.0625,-0.125
1480607566701180,-1.25,-0.6875,0
1480607566716222,0.625,-0.125,-0.6875
1480607566744801,1,0.8125,0.875
1480607566753319,-0.5625,0,-0.125
1480607566776381,-0.5625,-0.4375,0.25
1480607566798941,0.3125,-0.3125,0.4375
1480607566812980,-0.0625,-0.125,0.625
1480607566842556,-0.0625,0.25,0.3125
1480607566858599,0.9375,1.25,0.5
1480607566873138,-0.5,0.5,0.5625
1480607566886674,-1.1875,-1,-0.5625
1480607566901714,0.75,-0.625,0.0625
1480607566935303,0.5625,0.1875,-0.3125
1480607566940819,-0.125,0.375,-0.4375
1480607566961876,-0.1875,-0.5625,-0.0625
1480607566983934,1.125,-1.375,-0.1875
1480607567008498,1.1875,-0.375,0.1875
1480607567024541,0.6875,0.5625,0.75
1480607567044093,-1.5625,0.375,-0.6875
1480607567062142,-2.1875,-0.625,-0.8125
1480607567081693,0.625,-0.5625,0.1875
1480607567111773,3,0.25,0.0625
1480607567122301,1.0625,-0.875,-0.75
1480607567141853,-1.6875,-0.8125,-1.3125
1480607567172935,-0.875,0.5,0.4375
1480607567186472,-0.0625,0.0625,-0.4375
1480607567209032,1.3125,-0.8125,-1.25
1480607567224071,2.0625,-0.4375,-0.1875
1480607567255655,0.25,-0.3125,0
1480607567261677,-1.8125,-0.25,-0.5625
1480607567284232,-1.875,-0.25,-0.4375
1480607567306792,1,-0.125,0.125
1480607567321832,2.875,-0.125,0.0625
1480607567344391,0.6875,0.0625,-0.1875
1480607567366952,-2.0625,-0.5,-0.6875
1480607567381490,-0.4375,-0.625,-0.5625
1480607567404050,1.5625,0.3125,0.0625
1480607567435634,0.6875,-0.1875,0.4375
1480607567441651,-1.4375,-0.625,-0.625
1480607567464211,0.125,-0.3125,-0.25
1480607567496800,0.0625,0.6875,0.9375
1480607567501811,-1.5,-0.375,0.1875
1480607567524370,0.3125,-0.875,-0.6875
1480607567546931,2.625,0.25,0.375
1480607567564477,0.5625,0.9375,0.1875
1480607567584029,-1.4375,-0.1875,-0.5
1480607567606589,-1,-1,-0.8125
1480607567625139,1.25,0,0.1875
1480607567644190,1.1875,-0.1875,-0.1875
1480607567666749,0.625,-0.0625,-0.5
1480607567681789,-0.8125,0,0.8125
1480607567704349,-1.25,-2.1875,-1.4375
1480607567726909,1.5625,-1.25,-1
1480607567741448,2.5625,1.6875,2.25
1480607567767016,-1.5625,0.375,-0.5625
1480607567786568,-2.3125,-1.25,-0.4375
1480607567803112,0.5,-0.0625,0.6875
1480607567824168,0.75,0.5,0.125
1480607567846729,-0.3125,0.1875,-0.625
1480607567863272,0.4375,-0.3125,-0.25
1480607567884329,1.0625,0,0.6875
1480607567907890,-1.1875,0.1875,1.125
1480607567921426,-3.6875,-0.1875,0.25
1480607567953011,-2.375,-0.4375,-0.25
1480607567966547,0.625,1.0625,1
1480607567990611,1.625,1.875,2.6875
1480607568004147,-0.625,-0.0625,0.4375
1480607568026707,-3.875,-1.25,1.5
1480607568043251,-8.5625,0.3125,4.3125
1480607568071827,-26,2.4375,8.75
1480607568086867,-45.125,2.25,7.6875
1480607568104414,-45.3125,-0.875,6.75
1480607568132990,-24.9375,2.4375,0.9375
1480607568146529,13.5,6.9375,7.9375
1480607568164574,27,8.6875,5.3125
1480607568187135,12.375,3.375,-1.75
1480607568206686,-2.875,-3.0625,-2.75
1480607568230750,-4.3125,-2.0625,-0.6875
1480607568244289,1.5625,0.4375,0.5625
1480607568266846,4.75,0.6875,2.3125
1480607568284393,3.5,0.25,0.5625
1480607568303944,-0.1875,-0.375,-1
1480607568326504,-2.75,-0.25,-2.375
1480607568343048,-1,-0.5625,0.625
1480607568364105,1.75,-1,1.875
1480607568386664,1.4375,-1.4375,-0.1875
1480607568420254,4.5625,-2.125,-0.75
1480607568424264,10.0625,-2.0625,-0.625
1480607568454344,11.3125,-0.0625,-0.0625
1480607568464372,5.375,0.5,-1.0625
1480607568484424,3.4375,-2.6875,1.125
1480607568506484,12.125,-9,2.3125
1480607568529047,22.1875,-12.25,-3.5625
1480607568544083,19.0625,-7.1875,-3.625
1480607568566645,8.0625,0.1875,1.125
1480607568589203,-7.25,0.5,-0.0625
1480607568604243,-8.375,-1.125,-2
1480607568626803,-0.1875,-0.6875,-0.75
1480607568649364,7.0625,2.125,-0.6875
1480607568671923,6.9375,4.1875,-2.6875
1480607568686462,5.6875,3.25,-1.1875
1480607568709523,2.625,0.625,-1.8125
1480607568725566,-0.1875,-1.6875,-1.375
1480607568746622,-0.125,-0.375,-0.125
1480607568786227,2.875,-2.6875,-1.5
1480607568788734,4.875,-2.9375,-3.9375
1480607568806782,0.8125,-0.6875,1
1480607568829343,-3.75,-1.375,0
1480607568844383,-3.125,-1.375,-1.5625
1480607568866445,0.0625,-0.375,0.125
1480607568889001,-0.0625,2.3125,-0.625
1480607568904041,-2.3125,2.9375,-0.25
1480607568926601,-2.25,1.25,0.25
1480607568949164,-2.4375,0.375,-0.4375
1480607568971721,-1.75,-0.625,-0.3125
1480607568994281,-0.5,0.8125,0.8125
1480607569009321,-1.125,1.0625,1.375
1480607569026366,0.125,1.375,-0.9375
1480607569048435,1.8125,2.625,2
1480607569068981,1.625,0.1875,0.625
1480607569085525,0.9375,-0.9375,-0.625
1480607569106579,1.9375,1.6875,1.375
1480607569129140,1.1875,3.25,2.4375
1480607569145683,-1.625,-0.375,-1.9375
1480607569166741,-6.25,-0.5625,-1
1480607569189299,-3.5,-1.375,0.3125
1480607569206846,2.0625,-0.125,0.5625
1480607569226398,1.4375,1.25,0.8125
1480607569248962,-1.9375,1.5625,0.3125
1480607569265503,-3.3125,2.0625,0.5625
1480607569286559,-4.375,-0.1875,-0.5
1480607569309118,-2.625,0.125,-1
1480607569325663,1.3125,0.625,-0.4375
1480607569346721,2.875,0.3125,-0.5
1480607569376799,-0.4375,0,-0.5625
1480607569387326,-3.625,-1.5625,-0.875
1480607569406377,-2.1875,-0.875,-1.4375
1480607569428938,0.875,-0.0625,-0.625
1480607569446989,-0.6875,1.25,0.5625
1480607569474057,-1.6875,1.75,-0.5625
1480607569489097,-2.1875,1.75,-1.75
1480607569507145,0.5625,-0.0625,0.5625
1480607569526697,3.4375,-0.125,0.1875
1480607569549260,2.5625,-0.25,2.0625
1480607569567306,-2.0625,2.4375,0.125
1480607569586858,-6.125,1.5625,0
1480607569608916,-3.0625,-1.1875,-2.1875
1480607569631978,5.25,-0.25,0.625
1480607569646518,5.4375,-0.125,2.0625
1480607569669076,2.0625,-0.4375,-1.25
1480607569693140,-1.375,-0.25,-0.6875
1480607569706676,-4.375,-0.25,-1.125
1480607569729237,-2.3125,-0.8125,-0.875
1480607569754804,1.375,-1.1875,-0.625
1480607569766836,3.875,-0.125,-1.1875
1480607569788895,0.4375,0.125,0.5625
1480607569806943,-1.4375,-0.9375,-1.1875
1480607569826494,-1.375,0.4375,-1.125
1480607569849057,-0.75,0.375,0.375
1480607569874623,1.25,-0.1875,-0.625
1480607569886655,3.1875,0.25,1.25
1480607569909215,-0.5625,0.125,-0.3125
1480607569939796,-3.625,0,-1.25
1480607569948322,-1.0625,0.125,0.125
1480607569969375,1.8125,0.4375,0
1480607569986921,3,0.0625,0
1480607570015502,0.3125,1.375,1.875
1480607570029043,-2.5,0.875,0.875
1480607570051594,-2.3125,-0.375,-1.5
1480607570068138,0.5,-0.4375,0.375
1480607570089194,1.125,-0.4375,-0.125
1480607570111754,0.875,-0.1875,-0.5625
1480607570134315,-0.4375,-0.625,-0.25
1480607570149354,-0.5625,-0.0625,-0.3125
1480607570171413,-0.0625,-0.6875,-0.375
1480607570187956,0.6875,-0.1875,-0.125
1480607570216533,0.375,0.3125,-0.1875
1480607570231573,-1.5,0.4375,0
1480607570248119,-1.5,0.4375,-0.375
1480607570269173,-0.375,-0.6875,-0.75
1480607570294742,1.25,-0.625,-0.375
1480607570309780,1.125,-0.375,-0.1875
1480607570329334,0.125,-0.5,-0.875
1480607570354399,-0.5625,-0.5625,-0.5
1480607570376960,-0.5,-0.3125,-0.3125
1480607570405535,-0.6875,-0.625,-1.25
1480607570411552,0.0625,-0.375,-0.625
1480607570429600,1.3125,0.4375,0.25
1480607570449152,2.1875,0.1875,0.5625
1480607570471711,1.375,-0.125,0
1480607570489759,-1.4375,0.25,-0.125
1480607570509311,-2.125,1.125,0.4375
1480607570531873,-0.8125,1,0.75
1480607570549422,0.5625,0.8125,0.4375
1480607570570475,1.875,1.1875,0.125
1480607570591530,-0.1875,1.9375,1.6875
1480607570614092,-2.5,1.0625,0.5625
1480607570629131,-2,-0.25,0.4375
1480607570659210,0.75,0.5,1.75
1480607570677258,2.75,1,0.5
1480607570689290,1.0625,-0.0625,0.75
1480607570711850,0.8125,-3.1875,-0.25
1480607570729900,3.25,-0.625,-0.875
1480607570748950,1.0625,3.25,2.5625
1480607570775018,-5.125,1.125,-0.875
1480607570789557,-5.375,-0.9375,-0.375
1480607570809110,1.4375,-0.4375,1
1480607570831671,3.25,0.75,0.1875
1480607570849717,-0.3125,1.3125,1.9375
1480607570870774,-2.5,0.75,1
1480607570908874,-2.1875,1.5625,-0.9375
1480607570910880,-4,1.6875,0.6875
1480607570930433,-0.5625,1.0625,0.375
1480607570951489,4.3125,1.3125,1.3125
1480607570969536,0,-0.1875,-1.375
1480607570998113,-3.125,-1.5,-0.25
1480607571011648,0.875,-0.9375,1.625
1480607571029696,1.4375,0.125,-0.8125
1480607571050752,-1.75,0.1875,-0.75
1480607571079328,-0.0625,-0.5,-0.375
1480607571089354,2.375,-0.875,-0.6875
1480607571110411,0.75,-0.25,-0.5
1480607571138986,-0.9375,0.25,0.625
1480607571149515,-0.875,0.5,0.8125
1480607571172075,-3,1.0625,0.8125
1480607571191627,-2.375,1.5625,1.9375
1480607571209675,0.5,0.625,0.4375
1480607571230731,0.875,1.75,0.9375
1480607571251787,-1.25,2.3125,1.4375
1480607571269333,-2.5,0.3125,0.0625
1480607571291894,0.375,-0.75,0.5
1480607571311448,1.8125,-0.4375,-0.1875
1480607571329493,0.25,0.6875,0.125
1480607571352054,-1.625,1.25,-0.6875
1480607571371605,-0.6875,2.6875,1.5625
1480607571389654,3.25,2.5625,4.4375
1480607571412719,3.125,1.125,3.875
1480607571431765,-14.875,0.6875,6.375
1480607571454326,-30.875,-0.8125,0.9375
1480607571471872,-38.6875,1.0625,4.1875
1480607571491424,-28.875,4.3125,5.125
1480607571515488,-6.75,5.25,1.75
1480607571532032,18.0625,5.1875,4.5
1480607571553089,24.3125,1.4375,8.6875
1480607571574144,33.375,-9.6875,2.3125
1480607571592192,30.5625,-8.5625,-6.125
1480607571611747,13.875,-2.4375,-1.25
1480607571641824,-3.625,3.3125,6.25
1480607571651852,-14.1875,0.1875,-2.75
1480607571672907,-11.25,-2.25,-6.125
1480607571693965,-2.625,-1.75,-6.375
1480607571712014,5.3125,-2,-4.4375
1480607571731563,9.6875,2.3125,-2.25
1480607571754123,4.4375,3.9375,-3.0625
1480607571772174,-5.5625,1.5625,-3.1875
1480607571791724,-6.5,-1.125,-3.6875
1480607571814283,-0.6875,-1.75,-3.25
1480607571831830,7.5625,0.0625,-1.6875
1480607571852886,8.5,0,-1.4375
1480607571881463,2.8125,-0.625,0.3125
1480607571891990,-4.875,-0.6875,0.5625
1480607571913046,-5.8125,-0.25,-0.0625
1480607571934103,-1,1.125,-1
1480607571952150,3.75,2.0625,0
1480607571979224,3.6875,0.9375,0.125
1480607571994263,-0.625,-1.1875,-1
1480607572012313,-4.75,-1.75,-1.3125
1480607572032865,-3.875,0.625,1.4375
1480607572053922,-0.375,0.75,-1.125
1480607572071970,2.4375,1.4375,-0.9375
1480607572093025,0.5625,0.8125,1.25
1480607572123106,-2,-1,-1.9375
1480607572132129,-1.625,-0.625,-1.375
1480607572153185,-3.5,0.6875,-1.25
1480607572174241,-3.1875,1,-0.625
1480607572192289,-2.6875,0.8125,-0.9375
1480607572214347,-2.375,-0.25,-1.4375
1480607572234401,-1.375,-1.125,-1
1480607572251948,0.0625,-0.875,-0.25
1480607572280524,-1.5625,0.25,-1.125
1480607572294059,-5.625,0.8125,-0.8125
1480607572312110,-4.125,0.75,1.3125
1480607572339180,-0.375,-0.625,0.0625
1480607572354219,-1.0625,-0.4375,-0.75
1480607572372268,-3.75,1,-0.3125
1480607572394831,-3.3125,1.5,-0.3125
1480607572413878,-1.25,1.5,0.4375
1480607572431927,-0.0625,-0.1875,-0.5
1480607572454988,-0.125,0.0625,-0.4375
1480607572475542,-1.375,1.0625,-0.25
1480607572492087,-2.25,0.8125,-0.5
1480607572514647,-3.0625,0.9375,-0.125
1480607572534199,-3.375,0,0.125
1480607572559767,-1.125,-0.9375,-0.375
1480607572574807,0.0625,-0.4375,-0.375
1480607572594358,0.3125,0.0625,0.25
1480607572616921,-2.0625,0.3125,-1.3125
1480607572634466,-1,0.5625,-0.25
1480607572654017,2.6875,1.25,0.4375
1480607572672066,3,1.4375,1.0625
1480607572694628,-0.8125,-0.125,0.25
1480607572714178,-4.1875,-0.125,-0.5
1480607572732226,-5.6875,0.625,-0.8125
1480607572754785,-2.6875,-0.1875,-1.0625
1480607572775841,2.9375,0.0625,-0.25
1480607572796396,4.625,0.3125,0.375
1480607572814444,0.6875,0.25,0.625
1480607572843020,-2.9375,-0.5,0.5625
1480607572852044,-4,0.0625,0.0625
1480607572879116,-2.9375,0.25,0.8125
1480607572895660,0.4375,0,1.0625
1480607572912205,1.125,0.0625,0.3125
1480607572934263,-2.3125,0.5,1
1480607572955820,-2.0625,-0.1875,0.1875
1480607572971863,1.6875,1.25,0.6875
1480607572994423,0.75,2.5625,2.4375
1480607573015479,-3.3125,1.0625,0.8125
1480607573036535,-4.0625,-0.5,0.25
1480607573054583,-1.125,-1.0625,-0.3125
1480607573075639,1.4375,-0.125,0.1875
1480607573096695,1.6875,0.375,0.3125
1480607573114743,0.25,0.8125,0.3125
1480607573137303,-1.9375,1.0625,-0.375
1480607573156855,-1.9375,0.1875,0
1480607573174402,-0.375,0.0625,-0.25
1480607573196962,0.375,-0.5625,0.0625
1480607573216516,1.75,0.125,0.375
1480607573234562,0.625,1,0
1480607573257122,-0.5625,-0.5625,-1
1480607573276674,0.8125,-0.75,-0.25
1480607573294725,0.5,0.0625,0.1875
1480607573317287,-2.375,0.375,-0.25
1480607573336834,-1.4375,0.375,0.5
1480607573362403,0.3125,-0.125,-0.125
1480607573376941,2.375,-0.625,-0.75
1480607573396493,2.875,1.1875,0.8125
1480607573414541,0.5625,0.8125,-0.1875
1480607573437101,-1.5625,-0.125,-1.1875
1480607573456652,-1.5625,0.125,0.375
1480607573474701,-1.3125,-0.875,-0.5625
1480607573497262,1.25,-1,-0.5625
1480607573516813,2.625,-0.1875,0.5625
1480607573534360,1.5625,0.75,1.6875
1480607573556919,-0.75,-0.3125,2.0625
1480607573579480,-4.625,-0.75,3.375
1480607573594521,-7.4375,0.25,7.0625
1480607573621591,-11.25,-0.4375,5.75
1480607573636631,-16,-0.125,2.5
1480607573654679,-9.375,1.3125,-1.875
1480607573684767,8.4375,1,0.625
1480607573696791,18.1875,1.625,0.4375
1480607573714338,11.0625,1.3125,-1.5625
1480607573736899,1.0625,-0.375,-2.0625
1480607573757954,-2.625,-0.25,-1.4375
1480607573796055,0.75,-0.6875,0.5625
1480607573798564,4.75,0.1875,1.375
1480607573834157,17.75,1.25,1.25
1480607573839171,25.625,-2.75,-0.0625
1480607573856216,20.9375,-5.25,-0.0625
1480607573878778,5.3125,-6.5625,-0.3125
1480607573899832,-10,-2.625,-0.625
1480607573916376,-13.9375,1.0625,-0.9375
1480607573944969,-3.125,1.0625,-1.5
1480607573961500,9.3125,1.1875,-0.9375
1480607573976034,11.375,0.375,0.75
1480607573997091,2,-0.8125,-2
1480607574013635,-6.5625,-1.0625,-2.375
1480607574036194,-5.25,1.0625,-0.3125
1480607574060259,0.3125,1.0625,0.125
1480607574073294,3.6875,-0.1875,-1.0625
1480607574103875,2.625,-0.125,-1.125
1480607574118915,0.0625,-0.0625,-0.375
1480607574132952,-1.8125,0.3125,-0.625
1480607574157016,-2.75,0.5,-0.0625
1480607574179079,-1,0.0625,-0.5625
1480607574199629,3.6875,0.625,-0.5625
1480607574216174,5.8125,1.25,-0.125
1480607574238734,3,1.5625,0.375
1480607574259789,-2.5625,0.5,-0.25
1480607574283853,-3.25,-0.8125,-0.375
1480607574298893,-2.0625,-0.6875,-1.0625
1480607574337497,0.5,0.8125,0.1875
1480607574343011,2.6875,1.5,0.625
1480607574358552,2,1.8125,0.5625
1480607574373092,-0.75,1.3125,0.5625
1480607574396152,-2.5625,0.8125,0.3125
1480607574418712,0,0.625,0.625
1480607574433251,0.625,0.625,0.5
1480607574456312,0.125,0.6875,0.1875
1480607574478876,-0.125,0.3125,0.25
1480607574499928,0.25,0.125,0.5625
1480607574516472,0.5,-0.25,0.25
1480607574538532,-0.4375,0.1875,0.0625
1480607574559586,0.125,0.75,0.3125
1480607574576135,0.9375,0.375,0.375
1480607574598691,1,0.75,-0.125
1480607574619746,-2.125,1.25,0.8125
1480607574636793,-3.5,0.75,-0.125
1480607574658850,-1.8125,0.6875,0.25
1480607574679907,-0.4375,-0.6875,-0.5625
1480607574709988,0,-1.1875,-0.9375
1480607574718510,-0.5625,-0.25,0.8125
1480607574740067,-1.9375,0.5,0.5625
1480607574756110,-3.75,0.1875,-0.1875
1480607574779173,-3.0625,-0.5625,0.5625
1480607574799725,-2.0625,-0.5625,-0.625
1480607574816277,-2.375,-0.25,-0.5625
1480607574838830,-2.4375,0.25,0.5625
1480607574859887,-0.6875,1.4375,0.5625
1480607574876430,-0.75,0.9375,0.5625
1480607574898490,-2.75,0.375,0.1875
1480607574920046,-3.625,-0.25,-0.4375
1480607574942104,-3.375,0.0625,-1.0625
1480607574959151,-2.25,0,-0.5625
1480607574981210,-2.5,0.375,-0.375
1480607574996248,-2.3125,0.375,-0.25
1480607575018808,-0.75,0.5625,-0.4375
1480607575041369,0.375,0.6875,0.1875
1480607575056408,0.0625,0.5625,0.375
1480607575078970,-0.5625,0.875,0.3125
1480607575101027,-3.3125,0.5,0.25
1480607575116573,-3.875,-0.25,-0.25
1480607575138628,-2.125,-0.25,0.8125
1480607575168708,-2.4375,-0.5625,2.1875
1480607575175726,-7.5625,1.3125,3.3125
1480607575214329,-13.25,0.4375,1.4375
1480607575221347,-11.75,0.3125,1.1875
1480607575235385,-0.1875,2.5625,1.5625
1480607575258948,10.125,2.3125,1.625
1480607575287022,11.8125,0.1875,-0.125
1480607575295545,6.875,-1.9375,-2
1480607575318606,2.25,-3.125,-3.75
1480607575341166,2.375,-2.25,-2.125
1480607575362222,4.1875,0.75,0.0625
1480607575378767,4.125,2,0.1875
1480607575401327,0.75,-0.25,-0.25
1480607575422382,-1.6875,-0.9375,-0.75
1480607575438927,-0.125,-0.5625,-0.3125
1480607575461486,0.9375,1.375,0.125
1480607575483546,0.3125,1.1875,-0.125
1480607575498586,0.875,0.375,-0.3125
1480607575521145,0.875,-0.0625,-0.25
1480607575542201,0.3125,0.0625,-0.25
1480607575558745,0.125,0,0.5625
1480607575581305,-3.6875,0.5,-0.25
1480607575601860,-3.25,0.75,0.1875
1480607575618905,0.375,0.4375,0
1480607575640964,3.6875,0.3125,0.5
1480607575662521,2.0625,0.1875,0.3125
1480607575678566,-1.75,0.0625,-0.25
1480607575701124,-2.9375,0.25,0
1480607575722681,-1.5625,0.6875,-0.1875
1480607575738724,1,-0.125,-0.125
1480607575767301,1.3125,-0.5625,-0.625
1480607575782340,-0.25,-1,-0.9375
1480607575798886,-1.1875,-0.625,-0.5
1480607575821444,-1.375,0.125,-0.5625
1480607575841998,0.8125,0.5625,-0.3125
1480607575858542,1.9375,0.1875,0.6875
1480607575881103,-0.5,0.1875,0.1875
1480607575902159,-3.8125,0.125,-0.1875
1480607575918703,-3.625,-0.0625,0.1875
1480607575941262,0.1875,0.0625,0.5625
1480607575964324,2.75,1,0.8125
1480607575978865,0.5,0.9375,0.5625
1480607576001423,-2.875,0.6875,-0.1875
1480607576023483,-3.6875,0.625,0.1875
1480607576038522,-3.0625,0.625,-0.125
1480607576061085,-1.75,0.25,-0.3125
1480607576100187,0.4375,0.4375,-0.0625
1480607576105701,1.8125,0.125,0.0625
1480607576121241,1.0625,-0.25,0
1480607576143801,-1.375,0,0.125
1480607576181903,-2.5,0.0625,-0.125
1480607576184410,-1.9375,0.0625,0.0625
1480607576203460,-0.125,0.375,0.1875
1480607576218500,0.1875,0.8125,0.125
1480607576241060,-0.4375,0.3125,0.125
1480607576263621,-0.25,0,0
1480607576278162,-0.1875,0.1875,-0.0625
1480607576301220,-0.6875,0.125,0.5625
1480607576323780,-2.75,0,-0.25
1480607576338319,-2.3125,0.125,-0.375
1480607576368900,0.5625,0.3125,-0.0625
1480607576383940,1.875,0.4375,0.125
1480607576397978,0.625,0.5,0.25
1480607576421039,-1.5625,0.625,0.0625
1480607576444102,-1,-0.25,0.1875
1480607576464655,0.8125,-0.3125,0.125
1480607576481199,-0.5,-0.25,-0.375
1480607576511283,-0.625,0.125,-0.1875
1480607576524815,0.3125,0.5,0
1480607576540858,0.625,0.5,0.125
1480607576563919,0.125,-0.0625,0.1875
1480607576591993,-1.625,0.1875,-0.375
1480607576602021,-1.4375,0.0625,-0.0625
1480607576623578,0.5625,0.3125,-0.5
1480607576646138,2.0625,0,-0.3125
1480607576661179,1.0625,0.3125,0.0625
1480607576683738,-0.375,0.25,-0.0625
1480607576704794,-2.0625,0.125,-0.1875
1480607576721338,-2,0.8125,0.9375
1480607576743901,-1.625,1.125,0.8125
1480607576764954,-0.75,-0.375,0.25
1480607576780997,0.25,-0.375,-0.5
1480607576803557,1.625,1,0.75
1480607576833637,0.625,0.5625,0
1480607576841157,-1,-0.375,0.125
1480607576887279,-2.1875,-0.0625,-0.1875
1480607576892292,-1.6875,0.25,0.5625
1480607576901316,-0.625,-0.1875,0
1480607576923881,0.4375,-0.125,0.4375
1480607576953957,0.0625,0.3125,1.1875
1480607576968997,0.1875,0.125,0.625
1480607576983535,-0.125,-0.125,-0.0625
1480607577006096,-0.4375,-0.6875,0.25
1480607577021135,0.4375,-0.3125,1
1480607577044201,0.5625,-0.0625,2.8125
1480607577066256,0.125,-0.25,2.625
1480607577080795,-2.0625,1.8125,2.75
1480607577103856,-2.25,1.125,0.4375
1480607577126416,1.6875,0.1875,0.5625
1480607577140453,2.5625,-0.625,-0.25
1480607577163514,-0.125,-0.75,-1
1480607577186074,0.625,0,-0.875
1480607577200613,2.4375,-0.5625,-0.6875
1480607577223674,2.375,-1.4375,-0.75
1480607577246235,0.875,-1.4375,-1.5
1480607577267290,-0.625,-0.875,-1.5625
1480607577284837,-2.25,0.1875,-0.125
1480607577306394,0.5,1.1875,0.25
1480607577320433,2,0.375,0
1480607577344998,0.625,-0.5625,-0.4375
1480607577366053,0.6875,-0.5,-0.1875
1480607577380592,-0.4375,-0.125,-0.1875
1480607577403654,-2.1875,-0.6875,-0.375
1480607577426214,-0.375,0.375,0
1480607577447269,0.75,0.1875,0.0625
1480607577463813,-0.0625,-0.4375,0.5
1480607577486373,-1.375,-0.5625,-0.25
1480607577507429,-2.0625,-0.3125,0.3125
1480607577523973,-1.5625,0.4375,0.5
1480607577552549,-0.625,0.375,0.5625
1480607577567087,0.0625,0.25,0.9375
1480607577583632,0.3125,0.0625,0.5625
1480607577621733,-1.0625,0.125,0.75
1480607577627250,-2.875,-0.125,-0.0625
1480607577643792,-2.3125,-0.25,-0.0625
1480607577666352,-0.3125,-0.125,-0.0625
1480607577687408,-0.125,-0.375,-0.25
1480607577711474,-0.125,0.375,-0.25
1480607577727013,0.125,0.0625,0.0625
1480607577747568,-1.5,-0.625,0.0625
1480607577763611,-1.8125,-1.25,-0.375
1480607577786672,-0.875,-1,-0.3125
1480607577807227,0.1875,-0.375,0
1480607577823770,-0.625,0.0625,-0.0625
1480607577846331,-0.3125,0,-0.3125
1480607577869392,-0.0625,0.125,-0.375
1480607577891451,0.625,-0.0625,-0.4375
1480607577905989,0.9375,-0.375,-0.5625
1480607577934565,0.3125,-0.125,-0.5625
1480607577943590,0.125,-0.125,-0.4375
1480607577966149,0.5,-0.1875,-0.625
1480607577988709,0.625,0.0625,-0.25
1480607578003750,0.4375,0.1875,-0.25
1480607578026812,1.125,0.4375,-0.25
1480607578048870,-0.0625,0.3125,-0.5625
1480607578062908,-0.375,0.375,-0.1875
1480607578086470,0.25,0.25,0
1480607578108528,0.3125,0.375,0.375
1480607578123067,-0.3125,0.3125,0.25
1480607578146128,-0.625,0.375,-0.125
1480607578169691,-0.1875,0.5,-0.0625
1480607578183227,1.1875,0.375,-0.0625
1480607578213808,1.3125,0.375,-0.25
1480607578228848,-0.0625,-0.3125,-0.125
1480607578242886,-0.9375,-0.125,-0.3125
1480607578266448,0.0625,0.4375,-0.25
1480607578288507,0.4375,0.8125,-0.1875
1480607578303046,0.375,0.875,0.375
1480607578326107,0.375,0.0625,-0.75
1480607578354683,-0.4375,-0.4375,-0.25
1480607578369723,-1.1875,0.125,-0.6875
1480607578410337,-1.0625,1.25,0.75
1480607578414843,-0.3125,0.4375,0.375
1480607578429884,1.25,-0.0625,0.5
1480607578453947,-0.625,0.5625,0.4375
1480607578468486,-2.3125,1.1875,0.5
1480607578497062,-2.1875,1.25,0.25
1480607578506086,-1.625,0.625,0.4375
1480607578528646,0.4375,0.8125,1.25
1480607578549702,0.8125,0.875,1.0625
1480607578572263,-1.4375,0.8125,0
1480607578588806,-2.3125,0.375,-0.25
1480607578609862,-0.3125,-0.125,-0.0625
1480607578626406,1,-0.0625,-0.375
1480607578648465,0.3125,1.1875,1.1875
1480607578669521,-1.25,0.6875,0.4375
1480607578686065,-1.625,-0.5625,-1.5
1480607578708625,-0.75,0.25,0.5
1480607578729681,-0.375,0.75,0
1480607578746225,0.875,0.625,0.125
1480607578768785,0.5,0.3125,0.125
1480607578789841,-0.5625,-0.25,-0.3125
1480607578806887,-1.5625,0.1875,-0.1875
1480607578828945,-1.75,0.25,-0.125
1480607578851004,-0.25,0.125,0
1480607578866044,1.25,0.5,-0.25
1480607578888604,0.375,1.3125,0.9375
1480607578911164,-1.8125,-1.25,-0.5
1480607578926204,-0.3125,-1.75,-2
1480607578948764,1.875,2.8125,2.625
1480607578971324,-0.5,1.1875,-0.4375
1480607578985361,-1.5,-1.0625,-0.9375
1480607579008924,-0.25,0.1875,0.5625
1480607579030982,-0.3125,0.125,0
1480607579053542,0.9375,-0.0625,0.1875
1480607579068583,0.375,-0.125,-0.25
1480607579098662,-0.625,0.0625,0.0625
1480607579105682,-0.5625,0.25,-0.125
1480607579129244,0.1875,0.375,-0.25
1480607579151805,-0.0625,0.0625,0.3125
1480607579172359,-0.625,-0.0625,0.125
1480607579188902,-1.3125,-0.375,-0.25
1480607579210963,-0.4375,0.1875,-0.8125
1480607579225500,0,1.875,1.6875
1480607579248562,-0.5,-0.25,-0.25
1480607579271122,0.9375,-1.25,-0.375
1480607579286161,0.5625,0.5625,1.3125
1480607579309724,-2.4375,0.75,0.125
1480607579331282,-2.5,0,-0.0625
1480607579352337,0.8125,-0.1875,0.0625
1480607579368882,2.3125,0.125,1.5
1480607579391441,1.4375,0.75,3.5625
1480607579419516,1,0.5,5.5625
1480607579428540,-3.5,0.6875,6.5
1480607579451100,-5.75,2.875,4.5625
1480607579472157,-1.125,5.75,2.375
1480607579496220,5.5,5.125,2.375
1480607579511262,7.625,0.3125,0.4375
1480607579532316,3.25,-3.0625,-3.6875
1480607579548860,-0.75,-3.5,-4.375
1480607579571421,0.875,-1.0625,-1.5
1480607579609021,2.4375,1.375,0.625
1480607579611527,2.125,0.875,-0.8125
1480607579631081,-1.9375,-0.75,-1.5
1480607579653639,-3.5625,-0.4375,-0.9375
1480607579668679,-1.9375,1,0.6875
1480607579697757,-1.5625,-0.0625,-0.625
1480607579712295,-0.1875,-1.125,-0.5625
1480607579728839,0.875,-1.1875,-0.1875
1480607579751400,2.3125,-1,-0.5
1480607579773959,1.625,0.6875,-0.5625
1480607579788498,-0.375,1.125,0.0625
1480607579811060,-1.4375,0.3125,-0.1875
1480607579833618,-2.3125,-0.1875,-0.625
1480607579848658,-1.375,-0.4375,-0.375
1480607579884754,0.5,-0.4375,-0.25
1480607579893780,0.875,0.3125,0.125
1480607579908818,-0.375,0.875,-0.0625
1480607579931378,-0.0625,0.9375,0.5
1480607579953937,-0.875,0.5,0.6875
1480607579967975,-2.75,-0.4375,-0.125
1480607579991036,-2.25,-0.8125,-0.5
1480607580013596,-0.6875,-0.6875,-0.625
1480607580028135,0.5625,-0.25,-0.5
1480607580051197,-0.3125,-0.125,-1.25
1480607580073758,-1,-0.1875,-0.25
1480607580087794,-0.9375,-0.5,0.375
1480607580118877,-3.0625,0.0625,-0.1875
1480607580133917,-4.1875,-0.125,-0.625
1480607580155975,-1.625,-0.0625,-0.25
1480607580171016,1.5,0.25,-0.1875
1480607580210124,0.5,0.25,0.375
1480607580214632,-1.3125,-0.0625,0.375
1480607580231176,-2.6875,-0.125,-0.1875
1480607580253735,-3.125,0.0625,-0.1875
1480607580267773,-0.375,0.25,0
1480607580298859,2.125,0.25,-0.125
1480607580314397,1.9375,0.125,-0.1875
1480607580334450,-0.875,-0.3125,-0.125
1480607580350994,-2.3125,-0.375,-0.1875
1480607580373554,-1.3125,-0.0625,0.25
1480607580394611,0.3125,0.3125,0.25
1480607580411154,0.3125,0.125,0
1480607580441234,0.125,0.625,-0.125
1480607580454770,-0.9375,0.3125,0.3125
1480607580471315,0.25,-0.0625,1.1875
1480607580493874,0.6875,0.4375,2.1875
1480607580522450,-1.875,0.75,3.75
1480607580530977,-7.1875,1.25,5.125
1480607580561053,-5.8125,0.8125,2.625
1480607580576093,-2,1.25,0.3125
1480607580591133,2.8125,0.5625,0.1875
1480607580613693,4.8125,0.5,-0.1875
1480607580634749,2.6875,0.1875,-1.25
1480607580651293,-1,-0.3125,-2.3125
1480607580673900,-0.125,-1.5625,-2.9375
1480607580694955,3.25,-2.0625,-2.125
1480607580710998,5.625,-1.125,-0.4375
1480607580733558,2.4375,-0.3125,-0.5625
1480607580756118,-3.4375,-0.625,-0.5
1480607580771159,-4.375,-0.25,-0.3125
1480607580793721,-1.875,0.3125,-0.25
1480607580816287,3.75,1.3125,2.25
1480607580838839,7.0625,0.75,2.6875
1480607580853878,4.375,-1.9375,-0.4375
1480607580883457,0.4375,-1.75,-0.125
1480607580898999,-0.125,-0.0625,0.5
1480607580913537,-1.3125,0.875,-0.1875
1480607580936097,-4.3125,0.75,-0.6875
1480607580950641,-2.3125,-0.3125,-1.1875
1480607580973697,3.6875,-0.125,-0.1875
1480607580996257,5.8125,0.9375,1.25
1480607581010296,-0.6875,0.9375,0.0625
1480607581034358,-5.375,-0.0625,-0.5625
1480607581056421,-2.375,-0.25,-0.4375
1480607581070454,2.1875,0.25,-0.3125
1480607581094018,3.9375,0.4375,0.375
1480607581116577,1.0625,-0.3125,0.0625
1480607581130615,-2.1875,-1,-0.625
1480607581161198,-2.3125,-0.5,-0.375
1480607581176741,-0.5,-0.0625,-0.0625
1480607581190775,1.25,0,0
1480607581228876,1.5,0.3125,0.375
1480607581236396,0.1875,-0.3125,0.0625
1480607581257452,-0.6875,-0.5625,0.3125
1480607581273495,-1.3125,-0.3125,0
1480607581296056,-1.9375,0.25,0
1480607581317111,-1.25,0.5625,-0.25
1480607581333654,2.6875,0.4375,-0.0625
1480607581363734,2.875,0.3125,-0.0625
1480607581377271,1.9375,0.3125,0.5625
1480607581393816,-1.375,0.5,-0.375
1480607581416374,-3.625,-0.25,-0.625
1480607581444954,-2.25,-1.4375,-1.6875
1480607581459992,2.0625,-0.125,-0.4375
1480607581476035,2.1875,0.875,-0.75
1480607581499095,1.1875,-0.3125,-0.3125
1480607581513634,0.6875,-0.5625,-0.0625
1480607581537197,0.25,-0.25,1.1875
1480607581557750,-2.4375,1.5,0.6875
1480607581573794,-4.75,0.25,-0.125
1480607581596354,0.25,-2.1875,0.0625
1480607581617409,5.6875,-1.5,5.1875
1480607581633953,5.8125,-4.8125,7.5
1480607581656012,0.4375,-3.9375,6.4375
1480607581677070,-8.0625,5,8.125
1480607581693615,-16.375,7.8125,1.5
1480607581716673,1.5625,3,0.3125
1480607581738732,18.3125,-0.6875,-0.125
1480607581759792,15.625,-0.75,-1.375
1480607581776333,-2.0625,-1.4375,0.5625
1480607581798893,-12.125,0.0625,0.5625
1480607581827472,-12.4375,-0.3125,-1.25
1480607581835991,-2.5,-1.375,-2
1480607581859554,7.25,-0.75,-1.625
1480607581873089,9.9375,-0.125,-0.5
1480607581896151,1.625,0,-3
1480607581918711,-5.375,0.25,-2.875
1480607581933250,-3.3125,0.125,-2
1480607581956310,2.625,0.125,-1.5
1480607581978871,6,-0.0625,-1.125
1480607581993419,2.875,-0.5625,-1.375
1480607582015970,-2.75,-0.0625,-1.375
1480607582038549,-5.6875,0.5625,-1.125
1480607582053088,-2.0625,0.625,0.125
1480607582076151,0.625,0.25,-0.4375
1480607582098711,0.0625,-0.0625,-0.375
1480607582113248,-0.75,0.0625,-0.875
1480607582136309,-1.125,0,-0.5625
1480607582158869,-1.625,-0.125,-0.5
1480607582179928,-1.375,0.25,-0.25
1480607582195968,-0.8125,1.0625,-0.3125
1480607582218527,-1.875,1.0625,-0.625
1480607582243596,-3.125,0.75,-1.0625
1480607582256129,-3.5625,0.25,-0.5
1480607582284705,-0.9375,0.125,-0.5
1480607582299744,0,0,-0.3125
1480607582316287,-1.125,0.25,0
1480607582338847,-2.5,0.3125,-0.9375
1480607582384469,-1.75,0.625,-0.6875
1480607582386474,-1.0625,0.25,0.375
1480607582399007,-0.25,-0.0625,0
1480607582427083,-0.5,-0.125,0.25
1480607582436107,-1.6875,0,-0.3125
1480607582458667,-1.875,0.25,-0.75
1480607582479722,-0.3125,0.375,-0.5625
1480607582503786,1.1875,0.0625,0.3125
1480607582518826,0.125,-0.1875,0.375
1480607582547403,-2.125,-0.375,-0.1875
1480607582555925,-2,-0.0625,0.25
1480607582578485,-0.125,1,0.0625
1480607582599541,0.3125,1.25,-0.125
1480607582616085,-0.5,0.4375,0
1480607582638645,0.125,-0.0625,0
1480607582661205,0.3125,-0.125,-0.375
1480607582676247,-0.1875,0,-0.3125
1480607582706325,-1,0.125,-0.25
1480607582721365,-0.6875,0.0625,0.125
1480607582736405,-0.6875,0.125,-0.1875
1480607582758465,-0.75,0,-0.125
1480607582782528,0.5,0,0
1480607582802080,0.625,0.3125,-0.1875
1480607582824640,-0.9375,0.25,0.0625
1480607582841184,-0.625,0.1875,-0.125
1480607582855723,0.4375,0.25,-0.3125
1480607582886806,0.625,0.125,0.3125
1480607582901344,-0.625,0.0625,0.0625
1480607582915381,-2.3125,-0.0625,-0.5
1480607582938945,-1.6875,0,-0.5
1480607582961003,0.4375,0.25,-0.1875
1480607582982059,0.8125,0.1875,0.125
1480607582998604,0.3125,0.0625,0.0625
1480607583027179,-0.625,0.375,0
1480607583037206,0,0.5625,0.0625
1480607583058763,0.3125,0.5,0
1480607583081323,-0.75,0.4375,-0.0625
1480607583095360,-0.5,0.1875,0.1875
1480607583118421,0.0625,0.0625,0.0625
1480607583140981,0.3125,0.125,-0.1875
1480607583164042,-0.875,0.3125,-0.3125
1480607583180587,-1,0.1875,0
1480607583201142,0.4375,0.4375,0.1875
1480607583222198,-0.1875,0.3125,0.25
1480607583238743,-1.0625,-0.3125,-0.125
1480607583261302,-0.1875,-0.0625,0.1875
1480607583282358,0.0625,0.125,0.125
1480607583298400,-0.75,0.125,-0.1875
1480607583321462,0.375,0.25,-0.375
1480607583342017,0.625,0.3125,0.5625
1480607583358561,0.0625,-0.25,0
1480607583381622,-2.3125,-0.3125,-0.375
1480607583402176,-0.6875,0.25,0
1480607583424736,0.8125,0.5625,-0.0625
1480607583441791,0.3125,0.5,-0.3125
1480607583462336,-0.375,0.4375,0.375
1480607583478379,-0.625,0.8125,0.5625
1480607583500939,-2.375,0.25,0.25
1480607583522997,-2.25,-0.9375,-0.6875
1480607583539542,0.8125,0.0625,-0.5
1480607583561099,2.6875,1.875,1.8125
1480607583583659,0.25,0.3125,-0.5
1480607583598699,-1.375,-0.125,-0.5625
1480607583621260,-0.8125,-0.3125,0.0625
1480607583643819,0.6875,0.25,-0.0625
1480607583658866,1.4375,0.625,0.75
1480607583680918,0.875,0.6875,-0.125
1480607583703478,-1,1.125,0.0625
1480607583726039,-1.25,-0.3125,0.1875
1480607583741078,1.0625,-1.125,-1.25
1480607583763638,0.6875,-0.0625,0.875
1480607583778177,-0.125,0.5625,3.8125
1480607583801238,1.1875,1,7.625
1480607583823798,-0.8125,1.6875,9.25
1480607583838336,-5.5625,0.75,8.3125
1480607583861398,-10.0625,1.6875,-0.25
1480607583889473,-1.5,2.5,1.75
1480607583906016,11.3125,3,3.75
1480607583921558,10.875,0.6875,-0.8125
1480607583949633,0.3125,-2.375,-4.125
1480607583958155,-4.9375,-2.125,-5.4375
1480607583981217,2.5625,-0.75,-2.125
1480607584003777,8.0625,0.0625,-0.8125
1480607584017814,5.5625,-0.6875,-1.375
1480607584041377,-2.25,-1.0625,-1.875
1480607584063436,-5.8125,-0.875,-1.6875
1480607584084993,-1.375,0.3125,-0.875
1480607584101036,1.375,0.4375,-0.5625
1480607584123596,0.4375,-0.75,-0.9375
1480607584144652,0.3125,-1.1875,-1
1480607584161196,0.8125,-0.5,-1.25
1480607584183756,0.75,0.0625,-0.6875
1480607584204813,0.4375,0.4375,0.4375
1480607584221356,-0.5625,0.25,0.5
1480607584251436,-1.6875,-0.0625,0
1480607584273495,-0.8125,0,0.375
1480607584281014,0.125,0.0625,0.5625
1480607584303575,0,0.375,0.375
1480607584324631,-1.625,0.1875,0.4375
1480607584341174,-3.1875,-0.375,-0.375
1480607584363735,-1.1875,-0.3125,-0.125
1480607584384790,1.5,0.25,0.125
1480607584401335,2.8125,0.3125,0.375
1480607584423894,0.5625,0.125,0
1480607584444953,-0.9375,0,-0.3125
1480607584460993,-0.5625,0.125,0.125
1480607584483554,-1.5625,-0.625,0.0625
1480607584506113,-2.0625,-0.75,-0.3125
1480607584521153,-0.4375,0.25,0.6875
1480607584551233,1.75,0.5625,0.5
1480607584566774,1.625,0.5,0.8125
1480607584581313,-1.625,-0.0625,0.0625
1480607584603874,-2.3125,-0.25,0.0625
1480607584636962,-0.25,-0.25,0.875
1480607584644481,0.25,0.4375,1.1875
1480607584663532,-1.6875,0.3125,1
1480607584686092,-2.25,0.4375,0.4375
1480607584700631,-0.125,0.1875,-0.1875
1480607584726198,1.625,0.4375,0.375
1480607584746252,1.5625,0.75,0.75
1480607584768813,0.1875,0.4375,0.375
1480607584783853,-0.75,-0.0625,0.0625
1480607584806412,-1.5625,-0.5,-0.3125
1480607584820449,-0.3125,-0.25,-0.4375
1480607584843510,0.3125,0.3125,0
1480607584866071,-0.125,-0.75,-0.25
1480607584880610,0.5,-0.9375,-1.125
1480607584903671,0.6875,0.3125,0.75
1480607584926231,-0.75,0.3125,0.125
1480607584940770,-1.625,-0.4375,-0.5625
1480607584963831,-1.4375,-0.1875,-0.125
1480607584985890,0.1875,0,0
1480607585000428,1.5,0.5,0.75
1480607585023490,-1.125,0.75,0.125
1480607585046050,-3.875,-0.0625,-0.3125
1480607585067106,-1.6875,-0.1875,-0.4375
1480607585091170,2.375,0.375,0.125
1480607585113730,3.625,0.75,-0.0625
1480607585127266,0.75,1.3125,0.9375
1480607585157346,-2.625,-0.375,-0.5625
1480607585166370,-1.3125,-1.0625,-0.5625
1480607585187426,0.375,-0.0625,0.3125
1480607585204972,0.375,0.25,-0.25
1480607585226028,1.0625,0.4375,-0.125
1480607585247084,-0.25,0.0625,0.8125
1480607585263628,-1.25,-0.5,-0.3125
1480607585286188,-0.375,0.125,0.0625
1480607585307244,-1.5625,0.4375,-0.1875
1480607585324290,-0.875,0.3125,0.1875
1480607585346348,0.625,0.8125,0.5625
1480607585367405,0.5625,0.3125,0.5
1480607585383447,0.5,-1.125,-1.25
1480607585406007,-0.5,0.875,1
1480607585434583,-2.4375,1.125,0.375
1480607585443607,-1.4375,-0.5625,-0.25
1480607585466167,-0.125,-0.25,0.0625
1480607585488727,0.5,0.25,0.375
1480607585503767,-0.375,0.4375,-0.25
1480607585526328,-0.9375,0.5,0.0625
1480607585554903,-0.6875,0.4375,0.5625
1480607585563426,-0.3125,-0.1875,0.375
1480607585585986,-0.75,-0.25,-0.375
1480607585616066,-0.125,-0.0625,-0.3125
1480607585623086,0.9375,1.3125,0.75
1480607585646146,-0.5,0.4375,-0.0625
1480607585668706,-1,-1,-1.125
1480607585683245,0.0625,-0.125,0.125
1480607585706306,-0.125,0.6875,0.75
1480607585728869,-0.125,0,-0.4375
1480607585742903,0.1875,-0.625,-0.625
1480607585765965,0.8125,-0.375,-0.375
1480607585788525,2.25,0.4375,0.4375
1480607585803064,0.5625,0.8125,-0.25
1480607585826126,-2.8125,0.3125,0.125
1480607585848685,-1.125,0,0.3125
1480607585863225,0.875,0.6875,-0.0625
1480607585886285,0.375,0,-0.375
1480607585908847,-0.5625,-1.125,-1.5
1480607585922882,1.0625,0.5625,0.0625
1480607585945944,1.1875,1.5,1.6875
1480607585969506,-2.125,-0.4375,-0.5625
1480607585989559,-1.8125,-0.375,-0.0625
1480607586006103,-0.1875,0.5,-0.25
1480607586028665,1.0625,0.5,-0.0625
1480607586049719,0.5,0.1875,-0.125
1480607586066264,-0.25,0,-0.4375
1480607586088824,0.3125,0,-0.4375
1480607586109880,-0.5625,-0.0625,-0.0625
1480607586126926,-0.0625,0.125,-0.3125
1480607586148483,0.6875,0.8125,0.375
1480607586169538,0,0.4375,0.4375
1480607586186082,-1.9375,-0.625,-0.125
1480607586216163,-0.375,0,0
1480607586231203,1.9375,0.8125,0.4375
1480607586246243,0.625,1.25,0.8125
1480607586268803,-1.3125,-0.125,0
1480607586289858,-1.625,-1.25,-0.1875
1480607586313923,-0.1875,0.125,0.5625
1480607586328463,-0.375,1.25,0.5625
1480607586349517,-1.1875,0.4375,-0.4375
1480607586366062,-1.125,-0.5625,-0.75
1480607586388621,0.5,-0.5625,-0.3125
1480607586409678,1.6875,0.9375,1
1480607586433741,-0.4375,0.75,0.5
1480607586448781,-1.875,-0.125,0.625
1480607586471342,-1,0.125,0.3125
1480607586485880,0.1875,0.5,0.4375
1480607586508942,0.875,0.6875,1.3125
1480607586531000,0.3125,0.8125,4.25
1480607586546041,-3.125,0.375,6.25
1480607586568600,-1.375,1,9.1875
1480607586591161,-10.375,3.5,2.5625
1480607586605700,-10.75,0.625,-1.375
1480607586643801,4.625,-0.5,0.1875
1480607586651321,14.5,1.625,-0.125
1480607586665358,10.375,1.3125,-1.0625
1480607586688419,5.25,-0.625,-3.625
1480607586711481,6.375,-1.9375,-3
1480607586725520,7.0625,-0.875,-0.5625
1480607586748579,3.1875,0.0625,-1.5
1480607586778660,-5.5625,-0.625,-2.25
1480607586785678,-8.625,-0.1875,-0.875
1480607586808741,-2.5,-0.3125,-0.375
1480607586831800,4.5,-0.625,-0.5625
1480607586845839,4.4375,-0.75,-0.3125
1480607586868899,0.6875,-0.1875,-0.125
1480607586890959,-1.3125,0.3125,-0.5625
1480607586912516,-2.875,0.5,-0.25
1480607586928559,-0.625,-0.3125,-0.375
1480607586951118,1.5,-1.25,-0.375
1480607586972175,0.3125,-1.1875,-0.75
1480607586989220,-1.125,-0.6875,-0.8125
1480607587011278,-1,0.4375,0.1875
1480607587032335,0.4375,0.875,0.125
1480607587049380,0.3125,-0.625,-0.0625
1480607587070938,-1.6875,-0.875,-0.25
1480607587092494,-2.3125,-1.0625,-0.5625
1480607587108538,-1,-0.5,-0.375
1480607587131097,0.3125,0.625,0.25
1480607587154158,0.9375,0.125,0.5
1480607587168697,0.125,0,0.5625
1480607587191257,-2.1875,-0.5,0.3125
1480607587219833,-3.1875,-1.9375,-1
1480607587228857,-2.0625,-0.1875,-0.8125
1480607587251417,0.8125,1.625,1.375
1480607587279492,0.9375,0.5625,0.625
1480607587288515,-0.8125,-0.5625,-0.5625
1480607587311076,-2.1875,-0.5625,-0.125
1480607587332148,-1.125,0.625,0.125
1480607587348676,-0.6875,0.625,-0.5625
1480607587378755,0.125,1.0625,0.4375
1480607587393797,1.5,0.9375,0.6875
1480607587408336,1.125,-0.25,0.4375
1480607587431395,-0.8125,-0.9375,-0.5
1480607587459471,-2.6875,-0.375,-0.4375
1480607587468495,-1.3125,-0.1875,-0.125
1480607587491055,0.75,0.4375,-0.375
1480607587513616,1,0.8125,0.5625
1480607587528153,0.3125,-0.3125,0.625
1480607587551214,-3,-0.125,1.75
1480607587573774,-6.9375,0.4375,6.1875
1480607587587812,-11.3125,0.0625,9.375
1480607587611375,-15.375,1.375,3.4375
1480607587639449,-5.4375,4.25,1.6875
1480607587647972,14.75,4.25,3.9375
1480607587671033,24.125,0.8125,1.375
1480607587701113,13.6875,-2.1875,-1.25
1480607587714649,5.9375,-2.8125,-3.0625
1480607587730693,9.0625,-2,-2.3125
1480607587753753,14.0625,-0.1875,-0.5625
1480607587776313,4.625,1.6875,0
1480607587791353,-7.4375,2.3125,0.375
1480607587813415,-8.8125,-0.125,-2.375
1480607587827951,-0.0625,-0.4375,-2.8125
1480607587851012,6.5,-1.1875,-1.1875
1480607587881093,9.0625,-1.1875,-0.8125
1480607587894627,3.625,-1.1875,-1.375
1480607587911172,-5.5,-1.625,-1.5
1480607587933732,-6.1875,-0.75,-0.625
1480607587954286,-1.375,0.5,-0.6875
1480607587971834,2,0.25,-0.25
1480607587993391,2.3125,-0.4375,0.125
1480607588014948,0.125,-1,-0.75
1480607588030991,-2.5,-0.875,-0.125
1480607588053551,-3.125,-1.3125,-0.5
1480607588074607,-1.25,-0.25,-1.0625
1480607588098671,0.5,0.0625,-0.1875
1480607588113713,-0.5625,-0.75,-1.25
1480607588134767,-2.0625,-0.3125,-0.625
1480607588164847,-0.75,2.0625,-0.125
1480607588173872,1.5,1,-0.625
1480607588202447,4.875,-0.8125,0
1480607588210969,2.75,-0.9375,-0.5
1480607588233530,-2,-1.3125,-1.1875
1480607588239044,-4.625,-1.125,-1.6875
1480607588261604,-1.6875,-1.1875,-0.8125
1480607588276645,2.5625,-0.9375,-0.4375
1480607588299204,3.125,-1.125,-0.1875
1480607588330290,1.6875,-0.5,-0.125
1480607588336804,-0.5625,0.1875,-0.125
1480607588358864,-1.75,0.4375,0
1480607588390447,-0.125,0.125,-0.1875
1480607588396463,1.625,0.3125,-0.5
1480607588420527,0.5625,-0.0625,-0.625
1480607588443087,-1.0625,-0.75,-1.4375
1480607588464143,0.625,-0.375,-0.75
1480607588486703,1.5,-0.5625,-0.75
1480607588501743,-0.375,-1.0625,-0.125
1480607588516281,-1.75,-0.9375,-1.625
1480607588538842,-0.6875,-0.125,-0.6875
1480607588561402,1,0.8125,0.375
1480607588579450,1.8125,-0.25,0.0625
1480607588606522,0.375,-0.8125,0.25
1480607588621561,-0.6875,-0.375,-0.125
1480607588638107,-2.25,0.1875,0.25
1480607588666681,-1.6875,0.25,0.625
1480607588681722,-0.375,1.0625,0.25
1480607588698266,0.5,0.75,0.3125
1480607588718820,0.125,0,0
1480607588741383,-0.375,0.1875,0.5
1480607588759429,-1.75,0.625,0.6875
1480607588778980,-0.875,0.125,0.75
1480607588801541,0.375,0.5625,1.0625
1480607588818085,0.0625,0.5625,0.875
1480607588839143,-1.125,0.75,0.75
1480607588861701,-1.125,1,0.75
1480607588878245,-0.875,0.125,1.0625
1480607588899300,-1.125,0.0625,0.9375
1480607588929882,-0.4375,0.25,1
1480607588937904,-1.1875,0.875,0.5625
1480607588958959,-1.375,1.125,0.5
1480607588981519,0.0625,0.75,0.8125
1480607588998064,0.8125,0.4375,0.6875
1480607589019119,-0.1875,0.0625,0.375
1480607589041681,0,0.25,0.6875
1480607589059727,-0.8125,0.5625,0.5625
1480607589079279,-0.9375,0.125,0.5625
1480607589101339,0.1875,0.5625,0.6875
1480607589126907,0.9375,0.375,0.625
1480607589138941,0.125,0.1875,0.5625
1480607589161499,-0.375,-0.25,0.25
1480607589179547,-0.1875,0.375,0.6875
1480607589199099,-0.25,0.5,0.3125
1480607589221658,-0.75,0.375,0.0625
1480607589244218,0.5625,0.125,-0.25
1480607589266277,1.8125,-0.25,0.1875
1480607589281818,0.9375,-0.1875,0.375
1480607589303878,-1.3125,1.1875,1.5625
1480607589318917,-4.25,0.4375,0.0625
1480607589341479,-2.3125,-0.125,0.375
1480607589365543,1.1875,0.375,0.5
1480607589379077,1.75,0.5625,-0.375
1480607589417679,0.9375,0.375,-0.25
1480607589424197,-0.125,-0.3125,-0.8125
1480607589442247,1.6875,-0.1875,-0.5
1480607589461296,4.1875,-0.625,-0.3125
1480607589485360,4.5,-0.1875,-0.625
1480607589498896,1.5,-0.25,-0.0625
1480607589528976,-1.125,-0.3125,-0.0625
1480607589544016,-0.9375,-0.4375,0.3125
1480607589559056,0.875,-0.125,0.125
1480607589581616,2.0625,-0.1875,0.4375
1480607589604177,3.0625,-0.125,0.375
1480607589619215,1.375,0.25,1
1480607589641780,-1.5625,-0.125,0.375
1480607589663835,-2.6875,0.3125,0.125
1480607589678874,-0.5,0,0
1480607589701434,2.625,0,-0.625
1480607589723996,1.3125,1.1875,0.375
1480607589739036,-1.25,0.4375,0.375
1480607589761595,0.4375,-0.375,0.0625
