timestamp,roll,pitch,yaw
1480607524154475,-1.75502,0.325002,-2.33209
1480607524160993,-1.75502,0.325002,-2.33209
1480607524174527,-1.75504,0.324933,-2.33207
1480607524197087,-1.75503,0.325028,-2.33203
1480607524212127,-1.75581,0.32513,-2.33233
1480607524228171,-1.75581,0.32513,-2.33233
1480607524249226,-1.75526,0.325136,-2.33256
1480607524274794,-1.75526,0.325136,-2.33256
1480607524290838,-1.75526,0.325136,-2.33256
1480607524309387,-1.75526,0.325136,-2.33256
1480607524339471,-1.75522,0.325205,-2.33262
1480607524349995,-1.75522,0.3253,-2.33258
1480607524369546,-1.75522,0.3253,-2.33258
1480607524392107,-1.75478,0.325101,-2.33265
1480607524440235,-1.75394,0.324946,-2.33252
1480607524445749,-1.75394,0.324946,-2.33252
1480607524475328,-1.75392,0.325015,-2.33254
1480607524484854,-1.75392,0.325015,-2.33254
1480607524489365,-1.75394,0.325041,-2.33248
1480607524519446,-1.75394,0.325041,-2.33248
1480607524534485,-1.75394,0.324946,-2.33252
1480607524551029,-1.75394,0.324946,-2.33252
1480607524572086,-1.75368,0.325106,-2.33251
1480607524595648,-1.7537,0.325132,-2.33244
1480607524618208,-1.75433,0.325404,-2.33242
1480607524631744,-1.75435,0.32543,-2.33235
1480607524654807,-1.75435,0.32543,-2.33235
1480607524669345,-1.75435,0.325335,-2.3324
1480607524694912,-1.75453,0.325382,-2.33252
1480607524715967,-1.75453,0.325382,-2.33252
1480607524745046,-1.75454,0.325408,-2.33245
1480607524759584,-1.75454,0.325408,-2.33245
1480607524783147,-1.7545,0.325571,-2.33247
1480607524797184,-1.75448,0.325545,-2.33254
1480607524819746,-1.75452,0.325477,-2.33247
1480607524834283,-1.75435,0.32543,-2.33235
1480607524849322,-1.75431,0.325498,-2.33242
1480607524874891,-1.75448,0.325545,-2.33254
1480607524897452,-1.7545,0.325571,-2.33247
1480607524909483,-1.7545,0.325571,-2.33247
1480607524932043,-1.75395,0.325258,-2.33232
1480607524954603,-1.75357,0.325328,-2.33205
1480607524969645,-1.75357,0.325328,-2.33205
1480607524991701,-1.75376,0.325401,-2.3321
1480607525031306,-1.75376,0.325401,-2.3321
1480607525033814,-1.75455,0.325624,-2.33229
1480607525051861,-1.75557,0.325635,-2.33263
1480607525074421,-1.75557,0.325635,-2.33263
1480607525089461,-1.75562,0.325472,-2.33262
1480607525112021,-1.75561,0.325567,-2.33257
1480607525134584,-1.75557,0.325635,-2.33263
1480607525158646,-1.75581,0.325545,-2.33267
1480607525172183,-1.75581,0.32545,-2.33272
1480607525203769,-1.75498,0.325295,-2.33259
1480607525219809,-1.75448,0.32545,-2.33259
1480607525231840,-1.75448,0.325545,-2.33254
1480607525263926,-1.75446,0.325441,-2.33204
1480607525270945,-1.75464,0.325488,-2.33216
1480607525295009,-1.75466,0.325514,-2.3321
1480607525314561,-1.7547,0.325445,-2.33203
1480607525338625,-1.7547,0.32535,-2.33208
1480607525351659,-1.75456,0.325841,-2.33213
1480607525382742,-1.7552,0.326018,-2.33216
1480607525396779,-1.7559,0.325962,-2.33215
1480607525411819,-1.75595,0.325799,-2.33213
1480607525442400,-1.75593,0.325772,-2.3322
1480607525450923,-1.75595,0.325799,-2.33213
1480607525471980,-1.75593,0.325772,-2.3322
1480607525494539,-1.75651,0.325896,-2.3324
1480607525511084,-1.75653,0.325922,-2.33234
1480607525539661,-1.75653,0.325922,-2.33234
1480607525554201,-1.75653,0.325922,-2.33234
1480607525570743,-1.75653,0.325922,-2.33234
1480607525591798,-1.75609,0.325819,-2.33236
1480607525617366,-1.75626,0.325865,-2.33248
1480607525630902,-1.75654,0.326139,-2.33217
1480607525651958,-1.75654,0.326139,-2.33217
1480607525674519,-1.75654,0.326139,-2.33217
1480607525705601,-1.75655,0.326044,-2.33222
1480607525712119,-1.75655,0.326044,-2.33222
1480607525734177,-1.75655,0.326044,-2.33222
1480607525752225,-1.75653,0.326018,-2.33229
1480607525779297,-1.75654,0.326139,-2.33217
1480607525794337,-1.75703,0.326175,-2.33208
1480607525819905,-1.75703,0.326175,-2.33208
1480607525831939,-1.75705,0.326106,-2.33206
1480607525854499,-1.75705,0.326106,-2.33206
1480607525872545,-1.75705,0.326106,-2.33206
1480607525895105,-1.75768,0.326162,-2.3322
1480607525914657,-1.7585,0.326195,-2.33245
1480607525939724,-1.7585,0.326195,-2.33245
1480607525951755,-1.75851,0.326221,-2.33238
1480607525981836,-1.75849,0.32629,-2.3324
1480607526005900,-1.75849,0.32629,-2.3324
1480607526011916,-1.75827,0.326312,-2.33234
1480607526050518,-1.75774,0.32612,-2.33207
1480607526065057,-1.75699,0.325828,-2.33181
1480607526073581,-1.75626,0.325563,-2.33149
1480607526097142,-1.75643,0.32561,-2.33161
1480607526118199,-1.75624,0.325217,-2.33117
1480607526139255,-1.75618,0.324748,-2.33102
1480607526154295,-1.75597,0.324744,-2.33098
1480607526185879,-1.75538,0.324499,-2.33089
1480607526191895,-1.7548,0.324279,-2.33073
1480607526215959,-1.75471,0.324511,-2.33082
1480607526237016,-1.75471,0.324511,-2.33082
1480607526252055,-1.75471,0.324606,-2.33077
1480607526285644,-1.75471,0.324511,-2.33082
1480607526297174,-1.75425,0.324381,-2.33091
1480607526329761,-1.75384,0.323992,-2.33103
1480607526334273,-1.75384,0.323992,-2.33103
1480607526356833,-1.75384,0.323992,-2.33103
1480607526373378,-1.75353,0.323908,-2.33129
1480607526395937,-1.7529,0.323636,-2.33131
1480607526416993,-1.7524,0.323575,-2.33147
1480607526433538,-1.7517,0.323535,-2.33154
1480607526462114,-1.7517,0.323535,-2.33154
1480607526477154,-1.75116,0.323343,-2.33127
1480607526493196,-1.7504,0.323267,-2.33089
1480607526514252,-1.7501,0.323079,-2.33061
1480607526537317,-1.75015,0.322594,-2.33021
1480607526562380,-1.75004,0.322479,-2.32998
1480607526574413,-1.7497,0.322264,-2.32981
1480607526606499,-1.74972,0.322291,-2.32975
1480607526613516,-1.74989,0.322337,-2.32987
1480607526642093,-1.74989,0.322337,-2.32987
1480607526657132,-1.74991,0.322364,-2.3298
1480607526674679,-1.75053,0.322419,-2.32994
1480607526697239,-1.75058,0.322351,-2.32987
1480607526724310,-1.75029,0.322294,-2.33006
1480607526734839,-1.75029,0.322294,-2.33006
1480607526754391,-1.75029,0.322294,-2.33006
1480607526784470,-1.75028,0.322389,-2.33002
1480607526794999,-1.75028,0.322389,-2.33002
1480607526830593,-1.75054,0.322541,-2.32982
1480607526837113,-1.75054,0.322541,-2.32982
1480607526854658,-1.75019,0.322205,-2.32977
1480607526877217,-1.75019,0.322205,-2.32977
1480607526896769,-1.75019,0.322205,-2.32977
1480607526922839,-1.75014,0.322368,-2.32979
1480607526934369,-1.74998,0.322122,-2.32917
1480607526964450,-1.74992,0.321938,-2.32888
1480607526974979,-1.7494,0.321866,-2.32849
1480607526994530,-1.74917,0.321662,-2.32801
1480607527017090,-1.74935,0.321708,-2.32813
1480607527035640,-1.74966,0.321697,-2.32792
1480607527063213,-1.74966,0.321697,-2.32792
1480607527076748,-1.74965,0.321792,-2.32787
1480607527099308,-1.74985,0.32177,-2.32797
1480607527115853,-1.74942,0.321693,-2.32793
1480607527139918,-1.74942,0.321693,-2.32793
1480607527169997,-1.74942,0.321787,-2.32788
1480607527174510,-1.7494,0.321761,-2.32795
1480607527197068,-1.7494,0.321761,-2.32795
1480607527215116,-1.74938,0.321856,-2.32795
1480607527236176,-1.74938,0.321856,-2.32795
1480607527256727,-1.74938,0.321856,-2.32795
1480607527280792,-1.74942,0.321787,-2.32788
1480607527295831,-1.74938,0.321856,-2.32795
1480607527324408,-1.74937,0.321951,-2.3279
1480607527340952,-1.74938,0.321856,-2.32795
1480607527355992,-1.74938,0.321856,-2.32795
1480607527387576,-1.74938,0.321856,-2.32795
1480607527399607,-1.74955,0.321903,-2.32807
1480607527415650,-1.74955,0.321903,-2.32807
1480607527436709,-1.74955,0.321903,-2.32807
1480607527459266,-1.74955,0.321903,-2.32807
1480607527483330,-1.74955,0.321903,-2.32807
1480607527496866,-1.74955,0.321903,-2.32807
1480607527522440,-1.74955,0.321903,-2.32807
1480607527537476,-1.74955,0.321903,-2.32807
1480607527560034,-1.74955,0.321997,-2.32802
1480607527582094,-1.74937,0.321951,-2.3279
1480607527620199,-1.74937,0.321951,-2.3279
1480607527628216,-1.74937,0.321951,-2.3279
1480607527639247,-1.74881,0.321947,-2.32758
1480607527663309,-1.74817,0.322175,-2.32731
1480607527676846,-1.74828,0.32228,-2.32695
1480607527718455,-1.74846,0.322248,-2.3265
1480607527723470,-1.74846,0.322248,-2.3265
1480607527737009,-1.74863,0.322295,-2.32662
1480607527761069,-1.74863,0.322295,-2.32662
1480607527777112,-1.74863,0.322295,-2.32662
1480607527799672,-1.74863,0.322295,-2.32662
1480607527819726,-1.74863,0.322295,-2.32662
1480607527838276,-1.74863,0.322295,-2.32662
1480607527856824,-1.7489,0.322447,-2.32643
1480607527879383,-1.7489,0.322447,-2.32643
1480607527897432,-1.7489,0.322447,-2.32643
1480607527916983,-1.7489,0.322447,-2.32643
1480607527942552,-1.7489,0.322447,-2.32643
1480607527957092,-1.74963,0.322515,-2.32625
1480607527977144,-1.74963,0.322515,-2.32625
1480607527999704,-1.74963,0.322515,-2.32625
1480607528023268,-1.74963,0.322515,-2.32625
1480607528039812,-1.74965,0.322541,-2.32618
1480607528059362,-1.74961,0.32261,-2.32625
1480607528077411,-1.74959,0.322583,-2.32632
1480607528096962,-1.74959,0.322678,-2.32627
1480607528119526,-1.7496,0.322705,-2.3262
1480607528137572,-1.7492,0.322531,-2.32617
1480607528158626,-1.7492,0.322626,-2.32612
1480607528179182,-1.74922,0.322558,-2.3261
1480607528197230,-1.7492,0.322626,-2.32612
1480607528227309,-1.74917,0.322721,-2.32612
1480607528239342,-1.74917,0.322721,-2.32612
1480607528261901,-1.74935,0.322768,-2.32624
1480607528279950,-1.74935,0.322768,-2.32624
1480607528299501,-1.74936,0.322794,-2.32617
1480607528317550,-1.74936,0.322794,-2.32617
1480607528344621,-1.74935,0.322768,-2.32624
1480607528359661,-1.74936,0.322794,-2.32617
1480607528377209,-1.74936,0.322794,-2.32617
1480607528398264,-1.74936,0.322794,-2.32617
1480607528419325,-1.74936,0.322794,-2.32617
1480607528451406,-1.7485,0.322922,-2.32595
1480607528458424,-1.7485,0.322922,-2.32595
1480607528479981,-1.7485,0.322922,-2.32595
1480607528497528,-1.74868,0.322874,-2.32612
1480607528520092,-1.74868,0.322874,-2.32612
1480607528549667,-1.74868,0.322874,-2.32612
1480607528557188,-1.74868,0.322874,-2.32612
1480607528579747,-1.74869,0.322901,-2.32605
1480607528599299,-1.7494,0.323142,-2.32644
1480607528617347,-1.7494,0.323142,-2.32644
1480607528639909,-1.74942,0.323168,-2.32637
1480607528666979,-1.74941,0.323263,-2.32632
1480607528677507,-1.74935,0.323305,-2.32645
1480607528700068,-1.74868,0.323195,-2.32649
1480607528727139,-1.74868,0.323195,-2.32649
1480607528737166,-1.74865,0.323264,-2.32652
1480607528759725,-1.74844,0.323285,-2.32646
1480607528782287,-1.74787,0.323281,-2.32614
1480607528797326,-1.74787,0.323281,-2.32614
1480607528819886,-1.74804,0.323328,-2.32626
1480607528839438,-1.74753,0.323161,-2.32593
1480607528861998,-1.74766,0.323276,-2.32611
1480607528880046,-1.74767,0.323303,-2.32604
1480607528902106,-1.74787,0.323376,-2.3261
1480607528922161,-1.74787,0.323376,-2.3261
1480607528939710,-1.7483,0.323681,-2.32656
1480607528959257,-1.74883,0.324195,-2.32721
1480607528981817,-1.74951,0.324315,-2.32776
1480607529005885,-1.7497,0.324614,-2.32824
1480607529026936,-1.74931,0.324978,-2.32842
1480607529041978,-1.74926,0.325142,-2.32844
1480607529060025,-1.74926,0.325142,-2.32844
1480607529087101,-1.74966,0.325088,-2.32805
1480607529102141,-1.74948,0.325041,-2.32793
1480607529124195,-1.74891,0.325227,-2.32752
1480607529140742,-1.74878,0.325423,-2.32712
1480607529161795,-1.74893,0.32546,-2.3267
1480607529179844,-1.74893,0.32546,-2.3267
1480607529200900,-1.74936,0.325875,-2.32651
1480607529223461,-1.75001,0.32608,-2.32646
1480607529240004,-1.75018,0.326127,-2.32658
1480607529261060,-1.74993,0.325784,-2.32687
1480607529282115,-1.74995,0.325794,-2.32742
1480607529299662,-1.74992,0.325889,-2.32741
1480607529328238,-1.74992,0.325889,-2.32741
1480607529341774,-1.74992,0.325984,-2.32737
1480607529360324,-1.75009,0.326031,-2.32749
1480607529382382,-1.75043,0.325935,-2.32787
1480607529401935,-1.75043,0.325935,-2.32787
1480607529419986,-1.75043,0.325935,-2.32787
1480607529441039,-1.75045,0.325961,-2.3278
1480607529469619,-1.75042,0.32603,-2.32782
1480607529492174,-1.75107,0.326018,-2.32794
1480607529502202,-1.75133,0.32617,-2.32774
1480607529521756,-1.75133,0.32617,-2.32774
1480607529539802,-1.75151,0.326217,-2.32787
1480607529568377,-1.75152,0.326244,-2.3278
1480607529581913,-1.75202,0.326185,-2.32775
1480607529599963,-1.75249,0.3261,-2.32778
1480607529622521,-1.75249,0.3261,-2.32778
1480607529642074,-1.75249,0.3261,-2.32778
1480607529659620,-1.75251,0.326126,-2.32771
1480607529682180,-1.75246,0.326194,-2.32777
1480607529701734,-1.75246,0.326194,-2.32777
1480607529719782,-1.75246,0.326194,-2.32777
1480607529757381,-1.75264,0.326241,-2.32789
1480607529761892,-1.75266,0.326268,-2.32783
1480607529779940,-1.75266,0.326268,-2.32783
1480607529802501,-1.75266,0.326268,-2.32783
1480607529824558,-1.75205,0.325995,-2.3278
1480607529839599,-1.75159,0.325769,-2.32794
1480607529862159,-1.75114,0.32576,-2.32792
1480607529881711,-1.75112,0.325854,-2.32792
1480607529899760,-1.75174,0.325911,-2.32806
1480607529929839,-1.7524,0.32602,-2.32807
1480607529941871,-1.7524,0.32602,-2.32807
1480607529959919,-1.75262,0.325904,-2.32817
1480607529982480,-1.75262,0.325904,-2.32817
1480607530002033,-1.75258,0.325972,-2.32823
1480607530020095,-1.75257,0.326067,-2.32819
1480607530042138,-1.7524,0.32602,-2.32807
1480607530062190,-1.7524,0.32602,-2.32807
1480607530079738,-1.7524,0.32602,-2.32807
1480607530102801,-1.75238,0.325994,-2.32813
1480607530123354,-1.75238,0.325994,-2.32813
1480607530139898,-1.7524,0.32602,-2.32807
1480607530162457,-1.75238,0.325578,-2.3278
1480607530184015,-1.75218,0.325063,-2.32748
1480607530200057,-1.75184,0.324848,-2.32731
1480607530222116,-1.75184,0.324848,-2.32731
1480607530243172,-1.75276,0.324773,-2.32735
1480607530259716,-1.75359,0.324929,-2.32748
1480607530282277,-1.75359,0.324929,-2.32748
1480607530303333,-1.75359,0.324929,-2.32748
1480607530331908,-1.75359,0.324929,-2.32748
1480607530342437,-1.75359,0.324929,-2.32748
1480607530363493,-1.75342,0.324882,-2.32736
1480607530384549,-1.75342,0.324882,-2.32736
1480607530402096,-1.7534,0.324856,-2.32742
1480607530425157,-1.75311,0.324573,-2.32719
1480607530444207,-1.75266,0.324147,-2.32683
1480607530462757,-1.75218,0.323791,-2.32655
1480607530484816,-1.75168,0.323529,-2.32621
1480607530504368,-1.75146,0.32374,-2.32606
1480607530522415,-1.75164,0.323692,-2.32623
1480607530544975,-1.75164,0.323692,-2.32623
1480607530564530,-1.75139,0.323566,-2.32636
1480607530582075,-1.75109,0.323602,-2.3265
1480607530604635,-1.75127,0.323555,-2.32667
1480607530625690,-1.75127,0.323555,-2.32667
1480607530642235,-1.75188,0.323602,-2.32626
1480607530669808,-1.75208,0.323382,-2.32587
1480607530684346,-1.75207,0.323355,-2.32594
1480607530702395,-1.75141,0.323488,-2.32575
1480607530724954,-1.75058,0.323962,-2.3258
1480607530744506,-1.75036,0.32471,-2.32587
1480607530770075,-1.75095,0.324957,-2.32596
1480607530785115,-1.75158,0.324288,-2.32597
1480607530804167,-1.7507,0.324068,-2.32544
1480607530826724,-1.74932,0.325197,-2.32527
1480607530844773,-1.74932,0.325197,-2.32527
1480607530864325,-1.75055,0.325207,-2.32505
1480607530889893,-1.75107,0.324959,-2.32506
1480607530904934,-1.75107,0.324959,-2.32506
1480607530924485,-1.75119,0.32497,-2.32474
1480607530942533,-1.7515,0.325055,-2.32449
1480607530964592,-1.7515,0.325055,-2.32449
1480607530994672,-1.7515,0.325055,-2.32449
1480607531002192,-1.75152,0.325081,-2.32442
1480607531024751,-1.75169,0.325128,-2.32454
1480607531045809,-1.75213,0.325234,-2.32451
1480607531062352,-1.75268,0.325013,-2.32445
1480607531092432,-1.75303,0.32535,-2.3245
1480607531105969,-1.75224,0.325764,-2.32507
1480607531122514,-1.7516,0.326321,-2.32576
1480607531144070,-1.74897,0.327104,-2.32609
1480607531165125,-1.74525,0.328091,-2.32677
1480607531181669,-1.74179,0.32797,-2.32692
1480607531204230,-1.73948,0.327226,-2.32629
1480607531226288,-1.73486,0.32714,-2.3259
1480607531247344,-1.73023,0.32757,-2.32585
1480607531263888,-1.72792,0.328651,-2.32641
1480607531284945,-1.72925,0.328563,-2.32778
1480607531301489,-1.73176,0.328329,-2.32911
1480607531331568,-1.73351,0.3281,-2.33069
1480607531345104,-1.73407,0.327794,-2.33121
1480607531360646,-1.73155,0.327384,-2.3322
1480607531385212,-1.72973,0.327569,-2.33392
1480607531413787,-1.73127,0.328192,-2.33485
1480607531420807,-1.7347,0.328282,-2.33535
1480607531445371,-1.7368,0.327664,-2.33619
1480607531466427,-1.73681,0.327358,-2.33761
1480607531487484,-1.73849,0.32758,-2.33845
1480607531504030,-1.7416,0.327154,-2.33833
1480607531526587,-1.74182,0.326201,-2.33776
1480607531556667,-1.74066,0.326469,-2.33764
1480607531564687,-1.74099,0.327413,-2.33919
1480607531586748,-1.74636,0.328284,-2.34072
1480607531607807,-1.75455,0.327156,-2.34159
1480607531623846,-1.76049,0.325384,-2.34163
1480607531646406,-1.76276,0.324469,-2.34108
1480607531667461,-1.7644,0.324229,-2.34057
1480607531691526,-1.76661,0.324304,-2.34017
1480607531706566,-1.76988,0.324322,-2.34069
1480607531735142,-1.77421,0.324471,-2.34141
1480607531744166,-1.7767,0.324293,-2.34108
1480607531782267,-1.77777,0.324591,-2.33935
1480607531787782,-1.77618,0.324386,-2.337
1480607531804330,-1.7745,0.323662,-2.3358
1480607531826384,-1.77255,0.323729,-2.33541
1480607531847440,-1.77143,0.324363,-2.33549
1480607531863984,-1.76984,0.326223,-2.33601
1480607531886544,-1.76941,0.328232,-2.33705
1480607531907604,-1.77161,0.330402,-2.33839
1480607531930160,-1.77525,0.333137,-2.34055
1480607531947206,-1.7786,0.336703,-2.34426
1480607531967760,-1.7832,0.341474,-2.349
1480607531984304,-1.788,0.343179,-2.35268
1480607532013883,-1.79142,0.342293,-2.35473
1480607532027418,-1.78823,0.344117,-2.35591
1480607532043963,-1.77813,0.348465,-2.35656
1480607532066524,-1.76798,0.350181,-2.35652
1480607532087579,-1.76489,0.348496,-2.35644
1480607532104125,-1.76681,0.34539,-2.35559
1480607532126683,-1.7676,0.344378,-2.35405
1480607532147739,-1.76247,0.346293,-2.35041
1480607532163782,-1.75343,0.346983,-2.34494
1480607532186347,-1.74698,0.345315,-2.34031
1480607532208902,-1.74302,0.344346,-2.33733
1480607532223442,-1.74182,0.342588,-2.33674
1480607532246502,-1.7434,0.340479,-2.33821
1480607532267558,-1.74704,0.338626,-2.34013
1480607532291623,-1.75125,0.337016,-2.34095
1480607532306663,-1.75589,0.334432,-2.34128
1480607532329723,-1.75898,0.331768,-2.34029
1480607532345265,-1.76125,0.330853,-2.33974
1480607532366320,-1.76409,0.331522,-2.34036
1480607532388884,-1.76783,0.333537,-2.34146
1480607532409937,-1.77059,0.334435,-2.34218
1480607532426481,-1.77409,0.333899,-2.3431
1480607532449041,-1.77838,0.332656,-2.34304
1480607532470099,-1.77954,0.33166,-2.34244
1480607532486643,-1.78076,0.331423,-2.34246
1480607532509201,-1.7827,0.331977,-2.34196
1480607532523239,-1.78456,0.331942,-2.34141
1480607532552316,-1.78597,0.332311,-2.34118
1480607532569361,-1.78518,0.333689,-2.34058
1480607532583398,-1.78338,0.335062,-2.34017
1480607532613979,-1.78111,0.335992,-2.33999
1480607532629020,-1.77952,0.336713,-2.34004
1480607532643560,-1.77969,0.33676,-2.34016
1480607532667120,-1.77952,0.336713,-2.34004
1480607532712743,-1.77883,0.335877,-2.33929
1480607532717756,-1.7777,0.335978,-2.33913
1480607532726278,-1.77638,0.337583,-2.33913
1480607532755360,-1.77448,0.338534,-2.33923
1480607532763377,-1.77161,0.339198,-2.33961
1480607532786439,-1.76829,0.339036,-2.34047
1480607532809500,-1.7675,0.338998,-2.34197
1480607532830054,-1.76782,0.338653,-2.34258
1480607532846598,-1.7684,0.338359,-2.34246
1480607532877180,-1.76928,0.338029,-2.34219
1480607532891718,-1.77016,0.337698,-2.34191
1480607532906258,-1.77037,0.337993,-2.34241
1480607532944860,-1.76981,0.338923,-2.34331
1480607532949873,-1.76946,0.338377,-2.34395
1480607532966919,-1.76898,0.337716,-2.3444
1480607532988979,-1.7692,0.337695,-2.34445
1480607533010034,-1.7682,0.338348,-2.34422
1480607533026577,-1.76627,0.339905,-2.34407
1480607533049137,-1.76631,0.340372,-2.34428
1480607533077713,-1.77025,0.340346,-2.34558
1480607533086738,-1.77459,0.339225,-2.3465
1480607533108797,-1.77629,0.337424,-2.34743
1480607533129862,-1.7792,0.336295,-2.34598
1480607533153926,-1.78207,0.332263,-2.34582
1480607533169477,-1.78024,0.334968,-2.3453
1480607533190023,-1.77739,0.33855,-2.34752
1480607533214087,-1.78086,0.338192,-2.34846
1480607533229126,-1.78262,0.336153,-2.34875
1480607533250182,-1.77963,0.334634,-2.34892
1480607533266726,-1.77411,0.335183,-2.34839
1480607533289289,-1.76858,0.334349,-2.34756
1480607533311847,-1.76656,0.333622,-2.34722
1480607533326385,-1.76887,0.33431,-2.34742
1480607533363988,-1.77208,0.334041,-2.3477
1480607533371506,-1.77364,0.3336,-2.34815
1480607533386547,-1.7729,0.333106,-2.34918
1480607533409105,-1.77113,0.333021,-2.34961
1480607533431666,-1.7697,0.332949,-2.34976
1480607533445707,-1.76965,0.333113,-2.34978
1480607533469266,-1.77057,0.333656,-2.34947
1480607533491825,-1.77118,0.3337,-2.34906
1480607533505864,-1.77209,0.333711,-2.34912
1480607533529425,-1.7715,0.334002,-2.34865
1480607533551985,-1.76937,0.334546,-2.34842
1480607533566023,-1.76877,0.334719,-2.34867
1480607533589085,-1.77124,0.333265,-2.34793
1480607533611644,-1.77365,0.332384,-2.34642
1480607533634204,-1.77348,0.332692,-2.34423
1480607533648742,-1.77248,0.333537,-2.3439
1480607533686344,-1.7753,0.335627,-2.34497
1480607533688855,-1.77997,0.335758,-2.34552
1480607533709404,-1.78219,0.334261,-2.34552
1480607533731462,-1.78128,0.335095,-2.34554
1480607533746001,-1.77856,0.335491,-2.3457
1480607533770068,-1.77726,0.336277,-2.34557
1480607533791623,-1.7785,0.336814,-2.34505
1480607533820201,-1.78058,0.337284,-2.34484
1480607533829223,-1.78215,0.337596,-2.34423
1480607533851282,-1.78143,0.337581,-2.34366
1480607533872338,-1.77929,0.337997,-2.34349
1480607533894898,-1.77718,0.338247,-2.34335
1480607533911442,-1.77597,0.338897,-2.34307
1480607533932497,-1.77587,0.339148,-2.34196
1480607533949042,-1.77521,0.339304,-2.33992
1480607533971602,-1.7727,0.339322,-2.33732
1480607533992657,-1.76798,0.33882,-2.33532
1480607534009202,-1.76424,0.339198,-2.33513
1480607534054823,-1.76442,0.340414,-2.33571
1480607534056828,-1.76813,0.340537,-2.33569
1480607534070367,-1.77178,0.340071,-2.33499
1480607534099442,-1.77227,0.339088,-2.33432
1480607534112476,-1.77187,0.338798,-2.33493
1480607534144563,-1.77218,0.339178,-2.33572
1480607534151581,-1.77635,0.339802,-2.33665
1480607534172637,-1.7833,0.339464,-2.33712
1480607534189183,-1.78885,0.338636,-2.33789
1480607534217757,-1.79003,0.339072,-2.33883
1480607534234302,-1.78835,0.339485,-2.33987
1480607534248839,-1.78736,0.339989,-2.34089
1480607534271399,-1.78796,0.340109,-2.3417
1480607534293960,-1.78907,0.339786,-2.34148
1480607534309006,-1.78726,0.339588,-2.34079
1480607534331559,-1.78277,0.339733,-2.34013
1480607534354123,-1.7784,0.340281,-2.34016
1480607534368157,-1.77635,0.340561,-2.34044
1480607534391724,-1.77613,0.340873,-2.34084
1480607534413778,-1.77727,0.340674,-2.34105
1480607534428316,-1.77819,0.340377,-2.34126
1480607534451379,-1.77788,0.340291,-2.34152
1480607534473939,-1.77609,0.340313,-2.34127
1480607534488477,-1.77404,0.339986,-2.34072
1480607534511538,-1.77151,0.339427,-2.33975
1480607534541619,-1.76909,0.33876,-2.33854
1480607534548136,-1.76744,0.337965,-2.33726
1480607534571700,-1.76559,0.336979,-2.33664
1480607534608798,-1.76342,0.3361,-2.33618
1480607534611332,-1.76262,0.334403,-2.33633
1480607534655421,-1.76396,0.334185,-2.33658
1480607534659932,-1.76537,0.334258,-2.33588
1480607534668457,-1.7674,0.333756,-2.33515
1480607534699037,-1.76817,0.333002,-2.33485
1480607534714077,-1.76636,0.332876,-2.33539
1480607534742653,-1.76413,0.332987,-2.33568
1480607534751678,-1.76321,0.332632,-2.3359
1480607534774239,-1.76401,0.331814,-2.33613
1480607534794791,-1.76611,0.331568,-2.33626
1480607534818858,-1.76779,0.331462,-2.33619
1480607534833895,-1.76775,0.33153,-2.33626
1480607534854954,-1.76627,0.331416,-2.33593
1480607534871499,-1.76513,0.331177,-2.33606
1480607534894055,-1.76491,0.330861,-2.33623
1480607534915111,-1.76491,0.330861,-2.33623
1480607534931655,-1.76423,0.330969,-2.3361
1480607534954216,-1.76313,0.330976,-2.33595
1480607534975272,-1.76163,0.331052,-2.33558
1480607534991315,-1.76084,0.331047,-2.33523
1480607535013874,-1.76079,0.330892,-2.33486
1480607535034931,-1.76078,0.330355,-2.33464
1480607535067016,-1.76076,0.330329,-2.3347
1480607535074035,-1.76019,0.330014,-2.33459
1480607535096594,-1.75933,0.329834,-2.33452
1480607535111635,-1.7585,0.329897,-2.33423
1480607535134197,-1.7585,0.329897,-2.33423
1480607535156257,-1.75955,0.329735,-2.33401
1480607535172798,-1.76043,0.329502,-2.33369
1480607535193858,-1.76082,0.32945,-2.3333
1480607535216413,-1.76128,0.329262,-2.33283
1480607535231453,-1.76128,0.329262,-2.33283
1480607535254021,-1.76145,0.329309,-2.33295
1480607535276073,-1.76146,0.329213,-2.333
1480607535298130,-1.76148,0.329239,-2.33293
1480607535314173,-1.76145,0.329309,-2.33295
1480607535336735,-1.76146,0.329213,-2.333
1480607535350772,-1.76128,0.329166,-2.33288
1480607535373833,-1.76079,0.329124,-2.33238
1480607535396392,-1.76094,0.329041,-2.33206
1480607535410930,-1.76094,0.328946,-2.33211
1480607535441513,-1.76094,0.328946,-2.33211
1480607535456552,-1.76096,0.328972,-2.33205
1480607535471091,-1.76113,0.329019,-2.33217
1480607535494151,-1.76113,0.329019,-2.33217
1480607535516712,-1.76113,0.329019,-2.33217
1480607535530749,-1.76111,0.328775,-2.33239
1480607535553810,-1.76111,0.328775,-2.33239
1480607535576872,-1.76111,0.328775,-2.33239
1480607535590910,-1.76093,0.328728,-2.33227
1480607535621492,-1.76093,0.328824,-2.33222
1480607535637032,-1.76093,0.328824,-2.33222
1480607535665107,-1.76093,0.328824,-2.33222
1480607535674132,-1.76093,0.328824,-2.33222
1480607535696691,-1.76093,0.328728,-2.33227
1480607535717749,-1.76093,0.328728,-2.33227
1480607535741309,-1.76093,0.328728,-2.33227
1480607535763869,-1.76093,0.328728,-2.33227
1480607535777907,-1.76113,0.328801,-2.33233
1480607535801976,-1.76113,0.328801,-2.33233
1480607535816510,-1.76113,0.328801,-2.33233
1480607535837566,-1.76111,0.328775,-2.33239
1480607535854110,-1.76111,0.328775,-2.33239
1480607535876168,-1.76093,0.328728,-2.33227
1480607535897725,-1.76098,0.32866,-2.33221
1480607535913768,-1.76098,0.32866,-2.33221
1480607535936330,-1.76098,0.32866,-2.33221
1480607535957384,-1.76096,0.328634,-2.33227
1480607535981448,-1.76096,0.328634,-2.33227
1480607535996489,-1.76015,0.328627,-2.33196
1480607536025064,-1.76033,0.328674,-2.33208
1480607536035607,-1.76093,0.328409,-2.33189
1480607536056649,-1.76093,0.328409,-2.33189
1480607536078206,-1.76093,0.328409,-2.33189
1480607536093748,-1.76093,0.328409,-2.33189
1480607536116307,-1.76093,0.328409,-2.33189
1480607536138867,-1.76093,0.328409,-2.33189
1480607536160926,-1.76095,0.328315,-2.33189
1480607536176969,-1.76096,0.328219,-2.33194
1480607536198527,-1.76078,0.328268,-2.33177
1480607536221588,-1.76078,0.328268,-2.33177
1480607536236628,-1.76078,0.328268,-2.33177
1480607536266707,-1.76078,0.328268,-2.33177
1480607536273228,-1.76078,0.328268,-2.33177
1480607536296787,-1.76078,0.328173,-2.33182
1480607536318852,-1.76033,0.328164,-2.33179
1480607536333385,-1.75993,0.327991,-2.33175
1480607536356446,-1.76011,0.328038,-2.33187
1480607536379006,-1.76066,0.327937,-2.3317
1480607536393545,-1.76117,0.327904,-2.33159
1480607536416606,-1.76135,0.327951,-2.33171
1480607536439167,-1.76117,0.327904,-2.33159
1480607536453204,-1.76135,0.327951,-2.33171
1480607536477267,-1.76135,0.327951,-2.33171
1480607536498825,-1.76135,0.327951,-2.33171
1480607536513364,-1.76115,0.327878,-2.33165
1480607536549960,-1.76115,0.327878,-2.33165
1480607536558984,-1.76115,0.327878,-2.33165
1480607536573524,-1.76115,0.327878,-2.33165
1480607536596585,-1.76115,0.327878,-2.33165
1480607536619146,-1.76115,0.327878,-2.33165
1480607536640201,-1.76115,0.327878,-2.33165
1480607536656746,-1.76115,0.327878,-2.33165
1480607536678804,-1.76115,0.327878,-2.33165
1480607536699859,-1.76115,0.327878,-2.33165
1480607536716404,-1.76146,0.327651,-2.3316
1480607536738964,-1.76146,0.327651,-2.3316
1480607536760020,-1.76099,0.327615,-2.33165
1480607536776564,-1.76099,0.327615,-2.33165
1480607536799124,-1.76099,0.327615,-2.33165
1480607536821684,-1.76101,0.327641,-2.33158
1480607536836725,-1.76101,0.327641,-2.33158
1480607536858782,-1.76101,0.327641,-2.33158
1480607536879839,-1.76097,0.327709,-2.33165
1480607536896382,-1.76097,0.327709,-2.33165
1480607536918942,-1.76095,0.327683,-2.33171
1480607536940000,-1.76095,0.327683,-2.33171
1480607536964564,-1.76095,0.327683,-2.33171
1480607536979103,-1.76101,0.327641,-2.33158
1480607537000158,-1.76101,0.327641,-2.33158
1480607537016703,-1.76114,0.327756,-2.33177
1480607537061822,-1.76159,0.327765,-2.33179
1480607537064329,-1.76159,0.327861,-2.33174
1480607537076361,-1.76159,0.327765,-2.33179
1480607537104937,-1.76159,0.327765,-2.33179
1480607537121482,-1.76159,0.327765,-2.33179
1480607537136522,-1.76159,0.327765,-2.33179
1480607537159082,-1.76199,0.328034,-2.33178
1480607537181642,-1.76199,0.328034,-2.33178
1480607537196681,-1.762,0.327938,-2.33183
1480607537219244,-1.762,0.327938,-2.33183
1480607537241300,-1.762,0.327938,-2.33183
1480607537255839,-1.762,0.327938,-2.33183
1480607537278900,-1.762,0.327938,-2.33183
1480607537301462,-1.76204,0.32787,-2.33176
1480607537316500,-1.76204,0.32787,-2.33176
1480607537339063,-1.76204,0.32787,-2.33176
1480607537361621,-1.76201,0.327964,-2.33176
1480607537376661,-1.762,0.327938,-2.33183
1480607537412756,-1.76201,0.327964,-2.33176
1480607537421279,-1.76206,0.327896,-2.3317
1480607537435818,-1.76206,0.327896,-2.3317
1480607537459380,-1.76206,0.327896,-2.3317
1480607537481440,-1.76219,0.328011,-2.33188
1480607537495977,-1.76223,0.327943,-2.33182
1480607537519039,-1.76223,0.327943,-2.33182
1480607537541599,-1.76223,0.327943,-2.33182
1480607537562655,-1.76223,0.327943,-2.33182
1480607537579199,-1.76223,0.327943,-2.33182
1480607537601761,-1.76223,0.327943,-2.33182
1480607537622314,-1.76223,0.327943,-2.33182
1480607537638859,-1.76223,0.327943,-2.33182
1480607537661418,-1.76223,0.327943,-2.33182
1480607537682975,-1.76206,0.327896,-2.3317
1480607537699018,-1.76223,0.327943,-2.33182
1480607537721578,-1.76223,0.327943,-2.33182
1480607537742634,-1.76223,0.327943,-2.33182
1480607537759177,-1.76223,0.327943,-2.33182
1480607537781738,-1.76223,0.327943,-2.33182
1480607537803796,-1.76223,0.327943,-2.33182
1480607537849417,-1.76225,0.32797,-2.33175
1480607537851926,-1.76265,0.328142,-2.33179
1480607537877994,-1.76351,0.328324,-2.33186
1480607537888020,-1.76368,0.328371,-2.33198
1480607537901556,-1.76368,0.328371,-2.33198
1480607537922612,-1.76368,0.328371,-2.33198
1480607537939158,-1.76368,0.328371,-2.33198
1480607537961215,-1.76368,0.328371,-2.33198
1480607537982271,-1.76349,0.328298,-2.33192
1480607537998816,-1.76349,0.328298,-2.33192
1480607538021375,-1.76349,0.328298,-2.33192
1480607538043936,-1.76347,0.328271,-2.33199
1480607538058975,-1.7633,0.328225,-2.33187
1480607538081535,-1.76329,0.32832,-2.33182
1480607538104597,-1.76329,0.32832,-2.33182
1480607538119135,-1.76349,0.328298,-2.33192
1480607538141195,-1.76349,0.328298,-2.33192
1480607538163754,-1.76349,0.328298,-2.33192
1480607538178293,-1.76349,0.328298,-2.33192
1480607538202357,-1.76409,0.328448,-2.33207
1480607538223914,-1.76463,0.328736,-2.3323
1480607538238454,-1.76468,0.328572,-2.33228
1480607538261515,-1.76468,0.328572,-2.33228
1480607538290090,-1.76468,0.328572,-2.33228
1480607538298111,-1.76414,0.328699,-2.33239
1480607538321675,-1.76412,0.328672,-2.33245
1480607538344736,-1.76409,0.328448,-2.33207
1480607538358271,-1.76407,0.328422,-2.33213
1480607538394869,-1.76387,0.32854,-2.33199
1480607538405398,-1.76389,0.328566,-2.33192
1480607538426453,-1.76389,0.32847,-2.33197
1480607538441493,-1.76389,0.32847,-2.33197
1480607538464053,-1.76389,0.32847,-2.33197
1480607538478090,-1.76389,0.32847,-2.33197
1480607538507670,-1.76389,0.32847,-2.33197
1480607538524215,-1.76512,0.328772,-2.33221
1480607538544768,-1.76603,0.328695,-2.3323
1480607538561312,-1.76603,0.328695,-2.3323
1480607538583872,-1.76607,0.328627,-2.33223
1480607538604930,-1.76601,0.328669,-2.33237
1480607538636512,-1.76601,0.328669,-2.33237
1480607538644032,-1.76601,0.328669,-2.33237
1480607538674116,-1.76581,0.328691,-2.33227
1480607538683136,-1.76581,0.328691,-2.33227
1480607538704693,-1.76581,0.328691,-2.33227
1480607538725248,-1.76564,0.328645,-2.33215
1480607538741291,-1.76564,0.328645,-2.33215
1480607538763850,-1.76581,0.328691,-2.33227
1480607538784908,-1.76544,0.328667,-2.33204
1480607538801455,-1.76561,0.328714,-2.33216
1480607538824011,-1.76593,0.328704,-2.33195
1480607538845066,-1.76611,0.328655,-2.33212
1480607538861611,-1.76611,0.328655,-2.33212
1480607538884171,-1.76611,0.328655,-2.33212
1480607538906733,-1.76613,0.328682,-2.33206
1480607538921270,-1.76613,0.328682,-2.33206
1480607538943830,-1.76611,0.328655,-2.33212
1480607538966390,-1.76611,0.328655,-2.33212
1480607538981430,-1.76593,0.328609,-2.332
1480607539003991,-1.76593,0.328609,-2.332
1480607539026549,-1.76593,0.328609,-2.332
1480607539041595,-1.76591,0.328582,-2.33207
1480607539063648,-1.76591,0.328582,-2.33207
1480607539094231,-1.76591,0.328582,-2.33207
1480607539101250,-1.76591,0.328678,-2.33202
1480607539123809,-1.76668,0.328678,-2.33184
1480607539146368,-1.76666,0.328651,-2.3319
1480607539160907,-1.76725,0.328584,-2.3322
1480607539183968,-1.76818,0.328922,-2.33259
1480607539214049,-1.76949,0.329113,-2.33268
1480607539220565,-1.77039,0.330485,-2.3325
1480607539244128,-1.7694,0.331763,-2.33244
1480607539275212,-1.76838,0.33207,-2.33248
1480607539282731,-1.76786,0.332536,-2.33232
1480607539303787,-1.76912,0.332988,-2.33238
1480607539326347,-1.77135,0.333827,-2.33212
1480607539340889,-1.77257,0.333181,-2.3318
1480607539363947,-1.77382,0.331936,-2.33178
1480607539386508,-1.77752,0.330786,-2.33083
1480607539407564,-1.78467,0.328809,-2.32884
1480607539430123,-1.79446,0.326365,-2.32545
1480607539447168,-1.80224,0.325105,-2.32127
1480607539467725,-1.8044,0.323312,-2.31615
1480607539484274,-1.80373,0.319688,-2.31046
1480607539506326,-1.80047,0.315561,-2.30509
1480607539534902,-1.79837,0.311752,-2.3003
1480607539551447,-1.79659,0.309822,-2.29533
1480607539566488,-1.79281,0.30775,-2.29073
1480607539595061,-1.78948,0.306188,-2.28646
1480607539604086,-1.78934,0.303554,-2.28321
1480607539626646,-1.79017,0.300316,-2.27987
1480607539647702,-1.78715,0.29868,-2.27615
1480607539663244,-1.77953,0.298172,-2.27095
1480607539687809,-1.77259,0.297961,-2.26515
1480607539707361,-1.76757,0.297328,-2.25914
1480607539723905,-1.76566,0.296155,-2.25547
1480607539746465,-1.76324,0.295912,-2.25276
1480607539769025,-1.75851,0.295056,-2.25041
1480607539784067,-1.75403,0.294891,-2.2486
1480607539812641,-1.75146,0.295856,-2.24688
1480607539827680,-1.7484,0.296294,-2.24562
1480607539844225,-1.74439,0.296397,-2.24466
1480607539882326,-1.74129,0.296627,-2.24465
1480607539887339,-1.73898,0.296893,-2.24494
1480607539903884,-1.73723,0.297956,-2.24497
1480607539926444,-1.73768,0.299405,-2.24393
1480607539949004,-1.74405,0.299608,-2.2416
1480607539963041,-1.75044,0.298719,-2.23856
1480607539987106,-1.74924,0.298086,-2.2346
1480607540016684,-1.7396,0.297605,-2.23058
1480607540023201,-1.72603,0.298694,-2.22599
1480607540046764,-1.72146,0.299875,-2.22151
1480607540068823,-1.72426,0.299744,-2.21707
1480607540089879,-1.73026,0.300001,-2.21308
1480607540106424,-1.73626,0.29992,-2.20947
1480607540128983,-1.74303,0.296513,-2.20491
1480607540151544,-1.74642,0.293211,-2.19818
1480607540166585,-1.74277,0.287669,-2.18986
1480607540189143,-1.73428,0.282274,-2.1838
1480607540210198,-1.72806,0.27658,-2.18102
1480607540226241,-1.73117,0.27028,-2.18113
1480607540248801,-1.74338,0.263675,-2.18119
1480607540269857,-1.74602,0.264416,-2.18051
1480607540293921,-1.73491,0.267717,-2.18129
1480607540308961,-1.72601,0.268372,-2.1822
1480607540330017,-1.72509,0.266685,-2.18302
1480607540346561,-1.72719,0.262157,-2.18469
1480607540369121,-1.7273,0.260861,-2.18727
1480607540390177,-1.72081,0.262466,-2.18922
1480607540406230,-1.71259,0.263873,-2.19168
1480607540429782,-1.70854,0.265666,-2.19471
1480607540449837,-1.71221,0.267295,-2.19806
1480607540466381,-1.71712,0.268237,-2.20179
1480607540489442,-1.72086,0.269731,-2.20613
1480607540509996,-1.72353,0.273787,-2.21119
1480607540526540,-1.72769,0.279918,-2.21751
1480607540549601,-1.7355,0.286217,-2.2245
1480607540569664,-1.74409,0.291783,-2.23125
1480607540586701,-1.74905,0.297075,-2.2367
1480607540609260,-1.7508,0.301212,-2.24153
1480607540629815,-1.74997,0.303298,-2.24586
1480607540646860,-1.74802,0.304077,-2.25006
1480607540676439,-1.74623,0.304016,-2.25404
1480607540689974,-1.74773,0.303972,-2.25641
1480607540712535,-1.75071,0.304393,-2.25676
1480607540729079,-1.75269,0.304858,-2.25568
1480607540750637,-1.75183,0.30548,-2.25404
1480607540766681,-1.74798,0.30642,-2.25157
1480607540789239,-1.74439,0.307706,-2.24881
1480607540809793,-1.74245,0.308524,-2.24631
1480607540826337,-1.74198,0.308205,-2.24448
1480607540848898,-1.7419,0.307049,-2.24294
1480607540878977,-1.7415,0.305578,-2.24182
1480607540894018,-1.74268,0.304088,-2.24084
1480607540909057,-1.74612,0.302661,-2.24048
1480607540931618,-1.75205,0.300969,-2.24152
1480607540946658,-1.76023,0.300613,-2.24291
1480607540969218,-1.76743,0.301326,-2.24369
1480607540991276,-1.77241,0.302386,-2.24398
1480607541005816,-1.775,0.30317,-2.24453
1480607541028877,-1.77635,0.303378,-2.24553
1480607541051938,-1.77721,0.303932,-2.24638
1480607541066478,-1.77546,0.304264,-2.2468
1480607541089036,-1.77222,0.304605,-2.24736
1480607541111597,-1.76799,0.306236,-2.24767
1480607541125634,-1.76568,0.30696,-2.24755
1480607541148695,-1.76359,0.307015,-2.24743
1480607541171257,-1.7607,0.307253,-2.24737
1480607541185794,-1.75552,0.308436,-2.24704
1480607541208855,-1.75115,0.309127,-2.24631
1480607541231916,-1.74921,0.309515,-2.24516
1480607541245954,-1.749,0.309155,-2.24435
1480607541269016,-1.74748,0.30889,-2.24377
1480607541291576,-1.74582,0.308787,-2.24287
1480607541305614,-1.74352,0.309044,-2.24208
1480607541329175,-1.74228,0.309158,-2.24062
1480607541360257,-1.74326,0.30902,-2.23962
1480607541372793,-1.74601,0.309758,-2.23872
1480607541389337,-1.74853,0.309924,-2.23823
1480607541411394,-1.75082,0.309206,-2.23889
1480607541433957,-1.75312,0.308765,-2.24082
1480607541448994,-1.75583,0.308542,-2.24325
1480607541479074,-1.75849,0.308692,-2.24555
1480607541492611,-1.76012,0.309196,-2.24677
1480607541509154,-1.76055,0.3091,-2.24743
1480607541532216,-1.75954,0.30886,-2.24824
1480607541552269,-1.75835,0.309193,-2.24906
1480607541568813,-1.75695,0.308673,-2.24988
1480607541591373,-1.75526,0.308143,-2.24982
1480607541612429,-1.7528,0.308231,-2.24899
1480607541628972,-1.74933,0.308267,-2.24783
1480607541651533,-1.74519,0.308385,-2.24708
1480607541680109,-1.74248,0.308118,-2.24653
1480607541689133,-1.74288,0.307617,-2.24602
1480607541717711,-1.74411,0.307213,-2.24566
1480607541732750,-1.74494,0.307525,-2.24567
1480607541771854,-1.74588,0.308206,-2.24618
1480607541774360,-1.74788,0.308187,-2.24748
1480607541792408,-1.75088,0.307471,-2.2491
1480607541816473,-1.75254,0.307006,-2.2504
1480607541831512,-1.75167,0.306918,-2.25132
1480607541860087,-1.75009,0.307633,-2.25225
1480607541869111,-1.75009,0.308663,-2.25305
1480607541897688,-1.7519,0.309429,-2.25371
1480607541914232,-1.75289,0.310008,-2.25371
1480607541928770,-1.75314,0.31005,-2.25363
1480607541952334,-1.75365,0.310012,-2.25359
1480607541974392,-1.75457,0.309848,-2.25375
1480607541988430,-1.75484,0.310014,-2.25356
1480607542011491,-1.75489,0.309854,-2.25354
1480607542034052,-1.75456,0.31041,-2.25388
1480607542048088,-1.75512,0.311334,-2.25459
1480607542071652,-1.75693,0.311757,-2.255
1480607542094211,-1.75938,0.311632,-2.25538
1480607542108249,-1.76051,0.311359,-2.25568
1480607542131310,-1.76109,0.311626,-2.25577
1480607542153872,-1.7603,0.312247,-2.25605
1480607542168408,-1.75989,0.312497,-2.25627
1480607542191469,-1.76056,0.311978,-2.25617
1480607542214029,-1.7609,0.311329,-2.25587
1480607542228067,-1.76089,0.311423,-2.25583
1480607542251629,-1.75983,0.31166,-2.25593
1480607542273689,-1.75983,0.31166,-2.25593
1480607542288227,-1.76135,0.311668,-2.25622
1480607542311288,-1.76211,0.311578,-2.25668
1480607542333850,-1.7613,0.311857,-2.25723
1480607542354904,-1.7604,0.31227,-2.25737
1480607542371450,-1.7604,0.31227,-2.25737
1480607542394008,-1.76133,0.31279,-2.25756
1480607542415065,-1.76195,0.313646,-2.25768
1480607542432111,-1.76278,0.31352,-2.25801
1480607542453667,-1.76364,0.313172,-2.25846
1480607542475224,-1.76315,0.31324,-2.25896
1480607542498787,-1.76253,0.313287,-2.25923
1480607542514328,-1.76253,0.313287,-2.25923
1480607542534883,-1.76258,0.313533,-2.25898
1480607542558946,-1.7626,0.313563,-2.2589
1480607542573987,-1.76256,0.313753,-2.25885
1480607542603065,-1.76385,0.313403,-2.25939
1480607542611587,-1.76511,0.31315,-2.25939
1480607542634149,-1.76511,0.31315,-2.25939
1480607542655202,-1.76436,0.313176,-2.25944
1480607542671748,-1.76388,0.313462,-2.25978
1480607542693806,-1.76378,0.313905,-2.26024
1480607542714862,-1.76452,0.314439,-2.26086
1480607542744941,-1.76534,0.314188,-2.26077
1480607542754969,-1.7662,0.314059,-2.26053
1480607542776526,-1.76553,0.314268,-2.26029
1480607542791567,-1.76417,0.314748,-2.26037
1480607542813624,-1.76443,0.31557,-2.26081
1480607542836687,-1.76734,0.31612,-2.26185
1480607542851225,-1.77184,0.315859,-2.26255
1480607542881304,-1.77502,0.315673,-2.26301
1480607542896845,-1.776,0.315688,-2.26346
1480607542924920,-1.77451,0.316269,-2.26373
1480607542933946,-1.77308,0.316133,-2.2633
1480607542956504,-1.77219,0.315333,-2.26267
1480607542970542,-1.77129,0.315093,-2.26218
1480607542994104,-1.77058,0.315242,-2.26208
1480607543016666,-1.77092,0.314904,-2.26211
1480607543030701,-1.77268,0.314611,-2.26207
1480607543068804,-1.77437,0.314234,-2.26174
1480607543076324,-1.77513,0.314114,-2.26174
1480607543090861,-1.77508,0.31418,-2.2618
1480607543113924,-1.77575,0.314535,-2.26165
1480607543136484,-1.77708,0.314342,-2.26149
1480607543159043,-1.77829,0.31425,-2.26151
1480607543174084,-1.77846,0.314299,-2.26163
1480607543196643,-1.77854,0.314169,-2.26154
1480607543217699,-1.77866,0.314283,-2.26173
1480607543234745,-1.77949,0.314248,-2.26202
1480607543263823,-1.77988,0.314216,-2.26221
1480607543277358,-1.77969,0.314138,-2.26216
1480607543293902,-1.77869,0.314433,-2.26208
1480607543316462,-1.77841,0.315139,-2.26221
1480607543345038,-1.77903,0.315341,-2.26228
1480607543354068,-1.78013,0.315009,-2.2622
1480607543376622,-1.78069,0.314811,-2.26214
1480607543397679,-1.78069,0.314811,-2.26214
1480607543421743,-1.78011,0.314979,-2.26227
1480607543436282,-1.78008,0.315075,-2.26226
1480607543457337,-1.78127,0.314952,-2.26235
1480607543487417,-1.78237,0.314747,-2.26219
1480607543496943,-1.78242,0.314587,-2.26217
1480607543534543,-1.78139,0.314632,-2.26232
1480607543537049,-1.78081,0.314705,-2.26248
1480607543562617,-1.78075,0.314865,-2.2625
1480607543578660,-1.78135,0.315037,-2.26264
1480607543593700,-1.78135,0.315037,-2.26264
1480607543623780,-1.78123,0.314923,-2.26246
1480607543637316,-1.78078,0.314801,-2.26247
1480607543653864,-1.78023,0.315124,-2.26242
1480607543676420,-1.78022,0.315219,-2.26238
1480607543698980,-1.78055,0.315322,-2.26213
1480607543721540,-1.78055,0.315322,-2.26213
1480607543736581,-1.78055,0.315227,-2.26217
1480607543766662,-1.78055,0.315227,-2.26217
1480607543773177,-1.78077,0.31521,-2.26224
1480607543802255,-1.78077,0.31521,-2.26224
1480607543820302,-1.78107,0.316184,-2.2625
1480607543834340,-1.78238,0.316301,-2.2627
1480607543856900,-1.78349,0.31578,-2.2627
1480607543878959,-1.78347,0.31575,-2.26277
1480607543901519,-1.78219,0.315782,-2.26292
1480607543916559,-1.78112,0.316113,-2.26297
1480607543939119,-1.78107,0.316178,-2.26303
1480607543953157,-1.78223,0.316466,-2.26292
1480607543976217,-1.78317,0.315991,-2.26276
1480607543999781,-1.78317,0.315991,-2.26276
1480607544013316,-1.7824,0.315986,-2.26287
1480607544043897,-1.7816,0.316385,-2.2633
1480607544058937,-1.78195,0.316638,-2.26341
1480607544073476,-1.78298,0.316687,-2.26322
1480607544096537,-1.78343,0.316809,-2.2632
1480607544119097,-1.78285,0.316668,-2.26299
1480607544140155,-1.7823,0.316991,-2.26294
1480607544170234,-1.78249,0.317165,-2.26295
1480607544178756,-1.78297,0.316882,-2.26261
1480607544193295,-1.78383,0.316229,-2.26219
1480607544216357,-1.78383,0.316229,-2.26219
1480607544238917,-1.7835,0.316315,-2.26236
1480607544259973,-1.78314,0.316402,-2.26255
1480607544276517,-1.78429,0.31625,-2.26275
1480607544299077,-1.78506,0.316257,-2.26264
1480607544320137,-1.78506,0.316257,-2.26264
1480607544343695,-1.78397,0.316462,-2.2628
1480607544365253,-1.78286,0.316793,-2.26288
1480607544380292,-1.78286,0.316793,-2.26288
1480607544403864,-1.78408,0.316361,-2.26261
1480607544418895,-1.78397,0.316153,-2.26246
1480607544439951,-1.78266,0.316035,-2.26226
1480607544456495,-1.78168,0.316235,-2.26219
1480607544485072,-1.78165,0.31633,-2.26218
1480607544501615,-1.78251,0.316641,-2.26221
1480607544516655,-1.78383,0.316229,-2.26219
1480607544546234,-1.78383,0.316229,-2.26219
1480607544559770,-1.78337,0.315981,-2.26232
1480607544576314,-1.78272,0.316089,-2.26262
1480607544598874,-1.78291,0.316168,-2.26268
1480607544620431,-1.78382,0.316098,-2.26284
1480607544636474,-1.78416,0.316225,-2.26305
1480607544659034,-1.78416,0.316225,-2.26305
1480607544689615,-1.78365,0.316823,-2.26323
1480607544696634,-1.78438,0.316453,-2.26346
1480607544719194,-1.78519,0.316174,-2.26344
1480607544741253,-1.78464,0.315842,-2.26328
1480607544756292,-1.78348,0.315869,-2.26319
1480607544778853,-1.78284,0.316543,-2.26311
1480607544801413,-1.78284,0.316543,-2.26311
1480607544823973,-1.78363,0.316019,-2.26278
1480607544839013,-1.78363,0.316019,-2.26278
1480607544877615,-1.78269,0.315625,-2.26247
1480607544882629,-1.78228,0.315532,-2.26238
1480607544912207,-1.7823,0.315562,-2.26231
1480607544921733,-1.7831,0.316032,-2.26236
1480607544935771,-1.78379,0.316508,-2.26263
1480607544958831,-1.78439,0.31668,-2.26277
1480607544981391,-1.78526,0.316454,-2.26312
1480607544995930,-1.78532,0.316294,-2.2631
1480607545018993,-1.7843,0.316583,-2.26355
1480607545041551,-1.78425,0.316648,-2.26361
1480607545055589,-1.78453,0.316817,-2.26342
1480607545078651,-1.78454,0.316943,-2.26331
1480607545108731,-1.78454,0.316943,-2.26331
1480607545115752,-1.78434,0.316959,-2.26321
1480607545152851,-1.78335,0.316725,-2.26292
1480607545161370,-1.78277,0.316678,-2.26266
1480607545189946,-1.78277,0.316584,-2.2627
1480607545198971,-1.7838,0.316633,-2.26252
1480607545221531,-1.7845,0.316674,-2.26254
1480607545242586,-1.7845,0.316674,-2.26254
1480607545259130,-1.78534,0.316545,-2.26287
1480607545281691,-1.78628,0.316284,-2.26309
1480607545302748,-1.78628,0.316284,-2.26309
1480607545318789,-1.78559,0.316456,-2.26344
1480607545341350,-1.78559,0.316456,-2.26344
1480607545362405,-1.78539,0.316378,-2.26339
1480607545379450,-1.78539,0.316473,-2.26334
1480607545401510,-1.78522,0.316424,-2.26322
1480607545422565,-1.78491,0.316106,-2.26305
1480607545439611,-1.78432,0.31606,-2.2628
1480607545461672,-1.78434,0.31609,-2.26273
1480607545482726,-1.78475,0.315938,-2.26248
1480607545506289,-1.78478,0.315874,-2.26245
1480607545521331,-1.78495,0.315922,-2.26257
1480607545542385,-1.78495,0.315922,-2.26257
1480607545549403,-1.78497,0.315953,-2.2625
1480607545564442,-1.78495,0.315922,-2.26257
1480607545587004,-1.78495,0.315922,-2.26257
1480607545609563,-1.78495,0.315922,-2.26257
1480607545624102,-1.78478,0.315874,-2.26245
1480607545657190,-1.78537,0.31558,-2.2624
1480607545669222,-1.7852,0.315532,-2.26227
1480607545684262,-1.78485,0.315279,-2.26217
1480607545706822,-1.78445,0.315311,-2.26198
1480607545730886,-1.78395,0.315355,-2.26148
1480607545744421,-1.78379,0.314967,-2.26106
1480607545766982,-1.78374,0.315032,-2.26112
1480607545789541,-1.78379,0.314967,-2.26106
1480607545804080,-1.78344,0.314933,-2.2608
1480607545834161,-1.78346,0.314964,-2.26073
1480607545849200,-1.78346,0.314964,-2.26073
1480607545871760,-1.78415,0.31488,-2.26086
1480607545888304,-1.78476,0.314303,-2.26094
1480607545909360,-1.78476,0.314303,-2.26094
1480607545940443,-1.78397,0.314266,-2.26112
1480607545946961,-1.78316,0.314544,-2.26114
1480607545977541,-1.7831,0.314704,-2.26116
1480607545985564,-1.78336,0.314535,-2.26071
1480607546006619,-1.78336,0.314535,-2.26071
1480607546029179,-1.783,0.314376,-2.26056
1480607546045723,-1.783,0.314376,-2.26056
1480607546066781,-1.78301,0.314281,-2.2606
1480607546089339,-1.78301,0.314281,-2.2606
1480607546105883,-1.78301,0.314281,-2.2606
1480607546126939,-1.78301,0.314281,-2.2606
1480607546149500,-1.78282,0.314203,-2.26055
1480607546165543,-1.78282,0.314203,-2.26055
1480607546186598,-1.78301,0.314281,-2.2606
1480607546209158,-1.78301,0.314281,-2.2606
1480607546225701,-1.78293,0.314197,-2.26032
1480607546254277,-1.78293,0.314197,-2.26032
1480607546269318,-1.78293,0.314197,-2.26032
1480607546285862,-1.78293,0.314292,-2.26027
1480607546306918,-1.78293,0.314292,-2.26027
1480607546329477,-1.78293,0.314292,-2.26027
1480607546346022,-1.78295,0.314228,-2.26025
1480607546367078,-1.78357,0.314179,-2.26051
1480607546396657,-1.78382,0.314097,-2.26055
1480607546407185,-1.78382,0.314097,-2.26055
1480607546428242,-1.78382,0.314003,-2.26059
1480607546449297,-1.78382,0.314003,-2.26059
1480607546474865,-1.78382,0.314003,-2.26059
1480607546486897,-1.78382,0.314003,-2.26059
1480607546510459,-1.78382,0.314097,-2.26055
1480607546532017,-1.78362,0.314579,-2.26063
1480607546547057,-1.78379,0.315187,-2.2609
1480607546569115,-1.78438,0.316007,-2.26168
1480607546591677,-1.78497,0.317142,-2.26226
1480607546606716,-1.7869,0.317558,-2.26249
1480607546629275,-1.78887,0.317348,-2.26253
1480607546651837,-1.78882,0.317509,-2.26254
1480607546666882,-1.78804,0.318156,-2.26276
1480607546689435,-1.78817,0.318182,-2.26246
1480607546711996,-1.78896,0.3171,-2.26199
1480607546727035,-1.78902,0.31694,-2.26197
1480607546750097,-1.78789,0.31668,-2.26197
1480607546771666,-1.78706,0.316399,-2.26187
1480607546786695,-1.78762,0.316517,-2.26162
1480607546812764,-1.78824,0.316602,-2.26128
1480607546831815,-1.78859,0.316296,-2.26124
1480607546846855,-1.78858,0.316391,-2.26119
1480607546869415,-1.78817,0.315982,-2.2613
1480607546891974,-1.78784,0.315972,-2.26151
1480607546907015,-1.78753,0.315993,-2.26164
1480607546929574,-1.78753,0.315993,-2.26164
1480607546951633,-1.78828,0.316529,-2.26175
1480607546968178,-1.78912,0.316495,-2.26204
1480607546989233,-1.78912,0.316495,-2.26204
1480607547011793,-1.78917,0.316429,-2.26198
1480607547028337,-1.78859,0.316501,-2.26214
1480607547049397,-1.7881,0.316569,-2.26211
1480607547071954,-1.7881,0.316569,-2.26211
1480607547086994,-1.78862,0.316657,-2.26196
1480607547109051,-1.78862,0.316657,-2.26196
1480607547133119,-1.78802,0.317045,-2.26197
1480607547146653,-1.78802,0.317045,-2.26197
1480607547169216,-1.78832,0.316804,-2.26199
1480607547191771,-1.78832,0.316804,-2.26199
1480607547208316,-1.78773,0.31675,-2.26226
1480607547232380,-1.7874,0.31674,-2.26247
1480607547251932,-1.78745,0.31658,-2.26245
1480607547269981,-1.78745,0.31658,-2.26245
1480607547289031,-1.78743,0.31655,-2.26252
1480607547311591,-1.7874,0.31674,-2.26247
1480607547328135,-1.78741,0.316645,-2.26251
1480607547349195,-1.78827,0.316302,-2.26243
1480607547371751,-1.78832,0.316142,-2.26241
1480607547388295,-1.78753,0.316104,-2.26259
1480607547409350,-1.78677,0.316003,-2.26274
1480607547431911,-1.78678,0.316128,-2.26263
1480607547448455,-1.78721,0.316,-2.26284
1480607547469511,-1.78686,0.316306,-2.26288
1480607547516140,-1.78656,0.316453,-2.2629
1480607547519154,-1.78705,0.31629,-2.26298
1480607547529169,-1.78705,0.31629,-2.26298
1480607547551731,-1.78705,0.31629,-2.26298
1480607547569779,-1.78705,0.31629,-2.26298
1480607547596849,-1.78705,0.31629,-2.26298
1480607547611889,-1.78705,0.31629,-2.26298
1480607547629938,-1.78659,0.316263,-2.26295
1480607547649490,-1.78659,0.316263,-2.26295
1480607547673618,-1.78664,0.316197,-2.26289
1480607547697116,-1.78646,0.316024,-2.26288
1480607547709148,-1.78626,0.31604,-2.26278
1480607547749257,-1.78607,0.315961,-2.26272
1480607547751762,-1.78607,0.315961,-2.26272
1480607547772317,-1.78625,0.315915,-2.26289
1480607547793372,-1.7863,0.315849,-2.26283
1480607547817437,-1.7856,0.315713,-2.26285
1480607547832479,-1.7856,0.315713,-2.26285
1480607547852029,-1.7856,0.315713,-2.26285
1480607547877095,-1.7856,0.315713,-2.26285
1480607547889127,-1.78519,0.31618,-2.26291
1480607547911687,-1.78519,0.316275,-2.26287
1480607547929735,-1.78603,0.315805,-2.2629
1480607547949291,-1.78626,0.31548,-2.26263
1480607547971847,-1.78518,0.315282,-2.2625
1480607547994407,-1.78397,0.315278,-2.26251
1480607548016967,-1.78414,0.315326,-2.26264
1480607548032008,-1.78472,0.315254,-2.26247
1480607548063091,-1.78528,0.315151,-2.26238
1480607548069107,-1.78528,0.315151,-2.26238
1480607548093169,-1.78528,0.315151,-2.26238
1480607548114225,-1.78528,0.315151,-2.26238
1480607548136787,-1.78532,0.315086,-2.26232
1480607548151826,-1.78532,0.315086,-2.26232
1480607548174385,-1.78533,0.314991,-2.26236
1480607548190930,-1.78533,0.314991,-2.26236
1480607548211986,-1.78535,0.315022,-2.26229
1480607548242568,-1.78534,0.315116,-2.26225
1480607548250589,-1.78599,0.315003,-2.26248
1480607548271645,-1.78661,0.314645,-2.26241
1480607548305235,-1.78659,0.314615,-2.26248
1480607548310749,-1.78574,0.314738,-2.26268
1480607548331806,-1.78541,0.315075,-2.26265
1480607548354366,-1.78631,0.3151,-2.26277
1480607548370910,-1.78687,0.314902,-2.26271
1480607548391965,-1.78662,0.314764,-2.26283
1480607548414524,-1.78624,0.315135,-2.2629
1480607548438088,-1.78623,0.315229,-2.26285
1480607548451624,-1.78663,0.314889,-2.26271
1480607548474184,-1.78703,0.314517,-2.26261
1480607548492231,-1.78701,0.314487,-2.26268
1480607548513288,-1.78631,0.31454,-2.26262
1480607548534344,-1.78638,0.314411,-2.26253
1480607548552392,-1.78638,0.314411,-2.26253
1480607548571944,-1.78706,0.314761,-2.26292
1480607548594503,-1.78738,0.315631,-2.26373
1480607548613053,-1.78797,0.31645,-2.26451
1480607548631602,-1.7896,0.31645,-2.26462
1480607548654162,-1.7907,0.316458,-2.26484
1480607548672211,-1.78982,0.316772,-2.26499
1480607548691762,-1.78881,0.316973,-2.26495
1480607548714322,-1.78897,0.316375,-2.26447
1480607548732374,-1.78908,0.315598,-2.26371
1480607548751923,-1.78831,0.315252,-2.26352
1480607548774501,-1.78739,0.315543,-2.26324
1480607548792029,-1.78816,0.315644,-2.26309
1480607548811581,-1.78951,0.314925,-2.26271
1480607548834141,-1.78988,0.314744,-2.26256
1480607548852190,-1.78899,0.314624,-2.26248
1480607548871742,-1.78834,0.31495,-2.26262
1480607548894301,-1.78834,0.31495,-2.26262
1480607548912349,-1.78913,0.315083,-2.2624
1480607548931902,-1.79001,0.31477,-2.26226
1480607548954462,-1.79037,0.314464,-2.26221
1480607548972008,-1.7894,0.314473,-2.26222
1480607548991559,-1.78855,0.314729,-2.26181
1480607549014119,-1.78872,0.314777,-2.26194
1480607549032170,-1.7894,0.314575,-2.26165
1480607549051721,-1.78935,0.314641,-2.26171
1480607549074280,-1.78999,0.315189,-2.26152
1480607549092328,-1.79071,0.315578,-2.26128
1480607549113384,-1.78978,0.315395,-2.26134
1480607549134440,-1.78663,0.31607,-2.26095
1480607549158002,-1.78381,0.317062,-2.26069
1480607549173043,-1.78332,0.317444,-2.26046
1480607549201619,-1.78389,0.317461,-2.26078
1480607549216660,-1.78374,0.31765,-2.2615
1480607549233204,-1.78279,0.317804,-2.26239
1480607549254258,-1.78156,0.318325,-2.26315
1480607549272307,-1.78002,0.31809,-2.26406
1480607549293362,-1.77901,0.317094,-2.26533
1480607549314418,-1.77809,0.317278,-2.26669
1480607549331966,-1.77669,0.317848,-2.26782
1480607549353022,-1.77646,0.318927,-2.26815
1480607549374078,-1.77725,0.319179,-2.26781
1480607549392126,-1.77755,0.318375,-2.26769
1480607549414687,-1.777,0.317727,-2.26826
1480607549434238,-1.77504,0.317629,-2.26897
1480607549452287,-1.77408,0.317543,-2.27009
1480607549474846,-1.77499,0.31793,-2.2715
1480607549498409,-1.77786,0.318716,-2.27308
1480607549516958,-1.78016,0.318961,-2.27362
1480607549534505,-1.78076,0.318788,-2.27346
1480607549554057,-1.77961,0.318727,-2.27341
1480607549584139,-1.77857,0.319215,-2.27382
1480607549595166,-1.77841,0.319948,-2.27368
1480607549614216,-1.77933,0.31997,-2.27323
1480607549636778,-1.78026,0.319804,-2.27287
1480607549654824,-1.78143,0.319676,-2.273
1480607549681898,-1.78267,0.319482,-2.27303
1480607549696936,-1.78291,0.319404,-2.27254
1480607549714985,-1.78116,0.319832,-2.27192
1480607549741555,-1.77867,0.320073,-2.27094
1480607549758100,-1.77731,0.320121,-2.27075
1480607549774643,-1.77791,0.319635,-2.27079
1480607549801715,-1.77723,0.320597,-2.27061
1480607549816756,-1.77595,0.322702,-2.27049
1480607549834804,-1.77542,0.324124,-2.27023
1480607549854355,-1.77657,0.323629,-2.26959
1480607549876915,-1.77772,0.32282,-2.26915
1480607549894462,-1.77785,0.322843,-2.26885
1480607549914516,-1.77631,0.322937,-2.2685
1480607549936574,-1.77587,0.323256,-2.26821
1480607549954622,-1.77616,0.323547,-2.26791
1480607549974174,-1.77736,0.324202,-2.26799
1480607550004254,-1.77813,0.325077,-2.26837
1480607550014782,-1.77815,0.325107,-2.2683
1480607550037343,-1.77819,0.324916,-2.26835
1480607550056894,-1.778,0.324838,-2.26829
1480607550082964,-1.77693,0.325078,-2.26838
1480607550095497,-1.77605,0.325401,-2.268
1480607550117054,-1.77678,0.325594,-2.26784
1480607550134602,-1.77817,0.324795,-2.26793
1480607550157161,-1.78017,0.324067,-2.26874
1480607550176713,-1.78247,0.324412,-2.26925
1480607550199273,-1.78341,0.324469,-2.26873
1480607550215817,-1.7825,0.324427,-2.26761
1480607550238377,-1.78152,0.324976,-2.26731
1480607550254921,-1.78338,0.325636,-2.26806
1480607550275977,-1.7878,0.3247,-2.26794
1480607550297033,-1.79204,0.32391,-2.26761
1480607550315082,-1.79454,0.32444,-2.26762
1480607550335636,-1.79581,0.326026,-2.26808
1480607550359700,-1.79633,0.325893,-2.26809
1480607550374740,-1.79621,0.324999,-2.26786
1480607550397300,-1.79332,0.325188,-2.26769
1480607550419860,-1.7888,0.325255,-2.26752
1480607550434900,-1.78469,0.325195,-2.26759
1480607550456959,-1.78274,0.326312,-2.26797
1480607550477011,-1.78274,0.326312,-2.26797
1480607550494558,-1.78377,0.325703,-2.26768
1480607550517118,-1.7845,0.325337,-2.26738
1480607550536670,-1.78415,0.324429,-2.26717
1480607550554718,-1.78261,0.324111,-2.26704
1480607550577279,-1.78168,0.323592,-2.2668
1480607550596830,-1.78137,0.32362,-2.2664
1480607550614879,-1.78137,0.32362,-2.2664
1480607550637439,-1.78263,0.323555,-2.26633
1480607550656489,-1.78487,0.322538,-2.26627
1480607550675039,-1.78599,0.321365,-2.26563
1480607550697097,-1.78572,0.320762,-2.26556
1480607550733695,-1.78373,0.320069,-2.26565
1480607550736201,-1.78213,0.319351,-2.2654
1480607550757258,-1.78195,0.319278,-2.26481
1480607550776809,-1.7829,0.319247,-2.26381
1480607550794857,-1.78497,0.319125,-2.26356
1480607550817417,-1.78618,0.318813,-2.26374
1480607550836970,-1.78615,0.318027,-2.26432
1480607550854516,-1.78493,0.317458,-2.26472
1480607550877076,-1.78324,0.317398,-2.26478
1480607550896628,-1.7827,0.317627,-2.26476
1480607550915179,-1.78341,0.317792,-2.26467
1480607550937236,-1.78464,0.317825,-2.26458
1480607550958292,-1.78558,0.317665,-2.26422
1480607550979349,-1.78501,0.317083,-2.26429
1480607551003412,-1.78353,0.316817,-2.26453
1480607551018453,-1.78269,0.316942,-2.26473
1480607551039508,-1.78312,0.317379,-2.26455
1480607551057055,-1.78492,0.317647,-2.26463
1480607551078110,-1.78711,0.317551,-2.26412
1480607551099169,-1.78766,0.31658,-2.26354
1480607551117216,-1.78645,0.316017,-2.26341
1480607551144287,-1.78505,0.316898,-2.26381
1480607551159327,-1.78502,0.316994,-2.2638
1480607551177375,-1.78603,0.317234,-2.26353
1480607551198432,-1.78688,0.31711,-2.26333
1480607551219492,-1.7871,0.316565,-2.26321
1480607551237035,-1.78645,0.316112,-2.26336
1480607551258090,-1.78506,0.316054,-2.26378
1480607551279146,-1.78461,0.3168,-2.26428
1480607551297194,-1.78575,0.317398,-2.26454
1480607551319755,-1.78763,0.316977,-2.2644
1480607551339306,-1.78844,0.316484,-2.264
1480607551357354,-1.787,0.316342,-2.2641
1480607551392948,-1.78512,0.316668,-2.26429
1480607551399466,-1.78508,0.316947,-2.26473
1480607551424533,-1.7862,0.316645,-2.26458
1480607551440576,-1.78665,0.316767,-2.26456
1480607551459124,-1.7866,0.316832,-2.26462
1480607551477177,-1.78643,0.316784,-2.26449
1480607551499733,-1.78643,0.316879,-2.26445
1480607551519285,-1.78643,0.316879,-2.26445
1480607551537334,-1.78643,0.316879,-2.26445
1480607551559893,-1.78643,0.316784,-2.26449
1480607551579445,-1.78648,0.316719,-2.26443
1480607551596992,-1.78693,0.316841,-2.26442
1480607551619552,-1.78693,0.316841,-2.26442
1480607551640609,-1.78662,0.316958,-2.26451
1480607551657152,-1.78631,0.3172,-2.26449
1480607551679712,-1.78702,0.317145,-2.26455
1480607551700768,-1.78736,0.3165,-2.26424
1480607551725333,-1.78688,0.316347,-2.26433
1480607551745887,-1.78587,0.316423,-2.2644
1480607551759423,-1.78632,0.31645,-2.26443
1480607551776970,-1.78742,0.316553,-2.2646
1480607551799531,-1.78779,0.317049,-2.26502
1480607551819104,-1.7887,0.317192,-2.26556
1480607551837131,-1.78913,0.31685,-2.26539
1480607551859690,-1.78913,0.31685,-2.26539
1480607551879242,-1.78831,0.316909,-2.26555
1480607551897290,-1.78831,0.316909,-2.26555
1480607551919854,-1.78922,0.317059,-2.26556
1480607551940907,-1.78974,0.317146,-2.26542
1480607551956950,-1.78974,0.317146,-2.26542
1480607551979510,-1.78979,0.317081,-2.26536
1480607552000566,-1.79024,0.316983,-2.26549
1480607552023125,-1.79024,0.316983,-2.26549
1480607552047189,-1.79041,0.317031,-2.26562
1480607552060725,-1.79041,0.317031,-2.26562
1480607552077269,-1.79024,0.316983,-2.26549
1480607552100332,-1.79024,0.316983,-2.26549
1480607552120886,-1.78959,0.317097,-2.26526
1480607552137430,-1.78895,0.317117,-2.26506
1480607552164501,-1.78895,0.317117,-2.26506
1480607552180544,-1.79014,0.317429,-2.26542
1480607552197087,-1.79111,0.317418,-2.26541
1480607552219649,-1.79111,0.317418,-2.26541
1480607552240704,-1.79027,0.317447,-2.26565
1480607552262261,-1.78977,0.31739,-2.26573
1480607552279808,-1.78977,0.31739,-2.26573
1480607552315404,-1.78977,0.31739,-2.26573
1480607552323424,-1.78994,0.317438,-2.26585
1480607552339469,-1.78994,0.317438,-2.26585
1480607552368044,-1.78996,0.317468,-2.26578
1480607552381579,-1.78994,0.317438,-2.26585
1480607552414667,-1.78925,0.317523,-2.26572
1480607552422187,-1.7888,0.317621,-2.26558
1480607552441739,-1.78843,0.317898,-2.26569
1480607552459787,-1.78843,0.317898,-2.26569
1480607552481345,-1.78848,0.317832,-2.26563
1480607552503906,-1.78866,0.318132,-2.26557
1480607552518946,-1.78866,0.318132,-2.26557
1480607552541505,-1.78797,0.318217,-2.26544
1480607552562560,-1.78764,0.318523,-2.26545
1480607552580106,-1.78764,0.318523,-2.26545
1480607552601165,-1.78828,0.318195,-2.2653
1480607552622219,-1.78878,0.317937,-2.26542
1480607552638763,-1.78883,0.317872,-2.26536
1480607552661323,-1.78837,0.317845,-2.26534
1480607552682400,-1.78811,0.317801,-2.26541
1480607552698925,-1.78811,0.317801,-2.26541
1480607552721483,-1.78816,0.317736,-2.26535
1480607552742538,-1.78816,0.317736,-2.26535
1480607552759083,-1.78816,0.317736,-2.26535
1480607552781645,-1.78816,0.317736,-2.26535
1480607552802198,-1.78818,0.317766,-2.26528
1480607552818744,-1.7883,0.317879,-2.26547
1480607552841302,-1.78832,0.31791,-2.2654
1480607552862859,-1.78891,0.317711,-2.26531
1480607552878902,-1.78908,0.318665,-2.26535
1480607552901462,-1.79026,0.320382,-2.26588
1480607552923019,-1.79268,0.321381,-2.26627
1480607552945077,-1.79655,0.321869,-2.26647
1480607552961120,-1.79805,0.321948,-2.26632
1480607552982678,-1.79618,0.322145,-2.26658
1480607552998724,-1.79338,0.321761,-2.2666
1480607553021782,-1.79229,0.321224,-2.26615
1480607553042336,-1.7924,0.320447,-2.26539
1480607553058880,-1.79195,0.319678,-2.26477
1480607553081441,-1.79065,0.319686,-2.26445
1480607553102497,-1.79002,0.319824,-2.26467
1480607553119042,-1.79067,0.320025,-2.26472
1480607553141601,-1.79155,0.319711,-2.26457
1480607553162658,-1.79161,0.319551,-2.26455
1480607553178699,-1.79113,0.319398,-2.26464
1480607553201763,-1.79056,0.319375,-2.26484
1480607553223819,-1.79056,0.319375,-2.26484
1480607553238860,-1.79056,0.319375,-2.26484
1480607553261419,-1.79084,0.319757,-2.26504
1480607553283980,-1.79066,0.319804,-2.26487
1480607553299020,-1.78933,0.319901,-2.26507
1480607553322081,-1.78843,0.319869,-2.26548
1480607553344641,-1.7878,0.319668,-2.26541
1480607553365198,-1.78788,0.319538,-2.26532
1480607553381239,-1.78846,0.319465,-2.26515
1480607553412321,-1.7889,0.319683,-2.26509
1480607553426358,-1.7889,0.319683,-2.26509
1480607553441398,-1.78908,0.319328,-2.26493
1480607553471478,-1.78908,0.319328,-2.26493
1480607553485515,-1.78908,0.319328,-2.26493
1480607553501558,-1.78862,0.3193,-2.2649
1480607553523617,-1.78862,0.3193,-2.2649
1480607553544673,-1.78885,0.318975,-2.26463
1480607553561217,-1.78888,0.318571,-2.2643
1480607553583777,-1.78835,0.31827,-2.26407
1480607553598317,-1.78787,0.318212,-2.26411
1480607553621376,-1.78806,0.318291,-2.26417
1480607553643937,-1.78952,0.317897,-2.26439
1480607553657974,-1.79057,0.31741,-2.26452
1480607553689058,-1.79038,0.317332,-2.26447
1480607553704098,-1.78956,0.317391,-2.26463
1480607553725153,-1.78903,0.317958,-2.26489
1480607553755233,-1.78903,0.317958,-2.26489
1480607553764257,-1.78991,0.317643,-2.26474
1480607553784812,-1.79031,0.317272,-2.26464
1480607553801356,-1.78943,0.317278,-2.26445
1480607553823916,-1.78884,0.31754,-2.26453
1480607553844972,-1.78881,0.31773,-2.26448
1480607553861515,-1.79009,0.317699,-2.26434
1480607553884077,-1.79117,0.317369,-2.26429
1480607553905133,-1.79122,0.317304,-2.26423
1480607553921175,-1.79062,0.31725,-2.2645
1480607553943734,-1.79027,0.317557,-2.26455
1480607553964792,-1.79027,0.317557,-2.26455
1480607553981341,-1.79085,0.317485,-2.26438
1480607554003895,-1.79085,0.317485,-2.26438
1480607554024950,-1.79085,0.317485,-2.26438
1480607554041496,-1.79064,0.317376,-2.26439
1480607554064055,-1.79064,0.317376,-2.26439
1480607554085111,-1.79104,0.317564,-2.26444
1480607554101154,-1.79169,0.317457,-2.26414
1480607554125218,-1.79161,0.316815,-2.26371
1480607554144770,-1.79093,0.317112,-2.26395
1480607554161313,-1.79065,0.317597,-2.26424
1480607554183874,-1.7911,0.317719,-2.26422
1480607554213954,-1.79213,0.31755,-2.2642
1480607554221473,-1.79195,0.317502,-2.26407
1480607554246039,-1.79091,0.317546,-2.26421
1480607554266594,-1.78991,0.317746,-2.26417
1480607554281635,-1.79043,0.317929,-2.26398
1480607554309708,-1.79115,0.318001,-2.26393
1480607554326252,-1.7912,0.317936,-2.26387
1480607554340792,-1.7912,0.317936,-2.26387
1480607554363855,-1.79118,0.317905,-2.26394
1480607554393933,-1.79059,0.317765,-2.26373
1480607554401454,-1.79059,0.317765,-2.26373
1480607554424012,-1.79059,0.317765,-2.26373
1480607554446573,-1.79039,0.317663,-2.26321
1480607554460610,-1.78999,0.317601,-2.26305
1480607554491191,-1.7896,0.317538,-2.2629
1480607554506231,-1.7904,0.317229,-2.26295
1480607554521271,-1.79096,0.317032,-2.2629
1480607554543831,-1.79096,0.317032,-2.2629
1480607554566893,-1.7904,0.317789,-2.2631
1480607554589452,-1.79018,0.318886,-2.2639
1480607554603992,-1.79143,0.319598,-2.26438
1480607554633070,-1.7938,0.31945,-2.26458
1480607554647608,-1.79444,0.319431,-2.26477
1480607554671170,-1.79307,0.320245,-2.26511
1480607554686210,-1.79101,0.320807,-2.26504
1480607554707265,-1.78957,0.320024,-2.26396
1480607554724311,-1.7884,0.319278,-2.26335
1480607554754391,-1.78655,0.318852,-2.26344
1480607554767429,-1.78545,0.318836,-2.26375
1480607554783970,-1.78547,0.318867,-2.26368
1480607554806531,-1.78548,0.318772,-2.26372
1480607554827585,-1.78593,0.318894,-2.26371
1480607554843628,-1.78648,0.319226,-2.26387
1480607554866189,-1.7865,0.319256,-2.2638
1480607554887244,-1.78648,0.319226,-2.26387
1480607554903789,-1.78588,0.319055,-2.26373
1480607554926349,-1.78499,0.319155,-2.26349
1480607554947407,-1.78499,0.319155,-2.26349
1480607554963951,-1.78499,0.319155,-2.26349
1480607554986510,-1.78568,0.319071,-2.26363
1480607555007564,-1.78568,0.319071,-2.26363
1480607555024109,-1.78568,0.319071,-2.26363
1480607555046167,-1.78568,0.319071,-2.26363
1480607555074743,-1.78523,0.318948,-2.26364
1480607555083768,-1.78528,0.318883,-2.26358
1480607555106346,-1.78523,0.318948,-2.26364
1480607555128888,-1.7859,0.319299,-2.26403
1480607555144429,-1.78656,0.31931,-2.26416
1480607555167491,-1.7871,0.319176,-2.26413
1480607555189048,-1.7871,0.319081,-2.26417
1480607555204088,-1.78627,0.319022,-2.26392
1480607555226146,-1.78627,0.319022,-2.26392
1480607555249208,-1.78673,0.319144,-2.26391
1480607555263245,-1.78673,0.319144,-2.26391
1480607555286306,-1.78673,0.319144,-2.26391
1480607555308867,-1.78742,0.318965,-2.26408
1480607555323404,-1.78742,0.318965,-2.26408
1480607555346969,-1.78808,0.318976,-2.26421
1480607555369027,-1.78842,0.319198,-2.26438
1480607555383064,-1.78842,0.319198,-2.26438
1480607555422676,-1.78841,0.319293,-2.26434
1480607555428692,-1.78841,0.319293,-2.26434
1480607555443230,-1.78913,0.319365,-2.26429
1480607555467797,-1.7902,0.319225,-2.26416
1480607555488851,-1.7902,0.319225,-2.26416
1480607555509907,-1.79003,0.319177,-2.26404
1480607555526451,-1.7897,0.319072,-2.26428
1480607555556532,-1.7897,0.319167,-2.26424
1480607555570069,-1.79037,0.318965,-2.26395
1480607555586611,-1.79038,0.31887,-2.26399
1480607555608670,-1.79003,0.319389,-2.26441
1480607555647276,-1.79003,0.319389,-2.26441
1480607555649279,-1.79086,0.319236,-2.26429
1480607555668831,-1.79123,0.319055,-2.26414
1480607555697408,-1.79082,0.318867,-2.26409
1480607555706431,-1.79018,0.318878,-2.26443
1480607555728991,-1.79019,0.319004,-2.26432
1480607555750047,-1.79091,0.319076,-2.26427
1480607555766593,-1.79091,0.319171,-2.26423
1480607555788650,-1.79072,0.319092,-2.26417
1480607555810206,-1.79072,0.319092,-2.26417
1480607555826751,-1.79072,0.318997,-2.26421
1480607555848810,-1.79077,0.318932,-2.26415
1480607555869865,-1.79072,0.318997,-2.26421
1480607555886409,-1.79078,0.31894,-2.26362
1480607555908969,-1.79012,0.318928,-2.26349
1480607555930025,-1.78983,0.318854,-2.26364
1480607555946569,-1.78983,0.318854,-2.26364
1480607555975145,-1.78985,0.318884,-2.26357
1480607555991188,-1.78985,0.318884,-2.26357
1480607556013750,-1.7898,0.318949,-2.26363
1480607556028788,-1.7906,0.31864,-2.26368
1480607556058868,-1.79083,0.31822,-2.26345
1480607556066392,-1.79081,0.31819,-2.26352
1480607556088948,-1.79007,0.318339,-2.26345
1480607556111508,-1.79024,0.318387,-2.26358
1480607556127050,-1.79083,0.318125,-2.26349
1480607556149111,-1.79159,0.318102,-2.26346
1480607556171167,-1.79157,0.318071,-2.26353
1480607556186208,-1.79138,0.318236,-2.26381
1480607556208767,-1.79234,0.319189,-2.26425
1480607556231328,-1.79274,0.318605,-2.26377
1480607556245866,-1.79222,0.318082,-2.26365
1480607556268927,-1.79178,0.318636,-2.26423
1480607556291988,-1.79234,0.318629,-2.2641
1480607556305525,-1.79279,0.31854,-2.2637
1480607556329087,-1.79277,0.318509,-2.26377
1480607556351146,-1.79255,0.318739,-2.26409
1480607556365686,-1.79262,0.318704,-2.26396
1480607556388746,-1.79325,0.31878,-2.26411
1480607556418826,-1.79378,0.318774,-2.26401
1480607556425845,-1.79378,0.318774,-2.26401
1480607556448908,-1.79316,0.318476,-2.26397
1480607556487509,-1.79245,0.318869,-2.26421
1480607556492522,-1.79264,0.319602,-2.26437
1480607556508565,-1.79319,0.319933,-2.26454
1480607556537642,-1.79429,0.321463,-2.26536
1480607556553685,-1.79578,0.322283,-2.26581
1480607556568725,-1.79771,0.323448,-2.26613
1480607556591285,-1.79885,0.324595,-2.26712
1480607556613846,-1.79675,0.325773,-2.26776
1480607556628885,-1.79359,0.327532,-2.2667
1480607556651445,-1.78964,0.327293,-2.26494
1480607556672501,-1.78688,0.326075,-2.26384
1480607556689045,-1.78571,0.326109,-2.26321
1480607556711605,-1.78774,0.326156,-2.26246
1480607556739679,-1.79022,0.325483,-2.26171
1480607556756725,-1.7912,0.325032,-2.26198
1480607556771263,-1.7898,0.324506,-2.2622
1480607556809364,-1.78794,0.323636,-2.26259
1480607556811871,-1.7871,0.323885,-2.26267
1480607556831424,-1.78733,0.32378,-2.26225
1480607556852982,-1.78778,0.323469,-2.26201
1480607556869024,-1.78825,0.323623,-2.26193
1480607556891583,-1.78783,0.323964,-2.2621
1480607556912639,-1.7872,0.323541,-2.26217
1480607556934699,-1.7872,0.323541,-2.26217
1480607556951243,-1.78769,0.323378,-2.26225
1480607556996864,-1.78769,0.323378,-2.26225
1480607556999371,-1.78771,0.323409,-2.26218
1480607557018922,-1.78771,0.323504,-2.26214
1480607557033963,-1.78766,0.323569,-2.2622
1480607557049006,-1.78771,0.323504,-2.26214
1480607557072064,-1.78771,0.323409,-2.26218
1480607557093621,-1.78771,0.323409,-2.26218
1480607557108661,-1.78679,0.323139,-2.26175
1480607557131221,-1.78665,0.323216,-2.26148
1480607557153781,-1.78685,0.323522,-2.26085
1480607557168321,-1.78716,0.323288,-2.26034
1480607557191381,-1.7877,0.322627,-2.26013
1480607557229483,-1.78818,0.322559,-2.26017
1480607557231990,-1.78787,0.321807,-2.25977
1480607557253045,-1.78681,0.32095,-2.2595
1480607557274102,-1.78659,0.321394,-2.26019
1480607557294656,-1.78745,0.321485,-2.26037
1480607557311701,-1.78894,0.321566,-2.26022
1480607557333760,-1.78929,0.321355,-2.26014
1480607557363840,-1.78874,0.321582,-2.26012
1480607557371360,-1.78686,0.321438,-2.26012
1480607557409963,-1.78588,0.321881,-2.26038
1480607557414977,-1.78588,0.321881,-2.26038
1480607557439040,-1.7855,0.321604,-2.25981
1480607557461098,-1.7848,0.321348,-2.25941
1480607557475136,-1.78469,0.321668,-2.25945
1480607557498703,-1.78472,0.320805,-2.25841
1480607557513739,-1.7831,0.319062,-2.25733
1480607557552843,-1.78169,0.319846,-2.25777
1480607557557355,-1.78154,0.319576,-2.25776
1480607557579915,-1.78207,0.31901,-2.25751
1480607557594954,-1.78207,0.31901,-2.25751
1480607557611499,-1.78136,0.319616,-2.25812
1480607557634058,-1.7808,0.319719,-2.25822
1480607557655114,-1.78169,0.318965,-2.25835
1480607557671157,-1.78233,0.318947,-2.25854
1480607557694721,-1.78194,0.318884,-2.25839
1480607557714774,-1.78121,0.318691,-2.25802
1480607557731318,-1.78121,0.318691,-2.25802
1480607557753878,-1.7814,0.318557,-2.2577
1480607557782455,-1.78161,0.318106,-2.25754
1480607557791478,-1.78161,0.318106,-2.25754
1480607557814038,-1.78084,0.317538,-2.25751
1480607557835595,-1.78073,0.317443,-2.25831
1480607557851137,-1.78154,0.317939,-2.25881
1480607557873697,-1.78231,0.317947,-2.2587
1480607557902273,-1.78233,0.317977,-2.25863
1480607557911296,-1.78233,0.317977,-2.25863
1480607557933857,-1.78233,0.317977,-2.25863
1480607557956417,-1.78233,0.317977,-2.25863
1480607557971456,-1.78233,0.317977,-2.25863
1480607558017078,-1.78233,0.317977,-2.25863
1480607558019584,-1.78233,0.317977,-2.25863
1480607558031115,-1.783,0.317769,-2.25888
1480607558053675,-1.78424,0.318799,-2.25916
1480607558076235,-1.78543,0.318252,-2.25851
1480607558098800,-1.78588,0.317596,-2.2585
1480607558113836,-1.78585,0.318118,-2.25924
1480607558143915,-1.78585,0.318118,-2.25924
1480607558150439,-1.78585,0.318118,-2.25924
1480607558174497,-1.78667,0.3184,-2.25937
1480607558196556,-1.78724,0.318424,-2.25917
1480607558210593,-1.78722,0.318393,-2.25924
1480607558233654,-1.78744,0.318968,-2.25941
1480607558256214,-1.78872,0.319153,-2.25965
1480607558286294,-1.78951,0.318727,-2.25928
1480607558293814,-1.78956,0.318662,-2.25922
1480607558332920,-1.78915,0.318812,-2.25948
1480607558337430,-1.78915,0.318812,-2.25948
1480607558353974,-1.78991,0.318695,-2.25948
1480607558376534,-1.79111,0.319041,-2.25977
1480607558390572,-1.79153,0.319355,-2.2597
1480607558413633,-1.79154,0.31926,-2.25974
1480607558436694,-1.79138,0.318643,-2.25997
1480607558464770,-1.79151,0.319876,-2.26045
1480607558473793,-1.79253,0.320458,-2.26049
1480607558496353,-1.79302,0.319429,-2.26008
1480607558518914,-1.79326,0.319994,-2.26076
1480607558533953,-1.79326,0.319994,-2.26076
1480607558556512,-1.79254,0.319604,-2.261
1480607558577568,-1.79196,0.319675,-2.26116
1480607558593612,-1.7919,0.319835,-2.26118
1480607558617676,-1.79201,0.320273,-2.26068
1480607558637228,-1.79272,0.320546,-2.26002
1480607558661292,-1.79255,0.321572,-2.25923
1480607558676332,-1.79087,0.323383,-2.25908
1480607558697388,-1.79103,0.325745,-2.2593
1480607558713932,-1.79381,0.327103,-2.25977
1480607558736492,-1.79622,0.32732,-2.2607
1480607558757548,-1.79463,0.328786,-2.26214
1480607558774092,-1.78776,0.330445,-2.26232
1480607558796152,-1.78269,0.330832,-2.26154
1480607558817206,-1.78199,0.329238,-2.26043
1480607558833750,-1.78199,0.327395,-2.26004
1480607558856310,-1.78117,0.326452,-2.26033
1480607558878871,-1.7804,0.32623,-2.26006
1480607558893911,-1.78097,0.326158,-2.25989
1480607558917473,-1.78201,0.327079,-2.2602
1480607558939030,-1.78201,0.327079,-2.2602
1480607558961089,-1.78149,0.326896,-2.26039
1480607558976129,-1.78149,0.326896,-2.26039
1480607558998690,-1.78036,0.326516,-2.25997
1480607559013730,-1.77847,0.326474,-2.25939
1480607559036289,-1.77759,0.32723,-2.25926
1480607559058849,-1.77844,0.328413,-2.25977
1480607559073388,-1.78016,0.328721,-2.26003
1480607559096450,-1.78167,0.328168,-2.26023
1480607559119010,-1.78174,0.327471,-2.26053
1480607559133047,-1.77972,0.3274,-2.26079
1480607559156108,-1.77828,0.327603,-2.26065
1480607559178668,-1.7791,0.327764,-2.26033
1480607559201228,-1.78106,0.32809,-2.26005
1480607559216268,-1.78256,0.327973,-2.26051
1480607559238828,-1.78254,0.327842,-2.26115
1480607559253366,-1.78161,0.328317,-2.26132
1480607559276428,-1.78046,0.328373,-2.26115
1480607559298988,-1.78079,0.328382,-2.26095
1480607559313027,-1.78213,0.32819,-2.26079
1480607559336086,-1.7831,0.327525,-2.26068
1480607559358646,-1.7831,0.327525,-2.26068
1480607559373185,-1.78231,0.327393,-2.2609
1480607559396248,-1.78184,0.328116,-2.26093
1480607559418806,-1.7822,0.328375,-2.26051
1480607559439863,-1.78348,0.327689,-2.26026
1480607559456408,-1.78394,0.327156,-2.26014
1480607559484983,-1.78311,0.327089,-2.26042
1480607559500023,-1.78214,0.327093,-2.26096
1480607559516567,-1.78211,0.327188,-2.26095
1480607559538625,-1.78298,0.326969,-2.26077
1480607559567202,-1.78368,0.32645,-2.26064
1480607559576226,-1.78368,0.32645,-2.26064
1480607559598786,-1.78311,0.326427,-2.26085
1480607559619841,-1.78311,0.326332,-2.26089
1480607559636385,-1.78316,0.326267,-2.26083
1480607559682007,-1.78311,0.326332,-2.26089
1480607559684514,-1.78311,0.326332,-2.26089
1480607559704567,-1.7834,0.326066,-2.26045
1480607559719608,-1.7834,0.326066,-2.26045
1480607559739660,-1.7834,0.326066,-2.26045
1480607559756204,-1.78323,0.325671,-2.26055
1480607559778764,-1.78325,0.325701,-2.26048
1480607559807340,-1.78325,0.325701,-2.26048
1480607559816866,-1.7843,0.325436,-2.26046
1480607559838924,-1.78444,0.325366,-2.2602
1480607559861485,-1.7844,0.324997,-2.26001
1480607559876525,-1.7844,0.324997,-2.26001
1480607559899085,-1.7844,0.324997,-2.26001
1480607559921143,-1.7844,0.324997,-2.26001
1480607559936183,-1.78514,0.324753,-2.26012
1480607559958744,-1.78626,0.324233,-2.26013
1480607559981304,-1.78667,0.323766,-2.26007
1480607559996344,-1.78632,0.323322,-2.26005
1480607560018903,-1.78632,0.323322,-2.26005
1480607560041464,-1.78717,0.323509,-2.26019
1480607560057005,-1.7879,0.323487,-2.26018
1480607560087085,-1.78845,0.323164,-2.26024
1480607560101624,-1.7885,0.323099,-2.26018
1480607560115662,-1.78784,0.322984,-2.26063
1480607560138722,-1.78742,0.323325,-2.2608
1480607560161284,-1.78789,0.323574,-2.26067
1480607560183842,-1.78895,0.323223,-2.26017
1480607560198883,-1.78988,0.322941,-2.25992
1480607560228962,-1.79025,0.32276,-2.25977
1480607560235480,-1.79025,0.32276,-2.25977
1480607560266565,-1.78971,0.323105,-2.26017
1480607560281603,-1.78956,0.323608,-2.26069
1480607560295640,-1.79031,0.323365,-2.26081
1480607560319202,-1.79085,0.32283,-2.26049
1480607560348781,-1.79086,0.322734,-2.26053
1480607560362317,-1.79086,0.322734,-2.26053
1480607560378864,-1.79089,0.322639,-2.26054
1480607560415458,-1.79041,0.322611,-2.26054
1480607560422477,-1.78966,0.322507,-2.26066
1480607560439021,-1.78966,0.322507,-2.26066
1480607560461080,-1.78984,0.322247,-2.26045
1480607560482136,-1.78984,0.322247,-2.26045
1480607560498680,-1.79054,0.323166,-2.26043
1480607560521240,-1.79145,0.322546,-2.25991
1480607560542297,-1.79169,0.321472,-2.25958
1480607560558840,-1.79098,0.322075,-2.26019
1480607560581400,-1.79053,0.322172,-2.26005
1480607560602456,-1.79018,0.321927,-2.25942
1480607560625016,-1.79063,0.322398,-2.25917
1480607560641560,-1.79131,0.32241,-2.25927
1480607560662114,-1.79172,0.321628,-2.2594
1480607560686178,-1.79172,0.321723,-2.25936
1480607560701218,-1.79189,0.321772,-2.25948
1480607560722274,-1.79028,0.320929,-2.25881
1480607560744835,-1.78901,0.320522,-2.25869
1480607560761379,-1.7895,0.321575,-2.25902
1480607560782438,-1.79108,0.324148,-2.25918
1480607560798978,-1.79474,0.325195,-2.2595
1480607560827554,-1.79929,0.326789,-2.25919
1480607560843598,-1.80203,0.327229,-2.26034
1480607560883203,-1.80172,0.328208,-2.26245
1480607560887216,-1.79758,0.331067,-2.26274
1480607560927821,-1.79196,0.331791,-2.2608
1480607560932333,-1.78817,0.330846,-2.2586
1480607560941859,-1.78369,0.328748,-2.25708
1480607560963917,-1.77816,0.327031,-2.25606
1480607560984974,-1.77607,0.328404,-2.25608
1480607561001517,-1.77907,0.328811,-2.25608
1480607561024078,-1.78339,0.327476,-2.25541
1480607561038115,-1.7826,0.32656,-2.25564
1480607561061176,-1.77845,0.326098,-2.25657
1480607561091758,-1.77524,0.325928,-2.25636
1480607561107800,-1.77528,0.325652,-2.25539
1480607561121837,-1.7779,0.324998,-2.25483
1480607561158936,-1.7796,0.32463,-2.25452
1480607561161442,-1.7796,0.32463,-2.25452
1480607561182504,-1.77871,0.324816,-2.25477
1480607561204057,-1.77857,0.324671,-2.25466
1480607561225112,-1.77954,0.323453,-2.25387
1480607561241155,-1.78096,0.322797,-2.25332
1480607561264216,-1.78142,0.321951,-2.2534
1480607561278254,-1.78089,0.32108,-2.25356
1480607561301315,-1.78047,0.32064,-2.25374
1480607561323875,-1.78049,0.32067,-2.25367
1480607561344930,-1.78147,0.32101,-2.25339
1480607561361475,-1.78292,0.32082,-2.253
1480607561391555,-1.78389,0.320814,-2.25299
1480607561405091,-1.78361,0.320423,-2.25333
1480607561421134,-1.78299,0.320677,-2.25397
1480607561443694,-1.78254,0.320772,-2.25383
1480607561472270,-1.78254,0.320772,-2.25383
1480607561481294,-1.78316,0.321846,-2.25439
1480607561503854,-1.78468,0.322395,-2.25439
1480607561525411,-1.78648,0.32224,-2.25426
1480607561547470,-1.78792,0.321822,-2.25455
1480607561564016,-1.78739,0.321416,-2.25489
1480607561585070,-1.78656,0.321558,-2.25554
1480607561615652,-1.78656,0.321558,-2.25554
1480607561623673,-1.78723,0.321698,-2.25555
1480607561645734,-1.78807,0.321981,-2.25566
1480607561661273,-1.78849,0.322296,-2.25559
1480607561683834,-1.78848,0.322171,-2.2557
1480607561705390,-1.78848,0.322171,-2.2557
1480607561721934,-1.78848,0.322171,-2.2557
1480607561743992,-1.78797,0.321551,-2.25563
1480607561766553,-1.78797,0.322324,-2.25615
1480607561781092,-1.78808,0.322099,-2.25607
1480607561803653,-1.7875,0.322176,-2.25571
1480607561826211,-1.78737,0.323681,-2.25607
1480607561841252,-1.7891,0.324119,-2.25621
1480607561863811,-1.79097,0.321382,-2.25503
1480607561886873,-1.78971,0.320878,-2.25495
1480607561900910,-1.78721,0.321667,-2.25562
1480607561923971,-1.7874,0.321746,-2.25568
1480607561946535,-1.78909,0.321698,-2.25521
1480607561967588,-1.79033,0.32195,-2.25551
1480607561983630,-1.79027,0.322007,-2.2561
1480607562006190,-1.79016,0.321798,-2.25595
1480607562029753,-1.79014,0.321767,-2.25602
1480607562043791,-1.78931,0.321926,-2.25562
1480607562074372,-1.78823,0.321596,-2.25556
1480607562080889,-1.78901,0.322379,-2.25598
1480607562103951,-1.79004,0.322222,-2.25542
1480607562126510,-1.79007,0.322126,-2.25543
1480607562140548,-1.78985,0.321691,-2.25617
1480607562163609,-1.78982,0.321882,-2.25612
1480607562186670,-1.78982,0.321882,-2.25612
1480607562207225,-1.78985,0.321691,-2.25617
1480607562223769,-1.78985,0.321691,-2.25617
1480607562246331,-1.78979,0.32219,-2.25648
1480607562267385,-1.78998,0.322365,-2.2565
1480607562283929,-1.79039,0.321804,-2.25648
1480607562314009,-1.79039,0.321804,-2.25648
1480607562327545,-1.79041,0.321835,-2.25641
1480607562343587,-1.79114,0.322438,-2.25655
1480607562366148,-1.7921,0.322094,-2.25628
1480607562387203,-1.79202,0.321695,-2.25618
1480607562403747,-1.79145,0.321998,-2.25718
1480607562426307,-1.79218,0.323057,-2.25805
1480607562447364,-1.79344,0.323539,-2.25767
1480607562463910,-1.79365,0.323342,-2.25732
1480607562485967,-1.79363,0.323311,-2.25739
1480607562509028,-1.79363,0.323311,-2.25739
1480607562524068,-1.79313,0.322913,-2.25716
1480607562546632,-1.79258,0.322579,-2.25699
1480607562568687,-1.7926,0.322705,-2.25688
1480607562591748,-1.79255,0.32277,-2.25694
1480607562606287,-1.79336,0.322494,-2.25693
1480607562634863,-1.7944,0.322328,-2.25691
1480607562643887,-1.7944,0.322328,-2.25691
1480607562673966,-1.79373,0.321998,-2.25697
1480607562687503,-1.79315,0.322067,-2.25714
1480607562703545,-1.79314,0.322162,-2.25709
1480607562726105,-1.79326,0.322064,-2.2569
1480607562749668,-1.79326,0.322064,-2.2569
1480607562763706,-1.79326,0.322064,-2.2569
1480607562786265,-1.79326,0.322064,-2.2569
1480607562809327,-1.79327,0.321969,-2.25695
1480607562824367,-1.79327,0.321969,-2.25695
1480607562846430,-1.79346,0.322143,-2.25696
1480607562868985,-1.79346,0.322048,-2.257
1480607562883023,-1.79346,0.322048,-2.257
1480607562913606,-1.79344,0.322017,-2.25707
1480607562928645,-1.7926,0.321829,-2.25693
1480607562943183,-1.79168,0.321675,-2.25692
1480607562966244,-1.79168,0.321675,-2.25692
1480607562988804,-1.79222,0.322103,-2.25704
1480607563003343,-1.79316,0.321634,-2.25688
1480607563026406,-1.79339,0.320994,-2.2568
1480607563049466,-1.79264,0.320888,-2.25691
1480607563063507,-1.79143,0.320879,-2.25692
1480607563086063,-1.79092,0.320915,-2.25696
1480607563108623,-1.79137,0.321039,-2.25694
1480607563123663,-1.79235,0.320938,-2.25698
1480607563146226,-1.79233,0.320908,-2.25705
1480607563168784,-1.79155,0.320993,-2.25711
1480607563189839,-1.79078,0.320983,-2.25722
1480607563206384,-1.79078,0.320983,-2.25722
1480607563228943,-1.79105,0.321154,-2.25703
1480607563249999,-1.79107,0.321185,-2.25696
1480607563282084,-1.79107,0.321185,-2.25696
1480607563289604,-1.7913,0.321073,-2.25707
1480607563326703,-1.79178,0.321125,-2.25756
1480607563329211,-1.79341,0.322866,-2.25865
1480607563356282,-1.7961,0.326012,-2.25919
1480607563369818,-1.80029,0.327787,-2.25904
1480607563386362,-1.80427,0.327732,-2.25892
1480607563414938,-1.80286,0.328919,-2.26064
1480607563430479,-1.79446,0.331677,-2.26226
1480607563447024,-1.78655,0.332083,-2.26128
1480607563468580,-1.78041,0.330499,-2.25887
1480607563489637,-1.77594,0.328523,-2.25783
1480607563506682,-1.77482,0.328577,-2.25763
1480607563528741,-1.77795,0.328905,-2.2579
1480607563549797,-1.78269,0.328844,-2.25761
1480607563566341,-1.78374,0.328366,-2.25722
1480607563589402,-1.78234,0.327624,-2.25706
1480607563609957,-1.77915,0.326602,-2.25732
1480607563626501,-1.77709,0.326284,-2.2573
1480607563648560,-1.77715,0.327004,-2.2567
1480607563684656,-1.77886,0.327169,-2.25604
1480607563701200,-1.78047,0.327371,-2.25554
1480607563708720,-1.78112,0.327574,-2.25559
1480607563746821,-1.78095,0.32743,-2.2555
1480607563749328,-1.77983,0.326606,-2.25535
1480607563768880,-1.77848,0.327235,-2.25524
1480607563791941,-1.77867,0.327315,-2.2553
1480607563805477,-1.78009,0.327211,-2.25543
1480607563836058,-1.78088,0.327465,-2.25563
1480607563851098,-1.7805,0.32783,-2.25623
1480607563872154,-1.77914,0.328335,-2.25622
1480607563888698,-1.77815,0.327787,-2.25559
1480607563912262,-1.77762,0.327578,-2.25531
1480607563925797,-1.77734,0.328065,-2.2556
1480607563971920,-1.77752,0.328114,-2.25573
1480607563974426,-1.77665,0.329214,-2.25533
1480607563985456,-1.77589,0.329331,-2.25533
1480607564023558,-1.77516,0.328818,-2.25568
1480607564032080,-1.77534,0.328772,-2.25585
1480607564045617,-1.77229,0.329096,-2.25495
1480607564070182,-1.76731,0.330287,-2.25303
1480607564091238,-1.76318,0.330689,-2.25188
1480607564113797,-1.7619,0.330596,-2.2516
1480607564128837,-1.76259,0.330419,-2.25178
1480607564166939,-1.76289,0.330178,-2.2518
1480607564172453,-1.76235,0.330625,-2.25163
1480607564188997,-1.76128,0.331518,-2.25128
1480607564211559,-1.76145,0.331568,-2.25141
1480607564232613,-1.76169,0.331269,-2.25107
1480607564248657,-1.76172,0.331173,-2.25108
1480607564271216,-1.76175,0.331109,-2.25105
1480607564301797,-1.76273,0.331443,-2.2513
1480607564310320,-1.76636,0.332177,-2.25175
1480607564338896,-1.77331,0.332645,-2.25198
1480607564352432,-1.78411,0.333442,-2.25268
1480607564368977,-1.79367,0.335279,-2.25345
1480607564391536,-1.79689,0.334245,-2.25348
1480607564412593,-1.79381,0.33445,-2.25365
1480607564436154,-1.78882,0.33544,-2.25432
1480607564451195,-1.78571,0.335938,-2.25441
1480607564479771,-1.78675,0.335337,-2.25413
1480607564488796,-1.78925,0.334357,-2.25356
1480607564525392,-1.79082,0.334062,-2.25352
1480607564533915,-1.79174,0.334005,-2.25316
1480607564579543,-1.79388,0.333517,-2.25307
1480607564581542,-1.79637,0.333507,-2.25298
1480607564593574,-1.798,0.333615,-2.25307
1480607564608614,-1.79844,0.333604,-2.2537
1480607564631174,-1.79835,0.333626,-2.2544
1480607564670278,-1.79835,0.333626,-2.2544
1480607564674789,-1.79807,0.333782,-2.25385
1480607564691334,-1.79747,0.334274,-2.25328
1480607564713894,-1.79718,0.335296,-2.25326
1480607564728934,-1.79635,0.335348,-2.25342
1480607564757509,-1.79297,0.335465,-2.25274
1480607564773552,-1.78659,0.335295,-2.25139
1480607564802128,-1.77752,0.336657,-2.25022
1480607564812658,-1.77132,0.336875,-2.2499
1480607564833712,-1.76993,0.336441,-2.25008
1480607564856774,-1.77189,0.336117,-2.2497
1480607564871313,-1.77311,0.334937,-2.24938
1480607564909915,-1.77226,0.333748,-2.24887
1480607564914929,-1.77033,0.333101,-2.24878
1480607564931473,-1.7701,0.332429,-2.24868
1480607564954033,-1.7703,0.331757,-2.24868
1480607564968572,-1.77006,0.332054,-2.24901
1480607564998652,-1.77025,0.332134,-2.24907
1480607565022214,-1.77116,0.331974,-2.24928
1480607565034747,-1.77238,0.331542,-2.24954
1480607565051291,-1.77215,0.330772,-2.25002
1480607565089894,-1.77127,0.330674,-2.2504
1480607565096420,-1.77109,0.33103,-2.25056
1480607565111451,-1.77142,0.331134,-2.25032
1480607565134011,-1.77164,0.330808,-2.25005
1480607565155067,-1.77164,0.330808,-2.25005
1480607565178631,-1.77158,0.330968,-2.25007
1480607565193670,-1.77251,0.330371,-2.25002
1480607565214726,-1.77373,0.329844,-2.25033
1480607565231270,-1.77406,0.329854,-2.25012
1480607565253329,-1.77346,0.329679,-2.24998
1480607565274886,-1.77255,0.329524,-2.24997
1480607565290929,-1.77249,0.329684,-2.24999
1480607565313994,-1.77351,0.329613,-2.24992
1480607565335046,-1.77477,0.329242,-2.25005
1480607565364625,-1.77539,0.329448,-2.25012
1480607565373649,-1.77448,0.329513,-2.24995
1480607565412758,-1.77354,0.328987,-2.24975
1480607565417266,-1.77354,0.328987,-2.24975
1480607565433809,-1.77434,0.329363,-2.25037
1480607565456369,-1.77538,0.329443,-2.25065
1480607565471409,-1.77588,0.329188,-2.25077
1480607565493468,-1.77541,0.329689,-2.25096
1480607565515025,-1.77435,0.330265,-2.25078
1480607565531068,-1.77419,0.329559,-2.25055
1480607565553628,-1.77483,0.328887,-2.25064
1480607565576689,-1.77565,0.328827,-2.25101
1480607565590726,-1.77523,0.328511,-2.25107
1480607565615292,-1.77458,0.328401,-2.25099
1480607565636849,-1.77455,0.328497,-2.25098
1480607565651387,-1.77493,0.328752,-2.25105
1480607565673948,-1.77493,0.328752,-2.25105
1480607565696508,-1.77493,0.328657,-2.25109
1480607565710545,-1.77493,0.328657,-2.25109
1480607565733607,-1.77402,0.328502,-2.25108
1480607565756167,-1.77338,0.328298,-2.25104
1480607565770705,-1.77355,0.328347,-2.25117
1480607565793766,-1.77426,0.328202,-2.25128
1480607565816327,-1.77481,0.328443,-2.25148
1480607565830866,-1.77476,0.328603,-2.2515
1480607565868966,-1.77409,0.328467,-2.25095
1480607565876487,-1.77347,0.327947,-2.25108
1480607565898547,-1.77367,0.328148,-2.25155
1480607565921105,-1.77425,0.328072,-2.25192
1480607565936145,-1.77408,0.328023,-2.25179
1480607565950689,-1.77408,0.328023,-2.25179
1480607565973746,-1.77425,0.328072,-2.25192
1480607565996307,-1.77408,0.328023,-2.25179
1480607566012348,-1.77408,0.328023,-2.25179
1480607566033907,-1.77473,0.328132,-2.25187
1480607566056465,-1.77473,0.328132,-2.25187
1480607566077521,-1.77404,0.328214,-2.25174
1480607566108604,-1.77421,0.328358,-2.25182
1480607566116125,-1.77434,0.328382,-2.25152
1480607566144701,-1.77434,0.328288,-2.25156
1480607566153724,-1.77399,0.327933,-2.25203
1480607566191826,-1.77456,0.328514,-2.2525
1480607566197341,-1.77456,0.328514,-2.2525
1480607566213885,-1.77347,0.3285,-2.25228
1480607566236444,-1.77347,0.3285,-2.25228
1480607566257500,-1.77431,0.328594,-2.25246
1480607566274045,-1.77474,0.328253,-2.25229
1480607566296105,-1.77416,0.328324,-2.25246
1480607566317159,-1.77375,0.328791,-2.25251
1480607566333703,-1.77389,0.328936,-2.25263
1480607566356263,-1.77486,0.328368,-2.25248
1480607566377820,-1.77541,0.328046,-2.25254
1480607566393863,-1.77464,0.328038,-2.25265
1480607566415921,-1.77339,0.328315,-2.25256
1480607566437479,-1.77339,0.328315,-2.25256
1480607566454022,-1.77412,0.328295,-2.25256
1480607566476081,-1.77429,0.328344,-2.25269
1480607566498642,-1.7743,0.328469,-2.25257
1480607566513681,-1.77356,0.327592,-2.25164
1480607566542258,-1.77235,0.327364,-2.25181
1480607566558802,-1.77262,0.328307,-2.25267
1480607566573842,-1.77403,0.3283,-2.25276
1480607566596402,-1.77448,0.328208,-2.25237
1480607566618962,-1.77448,0.328208,-2.25237
1480607566632999,-1.77391,0.328405,-2.25242
1480607566656061,-1.77391,0.328405,-2.25242
1480607566679124,-1.7746,0.328323,-2.25255
1480607566701180,-1.77494,0.328458,-2.25224
1480607566716222,-1.77492,0.328427,-2.25231
1480607566744801,-1.77484,0.328899,-2.25269
1480607566753319,-1.77484,0.328899,-2.25269
1480607566776381,-1.77484,0.328899,-2.25269
1480607566798941,-1.77486,0.328929,-2.25262
1480607566812980,-1.77487,0.328835,-2.25266
1480607566842556,-1.77484,0.328899,-2.25269
1480607566858599,-1.77442,0.328926,-2.25306
1480607566873138,-1.77437,0.328991,-2.25312
1480607566886674,-1.7746,0.328885,-2.2527
1480607566901714,-1.7746,0.328885,-2.2527
1480607566935303,-1.77461,0.32879,-2.25274
1480607566940819,-1.77461,0.32879,-2.25274
1480607566961876,-1.77461,0.32879,-2.25274
1480607566983934,-1.77419,0.328574,-2.25223
1480607567008498,-1.77367,0.328705,-2.25223
1480607567024541,-1.77364,0.328896,-2.25217
1480607567044093,-1.77429,0.329005,-2.25226
1480607567062142,-1.77486,0.328372,-2.25195
1480607567081693,-1.77484,0.328342,-2.25202
1480607567111773,-1.77375,0.328795,-2.25198
1480607567122301,-1.7733,0.328985,-2.2518
1480607567141853,-1.7736,0.327967,-2.2513
1480607567172935,-1.7736,0.327967,-2.2513
1480607567186472,-1.77362,0.327998,-2.25123
1480607567209032,-1.77314,0.327722,-2.2509
1480607567224071,-1.77224,0.327787,-2.25074
1480607567255655,-1.77243,0.327867,-2.2508
1480607567261677,-1.77299,0.327671,-2.25074
1480607567284232,-1.77366,0.32725,-2.25061
1480607567306792,-1.77336,0.32749,-2.25059
1480607567321832,-1.77239,0.327496,-2.2506
1480607567344391,-1.77239,0.327496,-2.2506
1480607567366952,-1.77297,0.327425,-2.25044
1480607567381490,-1.77285,0.32731,-2.25025
1480607567404050,-1.7725,0.32727,-2.25052
1480607567435634,-1.77252,0.327301,-2.25045
1480607567441651,-1.77327,0.327279,-2.25042
1480607567464211,-1.77309,0.32723,-2.25029
1480607567496800,-1.77309,0.32723,-2.25029
1480607567501811,-1.77356,0.32748,-2.25016
1480607567524370,-1.77354,0.327449,-2.25023
1480607567546931,-1.77247,0.327681,-2.25032
1480607567564477,-1.77247,0.327681,-2.25032
1480607567584029,-1.773,0.327676,-2.25021
1480607567606589,-1.77305,0.32761,-2.25015
1480607567625139,-1.77254,0.327646,-2.25019
1480607567644190,-1.77191,0.327566,-2.25004
1480607567666749,-1.77189,0.327536,-2.25011
1480607567681789,-1.77207,0.32771,-2.25012
1480607567704349,-1.7724,0.327819,-2.24935
1480607567726909,-1.77166,0.326406,-2.24876
1480607567741448,-1.77121,0.327274,-2.24968
1480607567767016,-1.77169,0.327335,-2.24963
1480607567786568,-1.77224,0.327018,-2.24916
1480607567803112,-1.77241,0.327068,-2.24929
1480607567824168,-1.77241,0.327068,-2.24929
1480607567846729,-1.77241,0.327068,-2.24929
1480607567863272,-1.77241,0.327068,-2.24929
1480607567884329,-1.77185,0.327263,-2.24934
1480607567907890,-1.77224,0.32811,-2.24948
1480607567921426,-1.77362,0.328421,-2.24941
1480607567953011,-1.77459,0.327854,-2.24926
1480607567966547,-1.77434,0.327929,-2.24975
1480607567990611,-1.77402,0.329164,-2.25065
1480607568004147,-1.77402,0.329164,-2.25065
1480607568026707,-1.77517,0.329899,-2.25027
1480607568043251,-1.77801,0.331106,-2.25067
1480607568071827,-1.78742,0.333722,-2.25216
1480607568086867,-1.80515,0.336911,-2.25411
1480607568104414,-1.82153,0.339547,-2.25458
1480607568132990,-1.82886,0.338608,-2.255
1480607568146529,-1.82379,0.340303,-2.2577
1480607568164574,-1.81558,0.34192,-2.26136
1480607568187135,-1.8126,0.342115,-2.2628
1480607568206686,-1.81358,0.340604,-2.26163
1480607568230750,-1.81451,0.339812,-2.26067
1480607568244289,-1.81416,0.340423,-2.26105
1480607568266846,-1.8124,0.341824,-2.26133
1480607568284393,-1.81056,0.342199,-2.26131
1480607568303944,-1.81054,0.342169,-2.26138
1480607568326504,-1.81138,0.340835,-2.26092
1480607568343048,-1.81156,0.340788,-2.26109
1480607568364105,-1.81093,0.341589,-2.2609
1480607568386664,-1.81031,0.341957,-2.26043
1480607568420254,-1.80822,0.342187,-2.2595
1480607568424264,-1.80425,0.342073,-2.25857
1480607568454344,-1.8005,0.342046,-2.2587
1480607568464372,-1.79901,0.341768,-2.25891
1480607568484424,-1.79836,0.343302,-2.25833
1480607568506484,-1.79405,0.346447,-2.25566
1480607568529047,-1.78425,0.345974,-2.25073
1480607568544083,-1.77631,0.342913,-2.24776
1480607568566645,-1.77309,0.342287,-2.24779
1480607568589203,-1.77565,0.342329,-2.24802
1480607568604243,-1.7782,0.341188,-2.24742
1480607568626803,-1.778,0.341108,-2.24736
1480607568649364,-1.77541,0.340025,-2.2479
1480607568671923,-1.773,0.338895,-2.24913
1480607568686462,-1.77092,0.338878,-2.25001
1480607568709523,-1.76979,0.338393,-2.25016
1480607568725566,-1.76946,0.33839,-2.2493
1480607568746622,-1.7694,0.338646,-2.24927
1480607568786227,-1.76787,0.338854,-2.24827
1480607568788734,-1.76555,0.335923,-2.24688
1480607568806782,-1.76581,0.335968,-2.24681
1480607568829343,-1.76793,0.336916,-2.2468
1480607568844383,-1.76931,0.337231,-2.24619
1480607568866445,-1.76945,0.337377,-2.24631
1480607568889001,-1.76985,0.336467,-2.24709
1480607568904041,-1.77114,0.335898,-2.24833
1480607568926601,-1.77223,0.335693,-2.24871
1480607568949164,-1.77297,0.335453,-2.24883
1480607568971721,-1.77321,0.335157,-2.24849
1480607568994281,-1.77319,0.335221,-2.24852
1480607569009321,-1.77322,0.336155,-2.24886
1480607569026366,-1.77258,0.335603,-2.24905
1480607569048435,-1.77211,0.336348,-2.25011
1480607569068981,-1.7715,0.33661,-2.25022
1480607569085525,-1.77135,0.336464,-2.2501
1480607569106579,-1.77049,0.336803,-2.2507
1480607569129140,-1.77035,0.338529,-2.252
1480607569145683,-1.77062,0.338041,-2.25171
1480607569166741,-1.77322,0.336727,-2.25162
1480607569189299,-1.77464,0.336504,-2.25131
1480607569206846,-1.77383,0.33678,-2.25132
1480607569226398,-1.77383,0.337434,-2.25195
1480607569248962,-1.77471,0.337679,-2.25249
1480607569265503,-1.77616,0.338039,-2.25331
1480607569286559,-1.77797,0.337564,-2.25335
1480607569309118,-1.77856,0.33674,-2.25313
1480607569325663,-1.77808,0.336365,-2.25336
1480607569346721,-1.77675,0.335895,-2.25341
1480607569376799,-1.77677,0.335925,-2.25334
1480607569387326,-1.77778,0.335954,-2.2527
1480607569406377,-1.77854,0.335497,-2.25241
1480607569428938,-1.77855,0.335401,-2.25246
1480607569446989,-1.77871,0.335792,-2.25288
1480607569474057,-1.7791,0.335541,-2.25323
1480607569489097,-1.78001,0.334812,-2.25383
1480607569507145,-1.77999,0.334877,-2.25386
1480607569526697,-1.77834,0.334212,-2.25366
1480607569549260,-1.77736,0.334971,-2.25373
1480607569567306,-1.77802,0.335637,-2.25449
1480607569586858,-1.78018,0.33651,-2.255
1480607569608916,-1.78072,0.334193,-2.25428
1480607569631978,-1.77918,0.333518,-2.25438
1480607569646518,-1.77747,0.334986,-2.25452
1480607569669076,-1.77676,0.335133,-2.25441
1480607569693140,-1.77703,0.335303,-2.25423
1480607569706676,-1.77812,0.334539,-2.25393
1480607569729237,-1.77871,0.333936,-2.25355
1480607569754804,-1.77799,0.333867,-2.25306
1480607569766836,-1.77651,0.333443,-2.25291
1480607569788895,-1.77647,0.333634,-2.25286
1480607569806943,-1.77643,0.333047,-2.25229
1480607569826494,-1.77666,0.332184,-2.25233
1480607569849057,-1.77666,0.332184,-2.25233
1480607569874623,-1.77591,0.331739,-2.25218
1480607569886655,-1.77503,0.332613,-2.25247
1480607569909215,-1.77505,0.332643,-2.2524
1480607569939796,-1.77618,0.33225,-2.2523
1480607569948322,-1.77642,0.332265,-2.25229
1480607569969375,-1.77575,0.33181,-2.25247
1480607569986921,-1.77456,0.330924,-2.2525
1480607570015502,-1.77447,0.331832,-2.25314
1480607570029043,-1.77546,0.332949,-2.2534
1480607570051594,-1.77597,0.332351,-2.25322
1480607570068138,-1.77597,0.332351,-2.25322
1480607570089194,-1.77525,0.331966,-2.25293
1480607570111754,-1.77525,0.331966,-2.25293
1480607570134315,-1.77519,0.332127,-2.25294
1480607570149354,-1.77519,0.332127,-2.25294
1480607570171413,-1.77519,0.332127,-2.25294
1480607570187956,-1.77519,0.332127,-2.25294
1480607570216533,-1.77519,0.332222,-2.2529
1480607570231573,-1.77564,0.332031,-2.25308
1480607570248119,-1.77633,0.331854,-2.25326
1480607570269173,-1.77613,0.33187,-2.25316
1480607570294742,-1.77553,0.331695,-2.25302
1480607570309780,-1.77514,0.331725,-2.25282
1480607570329334,-1.77496,0.331676,-2.25269
1480607570354399,-1.77491,0.331741,-2.25275
1480607570376960,-1.77491,0.331836,-2.25271
1480607570405535,-1.77505,0.331109,-2.25235
1480607570411552,-1.77503,0.331079,-2.25242
1480607570429600,-1.7747,0.331069,-2.25262
1480607570449152,-1.77379,0.331477,-2.25275
1480607570471711,-1.7733,0.331639,-2.25267
1480607570489759,-1.77374,0.331638,-2.25277
1480607570509311,-1.7745,0.331642,-2.2532
1480607570531873,-1.77484,0.331552,-2.25356
1480607570549422,-1.77484,0.331552,-2.25356
1480607570570475,-1.77424,0.331278,-2.25399
1480607570591530,-1.7745,0.33166,-2.25475
1480607570614092,-1.77561,0.332013,-2.25524
1480607570629131,-1.77611,0.332072,-2.25517
1480607570659210,-1.77559,0.33264,-2.25541
1480607570677258,-1.77413,0.3324,-2.25558
1480607570689290,-1.77377,0.333554,-2.25564
1480607570711850,-1.77304,0.334556,-2.25449
1480607570729900,-1.77131,0.332931,-2.25406
1480607570748950,-1.7714,0.333792,-2.2554
1480607570775018,-1.77302,0.333577,-2.25567
1480607570789557,-1.77498,0.333123,-2.25537
1480607570809110,-1.77448,0.33316,-2.25541
1480607570831671,-1.77365,0.332998,-2.25573
1480607570849717,-1.77425,0.33392,-2.25646
1480607570870774,-1.77506,0.33486,-2.2567
1480607570908874,-1.77561,0.333876,-2.25719
1480607570910880,-1.77682,0.333782,-2.25776
1480607570930433,-1.77647,0.333212,-2.25784
1480607570951489,-1.77511,0.334467,-2.25843
1480607570969536,-1.77502,0.334161,-2.2583
1480607570998113,-1.77577,0.33339,-2.25767
1480607571011648,-1.77525,0.333963,-2.25738
1480607571029696,-1.77472,0.33397,-2.25749
1480607571050752,-1.77525,0.333963,-2.25738
1480607571079328,-1.7752,0.334124,-2.2574
1480607571089354,-1.77429,0.333535,-2.25713
1480607571110411,-1.77434,0.33347,-2.25707
1480607571138986,-1.77429,0.333535,-2.25713
1480607571149515,-1.77434,0.33347,-2.25707
1480607571172075,-1.77573,0.333676,-2.25757
1480607571191627,-1.77664,0.335137,-2.25833
1480607571209675,-1.77652,0.335022,-2.25814
1480607571230731,-1.77639,0.334241,-2.25891
1480607571251787,-1.77738,0.335005,-2.25996
1480607571269333,-1.77808,0.334952,-2.26003
1480607571291894,-1.77789,0.334872,-2.25997
1480607571311448,-1.77693,0.335103,-2.25983
1480607571329493,-1.77689,0.335389,-2.25973
1480607571352054,-1.77747,0.335216,-2.26014
1480607571371605,-1.77766,0.334754,-2.26108
1480607571389654,-1.777,0.335733,-2.26243
1480607571412719,-1.77598,0.336655,-2.26305
1480607571431765,-1.78249,0.339031,-2.26418
1480607571454326,-1.79341,0.339218,-2.26407
1480607571471872,-1.80751,0.34,-2.26488
1480607571491424,-1.81772,0.341868,-2.26676
1480607571515488,-1.82,0.34222,-2.26856
1480607571532032,-1.81429,0.343827,-2.2708
1480607571553089,-1.80736,0.349334,-2.27241
1480607571574144,-1.7944,0.3528,-2.26915
1480607571592192,-1.78185,0.348931,-2.26531
1480607571611747,-1.77624,0.345634,-2.26425
1480607571641824,-1.77805,0.346894,-2.26587
1480607571651852,-1.78304,0.346635,-2.2657
1480607571672907,-1.78588,0.343263,-2.26422
1480607571693965,-1.78594,0.339851,-2.26301
1480607571712014,-1.78323,0.339441,-2.26178
1480607571731563,-1.77959,0.339521,-2.26228
1480607571754123,-1.77847,0.338937,-2.26353
1480607571772174,-1.78035,0.337755,-2.26386
1480607571791724,-1.78242,0.335911,-2.26312
1480607571814283,-1.78237,0.334984,-2.26224
1480607571831830,-1.7795,0.334419,-2.262
1480607571852886,-1.7766,0.334451,-2.26202
1480607571881463,-1.776,0.334936,-2.26198
1480607571891990,-1.77795,0.334944,-2.2619
1480607571913046,-1.77997,0.334667,-2.26188
1480607571934103,-1.78008,0.333999,-2.26207
1480607571952150,-1.77861,0.333948,-2.26268
1480607571979224,-1.77719,0.334274,-2.26296
1480607571994263,-1.77741,0.334166,-2.26254
1480607572012313,-1.77869,0.33348,-2.26176
1480607572032865,-1.77981,0.334176,-2.26202
1480607572053922,-1.77988,0.333699,-2.26216
1480607572071970,-1.77902,0.332727,-2.26256
1480607572093025,-1.77919,0.33387,-2.26305
1480607572123106,-1.77974,0.33355,-2.26258
1480607572132129,-1.78031,0.332819,-2.26231
1480607572153185,-1.78141,0.332171,-2.26243
1480607572174241,-1.78235,0.33191,-2.26264
1480607572192289,-1.7831,0.33157,-2.2628
1480607572214347,-1.78348,0.330857,-2.26243
1480607572234401,-1.78371,0.330751,-2.26201
1480607572251948,-1.78367,0.330942,-2.26196
1480607572280524,-1.78406,0.330348,-2.26201
1480607572294059,-1.78598,0.329422,-2.26212
1480607572312110,-1.78736,0.329815,-2.26254
1480607572339180,-1.78736,0.329815,-2.26254
1480607572354219,-1.78775,0.329663,-2.26232
1480607572372268,-1.78887,0.329703,-2.26248
1480607572394831,-1.78993,0.329335,-2.26304
1480607572413878,-1.7906,0.329464,-2.26359
1480607572431927,-1.7906,0.329464,-2.26359
1480607572454988,-1.7906,0.329464,-2.26359
1480607572475542,-1.79104,0.329145,-2.26388
1480607572492087,-1.79177,0.328774,-2.26411
1480607572514647,-1.79282,0.328943,-2.26435
1480607572534199,-1.79399,0.329012,-2.26441
1480607572559767,-1.79418,0.328878,-2.26409
1480607572574807,-1.79418,0.328878,-2.26409
1480607572594358,-1.79417,0.328974,-2.26405
1480607572616921,-1.79458,0.328507,-2.26399
1480607572634466,-1.79438,0.328428,-2.26393
1480607572654017,-1.79299,0.327806,-2.26418
1480607572672066,-1.79207,0.328303,-2.26481
1480607572694628,-1.79226,0.328382,-2.26487
1480607572714178,-1.79346,0.328607,-2.26475
1480607572732226,-1.79524,0.328192,-2.26484
1480607572754785,-1.79604,0.327353,-2.26468
1480607572775841,-1.79517,0.326916,-2.26475
1480607572796396,-1.7938,0.327076,-2.26497
1480607572814444,-1.79378,0.327171,-2.26497
1480607572843020,-1.79472,0.327574,-2.26476
1480607572852044,-1.79595,0.327483,-2.2648
1480607572879116,-1.79699,0.327747,-2.26501
1480607572895660,-1.79669,0.327893,-2.26503
1480607572912205,-1.79638,0.327914,-2.26516
1480607572934263,-1.79732,0.328403,-2.26545
1480607572955820,-1.79769,0.328223,-2.2653
1480607572971863,-1.79684,0.328028,-2.26568
1480607572994423,-1.7966,0.328873,-2.26671
1480607573015479,-1.79772,0.329344,-2.26713
1480607573036535,-1.79934,0.329632,-2.26714
1480607573054583,-1.79965,0.329399,-2.26663
1480607573075639,-1.79903,0.329006,-2.26663
1480607573096695,-1.79831,0.328838,-2.26671
1480607573114743,-1.79826,0.328999,-2.26673
1480607573137303,-1.79904,0.329123,-2.26705
1480607573156855,-1.7997,0.329229,-2.26714
1480607573174402,-1.79951,0.329054,-2.26712
1480607573196962,-1.79956,0.328989,-2.26706
1480607573216516,-1.79884,0.328918,-2.2671
1480607573234562,-1.79859,0.329212,-2.26744
1480607573257122,-1.79837,0.329228,-2.26737
1480607573276674,-1.79837,0.329228,-2.26737
1480607573294725,-1.79837,0.329228,-2.26737
1480607573317287,-1.79917,0.328822,-2.26747
1480607573336834,-1.79976,0.328963,-2.26769
1480607573362403,-1.79976,0.328963,-2.26769
1480607573376941,-1.7986,0.328365,-2.26741
1480607573396493,-1.79761,0.328683,-2.26778
1480607573414541,-1.7976,0.328779,-2.26774
1480607573437101,-1.79802,0.328437,-2.26757
1480607573456652,-1.79858,0.328768,-2.26774
1480607573474701,-1.79878,0.32876,-2.26731
1480607573497262,-1.79812,0.328317,-2.26692
1480607573516813,-1.79701,0.327992,-2.26688
1480607573534360,-1.79641,0.328689,-2.26722
1480607573556919,-1.79652,0.329775,-2.26736
1480607573579480,-1.79775,0.331003,-2.26709
1480607573594521,-1.80105,0.333278,-2.26805
1480607573621591,-1.80534,0.335429,-2.26856
1480607573636631,-1.81076,0.336319,-2.26853
1480607573654679,-1.81311,0.334956,-2.26851
1480607573684767,-1.80976,0.335004,-2.26881
1480607573696791,-1.80357,0.334975,-2.26948
1480607573714338,-1.8001,0.334601,-2.2698
1480607573736899,-1.7996,0.334109,-2.26961
1480607573757954,-1.80033,0.333747,-2.2693
1480607573796055,-1.80042,0.334051,-2.26944
1480607573798564,-1.79841,0.335111,-2.26946
1480607573834157,-1.79184,0.335451,-2.26979
1480607573839171,-1.78263,0.335335,-2.26886
1480607573856216,-1.77515,0.334843,-2.26712
1480607573878778,-1.77301,0.334898,-2.2649
1480607573899832,-1.77641,0.334482,-2.26401
1480607573916376,-1.78079,0.333298,-2.26413
1480607573944969,-1.78117,0.331922,-2.26418
1480607573961500,-1.77784,0.331329,-2.26446
1480607573976034,-1.77454,0.33293,-2.2649
1480607573997091,-1.77407,0.333344,-2.2646
1480607574013635,-1.77596,0.331948,-2.26398
1480607574036194,-1.77717,0.330882,-2.26411
1480607574060259,-1.7769,0.330714,-2.26429
1480607574073294,-1.77573,0.330522,-2.26435
1480607574103875,-1.77508,0.330417,-2.26427
1480607574118915,-1.77527,0.330496,-2.26433
1480607574132952,-1.77576,0.330332,-2.2644
1480607574157016,-1.77653,0.330021,-2.26449
1480607574179079,-1.77653,0.330021,-2.26449
1480607574199629,-1.77494,0.329612,-2.26458
1480607574216174,-1.77269,0.329441,-2.26489
1480607574238734,-1.7719,0.329532,-2.26552
1480607574259789,-1.77313,0.329778,-2.26582
1480607574283853,-1.77403,0.329803,-2.2654
1480607574298893,-1.77474,0.32931,-2.26521
1480607574337497,-1.77479,0.32915,-2.26519
1480607574343011,-1.77399,0.329334,-2.26578
1480607574358552,-1.77383,0.329499,-2.26657
1480607574373092,-1.77426,0.329618,-2.26712
1480607574396152,-1.77551,0.329642,-2.26754
1480607574418712,-1.77534,0.329498,-2.26745
1480607574433251,-1.77533,0.329593,-2.26741
1480607574456312,-1.77529,0.329659,-2.26747
1480607574478876,-1.77529,0.329659,-2.26747
1480607574499928,-1.77528,0.329754,-2.26743
1480607574516472,-1.77529,0.329659,-2.26747
1480607574538532,-1.77527,0.32963,-2.26754
1480607574559586,-1.77508,0.329551,-2.26748
1480607574576135,-1.77507,0.329646,-2.26744
1480607574598691,-1.77456,0.329466,-2.26763
1480607574619746,-1.77557,0.33004,-2.2682
1480607574636793,-1.77701,0.329516,-2.26853
1480607574658850,-1.77781,0.329669,-2.26878
1480607574679907,-1.7778,0.329764,-2.26873
1480607574709988,-1.77763,0.329374,-2.26831
1480607574718510,-1.77763,0.329374,-2.26831
1480607574740067,-1.77818,0.329705,-2.26847
1480607574756110,-1.77959,0.329592,-2.2686
1480607574779173,-1.78039,0.329749,-2.26831
1480607574799725,-1.78081,0.329625,-2.26799
1480607574816277,-1.78142,0.329455,-2.26783
1480607574838830,-1.78185,0.329546,-2.26788
1480607574859887,-1.78189,0.329601,-2.26828
1480607574876430,-1.78184,0.329762,-2.2683
1480607574898490,-1.78274,0.329784,-2.26842
1480607574920046,-1.784,0.329623,-2.26839
1480607574942104,-1.78512,0.329223,-2.26829
1480607574959151,-1.78571,0.329053,-2.26817
1480607574981210,-1.78644,0.328902,-2.26824
1480607574996248,-1.78715,0.328846,-2.26831
1480607575018808,-1.78716,0.32875,-2.26835
1480607575041369,-1.78716,0.32875,-2.26835
1480607575056408,-1.78716,0.32875,-2.26835
1480607575078970,-1.78716,0.32875,-2.26835
1480607575101027,-1.78841,0.329121,-2.26854
1480607575116573,-1.78969,0.329087,-2.26841
1480607575138628,-1.79029,0.329448,-2.26847
1480607575168708,-1.79094,0.329995,-2.26829
1480607575175726,-1.79396,0.330816,-2.26911
1480607575214329,-1.79869,0.33158,-2.26944
1480607575221347,-1.80249,0.331857,-2.26949
1480607575235385,-1.80225,0.332045,-2.2704
1480607575258948,-1.79836,0.332546,-2.27112
1480607575287022,-1.79428,0.333078,-2.27122
1480607575295545,-1.79197,0.332955,-2.27053
1480607575318606,-1.79065,0.331447,-2.26907
1480607575341166,-1.78948,0.330393,-2.26806
1480607575362222,-1.78778,0.330019,-2.2683
1480607575378767,-1.78685,0.330174,-2.26919
1480607575401327,-1.78686,0.3303,-2.26908
1480607575422382,-1.78768,0.330238,-2.26892
1480607575438927,-1.78768,0.330238,-2.26892
1480607575461486,-1.78716,0.329836,-2.26925
1480607575483546,-1.787,0.329781,-2.26963
1480607575498586,-1.78681,0.329703,-2.26957
1480607575521145,-1.78681,0.329703,-2.26957
1480607575542201,-1.78678,0.329798,-2.26956
1480607575558745,-1.78695,0.329942,-2.26964
1480607575581305,-1.78817,0.329751,-2.26972
1480607575601860,-1.78893,0.329313,-2.26992
1480607575618905,-1.78896,0.329218,-2.26993
1480607575640964,-1.78782,0.329397,-2.27019
1480607575662521,-1.7874,0.329741,-2.27036
1480607575678566,-1.78786,0.329862,-2.27035
1480607575701124,-1.78864,0.32977,-2.27028
1480607575722681,-1.78892,0.329402,-2.27041
1480607575738724,-1.78821,0.329458,-2.27035
1480607575767301,-1.78748,0.32927,-2.26997
1480607575782340,-1.78743,0.329335,-2.27003
1480607575798886,-1.78801,0.329261,-2.26987
1480607575821444,-1.78839,0.328762,-2.26987
1480607575841998,-1.78822,0.328713,-2.26975
1480607575858542,-1.78769,0.329378,-2.26996
1480607575881103,-1.78769,0.329378,-2.26996
1480607575902159,-1.78896,0.329122,-2.26997
1480607575918703,-1.79017,0.329122,-2.26996
1480607575941262,-1.79,0.329074,-2.26984
1480607575964324,-1.78903,0.329176,-2.27033
1480607575978865,-1.78903,0.329176,-2.27033
1480607576001423,-1.78987,0.329359,-2.27048
1480607576023483,-1.79094,0.329554,-2.27066
1480607576038522,-1.79191,0.32932,-2.27081
1480607576061085,-1.79246,0.328994,-2.27086
1480607576100187,-1.79246,0.328994,-2.27086
1480607576105701,-1.79187,0.329164,-2.27098
1480607576121241,-1.79123,0.329185,-2.27079
1480607576143801,-1.79169,0.329211,-2.27081
1480607576181903,-1.79242,0.329281,-2.27077
1480607576184410,-1.79293,0.329242,-2.27074
1480607576203460,-1.79293,0.329242,-2.27074
1480607576218500,-1.79293,0.329242,-2.27074
1480607576241060,-1.7929,0.329212,-2.27081
1480607576263621,-1.79273,0.329163,-2.27068
1480607576278162,-1.79273,0.329163,-2.27068
1480607576301220,-1.79293,0.329242,-2.27074
1480607576323780,-1.7937,0.329246,-2.27064
1480607576338319,-1.7943,0.32876,-2.27068
1480607576368900,-1.7943,0.32876,-2.27068
1480607576383940,-1.79358,0.328595,-2.27076
1480607576397978,-1.79358,0.328595,-2.27076
1480607576421039,-1.79416,0.328609,-2.27109
1480607576444102,-1.79415,0.328704,-2.27105
1480607576464655,-1.79398,0.328656,-2.27092
1480607576481199,-1.79398,0.328656,-2.27092
1480607576511283,-1.79396,0.328626,-2.27099
1480607576524815,-1.79396,0.32853,-2.27103
1480607576540858,-1.79378,0.328577,-2.27086
1480607576563919,-1.79378,0.328577,-2.27086
1480607576591993,-1.79427,0.328508,-2.2709
1480607576602021,-1.79452,0.328426,-2.27094
1480607576623578,-1.79452,0.328426,-2.27094
1480607576646138,-1.79342,0.328326,-2.27075
1480607576661179,-1.79309,0.328317,-2.27095
1480607576683738,-1.79309,0.328317,-2.27095
1480607576704794,-1.79371,0.327957,-2.27088
1480607576721338,-1.79451,0.327983,-2.27124
1480607576743901,-1.79526,0.328605,-2.27185
1480607576764954,-1.79528,0.328635,-2.27178
1480607576780997,-1.79509,0.328557,-2.27172
1480607576803557,-1.79439,0.328731,-2.27208
1480607576833637,-1.79439,0.328731,-2.27208
1480607576841157,-1.79439,0.328731,-2.27208
1480607576887279,-1.79495,0.328627,-2.27198
1480607576892292,-1.79539,0.328748,-2.27201
1480607576901316,-1.79537,0.328718,-2.27207
1480607576923881,-1.79537,0.328718,-2.27207
1480607576953957,-1.7953,0.329409,-2.27232
1480607576968997,-1.7953,0.329504,-2.27227
1480607576983535,-1.7953,0.329409,-2.27232
1480607577006096,-1.79513,0.32936,-2.27219
1480607577021135,-1.79477,0.32986,-2.27215
1480607577044201,-1.79462,0.330902,-2.27236
1480607577066256,-1.79457,0.331719,-2.27249
1480607577080795,-1.79543,0.332454,-2.27333
1480607577103856,-1.79637,0.332623,-2.27382
1480607577126416,-1.79557,0.33281,-2.27387
1480607577140453,-1.79471,0.332724,-2.27368
1480607577163514,-1.79469,0.332694,-2.27375
1480607577186074,-1.79451,0.332741,-2.27358
1480607577200613,-1.79351,0.332512,-2.27326
1480607577223674,-1.79256,0.332342,-2.27278
1480607577246235,-1.7922,0.332098,-2.27214
1480607577267290,-1.79228,0.331532,-2.27178
1480607577284837,-1.79302,0.331285,-2.2719
1480607577306394,-1.79265,0.331246,-2.27221
1480607577320433,-1.79187,0.331338,-2.27227
1480607577344998,-1.79187,0.331338,-2.27227
1480607577366053,-1.79187,0.331338,-2.27227
1480607577380592,-1.79185,0.331309,-2.27233
1480607577403654,-1.79216,0.330977,-2.27186
1480607577426214,-1.79214,0.330947,-2.27193
1480607577447269,-1.79214,0.330947,-2.27193
1480607577463813,-1.79211,0.331042,-2.27193
1480607577486373,-1.79266,0.331033,-2.27179
1480607577507429,-1.79319,0.331119,-2.27165
1480607577523973,-1.79363,0.331019,-2.27179
1480607577552549,-1.79343,0.331037,-2.27169
1480607577567087,-1.79343,0.331037,-2.27169
1480607577583632,-1.79343,0.331037,-2.27169
1480607577621733,-1.79375,0.331354,-2.27186
1480607577627250,-1.79477,0.331275,-2.2718
1480607577643792,-1.7952,0.331058,-2.27152
1480607577666352,-1.79518,0.331028,-2.27158
1480607577687408,-1.79518,0.331028,-2.27158
1480607577711474,-1.79516,0.330998,-2.27165
1480607577727013,-1.79499,0.330949,-2.27152
1480607577747568,-1.79553,0.331066,-2.27131
1480607577763611,-1.79615,0.331119,-2.27101
1480607577786672,-1.79602,0.331006,-2.27082
1480607577807227,-1.796,0.330976,-2.27089
1480607577823770,-1.796,0.330976,-2.27089
1480607577846331,-1.796,0.330976,-2.27089
1480607577869392,-1.796,0.330976,-2.27089
1480607577891451,-1.79581,0.330897,-2.27083
1480607577905989,-1.79581,0.330897,-2.27083
1480607577934565,-1.79581,0.330897,-2.27083
1480607577943590,-1.79581,0.330897,-2.27083
1480607577966149,-1.79579,0.330867,-2.2709
1480607577988709,-1.79561,0.330819,-2.27077
1480607578003750,-1.79561,0.330819,-2.27077
1480607578026812,-1.79528,0.33081,-2.27097
1480607578048870,-1.79528,0.33081,-2.27097
1480607578062908,-1.79509,0.330732,-2.27091
1480607578086470,-1.79514,0.330667,-2.27085
1480607578108528,-1.79514,0.330667,-2.27085
1480607578123067,-1.79511,0.330637,-2.27092
1480607578146128,-1.79511,0.330637,-2.27092
1480607578169691,-1.79494,0.330588,-2.27079
1480607578183227,-1.79442,0.330501,-2.27093
1480607578213808,-1.79369,0.330432,-2.27097
1480607578228848,-1.79375,0.330271,-2.27095
1480607578242886,-1.79373,0.330241,-2.27102
1480607578266448,-1.79373,0.330241,-2.27102
1480607578288507,-1.79373,0.330241,-2.27102
1480607578303046,-1.79355,0.330193,-2.27089
1480607578326107,-1.79355,0.330193,-2.27089
1480607578354683,-1.79355,0.330193,-2.27089
1480607578369723,-1.79355,0.329537,-2.27078
1480607578410337,-1.79403,0.329681,-2.27123
1480607578414843,-1.7942,0.329729,-2.27136
1480607578429884,-1.79366,0.329863,-2.27139
1480607578453947,-1.79365,0.329959,-2.27134
1480607578468486,-1.79437,0.330116,-2.27179
1480607578497062,-1.79498,0.329968,-2.27214
1480607578506086,-1.79527,0.329599,-2.27227
1480607578528646,-1.79501,0.32977,-2.27272
1480607578549702,-1.7948,0.330096,-2.27299
1480607578572263,-1.7952,0.329965,-2.27324
1480607578588806,-1.7957,0.3298,-2.27331
1480607578609862,-1.79569,0.329895,-2.27327
1480607578626406,-1.79479,0.329123,-2.27307
1480607578648465,-1.79476,0.329305,-2.27356
1480607578669521,-1.79554,0.330178,-2.27395
1480607578686065,-1.79587,0.329531,-2.27364
1480607578708625,-1.79587,0.329531,-2.27364
1480607578729681,-1.79568,0.329452,-2.27358
1480607578746225,-1.79572,0.329387,-2.27351
1480607578768785,-1.79568,0.329452,-2.27358
1480607578789841,-1.7957,0.329482,-2.27351
1480607578806887,-1.79631,0.329526,-2.27373
1480607578828945,-1.79686,0.329296,-2.27375
1480607578851004,-1.79669,0.329152,-2.27366
1480607578866044,-1.79605,0.328732,-2.27373
1480607578888604,-1.79606,0.329379,-2.27438
1480607578911164,-1.79667,0.329777,-2.27385
1480607578926204,-1.79611,0.328145,-2.27292
1480607578948764,-1.7958,0.328902,-2.27419
1480607578971324,-1.79602,0.329252,-2.27453
1480607578985361,-1.79638,0.328731,-2.27407
1480607579008924,-1.79638,0.328731,-2.27407
1480607579030982,-1.79619,0.328653,-2.27401
1480607579053542,-1.79619,0.328653,-2.27401
1480607579068583,-1.79619,0.328653,-2.27401
1480607579098662,-1.79617,0.328623,-2.27407
1480607579105682,-1.796,0.328575,-2.27395
1480607579129244,-1.796,0.328575,-2.27395
1480607579151805,-1.796,0.328575,-2.27395
