timestamp,x,y,z
1480519075161450,2.375,3,0.3125
1480519075185514,1.875,3.125,0.1875
1480519075199680,2.4375,2.9375,0.1875
1480519075221611,3.0625,2.5625,0.25
1480519075239659,4.4375,3.0625,0.375
1480519075259211,5.8125,4.375,0.375
1480519075281771,6.3125,5,0.875
1480519075299820,4.875,3.1875,2.6875
1480519075326896,1,1.4375,2.75
1480519075348949,2.4375,0.5625,1.1875
1480519075359477,7.125,-0.8125,-0.25
1480519075380535,6.75,-2.25,-0.9375
1480519075404598,4.1875,-2.375,-1.0625
1480519075419638,2.8125,-1.375,-0.4375
1480519075439189,2.4375,0.0625,0.75
1480519075461749,1.25,1.375,1.3125
1480519075479798,0.5625,1.5,2
1480519075502859,0.875,0.875,1.5625
1480519075521408,0,0,0.25
1480519075539456,-0.125,-0.6875,0
1480519075559008,1.125,-1.0625,-0.25
1480519075581568,0.8125,-1.125,-0.3125
1480519075607136,0.6875,-0.9375,-0.125
1480519075619168,0.8125,-0.5,-0.25
1480519075641728,1.5625,-0.5625,-0.5
1480519075660277,1.5625,-0.5625,-0.25
1480519075680832,1.8125,-0.5,0
1480519075701387,2.5625,-0.25,0
1480519075719937,2.4375,-0.25,0.25
1480519075740493,2.25,-0.5625,0.3125
1480519075761546,2.25,-0.75,0.375
1480519075779595,2.625,-0.5,0.6875
1480519075800651,2.75,-0.3125,0.5625
1480519075821706,2.1875,-0.0625,0.5625
1480519075839253,1.9375,0.125,0.5625
1480519075860810,2.3125,0.125,0.125
1480519075881866,2.0625,0,-0.1875
1480519075899414,1.625,-0.25,-0.1875
1480519075920469,1.125,-0.4375,-0.0625
1480519075941526,1.3125,-0.5625,0.125
1480519075959574,1.5,-0.5,-0.125
1480519075980630,1.5625,-0.25,0.125
1480519076001686,1.8125,-0.1875,0.5
1480519076019734,1.875,-0.1875,0.3125
1480519076049312,2.125,0.0625,0.375
1480519076068868,2.3125,0.1875,0.6875
1480519076079393,1.875,0.5,1.0625
1480519076106464,1.8125,0.5625,1.0625
1480519076129025,1.6875,0.625,1
1480519076139552,1.8125,0.5625,0.9375
1480519076162614,1.5,0.5625,0.5
1480519076181664,1.25,0.375,0.4375
1480519076199713,1.125,0.125,0.0625
1480519076222272,1,-0.0625,0.0625
1480519076241824,0.5,-0.25,0
1480519076259371,0.3125,-0.125,0.0625
1480519076281931,0.5625,0.0625,0.1875
1480519076301483,0.875,-0.0625,0.0625
1480519076319531,0.8125,-0.25,-0.0625
1480519076342091,0.5,-0.3125,-0.1875
1480519076361643,0.6875,-0.75,-0.375
1480519076379692,1.0625,-0.8125,-0.5
1480519076402251,1.0625,-0.8125,-0.6875
1480519076421802,1.125,-0.5625,-0.5625
1480519076440355,0.5,-0.3125,-0.5625
1480519076461910,0.625,0.0625,-0.375
1480519076481461,0.9375,0.1875,-0.4375
1480519076504021,1.4375,0,-0.5
1480519076522073,1.125,-0.3125,-0.625
1480519076557664,0.125,-0.75,-0.625
1480519076564182,-0.3125,-0.8125,-0.5625
1480519076582229,0,-0.75,-0.5
1480519076609301,0.3125,-0.4375,-0.4375
1480519076624341,0.4375,-0.3125,-0.375
1480519076641889,0.625,-0.125,-0.3125
1480519076662945,0.3125,-0.1875,-0.1875
1480519076684000,0.5625,0.1875,0.125
1480519076702048,0.0625,0.375,0.5625
1480519076723105,0.1875,0.5,0.5625
1480519076747169,0.0625,0.625,0.875
1480519076762209,0.125,0.625,1.0625
1480519076783266,0.125,0.75,1.1875
1480519076804320,0.1875,1,1.25
1480519076827884,0,0.875,1.25
1480519076850443,-0.75,0.5,1
1480519076863985,-0.8125,0.4375,1.0625
1480519076888043,-0.75,0.25,0.9375
1480519076903083,-0.375,0.1875,0.75
1480519076924139,-0.75,0.0625,0.5625
1480519076942187,-0.75,0.125,0.625
1480519076964751,-0.4375,0.125,0.5625
1480519076984299,0.1875,0,0.5
1480519077001846,0.125,0,0.4375
1480519077024406,0.1875,0.1875,0.375
1480519077043957,0.125,0.125,0.375
1480519077062006,0.3125,0.375,0.375
1480519077084566,0.125,0.375,0.375
1480519077105628,-0.3125,0.5,0.5
1480519077122674,-0.1875,0.25,0.3125
1480519077144732,-0.3125,0.0625,0.125
1480519077164284,-0.25,-0.25,0.1875
1480519077182332,-0.25,-0.1875,0.3125
1480519077204391,-0.3125,0,0.5625
1480519077223942,-0.125,-0.0625,0.75
1480519077241992,0.1875,-0.375,0.6875
1480519077274076,0.1875,-0.5,0.6875
1480519077301650,0.3125,-0.5,0.625
1480519077304156,0.5,-0.625,0.375
1480519077324711,0.4375,-0.4375,0.625
1480519077347271,0.375,-0.25,0.75
1480519077362812,0.3125,-0.0625,0.9375
1480519077384369,-0.25,-0.3125,1
1480519077403921,-0.6875,-0.0625,1.0625
1480519077421969,-0.625,0.375,1.4375
1480519077460573,-1.0625,0.5625,1.5
1480519077465586,-1.8125,0.3125,1.4375
1480519077482135,-2.3125,0.3125,1.25
1480519077505190,-2.25,0.25,1
1480519077525745,-1.75,0.3125,0.6875
1480519077547804,-1.375,0.3125,0.375
1480519077564348,-0.625,0.25,-0.1875
1480519077585404,-0.3125,0,-0.4375
1480519077601949,-0.0625,0,-0.4375
1480519077624508,-0.625,-0.5625,-0.5625
1480519077645564,-0.75,-0.75,-0.625
1480519077662109,-0.125,-0.5,-0.3125
1480519077684668,0.4375,0.3125,0.3125
1480519077705724,0.3125,0.75,0.5
1480519077722268,0,1.125,0.8125
1480519077744326,0.125,1.4375,0.6875
1480519077765884,0.3125,1,0.375
1480519077781927,0.25,0.5625,0.0625
1480519077804487,0.3125,0.3125,-0.1875
1480519077831559,0.125,0.25,-0.125
1480519077842087,0.125,0,-0.125
1480519077864648,0.4375,-0.0625,-0.125
1480519077885703,0.5,-0.1875,-0.375
1480519077902260,0.875,0.0625,-0.0625
1480519077924305,0.5625,0.375,0.1875
1480519077947368,0,0.4375,0.25
1480519077961906,-0.8125,0.5,0.5
1480519077984465,-0.4375,0.875,0.625
1480519078011537,-0.1875,1,0.5
1480519078026578,0.3125,0.9375,0.125
1480519078044626,0.5625,-0.0625,-2
1480519078067186,-2.6875,-2.0625,-4.0625
1480519078103783,-9.25,-4.8125,-10.875
1480519078106289,-24.5,-7.9375,-20.9375
1480519078126844,-27.875,-6.625,-19.75
1480519078146901,-3.375,1.5,-8.6875
1480519078163943,16.5,4,-7.6875
1480519078187505,8.75,-0.25,-9
1480519078214577,1.4375,-4.8125,-1.8125
1480519078223603,4,-8.25,-2.8125
1480519078246163,3.75,-8.0625,-5.625
1480519078267218,0.9375,-8.75,-5.625
1480519078283762,-1.75,-10.1875,-3.8125
1480519078306322,-2.125,-9.875,-1.75
1480519078328382,-2.125,-8.875,-0.8125
1480519078343922,-1.8125,-8.25,-0.5
1480519078366333,-0.875,-7.3125,0.4375
1480519078387036,1.25,-5.375,2.4375
1480519078404082,3,-5.875,2.25
1480519078426141,4.5625,-6.4375,3.25
1480519078447196,3.6875,-5.25,4.5625
1480519078463741,3.9375,-4.6875,7.375
1480519078492316,6.0625,-4.3125,10.375
1480519078507356,7.1875,-4.4375,11.0625
1480519078523901,7.125,-7.1875,12.1875
1480519078546461,4.8125,-10,11.6875
1480519078567529,3.8125,-12.5625,11.125
1480519078584060,4.8125,-13.9375,8.375
1480519078606120,2.8125,-14.3125,5.5625
1480519078627175,2.625,-13.5,3
1480519078643719,2.5,-9.75,0.9375
1480519078666279,4.125,-4.375,-0.375
1480519078687335,5.4375,1.3125,-1.9375
1480519078703879,3.6875,4,0
1480519078726439,-0.0625,3.8125,2.9375
1480519078747496,-1,3.0625,5.4375
1480519078771058,1.375,1.75,2.5
1480519078793619,2.25,0.5625,2.5
1480519078807154,2,0.9375,3.4375
1480519078829714,-0.5,1.1875,3.9375
1480519078846760,-2.3125,2.3125,3.5
1480519078868818,-4.75,3.1875,4.625
1480519078883858,-7.9375,4.6875,4.3125
1480519078906418,-11.6875,5.8125,2.8125
1480519078935997,-13.25,6.4375,1
1480519078943516,-13.6875,6,-1.4375
1480519078966077,-15.25,6.25,-2.5625
1480519078988636,-14.5,5.75,-4.5625
1480519079003176,-13.8125,4.25,-7.4375
1480519079026237,-12.9375,3.875,-10.4375
1480519079048798,-12.1875,5.25,-12.25
1480519079063335,-10.9375,5.875,-11.9375
1480519079086397,-8.375,5.3125,-11.9375
1480519079108455,-6,5,-10.125
1480519079122994,-4.1875,4.1875,-8.0625
1480519079146058,-2.5,2.375,-5.375
1480519079168617,-1.5,2.3125,-3.125
1480519079183155,-2,3.125,0.1875
1480519079213735,-0.4375,3.6875,3.8125
1480519079228776,1.125,1.75,7.5625
1480519079242813,3.8125,-1.3125,6.5
1480519079266375,5.3125,-3,4.3125
1480519079288434,6.625,-2.75,2.0625
1480519079302973,6.375,-2.6875,1.25
1480519079326046,5.6875,-2.875,-0.25
1480519079348595,3.3125,-3.3125,-0.875
1480519079371155,1.4375,-2.375,-0.6875
1480519079386194,-0.0625,-0.5625,-0.1875
1480519079408754,-1.9375,1.8125,-0.8125
1480519079429812,0.25,3.4375,-0.5625
1480519079446856,0.1875,3.6875,0.875
1480519079468914,-0.5625,3.6875,0.375
1480519079489971,0.8125,3.5,-0.4375
1480519079506013,0.625,3.5625,-1.3125
1480519079528574,0.3125,4,-1.875
1480519079549629,-0.6875,3.3125,-2.1875
1480519079566554,-0.4375,2.25,-2.125
1480519079588733,-1.5625,1.6875,-2
1480519079609789,-1.6875,1.25,-1.375
1480519079626334,-1.9375,0.75,-1.1875
1480519079648893,-2.9375,0.75,-0.875
1480519079669949,-3.3125,0.5625,-0.75
1480519079685991,-2.75,0.625,-1
1480519079708552,-2.3125,0.4375,-1.5625
1480519079729610,-2,0.125,-2.125
1480519079746154,-2.9375,0.3125,-1.1875
1480519079768712,-3.125,1.5,-0.0625
1480519079789767,-3.875,2.125,1.8125
1480519079806312,-3.3125,1.125,0.5
1480519079828872,-2.8125,1.0625,0
1480519079851431,-1.5625,-0.3125,-0.5
1480519079866197,-1.8125,-1.0625,-1.875
1480519079888531,-1.8125,-0.0625,-2.1875
1480519079911091,-1.8125,0.3125,-1.6875
1480519079925629,-2.125,0.9375,-1.3125
1480519079948690,-2.8125,1.5625,-0.5625
1480519079971752,-2.75,3.5625,-1.4375
1480519079985789,-4.125,5.125,-1.875
1480519080008850,-3.8125,5.1875,-2
1480519080031410,-3.8125,3.125,-2.5625
1480519080045448,-1.9375,1.5,-2.25
1480519080068510,-0.375,0.1875,-1.4375
1480519080091069,0.375,-0.4375,-1
1480519080113630,1.125,-0.5,-0.25
1480519080128670,1.25,-0.4375,1.0625
1480519080150728,0.75,-0.5,2.4375
1480519080165769,0.6875,-0.3125,2.5625
1480519080188829,0.6875,-0.3125,2.25
1480519080211389,0.3125,0.3125,1.5625
1480519080225426,-0.5625,0.9375,0.75
1480519080248989,-0.6875,1.5,-0.125
1480519080271048,-1.9375,0.9375,-0.6875
1480519080293106,-1.8125,0.5625,-1.0625
1480519080308648,-1.1875,0.25,-0.6875
1480519080331208,-0.8125,0.4375,0.25
1480519080352264,-0.5625,0.6875,1.3125
1480519080368808,-0.25,1,2.0625
1480519080390867,0.0625,1.3125,2.4375
1480519080412424,0.0625,1.5,2.5625
1480519080434983,-0.8125,1.625,1.8125
1480519080458546,0.0625,2.0625,2.625
1480519080473085,0.75,2.5,2.6875
1480519080488627,0.125,1.125,1.0625
1480519080517202,1.3125,1.75,0.9375
1480519080532242,1.5,1.75,0.5
1480519080548786,2.125,2.0625,0.25
1480519080571347,2.25,2.375,0.625
1480519080592402,2.1875,2.5625,0.5625
1480519080608946,2.8125,1.9375,0.375
1480519080631007,2.125,1.625,-0.1875
1480519080652061,1,2.0625,0.3125
1480519080676125,1.3125,1.6875,0
1480519080691165,-0.1875,1.5,0.5
1480519080712221,-0.1875,0.8125,0.25
1480519080728766,-1.25,0.4375,0.4375
1480519080751326,-1.8125,0.0625,0.25
1480519080773885,-2.0625,0.125,0.375
1480519080788424,-1.375,0.8125,0.1875
1480519080810984,-1.375,0.75,-0.0625
1480519080841064,-1.3125,0.6875,-0.1875
1480519080848585,-1.375,0.25,-0.0625
1480519080878664,-1.8125,-0.5625,0.3125
1480519080893704,-1.375,-0.9375,0.875
1480519080908242,-1.5,-1.0625,1.875
1480519080931304,-1.0625,-1,2.4375
1480519080953864,-0.4375,-1.8125,0.6875
1480519080967901,0.1875,-1.3125,0.75
1480519080990962,0.375,-1.4375,1.0625
1480519081013522,0.3125,-1.25,0.4375
1480519081028062,0.9375,-0.625,0.375
1480519081058643,0.6875,-0.5,-0.1875
1480519081073684,0.9375,-0.25,-0.5625
1480519081088222,0.8125,-0.375,-0.8125
1480519081111283,-0.25,0.0625,-0.625
1480519081133845,0.0625,0.5,-0.1875
1480519081156404,-0.25,0.0625,-0.1875
1480519081170942,-0.3125,-0.1875,-0.0625
1480519081193502,-0.875,0,0.4375
1480519081208040,-0.5625,-0.5,0.625
1480519081231103,-0.625,-0.6875,1.0625
1480519081253661,-0.375,-0.4375,1.0625
1480519081274718,-0.375,0.375,0.25
1480519081291261,-0.375,0.25,-0.375
1480519081313822,-0.375,-0.125,-0.75
1480519081335379,-0.5,-0.3125,-0.875
1480519081351428,-0.8125,-0.5625,-0.625
1480519081379997,-1.1875,-0.8125,-0.625
1480519081394537,-0.4375,-0.8125,-0.25
1480519081411080,-0.1875,-0.5,-0.0625
1480519081434142,-0.5,-0.25,-0.125
1480519081456200,-0.375,-0.3125,-0.3125
1480519081471240,-0.1875,-1,-0.5625
1480519081493800,-0.1875,-1.75,-1
1480519081514857,-0.0625,-1.75,-0.8125
1480519081531404,0.25,-1,-0.5625
1480519081553459,1.3125,-1.25,-0.0625
1480519081575016,1.9375,-1.9375,-1.1875
1480519081591059,1.75,-1.5625,-0.4375
1480519081621141,-0.375,-2.6875,0.8125
1480519081634676,0.5625,-3.875,3.6875
1480519081657235,-0.125,-2.625,4.875
1480519081679795,2.5,-2,4.9375
1480519081694835,2.625,-1.5,4.1875
1480519081711379,3.1875,-1,0.1875
1480519081740957,1.9375,0,-0.6875
1480519081755999,2.1875,2.1875,-0.9375
1480519081771038,0.875,1.875,-1.25
1480519081793598,1.0625,2.25,-1.8125
1480519081816159,0,2,-1.3125
1480519081830697,-1.6875,1.4375,0.5625
1480519081853757,-1.9375,0.875,0.3125
1480519081876317,-1.125,1.1875,-0.4375
1480519081890355,-2.6875,1.4375,0.875
1480519081913918,-1.0625,1.25,-0.0625
1480519081935977,-0.75,1.4375,-0.625
1480519081950515,-0.375,1.4375,-1
1480519081973578,-1.125,1.6875,-0.1875
1480519081996137,-0.25,1.25,0.0625
1480519082010675,-1.1875,0.125,1.125
1480519082033740,-2.75,0.5,2.0625
1480519082056296,-1.8125,1.3125,1.4375
1480519082070335,-0.6875,0.75,0.875
1480519082099912,-2.625,-0.0625,1.875
1480519082115955,-1.375,-0.8125,3.0625
1480519082130495,0.625,-0.8125,1.0625
1480519082153555,0.625,-2.125,-0.75
1480519082176116,0.3125,-1.6875,-0.5625
1480519082197178,0.5625,-0.8125,-1.1875
1480519082213719,0.75,-0.4375,-1.625
1480519082236275,-0.5625,-0.375,-1.75
1480519082257332,-0.6875,-0.375,-1.875
1480519082273875,-0.6875,-0.625,-1.9375
1480519082297941,-1.125,-0.75,-0.75
1480519082316990,-1.0625,-0.4375,-0.375
1480519082340552,-0.625,-0.5,-0.5625
1480519082356094,-0.4375,-0.625,-0.625
1480519082378654,-0.25,-0.4375,-0.25
1480519082393694,-0.1875,-0.1875,0.1875
1480519082416255,0.25,-0.1875,0.125
1480519082444831,0.3125,-0.4375,-0.125
1480519082453854,0.6875,-0.25,-0.5
1480519082475912,0.75,-0.0625,-0.75
1480519082497470,0.5625,-0.5,-1.5625
1480519082513513,0.25,-0.75,-2.125
1480519082542089,0.1875,-0.75,-2.4375
1480519082557129,-0.3125,-0.25,-2
1480519082573674,-0.5,0.25,-0.6875
1480519082596233,-0.625,0.0625,-1.3125
1480519082624808,-0.4375,0.4375,-1.25
1480519082633833,-0.375,0.5,-0.6875
1480519082656392,0.625,0.625,-0.8125
1480519082678953,0.75,0.5625,-0.6875
1480519082693492,1.125,0.5625,-0.5625
1480519082716053,0.625,0.625,-0.3125
1480519082738612,0.75,0.3125,-0.0625
1480519082753665,0.9375,0.125,-0.3125
1480519082776211,1,-0.25,-0.3125
1480519082798772,0.4375,-0.375,-0.125
1480519082813311,-0.375,-0.1875,0.375
1480519082836372,-0.0625,-0.25,0.125
1480519082858931,0.0625,-0.625,-0.3125
1480519082872969,0.125,-0.75,-0.5
1480519082896030,0.4375,-0.5,-1.25
1480519082918590,0.0625,-0.125,-1.5625
1480519082939647,0.4375,-0.3125,-1.8125
1480519082956190,0,-0.4375,-1.5
1480519082978750,0,-0.5625,-1.125
1480519082992787,0.625,-0.75,-0.5625
1480519083016351,0.25,-0.8125,-0.375
1480519083038910,0.1875,-1.125,-0.3125
1480519083052947,0.5,-0.8125,-0.4375
1480519083076010,0.1875,-0.5,-0.375
1480519083099071,-0.125,-0.4375,-0.1875
1480519083113108,-0.1875,-0.375,-0.25
1480519083136169,0.0625,-0.1875,-0.25
1480519083158730,-0.0625,-0.125,-0.1875
1480519083179785,-0.3125,0,-0.25
1480519083196330,-0.875,-0.4375,-0.1875
1480519083218889,-1,-0.875,-0.25
1480519083239944,-0.0625,-0.875,-0.1875
1480519083263509,-0.5625,-1.1875,-0.125
1480519083286067,-0.5,-0.6875,-0.375
1480519083299604,0.4375,-0.3125,-0.875
1480519083316148,0,-0.5,-1.5
1480519083338707,0.125,-0.375,-1.6875
1480519083359763,0.625,0,-1.75
1480519083376308,0.1875,-0.1875,-1.5
1480519083398868,0.125,0.0625,-1
1480519083419923,0.1875,0.3125,-0.4375
1480519083443487,-0.25,0.625,0.0625
1480519083458527,-0.4375,0.8125,0.3125
1480519083479582,-0.6875,0.875,0.375
1480519083503646,-1,0.875,0.375
1480519083518686,-1.1875,0.625,0.375
1480519083539742,-0.9375,0.4375,0.375
1480519083556286,-1.0625,0.1875,0.625
1480519083578847,-0.8125,0.0625,0.6875
1480519083601407,-0.9375,-0.0625,0.75
1480519083623465,-0.9375,-0.375,0.8125
1480519083638505,-0.8125,-0.4375,1.125
1480519083668585,-0.8125,-0.5,0.875
1480519083676105,-0.5625,-0.4375,0.5625
1480519083704681,-0.1875,-0.5,0.5
1480519083721225,-0.3125,-0.3125,0.5625
1480519083742281,-0.0625,-0.4375,0.5
1480519083758830,0.0625,-0.4375,0.6875
1480519083781388,0.3125,-0.375,0.8125
1480519083795423,0.0625,-0.1875,0.6875
1480519083818484,0.5625,-0.3125,0.4375
1480519083841044,-0.0625,-0.125,0.4375
1480519083855585,-0.0625,0.4375,0.5
1480519083879146,-0.0625,0.25,0.375
1480519083901206,-0.4375,0.1875,0.25
1480519083915743,-0.0625,0.1875,0.25
1480519083938804,-0.3125,0.0625,0.4375
1480519083961365,-0.375,-0.125,0.6875
1480519083975403,-0.4375,-0.25,0.625
1480519084004478,-0.5,0.0625,0.625
1480519084021023,-0.5,0,0.5625
1480519084035561,-0.375,-0.125,0.3125
1480519084066144,-0.375,-0.25,0.25
1480519084081184,-0.625,-0.0625,0
1480519084102238,-0.3125,0,0.0625
1480519084118782,-0.5625,0.0625,0.0625
1480519084141343,-0.8125,-0.0625,-0.125
1480519084162906,-0.5,-0.25,-0.3125
1480519084178441,-0.3125,-0.375,-0.375
1480519084208521,0.0625,-0.0625,-0.5625
1480519084222057,-0.5,0.125,-0.5625
1480519084238601,-0.5625,0.8125,-0.3125
1480519084261163,-0.4375,0.1875,-0.375
1480519084283722,-0.5,-0.3125,-0.375
1480519084298762,-0.375,-0.25,-0.3125
1480519084321321,-0.25,-0.4375,-0.125
1480519084342377,-0.4375,-0.75,0
1480519084359423,-0.8125,-1.0625,0.25
1480519084380982,-1.75,-0.8125,1.125
1480519084402073,-1.8125,-0.5625,2.5
1480519084418581,-1.25,-0.5,2.6875
1480519084441141,-0.75,-0.9375,3
1480519084462196,0.625,-1.3125,1.25
1480519084484756,0.5,-0.9375,0.625
1480519084501300,0.125,0.125,0.625
1480519084523860,-0.1875,0.375,0.125
1480519084538899,-0.25,0.375,-0.25
1480519084560959,-0.6875,0.5,-0.25
1480519084583519,-0.375,0.5625,0
1480519084598559,-0.375,0.5625,0.125
1480519084621120,-0.5625,0.5625,0.375
1480519084643679,-0.25,0.375,0.625
1480519084658719,-0.0625,-0.0625,0.5625
1480519084681781,-0.4375,-0.25,0.6875
1480519084704841,-0.1875,-0.125,0.75
1480519084717877,0.0625,-0.3125,1
1480519084740937,0.0625,-0.5,0.8125
1480519084771018,0.1875,-0.375,0.5625
1480519084778037,0.375,-0.4375,0.75
1480519084801098,0.0625,-0.5625,0.6875
1480519084823657,-0.125,-0.4375,0.1875
1480519084844714,-0.5625,-0.3125,0.0625
1480519084861258,0.1875,0.3125,0
1480519084883818,-0.6875,0.5625,-0.1875
1480519084897855,-0.4375,0.6875,-0.6875
1480519084928938,-0.3125,0.75,-0.6875
1480519084943476,-0.6875,0.4375,-0.6875
1480519084958015,-0.6875,0.25,-0.5
1480519084981079,-0.4375,0.25,-0.25
1480519085003637,-0.125,0.125,-0.25
1480519085018175,-0.1875,-0.3125,-0.3125
1480519085041738,-0.6875,-0.5625,-0.125
1480519085063796,-0.4375,-0.625,-0.0625
1480519085084852,-0.1875,-0.75,-0.0625
1480519085101396,-0.4375,-0.625,0.0625
1480519085123455,-0.3125,-0.25,-0.25
1480519085144512,-0.125,-0.25,-0.6875
1480519085161557,0.0625,-0.1875,-1.1875
1480519085183615,-0.3125,0.3125,-0.8125
1480519085204671,-0.25,0.5625,-0.6875
1480519085227231,-0.375,0.3125,-0.4375
1480519085243775,-0.1875,0.0625,-0.3125
1480519085264833,0,0.5,-0.625
1480519085281375,0.3125,0.75,-1.3125
1480519085303935,0.1875,0.5625,-1.5
1480519085332010,0.375,0.9375,-1.5
1480519085342036,-0.0625,1.0625,0.0625
1480519085363595,0.0625,0.5,-0.625
1480519085392169,0.1875,-0.1875,-0.1875
1480519085401194,0.125,-0.1875,0.75
1480519085429770,0.25,-0.6875,0.4375
1480519085445311,0.6875,-0.625,0.25
1480519085461855,0.375,-1.125,0.25
1480519085483914,0.8125,-0.5,-0.3125
1480519085505973,0.8125,0.0625,-0.5
1480519085521012,0.125,-0.0625,-0.0625
1480519085543572,-0.25,-0.5,0.0625
1480519085566134,0.1875,-0.25,-0.25
1480519085581173,0.8125,-0.6875,-0.75
1480519085609748,-0.125,-0.5625,-0.125
1480519085626296,0.25,-0.125,0.375
1480519085640331,0.3125,-0.5,0.1875
1480519085670911,-0.125,-1.0625,-0.3125
1480519085685951,-0.375,-1.875,-0.125
1480519085700490,-0.5,-2.4375,-0.3125
1480519085723551,0.25,-2.125,0.0625
1480519085746113,-0.8125,-0.4375,-0.1875
1480519085760650,0.125,-1,-0.375
1480519085784212,-0.1875,-1.625,-0.3125
1480519085806278,0.125,-1.5625,-0.8125
1480519085820309,0.25,-0.9375,-0.5
1480519085843871,0,-1.1875,-0.5625
1480519085865931,0.375,-0.8125,-0.5625
1480519085888490,0.3125,-0.375,-0.5625
1480519085903530,0.0625,-0.125,-0.1875
1480519085926090,0.0625,-0.3125,-0.0625
1480519085948651,0.3125,-0.375,0
1480519085963691,0.25,-0.3125,0.25
1480519085986751,0.1875,-0.125,0.125
1480519086014829,-0.1875,0.0625,0.3125
1480519086023850,-0.3125,0.0625,0.3125
1480519086053930,-0.625,-0.5625,0.5625
1480519086067967,-0.75,-1.5,-0.125
1480519086083508,-1.9375,-1.625,0.5625
1480519086106069,-4.6875,-1.3125,0.5625
1480519086127125,-5.8125,-0.625,2.5625
1480519086149685,-4.1875,-2.125,4.0625
1480519086166230,-2.375,-2.25,1.75
1480519086187296,-0.375,0.1875,1.3125
1480519086203829,0.875,0,1
1480519086233909,1.375,-0.9375,0.375
1480519086247446,2.3125,0.375,0.125
1480519086263488,3.1875,0.9375,-0.9375
1480519086289060,3.375,1.5,-1.9375
1480519086307103,3.4375,1.75,-1.875
1480519086324149,3.625,1.8125,-1.3125
1480519086346208,1.75,1.75,1.9375
1480519086367264,5.375,1.75,0.6875
1480519086389823,4.9375,1.375,2.3125
1480519086406869,5.4375,2.875,1.9375
1480519086428426,6.0625,1.125,2.3125
1480519086443466,4.625,-2,2.5625
1480519086466027,-2.5625,-0.875,5.75
1480519086488586,-4.375,0.5625,6.75
1480519086503626,-6.5625,-3.6875,4.125
1480519086526186,-12,-10.6875,3.5625
1480519086549248,-7.25,-17.75,5.8125
1480519086569802,-5.3125,-18.8125,-1
1480519086586346,-1.5,-0.4375,2.25
1480519086608405,4.0625,1.125,-1.4375
1480519086629963,3.6875,1.125,-3.125
1480519086646006,6.5,-1.75,-0.4375
1480519086668565,6.9375,-2.1875,2.75
1480519086683104,6.5625,-3.125,4.0625
1480519086706165,5.3125,-4,7.25
1480519086728726,1.0625,-1.3125,6.3125
1480519086742762,0.75,0.1875,4.5625
1480519086766326,-0.625,0.875,2.875
1480519086788885,-0.6875,1.375,-0.125
1480519086802922,-0.375,2.9375,-2.625
1480519086825984,1.0625,4.75,-6.125
1480519086848543,0.5,8.375,-8.8125
1480519086863084,-1.4375,12.3125,-6.875
1480519086886143,-3.5,12.9375,-4.25
1480519086908704,-2.5,13.125,-2.8125
1480519086930263,-2.5625,13.4375,-0.4375
1480519086946305,-0.625,12.9375,0.4375
1480519086968864,0.125,11.5625,1.625
1480519086989919,3.375,11.125,2.3125
1480519087005963,3.0625,10,3.875
1480519087028523,2.25,6.0625,3.6875
1480519087057099,3.6875,3.25,3.875
1480519087066123,4.5,3.0625,2.25
1480519087094699,2.5625,2.625,2.125
1480519087109738,1.625,2.125,1.8125
1480519087126283,1.375,2.5625,2.125
1480519087148843,0.5,2.75,1.8125
1480519087169898,-0.375,2.5,1.5
1480519087185941,-0.125,2.5,1.4375
1480519087208501,-0.5625,1.1875,0.75
1480519087229558,-2.125,-0.6875,0.75
1480519087246102,-2.6875,-3.625,-0.8125
1480519087268661,-4.3125,-6.9375,-0.1875
1480519087289718,-4.125,-7.5625,1.1875
1480519087312277,-3.25,-6.4375,0.6875
1480519087342858,-2.625,-4.375,-1.125
1480519087349877,-1.8125,-2.375,-1.625
1480519087365920,-1.5625,-0.125,-1.625
1480519087388486,-1.1875,0.5625,-1.5
1480519087411044,-1,1.125,-1.3125
1480519087426080,0.1875,1.625,-0.875
1480519087449141,0.1875,1.3125,-0.5625
1480519087471199,0.125,1.0625,-0.125
1480519087486240,0.125,0.5625,-0.25
1480519087508800,0.0625,0.75,-0.4375
1480519087538378,-0.5,1.5625,-0.375
1480519087545397,0.25,1.8125,-0.3125
1480519087568459,1.125,3,0.1875
1480519087591019,1.0625,3.3125,0.4375
1480519087613578,0.875,3.3125,1.125
1480519087628619,1.25,3.375,1.0625
1480519087651178,1.875,2.9375,0.6875
1480519087665717,1.4375,2.0625,0.3125
1480519087688779,1.125,1.1875,-0.4375
1480519087711344,2.4375,0.1875,-1.1875
1480519087725376,2.8125,0.1875,-2.5625
1480519087748438,2.0625,-0.3125,-0.375
1480519087777014,-0.4375,0.1875,1.75
1480519087785536,0.6875,1.875,2.3125
1480519087808598,2.8125,1.9375,2.5
1480519087831158,1.5,2.1875,3.3125
1480519087845696,3.3125,2.375,3.5
1480519087868758,2.5,2.75,3.75
1480519087891319,4,2.75,3.0625
1480519087912373,3,2.6875,3.1875
1480519087928917,2.4375,3.125,4.75
1480519087950976,0,4,7.5
1480519087972032,-1.5625,1.4375,4.5
1480519087996097,-4.125,-1.625,4
1480519088011138,-2.0625,-3.4375,-0.0625
1480519088032192,-1.1875,-0.8125,-2.8125
1480519088056256,-2.5,0.8125,-2.6875
1480519088071798,-4.625,-1.0625,-3
1480519088092352,-4.5625,-4.8125,-3.625
1480519088108896,-5.8125,-4.625,-3.4375
1480519088130956,-3.875,0.3125,-2.25
1480519088152010,-0.6875,0.0625,-3.0625
1480519088168555,-2.5,-0.3125,-2.75
1480519088191115,-2.0625,-0.625,-1.625
1480519088212171,-1.4375,-1.75,-0.875
1480519088228715,-1.1875,-1.375,-1
1480519088258294,-0.25,-0.75,-1.6875
1480519088272331,-0.375,-0.4375,-2.3125
1480519088288875,0.125,-0.75,-2.75
1480519088311438,-0.5,-0.6875,-1.375
1480519088333494,-0.8125,0.1875,-0.75
1480519088348535,-0.375,-1.9375,0.1875
1480519088371093,-1.125,-3,0.625
1480519088393655,-0.5,-2.3125,1.125
1480519088408699,0.875,-1.625,0.8125
1480519088431254,0.4375,-0.375,0.0625
1480519088453813,1.1875,0.5625,-0.375
1480519088468855,1.3125,0.8125,-0.375
1480519088491413,1.125,0.8125,-0.25
1480519088513472,1.1875,0.5625,0.5
1480519088528013,0.625,0.4375,0.6875
1480519088551573,1.0625,0.25,0.5625
1480519088573632,1.3125,0.8125,0.8125
1480519088588171,1.0625,1.5,0.375
1480519088611236,1.25,1.6875,0.25
1480519088633793,1.375,2.125,-0.125
1480519088648331,1.5,2.25,-0.0625
1480519088671393,0.75,2.125,-0.3125
1480519088693452,-0.4375,3.6875,0.9375
1480519088716513,1.4375,1.75,0.75
1480519088731052,1.125,0.625,0.375
1480519088753612,0.5625,1.3125,-1
1480519088768150,1.625,1.75,-0.9375
1480519088791211,0.125,3.625,-1.1875
1480519088819787,1.75,3.5,-0.625
1480519088834827,1.125,2.625,1.1875
1480519088851370,1.1875,2.1875,0.5
1480519088874934,1.125,1.25,1
1480519088894487,0.25,0.25,1.4375
1480519088911032,1.625,0.25,0.9375
1480519088933590,1.25,-0.125,1.125
1480519088954646,1.1875,-0.6875,0.75
1480519088977206,-0.3125,-0.5625,0.375
1480519088993750,-1.0625,-0.4375,-0.4375
1480519089014807,-2.25,-0.75,-1
1480519089031350,-3.875,-1.125,-0.875
1480519089053910,-5.125,-1.8125,0.0625
1480519089074464,-4.625,-1.6875,-1
1480519089091009,-3.125,-0.125,-0.875
1480519089113568,-2.9375,0.1875,-1.125
1480519089134625,-3.25,-0.25,-1.3125
1480519089151670,-1.8125,-0.3125,-2
1480519089173730,-1.75,0.125,-3.8125
1480519089194306,-2.125,2.0625,-3.9375
1480519089211329,-1.8125,3,-2.8125
1480519089233888,-1.8125,3.25,-2.4375
1480519089254443,-1.4375,2.75,-1.375
1480519089273493,-1.5,1.8125,-0.125
1480519089293548,-0.625,2.125,-0.1875
1480519089316107,0.1875,2.3125,1.1875
1480519089337163,-0.25,1,0.1875
1480519089353709,-0.25,1,-0.5625
1480519089376267,0.6875,-0.1875,0.0625
1480519089391309,0.25,-1.6875,0.8125
1480519089413867,0.6875,-1.875,1.75
1480519089441943,1.4375,-1.8125,1.3125
1480519089450464,1.3125,-1.3125,0.6875
1480519089473526,0.75,-1.0625,0.0625
1480519089496086,1.0625,-2.6875,-0.6875
1480519089510626,-0.125,-2.75,-0.75
1480519089539702,0.3125,-1.6875,0.75
1480519089556246,-0.875,-1.1875,1.4375
1480519089570284,-1,-0.8125,0.375
1480519089593846,-1.125,-0.3125,-0.3125
1480519089615905,-1.3125,0.5625,-0.875
1480519089630446,-0.8125,0.5625,-1
1480519089659522,-1.375,-0.0625,-0.9375
1480519089676065,-1.4375,-0.125,0
1480519089690604,-1.5,-0.4375,0.4375
1480519089714166,-1.5625,0.8125,1.1875
1480519089736225,-0.0625,0.375,0.375
1480519089757281,-0.3125,-0.375,0.125
1480519089773826,0.1875,0,0.1875
1480519089795884,0.4375,0.4375,-0.1875
1480519089816939,0.6875,0.1875,-0.625
1480519089833517,0.5625,0.3125,-0.5625
1480519089856044,0.125,0.6875,-0.0625
1480519089877099,0.125,0.4375,0.1875
1480519089893644,0.3125,0.3125,0.3125
1480519089922219,0.5625,0.5625,0.375
1480519089944780,0.4375,0.5625,0.4375
1480519089953804,0.8125,0.8125,0.5625
1480519089975864,0.75,0.875,0.8125
1480519089996931,0.875,1.125,1.3125
1480519090013463,1.0625,1,1.25
1480519090036523,0.5625,1,1.375
1480519090057078,0.6875,0.6875,1.125
1480519090073622,0.8125,0.5625,1.0625
1480519090096184,0.8125,0.5625,0.5625
1480519090119243,0.8125,0.3125,0.375
1480519090133783,0.8125,0,0.25
1480519090155841,0.6875,-0.25,0.375
1480519090177400,0.5,-0.375,0.5
1480519090193942,0.375,-0.5,0.125
1480519090223522,0.375,-0.25,0.3125
1480519090238561,0.8125,-0.5625,0.5
1480519090261121,0.6875,-0.5,0.1875
1480519090276663,0.5,-0.5,0
1480519090299117,0.0625,-0.5625,0
1480519090313761,0.4375,-0.1875,-0.25
1480519090336324,0.75,0.625,-0.25
1480519090358379,-0.25,0.8125,-0.25
1480519090386955,-0.0625,1.3125,-0.4375
1480519090395980,0.1875,1.375,-2.0625
1480519090419041,-0.1875,0.9375,-2.9375
1480519090439596,-0.5625,0.4375,-2.4375
1480519090456139,-0.5625,1.3125,-2.125
1480519090478700,-1.9375,3.75,-0.1875
1480519090492737,-0.1875,2.375,0.9375
1480519090516300,-0.4375,0,0.875
1480519090538860,0.1875,-0.4375,0.3125
1480519090553399,0,-1.0625,0.9375
1480519090575959,0.1875,-1.625,0.875
1480519090598852,1.125,-1.5,1.1875
1480519090613058,1.25,-1.0625,1.1875
1480519090636119,1.3125,-0.5,0.4375
1480519090659681,1.1875,-0.125,0.1875
1480519090673217,0.75,0.25,0.125
1480519090703798,0.3125,0.375,0.0625
1480519090718838,0.25,0.5625,0
1480519090739894,-0.0625,0.6875,0.0625
1480519090755938,-0.4375,0.6875,0.375
1480519090778499,-0.75,0.375,1.1875
1480519090799555,0.125,0.5625,1.375
1480519090816104,0.625,0.5625,1
1480519090838657,1,0.625,0.8125
1480519090867233,1.0625,0.75,0.5
1480519090876259,1.125,0.375,0.1875
1480519090898818,0.6875,0.5,0.125
1480519090919873,0.6875,0.75,-0.0625
1480519090950956,0.5625,0.375,-0.125
1480519090958476,0.375,0.125,-0.0625
1480519090963991,0.375,-0.25,-0.125
1480519090986551,0.1875,-0.1875,0.25
1480519091001590,0.875,-0.3125,0.8125
1480519091024150,0.375,-0.4375,1.0625
1480519091056236,0.375,-0.625,1.0625
1480519091061750,0.4375,-0.5,1
1480519091083809,1.375,-0.5625,0.6875
1480519091115393,0.625,0,0.5625
1480519091121409,0.5,0.375,0.375
1480519091146978,-0.0625,0.0625,0.125
1480519091166529,-0.3125,-0.125,-0.5
1480519091181569,-0.1875,0.0625,-0.875
1480519091204130,-0.1875,-0.125,-1.4375
1480519091226690,-1.125,0.4375,-1.4375
1480519091241729,-0.9375,0.125,-0.6875
1480519091271308,-1.3125,-0.5625,-0.625
1480519091286349,-0.625,-0.875,-0.5
1480519091308908,-0.5625,-1.125,-0.625
1480519091331468,-0.5625,-1.0625,-0.875
1480519091346509,-0.3125,-0.9375,-0.875
1480519091361548,-0.4375,-0.6875,-1.125
1480519091387116,0.1875,-0.3125,-1.5
1480519091406667,-0.1875,-0.0625,-1.625
1480519091421708,-0.5625,-0.0625,-1.6875
1480519091443769,-1,0.5625,-1.375
1480519091466828,-0.8125,0.6875,-1.4375
1480519091482871,-1,1,-1.4375
1480519091503927,-1,0.9375,-1.0625
1480519091526489,-1.1875,0.3125,-0.5
1480519091541527,-0.5,0.1875,0.25
1480519091564087,-0.125,0.25,0.25
1480519091586646,0.125,0.3125,-0.625
1480519091602689,-0.125,0,-0.8125
1480519091624247,-0.6875,-0.25,0
1480519091647809,-0.0625,-0.5625,0.75
1480519091663852,-0.3125,-0.625,0.875
1480519091685414,0.375,-0.8125,0.375
1480519091706466,0.3125,-1,0.0625
1480519091723010,0.3125,-0.375,-0.1875
1480519091744065,0.1875,-0.4375,-0.1875
1480519091774647,-0.3125,-1,-0.125
1480519091783169,-0.5625,-0.8125,-0.0625
1480519091803724,0.0625,-0.3125,-0.125
1480519091826785,0.3125,-0.375,-0.3125
1480519091842828,-0.375,-0.3125,-0.25
1480519091863884,-0.1875,0.0625,-0.0625
1480519091889452,-0.375,0,0.0625
1480519091903020,-0.25,-0.5,-0.1875
1480519091925548,-0.1875,-0.6875,-0.5625
1480519091946605,-0.25,-0.4375,-0.5
1480519091963150,-0.375,-0.8125,-0.4375
1480519091984205,-0.6875,-1.3125,-0.375
1480519092006764,-1.0625,-0.875,0.25
1480519092022807,-0.25,-0.625,-0.0625
1480519092043865,-0.4375,-0.875,-0.125
1480519092066424,0.1875,-0.9375,0.125
1480519092090488,-0.0625,-0.75,0.875
1480519092104022,0.8125,-0.5625,1.8125
1480519092126583,0.875,-0.875,2.1875
1480519092145133,1.4375,-0.5,1.25
1480519092164184,1.6875,-0.3125,0.375
1480519092186742,0.625,-0.25,0.1875
1480519092204290,0.1875,-0.0625,-0.1875
1480519092223842,-0.125,0.375,0
1480519092246402,-0.625,0.125,-0.1875
1480519092271970,-1.0625,0.0625,-1
1480519092284002,-1.5625,0,-1.125
1480519092306562,-1.9375,0.125,-0.5625
1480519092329122,-1.8125,0.3125,0.1875
1480519092344162,-1.1875,0.375,0.625
1480519092367724,-0.9375,-0.3125,1
1480519092389282,-0.1875,-0.8125,0.8125
1480519092403820,0.3125,-0.5625,0.5
1480519092426381,0.4375,-0.25,0.75
1480519092448940,0.875,-0.5,0.8125
1480519092463981,0.6875,0.0625,0.9375
1480519092486541,0.625,-0.25,1.1875
1480519092509100,0.375,0.1875,1.4375
1480519092531661,0.25,0.625,2.25
1480519092546700,0.875,-0.25,1.625
1480519092568759,0.875,0.0625,2
1480519092585303,1.6875,0.4375,1.375
1480519092606359,1.5,0.5625,0.3125
1480519092628919,0.9375,0.6875,-0.25
1480519092643959,0.75,1,-0.8125
1480519092674039,-0.1875,0.875,-1.375
1480519092689080,-0.8125,0.5625,-1.0625
1480519092704119,-1.125,0.6875,-0.8125
1480519092726680,-1.125,0.4375,-0.5
1480519092757260,-0.9375,0.1875,-0.125
1480519092772802,-0.875,-0.125,-0.25
1480519092786339,-0.4375,-0.625,-0.375
1480519092811906,-0.5,-0.5,-0.375
1480519092825442,0,-0.625,-0.375
1480519092846498,-0.375,-0.375,-0.375
1480519092869074,0.3125,0,-0.625
1480519092887107,-0.125,0,-0.3125
1480519092914178,0.0625,0.125,0
1480519092929217,-0.125,0,0.375
1480519092945260,0,-0.1875,0.4375
1480519092966317,0.0625,-0.1875,0.1875
1480519092988877,0.3125,-0.125,0.0625
1480519093006925,0,-0.0625,-0.125
1480519093026479,-0.0625,-0.125,0
1480519093052045,0.125,0.0625,0.25
1480519093066082,-0.0625,-0.0625,0.125
1480519093086637,0,-0.3125,0
1480519093109198,-0.0625,-0.25,-0.1875
1480519093127249,0.125,-0.1875,-0.3125
1480519093146295,0.125,-0.25,-0.5625
1480519093168865,0.1875,-0.3125,-0.875
1480519093186903,0.5625,-0.4375,-0.6875
1480519093206455,0.625,-0.625,-0.4375
1480519093229016,0.8125,-0.5,-0.3125
1480519093251575,0.4375,-0.625,-0.0625
1480519093266958,0.125,-0.25,-0.125
1480519093289175,0.75,-0.25,-0.3125
1480519093320258,0.8125,-0.0625,-0.375
1480519093326274,0.4375,0.25,-0.0625
1480519093348834,0.5,0.375,0.1875
1480519093366882,0.1875,0.125,-0.125
1480519093386434,0.0625,-0.125,-0.125
1480519093408994,-0.125,-0.0625,-0.0625
1480519093427044,-0.25,-0.0625,0.1875
1480519093446594,-0.4375,-0.125,0.3125
1480519093476674,-0.25,-0.5,0.375
1480519093486701,-0.1875,-1,0.3125
1480519093507758,-0.1875,-1.3125,0.3125
1480519093536333,-0.25,-1.3125,0.5
1480519093546861,-0.875,-1,0.375
1480519093573934,-0.75,-0.5625,0.4375
1480519093591480,-0.3125,0,0.3125
1480519093615042,-1.1875,-0.1875,0.0625
1480519093626573,-2.0625,-0.5,0.1875
1480519093656653,-3.5625,-1.375,1.3125
1480519093667181,-3.125,-3.4375,1.625
1480519093686231,-2.6875,-5.4375,0.4375
1480519093708791,-1.875,-1.8125,0.25
1480519093726840,-1.4375,2.9375,1.75
1480519093755415,0.6875,0.8125,0.375
1480519093768952,-0.375,0.3125,0.5625
1480519093787005,1.9375,0.75,0.1875
1480519093814072,1.125,0.5625,-0.1875
1480519093836632,0.1875,-0.0625,0.1875
1480519093846658,0.9375,0.3125,0.375
1480519093867714,1.3125,1.0625,0.6875
1480519093889271,2.5,2,0.5625
1480519093918850,3.0625,2.5625,0.6875
1480519093936898,1.0625,1.375,1.1875
1480519093948930,1.125,0.4375,2.875
1480519093972995,3.5625,-0.125,2.875
1480519093988035,2.75,0.5625,2.6875
1480519094009090,3.4375,0.75,2.5
1480519094034659,3.125,0.75,1.6875
1480519094049197,2.1875,0.375,0.875
1480519094071758,0.8125,-0.25,0.6875
1480519094091309,0.1875,-0.9375,0.6875
1480519094109358,0.5,-1.0625,0.3125
1480519094128909,-0.125,-1.875,-0.625
1480519094151469,-1.1875,-3.125,-1.5
1480519094170019,-1.3125,-3,-1.0625
1480519094189069,-2.125,-2.4375,0.25
1480519094211629,-1.75,-1.125,1.375
1480519094234189,-0.625,-1.3125,0.25
1480519094248727,-0.375,-1.3125,-0.625
1480519094278808,-0.6875,-1.6875,-0.6875
1480519094289337,-0.3125,-1,-0.4375
1480519094311896,-0.4375,-0.875,-0.5625
1480519094331448,-0.375,-0.6875,-0.625
1480519094349497,0.1875,-0.4375,-0.5625
1480519094376569,-0.125,-0.4375,-0.6875
1480519094393113,-0.625,-0.375,-0.6875
1480519094409156,-0.4375,-0.25,-0.9375
1480519094429218,-1.4375,-0.5,-0.8125
1480519094451767,-1.125,-1.4375,-0.875
1480519094485357,-1.6875,-1.3125,-0.1875
1480519094491876,-1.6875,-0.875,0
1480519094511426,-1.0625,-1.0625,0
1480519094529475,-1.375,-0.9375,-0.3125
1480519094559555,-1.1875,-0.0625,-0.4375
1480519094571586,0.25,-0.625,-0.5
1480519094589634,0.8125,-1.4375,-0.5625
1480519094611693,0.625,0.5625,-1.1875
1480519094631249,0.9375,2.125,-0.4375
1480519094670851,0.9375,1.8125,-0.5625
1480519094673358,-0.25,1.1875,-0.0625
1480519094691405,1.5,0.75,0.4375
1480519094709454,1.625,0.3125,0.5
1480519094732023,2.125,-0.5625,1.0625
1480519094751565,1.8125,0.0625,1.5
1480519094770115,3.3125,0.25,1.3125
1480519094790168,1.6875,-0.75,1.3125
1480519094811224,1.25,-0.3125,0.8125
1480519094829272,1.5625,-0.8125,0.9375
1480519094850328,0.4375,-0.4375,1.5
1480519094871384,0.75,-0.875,1.875
1480519094889432,1.375,-0.5625,2.6875
1480519094916504,1.9375,-0.5625,2.6875
1480519094934552,2.125,-1.25,2.125
1480519094949592,1.875,-1.625,1.25
1480519094970662,1.8125,-1.125,0
1480519094991705,1.375,-0.1875,-1.25
1480519095009753,0.5,-0.9375,-0.6875
1480519095032312,-1,-0.625,-0.0625
1480519095051363,0.8125,-1.125,-0.8125
1480519095069411,1,-0.875,-0.6875
1480519095096483,1.125,-0.6875,-0.875
1480519095111523,2.5,-0.4375,-1.0625
1480519095129571,2.3125,-0.8125,-1.0625
1480519095152130,2.375,-0.5625,-0.75
1480519095171683,2.25,-0.6875,-0.75
1480519095189230,1.75,-0.875,-0.4375
1480519095211789,1.0625,-1.125,-0.4375
1480519095231342,0,-1.8125,-0.5
1480519095249389,-0.6875,-2.3125,-1.375
1480519095272952,-0.75,-3.0625,-1.875
1480519095291503,-0.1875,-4.4375,-2.375
1480519095309550,-0.625,-5.9375,-3.0625
1480519095339629,0.0625,-7.875,-4.6875
1480519095351661,0.625,-8.9375,-6.3125
1480519095369209,2.875,-10.1875,-7.8125
1480519095392771,6.25,-12.5,-10.125
1480519095418841,9.4375,-16.1875,-13.8125
1480519095436888,11.0625,-19.875,-16.875
1480519095451929,12.5,-21,-19.1875
1480519095471480,13.5625,-20.8125,-20.1875
1480519095495545,15.375,-19.875,-19.5
1480519095512089,18.1875,-18.8125,-19.6875
1480519095531641,16.9375,-16.875,-18.375
1480519095554200,16.9375,-14,-16.75
1480519095571748,15.4375,-11.9375,-15.5625
1480519095591299,13.125,-10.5625,-13.6875
1480519095616867,11.5625,-8.5625,-12.4375
1480519095636419,10.75,-5.875,-10.8125
1480519095668004,10.5,-3.875,-8.875
1480519095674019,9,-4.1875,-5.6875
1480519095699587,8.625,-5.3125,-4.0625
1480519095714627,7.3125,-4.8125,-2.75
1480519095734179,5.5625,-2.5625,-1.75
1480519095751726,5.5,-0.125,0.75
1480519095781810,4.75,0.75,3.375
1480519095793838,3.75,0.8125,4.375
1480519095811886,2.5625,0.5,5.25
1480519095832942,2.875,-0.125,5.625
1480519095861518,0.75,0.125,5.5625
1480519095872046,0.3125,-0.6875,4.9375
1480519095894106,-0.875,-2.25,5
1480519095914659,-2.0625,-3.4375,4
1480519095931705,-2.9375,-5.0625,3
1480519095954265,-2.125,-3.8125,1.3125
1480519095973816,-1.75,-0.625,0.125
1480519095991866,-0.6875,0,-0.8125
1480519096027960,-3.1875,-2.0625,-1.4375
1480519096033993,-2.3125,-2.25,-0.875
1480519096052024,-1.8125,-2.6875,-0.375
1480519096074584,-1.1875,-1.9375,0.875
1480519096094136,-1.625,0.9375,1
1480519096111683,-1.3125,1.125,1.25
1480519096141764,-1.5625,-0.4375,1.4375
1480519096170841,-1.8125,-1.25,0.5625
1480519096173347,-0.625,-2.75,0.75
1480519096194403,-2,-3.5625,1.875
1480519096213955,-1.3125,-2.3125,1.625
1480519096238019,-0.625,-0.25,0.6875
1480519096255064,-1.125,-0.5,0.6875
1480519096274116,-2,-1.9375,1.1875
1480519096291662,-2.6875,-3.5625,2
1480519096328760,-3.625,-5.1875,3.875
1480519096333775,-3.375,-4.5625,4.125
1480519096356338,-1.875,0.4375,4.5
1480519096374382,0.1875,-0.5,1.8125
1480519096393934,-1.8125,-2.125,0
1480519096417998,-1.5625,0.75,-0.5625
1480519096434541,0.5,1,0
1480519096454595,-1.5,0.5625,0.375
1480519096472643,-0.5625,1.0625,0.125
1480519096500217,0.125,1,0.125
1480519096513753,0.625,0.8125,-1.0625
1480519096531801,-0.0625,1.875,-0.875
1480519096554361,0.0625,1.8125,-1.0625
1480519096575417,-0.875,0.375,-0.5625
1480519096599481,-1.3125,1.625,-0.5
1480519096614521,0.375,2.9375,0.0625
1480519096635577,0,3.6875,0.125
1480519096652622,-0.5,3.5625,0.9375
1480519096674180,0.5,3.125,2.0625
1480519096695235,0.625,2.9375,3
1480519096711780,1.625,3.75,3.1875
1480519096734340,2.9375,4.0625,3.25
1480519096755395,2.875,4.0625,3.4375
1480519096771939,2.625,3.3125,3.125
1480519096802019,2.5,3.0625,3.4375
1480519096815555,2.25,2.3125,3.3125
1480519096832099,1.25,0.6875,2.75
1480519096854158,0.6875,0.125,2.6875
1480519096875214,-0.25,-0.125,2.6875
1480519096891758,-0.3125,-0.1875,2.5625
1480519096914318,-0.5,0.5,2.3125
1480519096936878,-0.8125,0.1875,2.1875
1480519096952420,-0.3125,-0.875,2.625
1480519096974479,-0.9375,-0.25,2.9375
1480519096997038,-0.75,1,2.625
1480519097016590,-0.625,0.625,2.9375
1480519097034137,-1.125,-0.125,2.3125
1480519097056196,-0.75,0.0625,1.4375
1480519097076249,0,0.9375,1.4375
1480519097094297,-0.375,1.25,1.3125
1480519097116857,-0.5,1.625,0.625
1480519097136912,-0.0625,1.5,-0.125
1480519097154457,-0.0625,0.125,0.625
1480519097177022,-0.5,0.25,1.3125
1480519097197075,0,0.9375,0.5625
1480519097213619,-0.8125,0.875,-0.1875
1480519097236179,-1.625,0.375,0
1480519097257235,-1.375,-0.375,-0.25
1480519097274280,-0.8125,-0.1875,-0.6875
1480519097296841,-0.375,-1.125,-1.4375
1480519097316894,-0.1875,-1.25,-2.25
1480519097333438,-0.625,-1.125,-1.3125
1480519097362013,-0.875,0.0625,0.125
1480519097377054,-1.0625,-0.3125,1.5625
1480519097393598,0.375,-1.0625,1.4375
1480519097416158,0.4375,-1.25,1.1875
1480519097437715,0.5,-0.875,1.5625
1480519097453757,0.75,-0.4375,1.75
1480519097483336,0.0625,-0.5,1.5625
1480519097496873,0.8125,0,1.9375
1480519097513416,1.1875,0.75,2.6875
1480519097536478,2.3125,1.8125,1.625
1480519097558536,0.9375,0.875,1.1875
1480519097573576,0,-0.375,0.625
1480519097596137,-0.625,-1.1875,0.3125
1480519097617192,-0.1875,-0.1875,0.8125
1480519097641758,0.375,-0.1875,0.3125
1480519097655795,0.375,-0.125,-0.4375
1480519097677352,-0.4375,0.5625,-0.875
1480519097693395,0.3125,1.75,-0.4375
1480519097715955,-0.5,1.8125,-0.1875
1480519097738515,-0.875,1.5,-0.1875
1480519097753555,-0.5,1.0625,-1.0625
1480519097776116,0.0625,3.5,-1.4375
1480519097804692,0.5,4.6875,-1.6875
1480519097812712,-0.625,3.4375,-0.4375
1480519097836276,-0.5,3.0625,0.875
1480519097858836,-0.0625,3,3
1480519097873374,-0.5,2.3125,4.5
1480519097895935,0.25,1.125,4.625
1480519097918995,0.5625,0.25,2.75
1480519097934035,0.875,-0.375,0.8125
1480519097956094,0.875,-0.9375,-0.25
1480519097978655,0.5,-1.3125,-0.8125
1480519098001214,-0.1875,-0.75,-0.1875
1480519098016254,-1.0625,-0.6875,0.0625
1480519098038814,-0.5,0.3125,0.8125
1480519098052852,-0.25,0.9375,0.4375
1480519098083433,-0.1875,1.0625,0.125
1480519098098612,-1.375,0.9375,-0.3125
1480519098114515,-0.75,0.9375,-0.6875
1480519098136073,-0.9375,0.5,-1.125
1480519098166153,-0.9375,-0.125,-0.875
1480519098173174,-0.75,-0.375,0.1875
1480519098196233,-0.0625,-0.8125,0.4375
1480519098224808,0,-2.5,0.6875
1480519098232831,-2.0625,-3.375,0.25
1480519098255891,-1.25,-1.9375,-0.375
1480519098280959,-0.625,-1.375,-0.125
1480519098292992,-1.5,-0.8125,0.8125
1480519098316051,-1.0625,-0.875,0.875
1480519098338612,-0.5,-0.75,0.75
1480519098361172,-0.6875,-1.125,0
1480519098376213,-0.6875,-0.8125,-0.875
1480519098398771,-0.4375,-0.3125,-2
1480519098419827,-0.75,0.3125,-1.625
1480519098435870,-1.1875,0.0625,-0.875
1480519098458430,-0.8125,-0.6875,0.125
1480519098479486,-1.125,-0.5625,0.5
1480519098496531,-0.6875,-0.8125,0.25
1480519098526112,-0.4375,-0.5625,-0.5625
1480519098539646,-0.25,-0.5625,-0.75
1480519098556190,-0.375,-1.0625,-0.9375
1480519098578750,-1,-1,-1.25
1480519098599868,-0.625,-0.1875,-1.125
1480519098615848,-0.5625,0.0625,-1.0625
1480519098638409,-0.875,0.4375,-0.4375
1480519098659469,-1.0625,0.5625,-0.3125
1480519098676010,-0.625,-0.0625,-0.5
1480519098698569,-0.8125,-0.625,-0.9375
1480519098719624,-0.5,-0.6875,-1.0625
1480519098743689,-0.5,-1.4375,-0.5
1480519098758729,-1.4375,-1,0.125
1480519098779784,-0.625,-0.5625,0.1875
1480519098795827,-0.125,-0.5,-0.1875
1480519098827412,-0.125,-0.875,-0.875
1480519098841951,0,-1.1875,-1.5625
1480519098855987,-0.1875,-1.1875,-1.6875
1480519098878547,-0.5625,-0.9375,-1.25
1480519098901107,-0.8125,-1.0625,-0.75
1480519098916150,-1.375,-0.875,-0.3125
1480519098946227,-0.75,-0.5625,0.25
1480519098961267,-0.4375,-0.5,1
1480519098975305,-0.375,-0.375,0.5625
1480519098998368,0.3125,0.1875,0.3125
1480519099021428,0.3125,0.5625,-0.25
1480519099035465,0.125,0.4375,-0.625
1480519099059028,0.625,0.75,-0.5
1480519099087102,0.1875,1.375,-0.1875
1480519099095629,0.125,2.125,-0.125
1480519099118686,0.375,2,-0.375
1480519099141246,-0.0625,1.125,-0.125
1480519099155284,0,0.5625,0.25
1480519099178345,0,0.1875,0.625
1480519099200905,-0.125,-0.0625,0.625
1480519099223465,0,0.4375,0.375
1480519099244521,0.3125,0.5625,0
1480519099261066,-0.125,0,-0.3125
1480519099282121,-0.25,0.125,-0.25
1480519099298164,-0.0625,-0.1875,-0.25
1480519099321225,-0.25,0.1875,-0.1875
1480519099342784,0.375,0.125,-0.25
1480519099371859,-0.1875,0.25,0
1480519099380883,0.25,0.0625,-0.0625
1480519099401941,-0.5625,-0.4375,-0.0625
1480519099418483,-1,-1.875,-0.8125
1480519099441546,-2.1875,0.625,1.375
1480519099469620,-1,-0.625,0.25
1480519099478643,-1.6875,-1.75,-1.125
1480519099501204,-3.25,-2.875,-0.9375
1480519099522260,-1.9375,-3.25,-1.875
1480519099538803,-2.375,-2.5625,-1.8125
1480519099560863,-2.3125,-1.9375,-1.5
1480519099581918,-2.0625,-1.125,-1
1480519099598544,-1.75,-0.8125,-0.1875
1480519099621524,-1.875,-1.375,-0.4375
1480519099642092,-1.3125,-0.375,-1.3125
1480519099658623,-1.3125,-0.5625,-1.0625
1480519099681182,-1.875,-0.9375,-1.25
1480519099702239,-1.5,-1,-1.125
1480519099718782,-1.1875,-0.6875,-0.125
1480519099740841,-0.75,-0.3125,0.625
1480519099769919,0,-0.0625,0.625
1480519099779945,0.4375,0.125,0.5
1480519099801002,0.4375,0.375,0.25
1480519099823561,0.625,0,0.3125
1480519099838601,0.5625,0.0625,0.875
1480519099861678,0.4375,-0.0625,1.5625
1480519099891241,0.75,-0.0625,2.25
1480519099904778,0.8125,-0.5,2.6875
1480519099920820,0.3125,-0.6875,2
1480519099943381,0.3125,-0.6875,1
1480519099957920,0.75,-0.6875,0.375
1480519099988500,-0.1875,-0.625,-0.125
1480519100003540,0.0625,-0.4375,-0.625
1480519100024596,-0.375,-0.1875,-1
1480519100041142,0.1875,-0.3125,-1.0625
1480519100063701,-0.3125,-0.0625,-0.8125
1480519100077738,-1,0.1875,-0.8125
1480519100100798,-1.125,0.5,-0.75
1480519100123360,-1.25,0.1875,-0.5625
1480519100137897,-1.375,0.0625,-0.8125
1480519100168479,-0.6875,0.875,-0.125
1480519100183519,-0.0625,1.5625,-0.0625
1480519100198074,0.3125,2.25,0.1875
1480519100221119,0.875,1.9375,0.4375
1480519100243679,0.875,2.25,0.6875
1480519100264736,1.5625,2.5625,1.625
1480519100281278,1.375,2.25,2.3125
1480519100303839,1.8125,2.875,2.75
1480519100324394,1.9375,3.625,3.3125
1480519100340937,1.75,3.625,3.5
1480519100363498,1.875,2.5,3.25
1480519100385556,1.6875,1.5625,3.5
1480519100401098,1.625,0.9375,3.25
1480519100423661,1.9375,1.125,3.125
1480519100446218,1.6875,2.5,3.3125
1480519100461759,1.8125,3.3125,4.125
1480519100490836,2.3125,2.75,3.9375
1480519100504372,2.125,1.25,3.125
1480519100528437,1.3125,0.375,2.25
1480519100543476,1.375,0.5,1.5
1480519100564533,0.6875,0.25,0.9375
1480519100581578,0.25,0.3125,0.4375
1480519100604138,0.8125,0.875,0.0625
1480519100624692,-0.1875,1.375,-0.0625
1480519100641236,-0.3125,0.8125,-0.25
1480519100663796,-0.25,0.1875,-0.3125
1480519100692372,-0.5,0.5625,-0.5625
1480519100706911,-0.125,1.3125,-0.875
1480519100723957,-1.1875,1.8125,-1
1480519100746015,-1.375,1.5625,-0.4375
1480519100761055,-0.5625,0.875,0.25
1480519100783615,-0.375,-0.375,1.125
1480519100806175,0.0625,-1.1875,1.375
1480519100820212,0.6875,-1.5625,0.6875
1480519100843274,1,-1.125,0.1875
1480519100865834,0.5,-0.6875,-0.25
1480519100880372,0.625,-0.1875,-0.5625
1480519100909451,0.5,0.125,-0.75
1480519100925995,0.1875,0.0625,-0.6875
1480519100940533,-0.5,0.1875,-1
1480519100971115,-0.8125,1.0625,-0.5
1480519100986154,0.125,1.0625,-0.0625
1480519101000191,-0.9375,0.5625,0.3125
1480519101023753,-0.3125,0.5,0.5625
1480519101045813,-0.25,0.25,0.375
1480519101060351,-0.125,0,0.125
1480519101083914,-0.1875,0.1875,0.0625
1480519101105972,-0.25,1.25,0.0625
1480519101120512,0,0.9375,-0.5
1480519101145581,-0.125,0.4375,-0.75
1480519101167138,-0.4375,0.375,-0.625
1480519101188693,-0.5,0.5625,-0.75
1480519101203733,-0.625,0.5,-0.375
1480519101226294,-0.875,0,0.1875
1480519101246847,-0.9375,-0.3125,0.375
1480519101263392,-1.0625,-0.3125,0.5
1480519101285951,-0.875,-0.375,0.125
1480519101307008,-1.0625,0.0625,-0.125
1480519101323552,-0.9375,0.3125,-0.1875
1480519101348117,-0.9375,0.125,0.0625
1480519101366668,-0.3125,0,0.375
1480519101383711,0.0625,0.0625,0.25
1480519101414293,-0.125,0.5625,-0.125
1480519101427327,-0.75,0.6875,-0.25
1480519101443370,-0.5625,0.5,-0.75
1480519101465930,-0.875,0,-0.75
1480519101496010,-0.75,-0.0625,-0.75
1480519101503530,-0.6875,0.4375,-0.6875
1480519101527595,-0.5625,0.75,-0.25
1480519101554666,-0.1875,0.875,0.125
1480519101563691,-0.3125,0.6875,0.375
1480519101586251,-0.375,0.375,0.625
1480519101607306,0.125,0.125,0.8125
1480519101623850,0.0625,0,0.75
1480519101646911,0.5625,0.3125,0.5
1480519101669472,0.5625,0.4375,0.25
1480519101683509,0.375,0.125,0.1875
1480519101706069,0.375,-0.25,0.375
1480519101728629,0.4375,-0.125,1.0625
1480519101743669,0.125,0.125,1.125
1480519101766734,0.4375,-0.125,0.8125
1480519101788789,0,-0.125,0.9375
1480519101802826,0.5625,-0.0625,0.6875
1480519101835413,0.5,0.0625,0.25
1480519101848448,-0.25,-0.1875,0.1875
1480519101863068,0.5,-0.75,0.5
1480519101886047,-0.0625,-1.3125,0.6875
1480519101908609,-0.1875,-1.3125,0.4375
1480519101923648,0.125,-1.375,0.0625
1480519101946208,-0.3125,-0.875,-0.5
1480519101968767,-0.375,-0.1875,-0.4375
1480519101982805,-0.125,0.125,0.3125
1480519102005867,-0.25,-0.75,0
1480519102043466,-0.3125,-0.625,-0.3125
1480519102045973,0.1875,-0.5,-0.625
1480519102066026,0.4375,-0.0625,-0.9375
1480519102089590,-0.1875,0.3125,-1.0625
1480519102111147,-0.6875,0.625,-0.6875
1480519102125685,-0.4375,-0.0625,-0.75
1480519102148746,-0.875,-0.875,-0.4375
1480519102169802,-0.4375,-0.5,0
1480519102187349,-0.0625,-0.5,-0.125
1480519102215925,-0.125,-0.0625,-0.0625
1480519102229462,-0.5625,0,0.6875
1480519102246005,-0.5625,-0.25,1.375
1480519102268566,0.0625,-0.625,1.5
1480519102289621,0,-1.0625,1.3125
1480519102306165,-0.25,-1.1875,1.375
1480519102328725,-0.8125,-1,1.1875
1480519102349781,-0.8125,-0.75,2.1875
1480519102389888,-1.25,0.5625,2.875
1480519102394901,-1.125,0.25,2.5
1480519102409440,-0.6875,1,1.9375
1480519102425984,1.9375,2.8125,0.5
1480519102449547,1.6875,4.4375,0
1480519102469601,3,2.9375,0.0625
1480519102493664,1.9375,2.6875,0.0625
1480519102508706,1.375,3.4375,-0.25
1480519102537279,3.375,2.75,-0.1875
1480519102546805,1.875,1.4375,-1.0625
1480519102568363,1.625,1.375,-1.0625
1480519102596939,1.5,0.8125,-0.375
1480519102605963,1.125,0.3125,-0.625
1480519102628522,1.4375,0.75,-0.375
1480519102651082,1.6875,0.6875,0.1875
1480519102668128,2.1875,0.6875,0.375
1480519102696705,1.875,0.75,0.375
1480519102711745,3.375,1.125,-0.3125
1480519102725283,4.25,1,-0.375
1480519102748341,5.1875,1.125,-1.25
1480519102770904,5.625,0.5625,-1.6875
1480519102785440,5.0625,0.8125,-0.9375
1480519102808504,5.6875,0.5625,-0.25
1480519102831062,5.1875,0.0625,0
1480519102845600,4,-0.4375,0.5625
1480519102869163,3.875,-0.1875,1.375
1480519102891222,2.5625,0.3125,1.8125
1480519102905259,2,0.25,2.0625
1480519102928320,1.875,-0.375,1.875
1480519102950881,1.8125,-0.75,1.125
1480519102965923,1.5,-1.125,0.3125
1480519102988481,1.375,-1.0625,-0.125
1480519103011541,1.25,-1.3125,-0.4375
1480519103026582,1.0625,-1.3125,-0.0625
1480519103049643,0.8125,-1.375,-0.0625
1480519103079223,0.8125,-1.3125,0
1480519103092758,0.25,-1.3125,-0.0625
1480519103108803,0,-0.9375,-0.5
1480519103132363,-0.625,-0.25,-0.75
1480519103153419,-0.9375,-0.4375,-0.875
1480519103168462,-1.4375,-0.3125,-0.875
1480519103191019,-1.25,0.1875,-0.875
1480519103219595,-0.9375,0.25,-1.125
1480519103228619,-1.1875,-0.125,-1.1875
1480519103264214,-1.4375,-0.25,-1.25
1480519103275245,-1.5,-1.25,-1.125
1480519103288779,-2.4375,-1.625,-0.625
1480519103310838,-3.1875,-1.5,0.1875
1480519103331895,-3.125,-2.3125,1.4375
1480519103348939,-2,-1.9375,0.0625
1480519103386539,-1,-0.75,-0.125
1480519103392058,0.4375,-1.5,0.1875
1480519103416118,-1.25,-1.25,0.5
1480519103431159,0.8125,-0.3125,0.0625
1480519103454219,0,-0.4375,-0.0625
1480519103469260,-0.875,-0.6875,0.125
1480519103497333,-0.625,-0.875,-0.4375
1480519103512373,-0.5,-1.0625,-0.75
1480519103534432,-1.0625,-1.125,-0.5
1480519103550977,-0.8125,-1,-0.4375
1480519103581056,-0.8125,-0.9375,-0.25
1480519103588576,-1.125,-0.9375,0.375
1480519103611137,-0.6875,-0.9375,0.375
1480519103641719,-0.6875,-0.75,0.5625
1480519103650240,-0.125,-0.625,0.875
1480519103670794,-0.6875,-0.625,1.4375
1480519103693355,0,-0.8125,1.0625
1480519103707895,0.1875,-0.6875,0.75
1480519103730955,-0.125,-0.6875,0.375
1480519103753515,-0.0625,-0.4375,-0.3125
1480519103776075,-0.1875,-0.3125,-0.4375
1480519103804651,-0.0625,0,-0.5625
1480519103813674,-0.5,0.125,-0.4375
1480519103827713,0.1875,0.125,-0.9375
1480519103851776,0.125,-0.0625,-1.8125
1480519103873334,0.3125,-0.125,-2.25
1480519103887872,-0.3125,0,-2.125
1480519103911435,-0.5625,0.9375,-1.4375
1480519103933494,-0.5625,1.0625,-0.6875
1480519103948032,-0.625,0.0625,0.75
1480519103971596,0.125,-0.125,0.0625
1480519103993653,0.4375,0.125,0.125
1480519104007692,0.5,-0.1875,0.4375
1480519104038273,0.8125,-0.875,0.125
1480519104053814,0.1875,-0.9375,0.25
1480519104074368,0.25,-0.6875,0.3125
1480519104090913,0.3125,-0.3125,0.0625
1480519104114475,0.875,-0.375,-0.0625
1480519104134528,0.4375,-0.25,0
1480519104151073,-0.0625,-0.25,-0.125
1480519104174134,-0.1875,0.0625,-0.125
1480519104194688,-0.4375,-0.375,-0.25
1480519104211734,-0.25,-0.4375,-0.8125
1480519104234296,-0.1875,-0.5625,-0.6875
1480519104255350,0.25,-0.375,-0.1875
1480519104270891,0.25,-0.4375,0.25
1480519104299467,0.625,-0.6875,0.5625
1480519104316513,0.375,-0.5625,0.625
1480519104332555,0.8125,-0.5,0.625
1480519104353612,0.75,-0.5625,0.8125
1480519104382187,0.6875,-0.625,0.4375
1480519104391213,1.125,-0.625,0.125
1480519104419787,0.9375,-0.5,-0.0625
1480519104434827,0.4375,-0.5625,-0.3125
1480519104451872,0.1875,-0.25,-0.5
1480519104479446,-0.0625,0,-0.4375
1480519104495991,-0.0625,0.3125,-0.5625
1480519104512032,-0.25,0.25,-0.6875
1480519104533089,-0.4375,0,-0.75
1480519104556150,-0.375,-0.1875,-0.625
1480519104572193,-0.5,-0.3125,-0.375
1480519104593749,-0.375,-0.375,0
1480519104616812,-0.625,-0.375,0.25
1480519104630348,-0.75,-0.6875,0.1875
1480519104653409,-0.5,-0.5625,0.0625
1480519104675969,-0.8125,-0.4375,0.125
1480519104690508,-0.625,-0.4375,-0.5
1480519104713569,-0.75,-0.4375,-0.625
1480519104742647,-0.9375,-0.5625,-0.75
1480519104750167,-0.875,-0.625,-0.6875
1480519104774230,-0.8125,-0.875,-0.625
1480519104796790,-0.5625,-0.875,-0.5625
1480519104810326,0.3125,-0.375,-0.5
1480519104833388,-0.3125,-0.125,-0.375
1480519104861963,-0.875,-0.25,-0.5
1480519104871990,-0.75,-0.5,-0.75
1480519104893547,-0.5625,-0.8125,-0.8125
1480519104916107,-0.125,-0.8125,-0.5
1480519104931148,0.0625,-0.4375,-0.1875
1480519104953708,-0.1875,-0.3125,0.1875
1480519104975766,-0.1875,-0.375,0.375
1480519104996823,-0.3125,-0.4375,0.3125
1480519105019382,0.25,-0.375,0.125
1480519105035927,-0.5625,-0.75,0
1480519105056983,-1.1875,-0.6875,0.5625
1480519105075532,-0.4375,0,1.125
1480519105102102,-0.625,0,0.5
1480519105117142,-0.3125,-0.125,0.9375
1480519105133687,0.1875,-1.125,1
1480519105163766,0.125,-1.125,1.0625
1480519105176804,0.4375,-0.1875,1.375
1480519105202370,0.0625,-0.0625,0.9375
1480519105215905,0.4375,-0.3125,0.25
1480519105237964,0.4375,-0.25,0.1875
1480519105259521,0.1875,-0.3125,-0.0625
1480519105276066,0.125,-0.4375,-0.5
1480519105297121,-0.0625,-0.1875,-0.8125
1480519105319680,-0.5,0.125,-0.4375
1480519105336726,-0.375,0.25,-0.4375
1480519105358289,-0.5,-0.0625,0
1480519105374327,-0.625,-0.1875,0
1480519105411425,0.25,-0.125,0
1480519105424459,0.1875,0.0625,-0.1875
1480519105441004,0.1875,0.4375,-0.5625
1480519105456044,0.1875,0.4375,-1
1480519105494144,0.8125,0.375,-0.3125
1480519105496652,1.3125,0,0.0625
1480519105524729,0.8125,0.6875,0.0625
1480519105538763,0.125,0.5,0.4375
1480519105554305,0.0625,0.25,0.375
1480519105581878,-0.125,-0.25,0.75
1480519105599926,0.125,0,1.1875
1480519105612961,1.25,0.6875,2
1480519105650060,1.625,2.5625,4
1480519105658583,2.5,4.1875,5.4375
1480519105679639,2.9375,4.375,6.0625
1480519105702199,3.25,5,6.75
1480519105720247,4.625,3.1875,7.3125
1480519105749324,4.9375,-1.3125,6.1875
1480519105762358,2.875,-1.125,5
1480519105778402,4.25,0.25,4.0625
1480519105816503,2.8125,0.375,3.8125
1480519105819010,1.25,0.5625,4
1480519105839564,1.4375,1.0625,3.75
1480519105853100,1.0625,0.4375,2.0625
1480519105876161,0.125,-1,0.375
1480519105905740,-0.75,-2.625,-1.875
1480519105927297,-1.4375,-2,-1.875
1480519105935820,-1.125,0.0625,-0.4375
1480519105958388,-0.9375,1.25,-0.3125
1480519105979436,-2.3125,2.3125,-0.625
1480519105996482,-1.5625,1.8125,-0.625
1480519106018543,-1.9375,1.125,-0.3125
1480519106039094,-2.375,1.0625,-0.4375
1480519106056139,-1.0625,1.3125,-1.5625
1480519106085718,-1.4375,1,-3.125
1480519106099756,-1.8125,0.625,-3.625
1480519106116801,-1.75,-1.125,-3.125
1480519106138359,-2.6875,-3.8125,-2.9375
1480519106160919,-2.6875,-3.0625,-4.0625
1480519106175958,-2.4375,0.0625,-3.0625
1480519106199906,-2,0.0625,-3.375
1480519106219574,-1.9375,-1.8125,-2.1875
1480519106236620,-2.8125,-1.8125,-0.9375
1480519106275224,-1.125,-0.4375,-0.5
1480519106279735,-0.3125,-0.375,-0.5
1480519106302295,-0.25,-0.875,-0.625
1480519106318338,0.4375,-0.4375,-0.6875
1480519106339393,0.5,-0.375,-0.5
1480519106355938,0,-0.75,-0.0625
1480519106378498,-0.1875,-0.5,0.375
1480519106408578,0.125,0,0.5625
1480519106439159,0,-0.3125,0.875
1480519106442668,-0.125,-0.4375,0.5625
1480519106461218,0.125,-0.5,0.4375
1480519106483777,-0.3125,-0.3125,0.1875
1480519106498317,-0.25,-0.4375,0.1875
1480519106520876,-0.0625,-0.0625,0.3125
1480519106535415,-0.0625,0.25,0.375
1480519106558476,0.1875,0.5625,0.4375
1480519106581538,0.25,0.6875,0.5625
1480519106602202,0.0625,0.5625,0.625
1480519106618636,0.1875,0.4375,0.5
1480519106641698,0.25,0.5,0.25
1480519106656236,0.4375,1,0
1480519106684812,0.5,1.125,0.375
1480519106706871,0.3125,1.125,1.25
1480519106715894,-0.0625,1.0625,2.5625
1480519106745976,0.875,1.3125,3
1480519106761015,1.1875,1.625,2.875
1480519106775554,2,1.9375,3
1480519106798615,2.25,2.375,3.875
1480519106828695,3.125,2.5,3.9375
1480519106835213,3.0625,0.6875,3
1480519106864791,2.875,-0.375,2.1875
1480519106880834,2.5625,0.875,3.3125
1480519106911916,3.25,1.3125,3.0625
1480519106918434,1.625,0.5,2.3125
1480519106940997,1.3125,-0.0625,1.5
1480519106962050,0.875,-0.8125,0.6875
1480519106978594,0.0625,-0.875,0
1480519107001479,0.125,-0.8125,-0.6875
1480519107037250,-0.5625,-0.875,-0.875
1480519107046775,-1,-0.6875,-1.1875
1480519107084878,-1.125,-0.625,-1.4375
1480519107089388,-1.375,-0.25,-2.875
1480519107099415,-1.625,-0.6875,-5.6875
1480519107128493,-2.9375,-2.1875,-8.0625
1480519107142029,-4.25,-3.5625,-6.75
1480519107159575,-3.75,-2.25,-3.5
1480519107181132,-4.1875,-1.125,-2.6875
1480519107202188,-2.6875,-1.9375,-3.0625
1480519107224748,-4,-1,-2.625
1480519107241296,-2.4375,-0.4375,-1.6875
1480519107261847,-1,-1.1875,-1.6875
1480519107278392,-1.6875,-1.8125,-0.8125
1480519107315489,-0.4375,-1.5625,-0.4375
1480519107322007,0.375,-0.875,0.25
1480519107354593,1,-0.25,0.75
1480519107362114,0.3125,-0.3125,1
1480519107384172,0.8125,0.0625,1.0625
1480519107404727,0.6875,0.125,1.3125
1480519107421271,0.6875,-1.125,0.375
1480519107443330,0.375,-1.125,0.375
1480519107458370,0.125,-0.875,0.25
1480519107480930,0.75,-0.25,-0.0625
1480519107503490,0.3125,0.125,-0.3125
1480519107526050,-0.5,0.25,-0.125
1480519107541592,0.0625,0.4375,0.0625
1480519107563651,0.1875,0.25,0.0625
1480519107593730,0.6875,0.125,-0.125
1480519107600748,0.5,0.5625,0
1480519107623312,-0.125,1,0.125
1480519107638348,0.125,0.8125,-0.25
1480519107660908,-0.6875,0.25,-0.4375
1480519107689484,-0.3125,0.25,-0.625
1480519107698008,-0.375,0.3125,-0.625
1480519107721068,-0.25,0,-0.1875
1480519107743628,-0.25,-0.3125,0.3125
1480519107757667,-0.25,-0.6875,0.5
1480519107781228,0.1875,-0.5625,0.1875
1480519107803287,0.4375,-0.375,-0.0625
1480519107824844,0,-0.375,-0.5
1480519107848407,0.3125,0.0625,-1.25
1480519107871969,-0.0625,0.5625,-1.6875
1480519107884503,0.25,1.375,-1.75
1480519107901048,0.0625,1.1875,-1.625
1480519107923608,-0.25,1.1875,-0.375
1480519107944663,-0.0625,0.9375,-0.1875
1480519107968727,0.375,1.625,-0.375
1480519107984270,0.0625,1.125,0.375
1480519108004823,-0.125,0.5,1.3125
1480519108020866,0.3125,-0.625,0.25
1480519108043928,-0.1875,-0.4375,0.625
1480519108072002,-0.6875,-0.5,0.8125
1480519108081026,-0.25,-0.5625,0.25
1480519108103586,-0.6875,-1.125,-0.125
1480519108124643,-0.75,-0.75,-0.5
1480519108141187,-0.4375,-0.4375,-0.375
1480519108163746,-0.25,-0.9375,0.0625
1480519108184301,-0.375,-0.875,0.4375
1480519108200845,1,-0.5625,-0.1875
1480519108223405,0.375,-0.6875,-0.0625
1480519108244463,0.375,-0.3125,0.0625
1480519108261005,1.3125,0.0625,0
1480519108283565,0.8125,0.1875,0.0625
1480519108307128,0.4375,0.1875,-0.125
1480519108321165,0.375,0.3125,-0.5625
1480519108350744,0.3125,0.1875,-0.5625
1480519108365783,-0.375,-0.1875,-0.6875
1480519108380825,-0.8125,-0.375,-0.875
1480519108403383,-1.125,-0.75,-1.0625
1480519108425944,-1.125,-0.8125,-0.875
1480519108440486,-1.125,-0.75,-0.375
1480519108465549,-1.5,-0.9375,0.0625
1480519108493624,-1.3125,-1.3125,0.3125
1480519108500141,-1.1875,-1.5625,0.25
1480519108523705,-0.4375,0,-0.1875
1480519108545762,-0.125,0.4375,0
1480519108560300,-0.0625,0.0625,-0.125
1480519108589378,-0.375,0.125,0.0625
1480519108605922,0.5,0.5,0.1875
1480519108620460,0.0625,0.5,0.375
1480519108644023,0,0.8125,0.5625
1480519108666082,-0.1875,1.3125,0.5
1480519108680119,-0.5625,1.25,0.4375
1480519108703683,0,1.125,0.5
1480519108742285,-0.5625,0.8125,1
1480519108747298,-0.1875,0.625,0.8125
1480519108770861,-0.375,0.6875,1
1480519108785901,-0.125,0.5625,0.9375
1480519108806959,-0.125,0.4375,0.75
1480519108823501,-0.3125,0.5625,0.625
1480519108853580,0,0.1875,0.5
1480519108867117,0.125,0.25,0.3125
1480519108883662,0.0625,0.375,0.3125
1480519108906723,0.0625,0.5625,0.3125
1480519108926775,0.375,0.0625,0.25
1480519108943820,0.875,0,0.125
1480519108965961,0.5,0.25,0.375
1480519108986935,-0.6875,0.4375,0.3125
1480519109017016,-0.75,0.125,0.3125
1480519109026042,-0.5,0.0625,-0.0625
1480519109048600,-0.5625,-0.125,-0.3125
1480519109069656,-0.5,0.125,-0.5
1480519109093719,-0.6875,0.375,-0.375
1480519109107256,-0.75,0.625,-0.25
1480519109123800,-0.8125,0.625,-0.0625
1480519109145858,-0.6875,0.5625,-0.125
1480519109166914,-0.75,0.375,0.125
1480519109183960,-0.875,0,0.75
1480519109206018,-1.4375,-0.5,1.0625
1480519109229080,-2.0625,-1.1875,1.875
1480519109243618,-1,-1.1875,1.1875
1480519109266178,-0.5,-0.4375,0.875
1480519109288739,0,-0.125,0.875
1480519109304280,-0.375,-0.5,0.4375
1480519109325838,0,0.1875,0.1875
1480519109348398,0.375,0.4375,0
1480519109369453,-0.25,-0.0625,-0.25
1480519109385997,-0.25,-0.125,-0.1875
1480519109409059,-0.0625,-0.1875,-0.125
1480519109422595,-0.4375,-0.3125,0.25
1480519109446157,-0.5,-0.4375,0.5
1480519109475740,-0.25,-0.3125,0.9375
1480519109483256,-0.375,-0.5625,0.5625
1480519109505816,0,-0.125,0.375
1480519109528375,0.0625,0.0625,0.1875
1480519109542915,0.0625,-0.375,-0.0625
1480519109573498,0,-0.125,0.0625
1480519109588537,0.375,0.125,-0.0625
1480519109603074,0.5,0.5,-0.5
1480519109626136,0.5,1.25,-0.875
1480519109648695,0.75,2.9375,-0.75
1480519109662733,1.9375,2.625,-2.5
1480519109685795,-1.875,0.1875,-2.375
1480519109708355,-1.6875,-0.4375,-2.1875
1480519109736944,-0.875,-0.4375,0.0625
1480519109745955,-0.5,0.25,0
1480519109768515,-1.625,-0.75,-0.25
1480519109791077,-1.4375,-1.6875,0.8125
1480519109806115,-5.8125,-2.125,1.4375
1480519109828674,-3.5,-0.9375,5
1480519109849731,-1.3125,1.1875,6.375
1480519109865773,1.3125,-1.3125,4
1480519109888835,2.4375,-2.75,2.1875
1480519109909420,3.5,-1.3125,0.375
1480519109925969,4.5,-0.375,-1.125
1480519109948493,2.9375,-0.9375,-3.4375
1480519109969551,0.6875,-0.25,-2.5625
1480519109986095,-0.1875,1.75,-1.0625
1480519110014718,-0.1875,1.375,-0.125
1480519110029711,-0.5,0.4375,-0.0625
1480519110045752,-0.8125,0.125,0
1480519110068312,-0.1875,0.5,-0.5
1480519110073827,-0.375,0.625,-0.9375
1480519110096387,-1.0625,1,-1.3125
1480519110111427,-0.625,1.5,-1.625
1480519110133988,0,1.0625,-0.5
1480519110156547,-0.1875,1,-0.625
1480519110171587,-0.25,0.875,-1
1480519110193646,-0.0625,0.6875,0.0625
1480519110216205,-0.5625,0.625,-0.25
1480519110231251,-0.3125,0.6875,-0.0625
1480519110253806,-0.5625,0.6875,0.0625
1480519110276370,-0.6875,0.9375,-0.1875
1480519110291908,0.625,1.0625,-0.5625
1480519110321486,0.25,1,-0.8125
1480519110338029,-0.375,1.125,-1.5
1480519110351565,0,0.8125,-1.5625
1480519110374125,-0.5,0.5625,-1.625
1480519110396184,-0.875,0.375,-1.3125
1480519110411225,-0.375,0.9375,-1
1480519110436792,-1,1.25,-1
1480519110456344,-0.8125,0.8125,-0.875
1480519110471384,-1,0.375,-1.0625
1480519110493944,-0.0625,0.25,-0.5625
1480519110524526,2.375,0.125,0.5625
1480519110533048,3.5625,0.6875,2.25
1480519110554104,4.3125,0.5625,1.9375
1480519110576163,3.9375,0.5625,0
1480519110599224,1.25,1.1875,-0.6875
1480519110613762,0.8125,1.625,1
1480519110644345,1.375,0.3125,1.875
1480519110652868,-0.75,-0.6875,1.1875
1480519110676932,-0.125,0.3125,1.125
1480519110696488,-0.8125,1.25,0.125
1480519110712525,-1.875,1.8125,-1.1875
1480519110734083,-1.8125,1.5625,-1.625
1480519110756643,-2.0625,1.6875,-1.1875
1480519110772686,-2.125,1.5,-1.125
1480519110801262,-1.5625,1.3125,-1
1480519110816302,-2.1875,0.875,-0.75
1480519110832846,-1.625,0.5625,-1.625
1480519110853901,-2.4375,0.5625,-2.0625
1480519110876472,-1.9375,0,-1.375
1480519110893006,-2.125,-0.8125,-0.625
1480519110914061,-2.375,-1,-0.4375
1480519110939130,-1.75,-0.875,-0.125
1480519110958681,-1.8125,-1.0625,-0.3125
1480519110973720,-1.375,-1.5,-0.3125
1480519110996281,-0.875,-1.6875,-0.375
1480519111014328,-1.125,-1.75,-0.3125
1480519111035385,-0.75,-1.5625,-0.4375
1480519111056441,-0.4375,-1.3125,-0.8125
1480519111074489,-0.6875,-1.4375,-0.9375
1480519111094040,-0.6875,-1.6875,-0.875
1480519111117603,0.1875,-2.1875,-1.1875
1480519111141669,-0.3125,-1.75,-0.875
1480519111155203,-0.25,-1,-0.375
1480519111176261,0.375,-0.8125,-0.1875
1480519111199320,-0.0625,-1.125,0
1480519111213859,0.3125,-1,0.375
1480519111236419,0.75,-0.8125,0.3125
1480519111267502,0.8125,-0.8125,-0.125
1480519111274521,0.75,-0.25,-0.375
1480519111303597,0.25,0.3125,-0.125
1480519111319139,0.625,0.25,0.0625
1480519111333677,0.5,0,-0.125
1480519111356237,0.875,-0.1875,-0.1875
1480519111378801,0,0.5625,0.3125
1480519111393838,0.3125,0.4375,-0.3125
1480519111416399,0.125,0.0625,-0.25
1480519111438958,0.1875,0.125,0
1480519111453997,0.125,-0.1875,0.0625
1480519111476558,0.125,-0.1875,0
1480519111499306,-0.125,-0.3125,-0.125
1480519111515160,-0.25,-0.6875,-0.3125
1480519111536444,-1.3125,-1,-0.0625
1480519111576057,-1.3125,-1,0.8125
1480519111578055,-0.3125,-1.1875,1
1480519111596604,-0.25,-2.0625,-0.375
1480519111618663,0.9375,-0.9375,0
1480519111633704,0.625,-1.25,0.125
1480519111656262,0.25,-0.9375,-0.375
1480519111681831,0.3125,-0.6875,-0.375
1480519111693863,0.625,-1.0625,-0.5625
1480519111716423,0.9375,-0.5,-0.4375
1480519111738983,0.5,-0.1875,-1
1480519111757031,0.375,-0.1875,-1.1875
1480519111776082,0.25,-0.1875,-1.4375
1480519111798642,-0.125,-0.0625,-1.4375
1480519111815186,0,-0.1875,-1.625
1480519111836242,0.3125,-0.1875,-1.5
1480519111858801,-0.1875,-0.0625,-1.3125
1480519111875346,0,0,-1.25
1480519111896402,0.0625,-0.125,-1.0625
1480519111918961,-0.0625,0.4375,-0.625
1480519111935506,0.625,0.4375,0.25
1480519111956562,0.625,0.1875,0.3125
1480519111987143,0.625,0,0.5
1480519111995165,0.1875,-0.25,1.0625
1480519112016220,0.1875,-0.8125,0.75
1480519112038780,0.25,-0.5,1.0625
1480519112055324,-0.125,-0.375,1
1480519112076385,0,0,0.75
1480519112101949,0,0.25,0.6875
1480519112123005,-0.125,0.1875,0.625
1480519112136543,-0.0625,0.375,0.4375
1480519112158599,-0.25,0.25,0.625
1480519112177650,-0.125,0.25,0.5625
1480519112196211,-0.0625,0.125,0.5625
1480519112218759,0.125,0.25,0.5
1480519112237316,0.125,0.1875,0.1875
1480519112256360,0.4375,0.4375,0.1875
1480519112278919,0.375,0.375,-0.125
1480519112296977,0.1875,0.5,-0.1875
1480519112316519,0.0625,0.625,-0.1875
1480519112347602,0.125,0.75,-0.4375
1480519112357140,0.3125,0.9375,-0.5625
1480519112376178,-0.1875,1,-0.1875
1480519112400242,0.5,1.1875,-0.5625
1480519112416788,0.1875,1.125,-0.5
1480519112436338,-0.8125,1.375,-0.0625
1480519112458897,-0.125,1.125,-0.25
1480519112476946,-0.5625,0.625,-0.5625
1480519112512541,-0.1875,0.4375,-0.5625
1480519112519057,0.0625,0.25,-0.5625
1480519112536605,0,0.25,-0.3125
1480519112556157,-0.125,0.0625,-0.0625
1480519112578717,-0.3125,-0.25,0.0625
1480519112596765,-0.3125,-0.5625,0.125
1480519112616316,-0.0625,-0.5625,0.1875
1480519112638877,-0.4375,-0.5625,0.25
1480519112656925,-0.3125,-0.8125,0.0625
1480519112676481,-0.4375,-0.625,0.3125
1480519112699036,-0.5,-0.625,0.25
1480519112721095,-0.25,-0.3125,-0.0625
1480519112737640,-0.75,-0.5625,-0.25
1480519112758695,-0.6875,-0.3125,-0.125
1480519112781255,-0.5625,-0.1875,-0.5625
1480519112803815,-0.375,-0.125,-0.6875
1480519112818855,-0.75,0.125,-0.8125
1480519112841415,-0.375,0.1875,-0.625
1480519112857960,-0.5,0.3125,-0.3125
1480519112879016,-0.5625,0.1875,-0.0625
1480519112901074,-0.6875,0.0625,-0.1875
1480519112917618,-0.9375,0.125,-0.0625
1480519112938674,-0.5,0.0625,-0.3125
1480519112964242,-0.625,-0.125,-0.125
1480519112979283,-0.5625,-0.0625,-0.1875
1480519112998980,-0.5,-0.3125,0.125
1480519113021395,-0.25,-0.125,0.1875
1480519113039442,-0.1875,-0.25,0.1875
1480519113066514,-0.25,-0.25,0.0625
1480519113084061,0.0625,0.0625,-0.1875
1480519113099101,0,0.0625,-0.25
1480519113118652,-0.5625,-0.0625,-0.125
1480519113141213,-0.625,0.125,0
1480519113159261,-0.875,0.0625,-0.125
1480519113178812,-0.875,-0.1875,-0.5
1480519113201373,-0.4375,-0.125,-0.4375
1480519113219421,-0.6875,0,-0.3125
1480519113246493,-1,0,0.1875
1480519113261536,-1,-0.3125,0.4375
1480519113283592,-1.375,-0.8125,0.5
1480519113298632,-1.625,-1,1.125
1480519113321192,-0.9375,-0.5625,2.25
1480519113339240,-1.0625,-0.3125,2.4375
1480519113358792,0.75,-0.3125,1.5625
1480519113381352,0.25,-0.4375,1
1480519113399662,0.3125,0.375,0.375
1480519113418952,0.125,0.5625,0.3125
1480519113441523,0.0625,0.5,0.8125
1480519113459059,0.25,0.1875,0.875
1480519113482621,0.625,0.3125,-0.0625
1480519113501170,0.8125,0.5,-0.4375
1480519113519218,0.1875,0.875,-1.0625
1480519113538771,-0.0625,1,-2
1480519113561330,1.3125,0.75,-1.875
1480519113579880,-0.0625,-0.5625,-0.0625
1480519113600434,0.1875,-0.4375,1.3125
1480519113624498,-0.875,-0.25,3.125
1480519113644050,0.9375,-0.3125,2.125
1480519113660096,0.4375,0.3125,1.4375
1480519113682653,1.8125,0.0625,1.6875
1480519113699197,2.875,1.25,1.375
1480519113720253,0.8125,2.75,1.5
1480519113741310,2.875,0.25,1.25
1480519113759357,1.1875,-1.5625,2.125
1480519113780413,2.25,-0.875,2.8125
1480519113804477,3.875,0.25,2.4375
1480519113819528,2,1.875,0.375
1480519113840073,1.3125,1.25,-0.6875
1480519113864136,0.9375,0.5625,-0.0625
1480519113879176,-0.75,0.1875,0.125
1480519113901737,0.8125,0.3125,-0.25
1480519113921287,-0.5625,-0.125,-0.5
1480519113939337,-0.6875,-0.3125,-0.75
1480519113967913,-0.4375,-0.0625,-0.6875
1480519113981448,-1.25,0.375,-0.8125
1480519113999495,-1.375,-0.25,-0.875
1480519114022056,-1.25,-0.625,-0.5625
1480519114041609,-1.1875,-0.375,0
1480519114071188,-0.3125,-0.4375,-0.0625
1480519114081715,0.0625,-0.75,0.125
1480519114101266,-0.125,-1,0.25
1480519114119316,0.375,-0.875,0.25
1480519114141875,0.6875,-0.875,0.0625
1480519114161427,0.625,-0.875,0.1875
1480519114179474,0.375,-0.5,0.375
1480519114202536,-0.25,-0.4375,0.4375
1480519114221085,0.1875,-0.4375,0.3125
1480519114239134,0.1875,-0.4375,0.375
1480519114264702,-0.125,-0.375,0.375
1480519114282750,-0.25,-0.0625,0.375
1480519114299294,-0.5,0.0625,0.1875
1480519114321853,-0.6875,-0.0625,-0.125
1480519114348925,-1.1875,-0.5,-0.625
1480519114363965,-0.8125,-1.875,-1.9375
1480519114381513,-0.5625,-2.3125,-3.4375
1480519114401565,-2.125,0.6875,-2.9375
1480519114426633,-0.3125,1.8125,-3.875
1480519114446184,-1.8125,-0.8125,-2.4375
1480519114470248,-3.5625,-0.5,-0.4375
1480519114483784,-1.8125,0.5625,0.8125
1480519114501832,-0.1875,0.875,0.625
1480519114532298,0.125,0.3125,0.4375
1480519114543944,0.25,0,0.375
1480519114575031,0.75,0.1875,0.3125
1480519114581544,0.625,-0.8125,-0.25
1480519114603603,0.3125,-1.625,-1.125
1480519114621651,0.3125,-1.5,-1.125
1480519114642707,0.0625,-1.3125,-0.625
1480519114663763,-0.25,-1,-0.0625
1480519114682312,-0.4375,-1.0625,0.25
1480519114702867,-0.8125,-0.9375,0.25
1480519114731444,-0.4375,-0.9375,0.1875
1480519114741483,-0.25,-1.0625,0.125
1480519114763027,-0.625,-1.0625,0.25
1480519114783581,-0.5,-1.0625,0
1480519114801629,0,-0.5625,0.0625
1480519114824190,-0.0625,-0.5,0.25
1480519114845247,0,-0.125,0.25
1480519114861790,0.0625,-0.0625,0.125
1480519114882845,0.1875,0.0625,-0.4375
1480519114903901,0.0625,0.3125,-0.5
1480519114921950,-0.3125,0.1875,-0.125
1480519114944009,-0.125,0.25,0
1480519114964061,0.0625,0.375,-0.0625
1480519114993640,-0.25,0.3125,-0.0625
1480519115011689,-0.25,0.1875,-0.0625
1480519115023720,-0.4375,-0.1875,0
1480519115041769,0.125,-0.375,0.0625
1480519115064329,0.4375,-0.5625,0
1480519115083880,0.1875,-0.6875,-0.25
1480519115101931,0.75,-0.5625,-0.3125
1480519115124488,0.6875,-0.3125,0.25
1480519115144040,0.8125,-0.375,0.5625
1480519115166099,1.125,0,2
1480519115184147,1.6875,-0.375,3
1480519115203699,1.8125,0,2.6875
1480519115221748,2.375,1.1875,2.5
1480519115244307,2.4375,0.4375,1.125
1480519115263859,1.0625,-1.25,-0.1875
1480519115287923,0.3125,-1.5,0.125
1480519115311486,0.0625,-1.6875,0.0625
1480519115324019,-0.0625,-0.8125,-0.375
1480519115341566,-0.125,-0.4375,-1.25
1480519115364126,-0.375,0.1875,-1.6875
1480519115383677,-1.125,-0.125,-0.875
1480519115401726,-0.4375,-0.4375,-0.375
1480519115424287,-0.8125,-0.625,-0.25
1480519115451358,-0.625,-0.0625,-1.0625
1480519115461887,-3.625,0.75,0.375
1480519115484948,-4.5625,1.1875,0.9375
1480519115503997,-5,-3.5,2.1875
1480519115522046,-0.625,-0.125,2.8125
1480519115544106,1.5,0.75,1.625
1480519115566665,2.5625,0.625,0.1875
1480519115581704,0.5625,0.9375,-0.75
1480519115604264,2.4375,1.1875,-2
1480519115642366,0.625,0.8125,-2.125
1480519115646376,-0.3125,0.8125,-1.6875
1480519115664426,0,0.8125,-1.25
1480519115685480,-0.75,0.5625,0
1480519115701524,-0.6875,0.1875,0.4375
1480519115724083,-0.5625,0.25,0.25
1480519115745139,-0.625,0.1875,-0.125
1480519115762186,-1.4375,0.125,-0.5625
1480519115790260,-0.875,0.125,-0.5625
1480519115805300,-0.75,0.3125,0.0625
1480519115821844,-0.4375,-0.125,0.375
1480519115844404,0.4375,-0.0625,0.4375
1480519115865459,0.375,-0.5625,0.6875
1480519115881502,0,-0.6875,0.375
1480519115904062,0.625,-0.625,-0.3125
1480519115926623,0.1875,-0.5625,-0.4375
1480519115953698,-0.1875,-0.0625,-0.25
1480519115964222,-0.0625,-0.1875,-0.875
1480519115986782,-0.5,-0.4375,-0.9375
1480519116006337,-0.5625,-0.6875,-0.6875
1480519116024382,-0.25,-0.875,-0.625
1480519116045940,-0.3125,-0.5625,-0.1875
1480519116074014,-0.3125,-0.1875,-0.4375
1480519116084041,-0.0625,-0.5625,-0.375
1480519116106601,0.125,-0.0625,-0.8125
1480519116126153,0.4375,-0.25,-1.375
1480519116148713,0.25,-0.0625,-1
1480519116166761,0.0625,0.3125,-0.5
1480519116186312,0.4375,0.5625,0.375
1480519116204361,-0.0625,0.25,0.3125
1480519116234440,-0.25,0.3125,-0.25
1480519116246473,-0.375,-0.25,-0.125
1480519116266025,0.1875,-0.1875,-0.0625
1480519116286580,0.1875,-0.5625,0.125
1480519116307134,0,-0.25,-0.1875
1480519116323177,-0.0625,-0.0625,-0.0625
1480519116345737,-0.0625,-0.5,0
1480519116368298,-0.125,-1.0625,-0.625
1480519116383336,-0.3125,-1.875,-1.3125
1480519116405898,-0.4375,-2.3125,-1.25
1480519116426953,-0.4375,-2.1875,-0.8125
1480519116443496,-0.125,-1.625,-0.125
1480519116466057,-0.5,-0.875,0.1875
1480519116487113,-0.75,-0.5,-0.125
1480519116509672,-0.4375,-0.3125,-0.1875
1480519116525715,-0.4375,0.125,0
1480519116546771,-0.0625,0.0625,-0.5
1480519116563818,-0.1875,-0.0625,-0.5
1480519116585875,0.1875,0.4375,-0.625
1480519116606932,0.125,0.625,-0.75
1480519116623476,-0.0625,0.6875,-0.75
1480519116646035,-0.4375,0.625,-0.8125
1480519116674620,-0.1875,0.375,-0.875
1480519116691157,-0.3125,0.25,-1.0625
1480519116706196,0.0625,0.25,-1.5
1480519116726750,-0.125,0.5625,-1.3125
1480519116743294,-0.3125,0.8125,-1.375
1480519116766186,-0.5625,0.5625,-1.25
1480519116786910,-0.9375,-0.3125,-0.6875
1480519116809972,-0.875,-0.1875,-0.25
1480519116832030,-0.3125,-0.4375,0.125
1480519116848575,-0.9375,-0.75,0.1875
1480519116863615,-0.375,-0.75,0
1480519116886174,-0.875,-0.625,0.5
1480519116908735,-0.375,-0.3125,0.3125
1480519116923276,-0.9375,-0.625,0.5
1480519116953353,-0.5625,-0.5,0
1480519116968393,-0.4375,-0.3125,-0.0625
1480519116983435,-0.0625,0.5,0
1480519117005994,-0.125,0.5625,-0.25
1480519117028554,0.4375,1,-0.5625
1480519117042590,0,0.75,-0.875
1480519117066153,-0.875,0.5625,-0.8125
1480519117089718,0.125,0.5,0.375
1480519117102751,0.3125,0.5625,0.375
1480519117125812,-0.0625,0.375,0.75
1480519117148372,-0.9375,0.1875,1.125
1480519117162911,0.375,0,0.6875
1480519117192990,0.125,-0.25,0.5625
1480519117208535,-0.375,-0.375,0.5
1480519117229588,0.375,-0.0625,0.125
1480519117246133,0.125,-0.125,0.3125
1480519117268190,0.6875,0.0625,0.1875
1480519117282729,0.4375,0.0625,0.0625
1480519117305791,0.3125,0.1875,0.25
1480519117328351,-0.3125,0.1875,0.375
1480519117365950,-0.5,-0.125,0.1875
1480519117373471,-0.375,-0.125,0.375
1480519117388511,0.0625,-0.125,0.8125
1480519117409567,0.0625,0.0625,1.25
1480519117426111,0.5,0.0625,1.75
1480519117455188,0.3125,0,1.75
1480519117470730,0.125,-0.125,1.8125
1480519117485826,0.625,0.25,1.75
1480519117508832,0.5625,0.5625,1.75
1480519117529887,0.8125,1,1.8125
1480519117545930,0.75,1.5625,2.5625
1480519117584030,1.375,2.8125,3.5
1480519117589546,1.5,3.3125,4.375
1480519117606103,2.4375,3.5,3.1875
1480519117628649,2.5,0.375,2.4375
1480519117649705,1.875,-2.0625,0.8125
1480519117673268,1.0625,0.8125,3
1480519117695828,2.625,1.5,3.5
1480519117709364,1.5,2.3125,3.8125
1480519117725909,2.1875,3.25,2.75
1480519117748469,2.125,3,1.3125
1480519117769524,2,2.1875,-2.0625
1480519117786068,-0.1875,0.1875,-2.1875
1480519117809631,-0.25,-1.5,-1.9375
1480519117831188,-1.125,-0.1875,1.1875
1480519117846228,-0.5,0.4375,2
1480519117868287,0,0.6875,0.5625
1480519117890848,-0.25,-0.25,-2.125
1480519117905887,-1.5,-2.4375,-3.4375
1480519117928447,-0.875,-5.125,-5.1875
1480519117951007,-2.5625,-4.5,-4.4375
1480519117973569,-0.9375,-2.25,-3.5625
1480519117988607,-1,-2.25,-4.25
1480519118011167,-2.25,-2.625,-6.4375
1480519118025207,-3.4375,-1.1875,-4.4375
1480519118048265,-3.1875,-0.0625,-2
1480519118070826,-2.0625,-1.3125,-1.5
1480519118093386,-2.125,-1.3125,-1.9375
1480519118108428,-1.4375,-1.3125,-0.5
1480519118130986,-1.125,-1.4375,0.125
1480519118145023,-0.625,-1.875,0.75
1480519118168084,-1,-2.0625,1.5
1480519118191145,-0.5625,-1.75,2.1875
1480519118205183,0,-1.8125,2.375
1480519118228244,0.1875,-1.5,2.1875
1480519118256823,0.4375,-1.125,2.3125
1480519118271860,0.25,-0.625,3
1480519118288405,0.8125,-0.0625,3.625
1480519118310965,0.875,0.1875,3.3125
1480519118332021,0.875,-0.4375,2.25
1480519118348564,0.1875,-0.5,1
1480519118371626,0.125,0.0625,0
1480519118392180,0.0625,0.25,-0.125
1480519118414238,-0.4375,0.125,0.5
1480519118430783,-0.375,0.5,1.4375
1480519118451839,-0.625,0.25,2.125
1480519118468383,-1,-0.8125,1.375
1480519118490944,-0.375,-0.4375,0.375
1480519118511999,-0.375,0.5625,-1.0625
1480519118528543,-0.875,1,-2.1875
1480519118551604,-1,0.25,-3.0625
1480519118572159,-1.375,0,-2.25
1480519118588203,-1.3125,0.5,-1
1480519118610762,-0.4375,0.75,-0.3125
1480519118633322,0.1875,1,-0.125
1480519118648361,0.8125,1.125,0.1875
1480519118670922,0.4375,1.4375,0.3125
1480519118691978,0.625,0.8125,-0.3125
1480519118709028,0.75,0.25,-1
1480519118731082,0.8125,0.0625,-1.25
1480519118753140,0.8125,-0.0625,-1.125
1480519118768180,0.1875,0,-0.5
1480519118790741,0.125,0.125,-0.4375
1480519118813300,-0.5,0.1875,-0.0625
1480519118828340,-0.6875,0.4375,0
1480519118850900,-0.75,0.5625,-0.0625
1480519118873963,-0.6875,0.25,0
1480519118896022,-1.125,0.125,-0.0625
1480519118911060,-0.4375,0.4375,-0.25
1480519118933621,-0.4375,0.25,-0.6875
1480519118947659,-0.5625,0.3125,-0.75
1480519118970719,-0.25,0.4375,-0.6875
1480519118993279,-0.25,0.4375,-0.4375
1480519119008320,-0.25,0.25,-0.1875
1480519119038901,-0.125,0.4375,-0.3125
1480519119053439,0.125,0.5,-0.0625
1480519119067476,0.25,0.375,0.3125
1480519119091040,0.1875,0.25,0.375
1480519119129642,0.4375,0.25,0.3125
1480519119135658,0.3125,0.0625,0.0625
1480519119150698,0.25,0,-0.25
1480519119173259,0.0625,0.0625,-0.4375
1480519119201834,-0.4375,-0.1875,-0.8125
1480519119210859,-1,-0.4375,-0.5625
1480519119233418,-1.4375,-0.875,0.5
1480519119254474,-1.4375,-2,1.25
1480519119271020,-1.0625,-1.8125,1.8125
1480519119293578,0.0625,-1.3125,0.25
1480519119316137,1.0625,-0.5,0.625
1480519119330678,0.375,-0.125,1.375
1480519119353742,0.625,0,1
1480519119374292,0.875,0.125,0.8125
1480519119390838,0.625,-0.5,0.1875
1480519119413397,0.9375,-0.4375,-0.125
1480519119434453,0.5,-0.625,-0.5625
1480519119451498,0.3125,-0.5,-0.25
1480519119479573,0.125,-0.4375,-0.1875
1480519119494613,0.375,-0.4375,0.125
1480519119510655,0.3125,-0.125,-0.0625
1480519119533216,0.125,0.0625,0.25
1480519119561791,-0.125,-0.1875,0.375
1480519119578336,-0.375,-0.1875,0.375
1480519119593376,0,-0.1875,-0.0625
1480519119614431,0.1875,0.3125,-0.5
1480519119646015,0.6875,0.125,-1.25
1480519119653535,0.3125,0.5625,-1.1875
1480519119674591,0.75,1.3125,-1.4375
1480519119699658,0.9375,1.9375,-1.6875
1480519119713194,-0.3125,1.5625,-1.5625
1480519119743276,0.9375,1,0.25
1480519119756811,0.3125,1,1.3125
1480519119773356,0.75,0.5,1.5625
1480519119795914,0.625,0.4375,2.125
1480519119810454,0.8125,0.1875,1.6875
1480519119841035,1.0625,0.3125,1.6875
1480519119856075,0.4375,0.5625,0.6875
1480519119870111,0.125,0.6875,-0.1875
1480519119893674,0.1875,0.8125,0.0625
1480519119915733,-0.125,0.8125,0.8125
1480519119930284,0.1875,1.625,1
1480519119953333,0.6875,1.875,1.375
1480519119975893,1.125,1.0625,1.375
1480519119990433,0.8125,0.75,1.625
1480519120013494,0.9375,-0.1875,1.3125
1480519120036554,-0.125,-1,0.75
1480519120050091,-0.3125,-0.6875,-0.1875
1480519120073653,-0.5,-1.0625,-0.75
1480519120095712,-0.1875,-2,-1.6875
1480519120116768,-1.125,-1,-1.5625
1480519120133312,-0.625,0.125,-2.3125
1480519120155873,-0.9375,0.875,-2.625
1480519120176927,-1.8125,1.3125,-2
1480519120193472,-1.1875,0.3125,-1.5
1480519120216032,-1.4375,0.1875,-1.125
1480519120237087,-0.4375,-0.375,-0.3125
1480519120253631,-0.0625,-0.375,0
1480519120283210,0.625,-0.125,0.3125
1480519120296747,0.4375,-0.4375,0.375
1480519120313291,0.75,-0.9375,0.125
1480519120336352,0.625,-1.4375,0.1875
1480519120356907,0.4375,-0.9375,0.3125
1480519120373452,0.0625,-0.75,0.0625
1480519120396011,-0.5,-0.6875,0.8125
1480519120418069,-0.1875,-0.4375,1.875
1480519120433611,-0.8125,-1.125,3.125
1480519120456171,0.1875,-2.125,1.6875
1480519120477239,0.1875,-0.6875,1.75
1480519120493271,0.5,-0.5625,0.9375
1480519120515829,-0.5625,-0.25,-0.125
1480519120536885,-0.25,0.125,-0.625
1480519120560949,-0.0625,-0.125,-1.125
1480519120576491,-0.0625,0,-1.125
1480519120597051,-0.4375,0.0625,-1.25
1480519120613589,-1,0.3125,-1
1480519120636149,-1.125,0.25,-0.625
1480519120658207,-1.375,0,-0.5
1480519120673249,-0.375,0.25,-0.625
1480519120695808,-0.5,0.5,-0.3125
1480519120724385,-0.5625,0.5625,-0.4375
1480519120733411,-0.6875,0.1875,-0.3125
1480519120755969,-0.6875,-0.25,-0.375
1480519120778529,-0.4375,-0.625,-0.25
1480519120792565,0.3125,-0.8125,-0.25
1480519120815626,0.3125,-0.9375,0.1875
1480519120839191,0.4375,-1.0625,0.625
1480519120852726,0.3125,-1.0625,0.6875
1480519120875787,0.3125,-0.9375,0.5625
1480519120898347,0.3125,-0.875,0.5625
1480519120912885,0.3125,-1.1875,0.375
1480519120935961,0.1875,-1.3125,0.125
1480519120958507,0.0625,-0.875,-0.125
1480519120973549,-0.3125,-0.375,-0.125
1480519120996107,-0.5,-0.25,-0.375
1480519121018166,-0.5625,-0.0625,-0.625
1480519121032703,-0.5625,0.375,-0.9375
1480519121055766,-0.25,0.5625,-1.125
1480519121078326,-0.8125,0.4375,-1.0625
1480519121092875,-0.6875,0.25,-0.8125
1480519121115926,-0.8125,0,-0.75
1480519121138486,-0.8125,0,-0.75
1480519121159541,-0.5625,-0.1875,-1.375
1480519121176085,-0.4375,0.0625,-1.5625
1480519121198646,-0.4375,0.5625,-1.3125
1480519121219701,-0.5625,0.4375,-0.875
1480519121235744,-0.125,-0.1875,0.0625
1480519121258806,-0.375,-0.125,-0.1875
1480519121279361,0.1875,-0.1875,-0.5625
1480519121295904,-0.0625,-0.4375,-0.0625
1480519121318464,-0.125,-0.9375,-0.3125
1480519121339520,0.5625,-1,-0.5
1480519121356065,0.375,-0.3125,-0.9375
1480519121378624,0.25,0.125,-1.125
1480519121399680,-0.0625,0.0625,-1.3125
1480519121423243,-0.4375,0,-1.25
1480519121438283,-0.1875,-0.3125,-1.0625
1480519121459339,-0.375,-0.9375,-0.625
1480519121476384,0,-1.125,-0.3125
1480519121498451,0.1875,-1.0625,-0.1875
1480519121521003,0.4375,-1.0625,0.25
1480519121536045,0.625,-1.25,0.4375
1480519121558603,0.625,-1.125,0.625
1480519121580661,0.6875,-1.3125,0.9375
1480519121595702,0.5,-1.3125,1.3125
1480519121618262,1.25,-1.4375,1.375
1480519121640822,1.5,-1.5625,1.1875
1480519121655862,1.625,-1.25,0.9375
1480519121685440,1.75,-0.875,0.75
1480519121702493,1.25,0.25,1.1875
1480519121715018,1.3125,0.6875,1.3125
1480519121738581,0.6875,0.5625,1.5625
1480519121761145,1,-0.3125,1.5625
1480519121783702,0.125,-0.0625,1.875
1480519121798241,0.5625,2.5625,2.25
1480519121821302,1.375,2,1.5
1480519121843361,0.0625,0.375,0.6875
1480519121858401,0.8125,-0.1875,1.0625
1480519121880960,0.1875,-0.5,1.0625
1480519121894998,0.3125,-0.1875,0.625
1480519121918561,0.4375,0.875,0.0625
1480519121948139,0.1875,2.3125,-0.5625
1480519121955159,0.1875,2.0625,-0.875
1480519121978219,-0.125,1.375,-0.25
1480519122000779,-0.375,1.25,0.3125
1480519122015318,0.75,1.5625,0.1875
1480519122038382,0.5625,1.9375,-0.375
1480519122060951,0,1.9375,-0.875
1480519122081995,-0.5625,1.25,-0.9375
1480519122098539,-0.9375,0.5,-1.3125
1480519122127115,-1.25,0,-2.0625
1480519122142155,-1.9375,0.0625,-2
1480519122158198,-1.25,-0.25,-1.9375
1480519122180758,-1.6875,-0.25,-1.8125
1480519122201814,-1.4375,-0.125,-1.125
1480519122224373,-1.5,-0.5625,-0.75
1480519122240920,-1.5625,-1.125,-0.8125
1480519122261974,-1.1875,-1.125,0
1480519122278518,-1.0625,-0.875,0.0625
1480519122301078,-0.1875,-0.5,0.0625
1480519122329654,-0.25,-0.6875,0
1480519122338178,-0.25,-0.6875,0
1480519122360737,0.25,-0.5,0.25
1480519122381792,0.3125,-0.375,0.5625
1480519122406359,0.3125,-0.375,0.8125
1480519122420898,0.5625,-0.25,0.625
1480519122441952,0.375,-0.25,1.3125
1480519122458497,0.5,-0.1875,2.3125
1480519122481057,0.8125,-0.125,3.25
1480519122503616,1,0.875,4.625
1480519122518155,2.5,1.6875,3.125
1480519122540715,3.0625,-0.3125,0.6875
1480519122563778,1.375,-1.25,-0.25
1480519122578315,-0.25,0.5625,1.4375
1480519122600875,0.6875,0.6875,1.1875
1480519122638977,0.25,0.125,0.875
1480519122641484,-0.0625,0.0625,1.1875
1480519122661036,0.1875,0.0625,0.6875
1480519122683595,0.4375,-0.5,-0.25
1480519122697634,-0.625,-0.9375,-1.0625
1480519122726710,-1,0.6875,-0.875
1480519122743254,-1.5625,0.4375,-1.6875
1480519122764812,-1.8125,-0.5625,-1.3125
1480519122780854,-1.8125,-0.8125,-0.5625
1480519122810934,-2.125,-1,-0.125
1480519122817955,-2.6875,-1.125,0.75
1480519122841015,-4.125,-2.125,2.0625
1480519122863574,-4.5625,-4.5,4.25
1480519122877612,-2.8125,-6,3.375
1480519122907692,-1.8125,-5.4375,4.1875
1480519122923234,-0.1875,-2.5,0.75
1480519122937771,1.5,-1.1875,-1.375
1480519122960833,1.125,0.3125,-1.625
1480519122983394,1.0625,0.5,-2.625
1480519122997932,3.3125,0.8125,-3.5625
1480519123027009,2.0625,0.6875,-4
1480519123044054,0.625,1.3125,-3.3125
1480519123064608,0.8125,1.875,-0.875
1480519123088674,0.75,3.1875,-2.125
1480519123103212,-0.375,3.25,-1.5
1480519123124267,0.5625,2.5,-0.375
1480519123140814,-1.6875,3.0625,2.75
1480519123170891,1.5,3.1875,2.6875
1480519123184427,1.75,2.375,1.4375
1480519123201473,1.0625,1.5625,0.8125
1480519123223534,1.875,1.4375,0.8125
1480519123244587,1.6875,0.8125,-0.1875
1480519123261633,0,-1.125,-1.5
1480519123283190,-3.25,-2.8125,0.625
1480519123305752,-4.1875,-4.4375,0.875
1480519123320791,-5.5,-6.8125,4.3125
1480519123343350,-3.1875,-11.75,1.8125
1480519123365910,-3.6875,-8.875,-0.6875
1480519123380951,-0.3125,0.75,-0.3125
1480519123409527,3.3125,0.6875,-5.9375
1480519123424566,1.625,0.3125,-6.75
1480519123440611,0.375,-0.125,-5.1875
1480519123463681,0.75,0.4375,-4.3125
1480519123485729,0.9375,1.625,-3.8125
1480519123501270,0,1.3125,-3.5625
1480519123523832,0.25,2.25,-3.5
1480519123545889,0.125,2.8125,-2.6875
1480519123561431,0.9375,3.75,-2
1480519123583488,0.375,3.5625,-0.25
1480519123612065,2.3125,2.75,0.25
1480519123620087,2.1875,1.4375,0.25
1480519123644652,2.5,1.6875,-0.125
1480519123665870,2.25,1.5,0.375
1480519123680247,1.75,1,0.0625
1480519123703308,0.8125,0.0625,0.625
1480519123726370,0.25,-0.5625,1.0625
1480519123740407,0.5,-0.5625,1.3125
1480519123763469,0.6875,-1,1.1875
1480519123786027,0.125,-1,1.375
1480519123800065,0.25,-0.625,1.1875
1480519123823128,0.5,-0.3125,0.6875
1480519123845686,-0.0625,-0.25,0.25
1480519123860225,-0.3125,-0.25,-0.0625
1480519123889304,-0.375,0.125,0.6875
1480519123919884,-1.625,-1.75,0.6875
1480519123926902,-2.0625,-3.5,0.5
1480519123943446,-0.625,-2.5625,0.375
1480519123973526,-1.6875,0.75,1.5625
1480519123987564,-0.75,-0.75,0.125
1480519124003606,-2.1875,-1.8125,0.5
1480519124032182,-1.3125,-1.3125,-0.4375
1480519124046721,0.625,-0.4375,-1.0625
1480519124063266,-0.125,0.1875,-1.5
1480519124093345,0.625,0.6875,-2.75
1480519124106881,0.8125,1.4375,-2.6875
1480519124123426,-0.3125,0.6875,-0.6875
1480519124152001,0.5,0.625,0.25
1480519124167042,0.0625,-0.375,-0.25
1480519124183585,-0.6875,-0.8125,0.3125
1480519124206145,-0.375,-0.6875,0.3125
1480519124226700,0.3125,-0.875,-0.0625
1480519124243244,0.6875,-0.9375,-0.5
1480519124267809,0.375,-1.25,-0.375
1480519124286860,0.8125,-0.8125,1.25
1480519124303405,1,-1.9375,1.125
1480519124325969,2.6875,-1.625,0.9375
1480519124348524,0.75,-0.6875,0.1875
1480519124363564,0.8125,-1,-0.1875
1480519124386123,-0.9375,-0.8125,-0.0625
1480519124407179,-0.875,-0.25,0.125
1480519124423223,0.4375,0.3125,0.3125
1480519124445783,-1.1875,0.75,0.3125
1480519124475863,-0.3125,1.5,0.25
1480519124483383,0.25,2.4375,-0.25
1480519124505946,0.5625,1.9375,-0.875
1480519124528503,0.375,1.625,-1.3125
1480519124543550,0.6875,1.25,-1.1875
1480519124566103,0.3125,0.6875,-0.5625
1480519124588162,0.8125,0.25,0.125
1480519124602700,1.125,-0.625,0.125
1480519124625762,1.5,-1,-0.125
1480519124648321,1.8125,-0.75,-0.8125
1480519124670882,1.625,-0.625,-1.8125
1480519124685922,1.8125,-0.3125,-2.5625
1480519124708482,1.1875,-0.375,-2.4375
1480519124722519,1.625,0.0625,-2.25
1480519124746081,2.625,0.6875,-1.9375
1480519124768645,2.625,1.125,-1.5
1480519124789699,1.9375,1.125,-1.0625
1480519124805740,2.375,1.5,0.4375
1480519124828801,2.75,2.625,2.5
1480519124842840,3.1875,5,4.5
1480519124865900,3.5,7.125,6.3125
1480519124888462,3,4.5625,5.5
1480519124902999,3.3125,1.875,4.1875
1480519124926060,3,0.25,2.4375
1480519124948118,1.875,-1.625,0.9375
1480519124969676,0.75,-3.3125,0.8125
1480519124985719,-0.5,-4.625,0.0625
1480519125008279,-0.5625,-5.125,-0.9375
1480519125029335,-0.9375,-4.9375,-2.3125
1480519125045879,-1.9375,-3.625,-2.375
1480519125068439,-2.25,-2.3125,-2.3125
1480519125089494,-3,-2.0625,-2.0625
1480519125106041,-3.4375,-1.4375,-1.5
1480519125128600,-3.6875,-1,-2
1480519125149655,-3.625,-0.875,-1.75
1480519125165698,-3,-0.125,-0.9375
1480519125188259,-2.25,0.0625,-0.5625
1480519125209314,-2.4375,0.5625,0.25
1480519125225858,-1.9375,1.1875,0.6875
1480519125248417,-1.25,1.6875,0.875
1480519125276995,-0.75,1.25,0.75
1480519125286018,-0.9375,0.375,0.375
1480519125309079,-1.0625,-0.3125,0
1480519125329633,-1,-0.875,-0.125
1480519125345677,-0.9375,-0.75,0.1875
1480519125368248,-1.1875,-0.75,0.9375
1480519125391298,-0.6875,-0.375,0.6875
1480519125406340,0,0.1875,0.375
1480519125428396,-0.125,0.6875,0.8125
1480519125450957,0,1,1
1480519125473517,-0.0625,0.875,1.3125
1480519125488557,-0.125,1.4375,2.5
1480519125511116,1.125,3.125,4.1875
1480519125525153,1.1875,5.9375,5.5625
1480519125554231,1.3125,7.4375,6.625
1480519125570775,1.6875,5.6875,5.75
1480519125585314,1.3125,2.4375,4.1875
1480519125608881,2.125,0.375,2.9375
1480519125630936,2.5,-0.1875,2.5
1480519125651991,1.6875,-0.0625,2.125
1480519125668535,1.25,0.1875,1.375
1480519125697111,1.25,0.625,0.9375
1480519125705134,0.8125,0.625,0.875
1480519125728194,1.25,0.1875,0.1875
1480519125750754,1.25,-0.25,-0.3125
1480519125766295,1.25,-0.6875,-0.9375
1480519125788355,0.9375,-0.8125,-1.6875
1480519125810915,0.5625,-1.25,-2.5625
1480519125833474,1.0625,-1.75,-2.625
1480519125848524,0.4375,-1.875,-3.0625
1480519125870574,0.5625,-1.625,-2.9375
1480519125892129,0.25,-1.25,-3.1875
1480519125908174,0.3125,-0.75,-2.9375
1480519125930733,-0.4375,-0.4375,-2.75
1480519125959308,-0.5,-0.4375,-3.3125
1480519125968332,-0.5625,-1.6875,-5.1875
1480519125990894,-1.375,-4.3125,-7.4375
1480519126011948,-2.375,-5.9375,-7.8125
1480519126028493,-1.8125,-5.125,-7.4375
1480519126051052,-2.1875,-4.1875,-5.375
1480519126072109,-1.8125,-2.6875,-3.625
1480519126088653,-1.8125,-0.8125,-2
1480519126111213,-1.3125,-0.25,-2
1480519126139288,-1.0625,-0.5625,-1.75
1480519126148311,-0.875,-0.875,-1.125
1480519126171373,-0.25,-1.6875,-0.875
1480519126191928,-0.3125,-1.25,0.1875
1480519126208473,0.3125,-0.5,0.875
1480519126231032,1,0.3125,1.5
1480519126252088,0.8125,0.5,1.375
1480519126282167,0.3125,0.0625,1.1875
1480519126290691,0.625,-0.125,0.4375
1480519126312749,0.5625,-0.5,0.125
1480519126335810,0.875,-0.4375,0.0625
1480519126351352,1,0.3125,0.4375
1480519126373412,1.0625,0.875,1.0625
1480519126388452,1.25,0.9375,1.875
1480519126411010,1.125,1.625,2.375
1480519126433576,1.625,1.875,2.875
1480519126456131,2.1875,1.3125,2.375
1480519126470669,1.8125,1.0625,1.9375
1480519126499746,2.0625,1.5,1.4375
1480519126507768,1.625,1.8125,1.1875
1480519126530829,1.5625,1.8125,1.3125
1480519126553390,1,2.25,2.25
1480519126575949,0.9375,2.75,3
1480519126590989,0.875,2.625,3.5625
1480519126614050,1,2.375,3.25
1480519126627587,1,1,2.5
1480519126650647,0.875,0.3125,2.0625
1480519126673209,0.75,-0.375,1.625
1480519126687753,0,-0.5,1
1480519126710807,-0.3125,-0.3125,0.6875
1480519126733373,-0.875,-0.375,0.0625
1480519126747907,-1.8125,-0.5,-0.25
1480519126770969,-2.125,-0.8125,-0.5625
1480519126793528,-1.1875,-0.875,-1.1875
1480519126814583,-0.625,-1.75,-2.3125
1480519126831128,1.875,-4.6875,-4.9375
1480519126859202,-0.875,-3.1875,-4.875
1480519126874243,-3.625,-0.75,-2.5
1480519126891288,-0.9375,-1.3125,-2.3125
1480519126913346,-0.6875,-1.3125,-3.5
1480519126942424,-0.9375,-0.6875,-2.25
1480519126952451,-1.6875,-0.1875,-0.9375
1480519126973508,-1.8125,0.125,-0.9375
1480519126994562,-1.1875,0.375,-1.5625
1480519127010605,-1.75,0.5625,-1.1875
1480519127033165,-0.5625,0.6875,-2.0625
1480519127054221,-0.9375,1.125,-1.6875
1480519127070765,-1,1.1875,-1.375
1480519127093325,-0.1875,1.5625,-2
1480519127116386,-1.25,1.75,-1.5
1480519127130926,-1,1,-1.25
1480519127153486,-1.1875,0.875,-1.1875
1480519127174541,-1.4375,0.1875,-1.25
1480519127191085,-2.1875,-0.8125,-2.1875
1480519127213144,-2.4375,-1.25,-2.0625
1480519127234199,-1.8125,-0.5625,-1.4375
1480519127251245,-1.6875,0.25,-1
1480519127273304,-0.9375,-0.375,-0.5
1480519127295864,-1,-0.8125,-0.75
1480519127312909,-0.625,-0.8125,-0.9375
1480519127333465,-0.3125,-2.1875,-1.8125
1480519127356024,-1,-2.625,-1.5
1480519127371064,-1.4375,-2,-1
1480519127393122,-0.5625,-1.75,-1
1480519127415682,-1.3125,-1.9375,-1.25
1480519127430221,-1.4375,-2.25,-1.375
1480519127460814,-1.125,-2.3125,-1.1875
1480519127475843,-0.8125,-2.375,-1.0625
1480519127498403,-0.8125,-2.375,-1.375
1480519127515949,-0.8125,-2.0625,-2
1480519127536004,-0.75,-1.625,-1.8125
1480519127550040,-0.3125,-1.4375,-1.25
1480519127573605,-0.9375,-1.875,-0.6875
1480519127596163,-1.3125,-2.0625,-0.25
1480519127610200,-2.3125,-1.5625,1.4375
1480519127633763,-1,-0.875,2.25
1480519127655822,-0.125,-1.6875,1.6875
1480519127670361,0.0625,-1.375,1.25
1480519127693427,0.25,0.3125,1.125
1480519127715982,0.0625,0.5625,0.375
1480519127730024,1.4375,0.5,-1.0625
1480519127753582,1.5625,0.4375,-2.375
1480519127776141,2,1.125,-3.0625
1480519127798201,1.0625,0.9375,-3.25
1480519127813240,0.375,0.125,-2.4375
1480519127835801,-0.8125,0.4375,-1.25
1480519127856856,-0.25,0.1875,0.5625
1480519127873403,0.375,-0.125,1.1875
1480519127895960,-0.4375,-0.0625,1.25
1480519127917016,-0.8125,0.0625,1.875
1480519127933560,0.25,-0.3125,1.1875
1480519127955620,0.375,0,0.25
1480519127976675,-0.0625,0.125,0.0625
1480519127993219,0.4375,0.25,-0.0625
1480519128016781,0.3125,0.375,0.4375
1480519128036834,0.3125,0.75,0.3125
1480519128053379,0.375,0.8125,0.5
1480519128083459,0.0625,0.9375,0.875
1480519128096994,0.125,1.25,1.0625
1480519128113539,0.5,1.1875,1.25
1480519128136099,0.6875,1.1875,0.9375
1480519128156653,0.5,1.375,0.4375
1480519128173199,0.5,1.375,0.4375
1480519128197262,0.25,1.375,0.5
1480519128216813,0.25,1,0.375
1480519128248398,0.1875,0.6875,-0.0625
1480519128255920,-0.0625,0.9375,-0.3125
1480519128278478,0.3125,1.0625,-0.5625
1480519128301037,-0.125,1,-0.5
1480519128316077,0.3125,0.8125,-0.75
1480519128338137,0.125,1,-0.8125
1480519128352677,-1.0625,0.75,-0.625
1480519128375737,-0.625,0.625,-0.5625
1480519128398298,-0.6875,0.5625,-0.1875
1480519128412835,-0.75,0.3125,-0.1875
1480519128441912,-0.125,0.3125,-0.3125
1480519128465976,0.1875,0.3125,0.3125
1480519128472494,0.3125,0.375,0.5625
1480519128503577,0.125,0.125,0.5625
1480519128518617,-0.25,0.125,0.375
1480519128532654,-0.1875,-0.0625,0.0625
1480519128555715,0.125,-0.375,0.375
1480519128578275,-0.3125,-0.25,0.5
1480519128592814,-0.375,-0.4375,0.9375
1480519128623897,-0.625,-0.3125,1.625
1480519128638436,-0.8125,0.0625,2.125
1480519128659491,-0.1875,-0.75,1.5625
1480519128676536,0.0625,-1.25,-0.375
1480519128698595,-0.625,-0.4375,1
1480519128719651,-0.5,-0.1875,2.6875
1480519128735694,0,0.375,1.875
1480519128758254,0.75,0,1.5
1480519128779310,0,-0.375,1
1480519128795854,0.4375,-0.375,0.875
1480519128818425,0.375,-0.6875,0.3125
1480519128839470,0.1875,-0.3125,0.6875
1480519128855514,-0.375,0,1
1480519128884590,0.0625,-0.1875,0.8125
1480519128899629,0.75,0.4375,0.875
1480519128915673,0.9375,0.9375,0.25
1480519128938735,0.8125,2.3125,0
1480519128959288,1.3125,3.125,0.625
1480519128984355,1.3125,1.25,1.6875
1480519128998393,-0.5625,0.3125,0.8125
1480519129019449,0.625,0.125,1.625
1480519129041507,0,0.875,2.8125
1480519129058552,0.5,0.6875,1.875
1480519129079608,0.5625,0,2
1480519129095651,-0.25,-0.9375,1.8125
1480519129119214,0.875,0.4375,1.3125
1480519129139768,1,1.5,1.625
1480519129163332,0.9375,1.5625,2
1480519129178371,0.5625,0.8125,1.8125
1480519129200932,1.5,0.625,1.875
1480519129215971,1.3125,0.125,2.25
1480519129238532,0.9375,-0.3125,2.75
1480519129260590,0.9375,-0.4375,3.0625
1480519129266105,1.125,0.25,3.375
1480519129281145,1.25,1.3125,3.625
1480519129303708,1.9375,2,4
1480519129326264,1.6875,1.8125,4.75
1480519129358851,2.375,-0.375,4.5625
1480519129363865,2.125,-2,3.625
1480519129387930,1.3125,-1.375,3.5625
1480519129402468,2.125,-0.125,4.0625
1480519129431044,0.9375,1.3125,3.6875
1480519129446083,0.6875,1.125,2.875
1480519129464133,0.6875,0.0625,2
1480519129492708,0.25,-0.875,1.6875
1480519129506246,0.1875,-0.9375,0.5625
1480519129522788,0.0625,-0.8125,-0.75
1480519129551364,-0.8125,0.25,-2.75
1480519129566723,-1.6875,1.125,-4.8125
1480519129583950,-1.6875,-0.9375,-5.1875
1480519129605007,-2.1875,-3.375,-4.625
1480519129629071,-4.375,-0.75,-2.25
1480519129642606,-2.0625,1.8125,-2
1480519129671183,-1.0625,1.0625,-1.875
1480519129686222,-2.6875,0.5,-1.875
1480519129702767,-1.0625,0.4375,-0.625
1480519129723822,-1.375,0.25,-0.0625
1480519129749390,-0.0625,-0.375,-0.4375
1480519129762926,-0.1875,-1.0625,-0.75
1480519129783982,0.375,-0.625,-0.9375
1480519129806041,0.5,-0.25,-0.875
1480519129822586,0.5,-0.125,-0.8125
1480519129843641,0.1875,-0.3125,-0.4375
1480519129866201,0.4375,-0.1875,-0.0625
1480519129884249,0.3125,-0.25,0.375
1480519129911321,0.625,-0.1875,1
1480519129926361,0.8125,-0.1875,1
1480519129944408,0.8125,0,0.875
1480519129963961,1.25,0.9375,1
1480519129993540,1.25,1.75,0.9375
1480519130008579,0.9375,1.9375,1.0625
1480519130023619,1,1.375,1.625
1480519130046179,0.8125,0.1875,0.875
1480519130068740,-0.125,0.4375,1.6875
1480519130083779,0.4375,1.125,1.5
1480519130106340,-0.125,0.625,0.75
1480519130128915,-0.6875,-0.0625,-0.375
1480519130143939,-0.375,-0.4375,-0.75
1480519130165998,-1.0625,-0.5,-1.0625
1480519130188558,-0.875,-0.4375,-1.25
1480519130203599,-1,-0.9375,-1.375
1480519130226158,-1,-1,-1.3125
1480519130248719,-1.125,-0.125,-0.875
1480519130263759,-0.625,0.5625,-0.8125
1480519130289328,-0.25,0.375,-1.625
1480519130308882,-0.375,-0.4375,-1.5
1480519130323918,-0.375,-0.125,-0.875
1480519130353999,0.5,-0.0625,0.25
1480519130368537,1.1875,-0.75,0.8125
1480519130383577,0.6875,-0.6875,1.4375
1480519130406138,1.125,-0.1875,1.8125
1480519130428697,1,0.6875,1.3125
1480519130443737,0.75,1.0625,0.375
1480519130466299,1.0625,0.5,-0.125
1480519130488859,1.25,-1.25,-0.3125
1480519130503897,0.375,-1.5,0.25
1480519130533477,0.125,-0.4375,0.75
1480519130550020,0.5625,-0.3125,0.4375
1480519130574084,-0.375,-0.3125,-0.8125
1480519130586617,0.375,-0.6875,-1.375
1480519130608677,-1.6875,-1.25,-1.3125
1480519130626724,-0.375,-1.3125,-1.3125
1480519130646276,-0.375,-1.25,-1.125
1480519130668836,-0.375,-1.125,-1.375
1480519130686884,-0.9375,-0.1875,-1.625
1480519130706436,-1,0.9375,-1.6875
1480519130737023,-0.5625,1,-1.25
1480519130745039,-0.875,-0.1875,-1.5625
1480519130766096,-1.5,-0.25,-1.3125
1480519130788655,-1,-0.1875,-0.5625
1480519130805200,-0.75,-0.125,-0.1875
1480519130833774,-0.5625,-0.125,0.1875
1480519130856837,-0.5,-0.25,0.125
1480519130865358,-0.1875,-0.25,-0.125
1480519130886415,-0.375,-0.5625,-0.375
1480519130911481,-0.625,-0.75,-0.6875
1480519130925017,-0.4375,-0.9375,-0.1875
1480519130946073,-0.4375,-1.0625,0.375
1480519130968634,-0.25,-0.875,1.3125
1480519130985679,0.625,-0.625,2.25
1480519131022777,0.5,-0.1875,1.75
1480519131028793,1.0625,-0.6875,1.375
1480519131051353,0.8125,-1,-0.125
1480519131066393,-0.1875,-0.625,-1.1875
1480519131088954,-0.1875,-0.5,-1.25
1480519131106500,-1.0625,0.0625,-1.25
1480519131133572,-1.1875,0.125,-1
1480519131148612,-0.875,0.25,-0.6875
1480519131166660,-0.5,0.125,-0.625
1480519131186212,-0.8125,0.1875,-0.4375
1480519131208772,-0.625,0.25,-0.25
1480519131226820,-0.375,0.5,0.0625
1480519131246372,-0.1875,0.375,0.5
1480519131268932,-0.0625,0.25,1.0625
1480519131286980,0.125,0.125,1.125
1480519131313550,0.25,-0.1875,1.0625
1480519131328591,0.5,0.0625,1.125
1480519131346639,0.375,0,0.875
1480519131366191,0.25,0.1875,0.5
1480519131388751,0.25,0.5,0.125
1480519131406799,0.125,0.9375,0.1875
1480519131426350,0.0625,0.9375,0.125
1480519131448911,-0.25,0.9375,-0.3125
1480519131466457,-0.5625,0.9375,-0.6875
1480519131495033,-0.8125,0.9375,-0.625
1480519131508575,-1,0.9375,0
1480519131526617,-0.8125,0.625,0.8125
1480519131546169,-0.5625,0.5625,1
1480519131568730,-0.625,0.9375,0.625
1480519131591290,-0.4375,0.6875,0.75
1480519131606334,-0.25,0.375,-0.0625
1480519131628890,0.1875,0.3125,-0.0625
1480519131652452,0.1875,0.4375,-0.25
1480519131665988,-0.0625,0.5,-0.3125
1480519131688550,-0.3125,0.4375,-0.5
1480519131711108,0.9375,0.5625,-0.75
1480519131727654,1.125,0.6875,-0.6875
1480519131748708,-0.3125,0.9375,-0.25
1480519131771270,0.8125,1.0625,-0.6875
1480519131787813,-0.375,0.625,-0.8125
1480519131808869,-0.375,0.3125,-0.8125
1480519131831428,0.25,-0.4375,-1
1480519131847471,-0.1875,-0.5625,-0.8125
1480519131868527,0.0625,-0.375,-0.5
1480519131899108,0,-0.3125,-0.375
1480519131907632,0,-0.25,-0.5
1480519131936207,0.1875,-0.125,-0.5
1480519131951247,0.0625,0,-0.1875
1480519131969796,-0.0625,-0.3125,-0.3125
1480519131988847,0.0625,-0.25,-0.3125
1480519132011406,0.25,-0.4375,-0.3125
1480519132028954,-0.3125,-0.3125,-0.375
1480519132048505,-0.3125,-0.625,-0.1875
1480519132078586,-0.375,-0.4375,-0.25
1480519132095130,-0.125,-0.125,-0.0625
1480519132108669,0.125,-0.125,-0.25
1480519132132730,-0.375,-0.375,0.125
1480519132149273,-1.125,-0.625,0.3125
1480519132168826,-0.625,-0.5625,0.5625
1480519132191385,-0.3125,-0.25,0.8125
1480519132216452,-0.5625,-0.25,1.1875
1480519132228485,-0.6875,-0.1875,1.6875
1480519132251045,0.375,0.1875,1.875
1480519132272102,-0.3125,-0.875,0.25
1480519132288645,0.1875,-0.1875,-0.125
1480519132311206,0.5,-0.375,0.125
1480519132329254,0.875,-0.0625,-0.0625
1480519132356324,0.4375,0.3125,-0.3125
1480519132371365,0.8125,0.4375,-0.9375
1480519132388911,0.8125,0.5625,-1.0625
1480519132408464,0.625,0.5625,0.5
1480519132431023,1,0.25,-0.4375
1480519132449071,-0.25,-0.3125,1.375
1480519132470129,0.6875,-0.4375,3
1480519132491183,-0.75,0.375,2.4375
1480519132509231,1.875,0,1.5625
1480519132528783,0.625,0,2.3125
1480519132551343,1.75,-0.125,1.375
1480519132568890,2,-1.0625,0.3125
1480519132588944,0.0625,-0.875,0.9375
1480519132612506,1.0625,-1,1.1875
1480519132629553,0.9375,-0.875,0.375
1480519132650107,-0.3125,-0.875,-0.4375
1480519132671164,-0.6875,-1.1875,-1.0625
1480519132689211,-0.6875,-1.0625,-1.25
1480519132710266,-0.9375,-1.1875,-1.1875
1480519132731323,-1.3125,-1.625,-1.5
1480519132749373,-1.1875,-0.125,-1.3125
1480519132771430,-1.1875,1.9375,-0.1875
1480519132790981,-0.25,1.75,-0.4375
1480519132809029,-0.625,0.875,-0.5625
1480519132830085,-0.1875,0.5625,0.6875
1480519132858663,0.25,0.1875,2.5
1480519132869189,0.75,0.625,3.6875
1480519132890245,2.375,2.1875,4.5
1480519132911301,1.8125,2.125,3.5
1480519132929375,2.3125,-0.1875,1
1480519132958928,0.5,-1.0625,0.8125
1480519132970960,0.6875,0.5,1.875
1480519132995024,1.3125,0.8125,1.75
1480519133011568,0.6875,0.1875,0.625
1480519133031120,0.25,-0.125,0.25
1480519133049669,0.25,0.125,0.375
1480519133071728,0.125,-0.1875,0.375
1480519133091281,-0.3125,0.3125,-0.125
1480519133113839,-0.1875,0.8125,-0.5
1480519133131387,0.25,0.8125,-0.5625
1480519133151440,-0.875,0.9375,-0.5625
1480519133173498,-0.875,1.75,-0.75
1480519133196067,-0.9375,1.5625,-2
1480519133212602,-1.9375,0.3125,-2.125
1480519133233658,-1.375,-0.4375,-1.4375
1480519133252207,-1.875,-0.8125,-0.8125
1480519133272763,-1.6875,-1.375,-0.875
1480519133293818,-1.3125,-2.25,-1.9375
1480519133317884,-2.5625,-0.3125,-2.5625
1480519133331418,-1.875,1.4375,-2.5
1480519133353478,-0.4375,-1.375,-2.625
1480519133377541,-3.125,-2.8125,-1.75
1480519133391077,-1.375,-2.4375,0.1875
1480519133413636,-0.9375,-1.75,0
1480519133437702,-0.5625,-1.9375,-0.125
1480519133451236,-0.5,-1.8125,-0.625
1480519133481317,0.375,-1.25,-0.75
1480519133491848,0.0625,-0.875,-1.1875
1480519133511396,-0.25,-1.1875,-1.3125
1480519133533456,0,-0.875,-0.9375
1480519133551504,-0.125,-0.1875,0
1480519133572561,-0.375,-0.0625,0.625
1480519133601136,-0.625,-0.1875,0.6875
1480519133611665,-0.25,-0.375,0.3125
1480519133632721,-0.5,-0.25,-0.25
1480519133653776,-0.5,-0.375,-0.5625
1480519133671824,-0.375,-0.5,-0.5
1480519133692378,0.0625,-0.5625,-0.625
1480519133716442,0.4375,-0.25,-0.6875
1480519133731483,0.5,0,-0.75
1480519133752541,0.75,-0.0625,-0.625
1480519133773594,0.875,-0.3125,0
1480519133791643,0.9375,-0.1875,-0.0625
1480519133812699,1.375,-0.8125,0.0625
1480519133833754,0.25,-1.4375,0.6875
1480519133852303,1.125,-2.0625,0.75
1480519133879877,0.6875,-3.125,0.4375
1480519133893413,0.4375,-2.1875,0.0625
1480519133911461,0.375,-0.875,-0.6875
1480519133941542,-0.5,-0.9375,-1.375
1480519133953575,-0.25,-1.625,-1.8125
1480519133976133,0.125,-1.4375,-1.625
1480519133994181,-0.375,-1.9375,-1.625
1480519134021254,-0.75,-2.0625,-1.0625
1480519134039301,-0.0625,-1.6875,0.125
1480519134054341,0.125,-1.4375,1.375
1480519134076414,0.875,-1.1875,2.4375
1480519134091440,1.625,-1.5625,2.75
1480519134114000,1.625,-0.625,1.6875
1480519134133552,2.875,2.8125,1.25
1480519134157617,4.5,1.6875,-1
1480519134174161,1.5625,-1.75,-5.3125
1480519134201231,-0.75,2.4375,-2.25
1480519134211760,0.4375,4.3125,2.8125
1480519134234319,1.4375,2.1875,3.375
1480519134255376,0.75,1.3125,5.3125
1480519134272422,1.8125,3.125,6.875
1480519134294981,3.1875,3.625,5.1875
1480519134316539,0.9375,0.9375,3.125
1480519134331579,2.375,-1,1.25
1480519134354138,1.5,-1.125,0.5
1480519134373690,1.9375,-0.6875,-0.4375
1480519134399259,0.8125,-0.375,-1.875
1480519134414299,-0.5,-0.5,-2.25
1480519134449893,-1.25,-1.1875,-1.4375
1480519134465435,-1.75,-1.125,0.4375
1480519134478470,-2.125,-1.3125,0.5625
1480519134493509,-1.375,-1.9375,-0.9375
1480519134516069,-2.25,-1.4375,-2.4375
1480519134534118,-2.625,-0.3125,-3
1480519134562694,-3,0.1875,-1.875
1480519134571720,-2.9375,-0.5625,1.125
1480519134598790,-2.9375,-1.3125,1.875
1480519134630875,-1.25,-0.5,0.8125
1480519134633382,-0.625,0.375,0.25
1480519134653937,-0.1875,0.125,-0.125
1480519134674992,0.4375,-0.1875,-0.25
1480519134691536,0.375,0.125,-0.1875
1480519134714097,0.75,0.625,-0.1875
1480519134735655,1.75,1.6875,-0.875
1480519134756214,0.1875,1.875,-0.1875
1480519134774256,1.625,1.4375,-0.1875
1480519134795314,0,0.6875,1.3125
1480519134823888,0.8125,1.0625,2.625
1480519134833915,0.375,0.5,2.25
1480519134854971,0.5,0.3125,1.4375
1480519134879035,-0.25,1,0.5625
1480519134894075,0,1.875,-0.4375
1480519134916635,-0.5625,1.125,-1.25
1480519134936189,-1.5,0.4375,-1
1480519134954235,-0.375,-0.875,-0.6875
1480519134976795,-1.3125,-0.5,0.3125
1480519134996347,-0.5,1.8125,-0.3125
1480519135013894,-1.5,3.125,0
1480519135049989,-0.375,1,-1.1875
1480519135056005,-1.1875,0.4375,-0.1875
1480519135074053,-1.1875,-0.1875,1.0625
1480519135096614,-0.4375,-0.3125,1.4375
1480519135116165,0.5625,-0.4375,1.3125
1480519135134214,0.125,-0.125,1
1480519135156776,1,0.6875,0.375
1480519135176326,0.8125,0.5625,0.125
1480519135193886,1.125,-2.1875,0.1875
1480519135216437,0.3125,-1.75,0.375
1480519135235985,0.125,1.8125,2
1480519135254033,2.1875,2.25,1.6875
1480519135276592,0.3125,0.75,0.625
1480519135296145,0.5625,0.4375,1.625
1480519135318704,0.75,0.6875,2.3125
1480519135336754,-0.0625,0.875,1.25
1480519135356304,0.125,0.625,0.25
1480519135373851,0.0625,0.5,0
1480519135396412,-0.0625,0.8125,0.125
1480519135417467,0.25,1.1875,-0.375
1480519135441531,-0.875,0.5625,-0.5625
1480519135456571,-0.6875,0.375,-1
1480519135494674,-0.75,-0.125,-0.8125
1480519135499233,-0.75,-0.5,-1.75
1480519135516731,-2,0.0625,-1.375
1480519135543811,-0.8125,0.0625,-1.8125
1480519135553329,-1.6875,-0.375,-1.6875
1480519135575888,-1.8125,-1.5625,-2.1875
1480519135596944,-1.1875,-2,-3.0625
1480519135613488,-2.4375,0.625,-0.8125
1480519135635547,0,0.3125,-1.5625
1480519135658107,-1.1875,-0.5625,-1.3125
1480519135673147,-0.75,-0.375,-0.3125
1480519135695709,0.125,0,0.5
1480519135716763,0.5,-0.8125,1.3125
1480519135733308,0.375,-2.0625,2.6875
1480519135755868,1.375,-1.625,4
1480519135776923,2.25,-0.3125,4
1480519135793478,3.125,2.0625,2.875
1480519135823046,3,0.375,0.4375
1480519135838086,1.5625,-3.1875,-3.25
1480519135852625,-1.0625,-0.875,-1.375
1480519135875688,0.25,0.4375,-0.6875
1480519135898247,-1.4375,0.0625,-2
1480519135926822,-2.5625,-0.5,-1.5625
1480519135935846,-1.125,-2.375,-1.375
1480519135958907,-4.3125,0.375,-0.5625
1480519135979462,-2.125,2.625,-0.3125
1480519135995505,-0.25,1,-0.5625
1480519136018065,-1.9375,1,-0.8125
1480519136040625,0.25,2.125,-0.5625
1480519136055666,-0.3125,1.375,-1.625
1480519136078224,0.25,-0.0625,-1.4375
1480519136100785,-0.6875,-1,-0.75
1480519136115824,0.3125,-1.125,-0.6875
1480519136138389,-0.3125,-1.25,-0.875
1480519136152422,-1.0625,-0.9375,-0.8125
1480519136175483,-1.5625,-1,-0.5
1480519136205565,-1.25,-1.3125,0.3125
1480519136212582,-1.1875,-1.125,1
1480519136235644,-0.125,-0.75,0.875
1480519136258204,-0.3125,-1.0625,-0.0625
1480519136281265,0.375,-1.0625,-0.5
1480519136295803,-0.5625,-0.9375,-0.625
1480519136331404,-0.4375,-0.6875,-0.75
1480519136349947,-0.625,-0.1875,-0.25
1480519136355963,-0.4375,0.1875,0.375
1480519136378524,-0.6875,0.375,0.8125
1480519136406598,-0.5,0.3125,0.9375
1480519136415623,-0.25,0.1875,0.75
1480519136438185,-0.125,-0.1875,0.5625
1480519136459238,-0.3125,-0.25,0.5625
1480519136483302,-0.0625,-0.375,0.75
1480519136497841,0,-0.5625,0.875
1480519136519398,-0.3125,-0.75,1.0625
1480519136541966,0.1875,-0.9375,0.9375
1480519136558001,0.3125,-0.5625,0.375
1480519136579558,0.375,-0.875,0.0625
1480519136596102,0.625,-1.1875,-0.375
1480519136618161,0.875,-1.1875,-0.25
1480519136639718,0.8125,-1.4375,0
1480519136655760,0.625,-2.0625,0.25
1480519136678321,0.3125,-1.8125,0.5
1480519136699442,0.75,-0.6875,0.5
1480519136715921,0.75,-0.5625,-0.0625
1480519136738983,-0.375,-0.5,-0.4375
1480519136761040,0,-0.3125,-0.5625
1480519136775580,-0.3125,-0.8125,-0.9375
1480519136798641,-1,-1,-0.75
1480519136820701,-0.1875,-0.625,0.375
1480519136843259,-0.0625,-0.125,0.3125
1480519136858301,-0.3125,-0.4375,1.5625
1480519136881362,0.5625,-0.5625,0.5
1480519136896402,0.75,-0.8125,-0.625
1480519136918459,0.8125,-0.875,-0.25
1480519136940518,0.4375,-0.9375,-0.5625
1480519136963580,0.25,-0.6875,-0.1875
1480519136978119,-0.25,-0.6875,0.125
1480519137000678,0.25,-0.8125,-0.125
1480519137015216,0.5,-0.875,-0.375
1480519137038782,0,-0.6875,-0.3125
1480519137060839,0.1875,-0.125,-0.375
1480519137074876,0.1875,0.25,-0.4375
1480519137098439,-0.25,1.0625,-0.375
1480519137120999,0.0625,2,0.125
1480519137135036,0.6875,2.4375,-0.5
1480519137158099,0.0625,0.625,1.125
1480519137180657,0.125,0.6875,1.4375
1480519137195196,-0.5625,-0.3125,2.6875
1480519137218257,-0.0625,-0.25,2.875
1480519137240817,-0.25,0.0625,1.75
1480519137261873,0.5625,-0.1875,0.5625
1480519137278419,0.125,0,-0.6875
1480519137301479,0.6875,0.6875,-1.5
1480519137322033,0.3125,0.3125,-0.9375
1480519137344092,0.5625,0.25,0.125
1480519137360636,1,0.5625,1.0625
1480519137381692,2.0625,0.8125,1.1875
1480519137398237,2.1875,1.8125,1
1480519137428316,1.8125,3.125,1.0625
1480519137441854,1.6875,3.0625,1.125
1480519137458396,0.75,1.625,1.4375
1480519137486972,1.25,-0.125,0.75
1480519137511035,0.3125,0.125,1.4375
1480519137518056,1.125,1,1.375
1480519137540614,0.8125,1.0625,1.25
1480519137561678,0.625,1.125,1.375
1480519137578214,0.5625,2,1.4375
1480519137600775,0.25,1.5,0.375
1480519137621830,0,0.125,-0.25
1480519137638375,-0.9375,0,-0.25
1480519137660942,-0.5,-0.125,-0.6875
1480519137681990,-1,-0.125,-1.375
1480519137698534,-2,0.25,-1.875
1480519137720595,-0.9375,-0.125,-3.1875
1480519137743154,-2.0625,-1.75,-4.1875
1480519137765713,-2.3125,-1,-3.625
1480519137780753,-3.0625,1.625,-1.125
1480519137803314,-1.1875,1.125,-0.875
1480519137818354,-2.25,-0.8125,-0.625
1480519137841415,-1.5,-0.4375,0.0625
1480519137863474,-0.375,-0.25,0.8125
1480519137877511,0.1875,-1.0625,0.875
1480519137901073,0.5,-1.625,1.1875
1480519137930653,0.4375,-1.5625,1.25
1480519137937673,1.3125,-1.125,0.9375
1480519137960732,1.0625,-0.9375,0.3125
1480519137984796,0.25,-0.625,0.0625
1480519137997831,0,0.0625,0.875
1480519138020900,0.875,0.0625,1
1480519138043452,0.5,0,0.5625
1480519138057489,2,-0.8125,-0.3125
1480519138080550,0.5,-0.75,0.125
1480519138103112,-0.5,0.25,0.875
1480519138124167,0.25,0.4375,0.875
1480519138155751,-0.625,0.8125,0.1875
1480519138163279,0.4375,0.8125,-0.1875
1480519138177809,0.4375,0.8125,-0.4375
1480519138200871,0.5,1,-0.375
1480519138229447,0.25,0.4375,0.125
1480519138244486,0.125,0.1875,0.6875
1480519138275068,0.3125,0.3125,1.1875
1480519138283591,0.3125,0.3125,1.1875
1480519138311665,0.1875,0.25,0.8125
1480519138322193,-0.1875,0.3125,0.125
1480519138343752,0.1875,0.125,-0.4375
1480519138364305,-0.3125,-0.0625,-0.5625
1480519138380849,-0.4375,-0.375,-0.8125
1480519138403411,-0.5,-0.125,-0.3125
1480519138425970,-0.75,0.125,0
1480519138441010,-0.75,0.5625,0.5
1480519138463068,-0.1875,0.5625,0.5625
1480519138484125,-0.125,0.5,0.6875
1480519138500669,0,0.4375,0.625
1480519138523229,0,0.125,0.375
1480519138544284,-0.1875,0.0625,0.25
1480519138560829,-0.1875,0.125,0.25
1480519138583388,-0.5,0.25,0.125
1480519138604445,-0.375,0.1875,0
1480519138627003,-0.25,-0.0625,-0.375
1480519138643047,0.0625,-0.25,-0.8125
1480519138666108,-0.6875,0.1875,-0.9375
1480519138680646,-0.5625,0.5,-0.4375
1480519138703709,-0.6875,0.375,-0.75
1480519138725767,-0.875,0.75,-0.75
1480519138740807,0.25,0.625,-1.125
1480519138763368,-0.5,0.8125,-1.0625
1480519138786429,-0.375,0.6875,-0.5625
1480519138800467,-0.4375,0.5,-0.6875
1480519138830546,-0.4375,0.1875,-0.5625
1480519138845585,-0.125,0.125,-0.8125
1480519138860124,-0.25,-0.125,-0.625
1480519138890706,-0.1875,0,0.0625
1480519138906748,-0.5625,-0.125,0.5625
1480519138920289,-0.4375,-0.75,1.0625
1480519138943346,0.3125,-0.4375,0.5
1480519138965906,0.125,-1.1875,-0.125
1480519138988466,-0.125,-0.6875,0.375
1480519139003506,-0.625,-0.75,0.875
1480519139025565,0.625,-0.25,0.375
1480519139040104,0.0625,-0.125,0
1480519139063164,0.1875,-0.0625,-0.375
1480519139100764,0.3125,-0.25,-0.6875
1480519139103272,-0.1875,0.125,-0.5
1480519139123325,-0.5625,0.1875,0.0625
1480519139153406,-0.625,0.25,0.1875
1480519139166941,-0.25,0.0625,0.4375
1480519139184487,0.0625,-0.0625,0.8125
1480519139205543,0.625,0.5625,0.6875
1480519139227602,1.0625,1,0.375
1480519139243143,1,1.125,0.375
1480519139267709,0.75,-0.125,1.1875
1480519139287260,0.8125,-0.125,0.5625
1480519139303303,0.1875,-1,1.375
1480519139325362,0.4375,-0.75,2.0625
1480519139346919,-0.5,-0.3125,1.375
1480519139370984,0.5625,-0.75,0.4375
1480519139386024,0.3125,-1.25,-0.625
1480519139406578,0.0625,-0.125,-1.3125
1480519139423122,-0.625,-0.5625,-1.375
1480519139445682,0,-1.25,-1.3125
1480519139466738,-0.875,-0.625,-0.0625
1480519139483281,-0.6875,0.3125,0.5
1480519139513362,-0.625,0.8125,0.1875
1480519139534418,-1,1.1875,-0.4375
1480519139543442,-0.6875,0.6875,-0.9375
1480519139566546,0,-0.25,-0.875
1480519139587058,-0.375,-0.5625,0.0625
1480519139603102,0.3125,-0.3125,1.1875
1480519139625662,0,-0.6875,1.4375
1480519139648221,0.3125,-1.0625,1.0625
1480519139663277,0.8125,-0.3125,0.4375
1480519139685823,0.75,0.25,0.125
1480519139708882,-0.0625,-1.0625,-0.875
1480519139722418,-0.125,-1.875,-0.9375
1480519139745981,-0.1875,-0.6875,0
1480519139768040,0.1875,-0.25,0.75
1480519139782578,0.125,0.1875,1.5625
1480519139813159,0.75,1.125,3.125
1480519139828199,2.6875,1.0625,3.0625
1480519139849255,1.625,1.9375,3.5
1480519139865299,2.125,1.625,3
1480519139888376,2.0625,1.125,2.5
1480519139902397,1.1875,0.1875,1.9375
1480519139925458,1.125,-0.6875,1.6875
1480519139948018,0.4375,-0.8125,0.875
1480519139962557,-0.1875,-1.25,-0.125
1480519139986121,-0.8125,-1.0625,-1.5
1480519140009180,-0.375,0.0625,-3.8125
1480519140022717,-2.3125,-0.25,-4.875
1480519140045778,-1.8125,-2.875,-5.9375
1480519140068339,-2.9375,-2.5625,-5.625
1480519140096914,-4.125,0.5625,-2.3125
1480519140105938,-1.8125,0.125,-2.6875
1480519140128498,-3.625,-1.125,-1.9375
1480519140149053,-2.1875,-0.375,-0.375
1480519140165599,-1.1875,-0.125,0.0625
1480519140188156,-0.3125,-0.625,0.1875
1480519140209214,0.125,-0.6875,0.3125
1480519140225758,1.1875,-0.3125,0.0625
1480519140248316,0.375,-0.5625,-0.1875
1480519140269389,-0.3125,-0.9375,-0.4375
1480519140294942,-1.0625,-1.1875,0.1875
1480519140307976,-2.25,-1.375,1.3125
1480519140329533,-1.1875,-2,1.375
1480519140345576,0.375,-2.375,2.8125
1480519140375656,0.8125,-2.8125,2.25
1480519140396717,1.875,-3.0625,1.5625
1480519140405736,1.75,-2.5,1.75
1480519140435817,1.4375,-2.0625,0.6875
1480519140449351,1.625,-1.375,-0.0625
1480519140466397,0.0625,-0.625,0.75
1480519140488456,1.5,-0.9375,1.0625
1480519140509511,4.4375,-0.5,-3.3125
1480519140525555,1.4375,-2.6875,-3.625
1480519140548114,-0.3125,-2.875,0.0625
1480519140570675,-1.25,-1.375,-0.625
1480519140591730,-1.4375,-0.5625,0.875
1480519140608274,-1,0.5,1.75
1480519140630835,0.6875,-0.25,-1.0625
1480519140653897,-0.4375,0.25,-1.3125
1480519140668436,-0.875,1,-0.625
1480519140690994,1,0.25,-1.75
1480519140705032,-0.875,0.25,-1.4375
1480519140728094,0.9375,1.3125,-0.625
1480519140750653,1.375,0.75,0.1875
1480519140765192,1.1875,0.5,-0.0625
1480519140788253,1.75,0.6875,1.1875
1480519140818836,2.3125,1.1875,2.25
1480519140824850,3.0625,1.5,3
1480519140848413,3.1875,2.4375,3.3125
