timestamp,x,y,z,w
1480519075161450,0.772095,0.285156,-0.328918,-0.463013
1480519075185514,0.772095,0.28479,-0.328552,-0.463501
1480519075199680,0.772034,0.284363,-0.328369,-0.463989
1480519075221611,0.771851,0.283813,-0.32843,-0.464539
1480519075239659,0.771606,0.283081,-0.328491,-0.465332
1480519075259211,0.771362,0.282166,-0.328491,-0.466309
1480519075281771,0.771179,0.281128,-0.32843,-0.467346
1480519075299820,0.771118,0.280151,-0.328491,-0.467896
1480519075326896,0.77124,0.279724,-0.328369,-0.468079
1480519075348949,0.771057,0.279663,-0.328247,-0.468567
1480519075359477,0.770447,0.279541,-0.328369,-0.469543
1480519075380535,0.769836,0.279663,-0.328552,-0.470215
1480519075404598,0.76947,0.279846,-0.328796,-0.470642
1480519075419638,0.769287,0.279907,-0.328979,-0.470764
1480519075439189,0.769287,0.279602,-0.329163,-0.470764
1480519075461749,0.76947,0.279114,-0.329224,-0.470703
1480519075479798,0.769714,0.278564,-0.329346,-0.470642
1480519075502859,0.769836,0.278137,-0.329468,-0.470581
1480519075521408,0.769836,0.278137,-0.329529,-0.470581
1480519075539456,0.769775,0.278137,-0.329529,-0.470581
1480519075559008,0.769592,0.278259,-0.32959,-0.470825
1480519075581568,0.769409,0.278503,-0.329529,-0.470947
1480519075607136,0.769409,0.278503,-0.329529,-0.471008
1480519075619168,0.769409,0.278503,-0.329529,-0.471008
1480519075641728,0.769226,0.278503,-0.329651,-0.471191
1480519075660277,0.768982,0.278503,-0.329834,-0.471497
1480519075680832,0.768738,0.27832,-0.330078,-0.471802
1480519075701387,0.768494,0.278198,-0.330261,-0.472107
1480519075719937,0.768311,0.278015,-0.330505,-0.472412
1480519075740493,0.768066,0.277893,-0.33075,-0.472717
1480519075761546,0.767883,0.277771,-0.330933,-0.472961
1480519075779595,0.767639,0.277588,-0.331116,-0.473267
1480519075800651,0.767395,0.277466,-0.331238,-0.473633
1480519075821706,0.767273,0.277344,-0.33136,-0.473877
1480519075839253,0.767151,0.277161,-0.331421,-0.474121
1480519075860810,0.766907,0.276917,-0.331604,-0.474487
1480519075881866,0.766724,0.276794,-0.331787,-0.474792
1480519075899414,0.766541,0.276733,-0.331848,-0.475037
1480519075920469,0.766357,0.276733,-0.33197,-0.475281
1480519075941526,0.766235,0.276733,-0.332031,-0.475403
1480519075959574,0.766113,0.276794,-0.332031,-0.475586
1480519075980630,0.76593,0.276672,-0.332153,-0.47583
1480519076001686,0.765808,0.276489,-0.332336,-0.476013
1480519076019734,0.765686,0.276367,-0.33252,-0.476196
1480519076049312,0.765564,0.276123,-0.332703,-0.47644
1480519076068868,0.765381,0.275879,-0.332825,-0.476746
1480519076079393,0.765381,0.275635,-0.332825,-0.476868
1480519076106464,0.76532,0.275391,-0.332886,-0.477112
1480519076129025,0.765198,0.275085,-0.333008,-0.477417
1480519076139552,0.765137,0.27478,-0.333069,-0.477661
1480519076162614,0.765015,0.274597,-0.333069,-0.477905
1480519076181664,0.764893,0.274414,-0.333191,-0.478149
1480519076199713,0.764832,0.274292,-0.333252,-0.478271
1480519076222272,0.764771,0.274231,-0.333313,-0.478394
1480519076241824,0.764771,0.274231,-0.333313,-0.478394
1480519076259371,0.764771,0.274231,-0.333313,-0.478394
1480519076281931,0.764771,0.274231,-0.333313,-0.478333
1480519076301483,0.764771,0.274231,-0.333313,-0.478394
1480519076319531,0.764709,0.274231,-0.333313,-0.478394
1480519076342091,0.764709,0.274231,-0.333313,-0.478394
1480519076361643,0.764709,0.274231,-0.333313,-0.478455
1480519076379692,0.764465,0.274292,-0.333435,-0.478699
1480519076402251,0.764282,0.274414,-0.333557,-0.478821
1480519076421802,0.76416,0.274475,-0.333557,-0.479004
1480519076440355,0.76416,0.274475,-0.333618,-0.479004
1480519076461910,0.76416,0.274475,-0.333557,-0.479004
1480519076481461,0.76416,0.274475,-0.333557,-0.479004
1480519076504021,0.763977,0.274475,-0.333618,-0.479309
1480519076522073,0.763794,0.274475,-0.33374,-0.479431
1480519076557664,0.763794,0.274475,-0.33374,-0.479431
1480519076564182,0.763794,0.274475,-0.33374,-0.479431
1480519076582229,0.763794,0.274475,-0.33374,-0.479492
1480519076609301,0.763794,0.274475,-0.33374,-0.479492
1480519076624341,0.763794,0.274475,-0.333679,-0.479492
1480519076641889,0.763794,0.274475,-0.333679,-0.479553
1480519076662945,0.763794,0.274536,-0.333679,-0.479492
1480519076684000,0.763794,0.274536,-0.333679,-0.479492
1480519076702048,0.763794,0.274536,-0.333679,-0.479492
1480519076723105,0.763794,0.274536,-0.333679,-0.479492
1480519076747169,0.763794,0.274536,-0.333679,-0.479492
1480519076762209,0.763855,0.274292,-0.333679,-0.479492
1480519076783266,0.763916,0.274109,-0.333618,-0.479553
1480519076804320,0.764038,0.273865,-0.333557,-0.479553
1480519076827884,0.764099,0.273621,-0.333557,-0.479553
1480519076850443,0.764221,0.273438,-0.333618,-0.479431
1480519076863985,0.764404,0.273315,-0.333618,-0.479309
1480519076888043,0.764343,0.273315,-0.333618,-0.479309
1480519076903083,0.764343,0.273315,-0.333618,-0.479309
1480519076924139,0.764343,0.273315,-0.333618,-0.479309
1480519076942187,0.764343,0.273315,-0.333618,-0.47937
1480519076964751,0.764282,0.273315,-0.333618,-0.47937
1480519076984299,0.764282,0.273315,-0.333618,-0.479431
1480519077001846,0.764282,0.273315,-0.333618,-0.479431
1480519077024406,0.764282,0.273315,-0.333618,-0.479431
1480519077043957,0.764282,0.273315,-0.333618,-0.479431
1480519077062006,0.764282,0.273315,-0.333618,-0.479431
1480519077084566,0.764282,0.273315,-0.333618,-0.479431
1480519077105628,0.764282,0.273315,-0.333618,-0.47937
1480519077122674,0.764282,0.273315,-0.333618,-0.47937
1480519077144732,0.764282,0.273315,-0.333618,-0.479431
1480519077164284,0.764282,0.273315,-0.333618,-0.47937
1480519077182332,0.764282,0.273315,-0.333618,-0.47937
1480519077204391,0.764282,0.273315,-0.333618,-0.47937
1480519077223942,0.764282,0.273315,-0.333618,-0.479431
1480519077241992,0.764282,0.273315,-0.333618,-0.479431
1480519077274076,0.764282,0.273315,-0.333618,-0.479431
1480519077301650,0.764282,0.273315,-0.333618,-0.479431
1480519077304156,0.764282,0.273315,-0.333618,-0.479492
1480519077324711,0.764282,0.273315,-0.333618,-0.479492
1480519077347271,0.764282,0.273315,-0.333618,-0.479492
1480519077362812,0.764282,0.273315,-0.333618,-0.479431
1480519077384369,0.764343,0.273193,-0.33374,-0.479248
1480519077403921,0.764465,0.27301,-0.333923,-0.479126
1480519077421969,0.764648,0.272766,-0.334045,-0.478882
1480519077460573,0.764893,0.272522,-0.334106,-0.478577
1480519077465586,0.765076,0.272339,-0.334229,-0.478333
1480519077482135,0.76532,0.272217,-0.334229,-0.477966
1480519077505190,0.765564,0.272217,-0.334167,-0.477661
1480519077525745,0.765625,0.272156,-0.334167,-0.477539
1480519077547804,0.765747,0.272156,-0.334106,-0.477478
1480519077564348,0.765686,0.272156,-0.334106,-0.477478
1480519077585404,0.765686,0.272156,-0.334106,-0.477478
1480519077601949,0.765686,0.272156,-0.334106,-0.477478
1480519077624508,0.765686,0.272156,-0.334106,-0.477478
1480519077645564,0.765686,0.272156,-0.334106,-0.477478
1480519077662109,0.765686,0.272156,-0.334106,-0.477478
1480519077684668,0.765686,0.272156,-0.334106,-0.477478
1480519077705724,0.765747,0.272156,-0.334106,-0.477417
1480519077722268,0.765869,0.271973,-0.333984,-0.477417
1480519077744326,0.765991,0.271729,-0.333801,-0.477417
1480519077765884,0.766052,0.271667,-0.333679,-0.477539
1480519077781927,0.766052,0.271667,-0.333679,-0.477539
1480519077804487,0.765991,0.271606,-0.333679,-0.4776
1480519077831559,0.766052,0.271606,-0.333679,-0.477539
1480519077842087,0.766052,0.271606,-0.333679,-0.477539
1480519077864648,0.765991,0.271606,-0.333679,-0.477539
1480519077885703,0.765991,0.271606,-0.33374,-0.477539
1480519077902260,0.765991,0.271606,-0.333679,-0.4776
1480519077924305,0.765991,0.271606,-0.333679,-0.4776
1480519077947368,0.765991,0.271606,-0.333679,-0.4776
1480519077961906,0.765991,0.271667,-0.333679,-0.4776
1480519077984465,0.765991,0.271667,-0.333679,-0.4776
1480519078011537,0.765991,0.271484,-0.333618,-0.477722
1480519078026578,0.765991,0.271484,-0.333618,-0.477722
1480519078044626,0.765747,0.271667,-0.333557,-0.478088
1480519078067186,0.765564,0.272522,-0.333435,-0.477966
1480519078103783,0.765869,0.274719,-0.332825,-0.476624
1480519078106289,0.766724,0.279297,-0.331299,-0.473694
1480519078126844,0.767395,0.28363,-0.329895,-0.470947
1480519078146901,0.766602,0.284546,-0.329529,-0.471924
1480519078163943,0.764709,0.283875,-0.329895,-0.475159
1480519078187505,0.76355,0.284485,-0.329712,-0.476807
1480519078214577,0.763245,0.285645,-0.329407,-0.476868
1480519078223603,0.762634,0.287109,-0.329407,-0.476868
1480519078246163,0.76178,0.288757,-0.329529,-0.477173
1480519078267218,0.761108,0.290405,-0.329956,-0.47699
1480519078283762,0.760559,0.291931,-0.33075,-0.476318
1480519078306322,0.760193,0.292969,-0.331909,-0.475525
1480519078328382,0.759827,0.293762,-0.333191,-0.474731
1480519078343922,0.759399,0.294434,-0.334412,-0.474121
1480519078366333,0.75885,0.294922,-0.33551,-0.473877
1480519078387036,0.758301,0.294922,-0.33667,-0.473999
1480519078404082,0.75769,0.294861,-0.337891,-0.474121
1480519078426141,0.756897,0.294678,-0.339355,-0.474426
1480519078447196,0.75647,0.294128,-0.34082,-0.474426
1480519078463741,0.756165,0.293152,-0.342529,-0.474304
1480519078492316,0.755798,0.291748,-0.344299,-0.474426
1480519078507356,0.755493,0.290161,-0.346252,-0.474487
1480519078523901,0.755188,0.288696,-0.348511,-0.474243
1480519078546461,0.754822,0.28772,-0.350952,-0.473511
1480519078567529,0.754333,0.287048,-0.35376,-0.472717
1480519078584060,0.753662,0.28656,-0.35675,-0.471802
1480519078606120,0.753052,0.286621,-0.359375,-0.470703
1480519078627175,0.752319,0.286987,-0.361633,-0.46991
1480519078643719,0.751648,0.287476,-0.363159,-0.469604
1480519078666279,0.750916,0.287537,-0.364014,-0.469971
1480519078687335,0.750305,0.287231,-0.364136,-0.47113
1480519078703879,0.750183,0.286621,-0.363892,-0.471802
1480519078726439,0.750427,0.286072,-0.363525,-0.472107
1480519078747496,0.750671,0.2854,-0.363342,-0.472229
1480519078771058,0.750671,0.285156,-0.362976,-0.472656
1480519078793619,0.750671,0.285034,-0.362732,-0.472961
1480519078807154,0.750793,0.284851,-0.362366,-0.473145
1480519078829714,0.751282,0.284607,-0.361938,-0.472839
1480519078846760,0.752197,0.284607,-0.361023,-0.472107
1480519078868818,0.753418,0.284485,-0.359985,-0.471008
1480519078883858,0.755005,0.284424,-0.358643,-0.469482
1480519078906418,0.756836,0.284668,-0.356873,-0.467773
1480519078935997,0.758606,0.285034,-0.355042,-0.466064
1480519078943516,0.760071,0.285706,-0.353271,-0.4646
1480519078966077,0.761597,0.286499,-0.351379,-0.463013
1480519078988636,0.763,0.287415,-0.349609,-0.461487
1480519079003176,0.763977,0.288818,-0.3479,-0.460266
1480519079026237,0.764587,0.290588,-0.346069,-0.459595
1480519079048798,0.765015,0.292236,-0.344299,-0.459106
1480519079063335,0.765259,0.293701,-0.342529,-0.459106
1480519079086397,0.76532,0.294983,-0.341064,-0.45929
1480519079108455,0.765381,0.295959,-0.339844,-0.459412
1480519079122994,0.765442,0.29657,-0.338928,-0.459595
1480519079146058,0.765381,0.296875,-0.338623,-0.459778
1480519079168617,0.76532,0.296936,-0.338379,-0.459961
1480519079183155,0.765564,0.29657,-0.338196,-0.4599
1480519079213735,0.76593,0.295532,-0.338379,-0.4599
1480519079228776,0.766235,0.294067,-0.339172,-0.459778
1480519079242813,0.766113,0.292847,-0.340393,-0.459839
1480519079266375,0.765625,0.292236,-0.341431,-0.460327
1480519079288434,0.764893,0.291931,-0.342102,-0.461121
1480519079302973,0.764343,0.291809,-0.342529,-0.461792
1480519079326046,0.763733,0.291992,-0.342896,-0.462463
1480519079348595,0.763306,0.292297,-0.34314,-0.462708
1480519079371155,0.763184,0.292664,-0.343201,-0.462708
1480519079386194,0.763184,0.292664,-0.343201,-0.462708
1480519079408754,0.763306,0.292664,-0.342957,-0.462708
1480519079429812,0.763306,0.292419,-0.34259,-0.463135
1480519079446856,0.763611,0.291931,-0.342163,-0.463257
1480519079468914,0.763855,0.291626,-0.341675,-0.46344
1480519079489971,0.763977,0.291443,-0.341064,-0.463745
1480519079506013,0.764099,0.291443,-0.340332,-0.464111
1480519079528574,0.76416,0.291504,-0.339478,-0.4646
1480519079549629,0.764282,0.291687,-0.338623,-0.464905
1480519079566554,0.764404,0.29187,-0.337952,-0.465027
1480519079588733,0.764587,0.292114,-0.337402,-0.464905
1480519079609789,0.764832,0.292236,-0.337158,-0.464722
1480519079626334,0.765015,0.292358,-0.336914,-0.464478
1480519079648893,0.765259,0.29248,-0.33667,-0.464172
1480519079669949,0.765503,0.292664,-0.336487,-0.463806
1480519079685991,0.765747,0.292908,-0.336182,-0.463501
1480519079708552,0.765869,0.293091,-0.33606,-0.463257
1480519079729610,0.765869,0.293396,-0.335876,-0.463135
1480519079746154,0.766113,0.293701,-0.335571,-0.46283
1480519079768712,0.766479,0.293884,-0.335022,-0.462463
1480519079789767,0.767029,0.293579,-0.334839,-0.461914
1480519079806312,0.767456,0.293579,-0.334534,-0.461365
1480519079828872,0.767761,0.293701,-0.334229,-0.46106
1480519079851431,0.767883,0.293884,-0.334106,-0.460815
1480519079866197,0.767883,0.294312,-0.333984,-0.460571
1480519079888531,0.767944,0.2948,-0.333618,-0.460449
1480519079911091,0.768005,0.295105,-0.333252,-0.460388
1480519079925629,0.768188,0.295349,-0.332886,-0.460205
1480519079948690,0.768494,0.295532,-0.332336,-0.459961
1480519079971752,0.76886,0.295776,-0.33136,-0.459961
1480519079985789,0.769348,0.295959,-0.330261,-0.459839
1480519080008850,0.769775,0.296021,-0.329224,-0.459778
1480519080031410,0.77002,0.296204,-0.328552,-0.459778
1480519080045448,0.769958,0.296326,-0.328369,-0.459961
1480519080068510,0.769775,0.296387,-0.32843,-0.460083
1480519080091069,0.769775,0.296387,-0.328491,-0.460083
1480519080113630,0.769653,0.296387,-0.328552,-0.460266
1480519080128670,0.769653,0.296204,-0.328735,-0.460266
1480519080150728,0.769775,0.295898,-0.328979,-0.460083
1480519080165769,0.769836,0.295593,-0.329163,-0.460022
1480519080188829,0.769897,0.295349,-0.329285,-0.459961
1480519080211389,0.770081,0.295166,-0.329224,-0.459839
1480519080225426,0.77002,0.295227,-0.329224,-0.4599
1480519080248989,0.770203,0.295227,-0.328857,-0.4599
1480519080271048,0.770325,0.295349,-0.328613,-0.459717
1480519080293106,0.770447,0.295471,-0.32843,-0.459595
1480519080308648,0.770447,0.295471,-0.328491,-0.459534
1480519080331208,0.770447,0.295471,-0.328491,-0.459534
1480519080352264,0.770569,0.295166,-0.328613,-0.459412
1480519080368808,0.770752,0.294739,-0.328735,-0.459351
1480519080390867,0.770935,0.29425,-0.328796,-0.45929
1480519080412424,0.771118,0.293823,-0.328796,-0.45929
1480519080434983,0.771301,0.293518,-0.328613,-0.45929
1480519080458546,0.771484,0.29303,-0.328552,-0.459351
1480519080473085,0.771729,0.292419,-0.328491,-0.459351
1480519080488627,0.77179,0.292114,-0.328491,-0.459412
1480519080517202,0.77179,0.291687,-0.328552,-0.459656
1480519080532242,0.77179,0.291321,-0.32843,-0.460022
1480519080548786,0.771667,0.291016,-0.328308,-0.460449
1480519080571347,0.771606,0.290649,-0.328186,-0.460938
1480519080592402,0.771606,0.290161,-0.328003,-0.461365
1480519080608946,0.771484,0.289734,-0.328003,-0.461731
1480519080631007,0.771484,0.28949,-0.327881,-0.462097
1480519080652061,0.771606,0.289246,-0.327637,-0.462158
1480519080676125,0.771667,0.289063,-0.327393,-0.462341
1480519080691165,0.77179,0.288879,-0.327209,-0.462341
1480519080712221,0.771851,0.288879,-0.327148,-0.462341
1480519080728766,0.772034,0.289001,-0.326904,-0.462097
1480519080751326,0.772156,0.289063,-0.326782,-0.461975
1480519080773885,0.772339,0.289124,-0.32666,-0.461731
1480519080788424,0.772461,0.289185,-0.326477,-0.461609
1480519080810984,0.772583,0.289185,-0.326294,-0.461487
1480519080841064,0.772644,0.289185,-0.326172,-0.461487
1480519080848585,0.772766,0.289246,-0.32605,-0.461304
1480519080878664,0.772827,0.289307,-0.326172,-0.461121
1480519080893704,0.772827,0.289307,-0.326416,-0.460938
1480519080908242,0.772949,0.289185,-0.32666,-0.460632
1480519080931304,0.773071,0.288818,-0.327209,-0.460327
1480519080953864,0.773071,0.288879,-0.327515,-0.460083
1480519080967901,0.773071,0.288818,-0.327759,-0.4599
1480519080990962,0.773071,0.288818,-0.327942,-0.459778
1480519081013522,0.772949,0.288879,-0.328125,-0.459839
1480519081028062,0.772949,0.288879,-0.328125,-0.459839
1480519081058643,0.772888,0.288879,-0.328064,-0.459839
1480519081073684,0.772888,0.288879,-0.328064,-0.4599
1480519081088222,0.772949,0.28894,-0.328064,-0.459839
1480519081111283,0.772949,0.28894,-0.328064,-0.459839
1480519081133845,0.772949,0.28894,-0.328064,-0.459839
1480519081156404,0.772949,0.28894,-0.328064,-0.459839
1480519081170942,0.772949,0.28894,-0.328003,-0.459839
1480519081193502,0.772949,0.28894,-0.328003,-0.459839
1480519081208040,0.772949,0.28894,-0.328003,-0.4599
1480519081231103,0.77301,0.288879,-0.328125,-0.459656
1480519081253661,0.773071,0.288818,-0.328186,-0.459534
1480519081274718,0.773071,0.288818,-0.328247,-0.459595
1480519081291261,0.773071,0.288879,-0.328186,-0.459595
1480519081313822,0.773071,0.288879,-0.328186,-0.459595
1480519081335379,0.773071,0.288879,-0.328186,-0.459595
1480519081351428,0.773071,0.288879,-0.328186,-0.459595
1480519081379997,0.773132,0.289063,-0.328186,-0.459412
1480519081394537,0.773071,0.289063,-0.328186,-0.459412
1480519081411080,0.773071,0.289063,-0.328186,-0.459412
1480519081434142,0.773071,0.289063,-0.328186,-0.459412
1480519081456200,0.773071,0.289063,-0.328186,-0.459412
1480519081471240,0.773071,0.289063,-0.328186,-0.459412
1480519081493800,0.77301,0.289368,-0.328247,-0.45929
1480519081514857,0.772888,0.289673,-0.328369,-0.459229
1480519081531404,0.772888,0.289673,-0.328369,-0.459229
1480519081553459,0.772705,0.289673,-0.328613,-0.459351
1480519081575016,0.7724,0.289917,-0.328796,-0.459595
1480519081591059,0.772156,0.289978,-0.329102,-0.459839
1480519081621141,0.772034,0.290039,-0.32959,-0.459534
1480519081634676,0.771912,0.289795,-0.330383,-0.45929
1480519081657235,0.771973,0.289368,-0.331177,-0.458923
1480519081679795,0.771851,0.288635,-0.332092,-0.458984
1480519081694835,0.771729,0.288086,-0.332703,-0.458984
1480519081711379,0.771362,0.288086,-0.332886,-0.459534
1480519081740957,0.771118,0.288208,-0.332764,-0.460022
1480519081755999,0.770996,0.288147,-0.332336,-0.46051
1480519081771038,0.770996,0.288208,-0.331848,-0.460815
1480519081793598,0.770996,0.288208,-0.33136,-0.461182
1480519081816159,0.771118,0.288208,-0.330994,-0.461182
1480519081830697,0.771423,0.288086,-0.33075,-0.460938
1480519081853757,0.771667,0.288086,-0.330627,-0.460693
1480519081876317,0.77179,0.288086,-0.330383,-0.460693
1480519081890355,0.772156,0.287964,-0.330139,-0.460327
1480519081913918,0.772217,0.287964,-0.329895,-0.460327
1480519081935977,0.772339,0.287964,-0.32959,-0.460388
1480519081950515,0.7724,0.288086,-0.329224,-0.46051
1480519081973578,0.772461,0.288086,-0.328857,-0.460571
1480519081996137,0.772522,0.287964,-0.328674,-0.460693
1480519082010675,0.772705,0.287842,-0.328735,-0.460388
1480519082033740,0.773132,0.28772,-0.328613,-0.4599
1480519082056296,0.773315,0.287598,-0.32843,-0.459839
1480519082070335,0.773315,0.287537,-0.32843,-0.459778
1480519082099912,0.773804,0.287415,-0.328491,-0.459045
1480519082115955,0.773926,0.287048,-0.328857,-0.45874
1480519082130495,0.773926,0.286865,-0.329163,-0.45874
1480519082153555,0.773682,0.287109,-0.329407,-0.458801
1480519082176116,0.773499,0.287354,-0.32959,-0.458862
1480519082197178,0.773315,0.287598,-0.32959,-0.458923
1480519082213719,0.773254,0.287842,-0.329407,-0.458984
1480519082236275,0.773254,0.288147,-0.329224,-0.458984
1480519082257332,0.773254,0.288513,-0.329041,-0.458862
1480519082273875,0.773254,0.288879,-0.328796,-0.458801
1480519082297941,0.773193,0.289185,-0.328735,-0.45874
1480519082316990,0.773193,0.289307,-0.328796,-0.458679
1480519082340552,0.773193,0.289307,-0.328796,-0.458679
1480519082356094,0.773193,0.289307,-0.328796,-0.458679
1480519082378654,0.773132,0.289246,-0.328796,-0.45874
1480519082393694,0.773132,0.289246,-0.328796,-0.45874
1480519082416255,0.773132,0.289246,-0.328857,-0.458679
1480519082444831,0.773132,0.289246,-0.328857,-0.45874
1480519082453854,0.773132,0.289246,-0.328796,-0.45874
1480519082475912,0.773132,0.289246,-0.328796,-0.45874
1480519082497470,0.77301,0.28949,-0.328796,-0.458862
1480519082513513,0.772827,0.289795,-0.328735,-0.458984
1480519082542089,0.772705,0.290222,-0.328552,-0.459045
1480519082557129,0.772583,0.290588,-0.328308,-0.459167
1480519082573674,0.772583,0.290588,-0.328308,-0.459229
1480519082596233,0.772522,0.290833,-0.328125,-0.45929
1480519082624808,0.772461,0.291016,-0.327942,-0.459351
1480519082633833,0.772461,0.291016,-0.327942,-0.459412
1480519082656392,0.772461,0.291016,-0.327942,-0.459412
1480519082678953,0.772461,0.291016,-0.327942,-0.459412
1480519082693492,0.772339,0.290955,-0.327881,-0.459656
1480519082716053,0.772339,0.290955,-0.327881,-0.459656
1480519082738612,0.772339,0.291016,-0.327881,-0.459656
1480519082753665,0.772339,0.290955,-0.327881,-0.459656
1480519082776211,0.772217,0.290955,-0.327942,-0.459839
1480519082798772,0.772217,0.291016,-0.327942,-0.459839
1480519082813311,0.772217,0.291016,-0.327881,-0.459839
1480519082836372,0.772217,0.291016,-0.327881,-0.459839
1480519082858931,0.772217,0.291016,-0.327942,-0.4599
1480519082872969,0.772156,0.291016,-0.327881,-0.4599
1480519082896030,0.772034,0.291199,-0.327942,-0.460083
1480519082918590,0.771912,0.291382,-0.32782,-0.460144
1480519082939647,0.771851,0.291626,-0.327698,-0.460266
1480519082956190,0.771729,0.29187,-0.327576,-0.460327
1480519082978750,0.771667,0.292114,-0.327576,-0.460327
1480519082992787,0.771667,0.292114,-0.327576,-0.460327
1480519083016351,0.771667,0.292114,-0.327576,-0.460327
1480519083038910,0.771606,0.292236,-0.327698,-0.460266
1480519083052947,0.771606,0.292236,-0.327698,-0.460266
1480519083076010,0.771545,0.292236,-0.327698,-0.460327
1480519083099071,0.771545,0.292175,-0.327698,-0.460327
1480519083113108,0.771545,0.292175,-0.327759,-0.460327
1480519083136169,0.771545,0.292175,-0.327759,-0.460327
1480519083158730,0.771545,0.292175,-0.327759,-0.460327
1480519083179785,0.771545,0.292175,-0.327759,-0.460327
1480519083196330,0.771545,0.292175,-0.327759,-0.460327
1480519083218889,0.771545,0.292175,-0.327759,-0.460327
1480519083239944,0.771545,0.292175,-0.327759,-0.460327
1480519083263509,0.771484,0.292358,-0.327881,-0.460266
1480519083286067,0.771423,0.292358,-0.32782,-0.460327
1480519083299604,0.771423,0.292358,-0.32782,-0.460327
1480519083316148,0.77124,0.292664,-0.327698,-0.460571
1480519083338707,0.771057,0.292969,-0.327637,-0.460815
1480519083359763,0.770874,0.293152,-0.327515,-0.460999
1480519083376308,0.770813,0.293335,-0.327393,-0.46106
1480519083398868,0.770813,0.293335,-0.327393,-0.46106
1480519083419923,0.770813,0.293335,-0.327393,-0.46106
1480519083443487,0.770813,0.293335,-0.327393,-0.46106
1480519083458527,0.770874,0.293335,-0.327393,-0.460999
1480519083479582,0.770813,0.293335,-0.327393,-0.46106
1480519083503646,0.770874,0.293335,-0.327393,-0.460999
1480519083518686,0.771057,0.293335,-0.327209,-0.460876
1480519083539742,0.770996,0.293335,-0.327209,-0.460876
1480519083556286,0.771118,0.293335,-0.327148,-0.460693
1480519083578847,0.771118,0.293335,-0.327148,-0.460693
1480519083601407,0.771118,0.293335,-0.327148,-0.460693
1480519083623465,0.771118,0.293335,-0.327148,-0.460693
1480519083638505,0.77124,0.293274,-0.327271,-0.46051
1480519083668585,0.77124,0.293274,-0.327271,-0.460571
1480519083676105,0.771179,0.293274,-0.327271,-0.460571
1480519083704681,0.771179,0.293274,-0.327271,-0.460571
1480519083721225,0.771179,0.293274,-0.327209,-0.460632
1480519083742281,0.771179,0.293274,-0.327209,-0.460632
1480519083758830,0.771179,0.293274,-0.327209,-0.460632
1480519083781388,0.771179,0.293274,-0.327209,-0.460632
1480519083795423,0.771179,0.293274,-0.327209,-0.460632
1480519083818484,0.771179,0.293274,-0.327209,-0.460632
1480519083841044,0.771179,0.293274,-0.327209,-0.460632
1480519083855585,0.771179,0.293274,-0.327209,-0.460632
1480519083879146,0.771179,0.293274,-0.327209,-0.460632
1480519083901206,0.771179,0.293274,-0.327209,-0.460632
1480519083915743,0.771179,0.293274,-0.327209,-0.460632
1480519083938804,0.771179,0.293274,-0.327209,-0.460632
1480519083961365,0.771179,0.293274,-0.327209,-0.460632
1480519083975403,0.771179,0.293274,-0.327209,-0.460632
1480519084004478,0.771179,0.293274,-0.327271,-0.460632
1480519084021023,0.771179,0.293274,-0.327271,-0.460632
1480519084035561,0.771179,0.293274,-0.327271,-0.460632
1480519084066144,0.771179,0.293274,-0.327271,-0.460632
1480519084081184,0.771179,0.293274,-0.327271,-0.460632
1480519084102238,0.771179,0.293274,-0.327271,-0.460632
1480519084118782,0.771179,0.293274,-0.327271,-0.460632
1480519084141343,0.771179,0.293274,-0.327271,-0.460632
1480519084162906,0.771118,0.293274,-0.327271,-0.460632
1480519084178441,0.771118,0.293274,-0.327271,-0.460693
1480519084208521,0.771179,0.293274,-0.327271,-0.460632
1480519084222057,0.771179,0.293274,-0.327209,-0.460632
1480519084238601,0.771179,0.293274,-0.327209,-0.460632
1480519084261163,0.771179,0.293274,-0.327271,-0.460632
1480519084283722,0.771179,0.293274,-0.327271,-0.460632
1480519084298762,0.771179,0.293213,-0.327271,-0.460632
1480519084321321,0.771179,0.293213,-0.327332,-0.460571
1480519084342377,0.77124,0.293213,-0.327332,-0.460571
1480519084359423,0.771301,0.293335,-0.327393,-0.460327
1480519084380982,0.771423,0.293396,-0.327393,-0.460022
1480519084402073,0.771667,0.293274,-0.327454,-0.459656
1480519084418581,0.771851,0.29303,-0.327759,-0.45929
1480519084441141,0.771973,0.292664,-0.328125,-0.458984
1480519084462196,0.771973,0.292542,-0.32843,-0.458862
1480519084484756,0.771973,0.292542,-0.32843,-0.458862
1480519084501300,0.771973,0.292542,-0.32843,-0.458862
1480519084523860,0.771973,0.292542,-0.32843,-0.458862
1480519084538899,0.772034,0.292542,-0.32843,-0.458862
1480519084560959,0.772034,0.292542,-0.328369,-0.458862
1480519084583519,0.772034,0.292542,-0.328369,-0.458862
1480519084598559,0.772034,0.292542,-0.328369,-0.458801
1480519084621120,0.772034,0.292542,-0.328369,-0.458801
1480519084643679,0.772034,0.292542,-0.328369,-0.458801
1480519084658719,0.772034,0.292542,-0.32843,-0.458801
1480519084681781,0.772034,0.292542,-0.32843,-0.458801
1480519084704841,0.772034,0.292542,-0.32843,-0.458801
1480519084717877,0.772095,0.292358,-0.328613,-0.45874
1480519084740937,0.772095,0.292358,-0.328613,-0.45874
1480519084771018,0.772034,0.292358,-0.328613,-0.45874
1480519084778037,0.772095,0.292358,-0.328613,-0.45874
1480519084801098,0.772095,0.292358,-0.328552,-0.458679
1480519084823657,0.772095,0.292358,-0.328613,-0.458679
1480519084844714,0.772095,0.292358,-0.328613,-0.45874
1480519084861258,0.772095,0.292419,-0.328552,-0.458679
1480519084883818,0.772095,0.292419,-0.328552,-0.458679
1480519084897855,0.772095,0.292419,-0.328552,-0.458679
1480519084928938,0.772095,0.292419,-0.328552,-0.458679
1480519084943476,0.772095,0.292419,-0.328552,-0.458679
1480519084958015,0.772095,0.292419,-0.328552,-0.458679
1480519084981079,0.772095,0.292358,-0.328613,-0.458679
1480519085003637,0.772095,0.292358,-0.328613,-0.458679
1480519085018175,0.772156,0.292358,-0.328613,-0.458618
1480519085041738,0.772156,0.292358,-0.328613,-0.458618
1480519085063796,0.772156,0.292358,-0.328613,-0.458618
1480519085084852,0.772156,0.292358,-0.328613,-0.458618
1480519085101396,0.772156,0.292358,-0.328613,-0.458618
1480519085123455,0.772156,0.292358,-0.328613,-0.458618
1480519085144512,0.772156,0.292358,-0.328613,-0.458618
1480519085161557,0.772095,0.292542,-0.328552,-0.458679
1480519085183615,0.772095,0.292542,-0.328491,-0.458679
1480519085204671,0.772095,0.292542,-0.328491,-0.458618
1480519085227231,0.772095,0.292542,-0.328491,-0.458618
1480519085243775,0.772156,0.292542,-0.328491,-0.458618
1480519085264833,0.772156,0.292542,-0.328491,-0.458557
1480519085281375,0.772095,0.292603,-0.328308,-0.45874
1480519085303935,0.772095,0.292786,-0.328064,-0.458862
1480519085332010,0.772095,0.29303,-0.327576,-0.459045
1480519085342036,0.772095,0.292969,-0.327454,-0.459106
1480519085363595,0.772095,0.292969,-0.327454,-0.459106
1480519085392169,0.772095,0.292969,-0.327454,-0.459106
1480519085401194,0.772095,0.292969,-0.327454,-0.459106
1480519085429770,0.772095,0.292969,-0.327454,-0.459106
1480519085445311,0.772095,0.292969,-0.327454,-0.459106
1480519085461855,0.771973,0.292969,-0.327637,-0.459167
1480519085483914,0.771973,0.292969,-0.327637,-0.459167
1480519085505973,0.771973,0.292969,-0.327637,-0.459167
1480519085521012,0.772034,0.292969,-0.327637,-0.459167
1480519085543572,0.772034,0.292969,-0.327637,-0.459106
1480519085566134,0.772034,0.292969,-0.327637,-0.459106
1480519085581173,0.772034,0.29303,-0.327576,-0.459106
1480519085609748,0.772034,0.29303,-0.327576,-0.459106
1480519085626296,0.772034,0.29303,-0.327576,-0.459106
1480519085640331,0.772034,0.29303,-0.327576,-0.459045
1480519085670911,0.771973,0.293091,-0.327759,-0.459106
1480519085685951,0.771851,0.293213,-0.328064,-0.458923
1480519085700490,0.77179,0.293396,-0.32843,-0.458679
1480519085723551,0.771606,0.293518,-0.328735,-0.458679
1480519085746113,0.771606,0.293579,-0.328735,-0.458679
1480519085760650,0.771606,0.293579,-0.328735,-0.458679
1480519085784212,0.771545,0.293823,-0.328796,-0.458557
1480519085806278,0.771362,0.294067,-0.328857,-0.458618
1480519085820309,0.771362,0.294067,-0.328857,-0.458618
1480519085843871,0.77124,0.294312,-0.328979,-0.458679
1480519085865931,0.77124,0.294312,-0.328979,-0.458679
1480519085888490,0.77124,0.294312,-0.328979,-0.458679
1480519085903530,0.77124,0.294312,-0.328979,-0.458679
1480519085926090,0.77124,0.294312,-0.328979,-0.458679
1480519085948651,0.77124,0.29425,-0.328979,-0.458679
1480519085963691,0.77124,0.29425,-0.328979,-0.458679
1480519085986751,0.77124,0.294312,-0.328979,-0.458679
1480519086014829,0.77124,0.29425,-0.328979,-0.458679
1480519086023850,0.77124,0.294312,-0.328979,-0.458618
1480519086053930,0.77124,0.29425,-0.328979,-0.458618
1480519086067967,0.77124,0.294434,-0.329102,-0.458435
1480519086083508,0.771362,0.294617,-0.329224,-0.458008
1480519086106069,0.771606,0.295044,-0.329041,-0.457458
1480519086127125,0.772156,0.295044,-0.329102,-0.456543
1480519086149685,0.772583,0.2948,-0.32959,-0.455566
1480519086166230,0.772644,0.294922,-0.329895,-0.455139
1480519086187296,0.772644,0.294739,-0.330078,-0.4552
1480519086203829,0.772583,0.294495,-0.330261,-0.455322
1480519086233909,0.772461,0.294495,-0.330383,-0.455444
1480519086247446,0.772278,0.294373,-0.330383,-0.455811
1480519086263488,0.772034,0.29425,-0.330322,-0.45636
1480519086289060,0.77179,0.29425,-0.330017,-0.457031
1480519086307103,0.771484,0.294189,-0.329773,-0.457703
1480519086324149,0.771362,0.294006,-0.329529,-0.458191
1480519086346208,0.771423,0.293579,-0.329468,-0.458374
1480519086367264,0.771118,0.29303,-0.329529,-0.459229
1480519086389823,0.770813,0.292297,-0.329834,-0.459961
1480519086406869,0.77063,0.291504,-0.329834,-0.460754
1480519086428426,0.770508,0.290588,-0.330383,-0.461243
1480519086443466,0.770264,0.289978,-0.331299,-0.461304
1480519086466027,0.770813,0.289246,-0.331909,-0.46051
1480519086488586,0.771484,0.28833,-0.332397,-0.459534
1480519086503626,0.772156,0.288269,-0.33313,-0.457886
1480519086526186,0.772827,0.28949,-0.333984,-0.455444
1480519086549248,0.772888,0.290283,-0.33667,-0.452759
1480519086569802,0.772095,0.292603,-0.338379,-0.451416
1480519086586346,0.771851,0.292725,-0.338257,-0.451782
1480519086608405,0.771545,0.292786,-0.337891,-0.452576
1480519086629963,0.771118,0.29303,-0.337463,-0.45343
1480519086646006,0.770569,0.292847,-0.337952,-0.454102
1480519086668565,0.770203,0.292175,-0.338867,-0.454529
1480519086683104,0.769714,0.291321,-0.340149,-0.454895
1480519086706165,0.769348,0.290283,-0.341675,-0.455078
1480519086728726,0.769409,0.289429,-0.342468,-0.454834
1480519086742762,0.76947,0.288818,-0.342834,-0.454895
1480519086766326,0.769653,0.288452,-0.342834,-0.454834
1480519086788885,0.769775,0.288513,-0.342468,-0.454895
1480519086802922,0.769775,0.288757,-0.341675,-0.455261
1480519086825984,0.769653,0.289307,-0.340454,-0.456116
1480519086848543,0.769592,0.289978,-0.338318,-0.457275
1480519086863084,0.770203,0.290039,-0.335938,-0.458069
1480519086886143,0.770996,0.289795,-0.333679,-0.458496
1480519086908704,0.771851,0.289246,-0.331543,-0.458923
1480519086930263,0.772827,0.28833,-0.329651,-0.45929
1480519086946305,0.773621,0.28717,-0.328003,-0.459839
1480519086968864,0.774292,0.285828,-0.326904,-0.460388
1480519086989919,0.774719,0.284424,-0.325745,-0.461304
1480519087005963,0.775146,0.282776,-0.325073,-0.462036
1480519087028523,0.775513,0.281494,-0.324951,-0.462341
1480519087057099,0.775635,0.280334,-0.325134,-0.462708
1480519087066123,0.775574,0.279541,-0.325134,-0.463257
1480519087094699,0.775574,0.27887,-0.325073,-0.463684
1480519087109738,0.775696,0.278442,-0.32489,-0.463928
1480519087126283,0.775818,0.277954,-0.324646,-0.464172
1480519087148843,0.776001,0.277466,-0.324463,-0.464294
1480519087169898,0.776245,0.277039,-0.324219,-0.464294
1480519087185941,0.77655,0.276611,-0.323975,-0.464172
1480519087208501,0.776794,0.276428,-0.323853,-0.463928
1480519087229558,0.777039,0.276428,-0.323975,-0.463501
1480519087246102,0.777161,0.276978,-0.32428,-0.462769
1480519087268661,0.777222,0.277771,-0.32489,-0.461731
1480519087289718,0.777161,0.278442,-0.325806,-0.460754
1480519087312277,0.777161,0.279175,-0.326477,-0.459961
1480519087342858,0.776978,0.279907,-0.326721,-0.459595
1480519087349877,0.776794,0.280518,-0.32666,-0.459473
1480519087365920,0.776794,0.280945,-0.326416,-0.459473
1480519087388486,0.776855,0.281189,-0.326111,-0.459473
1480519087411044,0.776855,0.281311,-0.325806,-0.459595
1480519087426080,0.776855,0.28125,-0.325623,-0.459778
1480519087449141,0.776855,0.281128,-0.325439,-0.4599
1480519087471199,0.776855,0.280945,-0.3255,-0.460022
1480519087486240,0.776855,0.280945,-0.3255,-0.460022
1480519087508800,0.776855,0.280945,-0.3255,-0.460022
1480519087538378,0.776855,0.280884,-0.325256,-0.460144
1480519087545397,0.776855,0.280823,-0.324951,-0.460449
1480519087568459,0.776917,0.280579,-0.324463,-0.460754
1480519087591019,0.777039,0.280212,-0.324097,-0.461121
1480519087613578,0.777222,0.279724,-0.323792,-0.461304
1480519087628619,0.777344,0.279175,-0.323486,-0.461609
1480519087651178,0.777405,0.278748,-0.323303,-0.461975
1480519087665717,0.777344,0.278381,-0.323242,-0.462341
1480519087688779,0.777344,0.278259,-0.323059,-0.462585
1480519087711344,0.7771,0.27832,-0.322937,-0.462952
1480519087725376,0.776733,0.278503,-0.322876,-0.463501
1480519087748438,0.776611,0.278442,-0.322937,-0.463684
1480519087777014,0.776855,0.278259,-0.322937,-0.463379
1480519087785536,0.776917,0.27771,-0.322998,-0.463623
1480519087808598,0.776855,0.2771,-0.323059,-0.46405
1480519087831158,0.777039,0.276367,-0.323059,-0.464172
1480519087845696,0.777039,0.275574,-0.323181,-0.464539
1480519087868758,0.777161,0.274719,-0.323181,-0.464844
1480519087891319,0.777161,0.273865,-0.323181,-0.465332
1480519087912373,0.777161,0.27301,-0.323303,-0.465759
1480519087928917,0.777344,0.271912,-0.323425,-0.466003
1480519087950976,0.777954,0.270508,-0.323608,-0.465759
1480519087972032,0.778442,0.269897,-0.323547,-0.465271
1480519087996097,0.77887,0.269653,-0.324036,-0.464355
1480519088011138,0.778992,0.270142,-0.32428,-0.463806
1480519088032192,0.778931,0.270752,-0.323853,-0.463806
1480519088056256,0.779053,0.271301,-0.323242,-0.463623
1480519088071798,0.779297,0.272034,-0.322937,-0.463013
1480519088092352,0.779419,0.273071,-0.323181,-0.462036
1480519088108896,0.779358,0.274292,-0.32312,-0.461426
1480519088130956,0.779419,0.27478,-0.322815,-0.461304
1480519088152010,0.779358,0.275269,-0.32251,-0.461304
1480519088168555,0.779358,0.275757,-0.322266,-0.461182
1480519088191115,0.779419,0.276062,-0.322205,-0.460999
1480519088212171,0.779419,0.276367,-0.322327,-0.460632
1480519088228715,0.779419,0.276611,-0.322449,-0.460449
1480519088258294,0.779297,0.276794,-0.322571,-0.46051
1480519088272331,0.779175,0.277161,-0.322388,-0.460571
1480519088288875,0.778992,0.277649,-0.322266,-0.460693
1480519088311438,0.778809,0.277893,-0.322205,-0.460815
1480519088333494,0.778809,0.277893,-0.322205,-0.460876
1480519088348535,0.778748,0.278015,-0.32251,-0.460632
1480519088371093,0.778748,0.278259,-0.322937,-0.460266
1480519088393655,0.778625,0.27832,-0.323303,-0.460144
1480519088408699,0.778442,0.27832,-0.323547,-0.460266
1480519088431254,0.778442,0.27832,-0.323547,-0.460327
1480519088453813,0.778259,0.27832,-0.323425,-0.460632
1480519088468855,0.778198,0.27832,-0.323242,-0.460876
1480519088491413,0.778137,0.278198,-0.323181,-0.461121
1480519088513472,0.778076,0.277954,-0.323242,-0.461304
1480519088528013,0.778076,0.277954,-0.323242,-0.461304
1480519088551573,0.778076,0.277832,-0.323303,-0.461426
1480519088573632,0.778015,0.277588,-0.323303,-0.46167
1480519088588171,0.778076,0.277344,-0.32312,-0.461792
1480519088611236,0.778137,0.277161,-0.322937,-0.461975
1480519088633793,0.778076,0.276917,-0.322693,-0.462341
1480519088648331,0.778076,0.276611,-0.32251,-0.462646
1480519088671393,0.778137,0.27655,-0.322083,-0.462891
1480519088693452,0.778381,0.276123,-0.321594,-0.463074
1480519088716513,0.778381,0.275818,-0.321533,-0.463318
1480519088731052,0.778442,0.275635,-0.321411,-0.463379
1480519088753612,0.778442,0.275696,-0.321106,-0.463562
1480519088768150,0.77832,0.275574,-0.320923,-0.463989
1480519088791211,0.778381,0.275574,-0.32019,-0.464417
1480519088819787,0.77832,0.275208,-0.319824,-0.464905
1480519088834827,0.778442,0.274719,-0.319641,-0.465149
1480519088851370,0.778442,0.274353,-0.319519,-0.465393
1480519088874934,0.778503,0.273926,-0.319641,-0.465454
1480519088894487,0.778564,0.273621,-0.319885,-0.465454
1480519088911032,0.778442,0.273315,-0.320129,-0.465637
1480519088933590,0.778442,0.273071,-0.320313,-0.465698
1480519088954646,0.77832,0.272949,-0.320496,-0.46582
1480519088977206,0.778259,0.272949,-0.320496,-0.465881
1480519088993750,0.778381,0.273132,-0.320374,-0.465637
1480519089014807,0.778503,0.273499,-0.32019,-0.465332
1480519089031350,0.778748,0.273987,-0.320007,-0.464783
1480519089053910,0.779175,0.274414,-0.320007,-0.463867
1480519089074464,0.779419,0.274963,-0.319824,-0.463257
1480519089091009,0.77948,0.275269,-0.319702,-0.463074
1480519089113568,0.779663,0.275635,-0.319336,-0.462769
1480519089134625,0.779907,0.276001,-0.319031,-0.462341
1480519089151670,0.779907,0.276428,-0.318787,-0.462219
1480519089173730,0.779907,0.2771,-0.318298,-0.462219
1480519089194306,0.779968,0.27771,-0.317444,-0.462341
1480519089211329,0.780151,0.277954,-0.316772,-0.462402
1480519089233888,0.780334,0.278076,-0.316101,-0.462463
1480519089254443,0.780518,0.278076,-0.315552,-0.462463
1480519089273493,0.78064,0.277954,-0.315308,-0.462463
1480519089293548,0.780701,0.277832,-0.315063,-0.462646
1480519089316107,0.780823,0.277344,-0.315063,-0.462769
1480519089337163,0.780884,0.277161,-0.315002,-0.462769
1480519089353709,0.780823,0.2771,-0.314941,-0.462891
1480519089376267,0.780823,0.2771,-0.315002,-0.462891
1480519089391309,0.780762,0.277039,-0.315369,-0.462769
1480519089413867,0.78064,0.276855,-0.315918,-0.462769
1480519089441943,0.780457,0.276672,-0.316345,-0.462891
1480519089450464,0.780273,0.276672,-0.316528,-0.462952
1480519089473526,0.780212,0.276733,-0.316711,-0.462952
1480519089496086,0.779968,0.277039,-0.317017,-0.463013
1480519089510626,0.779907,0.277344,-0.317261,-0.462769
1480519089539702,0.779785,0.277405,-0.317505,-0.462769
1480519089556246,0.779907,0.277405,-0.317688,-0.462524
1480519089570284,0.779907,0.277405,-0.317627,-0.462524
1480519089593846,0.779968,0.277649,-0.317444,-0.462402
1480519089615905,0.779968,0.277832,-0.317139,-0.462402
1480519089630446,0.779968,0.277832,-0.317139,-0.462402
1480519089659522,0.78009,0.278015,-0.317078,-0.462219
1480519089676065,0.780212,0.278015,-0.317139,-0.461975
1480519089690604,0.780396,0.278076,-0.317139,-0.461609
1480519089714166,0.780579,0.277954,-0.317017,-0.461426
1480519089736225,0.780579,0.277954,-0.317017,-0.461487
1480519089757281,0.780579,0.277954,-0.317017,-0.461487
1480519089773826,0.780579,0.277954,-0.317017,-0.461487
1480519089795884,0.780518,0.277954,-0.317017,-0.461487
1480519089816939,0.780518,0.277954,-0.317017,-0.461487
1480519089833517,0.780579,0.277954,-0.317017,-0.461487
1480519089856044,0.780518,0.277954,-0.317017,-0.461487
1480519089877099,0.780518,0.277954,-0.317017,-0.461548
1480519089893644,0.780518,0.277954,-0.317017,-0.461487
1480519089922219,0.780518,0.277954,-0.317017,-0.461487
1480519089944780,0.780518,0.277954,-0.317017,-0.461548
1480519089953804,0.780518,0.277954,-0.317017,-0.461548
1480519089975864,0.780518,0.277954,-0.316956,-0.461548
1480519089996931,0.780579,0.277588,-0.317017,-0.46167
1480519090013463,0.780579,0.277344,-0.317017,-0.461792
1480519090036523,0.780701,0.277039,-0.316956,-0.461853
1480519090057078,0.78064,0.276794,-0.317017,-0.462036
1480519090073622,0.780579,0.27655,-0.317078,-0.462219
1480519090096184,0.780579,0.27655,-0.317017,-0.462219
1480519090119243,0.780579,0.27655,-0.317078,-0.462219
1480519090133783,0.780579,0.27655,-0.317078,-0.46228
1480519090155841,0.780579,0.27655,-0.317078,-0.46228
1480519090177400,0.780518,0.27655,-0.317078,-0.46228
1480519090193942,0.780518,0.27655,-0.317139,-0.462341
1480519090223522,0.780518,0.27655,-0.317078,-0.462341
1480519090238561,0.780518,0.27655,-0.317078,-0.462341
1480519090261121,0.780518,0.27655,-0.317139,-0.462341
1480519090276663,0.780518,0.27655,-0.317139,-0.462341
1480519090299117,0.780518,0.27655,-0.317078,-0.462341
1480519090313761,0.780518,0.27655,-0.317078,-0.462341
1480519090336324,0.780518,0.27655,-0.317078,-0.462341
1480519090358379,0.780518,0.276611,-0.317017,-0.462341
1480519090386955,0.780457,0.276611,-0.316772,-0.462585
1480519090395980,0.780396,0.276794,-0.316406,-0.46283
1480519090419041,0.780396,0.2771,-0.315979,-0.462952
1480519090439596,0.780334,0.277344,-0.315857,-0.463013
1480519090456139,0.780334,0.277527,-0.315552,-0.463135
1480519090478700,0.780579,0.277283,-0.315002,-0.463196
1480519090492737,0.780701,0.276917,-0.31488,-0.463318
1480519090516300,0.780701,0.276917,-0.31488,-0.463257
1480519090538860,0.780701,0.276855,-0.31488,-0.463318
1480519090553399,0.780701,0.276794,-0.315186,-0.463196
1480519090575959,0.780579,0.276672,-0.315613,-0.463135
1480519090598852,0.780396,0.27655,-0.31604,-0.463196
1480519090613058,0.780273,0.276367,-0.316406,-0.463318
1480519090636119,0.780151,0.276306,-0.316528,-0.463501
1480519090659681,0.780029,0.276245,-0.316528,-0.463684
1480519090673217,0.780029,0.276306,-0.316528,-0.463684
1480519090703798,0.780029,0.276306,-0.316467,-0.463684
1480519090718838,0.780029,0.276306,-0.316467,-0.463684
1480519090739894,0.78009,0.276306,-0.316467,-0.463684
1480519090755938,0.78009,0.276306,-0.316467,-0.463684
1480519090778499,0.780151,0.276123,-0.316528,-0.463562
1480519090799555,0.780212,0.275879,-0.316589,-0.463562
1480519090816104,0.780273,0.275635,-0.316589,-0.463623
1480519090838657,0.780151,0.275391,-0.316711,-0.463867
1480519090867233,0.78009,0.275146,-0.316711,-0.464111
1480519090876259,0.78009,0.275085,-0.31665,-0.464233
1480519090898818,0.780029,0.275146,-0.31665,-0.464294
1480519090919873,0.780029,0.275146,-0.31665,-0.464294
1480519090950956,0.780029,0.275146,-0.316589,-0.464294
1480519090958476,0.780029,0.275146,-0.31665,-0.464294
1480519090963991,0.780029,0.275146,-0.31665,-0.464294
1480519090986551,0.780029,0.275146,-0.31665,-0.464355
1480519091001590,0.780029,0.275085,-0.31665,-0.464355
1480519091024150,0.779968,0.274963,-0.316895,-0.464355
1480519091056236,0.779907,0.27478,-0.317139,-0.464355
1480519091061750,0.779846,0.274658,-0.317322,-0.464417
1480519091083809,0.779724,0.274536,-0.317566,-0.464539
1480519091115393,0.779785,0.274536,-0.317505,-0.464539
1480519091121409,0.779785,0.274536,-0.317505,-0.464539
1480519091146978,0.779724,0.274597,-0.317444,-0.464539
1480519091166529,0.779724,0.274597,-0.317444,-0.464539
1480519091181569,0.779724,0.274597,-0.317444,-0.464539
1480519091204130,0.779663,0.27478,-0.317383,-0.4646
1480519091226690,0.779724,0.274963,-0.3172,-0.4646
1480519091241729,0.779724,0.274963,-0.3172,-0.464539
1480519091271308,0.779724,0.275146,-0.3172,-0.464478
1480519091286349,0.779724,0.275146,-0.3172,-0.464478
1480519091308908,0.779663,0.27533,-0.317261,-0.464417
1480519091331468,0.779541,0.275635,-0.317261,-0.464478
1480519091346509,0.77948,0.275635,-0.317261,-0.464478
1480519091361548,0.77948,0.275879,-0.3172,-0.464417
1480519091387116,0.779358,0.276123,-0.317078,-0.464539
1480519091406667,0.779297,0.276428,-0.316895,-0.464661
1480519091421708,0.779236,0.276672,-0.316711,-0.464661
1480519091443769,0.779297,0.276855,-0.316467,-0.464661
1480519091466828,0.779236,0.277039,-0.316223,-0.464722
1480519091482871,0.779358,0.277222,-0.315857,-0.464722
1480519091503927,0.77948,0.277344,-0.315552,-0.4646
1480519091526489,0.779541,0.277405,-0.315491,-0.464539
1480519091541527,0.779541,0.277405,-0.315552,-0.464539
1480519091564087,0.779541,0.277405,-0.315552,-0.464539
1480519091586646,0.779541,0.277405,-0.315552,-0.464539
1480519091602689,0.779541,0.277405,-0.315552,-0.464539
1480519091624247,0.779541,0.277405,-0.315491,-0.464539
1480519091647809,0.779541,0.277405,-0.315552,-0.464539
1480519091663852,0.77948,0.277405,-0.315552,-0.4646
1480519091685414,0.77948,0.277405,-0.315552,-0.4646
1480519091706466,0.77948,0.277405,-0.315552,-0.4646
1480519091723010,0.77948,0.277405,-0.315491,-0.4646
1480519091744065,0.77948,0.277405,-0.315491,-0.4646
1480519091774647,0.77948,0.277466,-0.315491,-0.4646
1480519091783169,0.77948,0.277405,-0.315552,-0.4646
1480519091803724,0.77948,0.277405,-0.315552,-0.464661
1480519091826785,0.77948,0.277466,-0.315491,-0.464661
1480519091842828,0.77948,0.277466,-0.315491,-0.464661
1480519091863884,0.77948,0.277466,-0.315491,-0.464661
1480519091889452,0.77948,0.277466,-0.315491,-0.464661
1480519091903020,0.779419,0.277466,-0.315491,-0.464661
1480519091925548,0.779419,0.277466,-0.315491,-0.464722
1480519091946605,0.779419,0.277466,-0.315552,-0.464722
1480519091963150,0.77948,0.277405,-0.315552,-0.464661
1480519091984205,0.779419,0.277588,-0.315674,-0.464478
1480519092006764,0.779419,0.27771,-0.315796,-0.464417
1480519092022807,0.779419,0.27771,-0.315735,-0.464417
1480519092043865,0.779419,0.27771,-0.315735,-0.464417
1480519092066424,0.779358,0.27771,-0.315735,-0.464478
1480519092090488,0.779358,0.27771,-0.315735,-0.464478
1480519092104022,0.779297,0.277466,-0.31604,-0.464539
1480519092126583,0.779236,0.2771,-0.316467,-0.4646
1480519092145133,0.779114,0.276978,-0.316589,-0.464722
1480519092164184,0.778992,0.276855,-0.316711,-0.464905
1480519092186742,0.779053,0.276855,-0.316711,-0.464905
1480519092204290,0.779053,0.276917,-0.316711,-0.464905
1480519092223842,0.779053,0.276917,-0.31665,-0.464844
1480519092246402,0.779053,0.276917,-0.31665,-0.464844
1480519092271970,0.779175,0.2771,-0.316467,-0.464661
1480519092284002,0.779297,0.277344,-0.316284,-0.464478
1480519092306562,0.779419,0.277466,-0.316162,-0.464233
1480519092329122,0.779541,0.277466,-0.316162,-0.46405
1480519092344162,0.779602,0.277405,-0.316162,-0.463928
1480519092367724,0.779663,0.277222,-0.316406,-0.463867
1480519092389282,0.779602,0.277222,-0.316406,-0.463867
1480519092403820,0.779602,0.277222,-0.316406,-0.463928
1480519092426381,0.779602,0.277222,-0.316467,-0.463928
1480519092448940,0.779602,0.277222,-0.316467,-0.463928
1480519092463981,0.779602,0.277222,-0.316406,-0.463928
1480519092486541,0.779602,0.2771,-0.316528,-0.463928
1480519092509100,0.779663,0.276917,-0.316528,-0.463928
1480519092531661,0.779785,0.27655,-0.31665,-0.463867
1480519092546700,0.779785,0.276306,-0.316833,-0.463928
1480519092568759,0.779724,0.276001,-0.317017,-0.463989
1480519092585303,0.779724,0.275696,-0.317139,-0.464172
1480519092606359,0.779663,0.275574,-0.317078,-0.464355
1480519092628919,0.779663,0.275574,-0.317078,-0.464355
1480519092643959,0.779663,0.275513,-0.316895,-0.464539
1480519092674039,0.779663,0.275635,-0.316589,-0.4646
1480519092689080,0.779724,0.275757,-0.316467,-0.4646
1480519092704119,0.779846,0.275818,-0.316345,-0.464417
1480519092726680,0.779968,0.275879,-0.316162,-0.464233
1480519092757260,0.779968,0.275879,-0.316162,-0.464294
1480519092772802,0.779968,0.275879,-0.316162,-0.464294
1480519092786339,0.779968,0.275879,-0.316162,-0.464294
1480519092811906,0.779968,0.275879,-0.316162,-0.464294
1480519092825442,0.779907,0.275879,-0.316223,-0.464355
1480519092846498,0.779907,0.275879,-0.316223,-0.464355
1480519092869074,0.779907,0.275879,-0.316223,-0.464355
1480519092887107,0.779907,0.275818,-0.316223,-0.464355
1480519092914178,0.779907,0.275818,-0.316284,-0.464355
1480519092929217,0.779907,0.275818,-0.316284,-0.464355
1480519092945260,0.779907,0.275818,-0.316284,-0.464355
1480519092966317,0.779907,0.275818,-0.316284,-0.464355
1480519092988877,0.779907,0.275818,-0.316284,-0.464355
1480519093006925,0.779907,0.275818,-0.316284,-0.464355
1480519093026479,0.779907,0.275818,-0.316284,-0.464355
1480519093052045,0.779907,0.275818,-0.316284,-0.464355
1480519093066082,0.779907,0.275818,-0.316284,-0.464355
1480519093086637,0.779907,0.275818,-0.316284,-0.464355
1480519093109198,0.779907,0.275818,-0.316284,-0.464355
1480519093127249,0.779846,0.275818,-0.316284,-0.464417
1480519093146295,0.779846,0.275818,-0.316284,-0.464417
1480519093168865,0.779846,0.275818,-0.316284,-0.464478
1480519093186903,0.779846,0.275818,-0.316284,-0.464478
1480519093206455,0.779785,0.275818,-0.316345,-0.464478
1480519093229016,0.779785,0.275818,-0.316345,-0.464478
1480519093251575,0.779785,0.275818,-0.316345,-0.464539
1480519093266958,0.779785,0.275818,-0.316345,-0.464539
1480519093289175,0.779785,0.275818,-0.316345,-0.464539
1480519093320258,0.779785,0.275818,-0.316284,-0.464539
1480519093326274,0.779785,0.275818,-0.316284,-0.464539
1480519093348834,0.779785,0.275818,-0.316284,-0.464539
1480519093366882,0.779785,0.275879,-0.316284,-0.464539
1480519093386434,0.779785,0.275879,-0.316284,-0.464539
1480519093408994,0.779785,0.275818,-0.316345,-0.464539
1480519093427044,0.779785,0.275818,-0.316345,-0.464539
1480519093446594,0.779724,0.275818,-0.316345,-0.464539
1480519093476674,0.779724,0.275818,-0.316345,-0.4646
1480519093486701,0.779724,0.275818,-0.316345,-0.4646
1480519093507758,0.779663,0.27594,-0.316467,-0.464539
1480519093536333,0.779602,0.276001,-0.316711,-0.464539
1480519093546861,0.779541,0.276001,-0.316711,-0.464539
1480519093573934,0.779541,0.276001,-0.316711,-0.464539
1480519093591480,0.779541,0.276001,-0.316711,-0.464539
1480519093615042,0.779602,0.276062,-0.31665,-0.464417
1480519093626573,0.779846,0.276245,-0.316589,-0.46405
1480519093656653,0.78009,0.276306,-0.316711,-0.46344
1480519093667181,0.780334,0.276428,-0.317322,-0.462585
1480519093686231,0.780334,0.276855,-0.318054,-0.461792
1480519093708791,0.780273,0.277161,-0.318115,-0.46167
1480519093726840,0.780334,0.276733,-0.317932,-0.461914
1480519093755415,0.780334,0.276733,-0.317932,-0.461914
1480519093768952,0.780334,0.276733,-0.317932,-0.461914
1480519093787005,0.780151,0.27655,-0.317993,-0.46228
1480519093814072,0.78009,0.276367,-0.318115,-0.462463
1480519093836632,0.780151,0.276306,-0.318115,-0.462402
1480519093846658,0.780151,0.276306,-0.318115,-0.462402
1480519093867714,0.780029,0.276062,-0.318115,-0.462708
1480519093889271,0.779907,0.275757,-0.317932,-0.463257
1480519093918850,0.779785,0.27533,-0.317749,-0.463806
1480519093936898,0.779846,0.274902,-0.31781,-0.463928
1480519093948930,0.779968,0.274414,-0.317993,-0.463928
1480519093972995,0.779785,0.273804,-0.31842,-0.464294
1480519093988035,0.779602,0.273193,-0.318848,-0.464661
1480519094009090,0.77948,0.272583,-0.319092,-0.465088
1480519094034659,0.779358,0.272156,-0.319153,-0.465393
1480519094049197,0.779236,0.271912,-0.319214,-0.465698
1480519094071758,0.779236,0.271912,-0.319214,-0.465698
1480519094091309,0.779236,0.271912,-0.319275,-0.465698
1480519094109358,0.779114,0.271912,-0.319458,-0.465759
1480519094128909,0.779053,0.272095,-0.319763,-0.465637
1480519094151469,0.778992,0.272644,-0.319946,-0.46521
1480519094170019,0.778992,0.273071,-0.32019,-0.464783
1480519094189069,0.779053,0.273376,-0.320374,-0.464478
1480519094211629,0.779175,0.273376,-0.320618,-0.464111
1480519094234189,0.779053,0.273499,-0.32074,-0.464111
1480519094248727,0.77887,0.273743,-0.320801,-0.464172
1480519094278808,0.778809,0.274109,-0.320801,-0.46405
1480519094289337,0.778809,0.274109,-0.320801,-0.46405
1480519094311896,0.778809,0.274109,-0.320801,-0.464111
1480519094331448,0.778809,0.274109,-0.320801,-0.46405
1480519094349497,0.778809,0.274109,-0.320801,-0.46405
1480519094376569,0.778809,0.274109,-0.320801,-0.46405
1480519094393113,0.778809,0.274109,-0.320801,-0.46405
1480519094409156,0.778809,0.274109,-0.320801,-0.46405
1480519094429218,0.77887,0.274292,-0.32074,-0.463867
1480519094451767,0.77887,0.274536,-0.320923,-0.463684
1480519094485357,0.77887,0.27478,-0.320984,-0.46344
1480519094491876,0.778931,0.274902,-0.321045,-0.463257
1480519094511426,0.77887,0.275024,-0.321228,-0.463135
1480519094529475,0.778931,0.275208,-0.321228,-0.462952
1480519094559555,0.778931,0.27533,-0.321167,-0.462952
1480519094571586,0.77887,0.275391,-0.321167,-0.462952
1480519094589634,0.778687,0.275513,-0.32135,-0.463074
1480519094611693,0.778564,0.275574,-0.321228,-0.463379
1480519094631249,0.778503,0.275452,-0.320923,-0.463745
1480519094670851,0.778564,0.275269,-0.320679,-0.463928
1480519094673358,0.778625,0.275208,-0.320496,-0.463928
1480519094691405,0.778564,0.274963,-0.320557,-0.464172
1480519094709454,0.778503,0.274719,-0.320679,-0.464294
1480519094732023,0.778442,0.274475,-0.320923,-0.464417
1480519094751565,0.77832,0.274231,-0.321045,-0.464661
1480519094770115,0.778076,0.273804,-0.32135,-0.465149
1480519094790168,0.777954,0.273621,-0.321655,-0.46521
1480519094811224,0.777954,0.273376,-0.321838,-0.465271
1480519094829272,0.777832,0.273193,-0.322144,-0.465332
1480519094850328,0.777893,0.272949,-0.322388,-0.46521
1480519094871384,0.777893,0.272705,-0.322693,-0.465149
1480519094889432,0.77771,0.272339,-0.32312,-0.465332
1480519094916504,0.777649,0.271912,-0.323486,-0.465515
1480519094934552,0.777466,0.271729,-0.323792,-0.465759
1480519094949592,0.777283,0.271667,-0.324036,-0.465881
1480519094970662,0.7771,0.271729,-0.324158,-0.466064
1480519094991705,0.777039,0.271851,-0.324036,-0.466125
1480519095009753,0.777039,0.271851,-0.324036,-0.466125
1480519095032312,0.777039,0.271912,-0.323975,-0.466125
1480519095051363,0.776794,0.271973,-0.324219,-0.46637
1480519095069411,0.77655,0.272095,-0.324341,-0.466675
1480519095096483,0.776184,0.272156,-0.324524,-0.46698
1480519095111523,0.77594,0.272217,-0.324646,-0.467407
1480519095129571,0.775635,0.272278,-0.324768,-0.467712
1480519095152130,0.775391,0.272217,-0.324951,-0.468018
1480519095171683,0.775208,0.272217,-0.325073,-0.468262
1480519095189230,0.775085,0.272278,-0.325195,-0.468323
1480519095211789,0.774902,0.272339,-0.325378,-0.468506
1480519095231342,0.77478,0.272583,-0.325562,-0.468445
1480519095249389,0.774658,0.27301,-0.325684,-0.468323
1480519095272952,0.774353,0.273621,-0.325867,-0.468323
1480519095291503,0.773926,0.274292,-0.326294,-0.468323
1480519095309550,0.773438,0.275208,-0.326843,-0.468262
1480519095339629,0.772583,0.276428,-0.327637,-0.468323
1480519095351661,0.771484,0.277893,-0.328491,-0.468689
1480519095369209,0.769958,0.279663,-0.329468,-0.469421
1480519095392771,0.767944,0.281677,-0.33075,-0.470642
1480519095418841,0.765198,0.284241,-0.332397,-0.472351
1480519095436888,0.761963,0.287598,-0.334167,-0.474304
1480519095451929,0.758545,0.291199,-0.335999,-0.476318
1480519095471480,0.754944,0.2948,-0.33783,-0.478577
1480519095495545,0.751404,0.298035,-0.339722,-0.480713
1480519095512089,0.747803,0.301086,-0.341492,-0.483215
1480519095531641,0.744446,0.303894,-0.342957,-0.485535
1480519095554200,0.741455,0.306335,-0.344055,-0.487854
1480519095571748,0.738831,0.308594,-0.344849,-0.489868
1480519095591299,0.736694,0.310486,-0.345581,-0.491394
1480519095616867,0.734802,0.312134,-0.346191,-0.492737
1480519095636419,0.733093,0.313416,-0.346497,-0.494202
1480519095668004,0.731689,0.31427,-0.34668,-0.495605
1480519095674019,0.730713,0.314758,-0.347168,-0.496399
1480519095699587,0.729797,0.315125,-0.348022,-0.497009
1480519095714627,0.729004,0.315308,-0.348816,-0.497437
1480519095734179,0.728516,0.315369,-0.349365,-0.497803
1480519095751726,0.72821,0.31488,-0.349731,-0.498169
1480519095781810,0.72821,0.314087,-0.350159,-0.498413
1480519095793838,0.728333,0.313171,-0.350647,-0.498474
1480519095811886,0.728577,0.312256,-0.351257,-0.498291
1480519095832942,0.728638,0.31134,-0.351929,-0.498291
1480519095861518,0.728882,0.310486,-0.352539,-0.497986
1480519095872046,0.729065,0.309814,-0.35321,-0.497742
1480519095894106,0.729309,0.309326,-0.353943,-0.497131
1480519095914659,0.729492,0.309204,-0.354675,-0.49646
1480519095931705,0.729614,0.309387,-0.355469,-0.495544
1480519095954265,0.729553,0.309814,-0.355835,-0.495178
1480519095973816,0.729431,0.31012,-0.355652,-0.495239
1480519095991866,0.729431,0.31012,-0.355591,-0.495239
1480519096027960,0.729553,0.310669,-0.355591,-0.49469
1480519096033993,0.729614,0.311096,-0.355713,-0.494324
1480519096052024,0.729614,0.31134,-0.356079,-0.493896
1480519096074584,0.729614,0.311462,-0.356323,-0.493591
1480519096094136,0.729919,0.311462,-0.356018,-0.493408
1480519096111683,0.730164,0.31134,-0.355896,-0.493225
1480519096141764,0.730347,0.311218,-0.356018,-0.49292
1480519096170841,0.730469,0.31134,-0.356201,-0.492554
1480519096173347,0.730408,0.311401,-0.356689,-0.492249
1480519096194403,0.730408,0.311462,-0.357361,-0.491699
1480519096213955,0.730408,0.311584,-0.357666,-0.491394
1480519096238019,0.730408,0.311584,-0.357666,-0.491394
1480519096255064,0.73053,0.311584,-0.357727,-0.49115
1480519096274116,0.730713,0.311707,-0.357971,-0.490601
1480519096291662,0.730957,0.311829,-0.358521,-0.489807
1480519096328760,0.731201,0.311951,-0.359375,-0.48877
1480519096333775,0.731262,0.312195,-0.359924,-0.488037
1480519096356338,0.731567,0.311829,-0.360046,-0.487793
1480519096374382,0.731689,0.311523,-0.360352,-0.487549
1480519096393934,0.73175,0.31189,-0.360413,-0.487122
1480519096417998,0.731812,0.312073,-0.360107,-0.487183
1480519096434541,0.731812,0.312012,-0.359924,-0.487305
1480519096454595,0.731934,0.311951,-0.359924,-0.487244
1480519096472643,0.731995,0.31189,-0.359741,-0.487366
1480519096500217,0.731934,0.311768,-0.35968,-0.487488
1480519096513753,0.731812,0.31189,-0.359436,-0.487854
1480519096531801,0.731873,0.311829,-0.35907,-0.487976
1480519096554361,0.731995,0.311829,-0.358704,-0.488159
1480519096575417,0.731995,0.311829,-0.358704,-0.488098
1480519096599481,0.732117,0.311829,-0.358398,-0.488159
1480519096614521,0.732239,0.311523,-0.358093,-0.488403
1480519096635577,0.732422,0.311218,-0.357605,-0.488647
1480519096652622,0.732727,0.310791,-0.357239,-0.48877
1480519096674180,0.733032,0.310242,-0.356995,-0.488831
1480519096695235,0.733215,0.30957,-0.356995,-0.489014
1480519096711780,0.733398,0.308594,-0.356995,-0.489319
1480519096734340,0.733521,0.307678,-0.356934,-0.489807
1480519096755395,0.733643,0.306641,-0.356934,-0.490173
1480519096771939,0.733765,0.305725,-0.356934,-0.49054
1480519096802019,0.733948,0.304932,-0.356995,-0.490845
1480519096815555,0.73407,0.304077,-0.357117,-0.491089
1480519096832099,0.734131,0.303528,-0.357422,-0.491089
1480519096854158,0.734192,0.303162,-0.357666,-0.491028
1480519096875214,0.734375,0.302856,-0.357849,-0.490784
1480519096891758,0.734558,0.302551,-0.358093,-0.490601
1480519096914318,0.734802,0.302246,-0.358154,-0.490356
1480519096936878,0.735107,0.302002,-0.358276,-0.48999
1480519096952420,0.735168,0.301758,-0.358582,-0.489746
1480519096974479,0.735352,0.301514,-0.358765,-0.489502
1480519096997038,0.735657,0.301208,-0.358704,-0.489319
1480519097016590,0.735962,0.300781,-0.358826,-0.489014
1480519097034137,0.736145,0.300598,-0.358948,-0.48877
1480519097056196,0.736206,0.300537,-0.358887,-0.488708
1480519097076249,0.736328,0.300415,-0.358704,-0.48877
1480519097094297,0.736511,0.300232,-0.358582,-0.488708
1480519097116857,0.736694,0.30011,-0.358276,-0.488647
1480519097136912,0.736877,0.300049,-0.358032,-0.488647
1480519097154457,0.736877,0.299988,-0.358032,-0.488647
1480519097177022,0.737061,0.299866,-0.358093,-0.488464
1480519097197075,0.737061,0.299866,-0.358093,-0.488464
1480519097213619,0.737061,0.299866,-0.358093,-0.488464
1480519097236179,0.737244,0.299927,-0.35791,-0.488281
1480519097257235,0.737305,0.300049,-0.357849,-0.488098
1480519097274280,0.737305,0.30011,-0.357849,-0.488159
1480519097296841,0.737122,0.300293,-0.357971,-0.488159
1480519097316894,0.736938,0.30072,-0.35791,-0.488281
1480519097333438,0.736816,0.301025,-0.35791,-0.48822
1480519097362013,0.736816,0.301025,-0.35791,-0.488281
1480519097377054,0.736938,0.30072,-0.358215,-0.487915
1480519097393598,0.737,0.300537,-0.358582,-0.487732
1480519097416158,0.736938,0.300476,-0.358887,-0.487671
1480519097437715,0.736938,0.300354,-0.35907,-0.487549
1480519097453757,0.736938,0.300171,-0.359253,-0.48761
1480519097483336,0.736877,0.300049,-0.359436,-0.48761
1480519097496873,0.736877,0.299744,-0.359619,-0.487671
1480519097513416,0.736877,0.299377,-0.359741,-0.487793
1480519097536478,0.736877,0.298889,-0.359741,-0.488098
1480519097558536,0.737,0.298584,-0.359741,-0.488098
1480519097573576,0.737061,0.298584,-0.359741,-0.488037
1480519097596137,0.737061,0.298706,-0.359863,-0.487915
1480519097617192,0.737061,0.298706,-0.359863,-0.487915
1480519097641758,0.737,0.298706,-0.359802,-0.487976
1480519097655795,0.737,0.298706,-0.359802,-0.487976
1480519097677352,0.737,0.298706,-0.359802,-0.487976
1480519097693395,0.737061,0.298645,-0.359497,-0.488159
1480519097715955,0.737244,0.298584,-0.359131,-0.488159
1480519097738515,0.737427,0.298462,-0.358948,-0.488098
1480519097753555,0.737427,0.298645,-0.358582,-0.488281
1480519097776116,0.737549,0.298523,-0.357971,-0.488586
1480519097804692,0.737671,0.298279,-0.357361,-0.489014
1480519097812712,0.738037,0.297974,-0.356934,-0.489014
1480519097836276,0.738342,0.297546,-0.356689,-0.488953
1480519097858836,0.738647,0.296814,-0.356689,-0.488953
1480519097873374,0.739014,0.295959,-0.356873,-0.48877
1480519097895935,0.739258,0.295166,-0.357178,-0.488647
1480519097918995,0.739319,0.2948,-0.357422,-0.488586
1480519097934035,0.739319,0.2948,-0.357422,-0.488647
1480519097956094,0.739319,0.2948,-0.357422,-0.488647
1480519097978655,0.739197,0.295044,-0.357422,-0.488647
1480519098001214,0.739197,0.295044,-0.357422,-0.488647
1480519098016254,0.739258,0.295227,-0.357422,-0.488464
1480519098038814,0.739258,0.295227,-0.357422,-0.488464
1480519098052852,0.739258,0.295227,-0.357422,-0.488464
1480519098083433,0.73938,0.295166,-0.357178,-0.488464
1480519098098612,0.739563,0.295288,-0.356873,-0.488403
1480519098114515,0.739563,0.295288,-0.356873,-0.488403
1480519098136073,0.739563,0.29541,-0.356689,-0.488403
1480519098166153,0.739563,0.29541,-0.35675,-0.488403
1480519098173174,0.739563,0.29541,-0.35675,-0.488403
1480519098196233,0.739563,0.29541,-0.35675,-0.488403
1480519098224808,0.739563,0.29541,-0.357178,-0.488037
1480519098232831,0.739624,0.295776,-0.357544,-0.487488
1480519098255891,0.739563,0.296021,-0.357788,-0.487244
1480519098280959,0.739502,0.296143,-0.357971,-0.487122
1480519098292992,0.739624,0.296143,-0.358032,-0.486877
1480519098316051,0.739624,0.296204,-0.358154,-0.486694
1480519098338612,0.739624,0.296204,-0.358154,-0.486694
1480519098361172,0.739624,0.296387,-0.358215,-0.486633
1480519098376213,0.739624,0.296387,-0.358215,-0.486633
1480519098398771,0.739502,0.296692,-0.358093,-0.486694
1480519098419827,0.739563,0.296936,-0.357788,-0.486633
1480519098435870,0.739685,0.297119,-0.357605,-0.486511
1480519098458430,0.739685,0.297119,-0.357666,-0.486511
1480519098479486,0.739746,0.29718,-0.357666,-0.486267
1480519098496531,0.739746,0.29718,-0.357666,-0.486328
1480519098526112,0.739746,0.29718,-0.357666,-0.486328
1480519098539646,0.739746,0.29718,-0.357666,-0.486328
1480519098556190,0.739685,0.297546,-0.357605,-0.486328
1480519098578750,0.739624,0.297852,-0.357483,-0.486206
1480519098599868,0.739624,0.298096,-0.357361,-0.486206
1480519098615848,0.739624,0.298279,-0.357178,-0.486206
1480519098638409,0.739624,0.298279,-0.357178,-0.486206
1480519098659469,0.739685,0.29834,-0.357056,-0.486145
1480519098676010,0.739685,0.29834,-0.357056,-0.486145
1480519098698569,0.739685,0.298279,-0.357056,-0.486145
1480519098719624,0.739624,0.298462,-0.357117,-0.486145
1480519098743689,0.739624,0.298645,-0.357239,-0.485962
1480519098758729,0.739746,0.298828,-0.3573,-0.485657
1480519098779784,0.739685,0.298828,-0.3573,-0.485657
1480519098795827,0.739685,0.298828,-0.3573,-0.485718
1480519098827412,0.739685,0.298828,-0.3573,-0.485718
1480519098841951,0.739502,0.299072,-0.357361,-0.485779
1480519098855987,0.73938,0.299438,-0.3573,-0.485779
1480519098878547,0.73938,0.299683,-0.3573,-0.485657
1480519098901107,0.739319,0.299927,-0.3573,-0.485535
1480519098916150,0.73938,0.30011,-0.357361,-0.485291
1480519098946227,0.73938,0.30011,-0.3573,-0.485291
1480519098961267,0.73938,0.30011,-0.357422,-0.485291
1480519098975305,0.73938,0.30011,-0.357422,-0.485291
1480519098998368,0.73938,0.30011,-0.357361,-0.485352
1480519099021428,0.73938,0.30011,-0.357361,-0.485352
1480519099035465,0.739319,0.30011,-0.357422,-0.485352
1480519099059028,0.739319,0.30011,-0.357361,-0.485352
1480519099087102,0.73938,0.300049,-0.357178,-0.485474
1480519099095629,0.739502,0.299866,-0.356873,-0.485596
1480519099118686,0.739685,0.299744,-0.356506,-0.485657
1480519099141246,0.739807,0.299744,-0.356262,-0.485718
1480519099155284,0.739807,0.299744,-0.356262,-0.485718
1480519099178345,0.739807,0.299744,-0.356262,-0.485657
1480519099200905,0.739807,0.299683,-0.356323,-0.485657
1480519099223465,0.739807,0.299683,-0.356323,-0.485718
1480519099244521,0.739807,0.299683,-0.356323,-0.485718
1480519099261066,0.739807,0.299683,-0.356323,-0.485718
1480519099282121,0.739807,0.299683,-0.356323,-0.485718
1480519099298164,0.739807,0.299683,-0.356323,-0.485718
1480519099321225,0.739807,0.299683,-0.356323,-0.485718
1480519099342784,0.739746,0.299683,-0.356323,-0.485718
1480519099371859,0.739746,0.299683,-0.356323,-0.485718
1480519099380883,0.739746,0.299683,-0.356323,-0.485718
1480519099401941,0.739746,0.299683,-0.356323,-0.485718
1480519099418483,0.739746,0.299988,-0.356445,-0.485535
1480519099441546,0.740051,0.299927,-0.356323,-0.485229
1480519099469620,0.73999,0.299988,-0.356262,-0.485229
1480519099478643,0.73999,0.300354,-0.356323,-0.484985
1480519099501204,0.740112,0.300964,-0.356384,-0.484436
1480519099522260,0.73999,0.301636,-0.356445,-0.48407
1480519099538803,0.739929,0.302246,-0.356506,-0.483765
1480519099560863,0.739868,0.302734,-0.356506,-0.483521
1480519099581918,0.73999,0.303101,-0.356445,-0.483276
1480519099598544,0.73999,0.303284,-0.356445,-0.483032
1480519099621524,0.740051,0.303589,-0.356445,-0.482788
1480519099642092,0.740051,0.303894,-0.356323,-0.482727
1480519099658623,0.740112,0.304199,-0.35614,-0.482605
1480519099681182,0.740112,0.304504,-0.356079,-0.482422
1480519099702239,0.740112,0.30481,-0.35614,-0.482239
1480519099718782,0.740112,0.304932,-0.35614,-0.482117
1480519099740841,0.740051,0.304871,-0.356201,-0.482117
1480519099769919,0.740051,0.304871,-0.356201,-0.482117
1480519099779945,0.740051,0.304871,-0.356201,-0.482178
1480519099801002,0.740051,0.304871,-0.356201,-0.482178
1480519099823561,0.740051,0.304871,-0.356201,-0.482178
1480519099838601,0.740051,0.304871,-0.356201,-0.482117
1480519099861678,0.740112,0.304626,-0.356384,-0.482056
1480519099891241,0.740112,0.30426,-0.35675,-0.482117
1480519099904778,0.740234,0.303894,-0.357056,-0.481934
1480519099920820,0.740234,0.303711,-0.357239,-0.481812
1480519099943381,0.740173,0.303589,-0.357483,-0.481873
1480519099957920,0.740173,0.303589,-0.357422,-0.481812
1480519099988500,0.740234,0.30365,-0.357422,-0.481812
1480519100003540,0.740173,0.30365,-0.357422,-0.481812
1480519100024596,0.740234,0.30365,-0.357422,-0.481812
1480519100041142,0.740173,0.303833,-0.357239,-0.481812
1480519100063701,0.740173,0.303833,-0.357239,-0.481812
1480519100077738,0.740173,0.303894,-0.357239,-0.481812
1480519100100798,0.740356,0.304016,-0.356934,-0.481689
1480519100123360,0.740417,0.304138,-0.356873,-0.481628
1480519100137897,0.740356,0.304199,-0.356873,-0.481567
1480519100168479,0.740356,0.304199,-0.356873,-0.481628
1480519100183519,0.740356,0.304077,-0.35675,-0.481812
1480519100198074,0.740356,0.303772,-0.356567,-0.482056
1480519100221119,0.740417,0.303528,-0.356384,-0.4823
1480519100243679,0.740479,0.303223,-0.356201,-0.482544
1480519100264736,0.74054,0.302673,-0.35614,-0.482849
1480519100281278,0.740601,0.302063,-0.35614,-0.483093
1480519100303839,0.740784,0.301331,-0.35614,-0.483337
1480519100324394,0.740967,0.300415,-0.35614,-0.483582
1480519100340937,0.741272,0.2995,-0.356079,-0.483765
1480519100363498,0.741516,0.298706,-0.356079,-0.483826
1480519100385556,0.741638,0.297974,-0.356384,-0.483948
1480519100401098,0.741699,0.297363,-0.356628,-0.484009
1480519100423661,0.74176,0.296692,-0.356873,-0.484131
1480519100446218,0.741943,0.295959,-0.356934,-0.484253
1480519100461759,0.742188,0.295044,-0.356934,-0.484497
1480519100490836,0.742493,0.294128,-0.356934,-0.484497
1480519100504372,0.742615,0.293518,-0.357117,-0.484558
1480519100528437,0.742737,0.293152,-0.357239,-0.484558
1480519100543476,0.742798,0.292847,-0.357239,-0.484558
1480519100564533,0.742798,0.292908,-0.357239,-0.484558
1480519100581578,0.742798,0.292908,-0.357239,-0.484558
1480519100604138,0.742798,0.292908,-0.357239,-0.484558
1480519100624692,0.742859,0.292847,-0.356995,-0.48468
1480519100641236,0.742859,0.292847,-0.356995,-0.484741
1480519100663796,0.742859,0.292847,-0.356995,-0.48468
1480519100692372,0.742859,0.292847,-0.356995,-0.48468
1480519100706911,0.74292,0.292847,-0.356689,-0.484802
1480519100723957,0.743103,0.292908,-0.356323,-0.484802
1480519100746015,0.743347,0.292908,-0.356018,-0.484619
1480519100761055,0.743347,0.292908,-0.356018,-0.48468
1480519100783615,0.743347,0.292786,-0.356201,-0.484558
1480519100806175,0.743347,0.292664,-0.356506,-0.484436
1480519100820212,0.743225,0.292664,-0.35675,-0.484436
1480519100843274,0.743042,0.292664,-0.356995,-0.484558
1480519100865834,0.743042,0.292664,-0.356995,-0.484558
1480519100880372,0.743042,0.292664,-0.356934,-0.484558
1480519100909451,0.743042,0.292725,-0.356934,-0.484558
1480519100925995,0.743042,0.292725,-0.356934,-0.484558
1480519100940533,0.743042,0.292725,-0.356873,-0.484558
1480519100971115,0.743103,0.292847,-0.356567,-0.48468
1480519100986154,0.743164,0.292725,-0.356445,-0.484741
1480519101000191,0.743164,0.292786,-0.356384,-0.484741
1480519101023753,0.743164,0.292786,-0.356384,-0.484741
1480519101045813,0.743164,0.292725,-0.356445,-0.484741
1480519101060351,0.743164,0.292725,-0.356445,-0.484741
1480519101083914,0.743103,0.292786,-0.356384,-0.484802
1480519101105972,0.743225,0.292664,-0.356201,-0.484863
1480519101120512,0.743225,0.292725,-0.356201,-0.484863
1480519101145581,0.743225,0.292725,-0.356201,-0.484863
1480519101167138,0.743225,0.292725,-0.356201,-0.484863
1480519101188693,0.743225,0.292725,-0.356201,-0.484863
1480519101203733,0.743225,0.292725,-0.356201,-0.484863
1480519101226294,0.743225,0.292725,-0.356201,-0.484863
1480519101246847,0.743225,0.292725,-0.35614,-0.484863
1480519101263392,0.743347,0.292725,-0.356201,-0.484619
1480519101285951,0.743347,0.292725,-0.356201,-0.484619
1480519101307008,0.743408,0.292847,-0.356079,-0.484558
1480519101323552,0.743408,0.292847,-0.356079,-0.484558
1480519101348117,0.743408,0.292847,-0.356079,-0.484558
1480519101366668,0.743408,0.292847,-0.356079,-0.484558
1480519101383711,0.743408,0.292847,-0.356018,-0.484558
1480519101414293,0.743408,0.292908,-0.356018,-0.484558
1480519101427327,0.743408,0.292908,-0.355957,-0.484558
1480519101443370,0.743408,0.292908,-0.355957,-0.484558
1480519101465930,0.743408,0.292908,-0.355957,-0.484558
1480519101496010,0.743408,0.292908,-0.355957,-0.484558
1480519101503530,0.743408,0.292908,-0.355957,-0.484558
1480519101527595,0.743408,0.292908,-0.355957,-0.484558
1480519101554666,0.743408,0.292908,-0.355957,-0.484558
1480519101563691,0.743408,0.292908,-0.355957,-0.484558
1480519101586251,0.743408,0.292969,-0.355957,-0.484558
1480519101607306,0.743408,0.292969,-0.355896,-0.484558
1480519101623850,0.743408,0.292969,-0.355896,-0.484558
1480519101646911,0.743408,0.292969,-0.355896,-0.484558
1480519101669472,0.743408,0.292969,-0.355896,-0.484558
1480519101683509,0.743408,0.292969,-0.355896,-0.484558
1480519101706069,0.743469,0.29303,-0.355835,-0.484558
1480519101728629,0.74353,0.292908,-0.355896,-0.484497
1480519101743669,0.743591,0.292725,-0.356018,-0.484436
1480519101766734,0.743591,0.292725,-0.355957,-0.484436
1480519101788789,0.743591,0.292725,-0.355957,-0.484436
1480519101802826,0.743591,0.292725,-0.355957,-0.484436
1480519101835413,0.743591,0.292725,-0.355957,-0.484436
1480519101848448,0.743591,0.292725,-0.355957,-0.484436
1480519101863068,0.743591,0.292786,-0.355896,-0.484436
1480519101886047,0.743591,0.292725,-0.356201,-0.484314
1480519101908609,0.74353,0.292847,-0.356323,-0.484131
1480519101923648,0.743469,0.292969,-0.356445,-0.48407
1480519101946208,0.743469,0.292969,-0.356445,-0.484131
1480519101968767,0.743469,0.29303,-0.356445,-0.484131
1480519101982805,0.743469,0.29303,-0.356384,-0.484131
1480519102005867,0.743469,0.29303,-0.356384,-0.484131
1480519102043466,0.743469,0.29303,-0.356384,-0.484131
1480519102045973,0.743469,0.29303,-0.356384,-0.484131
1480519102066026,0.743469,0.29303,-0.356384,-0.484131
1480519102089590,0.74353,0.293213,-0.35614,-0.48407
1480519102111147,0.74353,0.293213,-0.356079,-0.48407
1480519102125685,0.74353,0.293213,-0.356079,-0.48407
1480519102148746,0.74353,0.293213,-0.35614,-0.48407
1480519102169802,0.74353,0.293213,-0.35614,-0.48407
1480519102187349,0.74353,0.293213,-0.35614,-0.484131
1480519102215925,0.74353,0.293213,-0.35614,-0.48407
1480519102229462,0.74353,0.293213,-0.35614,-0.48407
1480519102246005,0.743652,0.293091,-0.356262,-0.483887
1480519102268566,0.743713,0.292908,-0.356506,-0.483765
1480519102289621,0.743713,0.292786,-0.35675,-0.483582
1480519102306165,0.743774,0.292725,-0.356934,-0.483398
1480519102328725,0.743835,0.292786,-0.357117,-0.483215
1480519102349781,0.743958,0.292664,-0.3573,-0.482971
1480519102389888,0.744202,0.292358,-0.3573,-0.482727
1480519102394901,0.744324,0.292114,-0.357422,-0.482544
1480519102409440,0.744507,0.29187,-0.357361,-0.482422
1480519102425984,0.744446,0.291504,-0.357056,-0.482971
1480519102449547,0.744568,0.291016,-0.356628,-0.483459
1480519102469601,0.744507,0.290527,-0.356384,-0.484009
1480519102493664,0.744568,0.290283,-0.356018,-0.484314
1480519102508706,0.744629,0.289795,-0.355774,-0.484741
1480519102537279,0.744568,0.289368,-0.355591,-0.485229
1480519102546805,0.744507,0.289307,-0.355347,-0.485535
1480519102568363,0.744446,0.289307,-0.355042,-0.48584
1480519102596939,0.744324,0.289185,-0.35498,-0.486145
1480519102605963,0.744202,0.289185,-0.354919,-0.486328
1480519102628522,0.744141,0.289124,-0.354797,-0.486633
1480519102651082,0.743958,0.288879,-0.354797,-0.486938
1480519102668128,0.743896,0.288574,-0.354919,-0.487183
1480519102696705,0.743774,0.288269,-0.355042,-0.487488
1480519102711745,0.743408,0.288025,-0.355103,-0.48822
1480519102725283,0.742859,0.287659,-0.355225,-0.489014
1480519102748341,0.742432,0.287415,-0.355225,-0.489868
1480519102770904,0.741943,0.287292,-0.355225,-0.490723
1480519102785440,0.741577,0.287048,-0.355225,-0.491394
1480519102808504,0.741211,0.286682,-0.355347,-0.492004
1480519102831062,0.740967,0.286316,-0.35553,-0.492493
1480519102845600,0.740662,0.286011,-0.355896,-0.492859
1480519102869163,0.740479,0.285522,-0.356323,-0.493103
1480519102891222,0.740417,0.285095,-0.356567,-0.493286
1480519102905259,0.740417,0.284668,-0.356812,-0.493347
1480519102928320,0.740417,0.284302,-0.357056,-0.493408
1480519102950881,0.740295,0.28418,-0.357239,-0.49353
1480519102965923,0.740112,0.284241,-0.357422,-0.493652
1480519102988481,0.739868,0.284302,-0.357544,-0.493896
1480519103011541,0.739685,0.284485,-0.357605,-0.493958
1480519103026582,0.739624,0.284607,-0.357666,-0.494019
1480519103049643,0.739441,0.284729,-0.357849,-0.49408
1480519103079223,0.739319,0.28479,-0.357971,-0.49408
1480519103092758,0.739258,0.285034,-0.357971,-0.49408
1480519103108803,0.739258,0.285034,-0.357971,-0.49408
1480519103132363,0.739258,0.285034,-0.357971,-0.49408
1480519103153419,0.739258,0.285095,-0.35791,-0.49408
1480519103168462,0.739319,0.285339,-0.357727,-0.493896
1480519103191019,0.73938,0.285522,-0.357605,-0.493835
1480519103219595,0.739441,0.285706,-0.357422,-0.493774
1480519103228619,0.739441,0.28595,-0.357239,-0.493774
1480519103264214,0.739502,0.286255,-0.357056,-0.493652
1480519103275245,0.739502,0.286621,-0.357056,-0.493469
1480519103288779,0.739563,0.286987,-0.356995,-0.493164
1480519103310838,0.739685,0.287354,-0.357056,-0.492798
1480519103331895,0.739929,0.287476,-0.357422,-0.492126
1480519103348939,0.739929,0.287842,-0.357422,-0.491882
1480519103386539,0.739929,0.287842,-0.357422,-0.491882
1480519103392058,0.739807,0.287842,-0.357727,-0.49176
1480519103416118,0.739868,0.288025,-0.357788,-0.491516
1480519103431159,0.739868,0.288025,-0.357788,-0.491516
1480519103454219,0.739868,0.288025,-0.357788,-0.491516
1480519103469260,0.739929,0.288025,-0.357788,-0.491455
1480519103497333,0.739929,0.288025,-0.357727,-0.491455
1480519103512373,0.739807,0.288208,-0.357849,-0.491516
1480519103534432,0.739807,0.288513,-0.357849,-0.491333
1480519103550977,0.739807,0.288513,-0.357849,-0.491333
1480519103581056,0.739807,0.288513,-0.357849,-0.491333
1480519103588576,0.739868,0.288635,-0.35791,-0.491089
1480519103611137,0.739929,0.288635,-0.357849,-0.491089
1480519103641719,0.739868,0.288635,-0.35791,-0.491089
1480519103650240,0.739868,0.288635,-0.357849,-0.491089
1480519103670794,0.73999,0.288513,-0.358032,-0.490906
1480519103693355,0.739929,0.288452,-0.358276,-0.490845
1480519103707895,0.739929,0.288452,-0.358276,-0.490845
1480519103730955,0.739929,0.288452,-0.358276,-0.490845
1480519103753515,0.739929,0.288452,-0.358276,-0.490906
1480519103776075,0.739868,0.288452,-0.358276,-0.490906
1480519103804651,0.739929,0.288452,-0.358276,-0.490906
1480519103813674,0.739929,0.288452,-0.358276,-0.490845
1480519103827713,0.739929,0.288391,-0.358337,-0.490845
1480519103851776,0.739868,0.288574,-0.358215,-0.490967
1480519103873334,0.739685,0.288879,-0.358032,-0.491089
1480519103887872,0.739624,0.289185,-0.357788,-0.491211
1480519103911435,0.739685,0.289368,-0.357483,-0.491272
1480519103933494,0.739746,0.289429,-0.357178,-0.491333
1480519103948032,0.739685,0.289429,-0.357239,-0.491394
1480519103971596,0.739685,0.289429,-0.357239,-0.491394
1480519103993653,0.739685,0.289429,-0.357239,-0.491394
1480519104007692,0.739685,0.289429,-0.357239,-0.491455
1480519104038273,0.739685,0.289368,-0.357239,-0.491394
1480519104053814,0.739685,0.289368,-0.357239,-0.491394
1480519104074368,0.739685,0.289429,-0.357239,-0.491455
1480519104090913,0.739685,0.289368,-0.357239,-0.491455
1480519104114475,0.739685,0.289429,-0.357239,-0.491455
1480519104134528,0.739685,0.289429,-0.357239,-0.491455
1480519104151073,0.739685,0.289429,-0.357239,-0.491394
1480519104174134,0.739685,0.289429,-0.357178,-0.491394
1480519104194688,0.739685,0.289429,-0.357178,-0.491394
1480519104211734,0.739685,0.289429,-0.357178,-0.491394
1480519104234296,0.739685,0.289429,-0.357239,-0.491394
1480519104255350,0.739685,0.289429,-0.357239,-0.491394
1480519104270891,0.739685,0.289429,-0.357239,-0.491455
1480519104299467,0.739624,0.289368,-0.357239,-0.491455
1480519104316513,0.739624,0.289368,-0.3573,-0.491455
1480519104332555,0.739624,0.289429,-0.357239,-0.491455
1480519104353612,0.739624,0.289429,-0.357239,-0.491455
1480519104382187,0.739624,0.289429,-0.357239,-0.491455
1480519104391213,0.739441,0.289429,-0.357361,-0.491638
1480519104419787,0.739441,0.289429,-0.357361,-0.491638
1480519104434827,0.739441,0.289429,-0.357361,-0.491638
1480519104451872,0.739441,0.289429,-0.357361,-0.491638
1480519104479446,0.739441,0.289429,-0.357361,-0.491699
1480519104495991,0.739441,0.289429,-0.357361,-0.491699
1480519104512032,0.739441,0.289429,-0.357361,-0.491699
1480519104533089,0.739441,0.289429,-0.357361,-0.491699
1480519104556150,0.739441,0.289429,-0.357361,-0.491638
1480519104572193,0.739441,0.289429,-0.357361,-0.491638
1480519104593749,0.739441,0.289429,-0.357361,-0.491699
1480519104616812,0.739441,0.289429,-0.357361,-0.491699
1480519104630348,0.739441,0.289429,-0.357361,-0.491699
1480519104653409,0.739441,0.289429,-0.357361,-0.491699
1480519104675969,0.73938,0.289429,-0.357422,-0.491699
1480519104690508,0.73938,0.289429,-0.357422,-0.49176
1480519104713569,0.73938,0.289429,-0.357422,-0.49176
1480519104742647,0.73938,0.289429,-0.357422,-0.49176
1480519104750167,0.73938,0.289429,-0.357422,-0.49176
1480519104774230,0.73938,0.289429,-0.357422,-0.49176
1480519104796790,0.739319,0.289429,-0.357422,-0.491821
1480519104810326,0.739319,0.289429,-0.357361,-0.491821
1480519104833388,0.73938,0.289429,-0.357361,-0.49176
1480519104861963,0.73938,0.289429,-0.357361,-0.49176
1480519104871990,0.73938,0.289429,-0.357361,-0.491821
1480519104893547,0.73938,0.289429,-0.357361,-0.49176
1480519104916107,0.73938,0.289429,-0.357361,-0.491821
1480519104931148,0.739319,0.289429,-0.357422,-0.491821
1480519104953708,0.73938,0.289429,-0.357422,-0.49176
1480519104975766,0.73938,0.289429,-0.357422,-0.49176
1480519104996823,0.73938,0.289429,-0.357422,-0.49176
1480519105019382,0.73938,0.289429,-0.357361,-0.49176
1480519105035927,0.73938,0.289429,-0.357361,-0.491821
1480519105056983,0.739319,0.289551,-0.357422,-0.491699
1480519105075532,0.73938,0.289429,-0.357483,-0.491638
1480519105102102,0.73938,0.289429,-0.357483,-0.491638
1480519105117142,0.73938,0.289368,-0.357544,-0.491638
1480519105133687,0.73938,0.289246,-0.357849,-0.491455
1480519105163766,0.73938,0.289246,-0.358093,-0.491394
1480519105176804,0.739319,0.289001,-0.358276,-0.491394
1480519105202370,0.739319,0.289001,-0.358337,-0.491394
1480519105215905,0.739319,0.289001,-0.358337,-0.491394
1480519105237964,0.739319,0.289001,-0.358337,-0.491394
1480519105259521,0.739319,0.289001,-0.358337,-0.491394
1480519105276066,0.739319,0.289001,-0.358337,-0.491394
1480519105297121,0.739319,0.289001,-0.358337,-0.491394
1480519105319680,0.739319,0.289001,-0.358337,-0.491394
1480519105336726,0.739319,0.289001,-0.358276,-0.491394
1480519105358289,0.739319,0.289001,-0.358276,-0.491394
1480519105374327,0.739319,0.289001,-0.358276,-0.491455
1480519105411425,0.739258,0.289001,-0.358276,-0.491455
1480519105424459,0.739258,0.289001,-0.358276,-0.491455
1480519105441004,0.739258,0.289001,-0.358276,-0.491516
1480519105456044,0.739258,0.289001,-0.358337,-0.491516
1480519105494144,0.739258,0.289001,-0.358337,-0.491516
1480519105496652,0.739136,0.28894,-0.358337,-0.491699
1480519105524729,0.739136,0.28894,-0.358337,-0.491699
1480519105538763,0.739136,0.28894,-0.358337,-0.491699
1480519105554305,0.739136,0.28894,-0.358337,-0.491699
1480519105581878,0.739136,0.28894,-0.358337,-0.49176
1480519105599926,0.739075,0.288696,-0.358582,-0.49176
1480519105612961,0.739014,0.288269,-0.358765,-0.491943
1480519105650060,0.739136,0.287292,-0.35907,-0.492126
1480519105658583,0.73938,0.286011,-0.359253,-0.492371
1480519105679639,0.739624,0.284729,-0.359314,-0.492737
1480519105702199,0.739929,0.283203,-0.359375,-0.493103
1480519105720247,0.740051,0.281799,-0.359741,-0.493469
1480519105749324,0.739929,0.280701,-0.360718,-0.49353
1480519105762358,0.739929,0.28009,-0.361328,-0.493469
1480519105778402,0.739746,0.279358,-0.361755,-0.493835
1480519105816503,0.739868,0.278748,-0.362,-0.493774
1480519105819010,0.740112,0.278259,-0.362061,-0.493652
1480519105839564,0.740234,0.27771,-0.362122,-0.493713
1480519105853100,0.740417,0.277405,-0.362122,-0.493591
1480519105876161,0.740479,0.277466,-0.362061,-0.49353
1480519105905740,0.740356,0.277954,-0.362183,-0.493408
1480519105927297,0.740234,0.278503,-0.362183,-0.493225
1480519105935820,0.740417,0.278625,-0.362061,-0.493042
1480519105958388,0.74054,0.278503,-0.361938,-0.493042
1480519105979436,0.740845,0.278503,-0.361511,-0.492798
1480519105996482,0.741089,0.278503,-0.361206,-0.492737
1480519106018543,0.741333,0.278564,-0.360901,-0.492554
1480519106039094,0.741455,0.278625,-0.360657,-0.492432
1480519106056139,0.741516,0.278809,-0.360291,-0.492493
1480519106085718,0.741455,0.279236,-0.359802,-0.492737
1480519106099756,0.741516,0.279724,-0.359375,-0.492737
1480519106116801,0.741516,0.280273,-0.359192,-0.492493
1480519106138359,0.741455,0.281128,-0.359253,-0.492065
1480519106160919,0.74115,0.282166,-0.359131,-0.492065
1480519106175958,0.741089,0.282776,-0.358704,-0.492065
1480519106199906,0.74115,0.283386,-0.358276,-0.492004
1480519106219574,0.74115,0.283875,-0.358215,-0.49176
1480519106236620,0.741211,0.284302,-0.358215,-0.491333
1480519106275224,0.74115,0.284424,-0.358276,-0.491333
1480519106279735,0.741089,0.284424,-0.358337,-0.491394
1480519106302295,0.741089,0.284424,-0.358337,-0.491394
1480519106318338,0.741089,0.284424,-0.358337,-0.491394
1480519106339393,0.741089,0.284424,-0.358337,-0.491455
1480519106355938,0.741089,0.284424,-0.358337,-0.491394
1480519106378498,0.741089,0.284424,-0.358337,-0.491394
1480519106408578,0.741089,0.284424,-0.358337,-0.491394
1480519106439159,0.741089,0.284424,-0.358337,-0.491455
1480519106442668,0.741089,0.284424,-0.358337,-0.491394
1480519106461218,0.741089,0.284424,-0.358337,-0.491455
1480519106483777,0.741089,0.284424,-0.358337,-0.491455
1480519106498317,0.741089,0.284424,-0.358337,-0.491455
1480519106520876,0.741089,0.284424,-0.358337,-0.491455
1480519106535415,0.741089,0.284424,-0.358337,-0.491455
1480519106558476,0.741028,0.284424,-0.358337,-0.491455
1480519106581538,0.741028,0.284424,-0.358337,-0.491455
1480519106602202,0.741028,0.284424,-0.358337,-0.491455
1480519106618636,0.741028,0.284424,-0.358337,-0.491455
1480519106641698,0.741028,0.284424,-0.358337,-0.491455
1480519106656236,0.741028,0.284302,-0.358276,-0.491577
1480519106684812,0.741089,0.284058,-0.358215,-0.491699
1480519106706871,0.741211,0.283752,-0.358276,-0.491699
1480519106715894,0.741394,0.283264,-0.358398,-0.491577
1480519106745976,0.741455,0.282654,-0.358643,-0.491699
1480519106761015,0.741516,0.281982,-0.358826,-0.491882
1480519106775554,0.741455,0.281311,-0.358948,-0.492188
1480519106798615,0.741516,0.280457,-0.359131,-0.492493
1480519106828695,0.741577,0.27948,-0.359375,-0.492737
1480519106835213,0.741577,0.278809,-0.35968,-0.492859
1480519106864791,0.741455,0.27832,-0.360046,-0.493042
1480519106880834,0.741455,0.27771,-0.360291,-0.493286
1480519106911916,0.741516,0.2771,-0.360413,-0.493408
1480519106918434,0.741638,0.276733,-0.360474,-0.493408
1480519106940997,0.741577,0.27655,-0.360535,-0.49353
1480519106962050,0.741638,0.27655,-0.360535,-0.493469
1480519106978594,0.741638,0.27655,-0.360535,-0.493469
1480519107001479,0.741638,0.27655,-0.360535,-0.493469
1480519107037250,0.741638,0.27655,-0.360535,-0.493469
1480519107046775,0.741699,0.276794,-0.360474,-0.493286
1480519107084878,0.741699,0.277161,-0.360229,-0.493225
1480519107089388,0.741699,0.277649,-0.359985,-0.493164
1480519107099415,0.741577,0.278564,-0.359436,-0.493225
1480519107128493,0.741333,0.279968,-0.358887,-0.493225
1480519107142029,0.74115,0.281494,-0.358398,-0.49292
1480519107159575,0.741211,0.28241,-0.358154,-0.492493
1480519107181132,0.741272,0.283142,-0.35791,-0.492188
1480519107202188,0.741089,0.283752,-0.357849,-0.492065
1480519107224748,0.74115,0.284424,-0.357666,-0.491821
1480519107241296,0.741089,0.284729,-0.357544,-0.49176
1480519107261847,0.741028,0.285095,-0.357605,-0.491699
1480519107278392,0.740906,0.285278,-0.35791,-0.491516
1480519107315489,0.740845,0.285339,-0.358215,-0.491333
1480519107322007,0.740784,0.285339,-0.358215,-0.491394
1480519107354593,0.740723,0.285095,-0.358521,-0.491455
1480519107362114,0.740723,0.285034,-0.358582,-0.491394
1480519107384172,0.740662,0.284851,-0.358643,-0.491516
1480519107404727,0.740662,0.284668,-0.358765,-0.491577
1480519107421271,0.740601,0.284668,-0.358887,-0.491577
1480519107443330,0.74054,0.284729,-0.35907,-0.491516
1480519107458370,0.740479,0.284729,-0.35907,-0.491577
1480519107480930,0.74054,0.284729,-0.35907,-0.491577
1480519107503490,0.74054,0.284729,-0.35907,-0.491516
1480519107526050,0.740479,0.284729,-0.35907,-0.491577
1480519107541592,0.740479,0.284729,-0.35907,-0.491577
1480519107563651,0.740479,0.284729,-0.35907,-0.491577
1480519107593730,0.740479,0.284729,-0.35907,-0.491577
1480519107600748,0.74054,0.284729,-0.35907,-0.491516
1480519107623312,0.740662,0.284668,-0.358887,-0.491516
1480519107638348,0.740601,0.284668,-0.358887,-0.491577
1480519107660908,0.740601,0.284668,-0.358887,-0.491577
1480519107689484,0.740601,0.284668,-0.358948,-0.491577
1480519107698008,0.740601,0.284668,-0.358948,-0.491577
1480519107721068,0.740601,0.284607,-0.359009,-0.491577
1480519107743628,0.740601,0.284607,-0.359009,-0.491577
1480519107757667,0.740601,0.284607,-0.359009,-0.491577
1480519107781228,0.74054,0.284607,-0.359009,-0.491577
1480519107803287,0.74054,0.284607,-0.359009,-0.491577
1480519107824844,0.74054,0.284607,-0.359009,-0.491577
1480519107848407,0.740479,0.28479,-0.358887,-0.49176
1480519107871969,0.740417,0.284973,-0.358582,-0.491882
1480519107884503,0.740356,0.285156,-0.358154,-0.492188
1480519107901048,0.740356,0.285278,-0.357849,-0.492371
1480519107923608,0.740479,0.285217,-0.357666,-0.492371
1480519107944663,0.740479,0.285217,-0.357666,-0.492371
1480519107968727,0.74054,0.285095,-0.357422,-0.492493
1480519107984270,0.740662,0.284851,-0.357361,-0.492493
1480519108004823,0.740784,0.284607,-0.357483,-0.492371
1480519108020866,0.740784,0.284607,-0.357483,-0.492371
1480519108043928,0.740784,0.284607,-0.357483,-0.492371
1480519108072002,0.740784,0.284607,-0.357483,-0.492371
1480519108081026,0.740784,0.284607,-0.357483,-0.492371
1480519108103586,0.740723,0.284729,-0.357666,-0.492249
1480519108124643,0.740723,0.284729,-0.357605,-0.492249
1480519108141187,0.740723,0.284729,-0.357605,-0.49231
1480519108163746,0.740723,0.284729,-0.357605,-0.49231
1480519108184301,0.740723,0.284729,-0.357605,-0.49231
1480519108200845,0.740601,0.284668,-0.357788,-0.492371
1480519108223405,0.740601,0.284668,-0.357788,-0.492371
1480519108244463,0.740601,0.284668,-0.357788,-0.492371
1480519108261005,0.740479,0.284607,-0.357849,-0.492554
1480519108283565,0.740479,0.284607,-0.357849,-0.492554
1480519108307128,0.740479,0.284607,-0.357849,-0.492554
1480519108321165,0.740479,0.284607,-0.357788,-0.492554
1480519108350744,0.740479,0.284607,-0.357788,-0.492615
1480519108365783,0.740479,0.284607,-0.357788,-0.492615
1480519108380825,0.740479,0.284607,-0.357849,-0.492615
1480519108403383,0.740417,0.284851,-0.357788,-0.492554
1480519108425944,0.740417,0.285034,-0.357849,-0.492432
1480519108440486,0.740417,0.285217,-0.35791,-0.492249
1480519108465549,0.74054,0.285339,-0.35791,-0.492004
1480519108493624,0.74054,0.285461,-0.358093,-0.49176
1480519108500141,0.740479,0.285645,-0.358276,-0.491638
1480519108523705,0.740479,0.285706,-0.358276,-0.491699
1480519108545762,0.740417,0.285706,-0.358276,-0.491699
1480519108560300,0.740417,0.285706,-0.358215,-0.491699
1480519108589378,0.740417,0.285706,-0.358215,-0.49176
1480519108605922,0.740417,0.285706,-0.358215,-0.491699
1480519108620460,0.740417,0.285706,-0.358215,-0.49176
1480519108644023,0.740417,0.285706,-0.358215,-0.49176
1480519108666082,0.74054,0.285522,-0.358093,-0.491821
1480519108680119,0.740662,0.285461,-0.35791,-0.49176
1480519108703683,0.740784,0.285278,-0.357788,-0.49176
1480519108742285,0.740967,0.285095,-0.357727,-0.491638
1480519108747298,0.740967,0.285095,-0.357727,-0.491638
1480519108770861,0.741089,0.284912,-0.357727,-0.491577
1480519108785901,0.741089,0.284912,-0.357727,-0.491577
1480519108806959,0.741089,0.284912,-0.357727,-0.491577
1480519108823501,0.741028,0.284912,-0.357727,-0.491577
1480519108853580,0.741028,0.284912,-0.357727,-0.491638
1480519108867117,0.741028,0.284912,-0.357727,-0.491638
1480519108883662,0.741028,0.284851,-0.357788,-0.491638
1480519108906723,0.741028,0.284851,-0.357788,-0.491638
1480519108926775,0.741028,0.284851,-0.357788,-0.491638
1480519108943820,0.741028,0.284851,-0.357788,-0.491638
1480519108965961,0.741028,0.284851,-0.357788,-0.491638
1480519108986935,0.741089,0.284912,-0.357727,-0.491577
1480519109017016,0.741089,0.284912,-0.357727,-0.491638
1480519109026042,0.741028,0.284912,-0.357727,-0.491638
1480519109048600,0.741028,0.284912,-0.357727,-0.491638
1480519109069656,0.741028,0.284912,-0.357727,-0.491638
1480519109093719,0.741028,0.284912,-0.357727,-0.491638
1480519109107256,0.741028,0.284912,-0.357727,-0.491638
1480519109123800,0.741028,0.284912,-0.357727,-0.491638
1480519109145858,0.741028,0.284912,-0.357727,-0.491638
1480519109166914,0.741089,0.284912,-0.357727,-0.491638
1480519109183960,0.741089,0.284912,-0.357666,-0.491638
1480519109206018,0.741211,0.284912,-0.357727,-0.491333
1480519109229080,0.741394,0.284912,-0.357971,-0.490906
1480519109243618,0.741516,0.284912,-0.358154,-0.490601
1480519109266178,0.741516,0.284912,-0.358154,-0.490601
1480519109288739,0.741516,0.284912,-0.358154,-0.490601
1480519109304280,0.741516,0.284912,-0.358154,-0.49054
1480519109325838,0.741516,0.284912,-0.358215,-0.490601
1480519109348398,0.741516,0.284851,-0.358215,-0.490601
1480519109369453,0.741516,0.284912,-0.358215,-0.490601
1480519109385997,0.741516,0.284912,-0.358154,-0.490601
1480519109409059,0.741516,0.284912,-0.358215,-0.490601
1480519109422595,0.741516,0.284912,-0.358215,-0.49054
1480519109446157,0.741516,0.284912,-0.358154,-0.49054
1480519109475740,0.741516,0.284851,-0.358215,-0.49054
1480519109483256,0.741516,0.284851,-0.358215,-0.490601
1480519109505816,0.741516,0.284912,-0.358215,-0.490601
1480519109528375,0.741516,0.284851,-0.358215,-0.490601
1480519109542915,0.741516,0.284912,-0.358215,-0.49054
1480519109573498,0.741516,0.284912,-0.358215,-0.490601
1480519109588537,0.741516,0.284912,-0.358154,-0.490601
1480519109603074,0.741516,0.284912,-0.358154,-0.490601
1480519109626136,0.741516,0.284912,-0.357849,-0.490784
1480519109648695,0.741577,0.28479,-0.357361,-0.49115
1480519109662733,0.741516,0.284851,-0.356812,-0.491638
1480519109685795,0.741699,0.285278,-0.356384,-0.491333
1480519109708355,0.74176,0.285645,-0.356201,-0.491211
1480519109736944,0.74176,0.285645,-0.356262,-0.491211
1480519109745955,0.74176,0.285583,-0.356323,-0.491211
1480519109768515,0.741821,0.285645,-0.356445,-0.490906
1480519109791077,0.741882,0.285706,-0.356812,-0.490601
1480519109806115,0.74231,0.286072,-0.356873,-0.489685
1480519109828674,0.742676,0.285828,-0.357178,-0.489075
1480519109849731,0.743103,0.284973,-0.357483,-0.488647
1480519109865773,0.743164,0.284302,-0.358215,-0.488342
1480519109888835,0.742981,0.284119,-0.358887,-0.488342
1480519109909420,0.742493,0.283936,-0.359253,-0.488831
1480519109925969,0.742004,0.283813,-0.359497,-0.489502
1480519109948493,0.741577,0.28418,-0.359436,-0.48999
1480519109969551,0.741394,0.284607,-0.359131,-0.490234
1480519109986095,0.741516,0.284607,-0.358765,-0.490356
1480519110014718,0.741699,0.284546,-0.358521,-0.490356
1480519110029711,0.741699,0.284546,-0.358459,-0.490295
1480519110045752,0.741699,0.284546,-0.358459,-0.490295
1480519110068312,0.741699,0.284546,-0.358459,-0.490295
1480519110073827,0.741699,0.284546,-0.358459,-0.490295
1480519110096387,0.74176,0.284729,-0.358154,-0.490356
1480519110111427,0.74176,0.284729,-0.35791,-0.49054
1480519110133988,0.741699,0.284668,-0.357788,-0.490723
1480519110156547,0.741699,0.284668,-0.357605,-0.490845
1480519110171587,0.741699,0.284668,-0.357605,-0.490906
1480519110193646,0.741699,0.284668,-0.357605,-0.490906
1480519110216205,0.741699,0.284668,-0.357605,-0.490906
1480519110231251,0.741699,0.284668,-0.357605,-0.490906
1480519110253806,0.741699,0.284668,-0.357605,-0.490845
1480519110276370,0.741699,0.284668,-0.357605,-0.490906
1480519110291908,0.741638,0.284607,-0.357422,-0.491089
1480519110321486,0.741699,0.284668,-0.357178,-0.491211
1480519110338029,0.741821,0.284851,-0.356812,-0.491211
1480519110351565,0.74176,0.284912,-0.356567,-0.491333
1480519110374125,0.741821,0.285095,-0.356384,-0.491333
1480519110396184,0.741943,0.285278,-0.35614,-0.491211
1480519110411225,0.741943,0.285278,-0.35614,-0.491211
1480519110436792,0.742004,0.285339,-0.355896,-0.491272
1480519110456344,0.742004,0.285339,-0.355896,-0.491272
1480519110471384,0.742004,0.285522,-0.355652,-0.491333
1480519110493944,0.741943,0.285522,-0.355713,-0.491333
1480519110524526,0.741699,0.285278,-0.355896,-0.49176
1480519110533048,0.741516,0.284668,-0.356201,-0.492188
1480519110554104,0.741272,0.283936,-0.356689,-0.492554
1480519110576163,0.741089,0.283752,-0.356689,-0.492981
1480519110599224,0.741089,0.283752,-0.356323,-0.493225
1480519110613762,0.741211,0.283569,-0.356079,-0.493347
1480519110644345,0.741394,0.283325,-0.356079,-0.493286
1480519110652868,0.741516,0.283325,-0.356079,-0.492981
1480519110676932,0.741638,0.283264,-0.355957,-0.49292
1480519110696488,0.741821,0.283264,-0.355713,-0.492859
1480519110712525,0.742126,0.283386,-0.355225,-0.492737
1480519110734083,0.742249,0.283569,-0.354797,-0.492737
1480519110756643,0.742493,0.283691,-0.35437,-0.492615
1480519110772686,0.742737,0.283813,-0.354004,-0.492432
1480519110801262,0.74292,0.283813,-0.353821,-0.49231
1480519110816302,0.743103,0.283813,-0.353699,-0.492065
1480519110832846,0.743164,0.283997,-0.353516,-0.492004
1480519110853901,0.743347,0.284302,-0.35321,-0.49176
1480519110876472,0.743469,0.284546,-0.353027,-0.491638
1480519110893006,0.74353,0.284851,-0.352966,-0.491333
1480519110914061,0.743652,0.285095,-0.352966,-0.491028
1480519110939130,0.743652,0.285278,-0.353027,-0.490845
1480519110958681,0.743652,0.285461,-0.353088,-0.490662
1480519110973720,0.743652,0.285706,-0.35321,-0.490479
1480519110996281,0.743591,0.286011,-0.353333,-0.490356
1480519111014328,0.743591,0.286255,-0.353394,-0.490173
1480519111035385,0.74353,0.286621,-0.353394,-0.48999
1480519111056441,0.743408,0.286865,-0.353455,-0.490051
1480519111074489,0.743164,0.28717,-0.353577,-0.490112
1480519111094040,0.743042,0.287415,-0.353699,-0.490051
1480519111117603,0.742859,0.287781,-0.353882,-0.48999
1480519111141669,0.742737,0.288025,-0.354004,-0.48999
1480519111155203,0.742737,0.288025,-0.354004,-0.48999
1480519111176261,0.742737,0.288086,-0.354004,-0.48999
1480519111199320,0.742615,0.288147,-0.354126,-0.48999
1480519111213859,0.742554,0.288147,-0.354126,-0.490051
1480519111236419,0.742554,0.288208,-0.354126,-0.490051
1480519111267502,0.742554,0.288208,-0.354126,-0.490051
1480519111274521,0.742554,0.288208,-0.354126,-0.490051
1480519111303597,0.742554,0.288208,-0.354065,-0.490051
1480519111319139,0.742554,0.288208,-0.354065,-0.490112
1480519111333677,0.742554,0.288208,-0.354065,-0.490112
1480519111356237,0.742554,0.288208,-0.354065,-0.490051
1480519111378801,0.742554,0.288208,-0.354065,-0.490051
1480519111393838,0.742554,0.288208,-0.354065,-0.490051
1480519111416399,0.742554,0.288208,-0.354065,-0.490051
1480519111438958,0.742554,0.288208,-0.354065,-0.490051
1480519111453997,0.742554,0.288208,-0.354065,-0.490051
1480519111476558,0.742554,0.288208,-0.354065,-0.490051
1480519111499306,0.742554,0.288269,-0.354065,-0.490051
1480519111515160,0.742554,0.288208,-0.354065,-0.490112
1480519111536444,0.742554,0.288391,-0.354126,-0.489929
1480519111576057,0.742615,0.288452,-0.354309,-0.489685
1480519111578055,0.742554,0.288391,-0.354614,-0.489563
1480519111596604,0.742493,0.288574,-0.354858,-0.489441
1480519111618663,0.742432,0.288574,-0.354858,-0.489441
1480519111633704,0.74231,0.288635,-0.355042,-0.489502
1480519111656262,0.742249,0.288635,-0.355103,-0.489502
1480519111681831,0.742249,0.288635,-0.355103,-0.489502
1480519111693863,0.742126,0.288757,-0.355164,-0.489624
1480519111716423,0.742126,0.288818,-0.355103,-0.489624
1480519111738983,0.742126,0.288818,-0.355103,-0.489624
1480519111757031,0.741943,0.289001,-0.355042,-0.489807
1480519111776082,0.74176,0.289246,-0.354919,-0.490051
1480519111798642,0.741638,0.289368,-0.354858,-0.490173
1480519111815186,0.741577,0.289551,-0.354736,-0.490234
1480519111836242,0.741455,0.289734,-0.354736,-0.490417
1480519111858801,0.741394,0.289856,-0.354614,-0.490479
1480519111875346,0.741333,0.290039,-0.354553,-0.490479
1480519111896402,0.741211,0.290222,-0.354431,-0.490662
1480519111918961,0.741211,0.290222,-0.354431,-0.490662
1480519111935506,0.741211,0.290222,-0.354431,-0.490662
1480519111956562,0.741211,0.290222,-0.354431,-0.490723
1480519111987143,0.74115,0.290222,-0.354431,-0.490723
1480519111995165,0.74115,0.2901,-0.354553,-0.490662
1480519112016220,0.74115,0.2901,-0.354553,-0.490662
1480519112038780,0.74115,0.289978,-0.354797,-0.490662
1480519112055324,0.74115,0.289856,-0.354919,-0.490601
1480519112076385,0.74115,0.289856,-0.354919,-0.490601
1480519112101949,0.74115,0.289856,-0.354919,-0.490662
1480519112123005,0.74115,0.289856,-0.354919,-0.490601
1480519112136543,0.74115,0.289856,-0.354919,-0.490601
1480519112158599,0.74115,0.289856,-0.354919,-0.490601
1480519112177650,0.74115,0.289856,-0.354919,-0.490662
1480519112196211,0.74115,0.289856,-0.354919,-0.490662
1480519112218759,0.741089,0.289856,-0.354919,-0.490662
1480519112237316,0.741089,0.289856,-0.354919,-0.490662
1480519112256360,0.741089,0.289856,-0.354919,-0.490662
1480519112278919,0.741089,0.289856,-0.354919,-0.490723
1480519112296977,0.741089,0.289856,-0.354919,-0.490723
1480519112316519,0.741089,0.289856,-0.354919,-0.490723
1480519112347602,0.741089,0.289856,-0.354919,-0.490723
1480519112357140,0.741089,0.289856,-0.354919,-0.490723
1480519112376178,0.741028,0.289856,-0.354736,-0.490906
1480519112400242,0.741089,0.289795,-0.354553,-0.491028
1480519112416788,0.741089,0.289795,-0.354248,-0.49115
1480519112436338,0.741272,0.289795,-0.354004,-0.49115
1480519112458897,0.741333,0.289734,-0.353821,-0.491211
1480519112476946,0.741333,0.289734,-0.353821,-0.491211
1480519112512541,0.741272,0.289673,-0.353882,-0.491272
1480519112519057,0.741272,0.289673,-0.353882,-0.491272
1480519112536605,0.741272,0.289673,-0.353882,-0.491272
1480519112556157,0.741272,0.289673,-0.353943,-0.491272
1480519112578717,0.741272,0.289673,-0.353943,-0.491272
1480519112596765,0.741272,0.289673,-0.353943,-0.491272
1480519112616316,0.741272,0.289673,-0.353943,-0.491272
1480519112638877,0.741272,0.289673,-0.353943,-0.491272
1480519112656925,0.741272,0.289673,-0.353943,-0.491272
1480519112676481,0.741272,0.289673,-0.353943,-0.491272
1480519112699036,0.741272,0.289673,-0.353943,-0.491272
1480519112721095,0.741272,0.289673,-0.353882,-0.491272
1480519112737640,0.741272,0.289673,-0.353882,-0.491272
1480519112758695,0.741272,0.289673,-0.353882,-0.491333
1480519112781255,0.741272,0.289673,-0.353882,-0.491333
1480519112803815,0.741272,0.289673,-0.353882,-0.491333
1480519112818855,0.741211,0.289673,-0.353882,-0.491333
1480519112841415,0.741211,0.289673,-0.353882,-0.491333
1480519112857960,0.741211,0.289734,-0.353882,-0.491333
1480519112879016,0.741211,0.289734,-0.353882,-0.491333
1480519112901074,0.741211,0.289734,-0.353882,-0.491333
1480519112917618,0.741211,0.289734,-0.353821,-0.491333
1480519112938674,0.741211,0.289734,-0.353882,-0.491333
1480519112964242,0.741211,0.289734,-0.353882,-0.491394
1480519112979283,0.741211,0.289734,-0.353882,-0.491394
1480519112998980,0.74115,0.289734,-0.353882,-0.491394
1480519113021395,0.74115,0.289734,-0.353882,-0.491394
1480519113039442,0.74115,0.289734,-0.353882,-0.491394
1480519113066514,0.74115,0.289734,-0.353882,-0.491394
1480519113084061,0.74115,0.289734,-0.353821,-0.491394
1480519113099101,0.741211,0.289734,-0.353821,-0.491394
1480519113118652,0.741211,0.289795,-0.353821,-0.491394
1480519113141213,0.741211,0.289795,-0.35376,-0.491394
1480519113159261,0.741211,0.289795,-0.35376,-0.491394
1480519113178812,0.741211,0.289795,-0.35376,-0.491394
1480519113201373,0.741211,0.289795,-0.35376,-0.491394
1480519113219421,0.741211,0.289795,-0.35376,-0.491394
1480519113246493,0.741211,0.289795,-0.35376,-0.491333
1480519113261536,0.741211,0.289795,-0.35376,-0.491333
1480519113283592,0.741394,0.289917,-0.353821,-0.491089
1480519113298632,0.741516,0.289978,-0.353821,-0.490723
1480519113321192,0.741638,0.289856,-0.354004,-0.49054
1480519113339240,0.74176,0.289673,-0.354187,-0.490356
1480519113358792,0.74176,0.28949,-0.354309,-0.490295
1480519113381352,0.74176,0.289429,-0.35437,-0.490295
1480519113399662,0.74176,0.28949,-0.35437,-0.490295
1480519113418952,0.74176,0.28949,-0.354309,-0.490295
1480519113441523,0.741821,0.28949,-0.354309,-0.490295
1480519113459059,0.741821,0.28949,-0.354309,-0.490295
1480519113482621,0.741821,0.28949,-0.354309,-0.490295
1480519113501170,0.741821,0.28949,-0.354309,-0.490234
1480519113519218,0.741821,0.289551,-0.354065,-0.490417
1480519113538771,0.74176,0.289612,-0.353882,-0.490601
1480519113561330,0.741638,0.289795,-0.353638,-0.490845
1480519113579880,0.741638,0.289734,-0.353638,-0.490845
1480519113600434,0.741577,0.289673,-0.35376,-0.490906
1480519113624498,0.74176,0.289246,-0.354126,-0.490601
1480519113644050,0.741699,0.28894,-0.354431,-0.490662
1480519113660096,0.741699,0.288574,-0.354736,-0.490723
1480519113682653,0.741516,0.288147,-0.355042,-0.490967
1480519113699197,0.741333,0.28772,-0.355164,-0.491394
1480519113720253,0.741455,0.28717,-0.355042,-0.491638
1480519113741310,0.741394,0.286743,-0.355347,-0.491821
1480519113759357,0.741455,0.28656,-0.355652,-0.491577
1480519113780413,0.741333,0.286194,-0.356079,-0.491699
1480519113804477,0.741089,0.285706,-0.356323,-0.492126
1480519113819528,0.74115,0.285461,-0.356018,-0.492371
1480519113840073,0.74115,0.285583,-0.355591,-0.492615
1480519113864136,0.741211,0.285583,-0.355591,-0.492615
1480519113879176,0.741211,0.285583,-0.35553,-0.492554
1480519113901737,0.741211,0.285583,-0.35553,-0.492554
1480519113921287,0.741211,0.285583,-0.355591,-0.492493
1480519113939337,0.741272,0.285583,-0.35553,-0.492493
1480519113967913,0.741272,0.285583,-0.35553,-0.492493
1480519113981448,0.741394,0.285706,-0.355347,-0.492371
1480519113999495,0.741455,0.28595,-0.355225,-0.492188
1480519114022056,0.741455,0.286194,-0.355164,-0.492126
1480519114041609,0.741455,0.286316,-0.355164,-0.492065
1480519114071188,0.741455,0.286316,-0.355164,-0.492065
1480519114081715,0.741455,0.286316,-0.355164,-0.492065
1480519114101266,0.741455,0.286316,-0.355164,-0.492065
1480519114119316,0.741455,0.286255,-0.355164,-0.492065
1480519114141875,0.741455,0.286255,-0.355164,-0.492065
1480519114161427,0.741455,0.286255,-0.355164,-0.492065
1480519114179474,0.741455,0.286255,-0.355164,-0.492065
1480519114202536,0.741455,0.286255,-0.355164,-0.492065
1480519114221085,0.741455,0.286316,-0.355164,-0.492065
1480519114239134,0.741455,0.286316,-0.355164,-0.492065
1480519114264702,0.741455,0.286316,-0.355103,-0.492065
1480519114282750,0.741455,0.286316,-0.355103,-0.492065
1480519114299294,0.741455,0.286316,-0.355103,-0.492065
1480519114321853,0.741455,0.286316,-0.355103,-0.492065
1480519114348925,0.741638,0.286499,-0.355042,-0.49176
1480519114363965,0.741516,0.286987,-0.355042,-0.491638
1480519114381513,0.741211,0.287781,-0.354919,-0.491821
1480519114401565,0.741211,0.288208,-0.354431,-0.491882
1480519114426633,0.741211,0.288635,-0.35376,-0.492065
1480519114446184,0.741333,0.289063,-0.353577,-0.49176
1480519114470248,0.741516,0.289368,-0.353516,-0.491394
1480519114483784,0.74176,0.289246,-0.353516,-0.49115
1480519114501832,0.741699,0.289185,-0.353516,-0.49115
1480519114532298,0.741699,0.289185,-0.353577,-0.49115
1480519114543944,0.741699,0.289185,-0.353516,-0.49115
1480519114575031,0.741699,0.289185,-0.353577,-0.49115
1480519114581544,0.741699,0.289185,-0.353577,-0.491211
1480519114603603,0.741516,0.289429,-0.353699,-0.491211
1480519114621651,0.741394,0.289612,-0.353821,-0.49115
1480519114642707,0.741333,0.289795,-0.354004,-0.491089
1480519114663763,0.741333,0.289734,-0.354004,-0.491028
1480519114682312,0.741333,0.289856,-0.354126,-0.490906
1480519114702867,0.741333,0.289856,-0.354126,-0.490906
1480519114731444,0.741333,0.289856,-0.354065,-0.490906
1480519114741483,0.741333,0.290039,-0.354187,-0.490845
1480519114763027,0.741272,0.2901,-0.354248,-0.490723
1480519114783581,0.741272,0.290283,-0.35437,-0.490601
1480519114801629,0.741272,0.290283,-0.35437,-0.490662
1480519114824190,0.741211,0.290283,-0.35437,-0.490662
1480519114845247,0.741211,0.290283,-0.35437,-0.490662
1480519114861790,0.741211,0.290283,-0.354309,-0.490662
1480519114882845,0.741211,0.290283,-0.354309,-0.490662
1480519114903901,0.741211,0.290283,-0.354309,-0.490662
1480519114921950,0.741211,0.290283,-0.354309,-0.490662
1480519114944009,0.741211,0.290283,-0.354309,-0.490662
1480519114964061,0.741211,0.290283,-0.35437,-0.490662
1480519114993640,0.741211,0.290283,-0.35437,-0.490662
1480519115011689,0.741211,0.290283,-0.35437,-0.490662
1480519115023720,0.741211,0.290283,-0.35437,-0.490662
1480519115041769,0.741211,0.290222,-0.35437,-0.490662
1480519115064329,0.741211,0.290222,-0.35437,-0.490662
1480519115083880,0.741211,0.290222,-0.354431,-0.490662
1480519115101931,0.741211,0.290222,-0.354431,-0.490662
1480519115124488,0.741211,0.290222,-0.354431,-0.490662
1480519115144040,0.74115,0.290222,-0.354431,-0.490723
1480519115166099,0.74115,0.289795,-0.354736,-0.490784
1480519115184147,0.74115,0.289246,-0.355225,-0.490784
1480519115203699,0.741028,0.288818,-0.35553,-0.490967
1480519115221748,0.740967,0.288269,-0.355713,-0.491211
1480519115244307,0.741028,0.287964,-0.355835,-0.491333
1480519115263859,0.740967,0.288086,-0.355835,-0.491272
1480519115287923,0.740845,0.288269,-0.355957,-0.491272
1480519115311486,0.740723,0.288391,-0.356201,-0.49115
1480519115324019,0.740723,0.288391,-0.35614,-0.491211
1480519115341566,0.740601,0.288635,-0.35614,-0.491333
1480519115364126,0.74054,0.288818,-0.355957,-0.491333
1480519115383677,0.740662,0.289063,-0.355774,-0.491211
1480519115401726,0.740662,0.289063,-0.355774,-0.491211
1480519115424287,0.740662,0.289063,-0.355774,-0.491211
1480519115451358,0.740601,0.289368,-0.35553,-0.491333
1480519115461887,0.740845,0.289551,-0.355225,-0.491089
1480519115484948,0.741333,0.28949,-0.355042,-0.490479
1480519115503997,0.741821,0.289734,-0.355469,-0.489258
1480519115522046,0.742004,0.289368,-0.355713,-0.489014
1480519115544106,0.741882,0.288879,-0.356018,-0.489258
1480519115566665,0.741699,0.288635,-0.356079,-0.489624
1480519115581704,0.741699,0.288635,-0.356079,-0.489624
1480519115604264,0.741394,0.288696,-0.355835,-0.490234
1480519115642366,0.741333,0.288818,-0.355591,-0.490479
1480519115646376,0.741333,0.289063,-0.355225,-0.49054
1480519115664426,0.741394,0.289124,-0.35498,-0.490662
1480519115685480,0.741394,0.289124,-0.35498,-0.490601
1480519115701524,0.741394,0.289124,-0.35498,-0.490601
1480519115724083,0.741394,0.289124,-0.35498,-0.490601
1480519115745139,0.741394,0.289124,-0.355042,-0.490601
1480519115762186,0.741455,0.289246,-0.354858,-0.490479
1480519115790260,0.741455,0.289246,-0.354919,-0.49054
1480519115805300,0.741455,0.289246,-0.354919,-0.49054
1480519115821844,0.741455,0.289246,-0.354919,-0.49054
1480519115844404,0.741455,0.289246,-0.35498,-0.49054
1480519115865459,0.741455,0.289185,-0.35498,-0.49054
1480519115881502,0.741455,0.289185,-0.35498,-0.49054
1480519115904062,0.741455,0.289185,-0.35498,-0.49054
1480519115926623,0.741394,0.289185,-0.35498,-0.49054
1480519115953698,0.741394,0.289185,-0.35498,-0.49054
1480519115964222,0.741455,0.289185,-0.35498,-0.49054
1480519115986782,0.741394,0.289185,-0.35498,-0.49054
1480519116006337,0.741394,0.289185,-0.355042,-0.49054
1480519116024382,0.741394,0.289185,-0.35498,-0.49054
1480519116045940,0.741394,0.289185,-0.355042,-0.49054
1480519116074014,0.741394,0.289185,-0.355042,-0.49054
1480519116084041,0.741394,0.289185,-0.355042,-0.49054
1480519116106601,0.741394,0.289185,-0.355042,-0.49054
1480519116126153,0.741211,0.289429,-0.354919,-0.490784
1480519116148713,0.741211,0.289429,-0.354919,-0.490784
1480519116166761,0.741211,0.289429,-0.354858,-0.490784
1480519116186312,0.741211,0.289429,-0.354858,-0.490845
1480519116204361,0.741211,0.28949,-0.354858,-0.490845
1480519116234440,0.741211,0.28949,-0.354797,-0.490845
1480519116246473,0.741211,0.28949,-0.354797,-0.490845
1480519116266025,0.741211,0.28949,-0.354858,-0.490845
1480519116286580,0.741211,0.28949,-0.354858,-0.490845
1480519116307134,0.74115,0.28949,-0.354858,-0.490845
1480519116323177,0.74115,0.28949,-0.354858,-0.490845
1480519116345737,0.741211,0.289429,-0.354858,-0.490845
1480519116368298,0.74115,0.289612,-0.354919,-0.490723
1480519116383336,0.741028,0.289917,-0.355103,-0.490601
1480519116405898,0.740906,0.290283,-0.355286,-0.490479
1480519116426953,0.740784,0.290588,-0.355408,-0.490356
1480519116443496,0.740601,0.290771,-0.355652,-0.490417
1480519116466057,0.740601,0.290771,-0.355652,-0.490417
1480519116487113,0.74054,0.290771,-0.355652,-0.490417
1480519116509672,0.74054,0.290771,-0.355652,-0.490417
1480519116525715,0.74054,0.290771,-0.355652,-0.490479
1480519116546771,0.74054,0.290771,-0.355652,-0.490479
1480519116563818,0.74054,0.290771,-0.355652,-0.490479
1480519116585875,0.74054,0.290771,-0.355652,-0.490479
1480519116606932,0.74054,0.290833,-0.355591,-0.490479
1480519116623476,0.74054,0.290833,-0.355591,-0.490479
1480519116646035,0.74054,0.290833,-0.355591,-0.490479
1480519116674620,0.74054,0.290833,-0.355591,-0.490479
1480519116691157,0.740479,0.291016,-0.355408,-0.490601
1480519116706196,0.740356,0.291138,-0.355286,-0.490784
1480519116726750,0.740295,0.29126,-0.355103,-0.490906
1480519116743294,0.740356,0.291382,-0.354858,-0.490967
1480519116766186,0.740356,0.291504,-0.354614,-0.490967
1480519116786910,0.740356,0.291504,-0.354614,-0.490967
1480519116809972,0.740356,0.291504,-0.354614,-0.490967
1480519116832030,0.740356,0.291504,-0.354614,-0.490967
1480519116848575,0.740356,0.291565,-0.354614,-0.491028
1480519116863615,0.740356,0.291565,-0.354614,-0.490967
1480519116886174,0.740417,0.291565,-0.354614,-0.490967
1480519116908735,0.740356,0.291565,-0.354614,-0.490967
1480519116923276,0.740356,0.291565,-0.354553,-0.491028
1480519116953353,0.740356,0.291565,-0.354553,-0.491028
1480519116968393,0.740356,0.291565,-0.354614,-0.491028
1480519116983435,0.740356,0.291565,-0.354614,-0.491028
1480519117005994,0.740356,0.291565,-0.354553,-0.491028
1480519117028554,0.740417,0.291565,-0.35437,-0.49115
1480519117042590,0.740417,0.291565,-0.35437,-0.49115
1480519117066153,0.740417,0.291565,-0.35437,-0.491089
1480519117089718,0.740417,0.291565,-0.35437,-0.491089
1480519117102751,0.740417,0.291565,-0.35437,-0.491089
1480519117125812,0.740417,0.291565,-0.35437,-0.491089
1480519117148372,0.74054,0.291504,-0.35437,-0.490967
1480519117162911,0.74054,0.291504,-0.35437,-0.491028
1480519117192990,0.74054,0.291504,-0.35437,-0.490967
1480519117208535,0.74054,0.291504,-0.354309,-0.491028
1480519117229588,0.74054,0.291504,-0.35437,-0.491028
1480519117246133,0.740479,0.291504,-0.35437,-0.491028
1480519117268190,0.74054,0.291504,-0.354309,-0.491028
1480519117282729,0.74054,0.291504,-0.354309,-0.490967
1480519117305791,0.74054,0.291504,-0.354309,-0.490967
1480519117328351,0.74054,0.291565,-0.354248,-0.490967
1480519117365950,0.74054,0.291565,-0.354248,-0.490967
1480519117373471,0.74054,0.291565,-0.354248,-0.490967
1480519117388511,0.740601,0.291565,-0.354248,-0.490967
1480519117409567,0.740662,0.291321,-0.35437,-0.490845
1480519117426111,0.740723,0.291016,-0.354614,-0.490845
1480519117455188,0.740784,0.29071,-0.354858,-0.490723
1480519117470730,0.740906,0.290527,-0.354919,-0.490601
1480519117485826,0.740967,0.290283,-0.355042,-0.490601
1480519117508832,0.740967,0.290039,-0.355103,-0.490662
1480519117529887,0.740967,0.289673,-0.355164,-0.490784
1480519117545930,0.741028,0.289246,-0.355164,-0.490967
1480519117584030,0.741211,0.288635,-0.354919,-0.491211
1480519117589546,0.741455,0.287781,-0.354858,-0.491394
1480519117606103,0.741638,0.286804,-0.354919,-0.491638
1480519117628649,0.741699,0.286133,-0.355408,-0.491638
1480519117649705,0.741638,0.28595,-0.355896,-0.491455
1480519117673268,0.741699,0.285461,-0.356079,-0.491516
1480519117695828,0.74176,0.284668,-0.356384,-0.491699
1480519117709364,0.741943,0.283875,-0.356445,-0.491821
1480519117725909,0.742004,0.283264,-0.356201,-0.492249
1480519117748469,0.742126,0.282837,-0.355835,-0.492554
1480519117769524,0.742126,0.282959,-0.355225,-0.492981
1480519117786068,0.742188,0.283264,-0.354919,-0.492859
1480519117809631,0.742188,0.283569,-0.354919,-0.492676
1480519117831188,0.742371,0.283386,-0.355103,-0.492371
1480519117846228,0.742493,0.282959,-0.355408,-0.492188
1480519117868287,0.742493,0.282959,-0.355469,-0.492249
1480519117890848,0.742493,0.283325,-0.355225,-0.492249
1480519117905887,0.742371,0.283997,-0.355225,-0.492004
1480519117928447,0.741882,0.285217,-0.355286,-0.492004
1480519117951007,0.741516,0.286438,-0.355225,-0.491821
1480519117973569,0.741211,0.287231,-0.355103,-0.491882
1480519117988607,0.741028,0.288025,-0.354919,-0.491821
1480519118011167,0.740662,0.289368,-0.354431,-0.491943
1480519118025207,0.740662,0.290222,-0.354126,-0.49176
1480519118048265,0.740662,0.29071,-0.35376,-0.491638
1480519118070826,0.740601,0.290955,-0.353943,-0.491455
1480519118093386,0.74054,0.291382,-0.353943,-0.491333
1480519118108428,0.74054,0.291565,-0.354126,-0.49115
1480519118130986,0.74054,0.291626,-0.35437,-0.490906
1480519118145023,0.74054,0.291626,-0.354736,-0.490601
1480519118168084,0.74054,0.291687,-0.355103,-0.490295
1480519118191145,0.74054,0.291565,-0.35553,-0.490112
1480519118205183,0.74054,0.291382,-0.355957,-0.489929
1480519118228244,0.74054,0.29126,-0.356323,-0.489746
1480519118256823,0.74054,0.291077,-0.356628,-0.489624
1480519118271860,0.740601,0.29071,-0.356934,-0.489502
1480519118288405,0.740662,0.290222,-0.3573,-0.48938
1480519118310965,0.740784,0.289734,-0.357544,-0.489319
1480519118332021,0.740784,0.289429,-0.357849,-0.489258
1480519118348564,0.740845,0.289368,-0.357971,-0.489136
1480519118371626,0.740845,0.289368,-0.35791,-0.489136
1480519118392180,0.740845,0.289368,-0.35791,-0.489136
1480519118414238,0.740906,0.289368,-0.35791,-0.489136
1480519118430783,0.741089,0.289246,-0.357849,-0.488892
1480519118451839,0.741333,0.28894,-0.357971,-0.488647
1480519118468383,0.741394,0.288879,-0.358154,-0.488403
1480519118490944,0.741394,0.288879,-0.358154,-0.488464
1480519118511999,0.741333,0.289124,-0.357849,-0.488647
1480519118528543,0.741333,0.289429,-0.357422,-0.48877
1480519118551604,0.741333,0.289856,-0.356995,-0.488831
1480519118572159,0.741333,0.290283,-0.35675,-0.48877
1480519118588203,0.741333,0.290344,-0.356628,-0.488831
1480519118610762,0.741333,0.290344,-0.356628,-0.488831
1480519118633322,0.741272,0.290222,-0.356567,-0.488953
1480519118648361,0.741272,0.290039,-0.356506,-0.489197
1480519118670922,0.741333,0.289917,-0.356323,-0.489319
1480519118691978,0.741333,0.289917,-0.356323,-0.489319
1480519118709028,0.741272,0.289917,-0.356323,-0.48938
1480519118731082,0.74115,0.289917,-0.356323,-0.489502
1480519118753140,0.741089,0.290039,-0.356262,-0.489624
1480519118768180,0.74115,0.290039,-0.356262,-0.489563
1480519118790741,0.74115,0.290039,-0.356262,-0.489563
1480519118813300,0.74115,0.290039,-0.356262,-0.489563
1480519118828340,0.74115,0.290039,-0.356201,-0.489502
1480519118850900,0.74115,0.290039,-0.356201,-0.489502
1480519118873963,0.74115,0.290039,-0.356201,-0.489502
1480519118896022,0.741211,0.290222,-0.356018,-0.489502
1480519118911060,0.741211,0.290222,-0.356018,-0.489502
1480519118933621,0.741211,0.290222,-0.356018,-0.489502
1480519118947659,0.741211,0.290222,-0.356018,-0.489502
1480519118970719,0.741211,0.290222,-0.356018,-0.489502
1480519118993279,0.741211,0.290222,-0.356018,-0.489502
1480519119008320,0.741211,0.290222,-0.356018,-0.489502
1480519119038901,0.741211,0.290222,-0.356018,-0.489502
1480519119053439,0.741211,0.290222,-0.356018,-0.489502
1480519119067476,0.741211,0.290222,-0.356018,-0.489502
1480519119091040,0.741211,0.290222,-0.356018,-0.489502
1480519119129642,0.741211,0.290222,-0.356018,-0.489502
1480519119135658,0.741211,0.290222,-0.356018,-0.489502
1480519119150698,0.741211,0.290222,-0.356018,-0.489502
1480519119173259,0.741211,0.290222,-0.356018,-0.489502
1480519119201834,0.741211,0.290222,-0.356018,-0.489502
1480519119210859,0.741211,0.290283,-0.355957,-0.489502
