timestamp,x,y,z
1480527249465309,0.0644531,-0.753418,0.648926
1480527249475838,0.0708008,-0.745605,0.647949
1480527249495389,0.0708008,-0.75293,0.646484
1480527249517948,0.0708008,-0.766113,0.645996
1480527249543519,0.0673828,-0.759277,0.646484
1480527249573095,0.0654297,-0.743164,0.650391
1480527249578109,0.0717773,-0.740723,0.650391
1480527249595655,0.0727539,-0.764648,0.646484
1480527249615207,0.0678711,-0.760742,0.644531
1480527249637768,0.0683594,-0.749023,0.64502
1480527249655815,0.074707,-0.749023,0.645508
1480527249676872,0.0693359,-0.759766,0.64209
1480527249697927,0.0629883,-0.760742,0.64209
1480527249720488,0.0722656,-0.743652,0.645508
1480527249735527,0.0742188,-0.743652,0.640137
1480527249758091,0.0732422,-0.758301,0.645996
1480527249783155,0.0639648,-0.76709,0.640137
1480527249795186,0.0678711,-0.75,0.648926
1480527249817746,0.0722656,-0.738281,0.640625
1480527249836797,0.0703125,-0.75293,0.646973
1480527249858356,0.0634766,-0.766113,0.649414
1480527249877908,0.0644531,-0.758301,0.654297
1480527249895957,0.0712891,-0.741211,0.644043
1480527249924531,0.0717773,-0.748047,0.640625
1480527249938066,0.0664063,-0.76709,0.641113
1480527249963133,0.0683594,-0.759277,0.643066
1480527249976669,0.0732422,-0.739258,0.643066
1480527250005245,0.0693359,-0.746582,0.642578
1480527250015773,0.0678711,-0.766602,0.649414
1480527250036829,0.0678711,-0.762207,0.641602
1480527250057886,0.0678711,-0.739746,0.635742
1480527250081950,0.0678711,-0.746094,0.649902
1480527250096989,0.0688477,-0.770508,0.646484
1480527250118045,0.0678711,-0.763672,0.641113
1480527250136594,0.0737305,-0.742188,0.647949
1480527250156648,0.0698242,-0.744629,0.644531
1480527250178207,0.0683594,-0.754883,0.650391
1480527250195751,0.0629883,-0.761719,0.644043
1480527250216808,0.0732422,-0.742676,0.641602
1480527250237863,0.0771484,-0.743164,0.645996
1480527250260423,0.0703125,-0.759766,0.642578
1480527250276968,0.0673828,-0.768066,0.645508
1480527250298023,0.0732422,-0.748047,0.644531
1480527250316072,0.0683594,-0.743164,0.652832
1480527250338131,0.0698242,-0.757813,0.645996
1480527250358185,0.0688477,-0.764648,0.643555
1480527250375730,0.0708008,-0.750488,0.643066
1480527250398291,0.0727539,-0.73877,0.649902
1480527250419346,0.0703125,-0.755371,0.650879
1480527250436392,0.0629883,-0.77002,0.641602
1480527250458454,0.0654297,-0.760254,0.646973
1480527250478002,0.0717773,-0.742188,0.642578
1480527250496051,0.0727539,-0.75,0.638184
1480527250518109,0.0615234,-0.770508,0.643066
1480527250537661,0.0673828,-0.758301,0.643066
1480527250556211,0.0712891,-0.743652,0.644531
1480527250578270,0.0742188,-0.749023,0.635742
1480527250597821,0.0668945,-0.761719,0.638184
1480527250615870,0.0629883,-0.761719,0.645508
1480527250638430,0.0712891,-0.747559,0.646484
1480527250657985,0.0712891,-0.743652,0.644043
1480527250676532,0.0620117,-0.758301,0.64502
1480527250706111,0.0644531,-0.762695,0.649902
1480527250720648,0.0683594,-0.751465,0.652832
1480527250743208,0.0742188,-0.749023,0.641113
1480527250758752,0.0732422,-0.763672,0.648438
1480527250780808,0.0668945,-0.766602,0.645508
1480527250795848,0.0644531,-0.745117,0.645996
1480527250818408,0.0727539,-0.733887,0.644531
1480527250837960,0.0654297,-0.757813,0.641113
1480527250860526,0.0683594,-0.77002,0.640137
1480527250878569,0.0722656,-0.747559,0.643555
1480527250899122,0.0727539,-0.74707,0.63916
1480527250927700,0.0756836,-0.760254,0.646973
1480527250938227,0.065918,-0.766113,0.648438
1480527250959283,0.0678711,-0.747559,0.63916
1480527250980339,0.0732422,-0.741699,0.645996
1480527250998386,0.074707,-0.760254,0.643066
1480527251019443,0.0664063,-0.77002,0.650391
1480527251040500,0.0610352,-0.750977,0.649902
1480527251058547,0.0683594,-0.740723,0.643555
1480527251079603,0.0712891,-0.755371,0.644043
1480527251102165,0.0615234,-0.768555,0.64209
1480527251118207,0.065918,-0.759766,0.646973
1480527251139262,0.0722656,-0.743652,0.640625
1480527251163326,0.074707,-0.749512,0.647461
1480527251178366,0.0673828,-0.767578,0.642578
1480527251206942,0.0649414,-0.765625,0.644043
1480527251220477,0.0712891,-0.740723,0.649414
1480527251238526,0.0717773,-0.746582,0.64209
1480527251261086,0.0664063,-0.76123,0.648926
1480527251280890,0.0629883,-0.762207,0.641113
1480527251299187,0.0688477,-0.749023,0.64209
1480527251320744,0.0732422,-0.744141,0.642578
1480527251340296,0.0673828,-0.760254,0.63916
1480527251358346,0.0668945,-0.765137,0.642578
1480527251380905,0.0668945,-0.74707,0.64502
1480527251410985,0.0751953,-0.738281,0.63916
1480527251418506,0.0639648,-0.755859,0.646973
1480527251441065,0.0620117,-0.771973,0.644043
1480527251460616,0.0673828,-0.749023,0.646484
1480527251478164,0.0732422,-0.740234,0.640137
1480527251500723,0.0761719,-0.765137,0.64209
1480527251520274,0.0703125,-0.770508,0.646484
1480527251538323,0.0683594,-0.751465,0.648438
1480527251560885,0.0629883,-0.729004,0.647461
1480527251580436,0.0712891,-0.746094,0.645996
1480527251598482,0.0693359,-0.76709,0.647949
1480527251621043,0.0708008,-0.754883,0.644043
1480527251640597,0.074707,-0.739258,0.643555
1480527251658142,0.0693359,-0.751465,0.643066
1480527251680702,0.065918,-0.770508,0.649902
1480527251700253,0.0644531,-0.759277,0.648926
1480527251718302,0.0722656,-0.739258,0.644043
1480527251746879,0.0742188,-0.745117,0.641113
1480527251760415,0.0634766,-0.763184,0.64209
1480527251784478,0.0644531,-0.765137,0.647949
1480527251801021,0.0717773,-0.744629,0.643555
1480527251828094,0.0698242,-0.739746,0.641113
1480527251838121,0.0678711,-0.760254,0.636719
1480527251860680,0.0678711,-0.775879,0.646973
1480527251881736,0.0732422,-0.748535,0.643555
1480527251898280,0.0742188,-0.738281,0.641113
1480527251920841,0.0722656,-0.757813,0.647949
1480527251941896,0.0654297,-0.770996,0.63916
1480527251958440,0.0693359,-0.748535,0.650879
1480527251981001,0.0756836,-0.737305,0.646484
1480527252003561,0.0683594,-0.756348,0.645996
1480527252024619,0.0649414,-0.770996,0.64502
1480527252041163,0.0629883,-0.759766,0.643555
1480527252063219,0.0732422,-0.73877,0.641113
1480527252078260,0.0708008,-0.750488,0.641113
1480527252100819,0.0673828,-0.77002,0.646484
1480527252121876,0.0678711,-0.758789,0.65625
1480527252138428,0.0751953,-0.73877,0.645508
1480527252160979,0.0708008,-0.749512,0.641602
1480527252183539,0.0708008,-0.771484,0.644531
1480527252198078,0.0620117,-0.76123,0.643555
1480527252220638,0.0727539,-0.744141,0.64209
1480527252243198,0.0771484,-0.749023,0.647949
1480527252258244,0.0703125,-0.766113,0.64209
1480527252281046,0.0654297,-0.759766,0.647461
1480527252310879,0.0712891,-0.743164,0.648926
1480527252322911,0.0683594,-0.748047,0.639648
1480527252347475,0.0673828,-0.762207,0.640137
1480527252363517,0.0717773,-0.771484,0.650391
1480527252383070,0.0732422,-0.748047,0.638672
1480527252400117,0.0708008,-0.743652,0.641602
1480527252422680,0.0629883,-0.756348,0.646484
1480527252443731,0.0634766,-0.759766,0.646973
1480527252460279,0.0717773,-0.746582,0.646484
1480527252482846,0.0737305,-0.745117,0.644531
1480527252503390,0.0688477,-0.756836,0.63623
1480527252519937,0.0668945,-0.772949,0.645996
1480527252542495,0.0703125,-0.755859,0.643066
1480527252563551,0.0693359,-0.742676,0.645508
1480527252580095,0.0698242,-0.75,0.644531
1480527252602654,0.065918,-0.772461,0.648438
1480527252623711,0.0649414,-0.755371,0.645508
1480527252647536,0.0698242,-0.740723,0.640137
1480527252662313,0.0712891,-0.750488,0.644531
1480527252683368,0.0629883,-0.764648,0.644531
1480527252699912,0.0654297,-0.760254,0.643555
1480527252722473,0.0722656,-0.743164,0.64209
1480527252745033,0.0698242,-0.74707,0.640625
1480527252760074,0.0698242,-0.770508,0.643066
1480527252783133,0.0673828,-0.761719,0.645996
1480527252803688,0.0712891,-0.743652,0.639648
1480527252820233,0.0693359,-0.743164,0.637207
1480527252842291,0.0644531,-0.765625,0.641113
1480527252863347,0.065918,-0.762207,0.648926
1480527252879893,0.0717773,-0.745605,0.644531
1480527252902451,0.0742188,-0.745605,0.648438
1480527252925015,0.0678711,-0.762207,0.643066
1480527252940555,0.0649414,-0.76709,0.643555
1480527252962612,0.0703125,-0.742676,0.646973
1480527252983668,0.0751953,-0.73877,0.640137
1480527253000219,0.0639648,-0.758301,0.652344
1480527253022772,0.0634766,-0.770508,0.647461
1480527253043327,0.0673828,-0.750977,0.643066
1480527253059870,0.0727539,-0.742188,0.640625
1480527253082431,0.0732422,-0.762695,0.63623
1480527253103486,0.0712891,-0.772949,0.644043
1480527253120532,0.0751953,-0.755859,0.643555
1480527253148606,0.0698242,-0.740723,0.64209
1480527253179689,0.0708008,-0.749512,0.645996
1480527253182196,0.0634766,-0.76416,0.649902
1480527253202750,0.0727539,-0.757324,0.64502
1480527253225310,0.0756836,-0.743652,0.643555
1480527253239851,0.0708008,-0.751953,0.645508
1480527253262409,0.0688477,-0.771973,0.642578
1480527253284969,0.0664063,-0.762695,0.645996
1480527253299507,0.0712891,-0.73584,0.645996
1480527253322569,0.0644531,-0.743652,0.645996
1480527253345630,0.0703125,-0.775879,0.63916
1480527253359168,0.0673828,-0.763184,0.64209
1480527253382729,0.0683594,-0.741699,0.640625
1480527253404788,0.0771484,-0.744629,0.644531
1480527253419828,0.0668945,-0.764648,0.647461
1480527253455924,0.0644531,-0.763672,0.644043
1480527253464948,0.0717773,-0.744141,0.644043
1480527253479486,0.0727539,-0.74707,0.641602
1480527253503050,0.0693359,-0.765137,0.640625
1480527253525107,0.0654297,-0.763672,0.64209
1480527253539146,0.0668945,-0.746094,0.63916
1480527253563710,0.0698242,-0.742676,0.64209
1480527253584766,0.0688477,-0.760254,0.637207
1480527253599305,0.0595703,-0.769043,0.641113
1480527253622367,0.0732422,-0.750488,0.644043
1480527253644927,0.0712891,-0.739746,0.646484
1480527253665982,0.0761719,-0.753906,0.641113
1480527253682026,0.059082,-0.766602,0.648926
1480527253705086,0.0634766,-0.753418,0.644043
1480527253726646,0.0727539,-0.737305,0.645508
1480527253742687,0.0722656,-0.753418,0.637207
1480527253765246,0.0727539,-0.770508,0.640137
1480527253785801,0.0712891,-0.759277,0.642578
1480527253802345,0.0698242,-0.742676,0.64209
1480527253824906,0.0654297,-0.746582,0.64209
1480527253845961,0.0629883,-0.764648,0.644043
1480527253863006,0.0688477,-0.760742,0.644043
1480527253885567,0.074707,-0.740723,0.641602
1480527253906121,0.0727539,-0.754883,0.639648
1480527253922667,0.0634766,-0.775391,0.63623
1480527253945226,0.0639648,-0.756836,0.644043
1480527253966281,0.0722656,-0.745117,0.64502
1480527253982324,0.0756836,-0.743652,0.645996
1480527254004885,0.065918,-0.767578,0.644531
1480527254025940,0.065918,-0.762695,0.644531
1480527254042485,0.0673828,-0.748047,0.645508
1480527254065045,0.0712891,-0.738281,0.643066
1480527254087604,0.0649414,-0.757813,0.645508
1480527254102644,0.0576172,-0.774902,0.648438
1480527254125204,0.0688477,-0.752441,0.643555
1480527254147263,0.0776367,-0.745117,0.646973
1480527254162302,0.0732422,-0.756348,0.643555
1480527254184863,0.0649414,-0.767578,0.641113
1480527254208425,0.0673828,-0.753906,0.633789
1480527254221961,0.0678711,-0.739258,0.640625
1480527254245038,0.0708008,-0.756348,0.638672
1480527254267582,0.0664063,-0.767578,0.643066
1480527254288638,0.0668945,-0.751953,0.636719
1480527254305183,0.0751953,-0.738281,0.638672
1480527254327241,0.0649414,-0.751953,0.64502
1480527254341780,0.0639648,-0.76416,0.645996
1480527254365844,0.0644531,-0.759277,0.643555
1480527254387401,0.0712891,-0.745605,0.646484
1480527254401940,0.0727539,-0.756836,0.643555
1480527254425002,0.0742188,-0.770996,0.639648
1480527254447562,0.0625,-0.757813,0.64502
1480527254462100,0.0644531,-0.734375,0.646484
1480527254485162,0.0732422,-0.744629,0.641113
1480527254508222,0.0688477,-0.765625,0.645996
1480527254528777,0.0615234,-0.762695,0.646973
1480527254544821,0.0688477,-0.748535,0.641113
1480527254567381,0.0766602,-0.74707,0.640137
1480527254588436,0.0673828,-0.765137,0.637207
1480527254604980,0.0610352,-0.76416,0.64502
1480527254627540,0.0668945,-0.744629,0.645508
1480527254648596,0.0761719,-0.746582,0.646973
1480527254665140,0.0712891,-0.759277,0.640625
1480527254687700,0.0625,-0.76416,0.64209
1480527254708757,0.0668945,-0.749023,0.640625
1480527254724799,0.0708008,-0.745117,0.640137
1480527254747359,0.0703125,-0.751953,0.637207
1480527254769919,0.0639648,-0.769531,0.642578
1480527254798494,0.0708008,-0.755371,0.644043
1480527254813535,0.0771484,-0.740723,0.64209
1480527254828575,0.0703125,-0.753906,0.63916
1480527254845119,0.0654297,-0.76709,0.645508
1480527254867679,0.0678711,-0.762695,0.646484
1480527254888735,0.0732422,-0.739746,0.640625
1480527254904779,0.0732422,-0.751953,0.640625
1480527254927338,0.0664063,-0.76123,0.645508
1480527254948394,0.0629883,-0.759277,0.642578
1480527254965439,0.0673828,-0.739746,0.643066
1480527254987497,0.0683594,-0.742676,0.643555
1480527255008556,0.0664063,-0.764648,0.647949
1480527255025097,0.0678711,-0.768066,0.646484
1480527255047157,0.0795898,-0.748535,0.641113
1480527255069716,0.0712891,-0.741211,0.645508
1480527255084756,0.0629883,-0.756836,0.64502
1480527255107318,0.0698242,-0.759766,0.644531
1480527255130879,0.0703125,-0.746582,0.648438
1480527255144917,0.074707,-0.73877,0.641113
1480527255167477,0.0727539,-0.765625,0.643066
1480527255190043,0.0693359,-0.767578,0.641602
1480527255211093,0.0673828,-0.752441,0.646484
1480527255227636,0.0766602,-0.736816,0.637695
1480527255250197,0.0649414,-0.754883,0.637695
1480527255272759,0.0673828,-0.772949,0.64209
1480527255294815,0.0712891,-0.754883,0.647461
1480527255309856,0.0737305,-0.739258,0.645996
1480527255324395,0.0703125,-0.76123,0.642578
1480527255347455,0.0615234,-0.779785,0.646973
1480527255370517,0.0644531,-0.760254,0.643066
1480527255384053,0.074707,-0.73877,0.64502
1480527255407616,0.0722656,-0.743652,0.645508
1480527255430175,0.0722656,-0.763184,0.646484
1480527255444213,0.065918,-0.756836,0.642578
1480527255475797,0.0771484,-0.746582,0.643555
1480527255497353,0.078125,-0.744141,0.629883
1480527255505879,0.0727539,-0.756348,0.647949
1480527255527434,0.065918,-0.763672,0.645996
1480527255549993,0.074707,-0.744629,0.640137
1480527255571049,0.0756836,-0.744141,0.64209
1480527255587594,0.0722656,-0.754883,0.642578
1480527255610154,0.0620117,-0.763672,0.643555
1480527255631210,0.0737305,-0.750488,0.64502
1480527255648090,0.0771484,-0.749512,0.637695
1480527255670314,0.0727539,-0.765625,0.63916
1480527255690868,0.0698242,-0.77002,0.640137
1480527255707914,0.0683594,-0.752441,0.640625
1480527255729972,0.0712891,-0.749512,0.644043
1480527255751530,0.0712891,-0.774902,0.638672
1480527255767573,0.0678711,-0.768555,0.633789
1480527255790135,0.0688477,-0.76123,0.634277
1480527255811188,0.0834961,-0.751953,0.629395
1480527255827733,0.0844727,-0.759766,0.635254
1480527255849792,0.0683594,-0.768066,0.643555
1480527255870847,0.0703125,-0.75293,0.646973
1480527255887391,0.0678711,-0.745605,0.63916
1480527255925494,0.0771484,-0.752441,0.627441
1480527255931007,0.074707,-0.775391,0.635742
1480527255947551,0.0717773,-0.756836,0.637695
1480527255970111,0.0751953,-0.740234,0.640137
1480527255992671,0.0756836,-0.762207,0.645996
1480527256014730,0.0712891,-0.774414,0.651367
1480527256029770,0.0737305,-0.753418,0.638672
1480527256052330,0.0654297,-0.75293,0.632324
1480527256067370,0.0698242,-0.755371,0.630371
1480527256089934,0.0732422,-0.772949,0.628418
1480527256120010,0.0722656,-0.767578,0.643066
1480527256127032,0.0786133,-0.751465,0.643555
1480527256150091,0.0751953,-0.748535,0.64209
1480527256172650,0.0708008,-0.764648,0.634766
1480527256186698,0.0703125,-0.77002,0.634766
1480527256210251,0.0717773,-0.74707,0.625977
1480527256232309,0.0693359,-0.748047,0.632324
1480527256246847,0.0732422,-0.768066,0.636719
1480527256269909,0.0688477,-0.772461,0.641602
1480527256292470,0.0776367,-0.751465,0.638184
1480527256307008,0.0751953,-0.749512,0.634277
1480527256336086,0.0673828,-0.766113,0.644043
1480527256352629,0.0664063,-0.764648,0.638672
1480527256366666,0.0717773,-0.746582,0.630371
1480527256390731,0.0751953,-0.740723,0.631836
1480527256412789,0.0722656,-0.764648,0.640625
1480527256426833,0.0693359,-0.772949,0.638184
1480527256449888,0.0712891,-0.751953,0.632324
1480527256472448,0.0727539,-0.75,0.636719
1480527256493505,0.0756836,-0.759277,0.632324
1480527256510050,0.0654297,-0.766113,0.639648
1480527256540629,0.0620117,-0.753906,0.638184
1480527256553663,0.0800781,-0.746582,0.625488
1480527256570207,0.0751953,-0.771484,0.642578
1480527256592769,0.0795898,-0.777344,0.645996
1480527256620842,0.059082,-0.75293,0.643555
1480527256629868,0.0708008,-0.750977,0.638672
1480527256652427,0.0771484,-0.760742,0.63916
1480527256673984,0.0712891,-0.770508,0.638184
1480527256690026,0.0717773,-0.76709,0.638184
1480527256712586,0.0737305,-0.753418,0.640625
1480527256733642,0.0771484,-0.749023,0.633789
1480527256750188,0.074707,-0.764648,0.62793
1480527256780278,0.0678711,-0.77002,0.632813
1480527256793805,0.0800781,-0.751465,0.643066
1480527256809846,0.0693359,-0.752441,0.632324
1480527256833409,0.0712891,-0.759277,0.641113
1480527256853461,0.0673828,-0.758789,0.639648
1480527256870507,0.0708008,-0.757324,0.638672
1480527256892566,0.0805664,-0.760742,0.631836
1480527256913623,0.0742188,-0.756836,0.629883
1480527256930165,0.0668945,-0.771484,0.634766
1480527256952725,0.0668945,-0.758789,0.648438
1480527256975288,0.0668945,-0.741211,0.644043
1480527256997344,0.0693359,-0.757324,0.638184
1480527257012394,0.0683594,-0.775879,0.641113
1480527257035951,0.0717773,-0.757813,0.631348
1480527257057506,0.0737305,-0.755859,0.639648
1480527257072545,0.0766602,-0.762695,0.635742
1480527257101120,0.0678711,-0.764648,0.635742
1480527257116160,0.0673828,-0.766113,0.64209
1480527257132704,0.0771484,-0.745117,0.635254
1480527257156267,0.0761719,-0.755859,0.629395
1480527257169302,0.0693359,-0.771973,0.635742
1480527257199882,0.0683594,-0.764648,0.634277
1480527257214923,0.0712891,-0.748047,0.63623
1480527257229461,0.0737305,-0.757324,0.637207
1480527257252523,0.0668945,-0.769043,0.637695
1480527257275085,0.065918,-0.77002,0.638672
1480527257289120,0.0761719,-0.750488,0.63916
1480527257313184,0.0756836,-0.748535,0.639648
1480527257336245,0.0678711,-0.771973,0.636719
1480527257349280,0.0678711,-0.76709,0.638184
1480527257380386,0.0712891,-0.757324,0.640137
1480527257394901,0.0727539,-0.753418,0.63623
1480527257415957,0.0727539,-0.763672,0.637695
1480527257438518,0.0683594,-0.769531,0.636719
1480527257455062,0.0727539,-0.753906,0.636719
1480527257476117,0.0766602,-0.750977,0.64209
1480527257492661,0.0712891,-0.751465,0.629395
1480527257514719,0.0678711,-0.767578,0.635742
1480527257543296,0.0742188,-0.769531,0.638672
1480527257552320,0.0766602,-0.750488,0.635742
1480527257574880,0.078125,-0.758301,0.633301
1480527257595935,0.065918,-0.770996,0.637207
1480527257620000,0.0678711,-0.753418,0.635254
1480527257658602,0.0717773,-0.736816,0.635742
1480527257663616,0.0737305,-0.753418,0.63916
1480527257672643,0.0703125,-0.780762,0.632324
1480527257694699,0.0712891,-0.753418,0.637695
1480527257716255,0.0810547,-0.747559,0.641113
1480527257732298,0.0791016,-0.759766,0.63623
1480527257754859,0.0742188,-0.765137,0.63623
1480527257775915,0.0683594,-0.753906,0.640137
1480527257792459,0.074707,-0.751953,0.63916
1480527257821035,0.078125,-0.75293,0.634766
1480527257836074,0.0678711,-0.770996,0.640625
1480527257852618,0.0698242,-0.767578,0.640137
1480527257875179,0.0766602,-0.750488,0.638184
1480527257897237,0.0727539,-0.750488,0.63623
1480527257912779,0.0703125,-0.773438,0.636719
1480527257935840,0.0678711,-0.771484,0.640137
1480527257972947,0.0751953,-0.750977,0.640137
1480527257975446,0.0800781,-0.749023,0.634277
1480527257994997,0.0712891,-0.769043,0.632324
1480527258017558,0.0712891,-0.774902,0.640137
1480527258031595,0.0737305,-0.751953,0.641113
1480527258055157,0.0854492,-0.742676,0.63623
1480527258077718,0.0732422,-0.762207,0.638672
1480527258099776,0.0708008,-0.772949,0.640137
1480527258114816,0.0751953,-0.751465,0.63623
1480527258143392,0.0737305,-0.731445,0.643066
1480527258151915,0.0776367,-0.77002,0.637695
1480527258174976,0.0712891,-0.774902,0.638672
1480527258197537,0.0737305,-0.760742,0.633789
1480527258212075,0.0776367,-0.739746,0.642578
1480527258235637,0.0693359,-0.761719,0.643555
1480527258257696,0.0688477,-0.772949,0.637695
1480527258278752,0.0712891,-0.760742,0.638672
1480527258294795,0.0786133,-0.747559,0.63623
1480527258317856,0.0751953,-0.757813,0.628418
1480527258338412,0.0737305,-0.769043,0.637695
1480527258354955,0.0620117,-0.780273,0.640625
1480527258385037,0.0732422,-0.753906,0.638672
1480527258400075,0.0834961,-0.73877,0.63623
1480527258415617,0.0722656,-0.76123,0.632813
1480527258437675,0.0688477,-0.782227,0.633789
1480527258458732,0.0771484,-0.749512,0.64209
1480527258474774,0.0756836,-0.745605,0.641113
1480527258497334,0.0727539,-0.762207,0.632813
1480527258519910,0.0751953,-0.776367,0.63623
1480527258535936,0.0732422,-0.752441,0.635742
1480527258565014,0.0751953,-0.746094,0.634277
1480527258578549,0.0712891,-0.76709,0.638184
1480527258595093,0.0712891,-0.780762,0.631348
1480527258618163,0.0678711,-0.739258,0.635742
1480527258638710,0.0795898,-0.749512,0.634766
1480527258655255,0.0756836,-0.769531,0.641113
1480527258677313,0.0649414,-0.765625,0.636719
1480527258705891,0.0766602,-0.759277,0.630859
1480527258722434,0.0830078,-0.748047,0.641602
1480527258737472,0.0703125,-0.752441,0.637207
1480527258758529,0.0668945,-0.772461,0.635254
1480527258775073,0.0722656,-0.757324,0.639648
1480527258797632,0.0766602,-0.743164,0.634277
1480527258826209,0.0786133,-0.76123,0.63623
1480527258840748,0.0703125,-0.768066,0.642578
1480527258858294,0.0654297,-0.755859,0.64502
1480527258879851,0.0761719,-0.75,0.641113
1480527258895894,0.0756836,-0.750488,0.635254
1480527258917451,0.0732422,-0.76709,0.636719
1480527258940014,0.0688477,-0.76416,0.63623
1480527258955052,0.0766602,-0.757324,0.633301
1480527258977612,0.0825195,-0.750977,0.642578
1480527259000171,0.0693359,-0.753906,0.640625
1480527259014208,0.0639648,-0.775391,0.634766
1480527259037270,0.074707,-0.751465,0.634277
1480527259074369,0.0810547,-0.751465,0.636719
1480527259080886,0.0708008,-0.762695,0.632324
1480527259097429,0.0776367,-0.766113,0.635742
1480527259119990,0.065918,-0.746094,0.646484
1480527259135030,0.0742188,-0.749023,0.637207
1480527259157590,0.0708008,-0.76709,0.63916
1480527259180651,0.0717773,-0.766602,0.644531
1480527259194193,0.0742188,-0.758789,0.638672
1480527259217248,0.0800781,-0.745605,0.63623
1480527259240310,0.0761719,-0.763672,0.63916
1480527259254347,0.0683594,-0.774414,0.633301
1480527259277409,0.0722656,-0.762695,0.635254
1480527259299969,0.0844727,-0.744141,0.631836
1480527259321526,0.0766602,-0.753906,0.63916
1480527259343585,0.0634766,-0.76709,0.633301
1480527259360130,0.065918,-0.763184,0.632324
1480527259380687,0.0722656,-0.741211,0.638184
1480527259397227,0.0761719,-0.760742,0.638184
1480527259419788,0.0737305,-0.774902,0.633789
1480527259440844,0.0683594,-0.766113,0.634277
1480527259457388,0.0708008,-0.745117,0.637695
1480527259479947,0.0737305,-0.749023,0.635742
1480527259501003,0.0688477,-0.767578,0.638672
1480527259517550,0.0673828,-0.762695,0.632324
1480527259540108,0.074707,-0.749512,0.632324
1480527259561163,0.0771484,-0.757324,0.63623
1480527259577207,0.0756836,-0.766113,0.637695
1480527259599765,0.0703125,-0.766602,0.643066
1480527259620822,0.0727539,-0.750488,0.637695
1480527259637868,0.0800781,-0.747559,0.633789
1480527259675969,0.0742188,-0.769043,0.638184
1480527259690007,0.0703125,-0.775879,0.639648
1480527259705048,0.0703125,-0.75293,0.631836
1480527259720587,0.0737305,-0.752441,0.633301
1480527259741143,0.0756836,-0.760254,0.639648
1480527259757697,0.0703125,-0.771484,0.632813
1480527259779745,0.0727539,-0.765625,0.643555
1480527259809825,0.0791016,-0.751465,0.635254
1480527259817846,0.0751953,-0.758789,0.634766
1480527259839906,0.0693359,-0.773926,0.633789
1480527259862465,0.0717773,-0.764648,0.64209
1480527259877506,0.0791016,-0.743164,0.632324
1480527259900065,0.0756836,-0.762695,0.63916
1480527259922627,0.0698242,-0.771973,0.63916
1480527259936662,0.0654297,-0.768555,0.645508
1480527259965739,0.0751953,-0.740723,0.63623
1480527259982284,0.0766602,-0.752441,0.631348
1480527260012364,0.0693359,-0.766113,0.630371
1480527260019884,0.0708008,-0.765137,0.635742
1480527260042443,0.0756836,-0.760742,0.638672
1480527260056986,0.081543,-0.75293,0.638672
1480527260080044,0.0751953,-0.76709,0.629883
1480527260110626,0.0717773,-0.770996,0.646973
1480527260118145,0.0683594,-0.746582,0.641113
1480527260140204,0.0698242,-0.743652,0.633789
1480527260162265,0.0737305,-0.774414,0.632324
1480527260176802,0.074707,-0.768555,0.634277
1480527260199863,0.0751953,-0.749023,0.637207
1480527260230444,0.0751953,-0.755371,0.638672
1480527260236961,0.0712891,-0.776855,0.644531
1480527260260022,0.078125,-0.762207,0.641113
1480527260283097,0.0683594,-0.769043,0.638672
1480527260303651,0.0874023,-0.736328,0.633301
1480527260326212,0.0742188,-0.760742,0.638184
1480527260349774,0.0722656,-0.770508,0.63916
1480527260363309,0.0712891,-0.751465,0.634766
1480527260387373,0.0717773,-0.749023,0.632813
1480527260402413,0.0805664,-0.759766,0.636719
1480527260432493,0.0693359,-0.771973,0.641602
1480527260440515,0.0717773,-0.759766,0.641113
1480527260462575,0.078125,-0.742676,0.634766
1480527260483629,0.0756836,-0.760742,0.637695
1480527260507192,0.0703125,-0.769531,0.629883
1480527260522734,0.0761719,-0.765625,0.635742
1480527260543289,0.0791016,-0.744141,0.63916
1480527260560333,0.0766602,-0.746582,0.637207
1480527260582894,0.0751953,-0.770508,0.640137
1480527260603447,0.0688477,-0.769043,0.640625
1480527260619992,0.0717773,-0.745605,0.631836
1480527260642552,0.0727539,-0.749512,0.638184
1480527260665111,0.0737305,-0.773926,0.641113
1480527260680153,0.0693359,-0.771973,0.641113
1480527260702713,0.0810547,-0.755859,0.637207
1480527260732791,0.0751953,-0.75,0.641602
1480527260748054,0.0708008,-0.757813,0.64502
1480527260769891,0.0712891,-0.765137,0.643555
1480527260784931,0.0722656,-0.746094,0.63623
1480527260799971,0.0810547,-0.743652,0.635742
1480527260822536,0.0791016,-0.765625,0.630371
1480527260845093,0.0722656,-0.776367,0.638672
1480527260859129,0.0776367,-0.754883,0.63916
1480527260882691,0.0766602,-0.749023,0.64502
1480527260905255,0.0786133,-0.760742,0.641602
1480527260919288,0.0708008,-0.769531,0.641602
1480527260942349,0.0708008,-0.756836,0.643066
1480527260965411,0.081543,-0.751465,0.634766
1480527260979449,0.0732422,-0.750488,0.64209
1480527261016045,0.0688477,-0.769043,0.634766
1480527261025071,0.0683594,-0.762207,0.63916
1480527261039109,0.0732422,-0.748047,0.643066
1480527261062168,0.0810547,-0.751465,0.636719
1480527261092248,0.0727539,-0.772461,0.638184
1480527261099267,0.0712891,-0.767578,0.640137
1480527261122347,0.0737305,-0.746094,0.638184
1480527261144889,0.078125,-0.750977,0.641113
1480527261159427,0.0742188,-0.763184,0.635254
1480527261182500,0.0708008,-0.770508,0.63916
1480527261205048,0.0751953,-0.74707,0.645508
1480527261226104,0.0830078,-0.748047,0.643555
1480527261242652,0.0693359,-0.762695,0.63916
1480527261264707,0.0668945,-0.769043,0.638672
1480527261285763,0.0727539,-0.751953,0.637207
1480527261302308,0.078125,-0.744629,0.632813
1480527261325370,0.0800781,-0.769531,0.641602
1480527261346926,0.0703125,-0.770996,0.641602
1480527261362467,0.0717773,-0.753906,0.641602
1480527261384526,0.0742188,-0.739746,0.641113
1480527261406085,0.0786133,-0.755371,0.629395
1480527261422634,0.0737305,-0.773926,0.638184
1480527261445188,0.0742188,-0.763184,0.64209
1480527261465741,0.0825195,-0.745117,0.64209
1480527261482286,0.0766602,-0.754395,0.636719
1480527261504846,0.0683594,-0.767578,0.644043
1480527261525902,0.0703125,-0.766113,0.637695
1480527261542446,0.0756836,-0.74707,0.633789
1480527261565008,0.0761719,-0.757813,0.638184
1480527261586061,0.0722656,-0.769531,0.638184
1480527261602606,0.0693359,-0.76416,0.64502
1480527261625166,0.0771484,-0.748047,0.644043
1480527261646223,0.0766602,-0.75,0.637695
1480527261670787,0.0742188,-0.768555,0.643555
1480527261684835,0.0698242,-0.765625,0.638184
1480527261707385,0.0761719,-0.747559,0.638184
1480527261722427,0.0810547,-0.754883,0.640137
1480527261752504,0.0742188,-0.766113,0.640625
1480527261775065,0.0693359,-0.769043,0.640137
1480527261782695,0.0791016,-0.753906,0.63623
1480527261813166,0.081543,-0.743164,0.634277
1480527261827204,0.0751953,-0.769531,0.641602
1480527261842243,0.0732422,-0.770996,0.644043
1480527261864803,0.0727539,-0.75293,0.637695
1480527261887364,0.0786133,-0.742188,0.637695
1480527261901902,0.0761719,-0.76416,0.632813
1480527261924963,0.0732422,-0.780273,0.630371
1480527261948024,0.074707,-0.756348,0.640625
1480527261961562,0.0722656,-0.730957,0.643066
1480527261985123,0.0742188,-0.760742,0.634766
1480527262014702,0.0708008,-0.774414,0.633789
1480527262021723,0.0737305,-0.760742,0.63623
1480527262059822,0.0761719,-0.743164,0.639648
1480527262067341,0.0786133,-0.756348,0.638184
1480527262081881,0.0742188,-0.773438,0.638672
1480527262104944,0.0756836,-0.760254,0.63916
1480527262127502,0.078125,-0.745117,0.636719
1480527262141539,0.0795898,-0.748047,0.630859
1480527262166606,0.0771484,-0.781738,0.640625
1480527262187662,0.0673828,-0.766113,0.64209
1480527262208718,0.0732422,-0.738281,0.64209
1480527262224767,0.0786133,-0.746582,0.64209
1480527262247321,0.0732422,-0.777344,0.647461
1480527262268376,0.0703125,-0.771973,0.641602
1480527262284920,0.074707,-0.742188,0.638672
1480527262307481,0.0795898,-0.740234,0.635254
1480527262328536,0.0786133,-0.769531,0.635254
1480527262345583,0.0698242,-0.766602,0.634766
1480527262375161,0.0693359,-0.756836,0.636719
1480527262388699,0.0761719,-0.73877,0.637695
1480527262405244,0.0742188,-0.763672,0.633301
1480527262428304,0.0722656,-0.771973,0.635254
1480527262448355,0.0703125,-0.755859,0.638672
1480527262464899,0.078125,-0.744629,0.644531
1480527262487460,0.0708008,-0.761719,0.640625
1480527262508530,0.0727539,-0.782715,0.635742
1480527262525073,0.0791016,-0.760742,0.634766
1480527262547632,0.0742188,-0.743652,0.634766
1480527262568688,0.0698242,-0.749023,0.640625
1480527262584731,0.0717773,-0.771484,0.63916
1480527262607292,0.0761719,-0.757813,0.633789
1480527262629851,0.078125,-0.744629,0.632813
1480527262644891,0.0742188,-0.756836,0.634277
1480527262667451,0.0727539,-0.774902,0.642578
1480527262690012,0.0727539,-0.766602,0.631348
1480527262705051,0.0776367,-0.740234,0.64209
1480527262727611,0.0795898,-0.755371,0.633789
1480527262756193,0.0732422,-0.768066,0.633301
1480527262764208,0.0673828,-0.762207,0.643555
1480527262787270,0.0756836,-0.755371,0.641602
1480527262809830,0.0756836,-0.748047,0.640625
1480527262824368,0.0717773,-0.757324,0.639648
1480527262847430,0.0673828,-0.766602,0.641113
1480527262869989,0.0776367,-0.757324,0.638184
1480527262884027,0.0830078,-0.753906,0.63623
1480527262907591,0.0751953,-0.762207,0.640137
1480527262930150,0.0708008,-0.766113,0.636719
1480527262951205,0.0737305,-0.757813,0.634766
1480527262967248,0.0791016,-0.750977,0.638672
1480527262989810,0.0776367,-0.767578,0.638672
1480527263004348,0.0708008,-0.766602,0.638672
1480527263027408,0.0761719,-0.751953,0.641602
1480527263050975,0.0786133,-0.747559,0.640137
1480527263064508,0.0727539,-0.755859,0.634277
1480527263087577,0.0678711,-0.770996,0.639648
1480527263110129,0.0727539,-0.76709,0.640137
1480527263131184,0.0756836,-0.743652,0.636719
1480527263153245,0.0771484,-0.751953,0.643066
1480527263170289,0.0678711,-0.766113,0.642578
1480527263190845,0.0688477,-0.755859,0.634277
1480527263207388,0.0727539,-0.742188,0.637695
1480527263230950,0.0795898,-0.754883,0.638184
1480527263251006,0.0761719,-0.777832,0.635742
1480527263275068,0.0717773,-0.763184,0.637207
1480527263290107,0.0771484,-0.741699,0.641602
1480527263312682,0.0766602,-0.750977,0.643066
1480527263327206,0.0712891,-0.77002,0.637207
1480527263349766,0.0703125,-0.763672,0.64502
1480527263370822,0.0751953,-0.75293,0.637695
1480527263387366,0.0756836,-0.749023,0.635742
1480527263410428,0.065918,-0.761719,0.636719
1480527263430982,0.0688477,-0.770996,0.638672
1480527263447526,0.0722656,-0.755859,0.640625
1480527263470086,0.078125,-0.75293,0.642578
1480527263491142,0.0717773,-0.761719,0.637207
1480527263507687,0.0737305,-0.770508,0.636719
1480527263529744,0.0717773,-0.766113,0.641602
1480527263552305,0.0776367,-0.744141,0.642578
1480527263567345,0.0761719,-0.762207,0.634766
1480527263589906,0.0727539,-0.76709,0.640137
1480527263612966,0.0742188,-0.750977,0.635742
1480527263627505,0.0732422,-0.743164,0.63623
1480527263650566,0.078125,-0.759766,0.632324
1480527263680646,0.0683594,-0.768555,0.641602
1480527263694684,0.0717773,-0.760254,0.63916
1480527263709724,0.0751953,-0.753418,0.638672
1480527263732284,0.0737305,-0.760254,0.637207
1480527263753339,0.0668945,-0.769043,0.644043
1480527263769883,0.0683594,-0.761719,0.637695
1480527263792443,0.0688477,-0.748535,0.638184
1480527263806982,0.0810547,-0.748535,0.638184
1480527263830044,0.0708008,-0.768555,0.640137
1480527263853108,0.0722656,-0.776367,0.637207
1480527263866640,0.0771484,-0.746094,0.635742
1480527263889703,0.0722656,-0.751465,0.638184
1480527263912262,0.0742188,-0.770508,0.631348
1480527263926801,0.0712891,-0.775391,0.642578
1480527263949862,0.078125,-0.748047,0.640137
1480527263972425,0.0805664,-0.744629,0.640137
1480527263993479,0.0737305,-0.77002,0.634766
1480527264010023,0.0703125,-0.763184,0.632324
1480527264032582,0.0712891,-0.749512,0.641113
1480527264046620,0.0742188,-0.749023,0.635254
1480527264070182,0.0717773,-0.769043,0.640137
1480527264106781,0.0732422,-0.773926,0.64209
1480527264113297,0.0722656,-0.751465,0.635742
1480527264129841,0.0776367,-0.743164,0.635742
1480527264158417,0.0771484,-0.756836,0.635254
1480527264173458,0.0756836,-0.773926,0.634766
1480527264190001,0.0751953,-0.757324,0.63916
1480527264212563,0.0820313,-0.743652,0.634766
1480527264233617,0.0786133,-0.755859,0.637695
1480527264249660,0.0678711,-0.775391,0.64209
1480527264272220,0.0678711,-0.762695,0.636719
1480527264293276,0.0732422,-0.741211,0.63916
1480527264310321,0.078125,-0.756836,0.640137
1480527264332380,0.0717773,-0.777344,0.642578
1480527264353449,0.0766602,-0.769531,0.646484
1480527264369980,0.0673828,-0.741699,0.637207
1480527264392540,0.0776367,-0.743652,0.64209
1480527264421116,0.0751953,-0.769531,0.638672
1480527264430140,0.0742188,-0.770996,0.636719
1480527264453201,0.0791016,-0.744141,0.634277
1480527264473255,0.0805664,-0.749512,0.637695
1480527264489798,0.081543,-0.768066,0.640137
1480527264512359,0.0732422,-0.768066,0.644531
1480527264535921,0.0756836,-0.748535,0.635254
1480527264549958,0.0820313,-0.738281,0.63916
1480527264572520,0.0791016,-0.763184,0.634766
1480527264595078,0.0683594,-0.775879,0.640137
1480527264610620,0.0727539,-0.755859,0.640137
1480527264632178,0.074707,-0.743164,0.64209
1480527264654741,0.074707,-0.763184,0.638672
1480527264669276,0.0668945,-0.773438,0.64209
1480527264692338,0.0708008,-0.755859,0.640137
1480527264714897,0.081543,-0.745605,0.639648
1480527264729435,0.0786133,-0.759277,0.645508
1480527264752497,0.0683594,-0.775391,0.635254
1480527264775057,0.0708008,-0.754883,0.638184
1480527264789096,0.0795898,-0.743164,0.638184
1480527264812658,0.0786133,-0.754883,0.637207
1480527264835718,0.0737305,-0.765625,0.643066
1480527264849255,0.0717773,-0.765625,0.640137
1480527264872317,0.0776367,-0.743164,0.634766
1480527264895377,0.0742188,-0.745605,0.634766
1480527264909415,0.0708008,-0.774902,0.63916
1480527264932476,0.0766602,-0.765625,0.637695
1480527264955040,0.0766602,-0.748535,0.636719
1480527264969074,0.0766602,-0.748047,0.639648
1480527264998652,0.0708008,-0.758789,0.636719
1480527265014694,0.0678711,-0.763672,0.635254
1480527265036252,0.0791016,-0.748535,0.639648
1480527265052796,0.0805664,-0.742188,0.637207
1480527265082375,0.0722656,-0.759766,0.640625
1480527265095910,0.0737305,-0.77002,0.638184
1480527265112456,0.0766602,-0.762207,0.638184
1480527265136017,0.0834961,-0.742676,0.638672
1480527265156073,0.0742188,-0.75293,0.641113
1480527265179633,0.0722656,-0.766602,0.63916
1480527265195175,0.0742188,-0.762207,0.643066
1480527265215729,0.0805664,-0.74707,0.639648
1480527265233276,0.0771484,-0.753418,0.635254
1480527265254836,0.0703125,-0.768555,0.635254
1480527265275891,0.0683594,-0.764648,0.640137
1480527265292434,0.0771484,-0.749512,0.635742
1480527265314993,0.0776367,-0.753906,0.640625
1480527265336552,0.0698242,-0.769531,0.636719
1480527265354098,0.0737305,-0.76709,0.638184
1480527265375154,0.0776367,-0.743164,0.643066
1480527265396210,0.0776367,-0.749512,0.634277
1480527265412252,0.074707,-0.76709,0.641602
1480527265435815,0.0737305,-0.766113,0.637207
1480527265455872,0.0732422,-0.748047,0.641602
1480527265472413,0.0776367,-0.744141,0.641602
1480527265494973,0.0727539,-0.765137,0.641113
1480527265517533,0.0698242,-0.771973,0.637695
1480527265532572,0.0795898,-0.754883,0.641113
1480527265555634,0.081543,-0.748047,0.637695
1480527265577191,0.0712891,-0.761719,0.64502
1480527265592231,0.0693359,-0.77002,0.641113
1480527265614794,0.0751953,-0.747559,0.63916
1480527265637852,0.0844727,-0.73877,0.643555
1480527265659910,0.0805664,-0.763672,0.634277
1480527265674950,0.0717773,-0.775879,0.634766
1480527265703527,0.0761719,-0.758301,0.63623
1480527265718566,0.0830078,-0.745117,0.644043
1480527265735613,0.078125,-0.755371,0.637695
1480527265757671,0.0717773,-0.769531,0.641113
1480527265771709,0.0766602,-0.759277,0.638184
1480527265794769,0.0805664,-0.744629,0.647949
1480527265817330,0.0761719,-0.750977,0.643066
1480527265832370,0.0722656,-0.766602,0.645996
1480527265854933,0.0737305,-0.762207,0.638672
1480527265877490,0.078125,-0.746582,0.647461
1480527265892028,0.0776367,-0.75293,0.645508
1480527265915090,0.0708008,-0.771973,0.643555
1480527265937651,0.0722656,-0.761719,0.635254
1480527265958206,0.0776367,-0.745605,0.63623
1480527265974753,0.0766602,-0.75293,0.63623
1480527265997810,0.0698242,-0.767578,0.637695
1480527266019869,0.0727539,-0.766113,0.64209
1480527266036914,0.0805664,-0.749023,0.639648
1480527266057469,0.0830078,-0.739258,0.635742
1480527266078525,0.0717773,-0.765625,0.633789
1480527266101084,0.0673828,-0.766602,0.641113
1480527266117628,0.0742188,-0.747559,0.643066
1480527266146204,0.0786133,-0.743164,0.637695
1480527266156232,0.0800781,-0.771973,0.642578
1480527266178290,0.0742188,-0.773438,0.636719
1480527266182801,0.0776367,-0.755371,0.637207
1480527266214887,0.0771484,-0.740723,0.646973
1480527266244968,0.0776367,-0.759766,0.640625
1480527266260008,0.0703125,-0.772949,0.641113
1480527266275050,0.0791016,-0.756348,0.642578
1480527266297607,0.0810547,-0.745605,0.637207
1480527266319165,0.0761719,-0.761719,0.633789
1480527266335708,0.074707,-0.769531,0.64209
1480527266363281,0.0742188,-0.762695,0.643555
1480527266378322,0.0776367,-0.739258,0.635742
1480527266394866,0.0795898,-0.754395,0.631836
1480527266423442,0.0751953,-0.768066,0.633789
1480527266439986,0.0712891,-0.768555,0.641602
1480527266455026,0.074707,-0.751465,0.633789
1480527266478087,0.0761719,-0.744629,0.640625
1480527266500146,0.0761719,-0.763672,0.639648
1480527266514684,0.0742188,-0.766113,0.641602
1480527266543262,0.0766602,-0.75293,0.64209
1480527266576349,0.081543,-0.74707,0.631348
1480527266581361,0.0756836,-0.766113,0.637695
1480527266583368,0.0703125,-0.76416,0.633789
1480527266602919,0.0795898,-0.746582,0.635254
1480527266625480,0.0751953,-0.746582,0.64209
1480527266641523,0.0771484,-0.769043,0.640625
1480527266664082,0.0712891,-0.765625,0.638672
1480527266685137,0.0727539,-0.748535,0.640137
1480527266701682,0.0751953,-0.750977,0.640625
1480527266722739,0.0771484,-0.757324,0.645508
1480527266745298,0.0703125,-0.766113,0.635742
1480527266769362,0.0795898,-0.754883,0.643555
1480527266782898,0.0751953,-0.748047,0.644531
1480527266806964,0.0771484,-0.757813,0.639648
1480527266821501,0.0717773,-0.76709,0.640625
1480527266842557,0.0742188,-0.759277,0.645508
1480527266865116,0.0805664,-0.743164,0.639648
1480527266883165,0.0791016,-0.755371,0.635742
1480527266902717,0.0732422,-0.77002,0.636719
1480527266925277,0.0722656,-0.756836,0.635742
1480527266944124,0.0830078,-0.751953,0.636719
1480527266962877,0.081543,-0.758789,0.634766
1480527266985436,0.0708008,-0.772949,0.63623
1480527267007997,0.0708008,-0.764648,0.643066
1480527267023036,0.0742188,-0.739746,0.645996
1480527267045095,0.0756836,-0.746582,0.63623
1480527267061639,0.0727539,-0.762695,0.628418
1480527267085703,0.0737305,-0.762207,0.630371
1480527267105256,0.0776367,-0.756348,0.637207
1480527267127815,0.0800781,-0.757324,0.639648
1480527267142856,0.0751953,-0.762207,0.63623
1480527267165415,0.0708008,-0.761719,0.643555
1480527267182962,0.0737305,-0.757813,0.646484
1480527267203016,0.0820313,-0.74707,0.634766
1480527267225575,0.0854492,-0.755859,0.640625
1480527267247635,0.0576172,-0.775391,0.630859
1480527267262674,0.078125,-0.759277,0.636719
1480527267285234,0.0825195,-0.735352,0.647461
1480527267307795,0.0722656,-0.764648,0.643555
1480527267322834,0.0727539,-0.768555,0.633301
1480527267345394,0.0673828,-0.757813,0.638184
1480527267367954,0.0810547,-0.747559,0.63916
1480527267382994,0.0786133,-0.763184,0.63623
1480527267412572,0.0786133,-0.763184,0.637207
1480527267429117,0.0644531,-0.763672,0.630371
1480527267442652,0.0766602,-0.751465,0.63916
1480527267465213,0.0766602,-0.756348,0.63916
1480527267487789,0.0727539,-0.769043,0.643066
1480527267502813,0.0678711,-0.755859,0.634766
1480527267525373,0.0732422,-0.75293,0.638672
1480527267547933,0.078125,-0.751465,0.634766
1480527267579015,0.0776367,-0.760742,0.641602
1480527267585031,0.0668945,-0.763184,0.637695
1480527267607591,0.0776367,-0.746094,0.64209
1480527267622638,0.0825195,-0.744629,0.633789
1480527267648200,0.0722656,-0.771973,0.637207
1480527267667751,0.0742188,-0.76709,0.633301
1480527267685800,0.0791016,-0.744141,0.638184
1480527267706856,0.0717773,-0.751953,0.632813
1480527267727911,0.0771484,-0.758301,0.640137
1480527267742951,0.0698242,-0.768066,0.636719
1480527267765512,0.0756836,-0.757813,0.637207
1480527267788074,0.0849609,-0.75,0.641113
1480527267802610,0.0820313,-0.762207,0.635254
1480527267825170,0.0678711,-0.772461,0.633789
1480527267847730,0.0751953,-0.756836,0.646484
1480527267863271,0.0766602,-0.738281,0.643066
1480527267885330,0.0791016,-0.750488,0.643066
1480527267907890,0.0742188,-0.773438,0.629395
1480527267922931,0.0703125,-0.750488,0.640137
1480527267945490,0.0839844,-0.748535,0.63623
1480527267968050,0.0844727,-0.76416,0.637695
1480527267984093,0.0727539,-0.770996,0.644043
1480527268005651,0.0708008,-0.751465,0.635254
1480527268036734,0.0791016,-0.749512,0.635742
1480527268051774,0.0830078,-0.755371,0.634766
1480527268065309,0.0732422,-0.771973,0.640137
1480527268095891,0.0727539,-0.765137,0.643066
1480527268104414,0.0751953,-0.747559,0.642578
1480527268132989,0.081543,-0.749512,0.636719
1480527268147529,0.0688477,-0.77002,0.634766
1480527268164072,0.0683594,-0.757813,0.640137
1480527268193151,0.0810547,-0.757324,0.642578
1480527268215709,0.0795898,-0.748047,0.628418
1480527268224234,0.0766602,-0.758301,0.632324
1480527268245289,0.0703125,-0.763672,0.641602
1480527268267848,0.0732422,-0.759277,0.644531
1480527268290409,0.081543,-0.745117,0.638672
1480527268315976,0.0756836,-0.758301,0.637695
1480527268329012,0.0766602,-0.76709,0.631836
1480527268346057,0.078125,-0.76416,0.632813
1480527268365106,0.0820313,-0.746094,0.639648
1480527268396691,0.0776367,-0.758789,0.635254
1480527268411731,0.0693359,-0.769043,0.639648
1480527268425271,0.074707,-0.751953,0.64209
1480527268449331,0.0742188,-0.746582,0.635254
1480527268465885,0.0800781,-0.750488,0.635742
1480527268485427,0.0737305,-0.770508,0.638184
1480527268515507,0.074707,-0.763672,0.63623
1480527268526035,0.0834961,-0.75,0.635254
1480527268552607,0.0791016,-0.756348,0.630859
1480527268567645,0.0737305,-0.762695,0.638184
1480527268585693,0.0732422,-0.765137,0.640625
1480527268612765,0.0737305,-0.746094,0.643066
1480527268627809,0.0844727,-0.750488,0.638184
1480527268645854,0.074707,-0.763672,0.631836
1480527268665405,0.0664063,-0.770996,0.638184
1480527268689471,0.0791016,-0.759766,0.638184
1480527268710525,0.081543,-0.751953,0.641602
1480527268725569,0.0742188,-0.755371,0.642578
1480527268747624,0.065918,-0.760742,0.638672
1480527268770184,0.0766602,-0.758789,0.643066
1480527268785224,0.0761719,-0.747559,0.637695
1480527268809789,0.0732422,-0.758789,0.63623
1480527268830345,0.0717773,-0.763672,0.641113
1480527268846995,0.0742188,-0.755371,0.640137
1480527268867945,0.0810547,-0.749023,0.637207
1480527268892014,0.0766602,-0.762695,0.635742
1480527268905043,0.0717773,-0.768066,0.640625
1480527268930612,0.0761719,-0.755859,0.643066
1480527268950162,0.0820313,-0.743164,0.640137
1480527268966706,0.0727539,-0.754883,0.638184
1480527268987763,0.0712891,-0.769531,0.642578
1480527269010323,0.0742188,-0.764648,0.638672
1480527269034888,0.0795898,-0.746094,0.638184
1480527269047924,0.0844727,-0.748047,0.641113
1480527269073493,0.074707,-0.766602,0.642578
1480527269086526,0.0732422,-0.765625,0.643555
1480527269107582,0.0786133,-0.748535,0.640137
1480527269130149,0.0791016,-0.744629,0.634766
1480527269146691,0.0708008,-0.763672,0.643066
1480527269167747,0.0722656,-0.771484,0.634766
1480527269190321,0.0786133,-0.752441,0.64209
1480527269206851,0.0776367,-0.749512,0.637207
1480527269229414,0.0776367,-0.765625,0.643555
1480527269250467,0.0688477,-0.766113,0.63916
1480527269268014,0.0756836,-0.746094,0.636719
1480527269287567,0.0795898,-0.749023,0.641602
1480527269310127,0.0795898,-0.77002,0.63916
1480527269328178,0.0712891,-0.769531,0.631348
1480527269347725,0.0708008,-0.760742,0.633789
1480527269370287,0.081543,-0.74707,0.641113
1480527269388838,0.0776367,-0.755371,0.637207
1480527269407886,0.0698242,-0.770508,0.633789
1480527269430445,0.074707,-0.76709,0.63623
1480527269447993,0.0830078,-0.743652,0.636719
1480527269468048,0.0771484,-0.753906,0.634766
1480527269490106,0.0737305,-0.77002,0.637695
1480527269508154,0.0698242,-0.757813,0.636719
1480527269527705,0.0727539,-0.750977,0.644043
1480527269550265,0.0766602,-0.756836,0.633789
1480527269568312,0.074707,-0.76416,0.638672
1480527269587865,0.0737305,-0.759277,0.638672
1480527269610425,0.0776367,-0.751953,0.634766
1480527269627972,0.0800781,-0.753906,0.632324
1480527269647524,0.0751953,-0.772949,0.634277
1480527269670084,0.0722656,-0.76416,0.644043
1480527269688134,0.0825195,-0.747559,0.63916
1480527269707683,0.0834961,-0.74707,0.632813
1480527269733251,0.0722656,-0.768555,0.638672
1480527269748293,0.0717773,-0.764648,0.638184
1480527269767843,0.0742188,-0.75,0.645996
1480527269790404,0.0805664,-0.752441,0.638184
1480527269807951,0.0834961,-0.770996,0.64209
1480527269828004,0.0727539,-0.770508,0.63623
1480527269850062,0.0712891,-0.756836,0.641113
1480527269868110,0.0825195,-0.744141,0.644531
1480527269904210,0.0795898,-0.758789,0.638184
1480527269910222,0.0703125,-0.774414,0.637695
1480527269928270,0.0766602,-0.760742,0.63916
1480527269950329,0.0761719,-0.745117,0.627441
1480527269970384,0.078125,-0.758301,0.631836
1480527269988430,0.0698242,-0.770996,0.64209
1480527270009486,0.0717773,-0.762695,0.64209
1480527270030041,0.0791016,-0.748047,0.629395
1480527270049208,0.0751953,-0.752441,0.633301
1480527270069145,0.0708008,-0.772461,0.635742
1480527270090201,0.0712891,-0.76416,0.642578
1480527270108249,0.0761719,-0.743652,0.636719
1480527270129305,0.0751953,-0.750977,0.634766
1480527270150360,0.0673828,-0.766113,0.632813
1480527270175428,0.0703125,-0.773438,0.633301
1480527270189466,0.0761719,-0.75293,0.638672
1480527270213028,0.0834961,-0.750977,0.637207
1480527270236590,0.0722656,-0.768066,0.630371
1480527270250629,0.0727539,-0.768555,0.642578
1480527270270183,0.0756836,-0.755859,0.638672
1480527270292740,0.0839844,-0.746582,0.63916
1480527270310790,0.0791016,-0.756836,0.637207
1480527270337862,0.0712891,-0.770996,0.635254
1480527270355908,0.078125,-0.755371,0.647461
1480527270376966,0.0717773,-0.742676,0.640625
1480527270393007,0.0786133,-0.758789,0.63916
1480527270412559,0.0756836,-0.776367,0.643066
1480527270430607,0.0766602,-0.758301,0.636719
1480527270450158,0.0771484,-0.746582,0.637207
1480527270472718,0.0717773,-0.755371,0.645508
1480527270490767,0.0732422,-0.766602,0.630371
1480527270510318,0.0791016,-0.754883,0.643066
1480527270535385,0.0810547,-0.740723,0.643555
1480527270555438,0.0810547,-0.766113,0.626953
1480527270570483,0.0717773,-0.762695,0.637695
1480527270592538,0.0737305,-0.764648,0.637207
1480527270610586,0.074707,-0.747559,0.637695
1480527270630137,0.0800781,-0.751953,0.635742
1480527270663225,0.0795898,-0.762207,0.638184
1480527270670748,0.0727539,-0.765625,0.642578
1480527270691801,0.0805664,-0.75293,0.643066
1480527270712857,0.0820313,-0.737305,0.633789
1480527270730906,0.0737305,-0.763672,0.643555
1480527270750458,0.0693359,-0.771484,0.637695
1480527270773033,0.0737305,-0.753906,0.641113
1480527270790565,0.0795898,-0.74707,0.638184
1480527270810116,0.0800781,-0.764648,0.639648
1480527270832676,0.0751953,-0.762207,0.640137
1480527270850723,0.0776367,-0.756836,0.637207
1480527270872282,0.078125,-0.74707,0.637207
1480527270892835,0.0761719,-0.758789,0.639648
1480527270910884,0.0751953,-0.76709,0.635254
1480527270931940,0.0751953,-0.757813,0.638184
1480527270952997,0.0795898,-0.746582,0.646973
1480527270978062,0.074707,-0.75293,0.637695
1480527270997615,0.0717773,-0.765137,0.644043
1480527271014158,0.0717773,-0.763672,0.637695
1480527271030702,0.0844727,-0.750977,0.643555
1480527271053264,0.0839844,-0.757324,0.64502
1480527271072815,0.0639648,-0.765625,0.639648
1480527271090863,0.0712891,-0.756836,0.64502
1480527271112419,0.0756836,-0.743652,0.64209
1480527271132976,0.078125,-0.753418,0.638184
1480527271150521,0.074707,-0.765625,0.634766
1480527271173082,0.0742188,-0.763672,0.641113
1480527271192634,0.0825195,-0.750977,0.640625
1480527271210682,0.0771484,-0.744629,0.64209
1480527271233241,0.0712891,-0.768066,0.64502
1480527271252794,0.0688477,-0.766113,0.63623
1480527271282873,0.0786133,-0.753418,0.639648
1480527271293401,0.0825195,-0.748535,0.643555
1480527271313956,0.0727539,-0.756836,0.640625
1480527271330500,0.0678711,-0.762207,0.640625
1480527271353060,0.0756836,-0.753906,0.639648
1480527271372612,0.0805664,-0.752441,0.641113
1480527271390660,0.0717773,-0.763184,0.643555
1480527271413220,0.0727539,-0.76123,0.639648
1480527271432772,0.0771484,-0.756836,0.64209
1480527271451322,0.0805664,-0.748535,0.640137
1480527271473381,0.0771484,-0.760254,0.637695
1480527271492932,0.0698242,-0.768555,0.639648
1480527271511200,0.0727539,-0.755859,0.636719
1480527271533039,0.0830078,-0.746582,0.637207
1480527271552591,0.0800781,-0.753418,0.642578
1480527271570640,0.0703125,-0.766113,0.635742
1480527271593199,0.0688477,-0.760254,0.638184
1480527271612752,0.0805664,-0.740723,0.64502
1480527271635311,0.0751953,-0.74707,0.63916
1480527271653359,0.0751953,-0.77832,0.63916
1480527271675417,0.0761719,-0.76709,0.64209
1480527271702994,0.078125,-0.743652,0.63916
1480527271713023,0.0766602,-0.748535,0.640625
1480527271732569,0.0732422,-0.763672,0.640625
1480527271755131,0.0683594,-0.765137,0.635742
1480527271773178,0.0830078,-0.751465,0.63623
1480527271794233,0.0830078,-0.746094,0.633789
1480527271815289,0.0795898,-0.766113,0.640625
1480527271833337,0.0703125,-0.770996,0.641113
1480527271854393,0.0766602,-0.748535,0.634766
1480527271875450,0.0771484,-0.745117,0.634277
1480527271892996,0.0776367,-0.764648,0.646484
1480527271914053,0.0708008,-0.776367,0.641113
1480527271936613,0.0732422,-0.75293,0.642578
1480527271953157,0.0805664,-0.742188,0.642578
1480527271975717,0.0742188,-0.761719,0.641602
1480527271995268,0.0668945,-0.76709,0.638672
1480527272013316,0.0708008,-0.757813,0.641113
1480527272034873,0.0795898,-0.743164,0.640137
1480527272055428,0.0825195,-0.758789,0.635742
1480527272080495,0.0708008,-0.768066,0.632324
1480527272094031,0.0717773,-0.759277,0.644531
1480527272115087,0.0786133,-0.746094,0.637207
1480527272133135,0.0805664,-0.753418,0.637695
1480527272155695,0.0727539,-0.76416,0.63916
1480527272175247,0.0683594,-0.760742,0.641602
1480527272193297,0.0786133,-0.75,0.637207
1480527272228889,0.0761719,-0.750977,0.638184
1480527272235408,0.0751953,-0.76123,0.644043
1480527272252956,0.0683594,-0.763672,0.637695
1480527272275514,0.0776367,-0.753906,0.638184
1480527272295067,0.0795898,-0.749023,0.634277
1480527272321139,0.0756836,-0.766602,0.637695
1480527272336681,0.0712891,-0.760254,0.641602
1480527272362746,0.0786133,-0.750488,0.635254
1480527272373276,0.0786133,-0.739258,0.645996
1480527272395834,0.0766602,-0.766602,0.638672
1480527272415386,0.0776367,-0.767578,0.63916
1480527272433434,0.081543,-0.756348,0.638184
1480527272455994,0.0791016,-0.750488,0.640137
1480527272475045,0.0791016,-0.750488,0.641602
1480527272493594,0.0698242,-0.768066,0.642578
1480527272515653,0.0703125,-0.768066,0.634766
1480527272535706,0.0820313,-0.753418,0.638672
1480527272553757,0.0800781,-0.752441,0.643555
1480527272575812,0.0742188,-0.765137,0.636719
1480527272612622,0.0668945,-0.77832,0.634277
1480527272614920,0.0849609,-0.736816,0.640625
1480527272636479,0.0703125,-0.750977,0.639648
1480527272655023,0.0751953,-0.774902,0.640137
1480527272673071,0.0742188,-0.759766,0.637695
1480527272711174,0.0820313,-0.739746,0.638184
1480527272716688,0.0810547,-0.757324,0.630859
1480527272733231,0.0732422,-0.77002,0.640137
1480527272755791,0.0703125,-0.762207,0.637207
1480527272776848,0.0800781,-0.741211,0.63916
1480527272792890,0.0820313,-0.753906,0.640137
1480527272815450,0.0708008,-0.767578,0.641602
1480527272837008,0.0717773,-0.759766,0.639648
1480527272854075,0.0776367,-0.746094,0.637207
1480527272875610,0.0771484,-0.75293,0.638184
1480527272896666,0.0766602,-0.770996,0.639648
1480527272913712,0.0751953,-0.768555,0.634277
1480527272937277,0.074707,-0.741699,0.645996
1480527272956826,0.0791016,-0.73877,0.641602
1480527272979386,0.078125,-0.767578,0.627441
1480527272995428,0.0712891,-0.775879,0.640625
1480527273023004,0.0786133,-0.744141,0.641602
1480527273045060,0.0820313,-0.742676,0.63623
1480527273055589,0.0800781,-0.757813,0.643066
1480527273078347,0.0756836,-0.770996,0.644043
1480527273093189,0.0756836,-0.75,0.641113
1480527273115749,0.0795898,-0.744629,0.644531
1480527273138309,0.0825195,-0.760254,0.640625
1480527273157860,0.0742188,-0.769043,0.638672
1480527273175408,0.0722656,-0.754883,0.642578
1480527273197967,0.0795898,-0.744629,0.64209
1480527273218522,0.0756836,-0.757324,0.637695
1480527273236578,0.0678711,-0.767578,0.64209
1480527273258127,0.0800781,-0.76416,0.642578
1480527273279183,0.0810547,-0.740723,0.645508
1480527273295729,0.0800781,-0.755371,0.640137
1480527273325808,0.0737305,-0.765625,0.635254
1480527273338341,0.0717773,-0.760742,0.638672
1480527273355386,0.078125,-0.750488,0.642578
1480527273385971,0.0825195,-0.75293,0.637695
1480527273398500,0.0791016,-0.767578,0.642578
1480527273415045,0.0742188,-0.759277,0.64209
1480527273437105,0.078125,-0.745605,0.635742
1480527273458159,0.074707,-0.746582,0.638672
1480527273475205,0.0761719,-0.762695,0.644043
1480527273497263,0.0727539,-0.768066,0.636719
1480527273518319,0.078125,-0.755859,0.636719
1480527273535872,0.0834961,-0.755371,0.635254
1480527273557423,0.0805664,-0.763672,0.639648
1480527273578480,0.0688477,-0.767578,0.641113
1480527273595024,0.0727539,-0.747559,0.641602
1480527273617583,0.0839844,-0.739746,0.63623
1480527273638138,0.0805664,-0.758301,0.63623
1480527273662202,0.0678711,-0.777344,0.635742
1480527273677745,0.0737305,-0.760254,0.637207
1480527273698799,0.0830078,-0.740234,0.636719
1480527273714843,0.0722656,-0.750488,0.644043
1480527273737402,0.0727539,-0.765625,0.638672
1480527273775504,0.0742188,-0.761719,0.640625
1480527273778010,0.0810547,-0.745117,0.640137
1480527273797562,0.0766602,-0.761719,0.637695
1480527273818618,0.074707,-0.765625,0.639648
1480527273835669,0.0708008,-0.760742,0.642578
1480527273857722,0.0717773,-0.74707,0.639648
1480527273878469,0.0791016,-0.75293,0.639648
1480527273894827,0.0698242,-0.770508,0.641602
1480527273917381,0.0751953,-0.76416,0.645996
1480527273937937,0.0805664,-0.742188,0.631836
1480527273954982,0.0800781,-0.749512,0.639648
1480527273977541,0.0751953,-0.771973,0.638672
1480527273999600,0.0722656,-0.770508,0.641602
1480527274022160,0.0717773,-0.748047,0.643066
1480527274043215,0.0839844,-0.746094,0.640137
1480527274059760,0.0776367,-0.766113,0.638184
1480527274074800,0.0688477,-0.771973,0.635742
1480527274097360,0.0756836,-0.749023,0.638672
1480527274119920,0.0805664,-0.745117,0.643066
1480527274135968,0.078125,-0.760254,0.641113
1480527274157519,0.0727539,-0.770508,0.641602
1480527274179578,0.0751953,-0.760254,0.640625
1480527274194117,0.0756836,-0.744141,0.63623
1480527274217178,0.0844727,-0.750488,0.638672
1480527274239738,0.0683594,-0.771973,0.638672
1480527274254278,0.0751953,-0.758301,0.637207
1480527274277840,0.081543,-0.745117,0.640137
1480527274299899,0.0786133,-0.754883,0.638672
1480527274322460,0.0732422,-0.766113,0.640137
1480527274338001,0.0732422,-0.764648,0.63623
1480527274360058,0.0756836,-0.741211,0.638184
1480527274374096,0.0800781,-0.757324,0.638672
1480527274397157,0.074707,-0.766113,0.644531
1480527274427738,0.0722656,-0.768066,0.641113
1480527274436763,0.081543,-0.760742,0.647949
1480527274457318,0.0834961,-0.745605,0.633301
1480527274479379,0.0688477,-0.75293,0.636719
1480527274500933,0.0742188,-0.760254,0.639648
1480527274517478,0.0751953,-0.754395,0.643066
1480527274540037,0.0810547,-0.748535,0.640625
1480527274561096,0.0786133,-0.758789,0.63916
1480527274577786,0.0771484,-0.772461,0.638672
1480527274606213,0.0771484,-0.753906,0.638672
1480527274620752,0.0810547,-0.746094,0.641113
1480527274643312,0.0776367,-0.757813,0.641602
1480527274660357,0.0722656,-0.765625,0.639648
1480527274680912,0.0786133,-0.753418,0.642578
1480527274697456,0.0805664,-0.747559,0.640137
1480527274720016,0.0791016,-0.757813,0.640137
1480527274757616,0.0751953,-0.766602,0.640625
1480527274760123,0.0751953,-0.756836,0.640625
1480527274779675,0.078125,-0.742676,0.636719
1480527274800731,0.0751953,-0.758789,0.643555
1480527274817275,0.0751953,-0.76709,0.64209
1480527274839836,0.0786133,-0.763184,0.634766
1480527274862394,0.0859375,-0.742188,0.637695
1480527274878496,0.0844727,-0.751953,0.63623
1480527274899995,0.0766602,-0.763672,0.643555
1480527274921051,0.0737305,-0.77002,0.646973
1480527274937093,0.0839844,-0.744629,0.638672
1480527274967174,0.0791016,-0.744629,0.635254
1480527274982213,0.0786133,-0.763672,0.637695
1480527275004773,0.074707,-0.767578,0.641113
1480527275027333,0.0791016,-0.749023,0.642578
1480527275042876,0.0849609,-0.740723,0.639648
1480527275058918,0.0805664,-0.765625,0.643066
1480527275079974,0.0742188,-0.765137,0.638184
1480527275102535,0.0742188,-0.745605,0.636719
1480527275123589,0.0786133,-0.743652,0.642578
1480527275153168,0.0805664,-0.763672,0.641113
1480527275178737,0.0737305,-0.77002,0.638184
1480527275183248,0.0800781,-0.750488,0.64209
1480527275199793,0.0859375,-0.743652,0.634766
1480527275222353,0.0864258,-0.765625,0.637695
1480527275236892,0.0751953,-0.770996,0.635742
1480527275267974,0.0673828,-0.755371,0.641602
1480527275282513,0.0761719,-0.743164,0.644043
1480527275311091,0.0805664,-0.756836,0.641602
1480527275327131,0.0742188,-0.766113,0.64209
1480527275342677,0.0722656,-0.761719,0.641602
1480527275356709,0.0776367,-0.750488,0.634766
1480527275387291,0.0810547,-0.756348,0.631348
1480527275402331,0.0776367,-0.760254,0.636719
1480527275430907,0.0751953,-0.759277,0.638184
1480527275439931,0.0771484,-0.749023,0.649902
1480527275462491,0.0820313,-0.751953,0.63916
1480527275485051,0.0761719,-0.76709,0.636719
1480527275499590,0.0727539,-0.756348,0.644531
1480527275522150,0.0761719,-0.743164,0.64502
1480527275545212,0.0839844,-0.751465,0.64209
1480527275559750,0.0751953,-0.761719,0.639648
1480527275582310,0.0703125,-0.766113,0.642578
1480527275603366,0.0776367,-0.750488,0.63623
1480527275619910,0.0849609,-0.751465,0.63916
1480527275642971,0.0849609,-0.762695,0.635254
1480527275663527,0.0756836,-0.760742,0.640625
1480527275679568,0.0761719,-0.75293,0.640137
1480527275715664,0.0791016,-0.746094,0.640137
1480527275724689,0.0761719,-0.766602,0.638184
1480527275739728,0.0708008,-0.766602,0.644531
1480527275762289,0.0800781,-0.751465,0.637207
1480527275783348,0.0859375,-0.73877,0.636719
1480527275820443,0.0776367,-0.757813,0.63916
1480527275831473,0.0703125,-0.771484,0.646484
1480527275843505,0.0756836,-0.755859,0.647949
1480527275866064,0.078125,-0.736328,0.637207
1480527275882107,0.0800781,-0.750977,0.635742
1480527275903163,0.0751953,-0.769531,0.634277
1480527275919712,0.0732422,-0.76709,0.645508
1480527275942268,0.0795898,-0.752441,0.640137
1480527275964828,0.0854492,-0.752441,0.638672
1480527275985884,0.0717773,-0.762695,0.645996
1480527276009948,0.0708008,-0.758789,0.63916
1480527276031003,0.078125,-0.744141,0.639648
1480527276040027,0.0800781,-0.748047,0.644531
1480527276062086,0.0771484,-0.770508,0.638672
1480527276084646,0.0727539,-0.768555,0.648926
1480527276099185,0.0771484,-0.751953,0.63623
1480527276122247,0.0810547,-0.750977,0.640625
1480527276144806,0.0727539,-0.754883,0.64209
1480527276159345,0.0751953,-0.766113,0.639648
1480527276182406,0.0805664,-0.754883,0.64209
1480527276205467,0.0825195,-0.750488,0.63916
1480527276219005,0.0791016,-0.759277,0.64209
1480527276248081,0.0698242,-0.76416,0.637207
1480527276265126,0.0742188,-0.754883,0.644043
1480527276279163,0.0742188,-0.750977,0.639648
1480527276302225,0.0776367,-0.760254,0.638184
1480527276324785,0.0717773,-0.77002,0.638184
1480527276339324,0.0800781,-0.751953,0.640137
1480527276362385,0.0791016,-0.744141,0.635742
1480527276384945,0.0771484,-0.760742,0.634766
1480527276406000,0.0712891,-0.770508,0.63916
1480527276422546,0.0761719,-0.756836,0.643066
1480527276444604,0.0791016,-0.743652,0.635254
1480527276465661,0.0810547,-0.75293,0.635742
1480527276482210,0.0703125,-0.773926,0.639648
1480527276504763,0.0683594,-0.764648,0.63916
1480527276525820,0.0800781,-0.747559,0.633789
1480527276542363,0.0786133,-0.746582,0.637207
1480527276564927,0.0737305,-0.767578,0.643555
1480527276585479,0.0712891,-0.763672,0.638184
1480527276602526,0.0786133,-0.756836,0.635742
1480527276625083,0.0854492,-0.744629,0.633789
1480527276645639,0.0756836,-0.766113,0.641113
1480527276669704,0.0688477,-0.769531,0.641113
1480527276684742,0.0756836,-0.743652,0.640137
1480527276705798,0.0830078,-0.742676,0.638672
1480527276722342,0.0742188,-0.766602,0.639648
1480527276745403,0.0737305,-0.771973,0.640137
1480527276765959,0.0761719,-0.753418,0.637695
1480527276782502,0.0800781,-0.749512,0.640625
1480527276805063,0.0761719,-0.75293,0.63623
1480527276825617,0.0683594,-0.76709,0.638672
1480527276842161,0.0751953,-0.760742,0.64209
1480527276864721,0.0854492,-0.750488,0.63623
1480527276887281,0.0771484,-0.749512,0.63916
1480527276909842,0.0732422,-0.768555,0.642578
1480527276924881,0.0742188,-0.758301,0.644531
1480527276947441,0.0756836,-0.747559,0.64502
1480527276962481,0.0800781,-0.753418,0.640137
1480527276985045,0.0722656,-0.766113,0.644043
1480527277014620,0.0722656,-0.759277,0.638672
1480527277021639,0.0854492,-0.745605,0.640137
1480527277044699,0.0820313,-0.747559,0.633301
1480527277067260,0.0722656,-0.766113,0.63916
1480527277081799,0.0727539,-0.762207,0.646973
1480527277104860,0.0800781,-0.750488,0.638184
1480527277127420,0.0805664,-0.747559,0.641113
1480527277141457,0.0708008,-0.764648,0.643066
1480527277165020,0.0698242,-0.765625,0.641113
1480527277187079,0.0737305,-0.751465,0.641113
1480527277217159,0.0825195,-0.749512,0.645508
1480527277224678,0.0771484,-0.763184,0.639648
1480527277247238,0.0771484,-0.776367,0.634766
1480527277261777,0.0742188,-0.75,0.632324
1480527277284839,0.0766602,-0.739258,0.642578
1480527277321938,0.074707,-0.756836,0.643066
1480527277331463,0.0751953,-0.760742,0.64209
1480527277352519,0.074707,-0.763184,0.640137
1480527277368060,0.0800781,-0.750488,0.644531
1480527277397137,0.078125,-0.757324,0.637207
1480527277404657,0.0761719,-0.769043,0.641602
1480527277427718,0.0751953,-0.758301,0.632813
1480527277448273,0.0727539,-0.744141,0.640137
1480527277465318,0.074707,-0.756348,0.635254
1480527277494897,0.0771484,-0.767578,0.644531
1480527277508433,0.0751953,-0.758789,0.640137
1480527277532497,0.0771484,-0.746094,0.639648
1480527277547036,0.0771484,-0.751953,0.640137
1480527277568598,0.0698242,-0.765625,0.640137
1480527277584636,0.0712891,-0.767578,0.648926
1480527277607196,0.081543,-0.749512,0.636719
1480527277628254,0.0805664,-0.744141,0.636719
1480527277644796,0.0786133,-0.760254,0.64209
1480527277667357,0.0756836,-0.770508,0.634277
1480527277688412,0.0786133,-0.75,0.64502
1480527277704955,0.0834961,-0.743164,0.644531
1480527277727516,0.0771484,-0.76416,0.644043
1480527277748572,0.0761719,-0.765625,0.638672
1480527277764615,0.0800781,-0.749023,0.641602
1480527277787175,0.0791016,-0.742676,0.640137
1480527277810236,0.0805664,-0.754883,0.646484
1480527277830790,0.0761719,-0.771484,0.644531
1480527277847836,0.0839844,-0.75293,0.643555
1480527277869895,0.0839844,-0.739746,0.636719
1480527277884936,0.0766602,-0.748535,0.64502
1480527277915015,0.0708008,-0.76123,0.647461
1480527277929553,0.0766602,-0.757324,0.640625
1480527277944640,0.0825195,-0.745117,0.63916
1480527277973170,0.0854492,-0.753906,0.63623
1480527277989714,0.0795898,-0.768066,0.642578
1480527278004258,0.0825195,-0.755859,0.638184
1480527278027313,0.081543,-0.744629,0.638184
1480527278049873,0.0810547,-0.753418,0.645508
1480527278064413,0.0795898,-0.762207,0.648438
1480527278087475,0.0742188,-0.759766,0.641113
1480527278116049,0.0761719,-0.74707,0.64209
1480527278124071,0.0820313,-0.750488,0.641113
1480527278147633,0.0776367,-0.762695,0.645996
1480527278169692,0.0727539,-0.76123,0.638184
1480527278184231,0.081543,-0.747559,0.644531
1480527278207292,0.0844727,-0.750977,0.647949
1480527278229852,0.0839844,-0.76123,0.64209
1480527278243889,0.074707,-0.762695,0.640137
1480527278267452,0.0766602,-0.747559,0.644043
1480527278290013,0.0864258,-0.744629,0.646973
1480527278311068,0.0800781,-0.758301,0.646484
1480527278327111,0.0756836,-0.762207,0.637207
1480527278355688,0.0820313,-0.750977,0.640137
1480527278370727,0.081543,-0.73877,0.63623
1480527278387277,0.0776367,-0.761719,0.643555
1480527278409832,0.0776367,-0.768555,0.639648
1480527278430886,0.0761719,-0.749512,0.643066
1480527278447431,0.081543,-0.743164,0.63916
1480527278469991,0.0839844,-0.756348,0.634277
1480527278491046,0.0708008,-0.76416,0.645996
1480527278507089,0.0791016,-0.752441,0.647949
1480527278529650,0.0766602,-0.745605,0.644531
1480527278550705,0.0820313,-0.749512,0.641602
1480527278567250,0.0786133,-0.768555,0.639648
1480527278589810,0.081543,-0.763672,0.643066
1480527278610866,0.0849609,-0.743164,0.645508
1480527278627409,0.0830078,-0.738281,0.639648
1480527278649970,0.0786133,-0.76416,0.644531
1480527278678545,0.078125,-0.759766,0.639648
1480527278687069,0.0849609,-0.747559,0.647949
1480527278710132,0.0751953,-0.746094,0.635254
1480527278732188,0.0751953,-0.762695,0.650391
1480527278747229,0.0732422,-0.763672,0.641113
1480527278777309,0.0756836,-0.740723,0.646973
1480527278799868,0.0810547,-0.739258,0.64209
1480527278807388,0.0795898,-0.761719,0.641113
1480527278835969,0.0737305,-0.769043,0.642578
1480527278852508,0.0766602,-0.745117,0.637207
1480527278867549,0.0810547,-0.754883,0.635742
1480527278889607,0.074707,-0.751953,0.649414
1480527278912167,0.0776367,-0.773438,0.649902
1480527278926706,0.0810547,-0.748047,0.64209
1480527278955783,0.0805664,-0.739746,0.645508
1480527278972327,0.0791016,-0.753418,0.643066
1480527278986866,0.0673828,-0.770508,0.633789
1480527279009927,0.0776367,-0.759277,0.643066
1480527279032487,0.0888672,-0.741211,0.640137
1480527279046524,0.0854492,-0.754883,0.646973
1480527279069592,0.0693359,-0.760742,0.646973
1480527279093148,0.0776367,-0.752441,0.639648
1480527279106684,0.0766602,-0.737793,0.642578
1480527279129746,0.0810547,-0.749023,0.641602
1480527279152311,0.0742188,-0.758789,0.63916
1480527279166844,0.0791016,-0.759766,0.645508
1480527279197426,0.081543,-0.740234,0.645508
1480527279218488,0.078125,-0.743652,0.646484
1480527279234023,0.0742188,-0.762207,0.649414
1480527279264605,0.0751953,-0.765137,0.640137
1480527279272125,0.0791016,-0.746582,0.643555
1480527279293180,0.0844727,-0.750977,0.643066
1480527279309726,0.078125,-0.757813,0.64502
1480527279332284,0.0742188,-0.756348,0.647461
1480527279353340,0.0795898,-0.745117,0.644531
1480527279369885,0.0771484,-0.744141,0.641602
1480527279392444,0.0771484,-0.76123,0.63916
1480527279413500,0.0756836,-0.764648,0.641602
1480527279429543,0.081543,-0.751953,0.645508
1480527279452106,0.0830078,-0.743164,0.643555
1480527279473159,0.0771484,-0.755859,0.633301
1480527279489703,0.0703125,-0.768066,0.644043
1480527279512264,0.081543,-0.755859,0.647461
1480527279533319,0.0830078,-0.742676,0.635254
1480527279549863,0.0795898,-0.74707,0.639648
1480527279579944,0.0683594,-0.766113,0.64209
1480527279593480,0.0761719,-0.754883,0.646973
1480527279610023,0.0761719,-0.742188,0.643555
1480527279632082,0.0805664,-0.75,0.640137
1480527279653138,0.0756836,-0.768066,0.640137
1480527279670183,0.0771484,-0.758789,0.642578
1480527279692242,0.0795898,-0.748535,0.645508
1480527279714802,0.0771484,-0.746582,0.640625
1480527279729842,0.0761719,-0.753906,0.635742
1480527279752402,0.0771484,-0.76123,0.640137
1480527279774962,0.0810547,-0.749512,0.638184
1480527279790003,0.0820313,-0.753906,0.643555
1480527279812562,0.0751953,-0.765625,0.638672
1480527279849661,0.0737305,-0.768555,0.635742
1480527279852172,0.0795898,-0.744629,0.643066
1480527279872221,0.0761719,-0.744629,0.641113
1480527279894781,0.0834961,-0.762695,0.649414
1480527279917341,0.0766602,-0.765625,0.640137
1480527279932380,0.0766602,-0.75,0.643066
1480527279954941,0.0795898,-0.741699,0.635254
1480527279968978,0.0742188,-0.757324,0.64209
1480527279993045,0.0708008,-0.765625,0.640137
1480527280014600,0.074707,-0.752441,0.646484
1480527280035663,0.0805664,-0.744141,0.641602
1480527280052199,0.0810547,-0.759277,0.642578
1480527280074759,0.0737305,-0.767578,0.635742
1480527280097319,0.074707,-0.750977,0.641113
1480527280112363,0.0800781,-0.738281,0.63916
1480527280135925,0.0810547,-0.755859,0.63623
1480527280155474,0.0766602,-0.763672,0.646484
1480527280172528,0.0737305,-0.75,0.63916
1480527280202106,0.0771484,-0.745605,0.644531
1480527280215643,0.0776367,-0.75293,0.638672
1480527280232186,0.0742188,-0.769043,0.641602
1480527280254746,0.0722656,-0.746094,0.647461
1480527280275802,0.0795898,-0.741211,0.643555
1480527280291845,0.0786133,-0.753906,0.638184
1480527280314907,0.0722656,-0.76123,0.640137
1480527280335963,0.0708008,-0.762695,0.63623
1480527280352507,0.0786133,-0.747559,0.638184
1480527280375067,0.0839844,-0.75293,0.640137
1480527280395621,0.0825195,-0.767578,0.637695
1480527280412166,0.0683594,-0.760742,0.646973
1480527280435728,0.0732422,-0.737793,0.63623
1480527280455781,0.0805664,-0.742676,0.640137
1480527280472327,0.0771484,-0.758789,0.64502
1480527280494887,0.0771484,-0.766113,0.646484
1480527280516442,0.081543,-0.752441,0.643555
1480527280532486,0.0761719,-0.74707,0.637207
1480527280555046,0.0761719,-0.756348,0.647461
1480527280575600,0.0717773,-0.768555,0.642578
1480527280592144,0.078125,-0.748535,0.637207
1480527280614704,0.0825195,-0.736816,0.642578
1480527280637264,0.0766602,-0.762695,0.64502
1480527280651805,0.0751953,-0.774902,0.64502
1480527280674866,0.0761719,-0.740234,0.643066
1480527280697424,0.0791016,-0.741699,0.64209
1480527280712465,0.078125,-0.762695,0.641113
1480527280735529,0.0712891,-0.77002,0.635742
1480527280757083,0.0776367,-0.756836,0.643066
1480527280772123,0.081543,-0.740723,0.644531
1480527280794684,0.0834961,-0.753906,0.637207
1480527280824763,0.0717773,-0.766113,0.642578
1480527280831782,0.0708008,-0.763672,0.636719
1480527280854843,0.0849609,-0.741699,0.641602
1480527280876902,0.0776367,-0.751465,0.646484
1480527280899963,0.0742188,-0.766113,0.637207
1480527280922022,0.0727539,-0.755371,0.644531
1480527280937062,0.081543,-0.744141,0.643555
1480527280951600,0.0820313,-0.748535,0.644043
1480527280974662,0.0795898,-0.76709,0.641113
1480527280997221,0.0751953,-0.76123,0.648438
1480527281011760,0.0756836,-0.744141,0.64209
1480527281035824,0.0834961,-0.75,0.642578
1480527281057882,0.0761719,-0.760254,0.640137
1480527281071419,0.0795898,-0.765137,0.64502
1480527281094981,0.0756836,-0.750977,0.640625
1480527281117541,0.0820313,-0.741211,0.640625
1480527281138597,0.0786133,-0.758301,0.64502
1480527281154640,0.0717773,-0.765625,0.644043
1480527281177201,0.0751953,-0.755859,0.640625
1480527281199761,0.0913086,-0.740723,0.640137
1480527281214800,0.0771484,-0.757324,0.638672
1480527281237361,0.0693359,-0.765137,0.641602
1480527281257914,0.0712891,-0.754395,0.643555
1480527281274961,0.0786133,-0.740234,0.640625
1480527281313062,0.0786133,-0.754883,0.644043
1480527281318577,0.074707,-0.773438,0.641113
1480527281335622,0.0766602,-0.758789,0.646973
1480527281357179,0.0830078,-0.744629,0.640625
1480527281385756,0.0825195,-0.749023,0.641113
1480527281394779,0.0712891,-0.766602,0.64209
1480527281417339,0.0668945,-0.764648,0.639648
1480527281438395,0.0791016,-0.739258,0.642578
1480527281454939,0.0859375,-0.745117,0.641113
1480527281477499,0.0732422,-0.770508,0.636719
1480527281498053,0.0693359,-0.771484,0.638672
1480527281514599,0.081543,-0.730469,0.645996
1480527281537158,0.0795898,-0.749512,0.634766
1480527281558214,0.0742188,-0.768066,0.641113
1480527281574758,0.0742188,-0.764648,0.641113
1480527281597318,0.0776367,-0.747559,0.639648
1480527281627397,0.0820313,-0.744629,0.64502
1480527281635920,0.0756836,-0.76123,0.641113
1480527281657478,0.0693359,-0.76123,0.640137
1480527281679537,0.0771484,-0.753906,0.643555
1480527281694576,0.0844727,-0.744141,0.636719
1480527281717137,0.0825195,-0.759277,0.643555
1480527281739698,0.0771484,-0.768555,0.646484
1480527281754236,0.078125,-0.752441,0.644531
1480527281777629,0.0756836,-0.736328,0.640625
1480527281799856,0.0825195,-0.754883,0.64502
1480527281814396,0.0722656,-0.770996,0.643066
1480527281837958,0.078125,-0.755859,0.644043
1480527281859515,0.081543,-0.743652,0.640137
1480527281880572,0.0800781,-0.765137,0.637207
1480527281897115,0.0727539,-0.776855,0.634277
1480527281925691,0.0712891,-0.75293,0.634277
1480527281934215,0.0756836,-0.736328,0.648438
1480527281957275,0.0771484,-0.754883,0.644531
1480527281980336,0.0722656,-0.77002,0.643555
1480527281993872,0.0776367,-0.756348,0.644043
1480527282017435,0.0771484,-0.74707,0.64502
1480527282039995,0.0844727,-0.750977,0.63916
1480527282054032,0.074707,-0.769531,0.641602
1480527282077595,0.0717773,-0.759277,0.644043
1480527282099654,0.0776367,-0.741211,0.644531
1480527282120710,0.0825195,-0.749023,0.641602
1480527282137755,0.0761719,-0.763672,0.637207
1480527282159814,0.0698242,-0.770996,0.644531
1480527282180870,0.0791016,-0.749023,0.641113
1480527282203430,0.0820313,-0.742676,0.638672
1480527282219974,0.074707,-0.76123,0.650391
1480527282242033,0.0688477,-0.76709,0.63623
1480527282257073,0.0766602,-0.755371,0.645508
1480527282279633,0.0834961,-0.745605,0.639648
1480527282308211,0.0839844,-0.758301,0.638672
1480527282317233,0.0639648,-0.772949,0.635742
1480527282347313,0.078125,-0.756348,0.633789
1480527282362353,0.0825195,-0.738281,0.646484
1480527282377393,0.074707,-0.757813,0.638672
1480527282399956,0.0732422,-0.77002,0.634277
1480527282421009,0.0732422,-0.756348,0.640625
1480527282438054,0.0810547,-0.744141,0.64209
1480527282459612,0.0717773,-0.750977,0.650391
1480527282488187,0.0727539,-0.763672,0.644531
1480527282497211,0.0722656,-0.762207,0.640137
1480527282527291,0.0830078,-0.749512,0.641602
1480527282540827,0.0844727,-0.754883,0.635742
1480527282564892,0.0727539,-0.76416,0.641113
1480527282579933,0.0688477,-0.758789,0.641113
1480527282602491,0.0756836,-0.736328,0.63916
1480527282617031,0.0800781,-0.746094,0.636719
1480527282639591,0.0800781,-0.768066,0.635742
1480527282662150,0.0698242,-0.758789,0.634766
1480527282677191,0.0795898,-0.751465,0.636719
1480527282699750,0.0874023,-0.744629,0.637695
1480527282722310,0.0737305,-0.758301,0.635742
1480527282736849,0.0698242,-0.769531,0.647461
1480527282760413,0.0737305,-0.747559,0.644531
1480527282782470,0.0834961,-0.74707,0.641113
1480527282796507,0.0786133,-0.761719,0.640137
1480527282819569,0.0717773,-0.766113,0.637207
1480527282842129,0.0732422,-0.75293,0.637695
1480527282864690,0.078125,-0.745117,0.64502
1480527282879729,0.0795898,-0.759277,0.644043
1480527282902290,0.0761719,-0.766602,0.649414
1480527282916828,0.0761719,-0.759277,0.635254
1480527282945904,0.0834961,-0.744141,0.63916
1480527282969969,0.0786133,-0.751953,0.634277
1480527282976486,0.0727539,-0.768066,0.637207
1480527283000049,0.0795898,-0.758789,0.641113
1480527283022108,0.078125,-0.745117,0.643066
1480527283043164,0.0820313,-0.752441,0.635742
1480527283059708,0.0703125,-0.769043,0.641113
1480527283082268,0.0717773,-0.763672,0.646973
1480527283103324,0.0766602,-0.747559,0.638184
1480527283119868,0.081543,-0.751465,0.637207
1480527283141926,0.0786133,-0.773926,0.644531
1480527283163484,0.0766602,-0.76123,0.640137
1480527283179526,0.0717773,-0.746094,0.64209
1480527283202087,0.0742188,-0.748047,0.637695
1480527283223142,0.0761719,-0.763672,0.64209
1480527283239687,0.0717773,-0.759766,0.636719
1480527283262247,0.0766602,-0.749512,0.640625
1480527283283303,0.0795898,-0.746094,0.636719
1480527283299847,0.0839844,-0.762207,0.638184
1480527283322408,0.0737305,-0.769043,0.643066
1480527283343462,0.0776367,-0.74707,0.63623
1480527283360008,0.0791016,-0.744629,0.642578
1480527283382066,0.0805664,-0.768555,0.643066
1480527283403121,0.074707,-0.773438,0.636719
1480527283427185,0.0776367,-0.758789,0.64209
1480527283442225,0.0830078,-0.736816,0.640625
1480527283463281,0.0737305,-0.758789,0.640137
1480527283479324,0.0727539,-0.772949,0.643555
1480527283502386,0.0717773,-0.758301,0.640137
1480527283524945,0.0805664,-0.742188,0.637207
1480527283539985,0.0825195,-0.757324,0.643066
1480527283562545,0.0742188,-0.766602,0.63916
1480527283584607,0.0732422,-0.760254,0.640137
1480527283599644,0.0800781,-0.743652,0.640625
1480527283622205,0.0810547,-0.760254,0.633789
1480527283644765,0.078125,-0.763672,0.639648
1480527283659302,0.0727539,-0.754883,0.64502
1480527283682364,0.0776367,-0.742676,0.638184
1480527283704924,0.074707,-0.750488,0.637207
1480527283718961,0.0776367,-0.770996,0.648438
1480527283742525,0.0722656,-0.763672,0.64209
1480527283770600,0.0825195,-0.746582,0.638184
1480527283780625,0.0849609,-0.752441,0.63916
1480527283802183,0.0751953,-0.765625,0.63916
1480527283824743,0.0703125,-0.758789,0.646973
1480527283839282,0.0732422,-0.744141,0.640137
1480527283862343,0.0839844,-0.743164,0.638184
1480527283884903,0.0800781,-0.762695,0.63916
1480527283898942,0.0800781,-0.771484,0.634277
1480527283922503,0.081543,-0.751953,0.63916
1480527283944885,0.0830078,-0.739258,0.640137
1480527283959100,0.0708008,-0.769531,0.640137
1480527283982165,0.0737305,-0.780762,0.631836
1480527284019260,0.0849609,-0.739746,0.646484
1480527284025778,0.0786133,-0.733398,0.648926
1480527284042321,0.081543,-0.773438,0.644043
1480527284064881,0.078125,-0.761719,0.633789
1480527284085937,0.0683594,-0.751953,0.638184
1480527284102482,0.0791016,-0.753906,0.635254
1480527284124540,0.078125,-0.761719,0.646973
1480527284147100,0.0737305,-0.762207,0.639648
1480527284162140,0.0776367,-0.756348,0.634766
1480527284184700,0.0849609,-0.73877,0.637695
1480527284205756,0.081543,-0.765137,0.634277
1480527284230321,0.074707,-0.772461,0.633789
1480527284244860,0.078125,-0.757813,0.643066
1480527284265916,0.0800781,-0.741211,0.639648
1480527284282460,0.0834961,-0.756348,0.635742
1480527284305020,0.078125,-0.769043,0.634277
1480527284325575,0.074707,-0.762695,0.641113
1480527284342119,0.0771484,-0.753418,0.64209
1480527284364679,0.0820313,-0.755371,0.64209
1480527284385739,0.0727539,-0.759766,0.637695
1480527284402279,0.0668945,-0.759766,0.646484
1480527284424839,0.078125,-0.748535,0.63916
1480527284447399,0.0761719,-0.749023,0.637207
1480527284462439,0.0771484,-0.755859,0.63916
1480527284485000,0.0776367,-0.77002,0.636719
1480527284507058,0.0825195,-0.757813,0.630371
1480527284522097,0.0825195,-0.741211,0.638672
1480527284544658,0.0717773,-0.758301,0.636719
1480527284567220,0.0722656,-0.768066,0.641113
1480527284582258,0.0751953,-0.762207,0.638672
1480527284604817,0.0805664,-0.738281,0.641113
1480527284627378,0.0786133,-0.757324,0.633301
1480527284641916,0.074707,-0.772461,0.64502
1480527284664978,0.0673828,-0.760742,0.642578
1480527284687538,0.0786133,-0.743652,0.643555
1480527284701575,0.0805664,-0.763672,0.636719
1480527284724637,0.0800781,-0.769531,0.641602
1480527284747196,0.0751953,-0.762207,0.640625
1480527284768253,0.0751953,-0.743652,0.635742
1480527284785298,0.0854492,-0.756348,0.63916
1480527284807858,0.0751953,-0.769531,0.638672
1480527284821895,0.0761719,-0.765625,0.64209
1480527284844956,0.0791016,-0.743652,0.637207
1480527284867520,0.0810547,-0.750488,0.633789
1480527284881554,0.0737305,-0.768066,0.645508
1480527284904615,0.074707,-0.767578,0.634766
1480527284927175,0.081543,-0.748047,0.637207
1480527284948231,0.0849609,-0.749023,0.635254
1480527284964775,0.0727539,-0.763184,0.640625
1480527284987335,0.0708008,-0.76416,0.641602
1480527285008392,0.0717773,-0.745605,0.639648
1480527285024935,0.078125,-0.74707,0.63623
1480527285047495,0.0869141,-0.759766,0.644531
1480527285068551,0.0717773,-0.771484,0.63916
1480527285084594,0.0756836,-0.763184,0.63623
1480527285107154,0.0810547,-0.744141,0.641602
1480527285128210,0.0742188,-0.753418,0.634277
1480527285144754,0.0727539,-0.775879,0.629883
1480527285167316,0.0810547,-0.756836,0.634277
1480527285195890,0.0776367,-0.742188,0.635742
1480527285204914,0.0800781,-0.76123,0.641113
1480527285227475,0.074707,-0.766602,0.63916
1480527285248529,0.0717773,-0.761719,0.632324
1480527285264573,0.0732422,-0.74707,0.639648
1480527285293149,0.0834961,-0.759277,0.646484
1480527285308188,0.0766602,-0.771973,0.643066
1480527285324733,0.0742188,-0.763672,0.63916
1480527285347794,0.0766602,-0.747559,0.636719
1480527285368350,0.0825195,-0.753418,0.635742
1480527285384892,0.0722656,-0.763672,0.63623
1480527285407452,0.0722656,-0.76709,0.635742
1480527285430013,0.0791016,-0.750488,0.639648
1480527285445250,0.0825195,-0.746582,0.643066
1480527285473128,0.0761719,-0.77002,0.638672
1480527285489671,0.0722656,-0.775879,0.635742
1480527285512232,0.0810547,-0.751953,0.637207
1480527285527271,0.0849609,-0.749512,0.638184
1480527285549834,0.0717773,-0.761719,0.63916
1480527285563869,0.0717773,-0.76416,0.64209
1480527285587434,0.0717773,-0.752441,0.630371
1480527285609992,0.0805664,-0.753906,0.635254
1480527285624031,0.0864258,-0.759766,0.644531
1480527285656114,0.0727539,-0.77002,0.639648
1480527285669650,0.0751953,-0.763672,0.635254
1480527285684193,0.081543,-0.744141,0.629883
1480527285714269,0.0786133,-0.745117,0.633789
1480527285729810,0.0766602,-0.766602,0.64502
1480527285743847,0.074707,-0.769043,0.639648
1480527285767414,0.0776367,-0.748047,0.635742
1480527285789970,0.0810547,-0.744629,0.63916
1480527285804007,0.0703125,-0.769043,0.632813
1480527285827068,0.0756836,-0.764648,0.640625
1480527285849629,0.0756836,-0.745605,0.641602
1480527285864168,0.0849609,-0.75,0.635254
1480527285887732,0.0742188,-0.771973,0.633301
1480527285917310,0.0722656,-0.763672,0.631836
1480527285930844,0.0776367,-0.75293,0.634766
1480527285947389,0.0820313,-0.749023,0.640625
1480527285969949,0.0742188,-0.763184,0.642578
1480527285991005,0.0805664,-0.763672,0.640137
1480527286007048,0.0795898,-0.761719,0.638672
1480527286029607,0.0791016,-0.748535,0.632813
1480527286058184,0.0722656,-0.755859,0.63623
1480527286067211,0.0683594,-0.769531,0.645996
1480527286089768,0.0776367,-0.768555,0.638672
1480527286110824,0.081543,-0.750488,0.633301
1480527286134893,0.0825195,-0.763184,0.634766
1480527286149928,0.0644531,-0.771484,0.641113
1480527286171484,0.0712891,-0.752441,0.640625
1480527286193042,0.0761719,-0.741699,0.638184
1480527286209587,0.0839844,-0.758789,0.63916
1480527286230642,0.0693359,-0.774902,0.640137
1480527286247187,0.0756836,-0.762207,0.635742
1480527286269747,0.0820313,-0.746582,0.638184
1480527286290802,0.0766602,-0.754395,0.63916
1480527286307346,0.0732422,-0.770996,0.632324
1480527286329907,0.0727539,-0.762695,0.637695
1480527286352466,0.0810547,-0.744629,0.638184
1480527286368013,0.0825195,-0.754883,0.638672
1480527286389565,0.0732422,-0.773926,0.637207
1480527286412125,0.0693359,-0.761719,0.641113
1480527286433181,0.0742188,-0.75,0.636719
1480527286449725,0.0795898,-0.750977,0.63916
1480527286472286,0.0766602,-0.767578,0.638672
1480527286486825,0.0766602,-0.777832,0.631836
1480527286509886,0.0800781,-0.750488,0.633789
1480527286532447,0.0830078,-0.750977,0.631348
1480527286546483,0.0761719,-0.762695,0.631836
1480527286570045,0.0664063,-0.780273,0.641113
1480527286592107,0.0854492,-0.751465,0.63623
1480527286606643,0.0795898,-0.73877,0.640137
1480527286629704,0.0751953,-0.768555,0.632813
1480527286652264,0.0771484,-0.774902,0.638184
1480527286666807,0.0698242,-0.759277,0.637207
1480527286689864,0.0776367,-0.742676,0.637695
1480527286712424,0.0800781,-0.759277,0.638184
1480527286726461,0.0727539,-0.766113,0.639648
1480527286750024,0.0703125,-0.760742,0.642578
1480527286772083,0.0791016,-0.747559,0.634766
1480527286786621,0.0771484,-0.753906,0.643066
1480527286809683,0.0756836,-0.766602,0.640625
1480527286832242,0.0717773,-0.768555,0.633301
1480527286853298,0.0844727,-0.752441,0.635254
1480527286869843,0.0830078,-0.754395,0.633789
1480527286892402,0.0732422,-0.765625,0.640137
1480527286913458,0.0708008,-0.758301,0.638672
1480527286930003,0.0717773,-0.73877,0.643066
1480527286952061,0.0830078,-0.752441,0.636719
1480527286973117,0.0805664,-0.766602,0.63623
1480527286990162,0.0761719,-0.770996,0.63916
1480527287012222,0.0756836,-0.752441,0.637695
1480527287033278,0.0791016,-0.75293,0.640137
1480527287049822,0.078125,-0.762207,0.641602
1480527287072383,0.0703125,-0.767578,0.641113
1480527287093437,0.078125,-0.751953,0.644043
1480527287109981,0.0834961,-0.749512,0.637695
1480527287132040,0.0800781,-0.755859,0.639648
1480527287154600,0.0737305,-0.768066,0.63623
1480527287175656,0.0742188,-0.758301,0.638672
1480527287192200,0.0766602,-0.748047,0.641113
1480527287213256,0.0756836,-0.760254,0.638672
1480527287229799,0.0751953,-0.77002,0.638184
1480527287252360,0.0737305,-0.760254,0.635254
1480527287273415,0.0834961,-0.750488,0.630859
1480527287289960,0.0756836,-0.757813,0.636719
1480527287312019,0.0742188,-0.762207,0.635742
1480527287335081,0.0742188,-0.755371,0.641602
1480527287349621,0.0776367,-0.75,0.64209
1480527287372180,0.074707,-0.762207,0.635254
1480527287394739,0.078125,-0.759766,0.63623
1480527287409780,0.0727539,-0.759277,0.640625
1480527287432340,0.0756836,-0.748047,0.642578
1480527287454899,0.081543,-0.754883,0.638184
1480527287468936,0.0732422,-0.76709,0.639648
1480527287491998,0.0756836,-0.768066,0.641113
1480527287514557,0.0766602,-0.747559,0.640137
1480527287529098,0.0800781,-0.750977,0.637207
1480527287560179,0.0761719,-0.764648,0.640625
1480527287574718,0.0766602,-0.768555,0.638672
1480527287580232,0.074707,-0.751953,0.63623
1480527287596776,0.0795898,-0.741699,0.631836
1480527287627859,0.0800781,-0.765625,0.640137
1480527287639891,0.0722656,-0.769043,0.640625
1480527287656435,0.081543,-0.754395,0.63623
1480527287677490,0.0869141,-0.755859,0.63916
1480527287700052,0.0786133,-0.759766,0.632813
1480527287716598,0.0693359,-0.76709,0.640625
1480527287737651,0.0688477,-0.753906,0.644043
1480527287769736,0.0805664,-0.744141,0.63916
1480527287776755,0.0805664,-0.755371,0.638672
1480527287797810,0.0761719,-0.771484,0.637207
1480527287821374,0.0771484,-0.759277,0.642578
1480527287837417,0.0825195,-0.747559,0.638184
1480527287866494,0.081543,-0.754883,0.640625
1480527287880029,0.0717773,-0.765137,0.639648
1480527287898078,0.0732422,-0.763184,0.643066
1480527287917632,0.0820313,-0.745605,0.64209
1480527287940190,0.0839844,-0.755371,0.637695
1480527287958238,0.0722656,-0.769531,0.640625
1480527287977789,0.0722656,-0.76709,0.641602
1480527288000353,0.074707,-0.743164,0.641113
1480527288018899,0.0786133,-0.748047,0.635742
1480527288037448,0.0756836,-0.764648,0.635254
1480527288060009,0.074707,-0.769531,0.637207
1480527288091592,0.0786133,-0.75,0.634277
1480527288097608,0.0869141,-0.745117,0.635254
1480527288120168,0.0761719,-0.757324,0.640137
1480527288142728,0.0756836,-0.775391,0.638672
1480527288157768,0.0761719,-0.752441,0.641113
1480527288183838,0.0825195,-0.749023,0.633789
1480527288202387,0.0820313,-0.755371,0.638184
1480527288218931,0.0761719,-0.773926,0.644043
1480527288239987,0.0771484,-0.758301,0.646484
1480527288262547,0.0791016,-0.737305,0.636719
1480527288277587,0.0751953,-0.751953,0.646973
1480527288300148,0.0732422,-0.766113,0.643066
1480527288322707,0.0717773,-0.753906,0.638672
1480527288337747,0.0776367,-0.739258,0.635742
1480527288360307,0.081543,-0.761719,0.637207
1480527288382366,0.0771484,-0.775879,0.638672
1480527288397405,0.0805664,-0.757324,0.632813
1480527288419966,0.0756836,-0.744141,0.640137
1480527288442525,0.0786133,-0.748047,0.642578
1480527288457566,0.0737305,-0.761719,0.638672
1480527288480125,0.0737305,-0.760254,0.63623
1480527288502686,0.0830078,-0.748047,0.638184
1480527288520734,0.0864258,-0.755371,0.633789
1480527288540286,0.0786133,-0.765625,0.639648
1480527288563849,0.0712891,-0.768066,0.641602
1480527288577385,0.0786133,-0.743164,0.643066
1480527288599947,0.0766602,-0.746094,0.637695
1480527288622504,0.0737305,-0.767578,0.635742
1480527288637545,0.078125,-0.757813,0.644043
1480527288660106,0.0776367,-0.749512,0.636719
1480527288691187,0.0830078,-0.749512,0.641602
1480527288697704,0.0761719,-0.756348,0.641602
1480527288720264,0.0678711,-0.770508,0.635742
1480527288742824,0.0751953,-0.760742,0.637695
1480527288757364,0.081543,-0.747559,0.641113
1480527288779923,0.0766602,-0.784668,0.630371
1480527288802483,0.0874023,-0.743164,0.643066
1480527288819028,0.0761719,-0.750977,0.646484
1480527288840083,0.081543,-0.761719,0.63623
1480527288862648,0.0830078,-0.758301,0.621582
1480527288879188,0.0786133,-0.766113,0.640137
1480527288903252,0.0771484,-0.754395,0.638672
1480527288930824,0.0805664,-0.75293,0.644531
1480527288938846,0.0795898,-0.75,0.638672
1480527288967424,0.074707,-0.764648,0.635742
1480527288982462,0.0654297,-0.772949,0.640137
1480527288999006,0.0795898,-0.758301,0.634766
1480527289020062,0.0820313,-0.75,0.634277
1480527289042622,0.074707,-0.77002,0.644531
1480527289059166,0.0732422,-0.766602,0.641113
1480527289083231,0.0761719,-0.748047,0.636719
1480527289110803,0.0800781,-0.74707,0.630859
1480527289119326,0.0766602,-0.762695,0.636719
1480527289139881,0.078125,-0.766602,0.641113
1480527289162441,0.0820313,-0.754883,0.639648
1480527289178985,0.0820313,-0.754395,0.633789
1480527289200041,0.0771484,-0.759277,0.635254
1480527289222601,0.0678711,-0.77002,0.639648
1480527289240649,0.0844727,-0.753418,0.646484
1480527289260201,0.0825195,-0.747559,0.640137
1480527289290281,0.0791016,-0.765137,0.635742
1480527289300309,0.0742188,-0.775391,0.630859
1480527289319860,0.074707,-0.751465,0.63623
1480527289342419,0.0805664,-0.740723,0.634277
1480527289360468,0.0766602,-0.756836,0.637695
1480527289380019,0.0708008,-0.774902,0.634766
1480527289404084,0.0771484,-0.757324,0.643555
1480527289421131,0.0849609,-0.750488,0.629883
1480527289440179,0.0795898,-0.755859,0.628906
1480527289462739,0.0722656,-0.766602,0.632324
1480527289485299,0.0751953,-0.76416,0.637695
1480527289500341,0.0820313,-0.748047,0.638184
1480527289525407,0.0825195,-0.743652,0.639648
1480527289544958,0.0751953,-0.763184,0.632324
1480527289561503,0.0727539,-0.767578,0.639648
1480527289582559,0.0761719,-0.751465,0.637207
1480527289605118,0.0830078,-0.744141,0.641602
1480527289621663,0.0756836,-0.768555,0.63916
1480527289642718,0.0737305,-0.775391,0.634277
1480527289665280,0.0800781,-0.746094,0.643066
1480527289680318,0.0805664,-0.750488,0.636719
1480527289702376,0.0717773,-0.760254,0.636719
1480527289724936,0.0722656,-0.768066,0.632324
1480527289739977,0.0703125,-0.756348,0.640625
1480527289770057,0.0820313,-0.749023,0.63916
1480527289785096,0.0810547,-0.760254,0.64209
1480527289809161,0.0761719,-0.775391,0.635254
1480527289822700,0.0717773,-0.761719,0.631836
1480527289845366,0.0839844,-0.746094,0.64209
1480527289861802,0.0791016,-0.760742,0.636719
1480527289882356,0.0742188,-0.76416,0.636719
1480527289916449,0.074707,-0.760254,0.644531
1480527289927476,0.0810547,-0.74707,0.644043
1480527289942515,0.074707,-0.752441,0.632324
1480527289965076,0.0708008,-0.768555,0.638672
1480527289981620,0.0722656,-0.76709,0.643066
1480527290002676,0.0800781,-0.744141,0.638672
1480527290025235,0.0791016,-0.749512,0.63623
1480527290041780,0.0786133,-0.763672,0.636719
1480527290062836,0.0683594,-0.785645,0.634277
1480527290084894,0.081543,-0.742676,0.633789
1480527290101439,0.081543,-0.744629,0.634277
1480527290122496,0.0874023,-0.760254,0.639648
1480527290145206,0.0722656,-0.772949,0.634766
1480527290163102,0.0771484,-0.752441,0.633789
1480527290182655,0.0776367,-0.737793,0.634277
1480527290205214,0.0717773,-0.767578,0.645996
1480527290230281,0.0712891,-0.766113,0.644043
1480527290242814,0.0722656,-0.751953,0.641113
1480527290266378,0.0849609,-0.745605,0.642578
1480527290287433,0.0791016,-0.772461,0.647949
1480527290302473,0.0756836,-0.774902,0.638184
1480527290332557,0.0751953,-0.745605,0.64209
1480527290343081,0.0766602,-0.73584,0.640137
1480527290362633,0.0839844,-0.762207,0.633301
1480527290392714,0.0727539,-0.774902,0.635742
1480527290403241,0.0742188,-0.763672,0.638672
1480527290422794,0.0874023,-0.742676,0.642578
1480527290444852,0.0805664,-0.755371,0.636719
1480527290462900,0.0712891,-0.779785,0.636719
1480527290482453,0.0703125,-0.770996,0.634766
1480527290505011,0.0952148,-0.723633,0.637695
1480527290539103,0.0742188,-0.750977,0.64209
1480527290544116,0.0791016,-0.77832,0.630371
1480527290565172,0.0771484,-0.766602,0.640137
1480527290583722,0.0732422,-0.740723,0.638184
1480527290602772,0.078125,-0.749512,0.635742
1480527290624831,0.0751953,-0.770508,0.63623
1480527290647390,0.0742188,-0.769531,0.640625
1480527290663935,0.0766602,-0.751953,0.637695
1480527290684991,0.0791016,-0.748047,0.638184
1480527290703038,0.078125,-0.763672,0.635254
1480527290724095,0.0742188,-0.768555,0.643066
1480527290745150,0.0786133,-0.755371,0.633301
1480527290763199,0.0854492,-0.740723,0.642578
1480527290784254,0.0805664,-0.76123,0.631836
1480527290805310,0.0751953,-0.771973,0.637207
1480527290822859,0.0722656,-0.753418,0.642578
1480527290843914,0.0795898,-0.737793,0.640625
1480527290864970,0.0742188,-0.759277,0.635742
1480527290883020,0.0766602,-0.775391,0.634277
1480527290904073,0.0756836,-0.749512,0.641113
1480527290925129,0.0834961,-0.753906,0.637207
1480527290943177,0.0805664,-0.763672,0.628906
1480527290964233,0.0766602,-0.76709,0.63916
1480527290985290,0.0708008,-0.753906,0.639648
1480527291002837,0.0786133,-0.743164,0.63623
1480527291023893,0.0805664,-0.754395,0.636719
1480527291052468,0.0756836,-0.771973,0.636719
1480527291067508,0.0761719,-0.769531,0.641602
1480527291091572,0.0834961,-0.750977,0.634277
1480527291105108,0.0830078,-0.751953,0.63916
1480527291127668,0.074707,-0.765625,0.640625
1480527291145716,0.0683594,-0.765625,0.645996
1480527291165269,0.0864258,-0.748047,0.641113
1480527291190335,0.0776367,-0.752441,0.638184
1480527291205376,0.0795898,-0.766602,0.640137
1480527291232448,0.0756836,-0.765137,0.64209
1480527291247487,0.0756836,-0.750977,0.638184
1480527291265536,0.0844727,-0.744629,0.637695
1480527291285087,0.0761719,-0.766602,0.641602
1480527291307647,0.0703125,-0.773438,0.637207
1480527291325696,0.0795898,-0.754395,0.640625
1480527291345246,0.0830078,-0.746582,0.631836
1480527291376330,0.0751953,-0.762207,0.631836
1480527291385354,0.0732422,-0.770996,0.640137
1480527291408415,0.0820313,-0.751953,0.637695
1480527291427465,0.0864258,-0.744629,0.639648
1480527291445514,0.0849609,-0.751953,0.641602
1480527291468074,0.0683594,-0.769043,0.637207
1480527291487626,0.0722656,-0.763184,0.638672
1480527291505674,0.0800781,-0.744141,0.64209
1480527291525226,0.0771484,-0.753906,0.632813
1480527291547786,0.0761719,-0.771484,0.637695
1480527291572853,0.074707,-0.775879,0.639648
1480527291584884,0.0825195,-0.751465,0.636719
1480527291607444,0.0732422,-0.750977,0.63916
1480527291625493,0.0727539,-0.765625,0.63623
1480527291648053,0.0708008,-0.765625,0.644531
1480527291667605,0.0795898,-0.744629,0.640625
1480527291685652,0.0825195,-0.754395,0.634277
1480527291712724,0.0805664,-0.773438,0.639648
1480527291727764,0.0712891,-0.768555,0.637207
1480527291745311,0.0737305,-0.74707,0.637207
1480527291766870,0.078125,-0.74707,0.637207
1480527291787423,0.0732422,-0.772461,0.634277
1480527291809983,0.0805664,-0.763184,0.639648
1480527291826527,0.0727539,-0.753418,0.642578
1480527291855103,0.0786133,-0.749023,0.633789
1480527291865635,0.0805664,-0.75293,0.638672
1480527291886687,0.0703125,-0.772949,0.636719
1480527291907746,0.0742188,-0.762207,0.643066
1480527291925290,0.0795898,-0.746582,0.632324
1480527291946346,0.0795898,-0.75293,0.633789
1480527291967402,0.0761719,-0.773438,0.638184
1480527291985451,0.0791016,-0.766113,0.633301
1480527292006506,0.0795898,-0.739746,0.633789
1480527292027561,0.0820313,-0.753418,0.63916
1480527292045991,0.078125,-0.772949,0.636719
1480527292068170,0.0805664,-0.758301,0.635742
1480527292087721,0.0820313,-0.741211,0.634766
1480527292105770,0.078125,-0.750977,0.632324
1480527292132843,0.0708008,-0.769043,0.635254
1480527292147380,0.0717773,-0.764648,0.641113
1480527292165428,0.0776367,-0.748535,0.643555
1480527292187988,0.0849609,-0.751465,0.638672
1480527292207541,0.0830078,-0.771484,0.635742
1480527292225589,0.0751953,-0.773438,0.640625
1480527292248149,0.0703125,-0.755859,0.63916
1480527292275221,0.0825195,-0.736816,0.629883
1480527292285248,0.0771484,-0.757813,0.640625
1480527292307808,0.0737305,-0.769043,0.637695
1480527292327861,0.0805664,-0.757324,0.63623
1480527292345408,0.081543,-0.745605,0.638672
1480527292383010,0.0805664,-0.758789,0.638672
1480527292387519,0.0683594,-0.774902,0.641113
1480527292405567,0.0791016,-0.756348,0.641113
1480527292428127,0.0820313,-0.742188,0.638184
1480527292447680,0.0795898,-0.760254,0.632324
1480527292477760,0.0688477,-0.788574,0.63916
1480527292487786,0.0717773,-0.771973,0.635254
1480527292507338,0.0883789,-0.720703,0.631348
1480527292529898,0.0717773,-0.748047,0.645508
1480527292547947,0.074707,-0.797363,0.644531
1480527292567498,0.0791016,-0.766113,0.632813
1480527292590058,0.0786133,-0.744141,0.637695
1480527292608108,0.0805664,-0.751465,0.631348
1480527292629162,0.0795898,-0.773438,0.638184
1480527292650218,0.0756836,-0.764648,0.635254
1480527292668266,0.078125,-0.745117,0.640137
1480527292690325,0.0839844,-0.75,0.641113
1480527292709878,0.0756836,-0.771973,0.63916
1480527292727925,0.0717773,-0.769531,0.63916
1480527292748983,0.0786133,-0.745117,0.638184
1480527292770037,0.0800781,-0.740234,0.637695
1480527292788085,0.0727539,-0.762207,0.639648
1480527292809141,0.0703125,-0.769531,0.638184
1480527292830196,0.0708008,-0.753906,0.64502
1480527292855264,0.0834961,-0.745117,0.636719
1480527292869302,0.0786133,-0.763184,0.631836
1480527292891359,0.0698242,-0.772949,0.634277
1480527292907904,0.0776367,-0.755371,0.640625
1480527292928959,0.0776367,-0.739746,0.640625
1480527292950015,0.0791016,-0.755859,0.634766
1480527292968063,0.0756836,-0.769043,0.640137
1480527292990624,0.0786133,-0.763672,0.640625
1480527293010175,0.0795898,-0.758301,0.634277
1480527293034239,0.0859375,-0.755371,0.636719
1480527293050283,0.0703125,-0.760254,0.640137
1480527293071339,0.074707,-0.76123,0.638184
1480527293092395,0.0859375,-0.749512,0.639648
1480527293112219,0.0727539,-0.766602,0.629395
1480527293129994,0.0761719,-0.759766,0.641113
1480527293148043,0.0683594,-0.755859,0.63916
1480527293183637,0.0810547,-0.746582,0.634277
1480527293190154,0.0834961,-0.758789,0.643555
1480527293215725,0.0712891,-0.775879,0.635742
1480527293237782,0.0742188,-0.770996,0.637695
1480527293250314,0.0830078,-0.745117,0.636719
1480527293267861,0.0825195,-0.75,0.625488
1480527293290421,0.0820313,-0.766602,0.636719
1480527293312981,0.0761719,-0.764648,0.636719
1480527293328021,0.0727539,-0.758789,0.639648
1480527293350582,0.0864258,-0.749023,0.637695
1480527293370133,0.0786133,-0.758789,0.63916
1480527293392694,0.0761719,-0.773926,0.640137
1480527293415256,0.0751953,-0.751953,0.634277
1480527293431296,0.0810547,-0.743164,0.634277
1480527293461376,0.0771484,-0.757813,0.642578
1480527293483435,0.0678711,-0.766602,0.635742
1480527293491456,0.078125,-0.760254,0.63623
1480527293512513,0.0825195,-0.75,0.629883
1480527293530560,0.0859375,-0.76123,0.634766
1480527293551616,0.0756836,-0.773438,0.63623
1480527293568160,0.0678711,-0.762207,0.637207
1480527293590721,0.0776367,-0.743652,0.641602
1480527293611463,0.0786133,-0.753418,0.640625
1480527293627818,0.0756836,-0.771484,0.631836
1480527293650380,0.0771484,-0.768066,0.640625
1480527293671435,0.0810547,-0.75,0.634766
1480527293688480,0.0820313,-0.75293,0.635742
1480527293710538,0.0712891,-0.770508,0.640137
1480527293731594,0.0717773,-0.76709,0.63623
1480527293748139,0.0834961,-0.753906,0.640137
1480527293770700,0.0825195,-0.752441,0.637207
1480527293791253,0.0742188,-0.762207,0.635254
1480527293807798,0.0766602,-0.763184,0.641602
1480527293837877,0.0732422,-0.750488,0.630859
1480527293851415,0.081543,-0.751953,0.641602
1480527293867958,0.0791016,-0.763672,0.646973
1480527293903052,0.0698242,-0.77832,0.635742
1480527293911857,0.0844727,-0.750488,0.64209
1480527293928118,0.0830078,-0.746094,0.632324
1480527293950677,0.0786133,-0.76123,0.634766
1480527293978797,0.0717773,-0.772461,0.63623
1480527293992833,0.0761719,-0.75293,0.638672
1480527294010380,0.0834961,-0.755859,0.640625
1480527294037451,0.0849609,-0.756348,0.633789
1480527294052491,0.0698242,-0.761719,0.637207
1480527294070540,0.0698242,-0.76123,0.642578
1480527294093101,0.0795898,-0.75293,0.643555
1480527294112652,0.0805664,-0.753418,0.644043
1480527294130700,0.074707,-0.76123,0.643555
1480527294152759,0.0761719,-0.773438,0.632813
1480527294172310,0.0800781,-0.755859,0.639648
1480527294190358,0.0810547,-0.753906,0.63623
1480527294212918,0.0732422,-0.764648,0.639648
1480527294232472,0.0722656,-0.753418,0.645508
1480527294250518,0.078125,-0.744141,0.634766
1480527294273079,0.0810547,-0.756348,0.638672
1480527294292631,0.0810547,-0.773926,0.635254
1480527294324716,0.078125,-0.764648,0.636719
1480527294333239,0.0766602,-0.753906,0.63916
1480527294352290,0.078125,-0.748047,0.641113
1480527294369836,0.0708008,-0.759277,0.640625
1480527294392395,0.0771484,-0.755859,0.643555
1480527294420973,0.0722656,-0.76416,0.640625
1480527294429495,0.0786133,-0.747559,0.630859
1480527294452055,0.0732422,-0.753418,0.644043
1480527294473110,0.0742188,-0.767578,0.641602
1480527294489655,0.0776367,-0.760742,0.638672
1480527294512215,0.0791016,-0.747559,0.632324
1480527294534775,0.0776367,-0.756348,0.64209
1480527294549815,0.074707,-0.773438,0.638672
1480527294572375,0.0751953,-0.761719,0.639648
1480527294594433,0.081543,-0.75293,0.636719
1480527294609473,0.0776367,-0.755371,0.641113
1480527294632036,0.0756836,-0.769043,0.640625
1480527294653089,0.0776367,-0.766113,0.638184
1480527294669634,0.0820313,-0.739746,0.64502
1480527294699713,0.0786133,-0.758789,0.640625
1480527294713249,0.0786133,-0.76123,0.640625
1480527294729793,0.0673828,-0.76416,0.637695
1480527294752354,0.0776367,-0.751953,0.649414
1480527294774412,0.0810547,-0.759277,0.635254
1480527294796972,0.0805664,-0.767578,0.638184
1480527294812151,0.0756836,-0.762695,0.63916
1480527294833068,0.0717773,-0.745605,0.637207
1480527294849612,0.0795898,-0.747559,0.644531
1480527294872173,0.0771484,-0.76709,0.636719
1480527294894732,0.078125,-0.766113,0.639648
1480527294909271,0.078125,-0.75,0.640137
1480527294932332,0.0839844,-0.746094,0.637695
1480527294954892,0.0795898,-0.771484,0.637695
1480527294984470,0.0708008,-0.762207,0.634766
1480527294991991,0.0751953,-0.746094,0.640625
1480527295014552,0.0834961,-0.744141,0.639648
1480527295029089,0.0771484,-0.764648,0.645508
1480527295052150,0.0708008,-0.769043,0.642578
1480527295091254,0.0732422,-0.756348,0.643555
1480527295095766,0.0825195,-0.746094,0.634766
1480527295112502,0.0800781,-0.759766,0.645996
1480527295134872,0.0742188,-0.771973,0.641113
1480527295148911,0.0737305,-0.757813,0.64209
1480527295171970,0.0820313,-0.743652,0.632324
1480527295194529,0.0839844,-0.751953,0.636719
1480527295209068,0.074707,-0.771484,0.642578
1480527295232133,0.0712891,-0.762695,0.637695
1480527295255192,0.0800781,-0.740234,0.644043
1480527295269229,0.0810547,-0.748047,0.634277
1480527295292289,0.0756836,-0.771484,0.640137
1480527295314850,0.0751953,-0.76709,0.636719
1480527295328887,0.0737305,-0.747559,0.641602
1480527295351948,0.0800781,-0.751465,0.640137
1480527295375010,0.0786133,-0.772461,0.635742
1480527295395564,0.0737305,-0.771484,0.640625
1480527295412611,0.0737305,-0.751465,0.641602
1480527295435671,0.0727539,-0.742676,0.639648
1480527295455724,0.0786133,-0.760254,0.637695
1480527295472268,0.074707,-0.771973,0.645996
1480527295502348,0.0795898,-0.750977,0.637695
1480527295515887,0.0839844,-0.744141,0.631348
1480527295532431,0.0854492,-0.759766,0.634277
1480527295555489,0.0761719,-0.773438,0.634766
1480527295575543,0.0683594,-0.758301,0.640137
1480527295592087,0.0791016,-0.743164,0.635254
1480527295614648,0.0795898,-0.754883,0.637207
1480527295636706,0.0756836,-0.775879,0.63916
1480527295652247,0.0737305,-0.758789,0.640137
1480527295674807,0.0800781,-0.744141,0.640625
1480527295696364,0.0771484,-0.749023,0.634277
1480527295712051,0.0742188,-0.76709,0.63916
1480527295735469,0.0737305,-0.763672,0.635254
1480527295755522,0.0825195,-0.746094,0.643066
1480527295772069,0.0849609,-0.749023,0.63623
1480527295794626,0.078125,-0.767578,0.637207
1480527295815683,0.074707,-0.768555,0.640137
1480527295832228,0.081543,-0.74707,0.63623
1480527295855788,0.0820313,-0.738281,0.637695
1480527295883362,0.0766602,-0.767578,0.631836
1480527295892385,0.0698242,-0.766602,0.633789
1480527295914445,0.0756836,-0.750488,0.637207
1480527295937004,0.0825195,-0.744141,0.638672
1480527295952044,0.0756836,-0.767578,0.636719
1480527295974604,0.0751953,-0.776367,0.632813
1480527295997164,0.0791016,-0.759277,0.641113
1480527296011706,0.0756836,-0.737793,0.636719
1480527296035769,0.0810547,-0.752441,0.642578
1480527296064845,0.0727539,-0.76709,0.633789
1480527296079885,0.0766602,-0.760254,0.634277
1480527296094423,0.0849609,-0.750488,0.634277
1480527296116984,0.0786133,-0.756348,0.634766
1480527296131522,0.0742188,-0.770996,0.642578
1480527296162103,0.0727539,-0.766602,0.638184
1480527296177144,0.0771484,-0.749512,0.63623
1480527296191682,0.0820313,-0.751953,0.636719
1480527296214744,0.0766602,-0.771484,0.634277
1480527296237305,0.078125,-0.765625,0.641113
1480527296251340,0.0771484,-0.746582,0.642578
1480527296274904,0.0786133,-0.746582,0.635742
1480527296296962,0.0766602,-0.770996,0.644043
1480527296318018,0.0737305,-0.773438,0.63916
1480527296334565,0.0844727,-0.747559,0.642578
1480527296364643,0.0800781,-0.745605,0.640625
1480527296379181,0.0844727,-0.753418,0.64209
1480527296394722,0.0610352,-0.797852,0.619141
1480527296416781,0.0791016,-0.75293,0.642578
1480527296438338,0.0874023,-0.726563,0.647949
1480527296460898,0.0786133,-0.758301,0.645996
1480527296477442,0.0761719,-0.775879,0.63623
1480527296505517,0.0722656,-0.756348,0.630371
1480527296514541,0.0761719,-0.739746,0.637207
1480527296537101,0.0751953,-0.760742,0.648438
1480527296558156,0.0712891,-0.779785,0.646484
1480527296574701,0.0839844,-0.756836,0.639648
1480527296604781,0.0820313,-0.740723,0.639648
1480527296620324,0.0761719,-0.759277,0.640137
1480527296634861,0.0732422,-0.767578,0.64209
1480527296656919,0.0688477,-0.754883,0.637695
1480527296679479,0.081543,-0.73877,0.641113
1480527296694519,0.0820313,-0.763184,0.639648
1480527296717086,0.0800781,-0.779785,0.634766
1480527296739639,0.0751953,-0.759766,0.634277
1480527296754679,0.0737305,-0.745605,0.640137
1480527296777741,0.0795898,-0.754883,0.640137
1480527296799799,0.0751953,-0.774902,0.635742
1480527296813838,0.0776367,-0.766602,0.637207
1480527296837400,0.0834961,-0.741211,0.643066
1480527296859458,0.0800781,-0.753418,0.639648
1480527296874498,0.0737305,-0.766113,0.635742
1480527296897058,0.0693359,-0.762695,0.640137
1480527296925634,0.074707,-0.753418,0.644043
1480527296934158,0.0883789,-0.753418,0.643066
1480527296957219,0.0810547,-0.761719,0.633789
1480527296979779,0.0795898,-0.761719,0.633301
1480527296993816,0.074707,-0.757324,0.634277
1480527297024898,0.0800781,-0.750488,0.633301
1480527297039437,0.0820313,-0.763672,0.640137
1480527297054477,0.0737305,-0.765137,0.641113
1480527297084557,0.0766602,-0.749023,0.637207
1480527297099597,0.0810547,-0.75,0.631348
1480527297122158,0.0795898,-0.764648,0.638184
1480527297137197,0.078125,-0.754395,0.650879
1480527297167277,0.074707,-0.757324,0.641602
1480527297173794,0.0800781,-0.75293,0.628906
1480527297197358,0.081543,-0.763672,0.638184
1480527297219415,0.0791016,-0.772949,0.636719
1480527297233955,0.0703125,-0.759277,0.641113
1480527297264536,0.0805664,-0.746582,0.639648
1480527297279575,0.0820313,-0.75,0.637207
1480527297300632,0.078125,-0.771484,0.637207
1480527297323191,0.0805664,-0.76709,0.631348
1480527297339736,0.0786133,-0.75293,0.644531
1480527297360792,0.0830078,-0.749023,0.638672
1480527297377336,0.0776367,-0.76416,0.636719
1480527297399394,0.0737305,-0.77002,0.630859
1480527297420953,0.0825195,-0.741211,0.640625
1480527297444514,0.0771484,-0.749023,0.634766
1480527297466074,0.0761719,-0.762695,0.63916
1480527297480610,0.0761719,-0.769043,0.637207
1480527297504674,0.0795898,-0.75293,0.635254
1480527297519717,0.078125,-0.749512,0.645508
1480527297540771,0.0766602,-0.762695,0.640137
1480527297557821,0.0761719,-0.769531,0.640625
1480527297579378,0.0761719,-0.755859,0.636719
1480527297617480,0.0874023,-0.739746,0.637695
1480527297619987,0.0810547,-0.754883,0.634766
1480527297641043,0.0771484,-0.76709,0.639648
1480527297660595,0.0786133,-0.753906,0.640625
1480527297684659,0.0844727,-0.743652,0.637207
1480527297699699,0.0859375,-0.754883,0.633301
1480527297722258,0.0737305,-0.766113,0.640625
1480527297745320,0.074707,-0.762695,0.637695
1480527297759858,0.0791016,-0.744629,0.641113
1480527297782422,0.0786133,-0.749512,0.63916
1480527297803474,0.0751953,-0.766113,0.639648
1480527297827038,0.0751953,-0.769531,0.632813
1480527297850100,0.081543,-0.75,0.638184
1480527297857117,0.0771484,-0.75,0.63623
1480527297885693,0.0727539,-0.76416,0.641602
1480527297909757,0.0756836,-0.761719,0.637695
1480527297916777,0.0776367,-0.750488,0.642578
1480527297940841,0.0834961,-0.748047,0.635254
1480527297962398,0.0839844,-0.765625,0.641113
1480527297976435,0.0756836,-0.77002,0.635742
1480527298014537,0.078125,-0.751465,0.633789
1480527298022056,0.078125,-0.743652,0.636719
1480527298036595,0.0800781,-0.764648,0.639648
1480527298059656,0.0771484,-0.771484,0.639648
1480527298088233,0.074707,-0.754883,0.638672
1480527298104776,0.0820313,-0.739746,0.64502
1480527298127336,0.0761719,-0.756836,0.635742
1480527298142377,0.0712891,-0.768555,0.64209
1480527298164435,0.0751953,-0.758301,0.639648
1480527298180478,0.0810547,-0.744629,0.643066
1480527298208054,0.0820313,-0.74707,0.637207
1480527298230611,0.0791016,-0.770508,0.642578
1480527298239635,0.0761719,-0.766113,0.639648
1480527298262195,0.0810547,-0.741699,0.640625
1480527298283752,0.0839844,-0.746094,0.640137
1480527298301299,0.074707,-0.765137,0.640137
1480527298322857,0.0756836,-0.76709,0.644043
1480527298343410,0.0805664,-0.748047,0.640625
1480527298359955,0.0791016,-0.748047,0.634277
1480527298382017,0.078125,-0.766113,0.642578
1480527298412094,0.0727539,-0.772461,0.644043
1480527298419614,0.0795898,-0.760254,0.640625
1480527298449693,0.0844727,-0.746582,0.637695
1480527298463229,0.0737305,-0.761719,0.638184
1480527298479775,0.0673828,-0.76709,0.637207
1480527298502334,0.0737305,-0.745605,0.640137
1480527298523390,0.0839844,-0.749512,0.64209
1480527298539432,0.0820313,-0.761719,0.64209
1480527298561993,0.0742188,-0.773926,0.63916
1480527298590568,0.078125,-0.761719,0.637207
1480527298599592,0.0805664,-0.743164,0.639648
1480527298622153,0.0805664,-0.754395,0.636719
1480527298643709,0.0737305,-0.76709,0.635254
1480527298659752,0.0786133,-0.762207,0.637695
1480527298682813,0.0805664,-0.747559,0.637695
1480527298704872,0.0791016,-0.756348,0.63916
1480527298726931,0.0732422,-0.76709,0.637695
1480527298741971,0.0717773,-0.762207,0.640625
1480527298764532,0.0742188,-0.750977,0.63623
1480527298779571,0.0791016,-0.756836,0.637207
1480527298802131,0.0761719,-0.762207,0.638672
1480527298832211,0.0751953,-0.763672,0.628906
1480527298838728,0.081543,-0.74707,0.629395
1480527298862291,0.0810547,-0.754883,0.641113
1480527298890867,0.0766602,-0.774414,0.638672
1480527298898888,0.074707,-0.762207,0.64209
1480527298921950,0.0825195,-0.74707,0.638184
1480527298945076,0.081543,-0.752441,0.633789
1480527298959048,0.0766602,-0.771973,0.642578
1480527298990132,0.0722656,-0.76709,0.63623
1480527299004672,0.0742188,-0.73877,0.637695
1480527299019208,0.0776367,-0.73877,0.640625
1480527299042270,0.0766602,-0.773926,0.638184
1480527299079368,0.0791016,-0.774414,0.636719
1480527299081875,0.0756836,-0.75,0.635254
1480527299101929,0.0805664,-0.742676,0.640137
1480527299130505,0.0751953,-0.759277,0.634766
1480527299139027,0.0751953,-0.767578,0.637695
1480527299162088,0.0776367,-0.760254,0.642578
1480527299184653,0.0820313,-0.748535,0.633301
1480527299213229,0.0834961,-0.756348,0.633789
1480527299222254,0.0712891,-0.769043,0.640625
1480527299244813,0.0708008,-0.765137,0.638672
1480527299273389,0.0839844,-0.743164,0.638672
1480527299281912,0.0795898,-0.753418,0.638672
1480527299304472,0.074707,-0.773438,0.642578
1480527299325528,0.0751953,-0.766602,0.640137
1480527299342072,0.0810547,-0.745117,0.63916
1480527299364635,0.0761719,-0.743652,0.633301
1480527299385688,0.0756836,-0.76416,0.635254
1480527299409752,0.0698242,-0.774414,0.641602
1480527299424791,0.0786133,-0.750488,0.643555
1480527299447352,0.0864258,-0.747559,0.640137
1480527299462392,0.0786133,-0.761719,0.637695
1480527299484450,0.0786133,-0.771973,0.635742
1480527299514530,0.0771484,-0.755371,0.644043
1480527299529570,0.0810547,-0.744141,0.632813
1480527299544612,0.0771484,-0.76416,0.644043
1480527299573186,0.0668945,-0.769531,0.64502
1480527299582712,0.0800781,-0.757813,0.635742
1480527299612292,0.0776367,-0.74707,0.63916
1480527299627330,0.0820313,-0.759766,0.634277
1480527299641368,0.0737305,-0.770996,0.64209
1480527299664932,0.0756836,-0.759277,0.640625
1480527299686991,0.0810547,-0.737305,0.637695
1480527299702029,0.0805664,-0.755371,0.639648
1480527299725091,0.0756836,-0.774902,0.641602
1480527299753165,0.0766602,-0.772461,0.637207
1480527299762189,0.0825195,-0.744141,0.635254
1480527299784756,0.0776367,-0.747559,0.64209
1480527299807811,0.0751953,-0.762695,0.636719
1480527299821348,0.0722656,-0.763184,0.644043
1480527299857944,0.081543,-0.745605,0.637207
1480527299866968,0.0805664,-0.75,0.637207
1480527299897048,0.0756836,-0.773926,0.63916
1480527299905070,0.0742188,-0.772461,0.636719
1480527299927128,0.0756836,-0.746094,0.637207
1480527299941667,0.0786133,-0.746094,0.634277
1480527299966233,0.0776367,-0.769043,0.641602
1480527299987288,0.0761719,-0.767578,0.637695
1480527300001326,0.0766602,-0.749512,0.64209
1480527300024387,0.0786133,-0.744141,0.640625
1480527300047451,0.0786133,-0.760742,0.63916
1480527300068505,0.0708008,-0.768066,0.64209
1480527300084547,0.0751953,-0.752441,0.643066
1480527300107107,0.0859375,-0.75,0.635742
1480527300135683,0.0810547,-0.759277,0.641113
1480527300145208,0.074707,-0.768066,0.640137
1480527300182810,0.0766602,-0.754883,0.633789
1480527300189828,0.0849609,-0.75,0.635742
1480527300220409,0.0834961,-0.761719,0.637695
1480527300227426,0.0712891,-0.766602,0.642578
1480527300247982,0.0761719,-0.755371,0.639648
1480527300264527,0.0800781,-0.744141,0.635742
1480527300287086,0.0820313,-0.763184,0.640137
1480527300309645,0.0742188,-0.761719,0.641602
1480527300324685,0.0771484,-0.753906,0.635742
1480527300347748,0.081543,-0.745605,0.639648
1480527300384845,0.0805664,-0.754883,0.637207
1480527300387353,0.0761719,-0.765625,0.640137
1480527300414424,0.0751953,-0.763184,0.639648
1480527300427960,0.0810547,-0.74707,0.640625
1480527300459545,0.0869141,-0.750977,0.634766
1480527300467064,0.0820313,-0.776367,0.640625
1480527300488120,0.0810547,-0.771484,0.637695
1480527300504664,0.0776367,-0.748047,0.638672
1480527300527224,0.0756836,-0.749023,0.640137
1480527300565326,0.0756836,-0.757813,0.640625
1480527300567832,0.0771484,-0.768066,0.639648
1480527300586883,0.081543,-0.754883,0.639648
1480527300609443,0.0874023,-0.750488,0.63916
1480527300624483,0.0771484,-0.759277,0.635742
1480527300647045,0.0727539,-0.768555,0.636719
1480527300669603,0.0727539,-0.756836,0.640625
1480527300684643,0.0820313,-0.739746,0.643555
1480527300707204,0.0864258,-0.754883,0.637695
1480527300729764,0.0776367,-0.775879,0.63916
1480527300743801,0.0766602,-0.763184,0.63623
1480527300774382,0.0771484,-0.739746,0.633789
1480527300795939,0.0791016,-0.754395,0.637695
1480527300803962,0.0732422,-0.774414,0.635742
1480527300827023,0.0766602,-0.766113,0.637695
1480527300849582,0.0795898,-0.746094,0.63623
1480527300879662,0.0849609,-0.750488,0.637695
1480527300887182,0.0805664,-0.76123,0.640625
1480527300909742,0.0766602,-0.76709,0.634766
1480527300923780,0.0786133,-0.746094,0.636719
1480527300946841,0.0859375,-0.746094,0.643066
1480527300969902,0.0805664,-0.763672,0.641602
1480527300984442,0.0727539,-0.77002,0.64502
1480527301007502,0.0786133,-0.743652,0.637207
1480527301030062,0.0834961,-0.74707,0.633301
1480527301044100,0.0834961,-0.765625,0.63916
1480527301067161,0.0751953,-0.770508,0.635254
1480527301089721,0.0834961,-0.746094,0.635742
1480527301110783,0.0761719,-0.733398,0.636719
1480527301127321,0.0727539,-0.753418,0.633301
1480527301156899,0.0800781,-0.771973,0.644531
1480527301171438,0.0810547,-0.771973,0.648438
1480527301186981,0.0849609,-0.756836,0.638672
1480527301209539,0.0751953,-0.758301,0.632813
1480527301231097,0.0678711,-0.76123,0.635254
1480527301247140,0.0810547,-0.76123,0.64209
1480527301271204,0.0844727,-0.741699,0.641602
1480527301290756,0.0859375,-0.748535,0.643555
1480527301307801,0.0791016,-0.787109,0.629883
1480527301329861,0.0786133,-0.763184,0.632324
1480527301351920,0.0742188,-0.741699,0.637695
1480527301367461,0.0761719,-0.750977,0.641113
1480527301390019,0.0800781,-0.764648,0.649414
1480527301427619,0.0727539,-0.760254,0.639648
1480527301430126,0.0859375,-0.752441,0.645996
1480527301457699,0.0864258,-0.748047,0.635742
1480527301470734,0.081543,-0.774414,0.641602
1480527301487779,0.0727539,-0.755371,0.63916
1480527301510340,0.0771484,-0.741211,0.643066
1480527301539417,0.0874023,-0.750488,0.640625
1480527301554457,0.0786133,-0.761719,0.63916
1480527301569498,0.078125,-0.761719,0.64502
1480527301592057,0.0947266,-0.751953,0.645996
1480527301607097,0.0854492,-0.749512,0.640625
1480527301630159,0.0737305,-0.76416,0.64209
1480527301652217,0.0805664,-0.760742,0.635742
1480527301674777,0.0957031,-0.744629,0.628418
1480527301689315,0.0883789,-0.755859,0.635742
1480527301712895,0.0864258,-0.770508,0.636719
1480527301735440,0.0820313,-0.765625,0.631836
1480527301749476,0.0800781,-0.739746,0.623047
1480527301772537,0.0917969,-0.728516,0.624512
1480527301786575,0.0898438,-0.749512,0.629883
1480527301809636,0.0898438,-0.787109,0.648926
1480527301832196,0.0927734,-0.770996,0.646484
1480527301846234,0.0952148,-0.740234,0.63916
1480527301870297,0.0839844,-0.753906,0.635254
1480527301891854,0.0825195,-0.765137,0.630371
1480527301906393,0.0834961,-0.754883,0.637207
1480527301929454,0.0917969,-0.744629,0.650391
1480527301952015,0.0932617,-0.757324,0.641602
1480527301973071,0.081543,-0.759277,0.631836
1480527301989614,0.0717773,-0.757324,0.62793
1480527302012675,0.0927734,-0.74707,0.643066
1480527302033231,0.0927734,-0.762207,0.643066
1480527302049775,0.0966797,-0.755859,0.639648
1480527302078351,0.0805664,-0.75,0.623535
1480527302093390,0.0800781,-0.762695,0.630859
1480527302109433,0.0849609,-0.765137,0.634766
1480527302131994,0.0854492,-0.79248,0.63916
