timestamp,x,y,z
1480527249465309,0.5625,0.4375,0.375
1480527249475838,-0.375,0.375,0.125
1480527249495389,-0.125,0.0625,0.0625
1480527249517948,0.25,0.1875,-0.1875
1480527249543519,0.5,0.125,0
1480527249573095,0.1875,0.125,-0.25
1480527249578109,-0.625,-0.25,-0.1875
1480527249595655,-0.5625,-0.3125,0
1480527249615207,0,0.25,0.4375
1480527249637768,0.0625,0.25,0.5
1480527249655815,0.125,0.0625,0.125
1480527249676872,0,0.1875,0
1480527249697927,-0.5,0.0625,0
1480527249720488,-0.5625,0.0625,-0.0625
1480527249735527,-0.1875,0.25,0.125
1480527249758091,0.0625,0.375,0.125
1480527249783155,0.1875,0.3125,0.3125
1480527249795186,-0.0625,0,0.0625
1480527249817746,-0.25,0.125,0.125
1480527249836797,-0.25,0.125,0.25
1480527249858356,-0.1875,0,0.1875
1480527249877908,0.1875,0,0.0625
1480527249895957,0.0625,0,-0.0625
1480527249924531,0,0.1875,-0.0625
1480527249938066,-0.1875,0,0.125
1480527249963133,0.125,0.0625,0
1480527249976669,0.25,0.125,-0.0625
1480527250005245,-0.3125,0.125,0.0625
1480527250015773,-0.1875,0.125,0
1480527250036829,-0.125,0.125,-0.0625
1480527250057886,-0.375,0.375,0
1480527250081950,-0.4375,0.3125,0.5625
1480527250096989,0.3125,0.1875,0.25
1480527250118045,0.75,0.25,-0.125
1480527250136594,0.1875,0.0625,-0.3125
1480527250156648,-0.25,-0.0625,-0.1875
1480527250178207,-0.375,0,-0.375
1480527250195751,-0.4375,-0.0625,-0.0625
1480527250216808,-0.125,0.125,0.125
1480527250237863,-0.0625,0.25,0.4375
1480527250260423,0.1875,0.0625,0.3125
1480527250276968,-0.3125,0.125,0.125
1480527250298023,-0.0625,0.0625,0.0625
1480527250316072,-0.1875,0,0.0625
1480527250338131,-0.3125,0.1875,-0.125
1480527250358185,-0.0625,0.125,0.0625
1480527250375730,0.1875,0.1875,0.125
1480527250398291,-0.0625,0.0625,0.0625
1480527250419346,-0.1875,0.125,-0.125
1480527250436392,-0.5,0.125,0.3125
1480527250458454,-0.0625,0.1875,0.0625
1480527250478002,0.25,0.0625,0
1480527250496051,0.25,-0.125,-0.125
1480527250518109,-0.25,-0.0625,0
1480527250537661,-0.125,-0.25,-0.0625
1480527250556211,0.4375,0.0625,-0.0625
1480527250578270,0.5625,0,0
1480527250597821,-0.125,0,0
1480527250615870,-0.5,0,0.0625
1480527250638430,-0.1875,0.125,-0.125
1480527250657985,0.0625,0.0625,-0.1875
1480527250676532,-0.3125,0.0625,0
1480527250706111,-0.3125,0.1875,0.25
1480527250720648,0.1875,0,0.375
1480527250743208,0.375,-0.0625,0.0625
1480527250758752,0.125,-0.0625,-0.4375
1480527250780808,0.1875,-0.125,-0.0625
1480527250795848,0.4375,-0.1875,-0.1875
1480527250818408,-0.3125,-0.1875,-0.3125
1480527250837960,-0.5625,-0.0625,0
1480527250860526,-0.3125,-0.1875,0.1875
1480527250878569,-0.125,0.0625,0.3125
1480527250899122,-0.1875,0.125,0.3125
1480527250927700,0.0625,0.0625,0
1480527250938227,0.375,0,0.125
1480527250959283,-0.125,0.0625,-0.0625
1480527250980339,-0.875,0,0
1480527250998386,0.375,-0.0625,0.0625
1480527251019443,1.0625,0.125,0.1875
1480527251040500,0.125,-0.0625,-0.0625
1480527251058547,-0.8125,-0.1875,-0.0625
1480527251079603,-0.1875,-0.125,0.1875
1480527251102165,0.5625,-0.125,0.1875
1480527251118207,0.6875,-0.25,0.0625
1480527251139262,-0.0625,-0.25,-0.0625
1480527251163326,-0.1875,-0.3125,0
1480527251178366,0.25,0,-0.0625
1480527251206942,0.5,0,-0.0625
1480527251220477,0.1875,-0.0625,0
1480527251238526,0,0.0625,-0.0625
1480527251261086,-0.1875,0.1875,0
1480527251280890,-0.1875,-0.0625,0
1480527251299187,0.0625,-0.125,-0.0625
1480527251320744,0.125,0.0625,0
1480527251340296,-0.125,-0.0625,-0.0625
1480527251358346,-0.1875,-0.3125,-0.1875
1480527251380905,0,-0.125,-0.25
1480527251410985,0.0625,-0.25,-0.1875
1480527251418506,-0.25,-0.3125,0.1875
1480527251441065,0.0625,-0.25,0.125
1480527251460616,0.8125,0,0.3125
1480527251478164,-0.0625,0.0625,0.1875
1480527251500723,-0.75,0,-0.125
1480527251520274,0.25,0.0625,-0.4375
1480527251538323,0.9375,0.125,-0.0625
1480527251560885,-0.3125,0.0625,-0.4375
1480527251580436,-1.4375,-0.3125,-0.0625
1480527251598482,-0.1875,-0.125,0
1480527251621043,0.4375,0.0625,0.1875
1480527251640597,-0.125,0.1875,0.375
1480527251658142,-0.875,-0.125,0.1875
1480527251680702,-0.3125,-0.0625,0
1480527251700253,0.5625,-0.0625,0
1480527251718302,-0.125,-0.3125,-0.0625
1480527251746879,-0.8125,-0.375,0.0625
1480527251760415,-0.25,-0.0625,0.25
1480527251784478,0.75,-0.25,0.1875
1480527251801021,0.875,-0.3125,0
1480527251828094,-0.5,-0.25,0.0625
1480527251838121,-0.875,0.0625,0.0625
1480527251860680,0,0,0.1875
1480527251881736,1.25,-0.0625,-0.3125
1480527251898280,-0.0625,-0.1875,-0.25
1480527251920841,-1.0625,0,-0.125
1480527251941896,-0.375,0.125,0
1480527251958440,1,0.125,-0.3125
1480527251981001,0.3125,0,-0.25
1480527252003561,-0.75,-0.1875,-0.0625
1480527252024619,-0.3125,-0.125,0.0625
1480527252041163,0.5,-0.125,-0.125
1480527252063219,0.625,-0.125,-0.25
1480527252078260,-0.1875,-0.25,0
1480527252100819,-0.1875,-0.1875,0.125
1480527252121876,0.4375,-0.3125,0.125
1480527252138428,0.5625,-0.25,-0.0625
1480527252160979,-0.125,-0.0625,-0.125
1480527252183539,0.0625,-0.1875,0.1875
1480527252198078,0.3125,-0.0625,0.1875
1480527252220638,0.4375,0,-0.0625
1480527252243198,-0.4375,0.0625,-0.125
1480527252258244,-0.625,0,0
1480527252281046,-0.125,0.125,0.1875
1480527252310879,0.25,0.125,0.1875
1480527252322911,-0.0625,0.1875,0.25
1480527252347475,0.0625,0.1875,0.1875
1480527252363517,-0.1875,0.25,-0.0625
1480527252383070,0.1875,0.125,-0.1875
1480527252400117,-0.0625,0.125,-0.0625
1480527252422680,-0.125,0.0625,-0.3125
1480527252443731,-0.375,0.0625,-0.3125
1480527252460279,0,-0.0625,0.125
1480527252482846,0,0,0.1875
1480527252503390,-0.125,0,0.3125
1480527252519937,-0.0625,0.0625,0.125
1480527252542495,-0.0625,0.125,-0.0625
1480527252563551,0.125,0.0625,0.0625
1480527252580095,-0.5,-0.0625,0.0625
1480527252602654,-0.25,-0.0625,0
1480527252623711,0.5,0.25,0.0625
1480527252647536,0.25,0.0625,0.125
1480527252662313,0,0.125,-0.0625
1480527252683368,-0.0625,0,-0.0625
1480527252699912,-0.1875,-0.0625,-0.0625
1480527252722473,0.25,0,0.0625
1480527252745033,0.25,-0.125,0
1480527252760074,-0.1875,-0.1875,0
1480527252783133,0.0625,-0.0625,-0.0625
1480527252803688,0.5,0.0625,-0.0625
1480527252820233,-0.1875,0.0625,-0.0625
1480527252842291,-0.4375,0.0625,0.125
1480527252863347,0,0.125,0.0625
1480527252879893,0.3125,0.0625,-0.0625
1480527252902451,-0.0625,0.0625,-0.0625
1480527252925015,-0.5625,0.0625,0.0625
1480527252940555,-0.125,0.0625,-0.125
1480527252962612,0.625,-0.0625,-0.125
1480527252983668,-0.125,-0.0625,-0.125
1480527253000219,-0.8125,-0.25,0.0625
1480527253022772,-0.25,-0.125,0.0625
1480527253043327,0.5625,-0.0625,0.1875
1480527253059870,0.625,0,0.25
1480527253082431,-0.1875,0.0625,0.1875
1480527253103486,-0.3125,-0.125,-0.125
1480527253120532,0.4375,0,-0.3125
1480527253148606,0.4375,-0.125,-0.25
1480527253179689,-0.75,0,-0.5
1480527253182196,-1.25,0,0.0625
1480527253202750,-0.125,-0.1875,0.1875
1480527253225310,0.625,0,0.25
1480527253239851,-0.1875,0.0625,0.0625
1480527253262409,-0.75,-0.125,0
1480527253284969,0.125,-0.1875,-0.125
1480527253299507,0.375,0.0625,0.125
1480527253322569,-0.6875,-0.1875,0
1480527253345630,-0.0625,-0.3125,0.0625
1480527253359168,0.625,-0.125,0.1875
1480527253382729,0.25,-0.0625,-0.125
1480527253404788,-0.5625,-0.1875,0
1480527253419828,-0.125,-0.125,0
1480527253455924,0,-0.125,0.0625
1480527253464948,0.25,-0.0625,-0.125
1480527253479486,0,-0.0625,-0.0625
1480527253503050,-0.0625,-0.125,-0.125
1480527253525107,-0.0625,-0.0625,-0.1875
1480527253539146,0.125,0,-0.125
1480527253563710,0,0.125,-0.0625
1480527253584766,0,0,0
1480527253599305,0.0625,-0.125,-0.125
1480527253622367,0,-0.125,-0.25
1480527253644927,-0.3125,0,-0.125
1480527253665982,-0.3125,0.0625,-0.125
1480527253682026,-0.125,-0.0625,0.0625
1480527253705086,0.125,-0.1875,-0.0625
1480527253726646,0.3125,-0.1875,0.125
1480527253742687,0,-0.0625,-0.125
1480527253765246,0.1875,-0.25,-0.0625
1480527253785801,0.875,-0.1875,-0.25
1480527253802345,0.375,-0.125,-0.1875
1480527253824906,-0.6875,0,-0.4375
1480527253845961,-0.75,-0.1875,-0.1875
1480527253863006,0.0625,-0.1875,0.125
1480527253885567,-0.0625,0,0.3125
1480527253906121,-0.5,0,0.25
1480527253922667,-0.1875,-0.0625,-0.1875
1480527253945226,0.25,0.0625,-0.1875
1480527253966281,-0.5,-0.1875,-0.25
1480527253982324,-0.375,-0.0625,-0.0625
1480527254004885,-0.625,0.0625,-0.125
1480527254025940,0.1875,-0.125,-0.125
1480527254042485,0.1875,-0.125,0.125
1480527254065045,-0.0625,-0.125,0
1480527254087604,-0.5625,-0.125,0.125
1480527254102644,-0.1875,-0.125,0.125
1480527254125204,0.4375,-0.1875,0.0625
1480527254147263,0.4375,-0.1875,-0.125
1480527254162302,-0.1875,-0.125,-0.125
1480527254184863,-0.375,-0.125,0.0625
1480527254208425,0,0,0
1480527254221961,0.125,0.1875,-0.25
1480527254245038,0,0.0625,-0.1875
1480527254267582,0.0625,-0.125,-0.0625
1480527254288638,-0.0625,0,-0.1875
1480527254305183,-0.25,0,-0.1875
1480527254327241,-0.375,0,-0.0625
1480527254341780,0.5625,-0.125,-0.0625
1480527254365844,0.5,0.0625,0.1875
1480527254387401,-0.4375,0.0625,-0.0625
1480527254401940,-0.3125,-0.1875,-0.0625
1480527254425002,0.9375,-0.0625,-0.4375
1480527254447562,0.5625,0,-0.3125
1480527254462100,-0.3125,-0.25,-0.4375
1480527254485162,-0.4375,-0.375,0.125
1480527254508222,0.4375,-0.1875,0.1875
1480527254528777,0.625,0,0.25
1480527254544821,0.125,-0.1875,0.0625
1480527254567381,-0.0625,-0.1875,0
1480527254588436,0.5,-0.0625,-0.0625
1480527254604980,-0.125,-0.1875,-0.125
1480527254627540,-0.8125,-0.1875,-0.1875
1480527254648596,-0.0625,-0.1875,-0.125
1480527254665140,0.6875,-0.0625,0.0625
1480527254687700,0.4375,-0.0625,-0.125
1480527254708757,-0.4375,-0.1875,0
1480527254724799,-0.0625,-0.25,0.125
1480527254747359,0.5,-0.1875,-0.0625
1480527254769919,0.25,-0.1875,-0.0625
1480527254798494,-0.0625,-0.3125,-0.125
1480527254813535,0.25,-0.25,-0.25
1480527254828575,0.0625,-0.1875,-0.25
1480527254845119,0,-0.0625,-0.1875
1480527254867679,0.1875,-0.1875,0.0625
1480527254888735,0.3125,-0.0625,-0.25
1480527254904779,-0.1875,-0.0625,-0.375
1480527254927338,-0.375,-0.125,-0.25
1480527254948394,-0.25,-0.125,0
1480527254965439,0.25,-0.125,-0.125
1480527254987497,0.1875,0.125,-0.0625
1480527255008556,0.125,0,0.1875
1480527255025097,-0.0625,-0.1875,-0.125
1480527255047157,0.8125,-0.3125,-0.375
1480527255069716,0.9375,-0.3125,-0.1875
1480527255084756,0,-0.4375,-0.3125
1480527255107318,-0.375,-0.375,-0.375
1480527255130879,0.125,-0.25,0.0625
1480527255144917,0.125,-0.1875,0.1875
1480527255167477,-0.125,-0.1875,0.3125
1480527255190043,0,-0.1875,0
1480527255211093,0.25,-0.1875,-0.125
1480527255227636,0,-0.1875,-0.0625
1480527255250197,-0.875,-0.1875,-0.0625
1480527255272759,-0.75,-0.125,-0.0625
1480527255294815,0.4375,-0.125,-0.0625
1480527255309856,0.5,-0.125,-0.25
1480527255324395,-0.625,-0.25,-0.4375
1480527255347455,-0.5625,-0.5,-0.75
1480527255370517,0.375,-0.4375,-1.3125
1480527255384053,1.125,-0.3125,-1.3125
1480527255407616,0.5625,-0.5,-1
1480527255430175,-0.125,-0.4375,-0.6875
1480527255444213,-0.875,-0.1875,-0.6875
1480527255475797,0.375,-0.3125,-0.5
1480527255497353,1.1875,-0.125,-0.125
1480527255505879,-0.25,0.125,0.0625
1480527255527434,-1.3125,0.0625,0.0625
1480527255549993,-0.75,0.3125,-0.0625
1480527255571049,-0.25,0.0625,-0.0625
1480527255587594,-0.875,0.0625,0.1875
1480527255610154,-1.3125,-0.125,0.625
1480527255631210,-0.625,-0.1875,0.5625
1480527255648090,-0.3125,0,0.375
1480527255670314,-1.3125,-0.125,0.125
1480527255690868,-1.875,-0.0625,0.0625
1480527255707914,-1.9375,0.0625,-0.25
1480527255729972,-1.9375,-0.1875,-0.4375
1480527255751530,-2.3125,-0.25,-0.9375
1480527255767573,-3.75,0.1875,-1.8125
1480527255790135,-4.625,0.0625,-1.625
1480527255811188,-5.625,-0.1875,-2.125
1480527255827733,-2.75,0.1875,-1.1875
1480527255849792,-0.3125,0.8125,-0.5
1480527255870847,-0.5625,0.875,-0.375
1480527255887391,-0.875,-0.125,-0.6875
1480527255925494,-1,-0.1875,-0.4375
1480527255931007,-0.125,0.1875,0.0625
1480527255947551,1.1875,0.125,0.5
1480527255970111,1.3125,0.0625,0.375
1480527255992671,2.125,-0.5,1.1875
1480527256014730,3.5625,-0.6875,1.25
1480527256029770,3.25,-1,0.8125
1480527256052330,0.5,-0.5625,0.625
1480527256067370,0.375,-0.5,0.1875
1480527256089934,0.375,-0.3125,0.125
1480527256120010,1.125,0.0625,0.5625
1480527256127032,1.3125,-0.25,0.6875
1480527256150091,0.6875,0,0.3125
1480527256172650,-0.75,-0.5,-0.375
1480527256186698,-0.0625,-0.4375,0.3125
1480527256210251,0.625,-0.4375,0.4375
1480527256232309,-0.6875,-0.0625,0.125
1480527256246847,-0.9375,0.3125,-0.0625
1480527256269909,-0.125,0.375,0.0625
1480527256292470,-1.0625,-0.0625,-0.3125
1480527256307008,-0.6875,0.0625,-0.125
1480527256336086,-0.125,-0.0625,-0.3125
1480527256352629,-1.4375,0.6875,-0.1875
1480527256366666,-2.125,1,-0.25
1480527256390731,-2.8125,0.9375,0
1480527256412789,-1.125,0.3125,0.1875
1480527256426833,0.125,0.125,0.1875
1480527256449888,0.1875,-0.25,0.1875
1480527256472448,0.5,-0.875,0.375
1480527256493505,2.375,-1.4375,0.5
1480527256510050,2.9375,-0.6875,0.5625
1480527256540629,0.5625,-0.8125,0.1875
1480527256553663,-1.0625,-1.375,0.1875
1480527256570207,2,-1.9375,0.125
1480527256592769,2.9375,-0.0625,0.3125
1480527256620842,-1.9375,1.25,-0.0625
1480527256629868,-2.9375,-0.0625,-0.5
1480527256652427,-0.8125,-0.4375,0.1875
1480527256673984,0.4375,0.375,0.125
1480527256690026,-0.8125,0.3125,-0.25
1480527256712586,-2.1875,0.75,-0.3125
1480527256733642,-0.9375,0.6875,-0.4375
1480527256750188,-0.75,0.25,-0.3125
1480527256780278,-0.1875,-0.125,-0.25
1480527256793805,-0.125,0.5625,-0.3125
1480527256809846,0.375,0,-0.1875
1480527256833409,1.1875,0.1875,-0.375
1480527256853461,0.0625,0.25,0
1480527256870507,-0.9375,-0.1875,-0.125
1480527256892566,0.125,0.125,-0.25
1480527256913623,1.5,0.375,-0.4375
1480527256930165,-0.1875,0.25,-0.125
1480527256952725,0.3125,-0.1875,-0.5625
1480527256975288,0.125,0,-0.25
1480527256997344,-0.6875,0,-0.375
1480527257012394,-0.375,-0.1875,0.125
1480527257035951,1.1875,-0.1875,0.5
1480527257057506,0.1875,-0.3125,0.1875
1480527257072545,0.3125,0,0
1480527257101120,0.375,0.1875,0
1480527257116160,-0.4375,-0.1875,0.125
1480527257132704,-0.5,0.0625,-0.4375
1480527257156267,0.1875,0,-0.1875
1480527257169302,0.75,0,-0.1875
1480527257199882,-0.25,0,-0.25
1480527257214923,-0.3125,-0.1875,-0.0625
1480527257229461,0.1875,-0.125,0.125
1480527257252523,0.6875,-0.125,-0.0625
1480527257275085,0.0625,-0.1875,-0.25
1480527257289120,0.125,-0.25,-0.25
1480527257313184,0.0625,-0.375,0
1480527257336245,0.625,-0.4375,0
1480527257349280,0.25,-0.5,0.1875
1480527257380386,0.4375,-0.1875,-0.0625
1480527257394901,0,-0.3125,0
1480527257415957,0.4375,-0.5,-0.25
1480527257438518,0.125,-0.125,-0.4375
1480527257455062,-0.25,-0.0625,-0.25
1480527257476117,-0.125,-0.1875,-0.0625
1480527257492661,0.8125,-0.0625,-0.1875
1480527257514719,-0.0625,-0.1875,0.0625
1480527257543296,-0.3125,-0.1875,-0.0625
1480527257552320,0.125,0.1875,-0.1875
1480527257574880,0.3125,0.1875,-0.375
1480527257595935,0.0625,-0.1875,-0.5625
1480527257620000,0.0625,-0.625,-0.6875
1480527257658602,0.125,-0.6875,-0.25
1480527257663616,-0.125,-0.375,-0.1875
1480527257672643,1,-0.25,0.5
1480527257694699,0.9375,0.1875,-0.125
1480527257716255,-2.125,-0.125,-0.25
1480527257732298,0.1875,-0.5,-0.1875
1480527257754859,1.5625,-0.3125,0
1480527257775915,-0.25,0,-0.125
1480527257792459,-1.4375,-0.0625,0
1480527257821035,0.1875,-0.1875,0
1480527257836074,0.25,-0.3125,-0.0625
1480527257852618,0.125,-0.1875,0
1480527257875179,0,-0.1875,0.125
1480527257897237,-0.625,-0.375,-0.0625
1480527257912779,-0.1875,-0.6875,0
1480527257935840,0.5,-0.375,-0.125
1480527257972947,0.5,-0.25,-0.0625
1480527257975446,-0.3125,-0.375,-0.0625
1480527257994997,-0.0625,-0.25,0.125
1480527258017558,0.8125,-0.125,0
1480527258031595,0.5,-0.125,0
1480527258055157,-0.375,0.0625,-0.0625
1480527258077718,-0.75,0.0625,-0.25
1480527258099776,-0.25,-0.375,-0.1875
1480527258114816,1.5625,0.125,0.375
1480527258143392,-0.5625,0.875,0.1875
1480527258151915,-2.8125,0,0.1875
1480527258174976,0.375,0.3125,-0.375
1480527258197537,0.1875,0.25,-0.4375
1480527258212075,0,0.125,-0.1875
1480527258235637,-0.25,0.0625,0
1480527258257696,-0.375,-0.0625,-0.1875
1480527258278752,-0.25,0.0625,-0.3125
1480527258294795,0.25,0.0625,-0.1875
1480527258317856,-0.375,-0.25,0.125
1480527258338412,-0.3125,0,-0.1875
1480527258354955,-1.0625,-0.1875,-0.0625
1480527258385037,0.4375,-0.4375,-0.125
1480527258400075,0.6875,0.25,0
1480527258415617,-1.8125,0.0625,-0.375
1480527258437675,-0.75,-0.125,0.4375
1480527258458732,1.5625,0.0625,-0.0625
1480527258474774,0.6875,-0.0625,0.125
1480527258497334,-0.625,-0.0625,-0.3125
1480527258519910,-0.25,-0.1875,0.125
1480527258535936,1.0625,-0.25,0.125
1480527258565014,0.75,-0.25,0.125
1480527258578549,-0.1875,0.0625,-0.3125
1480527258595093,0.0625,-0.4375,-0.1875
1480527258618163,1.125,0.625,-0.125
1480527258638710,-0.8125,-0.1875,-0.4375
1480527258655255,0.875,-0.0625,0.125
1480527258677313,0.25,-0.0625,-0.1875
1480527258705891,-0.375,-0.4375,-0.375
1480527258722434,0.875,0.5,0
1480527258737472,0.3125,0.25,-0.4375
1480527258758529,-1.375,-0.8125,0.1875
1480527258775073,1.625,0.625,0.4375
1480527258797632,0.375,0.625,-0.375
1480527258826209,-1,-0.5625,-0.25
1480527258840748,1.25,0.5,-0.125
1480527258858294,0.1875,0.25,-0.6875
1480527258879851,-1.1875,-0.75,-0.1875
1480527258895894,0.1875,-0.1875,-0.1875
1480527258917451,0.6875,0.0625,0.625
1480527258940014,-0.5625,0.0625,0.25
1480527258955052,-1.625,-0.5,-0.1875
1480527258977612,1.25,0.125,0.5625
1480527259000171,0.25,0.1875,-0.0625
1480527259014208,-2.0625,-0.125,0.3125
1480527259037270,-0.4375,-0.125,-0.25
1480527259074369,0.75,-0.4375,0.5
1480527259080886,0.875,-1.125,-0.1875
1480527259097429,0.8125,0.0625,0.25
1480527259119990,-0.5625,0.5625,0.4375
1480527259135030,-2.5,-0.75,-0.125
1480527259157590,0.25,-0.3125,0
1480527259180651,0.6875,0.3125,0.125
1480527259194193,-1,-0.4375,0.125
1480527259217248,-0.375,-0.25,-0.0625
1480527259240310,-0.375,0.125,0
1480527259254347,-0.0625,-0.125,0.25
1480527259277409,-0.3125,0,-0.0625
1480527259299969,-0.1875,0.125,-0.125
1480527259321526,-0.4375,0.125,0.0625
1480527259343585,-0.4375,-0.0625,0.25
1480527259360130,-0.125,0.0625,0.3125
1480527259380687,-0.125,0.3125,0.375
1480527259397227,-0.5625,0.0625,0.3125
1480527259419788,-0.1875,-0.125,-0.125
1480527259440844,0.625,0.125,-0.3125
1480527259457388,0.1875,-0.25,-0.125
1480527259479947,-0.1875,-0.5,-0.0625
1480527259501003,-0.625,-0.3125,0
1480527259517550,-0.4375,-0.0625,-0.125
1480527259540108,-0.875,0.0625,0.375
1480527259561163,-0.625,-0.25,0.3125
1480527259577207,0.3125,-0.125,0.0625
1480527259599765,0.3125,-0.125,0.0625
1480527259620822,-0.0625,0.0625,-0.0625
1480527259637868,-1.125,-0.0625,0.1875
1480527259675969,-0.625,-0.125,0.25
1480527259690007,0.6875,-0.0625,0.25
1480527259705048,0.5,0.0625,-0.0625
1480527259720587,-1.375,0.1875,-0.375
1480527259741143,-0.5625,0.125,-0.25
1480527259757697,-1.625,0.25,-0.25
1480527259779745,-0.5,-0.0625,-0.3125
1480527259809825,0.0625,-0.1875,0.25
1480527259817846,0.6875,0,0.125
1480527259839906,-0.1875,-0.0625,-0.0625
1480527259862465,-0.5,0.0625,-0.4375
1480527259877506,-0.25,0.3125,-0.1875
1480527259900065,-0.625,-0.25,0.0625
1480527259922627,0.375,0,0.1875
1480527259936662,0,0.3125,-0.4375
1480527259965739,-0.625,0.125,-0.75
1480527259982284,-0.625,-0.0625,-0.3125
1480527260012364,0,0.125,0
1480527260019884,0,0.1875,0.1875
1480527260042443,0.0625,0.1875,0.0625
1480527260056986,0.3125,-0.0625,-0.625
1480527260080044,0.0625,-0.125,-0.375
1480527260110626,0.5,-0.1875,-0.375
1480527260118145,0.4375,-0.1875,-0.1875
1480527260140204,-0.375,-0.4375,-0.25
1480527260162265,-0.6875,-0.3125,0
1480527260176802,0.625,0.125,0.125
1480527260199863,-0.1875,-0.0625,0
1480527260230444,-0.9375,-0.1875,0.0625
1480527260236961,1.5625,-0.375,-0.0625
1480527260260022,1.375,0.1875,0.125
1480527260283097,-1.75,-0.0625,0.125
1480527260303651,1.1875,0.1875,-0.125
1480527260326212,0.0625,0.0625,0.125
1480527260349774,1.1875,-0.4375,-0.5
1480527260363309,-0.0625,0.0625,-0.0625
1480527260387373,-1.625,-0.1875,-0.0625
1480527260402413,-0.125,-0.375,0.0625
1480527260432493,1.25,-0.1875,0
1480527260440515,0.6875,-0.1875,-0.125
1480527260462575,-0.5,-0.0625,-0.3125
1480527260483629,-0.75,-0.125,-0.3125
1480527260507192,0.375,-0.25,-0.4375
1480527260522734,0.75,-0.5,-0.1875
1480527260543289,0.9375,0.125,0.1875
1480527260560333,-0.375,0.125,-0.3125
1480527260582894,-0.375,-0.3125,0.0625
1480527260603447,-0.125,0.0625,0.0625
1480527260619992,-0.6875,0.0625,-0.0625
1480527260642552,-0.3125,-0.375,0.3125
1480527260665111,0.9375,-0.0625,0.5625
1480527260680153,0.75,-0.0625,-0.1875
1480527260702713,-0.5,-0.125,-0.3125
1480527260732791,0.0625,0,0.1875
1480527260748054,0.1875,-0.1875,-0.375
1480527260769891,-0.5625,-0.5,-0.25
1480527260784931,-0.4375,-0.125,-0.125
1480527260799971,-0.9375,-0.0625,-0.0625
1480527260822536,0.375,-0.3125,0.5
1480527260845093,0.625,-0.0625,0.375
1480527260859129,-0.5,-0.1875,-0.25
1480527260882691,-0.4375,-0.125,0
1480527260905255,0,-0.0625,0
1480527260919288,0.25,-0.0625,-0.1875
1480527260942349,-0.5625,0.125,0.25
1480527260965411,-0.6875,-0.0625,0.25
1480527260979449,-0.125,0,-0.0625
1480527261016045,-0.25,0.125,0
1480527261025071,-0.0625,0.0625,0.3125
1480527261039109,-0.0625,0,-0.125
1480527261062168,-0.3125,-0.0625,-0.0625
1480527261092248,0.0625,-0.0625,0
1480527261099267,-0.0625,-0.0625,0.125
1480527261122347,-0.25,0,-0.0625
1480527261144889,-0.4375,0.125,-0.3125
1480527261159427,-0.1875,0.125,-0.0625
1480527261182500,-0.0625,-0.1875,0.0625
1480527261205048,0.0625,-0.1875,-0.25
1480527261226104,-0.0625,-0.4375,-0.125
1480527261242652,0.0625,0,0.125
1480527261264707,-0.875,0.125,0.0625
1480527261285763,0.5,0.0625,0.1875
1480527261302308,0,-0.0625,0.3125
1480527261325370,-0.5625,-0.3125,0
1480527261346926,0.4375,-0.25,-0.0625
1480527261362467,0.5,0.1875,-0.3125
1480527261384526,-0.8125,0.125,-0.25
1480527261406085,-1.25,-0.1875,0.125
1480527261422634,-0.25,-0.0625,0.4375
1480527261445188,0.1875,0.125,0.1875
1480527261465741,0,0.3125,0.1875
1480527261482286,-0.875,0.125,0
1480527261504846,-1.1875,0.125,-0.0625
1480527261525902,-0.25,-0.0625,-0.125
1480527261542446,0.5,0,0.125
1480527261565008,0.25,0,-0.0625
1480527261586061,-0.4375,0.0625,-0.0625
1480527261602606,-0.125,-0.0625,-0.125
1480527261625166,-0.0625,0.1875,-0.125
1480527261646223,-0.1875,-0.1875,0.125
1480527261670787,0.5625,-0.125,-0.0625
1480527261684835,0.75,0,-0.1875
1480527261707385,-0.25,0,-0.4375
1480527261722427,-0.1875,-0.0625,-0.25
1480527261752504,0.4375,0.3125,-0.125
1480527261775065,0.25,0.0625,-0.25
1480527261782695,0.375,0.125,-0.25
1480527261813166,-0.1875,0.125,-0.1875
1480527261827204,-0.3125,0.125,-0.1875
1480527261842243,0.4375,0.125,-0.25
1480527261864803,0.4375,0.1875,-0.0625
1480527261887364,0.1875,0.25,-0.125
1480527261901902,-0.375,0.0625,-0.1875
1480527261924963,0.5,-0.125,-0.375
1480527261948024,1.5,0.0625,-0.3125
1480527261961562,0.0625,0.625,-0.875
1480527261985123,-1.75,-0.5,-0.4375
1480527262014702,0.8125,-0.5,0.3125
1480527262021723,0.75,-0.0625,0
1480527262059822,0.6875,0.0625,-0.3125
1480527262067341,-0.8125,-0.25,-0.1875
1480527262081881,-0.125,-0.3125,0
1480527262104944,0.75,0.0625,0
1480527262127502,0.3125,0.0625,-0.0625
1480527262141539,-0.9375,0.4375,-0.3125
1480527262166606,-0.6875,-0.125,-0.125
1480527262187662,1.9375,0.0625,0.25
1480527262208718,0.3125,0.25,-0.375
1480527262224767,-1.0625,0,0
1480527262247321,-0.3125,-0.25,0.3125
1480527262268376,1.75,-0.25,0.1875
1480527262284920,0.75,-0.125,-0.1875
1480527262307481,-1.1875,-0.25,-0.375
1480527262328536,-0.625,-0.125,0.0625
1480527262345583,0.25,0.1875,-0.125
1480527262375161,0.25,0,0.125
1480527262388699,0.4375,0.125,-0.0625
1480527262405244,-1.4375,0.0625,-0.125
1480527262428304,-0.4375,-0.0625,0
1480527262448355,0.8125,0.1875,0.1875
1480527262464899,0.6875,0.0625,0.25
1480527262487460,-0.6875,0.3125,0.125
1480527262508530,-0.5625,0.0625,-0.1875
1480527262525073,1.125,0,-0.375
1480527262547632,1.125,0.0625,0
1480527262568688,-0.5,-0.125,-0.5
1480527262584731,-0.8125,-0.25,-0.1875
1480527262607292,0,-0.125,-0.0625
1480527262629851,0.0625,0.1875,0.25
1480527262644891,-0.1875,-0.1875,0.375
1480527262667451,-0.25,-0.0625,0
1480527262690012,0.625,0.125,-0.0625
1480527262705051,-0.0625,0.0625,-0.4375
1480527262727611,-0.9375,-0.4375,-0.0625
1480527262756193,0.6875,0.0625,0
1480527262764208,-0.3125,0.25,-0.0625
1480527262787270,-0.125,0,-0.1875
1480527262809830,0.875,0.125,-0.0625
1480527262824368,0.25,0.125,0
1480527262847430,-1.1875,-0.1875,0.0625
1480527262869989,-0.6875,-0.1875,0.0625
1480527262884027,1.1875,0,-0.25
1480527262907591,1,-0.1875,-0.0625
1480527262930150,0.0625,-0.125,-0.0625
1480527262951205,-0.625,-0.0625,0.0625
1480527262967248,-0.5,0,-0.1875
1480527262989810,0.8125,-0.125,0
1480527263004348,0.75,0,0.125
1480527263027408,-0.8125,0.0625,-0.0625
1480527263050975,-0.5625,-0.0625,-0.0625
1480527263064508,0.4375,0.1875,0.375
1480527263087577,0.1875,0.0625,0.125
1480527263110129,0.125,-0.25,-0.25
1480527263131184,0.9375,0.0625,-0.3125
1480527263153245,-0.125,-0.0625,-0.5
1480527263170289,-0.5,-0.5,-0.125
1480527263190845,0.3125,-0.1875,0.0625
1480527263207388,-0.375,-0.125,0.125
1480527263230950,-0.1875,0,0
1480527263251006,0.125,-0.1875,0.25
1480527263275068,0.125,-0.25,0.0625
1480527263290107,-0.1875,0.125,0.0625
1480527263312682,-0.75,-0.0625,-0.0625
1480527263327206,-0.125,-0.125,-0.1875
1480527263349766,0.4375,0.25,0
1480527263370822,-0.5625,-0.25,-0.4375
1480527263387366,0.25,-0.25,0.25
1480527263410428,0.125,-0.1875,0.0625
1480527263430982,0,0.0625,0.125
1480527263447526,0,0.125,-0.125
1480527263470086,0.9375,-0.25,0
1480527263491142,0.125,-0.125,0.1875
1480527263507687,-0.875,0.125,-0.5625
1480527263529744,-0.3125,-0.1875,-0.125
1480527263552305,1.0625,0.125,-0.25
1480527263567345,0,-0.125,-0.1875
1480527263589906,0.6875,0,0.0625
1480527263612966,0.3125,0,0.0625
1480527263627505,-0.625,0.125,0.0625
1480527263650566,-0.375,0.1875,-0.5
1480527263680646,0.5,0,0.25
1480527263694684,0.5625,0.125,0.1875
1480527263709724,-0.0625,-0.3125,0.1875
1480527263732284,0.5625,-0.0625,-0.625
1480527263753339,0.5625,-0.25,-0.25
1480527263769883,0.3125,-0.4375,-0.375
1480527263792443,-0.75,-0.5625,-0.0625
1480527263806982,-0.3125,0,-0.25
1480527263830044,-0.6875,0,-0.125
1480527263853108,0.25,-0.5,0.375
1480527263866640,0.9375,-0.3125,0.25
1480527263889703,-0.3125,-0.3125,0.1875
1480527263912262,0.375,-0.25,-0.125
1480527263926801,0.375,-0.3125,0.125
1480527263949862,0.3125,-0.1875,0
1480527263972425,-0.5,0,-0.0625
1480527263993479,-0.375,-0.1875,-0.125
1480527264010023,0.375,-0.125,-0.1875
1480527264032582,0,-0.0625,0.25
1480527264046620,-0.375,-0.1875,0.1875
1480527264070182,0.0625,-0.375,-0.125
1480527264106781,0.5625,-0.5,-0.0625
1480527264113297,0.1875,-0.4375,-0.25
1480527264129841,-0.25,-0.4375,0
1480527264158417,0.25,-0.1875,-0.1875
1480527264173458,0.25,-0.4375,0.0625
1480527264190001,0.8125,-0.25,0
1480527264212563,0.1875,-0.3125,0.0625
1480527264233617,-0.375,-0.1875,-0.0625
1480527264249660,-0.0625,-0.3125,0
1480527264272220,1,-0.25,0
1480527264293276,0.75,-0.125,0.125
1480527264310321,0.0625,-0.1875,0.125
1480527264332380,0.1875,-0.4375,-0.1875
1480527264353449,0.8125,-0.3125,-0.4375
1480527264369980,1.1875,-0.4375,-0.125
1480527264392540,-0.125,-0.4375,-0.375
1480527264421116,-0.4375,-0.4375,-0.125
1480527264430140,0.875,-0.3125,0
1480527264453201,1.25,-0.3125,0
1480527264473255,0.25,-0.375,0.25
1480527264489798,-0.1875,-0.375,0.125
1480527264512359,0.75,-0.3125,0.125
1480527264535921,0.75,0.3125,-0.0625
1480527264549958,-0.5,0.125,-0.1875
1480527264572520,-0.625,0.25,0
1480527264595078,0.0625,0.25,0.1875
1480527264610620,0.5,0.1875,0
1480527264632178,-0.4375,0.4375,-0.0625
1480527264654741,-0.0625,0.375,-0.125
1480527264669276,0.6875,0.125,-0.0625
1480527264692338,0.6875,0,-0.125
1480527264714897,-0.4375,-0.0625,-0.25
1480527264729435,-0.8125,0.3125,-0.125
1480527264752497,0.375,0.1875,-0.125
1480527264775057,1.5625,0.0625,-0.25
1480527264789096,0.1875,-0.0625,-0.3125
1480527264812658,-0.375,0.1875,-0.125
1480527264835718,-0.125,0.3125,-0.125
1480527264849255,-0.125,0.125,-0.1875
1480527264872317,0.25,0.0625,-0.25
1480527264895377,-0.0625,0.25,0.0625
1480527264909415,0.0625,0.1875,0.0625
1480527264932476,0.5625,0.125,-0.25
1480527264955040,-0.4375,0.375,-0.3125
1480527264969074,0.125,-0.0625,-0.0625
1480527264998652,-0.0625,-0.0625,-0.3125
1480527265014694,-0.8125,-0.4375,-0.25
1480527265036252,0.125,-0.25,-0.3125
1480527265052796,0.625,-0.125,0.1875
1480527265082375,0,-0.3125,0.125
1480527265095910,-0.75,-0.4375,-0.0625
1480527265112456,-0.0625,-0.5625,0.125
1480527265136017,1.0625,-0.375,-0.125
1480527265156073,-0.125,0.0625,-0.1875
1480527265179633,-0.9375,0,0
1480527265195175,-0.6875,0.0625,0.25
1480527265215729,0.8125,-0.1875,-0.3125
1480527265233276,0.5625,0.0625,0.0625
1480527265254836,-0.875,0.125,0.0625
1480527265275891,-0.5625,-0.25,0.125
1480527265292434,0.625,-0.1875,-0.0625
1480527265314993,0.125,-0.1875,-0.1875
1480527265336552,-0.5,-0.3125,-0.0625
1480527265354098,0.1875,-0.25,-0.125
1480527265375154,0.9375,-0.0625,-0.25
1480527265396210,0.125,-0.1875,-0.1875
1480527265412252,-0.1875,-0.3125,-0.125
1480527265435815,0.0625,-0.25,0
1480527265455872,0.125,-0.1875,-0.25
1480527265472413,0.5,-0.0625,-0.1875
1480527265494973,-0.5625,0.1875,-0.0625
1480527265517533,-0.4375,0.0625,-0.1875
1480527265532572,0.375,-0.0625,-0.3125
1480527265555634,1,-0.1875,-0.375
1480527265577191,0.4375,-0.125,-0.25
1480527265592231,0,-0.1875,-0.6875
1480527265614794,-0.6875,-0.5625,-0.3125
1480527265637852,0.1875,-0.4375,-0.25
1480527265659910,0.4375,-0.4375,0.25
1480527265674950,0.875,-0.5,0.125
1480527265703527,0.25,-0.25,-0.25
1480527265718566,0.25,-0.125,-0.125
1480527265735613,0.1875,-0.25,-0.0625
1480527265757671,-0.3125,-0.0625,-0.0625
1480527265771709,0.5,-0.1875,-0.1875
1480527265794769,0.8125,-0.125,0
1480527265817330,0.25,0,0
1480527265832370,-0.75,0,-0.125
1480527265854933,-0.75,-0.0625,0.0625
1480527265877490,0.375,-0.25,-0.0625
1480527265892028,0.6875,-0.125,0
1480527265915090,0,0.125,0
1480527265937651,-0.6875,-0.4375,-0.1875
1480527265958206,0.0625,-0.25,-0.125
1480527265974753,0.1875,-0.125,-0.0625
1480527265997810,-0.3125,0.1875,-0.0625
1480527266019869,-0.5625,-0.0625,0
1480527266036914,-0.1875,0.125,-0.125
1480527266057469,-0.0625,0.125,-0.0625
1480527266078525,-0.25,-0.0625,0.25
1480527266101084,-0.5625,0.25,0.1875
1480527266117628,-0.5,0.25,0.3125
1480527266146204,-0.125,0.125,0.375
1480527266156232,0.25,0.125,0.375
1480527266178290,0.25,-0.0625,-0.125
1480527266182801,0.1875,-0.1875,-0.0625
1480527266214887,0,0.0625,-0.125
1480527266244968,-0.5,-0.0625,-0.125
1480527266260008,-0.5,-0.0625,0
1480527266275050,0.3125,-0.0625,0.0625
1480527266297607,0.1875,-0.0625,0.4375
1480527266319165,-0.0625,-0.3125,0.1875
1480527266335708,0,-0.1875,0.125
1480527266363281,0.3125,-0.0625,0.0625
1480527266378322,0,-0.25,0
1480527266394866,-0.0625,-0.125,0.0625
1480527266423442,0.0625,-0.1875,0.125
1480527266439986,0.3125,0.125,0.1875
1480527266455026,-0.25,0.125,-0.0625
1480527266478087,-0.125,0,-0.25
1480527266500146,-0.1875,-0.125,0
1480527266514684,0.125,-0.25,0.0625
1480527266543262,-0.125,-0.0625,-0.125
1480527266576349,0.1875,-0.375,-0.125
1480527266581361,0.75,-0.0625,-0.1875
1480527266583368,0.3125,-0.25,0
1480527266602919,0.3125,0.0625,-0.125
1480527266625480,-0.3125,0.125,-0.25
1480527266641523,0.125,0.125,0
1480527266664082,0.4375,0.1875,0.125
1480527266685137,-0.625,0.25,-0.0625
1480527266701682,-0.6875,0.0625,-0.125
1480527266722739,0.75,0.0625,0
1480527266745298,-0.1875,0.1875,0.1875
1480527266769362,-0.4375,0.125,0
1480527266782898,-0.1875,0,0
1480527266806964,0.375,0,-0.375
1480527266821501,0.0625,-0.0625,-0.1875
1480527266842557,-0.25,0.125,-0.125
1480527266865116,-0.5,0.0625,-0.3125
1480527266883165,-0.9375,0.625,-0.3125
1480527266902717,-1,0.9375,0.125
1480527266925277,-0.5625,1.0625,0.1875
1480527266944124,0.0625,1.25,0.125
1480527266962877,-0.3125,0.9375,-0.4375
1480527266985436,-0.625,0.1875,-0.4375
1480527267007997,0.9375,0.25,-0.375
1480527267023036,-0.25,0.625,-0.5625
1480527267045095,-0.5625,0.125,-0.25
1480527267061639,0.0625,-0.0625,0.1875
1480527267085703,-0.5625,0,0.25
1480527267105256,-0.375,0.125,0.1875
1480527267127815,0.5625,0.0625,0.0625
1480527267142856,0.5,-0.0625,-0.125
1480527267165415,-0.5625,0.1875,0
1480527267182962,-1.0625,0.125,-0.0625
1480527267203016,0.4375,0.1875,0
1480527267225575,0.8125,0.4375,0
1480527267247635,-1.125,-0.125,0.4375
1480527267262674,0.625,-0.125,0.1875
1480527267285234,0.0625,0.4375,0
1480527267307795,-0.75,0.25,-0.125
1480527267322834,0.5625,-0.25,0.1875
1480527267345394,0.125,-0.0625,0.3125
1480527267367954,-1.0625,0.1875,-0.1875
1480527267382994,0.1875,0.125,-0.25
1480527267412572,1.125,0.25,-0.1875
1480527267429117,-0.75,-0.3125,0.375
1480527267442652,0.3125,0.125,0
1480527267465213,0.1875,0.25,-0.0625
1480527267487789,0.75,0.125,-0.125
1480527267502813,-0.1875,-0.1875,-0.125
1480527267525373,-0.625,-0.6875,0.3125
1480527267547933,0.375,-0.25,0.25
1480527267579015,0.9375,0.5,0.0625
1480527267585031,0.25,0.0625,0
1480527267607591,-0.125,-0.3125,0.0625
1480527267622638,-0.125,-0.5,0
1480527267648200,0.0625,-0.25,-0.0625
1480527267667751,0.625,-0.25,-0.3125
1480527267685800,0.875,-0.375,0.1875
1480527267706856,0.1875,-1.25,0.1875
1480527267727911,0.875,0.0625,0.1875
1480527267742951,-0.8125,0.125,-0.0625
1480527267765512,0.0625,-0.125,0.0625
1480527267788074,0.4375,0,-0.25
1480527267802610,0.6875,-0.125,0
1480527267825170,-0.125,-0.25,-0.25
1480527267847730,0.125,-0.1875,-0.375
1480527267863271,0.1875,-0.0625,-0.3125
1480527267885330,-0.6875,-0.1875,0
1480527267907890,0.8125,-0.75,0.75
1480527267922931,1,0.375,0.25
1480527267945490,-2.125,-0.0625,0
1480527267968050,-0.125,0,0
1480527267984093,0.75,-0.375,0.1875
1480527268005651,0.625,-0.3125,0.25
1480527268036734,-1.1875,-0.25,0.1875
1480527268051774,0.1875,-0.3125,0.25
1480527268065309,0.875,-0.375,0.4375
1480527268095891,0.25,-0.1875,0.0625
1480527268104414,-0.375,-0.25,0.0625
1480527268132989,-0.5,-0.8125,-0.0625
1480527268147529,1.3125,-0.4375,0.9375
1480527268164072,0,0.5,-0.375
1480527268193151,-1.75,0.0625,0.0625
1480527268215709,0.6875,-0.125,-0.375
1480527268224234,0.5,-0.25,0.125
1480527268245289,-0.5,-0.125,-0.0625
1480527268267848,-0.25,-0.0625,0.125
1480527268290409,1,-0.1875,-0.125
1480527268315976,-0.0625,-0.1875,0.1875
1480527268329012,-0.6875,-0.3125,0.0625
1480527268346057,0.3125,-0.125,0.25
1480527268365106,0.5,0.125,-0.0625
1480527268396691,0.0625,0.0625,0
1480527268411731,-0.3125,-0.0625,-0.0625
1480527268425271,-0.5,-0.1875,-0.1875
1480527268449331,-0.125,0.0625,0.125
1480527268465885,0.75,0.0625,0.125
1480527268485427,-0.1875,0.125,0.25
1480527268515507,-0.1875,0.1875,-0.1875
1480527268526035,-0.1875,0.125,-0.0625
1480527268552607,0.1875,0,-0.125
1480527268567645,0.0625,0.125,-0.0625
1480527268585693,-0.4375,0.1875,-0.125
1480527268612765,-0.375,0.1875,-0.25
1480527268627809,0.0625,0.0625,-0.1875
1480527268645854,0,0.125,0.3125
1480527268665405,-1.3125,0.5625,-0.0625
1480527268689471,-1.75,0.5625,-0.25
1480527268710525,0.625,0.3125,-0.25
1480527268725569,0.75,-0.1875,0
1480527268747624,-0.625,-0.125,-0.1875
1480527268770184,-0.375,0,0.125
1480527268785224,0.875,0.0625,0.125
1480527268809789,0.9375,-0.125,0.0625
1480527268830345,0.375,-0.1875,0.0625
1480527268846995,-0.1875,-0.4375,-0.0625
1480527268867945,0.1875,-0.4375,0.125
1480527268892014,0.875,-0.25,0.3125
1480527268905043,0.8125,-0.0625,0.25
1480527268930612,-0.25,-0.3125,-0.1875
1480527268950162,0.125,-0.25,-0.125
1480527268966706,0.3125,-0.0625,0.125
1480527268987763,0.25,-0.0625,0.0625
1480527269010323,0.125,-0.25,0.0625
1480527269034888,0.9375,-0.4375,-0.0625
1480527269047924,1,-0.5,0
1480527269073493,-0.3125,-0.4375,-0.0625
1480527269086526,-0.3125,-0.375,-0.125
1480527269107582,0.375,-0.375,0
1480527269130149,0.625,-0.5,0.25
1480527269146691,-0.375,-0.5,0.4375
1480527269167747,-0.875,0.1875,-0.1875
1480527269190321,-1.6875,0.625,-0.5625
1480527269206851,-1.9375,0.8125,-0.5625
1480527269229414,-1.0625,0.875,-0.0625
1480527269250467,-0.1875,0.625,-0.3125
1480527269268014,-0.6875,0.125,-0.125
1480527269287567,-0.4375,0.0625,0.3125
1480527269310127,0.1875,0.5625,0.3125
1480527269328178,0.0625,0.3125,0.1875
1480527269347725,-0.25,0.125,-0.1875
1480527269370287,0.5625,0,0.0625
1480527269388838,0.25,0.0625,0.0625
1480527269407886,-0.875,0.125,0
1480527269430445,0.0625,0.0625,0.3125
1480527269447993,0.9375,0.0625,0.125
1480527269468048,0.625,0.0625,-0.125
1480527269490106,-0.375,-0.0625,-0.125
1480527269508154,-0.5625,0.0625,0.25
1480527269527705,0.3125,-0.25,0.3125
1480527269550265,0.875,-0.25,0
1480527269568312,0.6875,-0.3125,-0.0625
1480527269587865,-0.125,-0.375,0.0625
1480527269610425,-0.5,-0.125,0.125
1480527269627972,0.5,-0.1875,0
1480527269647524,0.6875,-0.0625,0.25
1480527269670084,0.1875,-0.0625,-0.0625
1480527269688134,-0.0625,-0.25,-0.0625
1480527269707683,0.25,-0.125,-0.0625
1480527269733251,0.3125,-0.125,0.0625
1480527269748293,0.4375,-0.1875,0.125
1480527269767843,0.25,-0.0625,0.1875
1480527269790404,0.125,-0.0625,0.0625
1480527269807951,-0.5625,-0.0625,-0.375
1480527269828004,-0.5625,0.0625,-0.5625
1480527269850062,-0.3125,0.0625,-0.4375
1480527269868110,-0.5625,0,-0.625
1480527269904210,-2.5,1.0625,-0.0625
1480527269910222,-2.375,1.25,0.375
1480527269928270,-0.8125,0.75,0.3125
1480527269950329,-0.0625,0.25,0.25
1480527269970384,-0.5625,0.25,-0.0625
1480527269988430,-1,0.5,-0.0625
1480527270009486,-0.0625,0.5625,0.1875
1480527270030041,0.6875,0.4375,-0.125
1480527270049208,0.5,0.125,0.1875
1480527270069145,0.125,-0.0625,0.3125
1480527270090201,0.8125,-0.0625,0
1480527270108249,1.0625,-0.25,-0.125
1480527270129305,1.0625,-0.4375,0.0625
1480527270150360,0.9375,-0.5625,0.125
1480527270175428,0.875,-0.5,-0.0625
1480527270189466,0.875,-0.75,-0.375
1480527270213028,1.125,-0.8125,-0.125
1480527270236590,0.375,-0.5,0.125
1480527270250629,-0.5,-0.4375,-0.3125
1480527270270183,0,-0.6875,-0.1875
1480527270292740,1.125,-0.5625,-0.3125
1480527270310790,0.375,-0.3125,0.125
1480527270337862,-0.1875,-0.375,0
1480527270355908,0.5,-0.1875,0.125
1480527270376966,0.8125,0.0625,0
1480527270393007,0.125,0.125,-0.25
1480527270412559,-0.0625,-0.375,0.0625
1480527270430607,0.8125,-0.0625,-0.4375
1480527270450158,0.9375,-0.1875,-0.1875
1480527270472718,0.3125,0.0625,-0.5
1480527270490767,-0.5,-0.3125,-0.3125
1480527270510318,0.625,0.0625,0.25
1480527270535385,0.125,-0.0625,0.1875
1480527270555438,0.9375,-0.5625,0.3125
1480527270570483,1.3125,0.5625,0.125
1480527270592538,-2.0625,0,-0.3125
1480527270610586,-0.1875,0.0625,-0.1875
1480527270630137,0.4375,-0.0625,-0.0625
1480527270663225,0.1875,0.5625,0
1480527270670748,-0.8125,0.4375,-0.0625
1480527270691801,0.375,0,-0.25
1480527270712857,0.875,0.0625,-0.125
1480527270730906,-0.1875,0.125,0.3125
1480527270750458,-0.25,0.25,0.3125
1480527270773033,0.25,0.125,0.125
1480527270790565,0.6875,0,-0.125
1480527270810116,0.1875,0.1875,0
1480527270832676,-0.125,0,0.125
1480527270850723,-0.4375,0.0625,0.0625
1480527270872282,0.75,0.0625,0.0625
1480527270892835,0.375,0.1875,-0.0625
1480527270910884,-0.5,0,-0.125
1480527270931940,-0.75,-0.0625,0
1480527270952997,0.3125,0.125,0.125
1480527270978062,0.125,0.1875,0.1875
1480527270997615,0.0625,0.1875,0.0625
1480527271014158,-0.25,0.25,0.125
1480527271030702,0.1875,-0.1875,-0.375
1480527271053264,0.625,-0.125,-0.1875
1480527271072815,0.625,-0.1875,-0.0625
1480527271090863,0.125,-0.125,-0.25
1480527271112419,-0.25,-0.4375,0.125
1480527271132976,-0.1875,-0.125,0.125
1480527271150521,0.1875,-0.25,0.3125
1480527271173082,0.375,-0.1875,0.125
1480527271192634,0.125,-0.125,0
1480527271210682,0.375,-0.0625,0.0625
1480527271233241,-0.25,0.0625,-0.0625
1480527271252794,-0.8125,-0.0625,-0.125
1480527271282873,0.1875,-0.125,0.0625
1480527271293401,1.25,0,0.25
1480527271313956,0.4375,0.0625,-0.125
1480527271330500,-0.875,-0.125,0.125
1480527271353060,-0.875,-0.125,0.3125
1480527271372612,0.4375,-0.25,0.3125
1480527271390660,0.8125,0.125,-0.0625
1480527271413220,0.1875,0,-0.1875
1480527271432772,-0.625,-0.4375,0
1480527271451322,0.375,-0.5,0.3125
1480527271473381,0.875,0.1875,0
1480527271492932,0.6875,-0.0625,-0.0625
1480527271511200,0.125,-0.1875,0
1480527271533039,0.0625,-0.25,0.125
1480527271552591,-0.1875,0.1875,0.1875
1480527271570640,-0.1875,-0.0625,0.0625
1480527271593199,-0.0625,-0.25,0.0625
1480527271612752,0.5,0.125,0.1875
1480527271635311,-0.3125,0.125,0.3125
1480527271653359,-0.5,-0.125,-0.0625
1480527271675417,0.25,0.0625,-0.0625
1480527271702994,0.5625,-0.125,0.0625
1480527271713023,-0.125,-0.3125,0
1480527271732569,-0.125,-0.3125,0.3125
1480527271755131,-0.25,-0.125,0.25
1480527271773178,0.25,0.0625,0.125
1480527271794233,0.0625,0.125,0.25
1480527271815289,-0.75,0,0.25
1480527271833337,-0.3125,0.125,0.3125
1480527271854393,0.375,0.1875,0.0625
1480527271875450,-0.5,0.375,-0.1875
1480527271892996,-0.3125,0.3125,0
1480527271914053,0,0.4375,0.125
1480527271936613,0.25,0.3125,-0.1875
1480527271953157,-0.3125,0.375,-0.5
1480527271975717,-0.1875,-0.0625,-0.1875
1480527271995268,0.0625,0.0625,0
1480527272013316,-0.125,0.25,-0.125
1480527272034873,0.5625,0,-0.4375
1480527272055428,0.5625,-0.125,-0.25
1480527272080495,0.375,-0.1875,-0.0625
1480527272094031,0,0,-0.0625
1480527272115087,0.5,0.0625,-0.25
1480527272133135,0.5,0,-0.4375
1480527272155695,0.3125,-0.0625,0
1480527272175247,-0.3125,0.1875,-0.25
1480527272193297,-0.375,0.125,-0.3125
1480527272228889,0.1875,0.125,-0.3125
1480527272235408,0.4375,0.125,-0.0625
1480527272252956,-0.0625,0.1875,-0.0625
1480527272275514,0.375,0.125,-0.25
1480527272295067,0.5,0.125,-0.25
1480527272321139,0.375,0.125,0
1480527272336681,-0.4375,0.125,-0.25
1480527272362746,-0.5625,0.0625,-0.1875
1480527272373276,-0.125,0.1875,0.0625
1480527272395834,-0.8125,-0.25,0.1875
1480527272415386,0.5,0.0625,0.3125
1480527272433434,-0.0625,-0.1875,0.25
1480527272455994,0.8125,-0.0625,0.0625
1480527272475045,-0.3125,0.0625,0
1480527272493594,-1.375,-0.0625,-0.1875
1480527272515653,-1.75,0.125,-0.5625
1480527272535706,0.5,0.1875,-0.5625
1480527272553757,0.125,-0.125,-0.4375
1480527272575812,-1.8125,-0.1875,-0.6875
1480527272612622,-2.125,-0.375,-0.0625
1480527272614920,0.625,0.125,-0.1875
1480527272636479,0.25,-0.1875,0.6875
1480527272655023,1.375,-0.5,0.0625
1480527272673071,0.625,-0.25,0.25
1480527272711174,-0.3125,-0.25,0
1480527272716688,-0.375,-0.0625,0.1875
1480527272733231,1.1875,0.0625,0.25
1480527272755791,1.5,-0.1875,0.3125
1480527272776848,-0.0625,-0.4375,0.0625
1480527272792890,-0.375,-0.6875,-0.125
1480527272815450,0.875,-0.5,0.1875
1480527272837008,1.375,-0.5625,0.25
1480527272854075,0.875,-0.6875,0.25
1480527272875610,0.4375,-0.625,-0.1875
1480527272896666,0.3125,-0.625,-0.625
1480527272913712,1.875,-0.6875,-0.0625
1480527272937277,1.3125,-0.5,-0.0625
1480527272956826,-0.875,-0.375,-0.25
1480527272979386,-1.1875,-0.4375,-0.25
1480527272995428,1.0625,-0.5,0.3125
1480527273023004,1.5625,-0.125,0.4375
1480527273045060,-0.75,0.3125,0.0625
1480527273055589,-0.625,0.0625,-0.1875
1480527273078347,0.25,-0.1875,0.125
1480527273093189,0.625,-0.3125,0.3125
1480527273115749,-0.125,-0.1875,0.1875
1480527273138309,0.3125,-0.1875,0.125
1480527273157860,0,0.375,0.3125
1480527273175408,-0.75,0.4375,0
1480527273197967,-1.0625,0.125,0.125
1480527273218522,-0.125,-0.125,0.3125
1480527273236578,0.25,-0.125,0.3125
1480527273258127,0.25,0.1875,0.0625
1480527273279183,-0.4375,0.4375,-0.0625
1480527273295729,-1.25,0.25,-0.1875
1480527273325808,-0.4375,0.125,-0.0625
1480527273338341,0.25,0.0625,0.25
1480527273355386,0.0625,0.3125,0.0625
1480527273385971,-0.75,0.4375,-0.125
1480527273398500,-0.0625,0.0625,-0.25
1480527273415045,0,0,0.125
1480527273437105,-0.5,0.0625,0.0625
1480527273458159,-0.875,0.1875,0.25
1480527273475205,0.5,0.125,0.3125
1480527273497263,0.3125,0.375,0.0625
1480527273518319,-0.5,0.1875,-0.0625
1480527273535872,0,-0.25,-0.125
1480527273557423,1,-0.125,-0.0625
1480527273578480,1,0.0625,-0.375
1480527273595024,-0.1875,0,-0.3125
1480527273617583,-0.5625,-0.125,0.3125
1480527273638138,-0.625,-0.125,0.3125
1480527273662202,0.3125,-0.1875,0.3125
1480527273677745,0.875,-0.125,0.0625
1480527273698799,0.75,-0.1875,0.0625
1480527273714843,-0.125,0,0.0625
1480527273737402,-0.125,-0.3125,0
1480527273775504,0.1875,-0.3125,0.125
1480527273778010,0.8125,-0.0625,0.0625
1480527273797562,-0.1875,0.4375,0
1480527273818618,-0.125,0.125,-0.3125
1480527273835669,-0.25,0.0625,-0.0625
1480527273857722,-0.375,-0.1875,0.3125
1480527273878469,-0.0625,-0.25,0.3125
1480527273894827,0.8125,0.0625,0.1875
1480527273917381,0.25,-0.0625,-0.125
1480527273937937,-0.25,-0.1875,-0.25
1480527273954982,-0.8125,-0.25,0.0625
1480527273977541,0.4375,-0.25,0.125
1480527273999600,1,0,-0.0625
1480527274022160,0.0625,0,-0.125
1480527274043215,-0.5,0.1875,-0.25
1480527274059760,0.0625,0.25,-0.125
1480527274074800,0.25,0.0625,-0.0625
1480527274097360,-0.25,-0.1875,0
1480527274119920,0.125,-0.1875,0
1480527274135968,0.5,-0.3125,0
1480527274157519,0.25,-0.1875,-0.0625
1480527274179578,0.1875,-0.1875,-0.1875
1480527274194117,0.3125,-0.3125,0
1480527274217178,1.0625,-0.1875,-0.0625
1480527274239738,-0.875,-0.3125,-0.125
1480527274254278,0.25,0,0
1480527274277840,0.125,-0.1875,-0.0625
1480527274299899,0.125,-0.1875,-0.25
1480527274322460,-0.0625,-0.0625,-0.4375
1480527274338001,-0.25,0.125,0
1480527274360058,-0.6875,0.1875,-0.125
1480527274374096,-0.3125,0.0625,-0.25
1480527274397157,0.5625,0.1875,0.125
1480527274427738,-0.25,0.0625,0.25
1480527274436763,0.375,-0.125,-0.4375
1480527274457318,1,0.0625,-0.625
1480527274479379,0.125,-0.125,-0.4375
1480527274500933,-1,-0.3125,-0.5
1480527274517478,0.0625,-0.5,0.125
1480527274540037,0.9375,-0.0625,0.125
1480527274561096,-0.1875,0.0625,0.0625
1480527274577786,-0.25,-0.125,0.0625
1480527274606213,-0.1875,-0.25,-0.0625
1480527274620752,0.3125,-0.1875,-0.25
1480527274643312,0.5625,-0.125,-0.125
1480527274660357,-0.125,0.0625,-0.125
1480527274680912,-0.5,-0.1875,-0.0625
1480527274697456,0.0625,-0.3125,0.1875
1480527274720016,-0.25,-0.0625,-0.125
1480527274757616,-0.25,0.125,-0.25
1480527274760123,-0.3125,0.25,-0.0625
1480527274779675,0,-0.125,0.125
1480527274800731,0.25,-0.4375,0.4375
1480527274817275,0.1875,0.125,-0.5
1480527274839836,-0.75,0.1875,-0.3125
1480527274862394,0.6875,0,0
1480527274878496,0.5,0,0.1875
1480527274899995,0,0.0625,-0.0625
1480527274921051,-0.3125,-0.25,-0.1875
1480527274937093,0.625,-0.3125,0.25
1480527274967174,0.5,-0.375,0.1875
1480527274982213,0.0625,0,-0.1875
1480527275004773,0.0625,-0.125,0.0625
1480527275027333,0.5,-0.25,0.1875
1480527275042876,-0.1875,0,0.125
1480527275058918,-0.4375,-0.125,0.125
1480527275079974,0.0625,-0.1875,0
1480527275102535,0.125,-0.0625,0.125
1480527275123589,-0.5,0.125,0
1480527275153168,-0.0625,-0.25,0.3125
1480527275178737,0.5,-0.125,0.25
1480527275183248,-0.125,0.25,0.1875
1480527275199793,-0.25,0.25,0.1875
1480527275222353,-0.1875,0.125,0
1480527275236892,0.5,0.25,-0.3125
1480527275267974,-0.0625,0.3125,-0.25
1480527275282513,-0.4375,0.0625,-0.625
1480527275311091,-0.0625,-0.0625,-0.125
1480527275327131,0.4375,0.0625,0.0625
1480527275342677,0.0625,0,-0.125
1480527275356709,-0.1875,0,-0.3125
1480527275387291,-0.125,-0.125,-0.375
1480527275402331,0.0625,-0.0625,-0.3125
1480527275430907,-0.0625,-0.0625,-0.0625
1480527275439931,-0.5625,-0.125,-0.125
1480527275462491,0.1875,0.0625,-0.25
1480527275485051,0.75,-0.1875,-0.125
1480527275499590,0.1875,-0.1875,-0.1875
1480527275522150,-0.5,-0.125,-0.25
1480527275545212,0.1875,-0.1875,-0.125
1480527275559750,0.9375,-0.0625,-0.1875
1480527275582310,0.3125,0,-0.125
1480527275603366,-0.6875,0,-0.1875
1480527275619910,-0.375,-0.125,-0.4375
1480527275642971,0.5,0.125,-0.3125
1480527275663527,0.125,0.25,-0.1875
1480527275679568,-0.625,0.125,0.125
1480527275715664,-0.3125,0.125,0.125
1480527275724689,-0.25,0.375,-0.125
1480527275739728,-0.8125,0.375,-0.1875
1480527275762289,-0.4375,0,-0.125
1480527275783348,-0.1875,0.0625,-0.1875
1480527275820443,-0.3125,0.125,0
1480527275831473,0.0625,0,0.3125
1480527275843505,-0.1875,0.125,0.125
1480527275866064,-0.375,-0.0625,-0.125
1480527275882107,-0.375,0,0.125
1480527275903163,0.3125,-0.0625,0.6875
1480527275919712,0.25,0,0.3125
1480527275942268,-0.0625,0.1875,-0.0625
1480527275964828,0.0625,-0.0625,-0.3125
1480527275985884,0.0625,0.0625,-0.1875
1480527276009948,-0.9375,0.25,-0.4375
1480527276031003,-0.875,0.0625,-0.1875
1480527276040027,-0.3125,0.125,0.125
1480527276062086,0.3125,0,0.25
1480527276084646,-0.1875,0.1875,0.125
1480527276099185,-0.4375,0,0
1480527276122247,0,0,0.125
1480527276144806,0.5,-0.0625,-0.1875
1480527276159345,-0.375,0.0625,-0.125
1480527276182406,-0.8125,0.1875,-0.1875
1480527276205467,-0.375,0.125,-0.125
1480527276219005,0.6875,0.0625,-0.0625
1480527276248081,0.25,-0.0625,-0.125
1480527276265126,-0.375,0,0.125
1480527276279163,-0.5625,0,0.125
1480527276302225,0.0625,0,-0.125
1480527276324785,0.375,0,-0.25
1480527276339324,0.1875,-0.125,-0.375
1480527276362385,-0.5,-0.0625,0.125
1480527276384945,-0.0625,0.125,0.0625
1480527276406000,0.375,0.1875,-0.1875
1480527276422546,0.25,0.1875,-0.3125
1480527276444604,-0.25,0.125,-0.1875
1480527276465661,-0.6875,0.0625,-0.1875
1480527276482210,0,0.0625,-0.125
1480527276504763,0.75,-0.125,-0.0625
1480527276525820,0.1875,-0.1875,0
1480527276542363,-0.25,0,0.125
1480527276564927,-0.125,0,0
1480527276585479,0.3125,-0.0625,0
1480527276602526,0.375,-0.125,-0.125
1480527276625083,0.5,-0.0625,-0.3125
1480527276645639,0.1875,0.0625,-0.0625
1480527276669704,0.25,-0.125,-0.0625
1480527276684742,-0.4375,-0.25,-0.25
1480527276705798,-0.3125,-0.1875,0.0625
1480527276722342,-0.0625,0.0625,0.3125
1480527276745403,0.1875,0.0625,0.1875
1480527276765959,0.125,-0.125,-0.0625
1480527276782502,-0.125,-0.1875,-0.0625
1480527276805063,0.3125,-0.375,0
1480527276825617,-0.3125,0.0625,-0.0625
1480527276842161,-0.375,0.0625,-0.1875
1480527276864721,0.4375,0,-0.0625
1480527276887281,0.8125,-0.25,0.1875
1480527276909842,-0.375,-0.125,-0.25
1480527276924881,-0.5,-0.0625,0.0625
1480527276947441,0.3125,-0.3125,0.125
1480527276962481,0.75,-0.25,0.125
1480527276985045,0.4375,-0.25,0
1480527277014620,-0.9375,-0.1875,-0.1875
1480527277021639,-0.4375,-0.1875,-0.1875
1480527277044699,0.4375,-0.125,0.125
1480527277067260,0.625,0.0625,0.125
1480527277081799,-0.125,-0.125,-0.25
1480527277104860,-0.3125,-0.3125,-0.1875
1480527277127420,0,-0.25,-0.1875
1480527277141457,-0.125,0.125,0.125
1480527277165020,-0.1875,0,0
1480527277187079,-0.0625,-0.0625,0.0625
1480527277217159,0.375,0,0.3125
1480527277224678,0.3125,0,0.125
1480527277247238,0.0625,-0.4375,-0.0625
1480527277261777,0.3125,-0.0625,-0.375
1480527277284839,0.0625,0,-0.1875
1480527277321938,-0.25,-0.0625,-0.125
1480527277331463,-0.75,-0.125,0.25
1480527277352519,-0.375,-0.3125,0.3125
1480527277368060,0.5,-0.3125,0.4375
1480527277397137,0.0625,-0.3125,0.1875
1480527277404657,-0.375,-0.4375,0.3125
1480527277427718,-0.0625,-0.4375,0.125
1480527277448273,0.25,-0.5,0.125
1480527277465318,0.0625,-0.5,0.125
1480527277494897,0.375,-0.3125,0.125
1480527277508433,0.3125,-0.125,0.1875
1480527277532497,-0.1875,-0.125,-0.125
1480527277547036,0.125,-0.1875,0.125
1480527277568598,0.125,-0.25,0.1875
1480527277584636,0.375,-0.625,0.125
1480527277607196,1.3125,-0.8125,0.1875
1480527277628254,1.1875,-1,-0.0625
1480527277644796,0.5625,-1,-0.1875
1480527277667357,0.8125,-0.875,-0.125
1480527277688412,0.875,-0.875,-0.1875
1480527277704955,0.8125,-0.9375,-0.125
1480527277727516,0.5,-0.875,0.0625
1480527277748572,0.3125,-0.875,-0.0625
1480527277764615,0.6875,-0.75,-0.125
1480527277787175,0.75,-0.5625,0.125
1480527277810236,0.4375,-0.5,0.0625
1480527277830790,0.5625,-0.625,-0.125
1480527277847836,0.6875,-0.5625,-0.4375
1480527277869895,0.625,-0.5625,-0.25
1480527277884936,0.625,-0.5625,0.0625
1480527277915015,-0.1875,-0.3125,-0.125
1480527277929553,-0.0625,-0.5,0.0625
1480527277944640,0.3125,-0.4375,0.0625
1480527277973170,0.375,-0.375,0
1480527277989714,-0.1875,-0.375,-0.0625
1480527278004258,-0.3125,-0.1875,-0.3125
1480527278027313,0.125,-0.25,0
1480527278049873,0.375,-0.0625,0.0625
1480527278064413,0.1875,0.0625,0
1480527278087475,-0.3125,0.1875,0
1480527278116049,-0.5,0.25,-0.0625
1480527278124071,0.0625,-0.125,-0.0625
1480527278147633,0.5625,-0.0625,0.0625
1480527278169692,0.1875,-0.125,0.0625
1480527278184231,0.0625,-0.3125,-0.0625
1480527278207292,-0.0625,0,-0.375
1480527278229852,-0.1875,0,-0.4375
1480527278243889,0.25,0.0625,-0.125
1480527278267452,0.0625,0.125,-0.0625
1480527278290013,0.1875,0.125,0
1480527278311068,-0.0625,0.0625,-0.125
1480527278327111,-0.3125,0.0625,-0.3125
1480527278355688,-0.25,0.3125,-0.125
1480527278370727,-0.625,0.6875,0.0625
1480527278387277,-0.375,0.25,0.25
1480527278409832,0.375,0.25,0.125
1480527278430886,0.3125,0.125,-0.1875
1480527278447431,-0.3125,-0.1875,-0.5625
1480527278469991,0.0625,-0.0625,-0.125
1480527278491046,0.1875,0.0625,-0.3125
1480527278507089,-0.125,-0.25,0
1480527278529650,0.1875,-0.25,0.1875
1480527278550705,0.0625,-0.3125,0.125
1480527278567250,-0.0625,-0.0625,0
1480527278589810,-0.375,-0.0625,0
1480527278610866,0.5625,-0.3125,0.25
1480527278627409,0.375,-0.125,0.1875
1480527278649970,-0.9375,-0.125,-0.0625
1480527278678545,-0.75,0.125,-0.1875
1480527278687069,-0.0625,0.25,0.125
1480527278710132,0.1875,0.125,0.25
1480527278732188,-0.5,-0.0625,0
1480527278747229,0,-0.1875,0.375
1480527278777309,0.1875,-0.0625,0.375
1480527278799868,-0.1875,0.0625,0.375
1480527278807388,0.0625,0.1875,0.25
1480527278835969,0,0.1875,0.4375
1480527278852508,-0.1875,-0.25,0.625
1480527278867549,1.25,-0.4375,0.4375
1480527278889607,0.3125,-0.3125,0.25
1480527278912167,-0.8125,-0.5,0.125
1480527278926706,-0.25,-0.3125,-0.1875
1480527278955783,-0.125,-0.375,0
1480527278972327,0.375,-0.125,0.1875
1480527278986866,-0.25,-0.0625,0.0625
1480527279009927,0.6875,0.0625,-0.125
1480527279032487,0.625,-0.125,-0.25
1480527279046524,0.75,-0.3125,-0.125
1480527279069592,0.3125,-0.3125,-0.1875
1480527279093148,-0.4375,-0.4375,-0.125
1480527279106684,-0.4375,-0.25,-0.0625
1480527279129746,0.5,-0.4375,0.3125
1480527279152311,0.125,-0.3125,0.25
1480527279166844,-0.125,-0.1875,0.1875
1480527279197426,-0.25,0.0625,0.0625
1480527279218488,-0.125,-0.25,-0.0625
1480527279234023,0.1875,-0.25,0.1875
1480527279264605,0.125,-0.0625,0.0625
1480527279272125,0.125,0.1875,0.0625
1480527279293180,-0.4375,0.125,0
1480527279309726,-0.3125,0,-0.1875
1480527279332284,-0.5625,0.1875,0.0625
1480527279353340,-0.4375,0.125,0.375
1480527279369885,0,0.125,0.1875
1480527279392444,-0.0625,-0.0625,-0.0625
1480527279413500,-0.3125,-0.125,-0.0625
1480527279429543,-0.5,0.1875,0
1480527279452106,0.1875,0.0625,0.125
1480527279473159,0.25,0,0.25
1480527279489703,-0.625,0.0625,-0.1875
1480527279512264,-1,0.375,-0.25
1480527279533319,0.125,0.125,0.1875
1480527279549863,0.1875,0.125,0.125
1480527279579944,-0.9375,-0.125,0.3125
1480527279593480,-0.5625,0.25,0.125
1480527279610023,0.125,0.125,0.3125
1480527279632082,0.375,0.125,0.125
1480527279653138,-0.1875,-0.125,-0.0625
1480527279670183,-0.625,-0.125,-0.125
1480527279692242,0.25,-0.0625,-0.1875
1480527279714802,0.5,0,-0.25
1480527279729842,-0.5625,0,-0.0625
1480527279752402,-1.25,-0.1875,0.125
1480527279774962,-0.3125,0,0.5
1480527279790003,0.125,0.0625,0.125
1480527279812562,0.25,0.0625,0.0625
1480527279849661,-0.8125,-0.125,0.0625
1480527279852172,0.3125,0,0.1875
1480527279872221,-0.5,0,0
1480527279894781,-0.25,-0.125,0
1480527279917341,0.25,0.125,0.0625
1480527279932380,0.3125,-0.1875,0.125
1480527279954941,-0.0625,-0.125,0
1480527279968978,-0.4375,0.0625,0.0625
1480527279993045,-0.375,-0.125,0.0625
1480527280014600,0.375,-0.25,0.125
1480527280035663,0.4375,-0.1875,0
1480527280052199,-0.0625,-0.3125,0
1480527280074759,0.3125,-0.25,-0.1875
1480527280097319,0.0625,-0.0625,-0.1875
1480527280112363,-0.3125,0.0625,0.125
1480527280135925,0.0625,0,-0.0625
1480527280155474,0.25,-0.0625,0.125
1480527280172528,-0.25,0,-0.125
1480527280202106,-0.5625,0.125,-0.125
1480527280215643,0.0625,0,-0.25
1480527280232186,0.625,-0.0625,-0.25
1480527280254746,-0.0625,0.125,-0.1875
1480527280275802,-1.0625,-0.5,-0.125
1480527280291845,0.375,-0.3125,0.1875
1480527280314907,0.8125,-0.0625,0.0625
1480527280335963,0.0625,-0.125,0.125
1480527280352507,0.3125,-0.125,0.0625
1480527280375067,0.1875,-0.3125,-0.3125
1480527280395621,0.375,-0.125,-0.3125
1480527280412166,0.6875,0,-0.25
1480527280435728,-0.1875,-0.0625,-0.1875
1480527280455781,-0.875,-0.1875,-0.125
1480527280472327,-0.0625,-0.1875,0.1875
1480527280494887,0.25,0,0.375
1480527280516442,0.1875,-0.0625,0.1875
1480527280532486,0,-0.125,0.25
1480527280555046,-0.25,0.1875,-0.5
1480527280575600,-0.25,-0.4375,0
1480527280592144,0.9375,-0.375,0.3125
1480527280614704,-0.0625,-0.125,0.3125
1480527280637264,-0.625,0,0.1875
1480527280651805,0.375,-0.25,0.0625
1480527280674866,0.75,0,0.0625
1480527280697424,-1,-0.25,0.0625
1480527280712465,-0.3125,-0.4375,0.25
1480527280735529,0.6875,-0.125,0
1480527280757083,0.0625,-0.0625,-0.0625
1480527280772123,-0.25,-0.125,-0.1875
1480527280794684,-0.125,-0.125,0.125
1480527280824763,-0.125,-0.125,0.125
1480527280831782,0.0625,0.0625,-0.0625
1480527280854843,0.25,0.375,-0.125
1480527280876902,-0.625,0,-0.1875
1480527280899963,0.5,-0.375,0.125
1480527280922022,0.6875,-0.125,-0.125
1480527280937062,-0.375,0,-0.0625
1480527280951600,-0.3125,-0.1875,-0.0625
1480527280974662,1.3125,-0.375,0.25
1480527280997221,0.8125,-0.25,-0.3125
1480527281011760,-0.75,-0.4375,-0.0625
1480527281035824,0.125,-0.375,-0.125
1480527281057882,0.5,-0.125,0.1875
1480527281071419,0,0.0625,-0.5
1480527281094981,-0.1875,-0.4375,0.1875
1480527281117541,0.8125,-0.25,0.25
1480527281138597,-0.25,0.125,0
1480527281154640,-0.25,0.1875,0.125
1480527281177201,0.0625,0.0625,0
1480527281199761,-0.1875,0.5,-0.3125
1480527281214800,-1.0625,0.25,-0.3125
1480527281237361,0.375,0.1875,0.1875
1480527281257914,-0.3125,0.25,-0.3125
1480527281274961,-0.5,0.25,-0.0625
1480527281313062,-0.8125,0.125,0.0625
1480527281318577,0,0,0.1875
1480527281335622,-0.25,0.125,0.0625
1480527281357179,-0.625,0.25,-0.3125
1480527281385756,-0.9375,0.25,-0.1875
1480527281394779,-0.5625,0.125,0.1875
1480527281417339,0.125,0.0625,-0.125
1480527281438395,0.625,0.1875,-0.1875
1480527281454939,-0.4375,0.1875,0.0625
1480527281477499,-0.625,0.0625,0
1480527281498053,0.25,0.1875,-0.0625
1480527281514599,0.3125,0.625,-0.6875
1480527281537158,-2.25,0,0.125
1480527281558214,0.125,-0.0625,-0.1875
1480527281574758,-0.0625,0.0625,-0.0625
1480527281597318,0.1875,-0.125,0.0625
1480527281627397,0.6875,0.3125,-0.0625
1480527281635920,0.125,0.0625,-0.0625
1480527281657478,-0.6875,0.25,-0.1875
1480527281679537,-0.75,0.1875,-0.125
1480527281694576,-0.125,-0.125,0.0625
1480527281717137,0.25,0.125,-0.125
1480527281739698,-0.5,0.1875,0.0625
1480527281754236,-0.625,-0.125,0.125
1480527281777629,-0.6875,-0.125,0.0625
1480527281799856,-0.375,0.375,-0.4375
1480527281814396,-0.4375,-0.125,0.1875
1480527281837958,0.6875,-0.1875,0.25
1480527281859515,-0.1875,-0.125,0.375
1480527281880572,-0.4375,0.0625,0
1480527281897115,0.0625,0.125,-0.4375
1480527281925691,0.375,0,-0.3125
1480527281934215,-0.75,0.125,-0.375
1480527281957275,-1.5625,-0.125,0.1875
1480527281980336,0.3125,-0.125,0.1875
1480527281993872,0.75,0.125,0.125
1480527282017435,-0.625,-0.0625,0.125
1480527282039995,0.125,-0.1875,0.0625
1480527282054032,0.0625,-0.0625,0
1480527282077595,0.125,-0.0625,-0.1875
1480527282099654,0.0625,-0.1875,0.1875
1480527282120710,0.1875,-0.25,0.1875
1480527282137755,-0.0625,0.0625,-0.0625
1480527282159814,-0.5625,0.25,-0.0625
1480527282180870,-0.3125,-0.125,-0.1875
1480527282203430,-0.1875,-0.0625,0.125
1480527282219974,-0.25,0,0.1875
1480527282242033,-0.375,0.25,-0.0625
1480527282257073,-0.25,0.0625,-0.1875
1480527282279633,-0.3125,0,-0.0625
1480527282308211,0,0.25,-0.25
1480527282317233,-0.875,-0.0625,0.25
1480527282347313,0.9375,0,0.1875
1480527282362353,0.25,0.5625,-0.0625
1480527282377393,-1.1875,0.25,-0.625
1480527282399956,-1,-0.0625,-0.3125
1480527282421009,-0.1875,0.125,0.0625
1480527282438054,0,0.375,0.1875
1480527282459612,0.125,0.25,-0.3125
1480527282488187,0.0625,0.0625,0.25
1480527282497211,-0.25,0.0625,0.125
1480527282527291,-0.125,0.1875,-0.3125
1480527282540827,-0.1875,0.25,-0.5625
1480527282564892,0.375,0.125,-0.375
1480527282579933,0.375,-0.0625,-0.25
1480527282602491,-0.5,-0.125,0
1480527282617031,-0.9375,-0.0625,0.0625
1480527282639591,-0.0625,0.1875,0.0625
1480527282662150,0.125,0.25,0
1480527282677191,-0.4375,0.0625,0.0625
1480527282699750,-0.3125,0.0625,-0.0625
1480527282722310,0.125,0.125,0.0625
1480527282736849,-0.1875,0.1875,-0.0625
1480527282760413,-0.875,0.1875,0
1480527282782470,-0.625,0.0625,-0.1875
1480527282796507,0.25,-0.0625,0.0625
1480527282819569,0.25,0.0625,-0.1875
1480527282842129,-0.625,0.1875,-0.0625
1480527282864690,-0.75,0.0625,0
1480527282879729,-0.25,-0.0625,0.0625
1480527282902290,0.25,0,-0.0625
1480527282916828,-0.1875,0,-0.1875
1480527282945904,-0.5,0.25,-0.3125
1480527282969969,-0.125,-0.0625,-0.125
1480527282976486,0.1875,0.0625,-0.0625
1480527283000049,-0.25,0.1875,-0.0625
1480527283022108,-0.25,0.1875,0
1480527283043164,-0.125,0.1875,-0.0625
1480527283059708,-0.375,0.1875,-0.1875
1480527283082268,-0.625,0.125,-0.4375
1480527283103324,-0.25,-0.0625,0
1480527283119868,-0.0625,-0.0625,0.125
1480527283141926,0.5,-0.3125,0.0625
1480527283163484,0.6875,-0.125,-0.5625
1480527283179526,0.75,-0.3125,-0.1875
1480527283202087,0.1875,-0.25,-0.3125
1480527283223142,-0.375,-0.0625,-0.0625
1480527283239687,0.0625,0.0625,0.0625
1480527283262247,-0.375,0,0.0625
1480527283283303,0.0625,-0.25,0.1875
1480527283299847,0.0625,-0.1875,0.1875
1480527283322408,0.5,-0.125,-0.0625
1480527283343462,0.3125,-0.25,-0.125
1480527283360008,-0.4375,-0.375,-0.25
1480527283382066,0.0625,-0.4375,-0.1875
1480527283403121,0.1875,-0.25,0.0625
1480527283427185,0.3125,-0.25,-0.375
1480527283442225,-0.25,-0.125,-0.25
1480527283463281,-0.125,-0.125,0
1480527283479324,0.6875,-0.25,0.125
1480527283502386,0.4375,-0.0625,-0.0625
1480527283524945,-0.125,-0.1875,-0.4375
1480527283539985,-0.0625,-0.25,-0.25
1480527283562545,0.6875,-0.25,-0.1875
1480527283584607,1.0625,-0.0625,0.0625
1480527283599644,-0.125,0.0625,-0.1875
1480527283622205,0,-0.1875,-0.5
1480527283644765,0.5625,-0.0625,-0.4375
1480527283659302,-0.1875,-0.125,-0.25
1480527283682364,-0.25,-0.0625,-0.0625
1480527283704924,-0.375,-0.125,0
1480527283718961,0.4375,-0.125,-0.0625
1480527283742525,0.875,-0.1875,-0.1875
1480527283770600,0.0625,-0.4375,-0.375
1480527283780625,-0.1875,-0.4375,-0.25
1480527283802183,0.625,-0.5,-0.0625
1480527283824743,0.125,-0.4375,-0.1875
1480527283839282,-0.625,-0.25,0.1875
1480527283862343,0.0625,-0.375,0.1875
1480527283884903,0.125,-0.5,0.3125
1480527283898942,-0.4375,-0.5625,0
1480527283922503,-0.375,-0.625,-0.125
1480527283944885,0.125,0.0625,0.1875
1480527283959100,-0.625,-1.125,-0.4375
1480527283982165,0.9375,-1.4375,1.0625
1480527284019260,1.8125,2,0.5
1480527284025778,-3.8125,1.5,-0.5
1480527284042321,-2.375,-0.375,-0.5625
1480527284064881,1.5,-0.5625,0.375
1480527284085937,-0.125,-0.125,0.75
1480527284102482,-0.25,0.25,-0.125
1480527284124540,1.875,0.125,0
1480527284147100,0.5625,-0.3125,-0.25
1480527284162140,-0.9375,-0.125,-0.25
1480527284184700,-1.0625,0.1875,0.0625
1480527284205756,0,0.1875,0
1480527284230321,1.375,0.125,-0.0625
1480527284244860,0.625,0.0625,0.125
1480527284265916,-1.1875,0.3125,0.125
1480527284282460,-1.125,-0.0625,0
1480527284305020,1.125,0.25,0.125
1480527284325575,0.75,0.3125,0.0625
1480527284342119,-1.0625,0.125,0
1480527284364679,-0.125,0,-0.25
1480527284385739,1.0625,0.25,-0.0625
1480527284402279,0,0,-0.25
1480527284424839,0,-0.125,0.0625
1480527284447399,-0.125,-0.5,0.1875
1480527284462439,0.375,0.5625,-0.0625
1480527284485000,-1,0.3125,0.0625
1480527284507058,-0.5,-0.3125,0
1480527284522097,0.1875,-0.0625,-0.25
1480527284544658,0.0625,0.25,0.125
1480527284567220,0.125,0.3125,0.0625
1480527284582258,0.25,0.25,0
1480527284604817,0.25,0.375,-0.1875
1480527284627378,-0.5,-0.3125,0
1480527284641916,0.875,-0.3125,0.0625
1480527284664978,0.3125,-0.0625,-0.0625
1480527284687538,-0.5625,0.125,-0.4375
1480527284701575,-0.375,-0.1875,0
1480527284724637,1.25,-0.1875,0.0625
1480527284747196,0.0625,-0.0625,0.125
1480527284768253,-0.6875,0.125,-0.0625
1480527284785298,-0.875,0.125,-0.5
1480527284807858,0.1875,-0.4375,0
1480527284821895,0.8125,-0.25,0.3125
1480527284844956,-0.625,-0.0625,0.25
1480527284867520,-0.625,0.125,0.125
1480527284881554,0.3125,0.0625,0.0625
1480527284904615,0.5625,0.0625,0
1480527284927175,-0.3125,-0.0625,-0.125
1480527284948231,-0.5,-0.1875,0.0625
1480527284964775,0.5625,-0.125,0.125
1480527284987335,0.25,0.125,-0.25
1480527285008392,-0.5625,-0.25,0.0625
1480527285024935,-0.875,-0.5,0.25
1480527285047495,0.375,0.25,0.125
1480527285068551,-0.25,0.1875,0.25
1480527285084594,0.25,-0.5,0
1480527285107154,0.125,-0.3125,0.3125
1480527285128210,-0.75,0.0625,-0.0625
1480527285144754,-0.25,-0.3125,0.125
1480527285167316,1.1875,0,0
1480527285195890,-0.125,0.125,0.25
1480527285204914,-0.5625,-0.1875,-0.125
1480527285227475,0.625,-0.125,0.125
1480527285248529,0,0.0625,0
1480527285264573,-0.5625,0,0
1480527285293149,0.375,-0.0625,0.125
1480527285308188,0.4375,-0.25,0.0625
1480527285324733,0.25,-0.1875,-0.4375
1480527285347794,-0.4375,-0.1875,0.125
1480527285368350,0.125,-0.3125,0
1480527285384892,0.4375,-0.125,-0.0625
1480527285407452,0.375,0,-0.25
1480527285430013,0.0625,-0.125,0.0625
1480527285445250,-0.1875,0.125,0.1875
1480527285473128,0.0625,0,0.1875
1480527285489671,0.5625,-0.0625,0.1875
1480527285512232,0.125,-0.125,-0.5625
1480527285527271,0.0625,-0.1875,-0.3125
1480527285549834,0.9375,-0.25,-0.25
1480527285563869,0.25,-0.1875,0
1480527285587434,-1.125,-0.4375,0.1875
1480527285609992,0,-0.25,0.125
1480527285624031,0.875,0.125,0.0625
1480527285656114,0.5,-0.25,0.125
1480527285669650,-0.25,-0.625,0.1875
1480527285684193,0.5625,-0.6875,0.5625
1480527285714269,0.5625,0.125,0.0625
1480527285729810,-0.875,0.125,-0.125
1480527285743847,0.0625,0.0625,0.0625
1480527285767414,-0.0625,-0.1875,-0.0625
1480527285789970,-0.3125,-0.0625,0
1480527285804007,-0.5625,0.3125,0.1875
1480527285827068,0.1875,0.25,0
1480527285849629,-0.5625,-0.0625,-0.1875
1480527285864168,0.0625,0.0625,-0.125
1480527285887732,-0.3125,0,0.0625
1480527285917310,-0.3125,0,0
1480527285930844,-0.3125,0,-0.125
1480527285947389,1.1875,0.1875,-0.0625
1480527285969949,-0.6875,0.0625,-0.25
1480527285991005,-1.375,0.0625,-0.1875
1480527286007048,-0.8125,0.1875,-0.125
1480527286029607,0.625,0.125,0.25
1480527286058184,0.625,0.1875,0.375
1480527286067211,-0.875,0.4375,0
1480527286089768,-0.75,0.125,-0.25
1480527286110824,0.3125,-0.25,-0.125
1480527286134893,0.375,-0.0625,-0.0625
1480527286149928,0.5625,0,-0.5
1480527286171484,-0.25,-0.125,-0.375
1480527286193042,-0.9375,0,0.0625
1480527286209587,-0.6875,0.125,0.1875
1480527286230642,-0.125,0.4375,0.0625
1480527286247187,0.5,-0.1875,0.0625
1480527286269747,0.125,-0.1875,0.375
1480527286290802,-0.3125,0.0625,-0.25
1480527286307346,0.0625,0.1875,-0.0625
1480527286329907,-0.1875,0.0625,-0.1875
1480527286352466,-0.375,0.25,0.3125
1480527286368013,0,0.0625,0
1480527286389565,0.625,0,0.0625
1480527286412125,-0.3125,0,-0.125
1480527286433181,-0.6875,0,0.0625
1480527286449725,-0.125,0.125,-0.0625
1480527286472286,0.4375,-0.0625,-0.375
1480527286486825,0.3125,-0.0625,0.0625
1480527286509886,0,-0.125,0
1480527286532447,0.125,0,-0.1875
1480527286546483,0.25,0.0625,-0.25
1480527286570045,-0.5,-0.3125,-0.3125
1480527286592107,1.375,-0.1875,-0.3125
1480527286606643,-0.0625,0.25,0.1875
1480527286629704,-1.0625,0,0
1480527286652264,0.625,0,-0.125
1480527286666807,0.875,0,-0.1875
1480527286689864,-0.6875,0.25,-0.4375
1480527286712424,-0.375,0,-0.25
1480527286726461,0.1875,-0.1875,0.3125
1480527286750024,0.125,-0.0625,-0.25
1480527286772083,0.125,-0.1875,0.0625
1480527286786621,0.5,0.125,0.25
1480527286809683,0,0.0625,0.25
1480527286832242,-0.25,0.125,-0.125
1480527286853298,-0.125,0.125,-0.0625
1480527286869843,0.1875,0.3125,-0.375
1480527286892402,0.4375,0.25,-0.25
1480527286913458,0.375,0,-0.1875
1480527286930003,-0.875,-0.0625,-0.125
1480527286952061,-1,-0.25,0.0625
1480527286973117,0.875,0.25,0.375
1480527286990162,0.3125,0.0625,0
1480527287012222,-0.625,-0.3125,0.1875
1480527287033278,-0.5,-0.25,-0.1875
1480527287049822,0.75,0,0.0625
1480527287072383,-0.4375,0.125,-0.125
1480527287093437,-0.1875,0.25,-0.0625
1480527287109981,-0.0625,-0.0625,0.1875
1480527287132040,0.25,-0.25,-0.125
1480527287154600,-0.25,0.0625,-0.0625
1480527287175656,-0.125,0.0625,0.3125
1480527287192200,0,0.125,-0.125
1480527287213256,0.3125,0.1875,-0.25
1480527287229799,0.0625,0.125,-0.25
1480527287252360,-0.5625,-0.125,-0.1875
1480527287273415,0,0.0625,-0.1875
1480527287289960,0.875,0,-0.25
1480527287312019,0.625,0.0625,-0.3125
1480527287335081,-0.1875,0.1875,-0.1875
1480527287349621,-0.6875,0,-0.0625
1480527287372180,0.25,-0.3125,-0.1875
1480527287394739,0.9375,0.0625,-0.125
1480527287409780,-0.0625,0,-0.125
1480527287432340,-0.375,0.0625,-0.0625
1480527287454899,0.125,-0.375,0.125
1480527287468936,0.375,-0.4375,-0.0625
1480527287491998,0.0625,-0.0625,-0.125
1480527287514557,0.1875,0.0625,-0.0625
1480527287529098,-0.125,-0.375,0.125
1480527287560179,0.3125,-0.375,-0.1875
1480527287574718,0.125,0,-0.125
1480527287580232,-0.1875,0.1875,-0.1875
1480527287596776,-0.3125,0.0625,0.0625
1480527287627859,0,-0.0625,0.0625
1480527287639891,0.375,0.1875,0.125
1480527287656435,-0.375,0.125,0.0625
1480527287677490,-0.5,0.1875,-0.1875
1480527287700052,0.1875,0.1875,-0.375
1480527287716598,0.375,0.3125,-0.0625
1480527287737651,0,0.125,-0.3125
1480527287769736,-0.375,0,-0.125
1480527287776755,0.1875,0.1875,0.0625
1480527287797810,0,0.0625,0.125
1480527287821374,-0.125,0.0625,-0.0625
1480527287837417,-0.4375,0.25,-0.125
1480527287866494,-0.1875,0.125,0.0625
1480527287880029,0.125,0.0625,0.0625
1480527287898078,-0.25,0.25,-0.0625
1480527287917632,-1,0.375,-0.25
1480527287940190,-0.4375,0.5,-0.0625
1480527287958238,0.5,0.25,0.1875
1480527287977789,0.625,0.125,-0.25
1480527288000353,-0.125,0.25,-0.1875
1480527288018899,-0.5625,0.1875,-0.1875
1480527288037448,0.25,0,-0.0625
1480527288060009,0.1875,0,-0.25
1480527288091592,0.0625,0,-0.4375
1480527288097608,0.125,0.125,-0.25
1480527288120168,0,0.5625,-0.375
1480527288142728,0.5,0.25,-0.375
1480527288157768,0.3125,0.0625,-0.125
1480527288183838,0.25,0.0625,-0.5625
1480527288202387,0.0625,0.3125,-0.375
1480527288218931,0.25,0.25,-0.4375
1480527288239987,0.5625,-0.125,-0.25
1480527288262547,0.25,0,-0.0625
1480527288277587,-0.375,-0.0625,-0.1875
1480527288300148,-0.0625,0,-0.1875
1480527288322707,0.8125,0,-0.125
1480527288337747,0,0,0
1480527288360307,0,-0.1875,-0.1875
1480527288382366,0.25,-0.4375,0
1480527288397405,0.625,-0.0625,-0.4375
1480527288419966,0.1875,0,-0.0625
1480527288442525,-0.125,-0.375,-0.3125
1480527288457566,-0.1875,-0.375,-0.0625
1480527288480125,-0.25,-0.125,0
1480527288502686,-0.375,0,0.3125
1480527288520734,-0.125,0,0.1875
1480527288540286,-0.125,0,0
1480527288563849,-0.8125,-0.0625,-0.125
1480527288577385,-0.75,0.1875,0.125
1480527288599947,-0.9375,0.1875,0.0625
1480527288622504,-1,0.1875,-0.375
1480527288637545,-0.25,0.125,-0.1875
1480527288660106,-3.125,-0.0625,-0.375
1480527288691187,-1,-0.0625,-0.0625
1480527288697704,0.9375,0.1875,0.1875
1480527288720264,-0.5625,-0.25,0.625
1480527288742824,0.3125,-0.0625,0.125
1480527288757364,-1.375,-0.375,0.1875
1480527288779923,1.0625,-1.375,0.5625
1480527288802483,3.6875,1.375,0.5
1480527288819028,-3.5,0.5625,-0.1875
1480527288840083,-2.4375,0.125,-0.5625
1480527288862648,0.1875,-0.4375,-0.125
1480527288879188,1.0625,0.1875,0.5
1480527288903252,-0.75,0.8125,-0.25
1480527288930824,-0.25,0.4375,-0.3125
1480527288938846,0.3125,-0.0625,0.125
1480527288967424,-0.6875,0.0625,-0.0625
1480527288982462,-0.8125,0.125,0.1875
1480527288999006,1.1875,0.125,0.0625
1480527289020062,1.125,0.4375,-0.375
1480527289042622,-0.125,0.125,-0.5
1480527289059166,-0.375,0.125,-0.25
1480527289083231,-0.4375,-0.1875,-0.4375
1480527289110803,-0.375,-0.0625,-0.1875
1480527289119326,0.4375,0,-0.125
1480527289139881,0.5,0,0.25
1480527289162441,-0.4375,0.0625,0
1480527289178985,-0.6875,-0.0625,-0.125
1480527289200041,0,0.0625,-0.1875
1480527289222601,0.0625,0,0.0625
1480527289240649,0.375,0.4375,-0.375
1480527289260201,-1,0.125,-0.0625
1480527289290281,-0.4375,0.0625,0.1875
1480527289300309,0,-0.125,-0.125
1480527289319860,0.375,0.25,-0.0625
1480527289342419,0,0.25,0.125
1480527289360468,0,-0.125,0.3125
1480527289380019,-0.375,-0.3125,0.25
1480527289404084,-0.1875,0.5,-0.5625
1480527289421131,-1.0625,-0.125,-0.0625
1480527289440179,0.25,-0.0625,0.1875
1480527289462739,0,0.0625,0
1480527289485299,-0.375,0.0625,0.0625
1480527289500341,0.25,0.1875,-0.1875
1480527289525407,0.1875,0,0.0625
1480527289544958,-1,0.0625,-0.0625
1480527289561503,-1,0,0.0625
1480527289582559,0.375,0.0625,0.3125
1480527289605118,0.6875,0.3125,0.25
1480527289621663,0.0625,0,0
1480527289642718,-0.125,-0.5625,-0.1875
1480527289665280,0.1875,0.4375,-0.25
1480527289680318,-0.8125,0.1875,-0.3125
1480527289702376,-0.125,-0.0625,-0.0625
1480527289724936,-0.375,0.125,0.0625
1480527289739977,-1,0.1875,0.1875
1480527289770057,-0.3125,0.125,0.1875
1480527289785096,0.5,0.25,0.1875
1480527289809161,-0.875,0,-0.0625
1480527289822700,-0.125,-0.1875,0.0625
1480527289845366,0.125,0.125,0.1875
1480527289861802,-0.25,0.0625,-0.0625
1480527289882356,0.5,0.125,-0.0625
1480527289916449,-0.0625,0.125,0
1480527289927476,-0.5,-0.125,-0.125
1480527289942515,0.125,-0.1875,0.25
1480527289965076,-0.0625,0.3125,-0.125
1480527289981620,-0.1875,0.0625,-0.0625
1480527290002676,0.5625,-0.0625,0.0625
1480527290025235,0.0625,-0.125,-0.125
1480527290041780,-0.5,0.125,-0.1875
1480527290062836,-0.3125,-0.4375,-0.0625
1480527290084894,2.0625,-0.0625,-0.0625
1480527290101439,-0.3125,0.125,-0.3125
1480527290122496,-0.3125,0.4375,-0.4375
1480527290145206,-1.6875,0.125,-0.375
1480527290163102,0.25,-0.1875,0.125
1480527290182655,0.0625,0.375,-0.0625
1480527290205214,-0.125,0.25,-0.125
1480527290230281,0.6875,0.0625,-0.25
1480527290242814,0.625,-0.3125,0.3125
1480527290266378,0.0625,0,-0.125
1480527290287433,-0.625,-0.0625,-0.4375
1480527290302473,1.375,0,-0.375
1480527290332557,0.9375,-0.375,-0.1875
1480527290343081,-0.75,-0.1875,-0.125
1480527290362633,-0.75,-0.1875,-0.1875
1480527290392714,0.75,0.0625,0.3125
1480527290403241,0.25,0.0625,0.0625
1480527290422794,-0.3125,-0.125,0.125
1480527290444852,-0.875,-0.3125,0.0625
1480527290462900,0.0625,-0.375,-0.0625
1480527290482453,1.0625,-0.75,-0.25
1480527290505011,1.9375,0.1875,-0.375
1480527290539103,-2.3125,0.375,0.25
1480527290544116,-0.3125,-0.4375,0.25
1480527290565172,1.625,-0.3125,0.4375
1480527290583722,0,-0.125,-0.125
1480527290602772,-1.25,0.0625,-0.4375
1480527290624831,-0.125,-0.125,0.25
1480527290647390,0.375,0,0.0625
1480527290663935,-0.0625,-0.125,-0.3125
1480527290684991,-0.4375,-0.3125,-0.3125
1480527290703038,-0.0625,-0.25,0.0625
1480527290724095,0.25,-0.0625,0
1480527290745150,0.4375,-0.0625,-0.3125
1480527290763199,0.0625,0.3125,-0.25
1480527290784254,-0.8125,0.125,-0.1875
1480527290805310,0.375,-0.125,0
1480527290822859,0.6875,-0.125,-0.0625
1480527290843914,0,0.4375,-0.0625
1480527290864970,-1.125,0.1875,-0.375
1480527290883020,1.0625,0,0.125
1480527290904073,0.4375,0.375,-0.125
1480527290925129,-1,-0.1875,-0.3125
1480527290943177,0.3125,-0.125,-0.375
1480527290964233,1.5,0.25,-0.1875
1480527290985290,0.0625,0.1875,-0.3125
1480527291002837,-0.8125,-0.0625,-0.125
1480527291023893,-0.5625,0.0625,0.125
1480527291052468,-0.3125,0.3125,0.25
1480527291067508,-0.25,0.5625,0
1480527291091572,-0.625,0.25,0
1480527291105108,-0.8125,0.0625,-0.0625
1480527291127668,0.0625,0.1875,0.125
1480527291145716,-0.4375,0.1875,0.0625
1480527291165269,-0.25,0.3125,0.0625
1480527291190335,-0.125,0.125,0
1480527291205376,0.25,0.125,-0.125
1480527291232448,-0.25,0.0625,-0.0625
1480527291247487,-0.375,0,0
1480527291265536,-0.1875,-0.0625,0
1480527291285087,0.25,0.1875,0.125
1480527291307647,0,-0.0625,-0.0625
1480527291325696,-0.125,-0.0625,-0.3125
1480527291345246,-0.1875,-0.0625,-0.125
1480527291376330,-0.125,0.1875,-0.0625
1480527291385354,0.3125,-0.0625,0
1480527291408415,0.375,0,-0.25
1480527291427465,-0.5,-0.0625,-0.125
1480527291445514,-0.3125,0.3125,-0.0625
1480527291468074,-1.375,0.25,0.0625
1480527291487626,-0.6875,0.1875,0
1480527291505674,0.25,0.4375,0.125
1480527291525226,0.0625,0.4375,0.25
1480527291547786,-0.25,0.25,-0.0625
1480527291572853,-0.5625,0.0625,-0.25
1480527291584884,0.375,-0.125,-0.25
1480527291607444,0.5625,0,-0.0625
1480527291625493,-0.3125,-0.1875,-0.1875
1480527291648053,-0.4375,-0.0625,-0.0625
1480527291667605,-0.375,0.0625,0.125
1480527291685652,-0.625,0,0.3125
1480527291712724,-0.125,0.1875,0.0625
1480527291727764,0.1875,0,0
1480527291745311,0,0,0
1480527291766870,-0.9375,0.0625,0.0625
1480527291787423,-0.375,-0.25,0.125
1480527291809983,1.4375,0.25,0.0625
1480527291826527,-0.3125,0.625,-0.3125
1480527291855103,-1,-0.25,-0.125
1480527291865635,0.6875,0.375,0.1875
1480527291886687,0.25,0.1875,0.25
1480527291907746,0.1875,0,-0.1875
1480527291925290,0.625,-0.5,0.0625
1480527291946346,0.5625,0.1875,0.0625
1480527291967402,-0.625,0.0625,-0.25
1480527291985451,0.25,-0.0625,-0.125
1480527292006506,0.625,-0.0625,-0.0625
1480527292027561,-0.5,-0.375,-0.125
1480527292045991,-0.375,0.25,-0.5625
1480527292068170,0.375,0.25,-0.1875
1480527292087721,-0.625,-0.0625,-0.1875
1480527292105770,-0.6875,-0.25,-0.125
1480527292132843,0,-0.125,0.125
1480527292147380,0.1875,0.125,0
1480527292165428,0.375,0.25,0
1480527292187988,0.0625,-0.0625,-0.0625
1480527292207541,-0.8125,-0.4375,-0.25
1480527292225589,-0.0625,0,-0.25
1480527292248149,0.875,-0.375,-0.1875
1480527292275221,0.625,-0.125,-0.3125
1480527292285248,-1.625,0.0625,0.0625
1480527292307808,-1,-0.0625,0.25
1480527292327861,0.125,0.0625,0.3125
1480527292345408,-0.0625,0.0625,0.25
1480527292383010,-1,0.3125,0.0625
1480527292387519,-0.4375,-0.0625,0.1875
1480527292405567,0.0625,0.0625,0.3125
1480527292428127,-0.5,0.375,-0.1875
1480527292447680,-1,0.125,0.0625
1480527292477760,-0.6875,-0.3125,0.25
1480527292487786,1.0625,-0.1875,-0.625
1480527292507338,1.625,0,0.375
1480527292529898,-2,0.6875,0.5
1480527292547947,-1.875,-0.3125,-0.0625
1480527292567498,2,-0.25,-0.0625
1480527292590058,0.5625,0,0.125
1480527292608108,-1.5625,-0.0625,0.0625
1480527292629162,-0.125,0.1875,0.25
1480527292650218,1.1875,0.1875,0.0625
1480527292668266,0.375,0.0625,0.0625
1480527292690325,-0.4375,0.0625,0
1480527292709878,-0.6875,0.125,-0.125
1480527292727925,0.5625,0.25,-0.25
1480527292748983,0.9375,0.25,-0.25
1480527292770037,-0.375,-0.1875,0.1875
1480527292788085,-0.6875,-0.1875,0.0625
1480527292809141,0.375,-0.0625,0.1875
1480527292830196,1.1875,0.125,0.125
1480527292855264,0.5625,-0.0625,-0.0625
1480527292869302,-0.875,0.125,-0.375
1480527292891359,-0.25,-0.125,-0.125
1480527292907904,0.9375,0.125,-0.375
1480527292928959,-0.0625,0.125,-0.25
1480527292950015,-0.875,0,-0.125
1480527292968063,-0.6875,0.4375,0
1480527292990624,-0.625,0.0625,0.125
1480527293010175,-0.25,-0.1875,0.125
1480527293034239,2,-0.1875,0
1480527293050283,-0.125,0.625,-0.375
1480527293071339,-1.75,0.125,-0.3125
1480527293092395,-0.75,0.4375,0.0625
1480527293112219,0,-0.3125,0.25
1480527293129994,2.3125,0,-0.125
1480527293148043,-0.875,0.25,-0.25
1480527293183637,-1.25,-0.0625,-0.125
1480527293190154,0.5625,0.3125,0.0625
1480527293215725,0,0,0.0625
1480527293237782,0.625,-0.3125,-0.1875
1480527293250314,-0.0625,0.375,-0.4375
1480527293267861,-1,-0.0625,-0.3125
1480527293290421,0.375,0.25,0
1480527293312981,0.5625,0.5,0.125
1480527293328021,-1,-0.0625,-0.1875
1480527293350582,0.6875,-0.0625,-0.1875
1480527293370133,0.0625,0.375,-0.3125
1480527293392694,-0.6875,0,-0.25
1480527293415256,0.5,0.0625,-0.125
1480527293431296,-0.4375,0,0.0625
1480527293461376,0,0.0625,0
1480527293483435,0.0625,0.0625,0.125
1480527293491456,0.1875,0,0.1875
1480527293512513,0.0625,-0.1875,-0.125
1480527293530560,0.125,0.0625,-0.4375
1480527293551616,0.3125,0.0625,-0.0625
1480527293568160,0.25,0.25,-0.375
1480527293590721,-0.9375,0.1875,-0.375
1480527293611463,-0.75,0.1875,-0.0625
1480527293627818,-0.5,0.125,0.25
1480527293650380,-0.1875,0.125,0.375
1480527293671435,0.375,0.1875,0
1480527293688480,-0.125,0,-0.25
1480527293710538,-0.375,0.0625,-0.1875
1480527293731594,-0.25,0,-0.125
1480527293748139,0.75,-0.1875,0.125
1480527293770700,0.5625,-0.125,0.1875
1480527293791253,0.375,-0.0625,-0.1875
1480527293807798,0,0.1875,-0.25
1480527293837877,-0.625,-0.3125,-0.25
1480527293851415,1.125,-0.25,0.4375
1480527293867958,0.5,0.3125,0.0625
1480527293903052,-1,-0.5,-0.5
1480527293911857,0.75,-0.0625,-0.5625
1480527293928118,0,-0.125,-0.0625
1480527293950677,0.4375,-0.125,0.125
1480527293978797,0.375,0.25,-0.0625
1480527293992833,-0.5625,0.5,-0.0625
1480527294010380,-0.875,-0.0625,-0.25
1480527294037451,1,-0.1875,-0.0625
1480527294052491,-0.25,0.0625,0
1480527294070540,-1.0625,-0.0625,-0.0625
1480527294093101,0.4375,-0.1875,-0.0625
1480527294112652,1.375,-0.125,0.0625
1480527294130700,-0.0625,0.125,-0.0625
1480527294152759,-1.375,-0.4375,0.1875
1480527294172310,0.75,-0.3125,-0.0625
1480527294190358,0.5,-0.125,-0.25
1480527294212918,0.625,0,-0.125
1480527294232472,-0.375,-0.125,0
1480527294250518,-0.6875,-0.3125,0.3125
1480527294273079,-0.75,-0.25,0.25
1480527294292631,0.8125,-0.1875,0.25
1480527294324716,0.5,0.125,0.1875
1480527294333239,-0.875,-0.375,0
1480527294352290,0.0625,-0.25,0.125
1480527294369836,0,-0.125,0
1480527294392395,-0.6875,0.375,0.1875
1480527294420973,-1.375,-0.125,0.3125
1480527294429495,1.5625,-0.1875,0.0625
1480527294452055,0.25,-0.0625,0
1480527294473110,-0.75,-0.0625,0.0625
1480527294489655,-0.1875,-0.0625,0.1875
1480527294512215,0.5625,-0.125,0
1480527294534775,0.3125,-0.3125,-0.125
1480527294549815,-0.0625,-0.0625,-0.125
1480527294572375,-0.875,0,0
1480527294594433,-0.0625,0.0625,0.125
1480527294609473,0.6875,0.0625,0.125
1480527294632036,-0.1875,0,-0.25
1480527294653089,-0.75,0.0625,0.125
1480527294669634,-0.9375,0.4375,0.125
1480527294699713,-0.1875,-0.25,0.125
1480527294713249,1.1875,0.1875,-0.125
1480527294729793,-0.75,0.0625,0.25
1480527294752354,-0.0625,0.3125,-0.0625
1480527294774412,0,0,-0.0625
1480527294796972,0.5,0,-0.5625
1480527294812151,-0.125,0.125,-0.3125
1480527294833068,-0.3125,0.125,-0.3125
1480527294849612,-0.5,0.0625,-0.25
1480527294872173,0.25,0,0
1480527294894732,0.3125,0,0.0625
1480527294909271,-0.25,0.25,0.0625
1480527294932332,-1.125,0.25,-0.125
1480527294954892,-0.1875,0.0625,-0.1875
1480527294984470,0.75,0.3125,-0.0625
1480527294991991,-0.375,0,0.0625
1480527295014552,-0.5625,0.125,0.1875
1480527295029089,-0.0625,0.375,0.125
1480527295052150,0,0.3125,-0.0625
1480527295091254,-0.1875,0.0625,-0.25
1480527295095766,-0.4375,-0.125,0.0625
1480527295112502,0,-0.125,0.1875
1480527295134872,0.1875,0.0625,0
1480527295148911,-0.25,-0.0625,-0.125
1480527295171970,-0.8125,-0.0625,-0.125
1480527295194529,-0.4375,-0.125,0
1480527295209068,0.25,0.0625,0.25
1480527295232133,0.375,-0.0625,0.0625
1480527295255192,-0.4375,0.25,-0.125
1480527295269229,-1.125,0.0625,0.0625
1480527295292289,-0.4375,0.0625,0.1875
1480527295314850,0.3125,0,0.1875
1480527295328887,0.125,0.125,0.125
1480527295351948,-0.5,0.125,0
1480527295375010,-0.0625,-0.125,-0.0625
1480527295395564,0.25,-0.1875,-0.375
1480527295412611,0.625,-0.25,-0.125
1480527295435671,0.25,0,-0.125
1480527295455724,-0.4375,-0.25,0.125
1480527295472268,-0.25,-0.1875,0.1875
1480527295502348,0.25,-0.25,0.1875
1480527295515887,0.25,-0.125,0.1875
1480527295532431,-0.4375,-0.125,0.0625
1480527295555489,0.0625,-0.125,0.0625
1480527295575543,0.4375,-0.125,0.0625
1480527295592087,-0.0625,-0.125,0
1480527295614648,-0.1875,0.0625,-0.1875
1480527295636706,0.0625,0,0.125
1480527295652247,0.1875,0.0625,-0.25
1480527295674807,-0.0625,0,-0.125
1480527295696364,-0.3125,-0.1875,0.25
1480527295712051,-0.25,-0.25,0.125
1480527295735469,0.1875,-0.1875,0
1480527295755522,0.375,-0.0625,-0.1875
1480527295772069,0.0625,-0.25,-0.25
1480527295794626,-0.0625,-0.3125,0
1480527295815683,-0.25,-0.125,-0.1875
1480527295832228,0.125,-0.0625,-0.1875
1480527295855788,0.1875,0,-0.0625
1480527295883362,0.0625,0.0625,0.0625
1480527295892385,-0.5625,-0.0625,0.1875
1480527295914445,0.0625,-0.0625,0
1480527295937004,0.125,0.0625,0.0625
1480527295952044,0.1875,0,0
1480527295974604,0.0625,-0.125,-0.25
1480527295997164,0.5,-0.1875,-0.25
1480527296011706,0.1875,-0.25,-0.5
1480527296035769,-0.625,-0.125,-0.375
1480527296064845,-0.75,-0.125,0.1875
1480527296079885,0,-0.125,0.4375
1480527296094423,0.8125,-0.1875,0.25
1480527296116984,0.1875,-0.1875,0
1480527296131522,-1.1875,0,-0.0625
1480527296162103,-0.375,0,0.0625
1480527296177144,0.8125,-0.125,0.1875
1480527296191682,0.5,0.0625,-0.125
1480527296214744,-0.75,0.0625,0.0625
1480527296237305,-0.0625,0.0625,-0.0625
1480527296251340,0.1875,0.125,0.125
1480527296274904,-0.125,-0.0625,0.1875
1480527296296962,-0.625,0.0625,0.25
1480527296318018,-0.25,0,0
1480527296334565,0.625,-0.1875,-0.1875
1480527296364643,0.125,-0.25,-0.0625
1480527296379181,-0.5625,0.3125,-0.3125
1480527296394722,-0.8125,-1.6875,0.875
1480527296416781,4.75,-0.625,0.625
1480527296438338,0.75,0.1875,-0.3125
1480527296460898,-2.4375,0.5625,-1
1480527296477442,-3.125,-0.375,-0.6875
1480527296505517,0.8125,-0.4375,0.875
1480527296514541,1,0.125,0.625
1480527296537101,0.1875,0.5,-0.125
1480527296558156,-0.125,-0.125,-0.3125
1480527296574701,0.5625,-0.3125,-0.4375
1480527296604781,-0.875,-0.3125,-0.3125
1480527296620324,-0.125,-0.125,-0.6875
1480527296634861,0.5,-0.1875,-0.0625
1480527296656919,0.25,-0.5,0.0625
1480527296679479,-0.375,-0.0625,0.3125
1480527296694519,-1.1875,-0.25,0.375
1480527296717086,0.875,-0.25,0.0625
1480527296739639,1.1875,-0.3125,0.125
1480527296754679,-0.5,-0.125,-0.125
1480527296777741,-1.1875,-0.0625,-0.25
1480527296799799,-0.0625,0,-0.25
1480527296813838,0.4375,-0.125,-0.0625
1480527296837400,-0.0625,0.0625,-0.1875
1480527296859458,-1.0625,-0.6875,0
1480527296874498,1,-0.25,0.25
1480527296897058,0.5625,-0.0625,0.125
1480527296925634,-0.3125,-0.25,-0.125
1480527296934158,0.375,-0.5625,-0.1875
1480527296957219,1.125,-0.4375,-0.0625
1480527296979779,0,-0.1875,-0.0625
1480527296993816,-0.5625,-0.0625,0
1480527297024898,0.125,0.0625,0
1480527297039437,0.6875,0,-0.125
1480527297054477,0.75,-0.1875,0
1480527297084557,-0.5625,-0.1875,-0.0625
1480527297099597,-1.1875,-0.1875,0
1480527297122158,0.625,-0.1875,-0.1875
1480527297137197,1.25,0.5,-0.3125
1480527297167277,-1.125,-0.25,0.25
1480527297173794,0.375,-0.1875,0.3125
1480527297197358,0.0625,-0.375,-0.3125
1480527297219415,1.125,-0.125,-0.4375
1480527297233955,0.75,-0.25,-0.4375
1480527297264536,-0.1875,-0.625,0.125
1480527297279575,-0.5625,-0.5,0.0625
1480527297300632,-0.0625,-0.125,0.1875
1480527297323191,0.125,-0.1875,0.25
1480527297339736,0.1875,-0.3125,0.1875
1480527297360792,0.125,-0.25,0.125
1480527297377336,-0.0625,-0.375,0.125
1480527297399394,-0.125,-0.4375,0
1480527297420953,-0.125,0.3125,-0.3125
1480527297444514,-0.8125,-0.25,0.125
1480527297466074,1.1875,-0.3125,0.0625
1480527297480610,0.0625,-0.25,0.125
1480527297504674,-0.25,-0.3125,0.25
1480527297519717,0.25,0,0.1875
1480527297540771,0.5625,-0.3125,0
1480527297557821,0,-0.375,-0.0625
1480527297579378,-0.5625,-0.3125,-0.25
1480527297617480,0.125,-0.0625,-0.1875
1480527297619987,0.5,-0.0625,0.125
1480527297641043,0.375,-0.1875,0.1875
1480527297660595,-0.125,-0.0625,0.0625
1480527297684659,-0.25,0,-0.1875
1480527297699699,-0.5,0.0625,-0.25
1480527297722258,-0.1875,0.1875,0.125
1480527297745320,-0.5,0,0.125
1480527297759858,-0.0625,0.125,-0.0625
1480527297782422,0.75,0.1875,0.25
1480527297803474,-0.125,0.0625,-0.0625
1480527297827038,-0.5,-0.25,-0.3125
1480527297850100,0.1875,-0.125,-0.25
1480527297857117,0.75,-0.0625,-0.125
1480527297885693,0.375,-0.125,-0.25
1480527297909757,-0.4375,-0.125,0.25
1480527297916777,-0.4375,-0.0625,0
1480527297940841,0.0625,0,0
1480527297962398,0.4375,0.125,0.125
1480527297976435,-0.125,0.0625,-0.0625
1480527298014537,0.25,0.125,-0.1875
1480527298022056,-0.5,0.25,-0.1875
1480527298036595,-0.9375,0.25,-0.1875
1480527298059656,0.0625,0.25,0
1480527298088233,0.1875,0.1875,-0.0625
1480527298104776,-0.0625,0.0625,-0.25
1480527298127336,-0.3125,0.0625,0
1480527298142377,-0.375,0.0625,0
1480527298164435,0.1875,-0.0625,0
1480527298180478,0.6875,-0.1875,0.125
1480527298208054,-0.25,-0.125,-0.0625
1480527298230611,-0.375,-0.125,0
1480527298239635,0.1875,-0.125,0
1480527298262195,0.1875,0,-0.0625
1480527298283752,-0.4375,0.0625,-0.125
1480527298301299,-0.4375,0.125,0.0625
1480527298322857,-0.1875,0.0625,0.1875
1480527298343410,-0.3125,0.125,0.125
1480527298359955,-0.6875,0.1875,-0.0625
1480527298382017,-0.5,0.125,0.1875
1480527298412094,-0.0625,0.1875,0.375
1480527298419614,0.375,0.125,0
1480527298449693,-0.0625,0,-0.375
1480527298463229,-0.375,-0.0625,-0.1875
1480527298479775,-0.1875,0,-0.125
1480527298502334,-0.4375,0.0625,0.0625
1480527298523390,-1,0.0625,0.1875
1480527298539432,-0.375,0.125,0.25
1480527298561993,-0.4375,0.125,0.1875
1480527298590568,-0.625,0,0
1480527298599592,0.0625,-0.125,0.125
1480527298622153,0.1875,-0.0625,0.1875
1480527298643709,-0.3125,-0.125,0.1875
1480527298659752,-0.125,0,0.25
1480527298682813,0.1875,0.125,0.25
1480527298704872,0.25,-0.0625,0.0625
1480527298726931,0.0625,-0.0625,0.0625
1480527298741971,-0.375,-0.0625,0.3125
1480527298764532,-0.3125,-0.0625,0.1875
1480527298779571,0.625,-0.125,-0.25
1480527298802131,0.5,-0.0625,-0.125
1480527298832211,-0.375,-0.125,-0.1875
1480527298838728,-0.5625,0.125,0
1480527298862291,-0.1875,0.0625,0.125
1480527298890867,0.375,0.125,-0.0625
1480527298898888,0.25,0.125,-0.125
1480527298921950,-0.6875,0.125,-0.1875
1480527298945076,-1,0.25,-0.125
1480527298959048,-0.1875,0.125,-0.0625
1480527298990132,0.5625,0.0625,0.125
1480527299004672,-0.125,-0.0625,0.25
1480527299019208,-0.6875,0.0625,0.3125
1480527299042270,-0.0625,-0.125,0.125
1480527299079368,1.0625,-0.0625,-0.4375
1480527299081875,0.375,0,-0.125
1480527299101929,-0.5,-0.1875,-0.1875
1480527299130505,-0.4375,-0.25,0
1480527299139027,-0.0625,-0.0625,-0.0625
1480527299162088,-0.1875,0.0625,0.125
1480527299184653,0.125,-0.125,0.4375
1480527299213229,0.4375,-0.1875,0.3125
1480527299222254,-0.375,-0.125,-0.125
1480527299244813,-0.0625,-0.0625,0
1480527299273389,0.3125,-0.125,0.0625
1480527299281912,0.5,-0.25,0.1875
1480527299304472,0.4375,-0.0625,0.125
1480527299325528,-0.375,0.4375,0.125
1480527299342072,-0.1875,0.1875,-0.3125
1480527299364635,-0.5625,0.125,-0.1875
1480527299385688,-0.5,-0.0625,0.0625
1480527299409752,-0.4375,-0.125,0.4375
1480527299424791,0.6875,0.0625,-0.3125
1480527299447352,0.3125,-0.0625,-0.25
1480527299462392,-0.625,-0.1875,-0.1875
1480527299484450,-0.5,-0.1875,0
1480527299514530,0,0.125,-0.0625
1480527299529570,0.5625,0.1875,-0.125
1480527299544612,0,0.0625,0.125
1480527299573186,-0.375,-0.125,-0.25
1480527299582712,-0.1875,-0.1875,-0.125
1480527299612292,-0.25,0.0625,-0.25
1480527299627330,0.0625,-0.0625,-0.1875
1480527299641368,0,-0.125,-0.0625
1480527299664932,-0.375,-0.125,-0.125
1480527299686991,0.375,-0.3125,0.125
1480527299702029,-0.0625,0,0.3125
1480527299725091,0.0625,-0.125,-0.125
1480527299753165,0.5625,-0.25,-0.25
1480527299762189,0.625,-0.1875,-0.4375
1480527299784756,0,-0.1875,-0.3125
1480527299807811,-0.5625,-0.25,-0.25
1480527299821348,-0.5625,-0.0625,0.0625
1480527299857944,-0.1875,0,-0.0625
1480527299866968,-0.3125,0,0.1875
1480527299897048,-0.125,-0.0625,0.25
1480527299905070,0.0625,-0.0625,0
1480527299927128,0.25,0,-0.1875
1480527299941667,-0.3125,-0.0625,-0.125
1480527299966233,-0.1875,-0.125,0.0625
1480527299987288,0.9375,-0.0625,0
1480527300001326,0.3125,-0.0625,-0.0625
1480527300024387,-0.4375,-0.0625,-0.125
1480527300047451,-0.1875,-0.1875,-0.125
1480527300068505,0.125,-0.125,0
1480527300084547,0.0625,-0.25,-0.0625
1480527300107107,-0.0625,-0.3125,-0.125
1480527300135683,0.5,-0.1875,-0.1875
1480527300145208,0.625,-0.125,0
1480527300182810,-0.4375,-0.125,-0.125
1480527300189828,-0.5,-0.3125,-0.125
1480527300220409,0.5625,-0.1875,-0.1875
1480527300227426,1.0625,0.0625,-0.125
1480527300247982,-0.375,0.125,-0.125
1480527300264527,-1.3125,0.0625,-0.1875
1480527300287086,0,-0.3125,-0.125
1480527300309645,1.875,-0.1875,0
1480527300324685,0,-0.125,-0.0625
1480527300347748,-0.9375,-0.1875,-0.125
1480527300384845,-0.25,-0.125,-0.125
1480527300387353,0.875,-0.25,-0.125
1480527300414424,0.1875,-0.125,0.125
1480527300427960,-0.625,-0.125,0.0625
1480527300459545,-0.3125,0,0.125
1480527300467064,0.5625,0,-0.125
1480527300488120,0.625,-0.0625,-0.4375
1480527300504664,-0.4375,0,-0.3125
1480527300527224,-0.625,0,-0.1875
1480527300565326,-0.0625,-0.125,-0.3125
1480527300567832,-0.125,-0.125,0
1480527300586883,-0.0625,0,0
1480527300609443,-0.1875,-0.25,0.1875
1480527300624483,-0.1875,-0.0625,0.125
1480527300647045,-0.0625,-0.375,-0.0625
1480527300669603,0.375,-0.375,-0.0625
1480527300684643,0.125,-0.3125,-0.0625
1480527300707204,-0.5,-0.25,0
1480527300729764,-0.0625,-0.25,-0.125
1480527300743801,0.6875,-0.3125,0.1875
1480527300774382,0.5,-0.1875,0
1480527300795939,-0.4375,-0.25,0
1480527300803962,0,-0.25,0.1875
1480527300827023,0.4375,-0.25,-0.0625
1480527300849582,0.375,-0.0625,-0.4375
1480527300879662,-0.125,-0.3125,-0.0625
1480527300887182,-0.1875,-0.0625,-0.125
1480527300909742,0.25,-0.0625,-0.125
1480527300923780,0.25,0,-0.25
1480527300946841,-0.375,-0.125,-0.1875
1480527300969902,0.1875,-0.25,0
1480527300984442,0.8125,-0.125,0
1480527301007502,-0.5,-0.125,-0.125
1480527301030062,-0.9375,-0.25,-0.25
1480527301044100,-0.625,0,0.1875
1480527301067161,-0.5625,0.0625,-0.0625
1480527301089721,-0.9375,0,-0.1875
1480527301110783,-1.25,0.4375,0.3125
1480527301127321,-1.5625,0.375,1
1480527301156899,-2.0625,0.125,1
1480527301171438,-0.5,-0.0625,0.9375
1480527301186981,0,-0.6875,0.0625
1480527301209539,-0.25,-0.875,-0.4375
1480527301231097,0.9375,-0.6875,-0.4375
1480527301247140,1.1875,-0.75,0
1480527301271204,1.4375,-0.9375,0.1875
1480527301290756,0.3125,-0.5625,-0.125
1480527301307801,-1.1875,-0.5625,-0.125
1480527301329861,1.8125,0.3125,-0.5625
1480527301351920,1,0.0625,-0.3125
1480527301367461,0.0625,-0.25,-0.3125
1480527301390019,1,-0.1875,-0.5625
1480527301427619,0.75,-0.4375,-0.375
1480527301430126,-0.0625,-0.4375,-1.0625
1480527301457699,0,-0.4375,-1
1480527301470734,1,-0.75,-0.75
1480527301487779,1.125,-0.8125,-0.75
1480527301510340,0.1875,-0.75,-0.5
1480527301539417,-0.375,-0.9375,-0.5625
1480527301554457,0.8125,-0.9375,-0.4375
1480527301569498,0.3125,-1.0625,-0.25
1480527301592057,-0.125,-1.1875,-0.5625
1480527301607097,0.5625,-1.5625,-0.75
1480527301630159,1.5,-1.5625,-0.75
1480527301652217,0.8125,-1.25,-1.1875
1480527301674777,0.625,-0.875,-0.75
1480527301689315,0.8125,-1.125,-0.125
1480527301712895,1.1875,-1.125,-1.4375
1480527301735440,0.5625,-0.6875,-1.625
1480527301749476,-0.5,-0.25,-1.4375
1480527301772537,-2.25,0.4375,-1.125
1480527301786575,-3.0625,1.25,-0.9375
1480527301809636,-2.5625,1.125,-0.75
1480527301832196,-0.625,0.8125,-1.0625
1480527301846234,-1.125,0.875,-1.625
1480527301870297,-3.125,0.625,-1.625
1480527301891854,-2.625,0.6875,-1.625
1480527301906393,-1.5,1.1875,-1.375
1480527301929454,-1.125,1.125,-0.9375
1480527301952015,-0.5,0.6875,-0.625
1480527301973071,-0.9375,0.625,-0.8125
1480527301989614,-3.6875,0.8125,-1.1875
1480527302012675,-3.3125,1.0625,-0.9375
1480527302033231,-1.375,0.9375,0.0625
1480527302049775,-0.5625,0.9375,0.0625
1480527302078351,-3.6875,1.0625,0
1480527302093390,-6.8125,1.75,-0.1875
1480527302109433,-5.1875,2.125,0.0625
1480527302131994,-6.4375,2.5,0.125
1480527302153053,-7.5,3.375,-0.375
1480527302169597,-7.125,2.4375,-0.5625
1480527302192157,-8.1875,1.3125,-1.9375
1480527302213213,-6.75,2.0625,-2.4375
1480527302229758,-6.875,2.625,-2.3125
1480527302252318,-7.375,2.8125,-3.3125
1480527302273374,-4.5,3.75,-3.8125
1480527302289415,-3.25,4.6875,-3.375
1480527302319496,-3.75,5.5625,-3.625
1480527302341554,-4.9375,6.4375,-3.625
1480527302357597,-2.25,6.25,-1.9375
1480527302372637,-0.5625,5.5625,-1.6875
1480527302393191,-1.125,3.875,-1.25
1480527302423271,-2.75,3.5,-0.875
1480527302432297,-3.125,2.4375,-1
1480527302454354,-3.1875,1.3125,-0.6875
1480527302468893,0.875,0.4375,-0.6875
1480527302491954,-0.8125,-0.0625,-0.875
1480527302514515,-4.9375,-0.9375,-0.8125
1480527302530056,-3.6875,0,-0.375
1480527302560136,-1.625,0.3125,0
1480527302574675,-3.8125,-0.1875,0.125
1480527302595730,-6.1875,-0.5,-0.625
1480527302612001,-4.875,-1.4375,-1.625
1480527302636065,-6.0625,-1.75,-1.8125
1480527302649101,-11.625,-1.875,-2.25
1480527302672161,-10.4375,-2.0625,-1.75
1480527302702241,-5.9375,-2,-1.75
1480527302708758,-4.5,-1.0625,-2.375
1480527302732823,-6.4375,-1.5625,-2.4375
1480527302754380,-8.375,-2.125,-1.8125
1480527302768920,-5.9375,-0.5625,-1.5
1480527302792982,-0.6875,-0.6875,-2.3125
1480527302814540,-1.9375,-0.6875,-2.75
1480527302836097,-4,-0.5,-2.75
1480527302852141,-1.25,-0.625,-2
1480527302880719,1.125,-0.875,-1.6875
1480527302888737,1.5625,-0.6875,-0.625
1480527302927340,-0.125,-0.625,-0.375
1480527302941878,-1,-0.1875,-0.25
1480527302948898,1.375,0.375,0.5
1480527302972461,2.9375,-0.9375,1
1480527302994518,3.3125,-0.75,1.875
1480527303016578,1.125,-1.0625,1.3125
1480527303032119,-0.3125,-0.3125,0.0625
1480527303055180,-0.375,-1.125,0
1480527303075734,0.375,-1.375,-0.4375
1480527303092278,-1.625,-1.625,0.125
1480527303121857,-1.0625,-1,0.375
1480527303135894,0.5625,-1.125,0.5
1480527303160962,2.875,-0.1875,0.8125
1480527303174498,2.5,0.4375,0.125
1480527303195552,1.625,0.375,-0.25
1480527303212097,2.625,0.5625,-0.625
1480527303235659,3.9375,0.1875,-1
1480527303256214,6.3125,-0.0625,-1.25
1480527303272256,5.5625,0,-0.5625
1480527303294817,4.75,0.25,-0.75
1480527303315874,4.625,1,-0.6875
1480527303331917,5.5625,1.125,-0.375
1480527303354475,7.4375,0.5625,-0.1875
1480527303375531,4.75,0.5,-0.6875
1480527303392079,0.4375,0.4375,-0.9375
1480527303414637,-1.5625,0.8125,-1
1480527303437196,-1.3125,1,-0.75
1480527303452236,1.8125,0.25,-0.5
1480527303474796,2.375,0.5,-0.375
1480527303504875,-0.25,0.5,0.125
1480527303511895,-3.3125,0.4375,0.625
1480527303535458,-1.3125,0.1875,1.5
1480527303557015,-0.625,-0.1875,1.8125
1480527303572055,-1.5625,0.25,1.3125
1480527303608150,-3.625,0.4375,0.75
1480527303617175,-2.0625,0.125,-0.3125
1480527303639735,-2.9375,0.3125,-1.125
1480527303654775,-4.5,-0.1875,-0.5625
1480527303677335,-4.9375,-0.375,-0.6875
1480527303691372,-3,-0.5625,-0.375
1480527303721955,0.375,-0.5,-0.375
1480527303744874,0.375,-0.5625,0.3125
1480527303751534,1.5,-1.1875,0.875
1480527303775596,2.875,-1.625,1.375
1480527303797153,10.25,-2.0625,1.875
1480527303818212,14.8125,-1.8125,1.4375
1480527303835759,8.9375,-1.75,1.0625
1480527303857313,4.375,-1.0625,0.5625
1480527303878369,-0.5625,-1.3125,0.375
1480527303894412,-3.625,-1.0625,-0.75
1480527303917475,-5.5625,-1.875,-0.6875
1480527303938028,-11,-2.9375,-0.125
1480527303955574,-16.6875,-3.375,0.5
1480527303977132,-17.875,-1.3125,0.25
1480527303998189,-16.5,-0.0625,-1.375
1480527304020749,-14.8125,-0.125,-0.5625
1480527304037793,-11.9375,0.375,-0.8125
1480527304058348,-10.75,1.1875,0.375
1480527304074391,-8.9375,2.625,0.8125
1480527304102967,-6.25,2.4375,0.3125
1480527304127030,-0.1875,0.5,0.5
1480527304135554,2.875,-0.3125,-0.6875
1480527304157612,-4.75,-1.1875,0.0625
1480527304178304,-2.25,-0.75,0.3125
1480527304194711,1.625,-0.6875,0.5
1480527304231308,2.1875,-0.5625,0.25
1480527304238327,1.9375,-0.1875,-0.9375
1480527304254871,-4.3125,-0.25,-0.4375
1480527304276930,-3.5625,-0.375,-0.8125
1480527304299490,-2.5625,0.0625,-0.875
1480527304314533,-0.5,-0.4375,-0.875
1480527304337092,0.6875,-1,-0.875
1480527304358146,-4,-1.375,-0.375
1480527304374691,-3.5,-3.375,-0.3125
1480527304404770,3.4375,-5.4375,0.3125
1480527304419811,7.75,-5.8125,0.6875
1480527304436353,5.5,-4,1.375
1480527304456909,0.5,-2.875,1.25
1480527304479470,-0.875,-3.125,-0.25
1480527304494509,6,-2.8125,0.125
1480527304517070,11.8125,-3.375,-0.125
1480527304539629,11.25,-3.3125,0.5625
1480527304554167,9.3125,-1.875,2.75
1480527304578231,13.6875,0.4375,1
1480527304600290,11.875,1.125,0.4375
1480527304613826,2.375,0.4375,0.3125
1480527304645011,5.6875,1.625,-0.625
1480527304659447,5,4.5625,-0.625
1480527304682009,10.5,7.8125,0.375
1480527304697047,11.0625,6.3125,1.0625
1480527304720609,3.8125,1.8125,1.3125
1480527304734149,-0.875,1.375,1.8125
1480527304757207,-0.625,3.3125,2.0625
1480527304787288,-5.375,4.75,-0.125
1480527304793805,-7.8125,1.6875,-1.25
1480527304817368,-7.5,-0.3125,-0.625
1480527304839425,-8.25,-1,-0.8125
1480527304860481,-14.125,0.5,-1.5625
1480527304890563,-12.3125,-1.25,-1.125
1480527304901092,-9.3125,-5.25,-0.4375
1480527304922146,-10.3125,-5.125,-0.6875
1480527304937688,-8.75,-1.375,0.25
1480527304967770,-4.9375,-1.5,0.5625
1480527304980804,-0.0625,-2.625,-1
1480527304996845,1.5625,-2.625,-1.25
1480527305026925,1.25,-3.125,-1.75
1480527305040460,-2.125,-2.6875,-1.6875
1480527305063021,-2.8125,-1.375,-1.5
1480527305079565,0.9375,-0.3125,-1.25
1480527305100620,4.75,-0.5,-1.3125
1480527305117166,3,-0.9375,-1.0625
1480527305139724,-1.625,-1.375,-0.5625
1480527305160781,-3.625,-1,-0.4375
1480527305177326,-0.75,0.25,-0.6875
1480527305199887,-1.3125,0,-0.8125
1480527305220941,-3.6875,0,-0.25
1480527305236984,-2.625,0,0.25
1480527305259543,-0.0625,0.9375,0
1480527305282608,0.875,0.0625,-0.75
1480527305304663,-3.125,-0.75,-0.75
1480527305319703,-5.375,-0.875,0.5
1480527305342264,-1.5625,-0.5,0.375
1480527305357303,1.5,0.75,-0.5625
1480527305379362,1.6875,0.9375,-1.3125
1480527305410446,-1.5625,-0.3125,-0.3125
1480527305416962,-4.8125,-0.375,0
1480527305439522,-3.9375,0.25,0.125
1480527305462082,0.75,0.4375,-0.0625
1480527305477122,-0.25,0.1875,0.0625
1480527305514724,-3.25,0.4375,0.6875
1480527305522242,-2.875,0.4375,0.5625
1480527305536279,-1.5625,0.125,0.25
1480527305559842,0.6875,0.125,0.0625
1480527305582404,1.9375,0.1875,-0.625
1480527305596439,0.3125,0.5,-0.6875
1480527305619501,-2.0625,1.3125,-0.5625
1480527305642562,0.125,1.25,-0.1875
1480527305663116,1.1875,2.5625,-0.5625
1480527305687181,-1,0.9375,-0.125
1480527305702221,2.6875,0.5625,-0.125
1480527305724780,4.3125,1.0625,-0.5625
1480527305739319,-0.1875,2.25,-1.125
1480527305769399,0.125,1.25,-0.875
1480527305776419,4.25,0.5625,-0.5
1480527305799480,0,0.625,-0.1875
1480527305822040,-1.625,0.875,0
1480527305843096,0.6875,0.9375,-0.25
1480527305860141,1.875,0.625,0.375
1480527305897741,1,0.75,0.1875
1480527305903255,-0.4375,1,-0.1875
1480527305919800,-0.0625,0.875,0
1480527305941858,1.875,0.5625,-0.3125
1480527305965422,2.5625,0.4375,-0.25
1480527305979458,1.125,0.4375,-0.4375
1480527306002018,1.5,1.75,-0.375
1480527306023074,1.4375,2.875,-0.0625
1480527306039618,5.75,3.8125,0.875
1480527306070200,7.3125,4.5,0.75
1480527306083234,2.4375,4.0625,0.4375
1480527306107298,4.5,5.75,0.8125
1480527306122842,4.25,8.875,1.8125
1480527306142892,-4.125,9.625,3.625
1480527306174477,-9.3125,8.625,2.4375
1480527306181997,-3.9375,4.9375,0.125
1480527306204557,0.625,3.8125,-0.75
1480527306219597,1.75,1.5,0.75
1480527306242157,2.375,0.75,-0.375
1480527306270733,-1.1875,0.125,0.0625
1480527306280394,0.3125,-0.125,-0.5625
1480527306301815,1.4375,1.5625,-0.625
1480527306324375,-3.1875,3.25,-1.0625
1480527306346938,-5.1875,1.4375,-2.1875
1480527306361978,-4.4375,-0.75,-0.5625
1480527306384537,2.75,-0.3125,0.3125
1480527306399576,5.0625,0.5,-0.25
1480527306422135,2.75,1.25,-1
1480527306452216,-1.0625,1.4375,-0.75
1480527306458733,-2.0625,0.9375,-1.5625
1480527306482297,-3.125,0.125,-1.0625
1480527306504354,-1.3125,0.8125,-0.4375
1480527306518893,0.5,1.0625,-0.625
1480527306541954,2.125,1.125,-0.75
1480527306564515,1.75,0.625,-1.1875
1480527306585571,-0.75,-0.125,-1.3125
1480527306602114,-3.125,0.0625,-1.25
1480527306624675,-4.125,0,-0.9375
1480527306638712,-2.875,-0.4375,-0.625
1480527306662275,-1.5625,-0.4375,-0.1875
1480527306684836,-0.6875,-0.6875,-0.1875
1480527306706893,-1.625,-0.9375,-0.1875
1480527306729453,-4.8125,-0.8125,-0.875
1480527306744493,-3.75,-1,-0.75
1480527306765550,-2.25,-0.5625,-0.1875
1480527306783600,-1.4375,-1.6875,-0.375
1480527306805155,-5.875,-3.125,-1
1480527306833230,-8.4375,-3.375,-0.75
1480527306842253,-8.375,-4,-0.625
1480527306865816,-8.0625,-3.8125,-0.125
1480527306886370,-8.4375,-5.375,0.125
1480527306901912,0.375,-5.0625,0
1480527306924472,2.125,-2.5,-0.1875
1480527306945531,-4.5625,-1.125,-0.625
1480527306968090,-6,-2.1875,0.125
1480527306984634,-0.5,-4.1875,-0.3125
1480527307014713,9.8125,-2.25,-0.625
1480527307022232,4.375,0.25,-0.1875
1480527307044928,-5.9375,-1,-0.375
1480527307072866,-7.1875,-4.25,0.125
1480527307081891,7.0625,-2.6875,-1
1480527307104451,10.25,-0.625,-1.6875
1480527307125506,-0.75,-0.5625,-1.1875
1480527307142051,-6.3125,-1.5,-0.0625
1480527307164612,2.5625,-2.0625,0.1875
1480527307185667,7.125,-0.5625,-0.5
1480527307202211,2.375,-0.6875,-0.1875
1480527307224771,0.75,-1.6875,-0.1875
1480527307247331,6.9375,-1.9375,-0.75
1480527307261871,6.625,-2.0625,-1.3125
1480527307284432,2.0625,-1.625,-0.75
1480527307306989,-0.9375,-2.25,0.125
1480527307329549,4,-1.75,-0.125
1480527307352610,5.875,-1.125,-0.125
1480527307367152,1.3125,-1.375,-0.0625
1480527307381694,-2.875,-1.125,0.1875
1480527307404749,-0.875,-0.5,-0.125
1480527307427309,-0.25,-0.4375,-0.25
1480527307455384,0.4375,-0.8125,-0.75
1480527307464409,0.1875,-0.3125,-0.1875
1480527307487471,1.0625,0.4375,0.25
1480527307502008,1.5,-0.375,-0.125
1480527307526072,1.5,-0.8125,-0.375
1480527307562168,-0.0625,-0.375,-0.5625
1480527307564676,0.1875,0.5625,-0.125
1480527307584730,0.5,0.75,-0.125
1480527307607288,0.4375,-0.625,-0.375
1480527307629348,-0.3125,-1.0625,-0.25
1480527307644387,-0.6875,-0.5,0
1480527307666950,1.5625,-0.125,-0.375
1480527307681487,0.4375,-0.125,-0.4375
1480527307712067,-1.375,-0.4375,-0.1875
1480527307735629,-1,-0.25,0.5
1480527307748165,-0.625,0,0.3125
1480527307770723,1.75,-0.0625,-0.5625
1480527307787768,0.375,-0.4375,-0.3125
1480527307815844,-1.125,0.125,-0.3125
1480527307824366,-1.8125,0.25,0.375
1480527307846926,-0.1875,0.4375,-0.25
1480527307867982,-0.875,-0.125,0
1480527307884527,-0.0625,-0.3125,-0.1875
1480527307907086,-1,-0.1875,0.25
1480527307928141,0.4375,0.25,-0.125
1480527307952707,0.75,0.1875,-0.3125
1480527307968248,-0.625,-0.3125,-0.25
1480527307990811,-0.625,-0.5,-0.3125
1480527308011864,0,-0.5625,0.3125
1480527308026905,-0.5625,-0.125,-0.1875
1480527308048463,-0.5,-0.8125,0
1480527308064506,1.6875,-0.5,-0.5
1480527308087064,1.125,-0.625,0
1480527308115642,0.4375,-0.4375,-0.375
1480527308124664,-0.625,-0.375,-0.1875
1480527308147726,0.25,-0.25,-0.375
1480527308168280,0.4375,0.3125,-0.1875
1480527308184826,-0.75,-0.0625,0.625
1480527308206884,-0.9375,0,-0.125
1480527308229443,-0.125,0.0625,-0.0625
1480527308244484,0.75,0.1875,-0.0625
1480527308267044,-1.1875,0.125,-0.1875
1480527308297625,-1.5,-0.375,0.125
1480527308304643,-0.875,0.125,0.25
1480527308327203,1.25,0.4375,0
1480527308349263,-0.4375,-0.375,0.125
1480527308363801,-0.625,-0.1875,-0.375
1480527308394381,-2.0625,-0.0625,-0.1875
1480527308409422,0.6875,-0.125,0
1480527308423961,0.0625,0.0625,0.125
1480527308447022,0.6875,-0.375,-0.125
1480527308469582,0.9375,0.1875,-0.25
1480527308499664,0.0625,1.375,-0.5
1480527308507182,-4.1875,1.9375,-0.9375
1480527308529742,-15.3125,1.8125,0.5
1480527308544824,-9.1875,1.0625,0.6875
1480527308551299,7.625,1.5,1.75
1480527308572355,12.8125,2.0625,0.5625
1480527308606948,8.375,2.25,0.875
1480527308611460,10.8125,-1.875,-0.3125
1480527308632516,3.1875,-3.375,0
1480527308655075,-5.8125,-2.75,0
1480527308672622,-8.25,-2.25,0
1480527308692675,0.1875,-2.4375,-0.1875
1480527308714736,3.0625,-2.125,0.0625
1480527308738798,-2.25,-1.125,-0.1875
1480527308752334,-4.875,-0.875,0.125
1480527308778541,-3.25,-1,-0.1875
1480527308792942,1.1875,-0.875,-0.3125
1480527308812494,-0.625,-0.625,-0.5
1480527308835054,-2.75,0.0625,-0.375
1480527308857614,0.5625,1.1875,-0.3125
1480527308882681,1.5,0.4375,-0.3125
1480527308894712,0.875,-0.375,-0.125
1480527308917775,1.9375,0.25,-0.375
1480527308932314,5.375,0.8125,-0.4375
1480527308954873,8.875,0.75,-0.4375
1480527308986457,12.25,1,-0.4375
1480527308992472,13,1.125,-0.375
1480527309016538,9.9375,1.25,-0.125
1480527309038094,4,0.875,0.375
1480527309070179,1.1875,0,-0.1875
1480527309074691,-0.5,0.3125,0.375
1480527309100262,-2.9375,0.75,0.1875
1480527309119811,-3.9375,0.25,-0.1875
1480527309134851,-5.1875,-0.5625,0.25
1480527309160421,-6,0.125,0.25
1480527309172451,-3.5,0.6875,0.0625
1480527309195011,-2.875,0.75,-0.5
1480527309228601,-4.875,0.4375,-0.625
1480527309232612,-2.125,0.4375,-0.4375
1480527309255171,2,0.1875,-0.5
1480527309278017,-0.5,0.4375,-0.3125
1480527309292270,-0.625,0.375,-0.375
1480527309314830,-0.125,0.3125,-0.1875
1480527309337390,2.75,0.0625,-0.1875
1480527309352430,0.6875,0.125,-0.4375
1480527309376495,-1,0.4375,0
1480527309397551,-0.3125,0.3125,-0.125
1480527309412590,1.8125,0.875,0
1480527309437658,2,1.625,-0.125
1480527309457710,1.25,1.8125,0.625
1480527309472249,0.5625,1.625,1.125
1480527309494811,0.9375,1,0.75
1480527309517373,4.5,1,0.25
1480527309539929,2.6875,-0.0625,0.3125
1480527309554969,-3.8125,-1.125,0.375
1480527309577529,-6.875,-0.625,0.5
1480527309592569,-2.625,-0.6875,0.0625
1480527309615131,1.3125,-0.75,0.5
1480527309637187,0.125,-0.6875,0.4375
1480527309653732,-2,-1,0.5625
1480527309674787,-1.375,-1.3125,0.5625
1480527309705870,-0.25,-1.3125,0.375
1480527309715397,-0.25,-0.5625,0.0625
1480527309735950,-1.125,-1.0625,0.25
1480527309760516,-2.5,-1.6875,0.1875
1480527309780070,-0.5625,-0.6875,-0.25
1480527309795108,-0.375,-0.5625,0.0625
1480527309817671,0.3125,-0.9375,0.0625
1480527309834713,-1.625,-0.8125,0.125
1480527309856270,-1.0625,-0.625,-0.0625
1480527309885849,-0.3125,-0.5,0
1480527309893870,-0.625,0.375,-0.375
1480527309914927,-1.5,0.1875,-0.75
1480527309937486,0,-0.0625,-0.3125
1480527309955534,0.25,-0.0625,-0.375
1480527309975086,-0.9375,-0.1875,-0.4375
1480527309997647,-1.1875,-0.4375,-0.25
1480527310014192,-0.5625,-0.9375,-0.125
1480527310035246,0.8125,-1.1875,0
1480527310058809,2.375,-1.25,0.25
1480527310075353,-0.75,-1.125,-0.0625
1480527310096409,-0.8125,-0.9375,-0.3125
1480527310124985,1.1875,-0.125,-0.25
1480527310136015,-0.4375,0.5,-0.3125
1480527310156570,-0.3125,0.5625,-0.0625
1480527310177625,-3.625,0.125,0.375
1480527310195173,-0.75,0.625,0
1480527310214725,3.875,0.375,-0.625
1480527310238788,2.9375,-0.75,-0.5
1480527310255332,-1.5625,-1.1875,-0.5625
1480527310274883,0.1875,-1.125,-0.25
1480527310297444,-0.1875,0.4375,-0.0625
1480527310315994,-1.125,-0.4375,0
1480527310336548,-0.0625,0.125,-0.5
1480527310357604,-1.5625,0.625,-0.4375
1480527310380165,-0.3125,0.125,-0.5625
1480527310395204,0,0.25,-0.5625
1480527310417264,0,-0.0625,-0.625
1480527310442831,-1.1875,-0.0625,-0.125
1480527310454863,-0.75,0.25,-0.1875
1480527310477422,-0.6875,0.375,-0.3125
1480527310499986,0.3125,0.0625,-0.125
1480527310516532,-0.5625,0.3125,-0.25
1480527310537582,-1,-0.3125,0
1480527310560142,-0.5625,-0.375,0
1480527310576186,0.3125,0.0625,0
1480527310597243,0.25,0.375,-0.125
1480527310619802,0.0625,-0.125,0.125
1480527310634841,1.5,0.1875,-0.125
1480527310657404,0.25,0.375,-0.125
1480527310679964,-1.5,0.3125,-0.125
1480527310698011,-0.5625,0.1875,0.0625
1480527310717561,1.375,0.25,-0.4375
1480527310740121,0.875,0.125,-0.25
1480527310756164,-0.4375,-0.125,-0.5625
1480527310777721,-0.4375,-0.0625,-0.25
1480527310799780,-0.0625,-0.0625,-0.3125
1480527310823845,0.3125,-0.5625,0.25
1480527310837380,0,-0.375,0.25
1480527310859940,-0.625,-0.25,-0.125
1480527310876484,0.5,-0.0625,-0.25
1480527310900550,0.875,-0.25,-0.125
1480527310928122,-0.125,-0.5625,-0.4375
1480527310936645,-0.25,-0.125,-0.3125
1480527310957198,0.1875,0.3125,-0.5
1480527310979760,-0.625,0.0625,-1
1480527310997808,0,-0.25,-0.375
1480527311017362,-0.6875,-0.1875,0.0625
1480527311039919,0.125,0,0.1875
1480527311057967,1,0,-0.1875
1480527311077519,0.625,-0.25,-0.3125
1480527311110607,-0.625,-0.1875,0.0625
1480527311117626,-0.375,0.125,-0.0625
1480527311137179,-0.125,-0.0625,-0.1875
1480527311160239,1.0625,0.0625,-0.4375
1480527311177786,-1.1875,-0.375,-0.1875
1480527311197338,-0.75,-0.0625,0.0625
1480527311219897,0.6875,0.3125,0.1875
1480527311238447,0.75,0.25,0.125
1480527311257497,1.0625,0.125,-0.125
1480527311281564,0.3125,-0.1875,-0.4375
1480527311305124,0.25,-0.25,-0.25
1480527311317658,1.25,-0.1875,-0.25
1480527311341220,0.4375,-0.375,-0.375
1480527311357764,0.4375,-0.4375,-0.25
1480527311384836,-0.25,-0.5,-0.1875
1480527311415419,0.375,-0.5625,-0.375
1480527311425444,1.25,-0.0625,-0.0625
1480527311437476,1.3125,-0.0625,-0.1875
1480527311460036,0.8125,-0.1875,-0.3125
1480527311478085,0.4375,-0.375,-0.25
1480527311497636,0.8125,0,-0.4375
1480527311527718,0.375,-0.25,-0.5
1480527311537743,0.5625,-0.25,-0.3125
1480527311557295,-0.1875,-0.375,-0.3125
1480527311579855,-0.6875,-0.375,-0.3125
1480527311597905,-0.25,-0.75,0.1875
1480527311618959,0.4375,-0.625,0
1480527311647540,0.1875,-0.75,-0.25
1480527311658063,-0.125,-0.75,-0.75
1480527311679120,-0.5,-0.25,-0.5625
1480527311700178,0.25,-0.4375,-0.0625
1480527311723738,-0.1875,-0.625,-0.375
1480527311738777,-0.3125,-0.1875,-0.1875
1480527311759834,0.3125,-0.0625,-0.25
1480527311777992,1.5625,-0.125,-0.25
1480527311806458,1.1875,-0.25,0
1480527311819994,1,-0.125,0.0625
1480527311842553,0.0625,-0.125,-0.125
1480527311859098,-0.4375,-0.125,-0.625
1480527311880154,0.375,-0.1875,-0.0625
1480527311902212,2,-0.0625,-0.0625
1480527311933799,0.1875,-0.1875,-0.4375
1480527311939812,-1,-0.25,-0.1875
1480527311962373,0.1875,-0.3125,-0.0625
1480527311980423,0.8125,0.0625,-0.3125
1480527311999976,-0.25,0,-0.0625
1480527312022532,-0.375,-0.1875,-0.0625
1480527312045093,0.0625,-0.125,0
1480527312060134,0.625,0.0625,-0.0625
1480527312082694,-0.5,0.3125,-0.0625
1480527312100241,-0.6875,-0.125,-0.0625
1480527312119793,0.125,0,-0.3125
1480527312142351,0.8125,0.5,-0.1875
1480527312160399,0.1875,0.375,0.125
1480527312179951,-0.75,-0.1875,0.25
1480527312204015,-0.375,0,-0.0625
1480527312220560,0.0625,0.5625,-0.0625
1480527312240111,-0.25,0,0
1480527312262672,-1.0625,-0.0625,-0.0625
1480527312288239,0.25,0.1875,-0.125
1480527312300271,0.625,0.1875,-0.1875
1480527312322331,-0.5,0.5,-0.125
1480527312346394,-0.5,0.0625,-0.0625
1480527312362938,-0.1875,0.375,-0.0625
1480527312382490,0.25,0.5625,-0.25
1480527312400539,0.125,0.375,-0.0625
1480527312427610,-0.9375,0.5,0.0625
1480527312442649,-0.6875,0.3125,-0.3125
1480527312460197,0.5,0,-0.1875
1480527312481254,1.3125,0.25,-0.1875
1480527312502312,0.0625,-0.0625,-0.1875
1480527312527877,-1.3125,-0.125,0.1875
1480527312539908,-0.875,-0.0625,0.25
1480527312562468,0.9375,0.125,0.25
1480527312580518,0.0625,0.25,0.0625
1480527312601572,-0.4375,0.125,-0.0625
1480527312640677,-0.375,0.1875,0
1480527312644687,-0.125,0,0.1875
1480527312669755,-0.25,0.0625,0.0625
1480527312682288,-1.375,0.3125,0.125
1480527312706351,-0.625,0.3125,-0.0625
1480527312721393,0.375,0.125,0
1480527312742447,0.0625,0.1875,0.3125
1480527312760496,-0.3125,0.0625,0.125
1480527312781556,-0.5625,0.125,-0.125
1480527312802607,-0.625,0.3125,-0.3125
1480527312820155,-0.25,0,-0.125
1480527312841210,-0.125,-0.0625,0.0625
1480527312862266,-1.6875,0.1875,-0.125
1480527312880315,0.3125,0.125,-0.0625
1480527312902874,0.1875,-0.0625,0.125
1480527312922426,-1.0625,0.25,0.125
1480527312940474,-0.6875,0.25,0.3125
1480527312963036,0.1875,0.4375,0.375
1480527312985093,0.1875,0.5,0.5
1480527313000133,0.25,0.25,0.125
1480527313022693,-0.25,0,0
1480527313045882,0.1875,0.4375,0
1480527313060293,-0.25,0,0
1480527313082853,-0.375,0,0.125
1480527313109925,0.125,0.125,0.25
1480527313120453,0,0.1875,0.3125
1480527313143013,-0.75,-0.0625,0.4375
1480527313162565,-0.1875,0.125,0.1875
1480527313180112,0.3125,0.0625,0.25
1480527313202671,0.8125,0.1875,0.1875
1480527313222223,-0.25,-0.25,0.125
1480527313240271,-0.8125,0.0625,0.1875
1480527313267344,-0.5,0.3125,0.1875
1480527313289903,0.625,0.1875,0.125
1480527313304943,-0.125,0.0625,0.0625
1480527313322991,-1.1875,-0.125,0.1875
1480527313342543,-1.5,-0.0625,0.3125
1480527313365103,0.1875,0.1875,0.25
1480527313387664,0.625,-0.125,0.0625
1480527313402202,0.25,-0.125,-0.125
1480527313432282,-0.4375,0,0.3125
1480527313442810,-0.375,0,0.1875
1480527313471386,-0.1875,0.0625,-0.125
1480527313492442,-0.25,-0.0625,0.25
1480527313502970,-1,0.0625,0.0625
1480527313524026,-0.5,0.4375,0.25
1480527313545083,-0.8125,0.25,-0.1875
1480527313570149,-0.4375,-0.125,0.125
1480527313583688,0,-0.125,0.25
1480527313604742,-0.625,-0.0625,0.25
1480527313622793,-0.8125,-0.0625,0.0625
1480527313643846,-0.6875,-0.125,-0.1875
1480527313681949,0.4375,-0.0625,-0.0625
1480527313684453,0.125,-0.0625,-0.125
1480527313705509,-1.6875,0.1875,-0.3125
1480527313726565,-1.5625,0,-0.125
1480527313748624,-1.0625,0.375,0.4375
1480527313770184,1.375,0.5625,0.75
1480527313784720,2.125,0.4375,0.4375
1480527313802771,0.25,-0.0625,-0.0625
1480527313825328,-1.0625,0.125,-0.0625
1480527313844880,-1.3125,-0.0625,0.0625
1480527313884485,0.625,0.1875,-0.125
1480527313886993,1.8125,0.4375,-0.1875
1480527313905040,-0.625,0.25,-0.125
1480527313922586,-1.875,0.25,-0.3125
1480527313945648,-1.0625,0.3125,-0.125
1480527313972219,0.125,0.1875,-0.125
1480527313982747,0.125,-0.125,0.0625
1480527314005306,-0.125,0.4375,0
1480527314024858,0.875,0.125,0
1480527314047419,0.0625,0,0
1480527314065466,-0.75,-0.0625,0.125
1480527314085019,-0.3125,0.5,-0.0625
1480527314102567,0,0.4375,0
1480527314125125,0.125,0.0625,0.1875
1480527314145179,0.125,0.1875,0.125
1480527314162729,0.0625,0.125,0.125
1480527314185787,-0.625,-0.125,-0.125
1480527314204837,-0.0625,0.0625,-0.1875
1480527314222887,0,0.0625,0.125
1480527314245447,0.0625,-0.0625,0.1875
1480527314264997,0.625,0,-0.0625
1480527314283045,-0.0625,0.0625,0
1480527314305105,-0.0625,0,0
1480527314325157,-0.3125,-0.375,0.0625
1480527314343707,0.25,0.0625,-0.125
1480527314365282,0.25,-0.1875,0.0625
1480527314384816,-0.0625,-0.125,-0.0625
1480527314402864,-0.4375,0.0625,-0.125
1480527314425926,-0.25,-0.125,-0.1875
1480527314444977,0.1875,-0.0625,-0.125
1480527314463025,0.1875,-0.1875,0.1875
1480527314485083,0.0625,-0.0625,0.0625
1480527314506139,0.0625,0.0625,0.25
1480527314522683,-0.25,-0.1875,-0.1875
1480527314545246,0.3125,-0.25,-0.0625
1480527314566299,0.6875,0.1875,-0.4375
1480527314582843,0.75,0,-0.0625
1480527314605403,-0.3125,-0.125,-0.375
1480527314626459,-0.5,-0.5625,0
1480527314643004,0.0625,-0.125,-0.0625
1480527314666565,0,-0.25,0.25
1480527314686118,-0.375,-0.375,0.125
1480527314703163,-0.125,-0.375,0.0625
1480527314725222,0.8125,-0.3125,0
1480527314753798,0.125,-0.375,-0.0625
1480527314762822,-0.5625,-0.25,-0.1875
1480527314785381,0,-0.1875,-0.25
1480527314822481,0.75,0.125,0.0625
1480527314827995,0.6875,-0.0625,-0.0625
1480527314845544,-0.0625,-0.125,-0.125
1480527314868603,0.0625,-0.0625,-0.125
1480527314887152,0.5625,-0.125,-0.125
1480527314905201,0.25,-0.3125,-0.1875
1480527314927760,0,-0.25,-0.25
1480527314947312,-0.5,-0.3125,-0.125
1480527314965360,-0.5625,-0.4375,-0.3125
1480527314988422,0.625,0,-0.125
1480527315007472,-0.0625,0,-0.0625
1480527315025521,-2.1875,1,-0.375
1480527315055099,-3.375,1.1875,-0.4375
1480527315067632,-3.6875,0.0625,-0.0625
1480527315086181,0.8125,0.625,-0.3125
1480527315107739,4.5625,-0.25,0
1480527315128797,1.75,-0.8125,0.3125
1480527315145339,-1.1875,-0.75,-0.1875
1480527315167900,-0.0625,-0.625,0.5
1480527315188955,2.375,-0.75,-0.0625
1480527315205499,1.875,-0.875,0
1480527315228060,-0.5,-0.5625,-0.0625
1480527315247612,-0.375,-0.5625,0.125
1480527315272678,1.5625,-0.75,0.125
1480527315288721,1.375,-0.625,0.125
1480527315310278,0.5,-0.375,0.3125
1480527315325819,-0.25,-0.375,0
1480527315347878,0.25,0.0625,-0.375
1480527315367931,1.625,-0.125,-0.625
1480527315384475,0.4375,0,0.125
1480527315407038,-0.0625,-0.3125,-0.125
1480527315428092,-0.125,-0.125,-0.3125
1480527315444635,0.1875,-0.3125,-0.125
1480527315467199,-0.0625,-0.375,0
