timestamp,x,y,z,w
1480527249465309,-0.408508,-0.0933228,0.120605,0.899902
1480527249475838,-0.408508,-0.0933228,0.120605,0.899902
1480527249495389,-0.408508,-0.0933228,0.120605,0.899902
1480527249517948,-0.408508,-0.0933228,0.120605,0.899902
1480527249543519,-0.408508,-0.0933228,0.120605,0.899902
1480527249573095,-0.408508,-0.0933228,0.120605,0.899902
1480527249578109,-0.408447,-0.0933228,0.120605,0.899902
1480527249595655,-0.408508,-0.0933228,0.120605,0.899902
1480527249615207,-0.408508,-0.0933228,0.120605,0.899902
1480527249637768,-0.408508,-0.0933228,0.120605,0.899902
1480527249655815,-0.408447,-0.0933228,0.120605,0.899902
1480527249676872,-0.408508,-0.0933228,0.120605,0.899902
1480527249697927,-0.408508,-0.0933228,0.120605,0.899902
1480527249720488,-0.408508,-0.0933228,0.120605,0.899902
1480527249735527,-0.408508,-0.0933838,0.120605,0.899902
1480527249758091,-0.408508,-0.0933838,0.120605,0.899902
1480527249783155,-0.408508,-0.0933838,0.120605,0.899902
1480527249795186,-0.408508,-0.0933838,0.120605,0.899902
1480527249817746,-0.408508,-0.0933838,0.120605,0.899902
1480527249836797,-0.408508,-0.0933838,0.120605,0.899902
1480527249858356,-0.408508,-0.0933228,0.120605,0.899902
1480527249877908,-0.408508,-0.0933228,0.120605,0.899902
1480527249895957,-0.408447,-0.0933228,0.120605,0.899902
1480527249924531,-0.408447,-0.0933838,0.120605,0.899902
1480527249938066,-0.408508,-0.0933228,0.120605,0.899902
1480527249963133,-0.408508,-0.0933228,0.120605,0.899902
1480527249976669,-0.408508,-0.0933838,0.120605,0.899902
1480527250005245,-0.408508,-0.0933838,0.120605,0.899902
1480527250015773,-0.408508,-0.0933838,0.120605,0.899902
1480527250036829,-0.408508,-0.0933838,0.120605,0.899902
1480527250057886,-0.408508,-0.0933838,0.120605,0.899902
1480527250081950,-0.408508,-0.0933838,0.120605,0.899902
1480527250096989,-0.408508,-0.0933838,0.120605,0.899902
1480527250118045,-0.408569,-0.0933838,0.120605,0.899902
1480527250136594,-0.408508,-0.0933838,0.120605,0.899902
1480527250156648,-0.408508,-0.0933838,0.120605,0.899902
1480527250178207,-0.408508,-0.0933838,0.120605,0.899902
1480527250195751,-0.408508,-0.0933838,0.120605,0.899902
1480527250216808,-0.408508,-0.0933838,0.120605,0.899902
1480527250237863,-0.408447,-0.0933838,0.120605,0.899902
1480527250260423,-0.408508,-0.0933838,0.120544,0.899902
1480527250276968,-0.408508,-0.0933838,0.120605,0.899902
1480527250298023,-0.408508,-0.0933838,0.120544,0.899902
1480527250316072,-0.408447,-0.0933838,0.120544,0.899902
1480527250338131,-0.408447,-0.0933838,0.120544,0.899902
1480527250358185,-0.408508,-0.0933838,0.120544,0.899902
1480527250375730,-0.408508,-0.0933838,0.120544,0.899902
1480527250398291,-0.408447,-0.0934448,0.120544,0.899902
1480527250419346,-0.408447,-0.0934448,0.120544,0.899963
1480527250436392,-0.408447,-0.0933838,0.120544,0.899902
1480527250458454,-0.408508,-0.0933838,0.120544,0.899902
1480527250478002,-0.408447,-0.0933838,0.120544,0.899902
1480527250496051,-0.408447,-0.0934448,0.120544,0.899902
1480527250518109,-0.408508,-0.0933838,0.120544,0.899902
1480527250537661,-0.408508,-0.0933838,0.120544,0.899902
1480527250556211,-0.408508,-0.0933838,0.120544,0.899902
1480527250578270,-0.408508,-0.0934448,0.120544,0.899902
1480527250597821,-0.408569,-0.0934448,0.120544,0.899902
1480527250615870,-0.408569,-0.0933838,0.120544,0.899902
1480527250638430,-0.408569,-0.0934448,0.120544,0.899902
1480527250657985,-0.408508,-0.0934448,0.120544,0.899902
1480527250676532,-0.408508,-0.0933838,0.120544,0.899902
1480527250706111,-0.408569,-0.0933838,0.120605,0.899902
1480527250720648,-0.408508,-0.0933838,0.120605,0.899902
1480527250743208,-0.408508,-0.0933838,0.120544,0.899902
1480527250758752,-0.408508,-0.0933838,0.120544,0.899902
1480527250780808,-0.408569,-0.0933838,0.120544,0.899902
1480527250795848,-0.408508,-0.0933838,0.120605,0.899902
1480527250818408,-0.408508,-0.0933838,0.120544,0.899902
1480527250837960,-0.408508,-0.0933838,0.120544,0.899902
1480527250860526,-0.408569,-0.0933838,0.120544,0.899902
1480527250878569,-0.408569,-0.0933838,0.120544,0.899902
1480527250899122,-0.408569,-0.0934448,0.120544,0.899902
1480527250927700,-0.408569,-0.0934448,0.120544,0.899902
1480527250938227,-0.408569,-0.0934448,0.120544,0.899902
1480527250959283,-0.408569,-0.0934448,0.120544,0.899902
1480527250980339,-0.408508,-0.0934448,0.120544,0.899902
1480527250998386,-0.408569,-0.0934448,0.120544,0.899902
1480527251019443,-0.408447,-0.0933838,0.120605,0.899902
1480527251040500,-0.408447,-0.0933228,0.120605,0.899902
1480527251058547,-0.408447,-0.0933228,0.120605,0.899963
1480527251079603,-0.408447,-0.0933838,0.120605,0.899963
1480527251102165,-0.408447,-0.0933228,0.120605,0.899902
1480527251118207,-0.408508,-0.0933228,0.120605,0.899902
1480527251139262,-0.408447,-0.0933228,0.120605,0.899902
1480527251163326,-0.408447,-0.0933838,0.120605,0.899902
1480527251178366,-0.408508,-0.0933838,0.120605,0.899902
1480527251206942,-0.408508,-0.0933228,0.120605,0.899902
1480527251220477,-0.408447,-0.0933838,0.120605,0.899902
1480527251238526,-0.408447,-0.0933838,0.120605,0.899902
1480527251261086,-0.408447,-0.0933838,0.120605,0.899902
1480527251280890,-0.408508,-0.0933228,0.120605,0.899902
1480527251299187,-0.408508,-0.0933228,0.120605,0.899902
1480527251320744,-0.408508,-0.0933838,0.120605,0.899902
1480527251340296,-0.408508,-0.0933838,0.120605,0.899902
1480527251358346,-0.408508,-0.0933838,0.120605,0.899902
1480527251380905,-0.408508,-0.0933228,0.120605,0.899902
1480527251410985,-0.408508,-0.0933838,0.120605,0.899902
1480527251418506,-0.408508,-0.0933838,0.120605,0.899902
1480527251441065,-0.408569,-0.0933228,0.120605,0.899902
1480527251460616,-0.408508,-0.0933228,0.120605,0.899902
1480527251478164,-0.408508,-0.0933228,0.120605,0.899902
1480527251500723,-0.408508,-0.0933838,0.120605,0.899902
1480527251520274,-0.408569,-0.0933838,0.120605,0.899902
1480527251538323,-0.408569,-0.0933838,0.120605,0.899902
1480527251560885,-0.408508,-0.0933838,0.120605,0.899902
1480527251580436,-0.40863,-0.0934448,0.120605,0.899841
1480527251598482,-0.408691,-0.0934448,0.120605,0.899841
1480527251621043,-0.408691,-0.0934448,0.120605,0.899841
1480527251640597,-0.40863,-0.0935059,0.120605,0.899841
1480527251658142,-0.40863,-0.0935059,0.120605,0.899841
1480527251680702,-0.40863,-0.0934448,0.120605,0.899841
1480527251700253,-0.408691,-0.0934448,0.120605,0.899841
1480527251718302,-0.40863,-0.0934448,0.120605,0.899841
1480527251746879,-0.40863,-0.0935059,0.120605,0.899841
1480527251760415,-0.40863,-0.0934448,0.120605,0.899841
1480527251784478,-0.408691,-0.0934448,0.120605,0.899841
1480527251801021,-0.40863,-0.0934448,0.120605,0.899841
1480527251828094,-0.40863,-0.0934448,0.120605,0.899841
1480527251838121,-0.40863,-0.0934448,0.120605,0.899841
1480527251860680,-0.408691,-0.0934448,0.120605,0.899841
1480527251881736,-0.408447,-0.0935059,0.120544,0.899902
1480527251898280,-0.408447,-0.0935059,0.120544,0.899902
1480527251920841,-0.408569,-0.0935669,0.120483,0.899841
1480527251941896,-0.40863,-0.0935669,0.120483,0.899841
1480527251958440,-0.408386,-0.0935669,0.120483,0.899963
1480527251981001,-0.408325,-0.0935669,0.120422,0.899963
1480527252003561,-0.408325,-0.0935669,0.120422,0.899963
1480527252024619,-0.408386,-0.0935669,0.120483,0.899963
1480527252041163,-0.408386,-0.0935059,0.120483,0.899963
1480527252063219,-0.408386,-0.0935669,0.120483,0.899963
1480527252078260,-0.408386,-0.0935669,0.120483,0.899963
1480527252100819,-0.408386,-0.0935669,0.120483,0.899963
1480527252121876,-0.408386,-0.0935669,0.120483,0.899963
1480527252138428,-0.408386,-0.0935669,0.120483,0.899963
1480527252160979,-0.408386,-0.0935669,0.120422,0.899963
1480527252183539,-0.408386,-0.0935669,0.120422,0.899963
1480527252198078,-0.408447,-0.0935669,0.120483,0.899963
1480527252220638,-0.408386,-0.0935669,0.120483,0.899963
1480527252243198,-0.408386,-0.0935669,0.120422,0.899963
1480527252258244,-0.408447,-0.0935669,0.120422,0.899963
1480527252281046,-0.408447,-0.0935669,0.120422,0.899963
1480527252310879,-0.408386,-0.0935669,0.120422,0.899963
1480527252322911,-0.408386,-0.0935669,0.120422,0.899963
1480527252347475,-0.408447,-0.0935669,0.120422,0.899963
1480527252363517,-0.408447,-0.0935669,0.120422,0.899902
1480527252383070,-0.408447,-0.0935669,0.120422,0.899902
1480527252400117,-0.408447,-0.0936279,0.120422,0.899963
1480527252422680,-0.408447,-0.0935669,0.120422,0.899902
1480527252443731,-0.408447,-0.0935669,0.120422,0.899902
1480527252460279,-0.408447,-0.0935669,0.120422,0.899963
1480527252482846,-0.408447,-0.0935669,0.120422,0.899963
1480527252503390,-0.408447,-0.0935669,0.120422,0.899902
1480527252519937,-0.408447,-0.0935669,0.120422,0.899902
1480527252542495,-0.408508,-0.0935669,0.120422,0.899902
1480527252563551,-0.408447,-0.0935669,0.120422,0.899902
1480527252580095,-0.408447,-0.0935669,0.120422,0.899902
1480527252602654,-0.408508,-0.0935669,0.120422,0.899902
1480527252623711,-0.408508,-0.0935669,0.120422,0.899902
1480527252647536,-0.408447,-0.0935669,0.120422,0.899902
1480527252662313,-0.408447,-0.0935669,0.120422,0.899902
1480527252683368,-0.408508,-0.0935669,0.120483,0.899902
1480527252699912,-0.408508,-0.0935669,0.120483,0.899902
1480527252722473,-0.408508,-0.0935669,0.120483,0.899902
1480527252745033,-0.408508,-0.0935669,0.120483,0.899902
1480527252760074,-0.408508,-0.0935669,0.120483,0.899902
1480527252783133,-0.408508,-0.0935669,0.120483,0.899902
1480527252803688,-0.408508,-0.0935669,0.120483,0.899902
1480527252820233,-0.408508,-0.0935669,0.120422,0.899902
1480527252842291,-0.408569,-0.0935669,0.120483,0.899902
1480527252863347,-0.408569,-0.0935669,0.120483,0.899902
1480527252879893,-0.408569,-0.0935669,0.120483,0.899902
1480527252902451,-0.408508,-0.0935669,0.120422,0.899902
1480527252925015,-0.408569,-0.0935669,0.120483,0.899902
1480527252940555,-0.408569,-0.0935669,0.120483,0.899902
1480527252962612,-0.408569,-0.0935669,0.120483,0.899902
1480527252983668,-0.408508,-0.0935669,0.120422,0.899902
1480527253000219,-0.408508,-0.0935669,0.120483,0.899902
1480527253022772,-0.408569,-0.0935669,0.120483,0.899902
1480527253043327,-0.408569,-0.0935669,0.120483,0.899902
1480527253059870,-0.408508,-0.0935669,0.120483,0.899902
1480527253082431,-0.408569,-0.0935669,0.120483,0.899902
1480527253103486,-0.408569,-0.0935669,0.120422,0.899841
1480527253120532,-0.40863,-0.0936279,0.120422,0.899841
1480527253148606,-0.408569,-0.0936279,0.120422,0.899841
1480527253179689,-0.408569,-0.0936279,0.120422,0.899841
1480527253182196,-0.408813,-0.0935669,0.120483,0.89978
1480527253202750,-0.408813,-0.0935669,0.120483,0.89978
1480527253225310,-0.408813,-0.0935669,0.120422,0.89978
1480527253239851,-0.408752,-0.0935669,0.120422,0.89978
1480527253262409,-0.408813,-0.0935669,0.120422,0.89978
1480527253284969,-0.408813,-0.0935669,0.120422,0.89978
1480527253299507,-0.408813,-0.0935669,0.120422,0.89978
1480527253322569,-0.408752,-0.0935669,0.120483,0.89978
1480527253345630,-0.408813,-0.0935669,0.120483,0.89978
1480527253359168,-0.408813,-0.0935669,0.120483,0.89978
1480527253382729,-0.408813,-0.0935669,0.120483,0.89978
1480527253404788,-0.408813,-0.0935669,0.120422,0.89978
1480527253419828,-0.408813,-0.0935669,0.120422,0.89978
1480527253455924,-0.408813,-0.0935669,0.120483,0.89978
1480527253464948,-0.408813,-0.0935669,0.120422,0.89978
1480527253479486,-0.408813,-0.0935669,0.120422,0.89978
1480527253503050,-0.408813,-0.0935669,0.120422,0.89978
1480527253525107,-0.408875,-0.0935669,0.120422,0.899719
1480527253539146,-0.408875,-0.0935669,0.120422,0.899719
1480527253563710,-0.408813,-0.0935669,0.120422,0.89978
1480527253584766,-0.408875,-0.0935669,0.120422,0.899719
1480527253599305,-0.408875,-0.0935669,0.120483,0.899719
1480527253622367,-0.408875,-0.0935669,0.120483,0.899719
1480527253644927,-0.408875,-0.0935669,0.120422,0.899719
1480527253665982,-0.408875,-0.0935669,0.120422,0.899719
1480527253682026,-0.408875,-0.0935669,0.120483,0.899719
1480527253705086,-0.408875,-0.0935669,0.120483,0.899719
1480527253726646,-0.408875,-0.0935669,0.120483,0.899719
1480527253742687,-0.408875,-0.0935669,0.120483,0.899719
1480527253765246,-0.408875,-0.0935669,0.120422,0.899719
1480527253785801,-0.408936,-0.0935669,0.120422,0.899719
1480527253802345,-0.408875,-0.0935669,0.120422,0.899719
1480527253824906,-0.408875,-0.0935669,0.120422,0.899719
1480527253845961,-0.408936,-0.0935669,0.120483,0.899719
1480527253863006,-0.408936,-0.0935669,0.120483,0.899719
1480527253885567,-0.408875,-0.0935669,0.120422,0.899719
1480527253906121,-0.408936,-0.0936279,0.120422,0.899719
1480527253922667,-0.408936,-0.0935669,0.120422,0.899719
1480527253945226,-0.408997,-0.0935669,0.120483,0.899719
1480527253966281,-0.408936,-0.0935669,0.120422,0.899719
1480527253982324,-0.408936,-0.0936279,0.120422,0.899719
1480527254004885,-0.408936,-0.0935669,0.120422,0.899719
1480527254025940,-0.408936,-0.0935669,0.120422,0.899719
1480527254042485,-0.408936,-0.0935669,0.120483,0.899719
1480527254065045,-0.408936,-0.0935669,0.120422,0.899719
1480527254087604,-0.408936,-0.0935669,0.120483,0.899719
1480527254102644,-0.408936,-0.0935669,0.120483,0.899719
1480527254125204,-0.408936,-0.0935669,0.120483,0.899719
1480527254147263,-0.408936,-0.0935669,0.120483,0.899719
1480527254162302,-0.408936,-0.0935669,0.120483,0.899719
1480527254184863,-0.408997,-0.0935669,0.120483,0.899719
1480527254208425,-0.408997,-0.0935669,0.120483,0.899658
1480527254221961,-0.408997,-0.0935669,0.120483,0.899719
1480527254245038,-0.408997,-0.0935669,0.120483,0.899658
1480527254267582,-0.408997,-0.0935669,0.120483,0.899658
1480527254288638,-0.408997,-0.0935669,0.120483,0.899658
1480527254305183,-0.408997,-0.0935669,0.120483,0.899658
1480527254327241,-0.408997,-0.0935669,0.120483,0.899658
1480527254341780,-0.408997,-0.0935669,0.120483,0.899658
1480527254365844,-0.408997,-0.0935669,0.120483,0.899658
1480527254387401,-0.408997,-0.0935669,0.120483,0.899658
1480527254401940,-0.408997,-0.0935669,0.120483,0.899658
1480527254425002,-0.409058,-0.0935669,0.120483,0.899658
1480527254447562,-0.409058,-0.0935669,0.120483,0.899658
1480527254462100,-0.408997,-0.0935669,0.120483,0.899658
1480527254485162,-0.408997,-0.0935669,0.120483,0.899658
1480527254508222,-0.408997,-0.0935669,0.120483,0.899658
1480527254528777,-0.408997,-0.0935669,0.120483,0.899658
1480527254544821,-0.408997,-0.0935669,0.120483,0.899658
1480527254567381,-0.408997,-0.0935669,0.120483,0.899658
1480527254588436,-0.409058,-0.0935669,0.120483,0.899658
1480527254604980,-0.409058,-0.0935669,0.120483,0.899658
1480527254627540,-0.409058,-0.0935059,0.120483,0.899658
1480527254648596,-0.408997,-0.0935669,0.120483,0.899658
1480527254665140,-0.409058,-0.0935669,0.120483,0.899658
1480527254687700,-0.409058,-0.0935669,0.120483,0.899658
1480527254708757,-0.409058,-0.0935669,0.120483,0.899658
1480527254724799,-0.409058,-0.0935669,0.120483,0.899658
1480527254747359,-0.409058,-0.0935669,0.120483,0.899658
1480527254769919,-0.409058,-0.0935669,0.120483,0.899658
1480527254798494,-0.409058,-0.0935669,0.120483,0.899658
1480527254813535,-0.409058,-0.0935669,0.120483,0.899658
1480527254828575,-0.409058,-0.0935669,0.120483,0.899658
1480527254845119,-0.409119,-0.0935669,0.120483,0.899658
1480527254867679,-0.409119,-0.0935669,0.120483,0.899658
1480527254888735,-0.409058,-0.0935669,0.120483,0.899658
1480527254904779,-0.409058,-0.0935669,0.120483,0.899658
1480527254927338,-0.409119,-0.0935669,0.120483,0.899658
1480527254948394,-0.409119,-0.0935669,0.120483,0.899658
1480527254965439,-0.409058,-0.0935669,0.120483,0.899658
1480527254987497,-0.409058,-0.0935669,0.120483,0.899658
1480527255008556,-0.409058,-0.0935669,0.120483,0.899658
1480527255025097,-0.409119,-0.0935669,0.120483,0.899658
1480527255047157,-0.409058,-0.0935669,0.120483,0.899658
1480527255069716,-0.409058,-0.0935669,0.120483,0.899658
1480527255084756,-0.409058,-0.0935669,0.120483,0.899658
1480527255107318,-0.409058,-0.0935669,0.120483,0.899658
1480527255130879,-0.409058,-0.0935669,0.120483,0.899658
1480527255144917,-0.408997,-0.0935669,0.120483,0.899658
1480527255167477,-0.409058,-0.0935669,0.120422,0.899658
1480527255190043,-0.409058,-0.0936279,0.120422,0.899658
1480527255211093,-0.409058,-0.0935669,0.120483,0.899658
1480527255227636,-0.409058,-0.0936279,0.120422,0.899658
1480527255250197,-0.409058,-0.0936279,0.120422,0.899658
1480527255272759,-0.409058,-0.0936279,0.120422,0.899658
1480527255294815,-0.409058,-0.0936279,0.120422,0.899658
1480527255309856,-0.409058,-0.0936279,0.120422,0.899658
1480527255324395,-0.409058,-0.0936279,0.120422,0.899658
1480527255347455,-0.409119,-0.0936279,0.120422,0.899658
1480527255370517,-0.409058,-0.093689,0.1203,0.899658
1480527255384053,-0.408752,-0.0938721,0.120117,0.899841
1480527255407616,-0.408691,-0.0938721,0.120117,0.899841
1480527255430175,-0.408752,-0.0938721,0.120117,0.899841
1480527255444213,-0.408752,-0.0938721,0.120117,0.899841
1480527255475797,-0.408752,-0.0938721,0.120117,0.899841
1480527255497353,-0.408569,-0.0939941,0.120056,0.899902
1480527255505879,-0.408569,-0.0939941,0.120056,0.899902
1480527255527434,-0.408813,-0.0939331,0.120056,0.89978
1480527255549993,-0.408813,-0.0939941,0.120056,0.89978
1480527255571049,-0.408813,-0.0939941,0.120056,0.89978
1480527255587594,-0.408813,-0.0939941,0.120056,0.89978
1480527255610154,-0.409058,-0.0938721,0.120178,0.899658
1480527255631210,-0.409058,-0.0939331,0.120178,0.899658
1480527255648090,-0.409058,-0.0939331,0.120178,0.899658
1480527255670314,-0.409363,-0.0939941,0.120178,0.899475
1480527255690868,-0.40979,-0.0940552,0.120178,0.899292
1480527255707914,-0.410095,-0.0940552,0.120056,0.89917
1480527255729972,-0.410339,-0.0941772,0.119995,0.899109
1480527255751530,-0.410767,-0.0943604,0.119812,0.898865
1480527255767573,-0.411499,-0.0944824,0.119507,0.89856
1480527255790135,-0.412231,-0.0946655,0.119141,0.898254
1480527255811188,-0.413025,-0.0950928,0.118652,0.897888
1480527255827733,-0.413452,-0.0953369,0.118347,0.897766
1480527255849792,-0.413452,-0.0953369,0.118347,0.897766
1480527255870847,-0.413391,-0.0953369,0.118347,0.897766
1480527255887391,-0.413391,-0.0952759,0.118408,0.897766
1480527255925494,-0.413391,-0.0953369,0.118347,0.897766
1480527255931007,-0.413391,-0.0953369,0.118347,0.897766
1480527255947551,-0.413208,-0.0952148,0.118469,0.897827
1480527255970111,-0.412842,-0.0951538,0.11853,0.89801
1480527255992671,-0.412415,-0.0951538,0.118774,0.898193
1480527256014730,-0.411926,-0.0950317,0.11908,0.898376
1480527256029770,-0.411377,-0.0950928,0.119324,0.898621
1480527256052330,-0.411377,-0.0950928,0.119324,0.898621
1480527256067370,-0.411377,-0.0950928,0.119324,0.89856
1480527256089934,-0.411438,-0.0950928,0.119324,0.89856
1480527256120010,-0.411316,-0.0950317,0.119446,0.898621
1480527256127032,-0.411011,-0.0950317,0.119568,0.898743
1480527256150091,-0.411011,-0.0950317,0.119568,0.898743
1480527256172650,-0.411011,-0.0950317,0.119568,0.898743
1480527256186698,-0.411072,-0.0950317,0.119568,0.898682
1480527256210251,-0.411072,-0.0950317,0.119568,0.898682
1480527256232309,-0.411072,-0.0950317,0.119568,0.898682
1480527256246847,-0.411072,-0.0950317,0.119568,0.898682
1480527256269909,-0.411133,-0.0950317,0.119568,0.898682
1480527256292470,-0.411194,-0.0951538,0.119446,0.898621
1480527256307008,-0.411194,-0.0951538,0.119446,0.898621
1480527256336086,-0.411194,-0.0951538,0.119446,0.898621
1480527256352629,-0.411499,-0.0950317,0.119385,0.898499
1480527256366666,-0.411865,-0.0949097,0.119263,0.898376
1480527256390731,-0.412231,-0.0949097,0.11908,0.898254
1480527256412789,-0.412415,-0.0948486,0.11908,0.898193
1480527256426833,-0.412415,-0.0948486,0.11908,0.898132
1480527256449888,-0.412415,-0.0948486,0.11908,0.898132
1480527256472448,-0.412415,-0.0948486,0.11908,0.898193
1480527256493505,-0.412048,-0.0950317,0.119324,0.898254
1480527256510050,-0.411682,-0.0949707,0.119507,0.898438
1480527256540629,-0.411682,-0.0949707,0.119507,0.898438
1480527256553663,-0.411804,-0.0952759,0.119568,0.898315
1480527256570207,-0.411499,-0.0955811,0.119751,0.898438
1480527256592769,-0.411133,-0.09552,0.119812,0.89856
1480527256620842,-0.411438,-0.0952148,0.119751,0.898499
1480527256629868,-0.411804,-0.0953369,0.11969,0.898315
1480527256652427,-0.411804,-0.0953369,0.119629,0.898315
1480527256673984,-0.411804,-0.0953369,0.119629,0.898315
1480527256690026,-0.411865,-0.0953369,0.119629,0.898315
1480527256712586,-0.412109,-0.0952759,0.119507,0.898193
1480527256733642,-0.412109,-0.0952759,0.119507,0.898193
1480527256750188,-0.41217,-0.0953369,0.119507,0.898193
1480527256780278,-0.41217,-0.0953369,0.119507,0.898193
1480527256793805,-0.41217,-0.0953369,0.119507,0.898193
1480527256809846,-0.41217,-0.0953369,0.119507,0.898193
1480527256833409,-0.411987,-0.0952759,0.119446,0.898254
1480527256853461,-0.411987,-0.0952759,0.119446,0.898254
1480527256870507,-0.411926,-0.0952759,0.119446,0.898315
1480527256892566,-0.411987,-0.0952759,0.119446,0.898254
1480527256913623,-0.411804,-0.0952759,0.119385,0.898376
1480527256930165,-0.411804,-0.0952759,0.119385,0.898376
1480527256952725,-0.411804,-0.0952148,0.119385,0.898376
1480527256975288,-0.411743,-0.0952148,0.119385,0.898376
1480527256997344,-0.411743,-0.0952148,0.119385,0.898376
1480527257012394,-0.411804,-0.0952148,0.119385,0.898376
1480527257035951,-0.411682,-0.0951538,0.119507,0.898438
1480527257057506,-0.411682,-0.0951538,0.119507,0.898438
1480527257072545,-0.411682,-0.0952148,0.119507,0.898438
1480527257101120,-0.411682,-0.0952148,0.119507,0.898376
1480527257116160,-0.411682,-0.0951538,0.119507,0.898376
1480527257132704,-0.411682,-0.0952148,0.119507,0.898438
1480527257156267,-0.411682,-0.0952148,0.119507,0.898376
1480527257169302,-0.411743,-0.0952148,0.119507,0.898376
1480527257199882,-0.411743,-0.0952148,0.119507,0.898376
1480527257214923,-0.411743,-0.0952148,0.119507,0.898376
1480527257229461,-0.411743,-0.0952148,0.119507,0.898376
1480527257252523,-0.411743,-0.0952148,0.119507,0.898376
1480527257275085,-0.411804,-0.0951538,0.119507,0.898376
1480527257289120,-0.411743,-0.0952148,0.119507,0.898376
1480527257313184,-0.411743,-0.0952148,0.119507,0.898376
1480527257336245,-0.411804,-0.0952148,0.119507,0.898376
1480527257349280,-0.411804,-0.0951538,0.119507,0.898376
1480527257380386,-0.411804,-0.0951538,0.119507,0.898376
1480527257394901,-0.411804,-0.0951538,0.119507,0.898376
1480527257415957,-0.411804,-0.0952148,0.119507,0.898376
1480527257438518,-0.411804,-0.0951538,0.119507,0.898315
1480527257455062,-0.411804,-0.0951538,0.119507,0.898376
1480527257476117,-0.411804,-0.0952148,0.119507,0.898376
1480527257492661,-0.411804,-0.0952148,0.119507,0.898376
1480527257514719,-0.411804,-0.0952148,0.119507,0.898315
1480527257543296,-0.411865,-0.0952148,0.119507,0.898315
1480527257552320,-0.411865,-0.0952148,0.119507,0.898315
1480527257574880,-0.411865,-0.0952148,0.119507,0.898315
1480527257595935,-0.411865,-0.0952148,0.119507,0.898315
1480527257620000,-0.411865,-0.0952148,0.119507,0.898315
1480527257658602,-0.411865,-0.0952148,0.119507,0.898315
1480527257663616,-0.411804,-0.0952148,0.119507,0.898315
1480527257672643,-0.411865,-0.0952148,0.119629,0.898315
1480527257694699,-0.411865,-0.0952148,0.119629,0.898315
1480527257716255,-0.412109,-0.0953369,0.119507,0.898193
1480527257732298,-0.412109,-0.0953979,0.119507,0.898193
1480527257754859,-0.411926,-0.0953979,0.119507,0.898254
1480527257775915,-0.411865,-0.0953979,0.119568,0.898315
1480527257792459,-0.412048,-0.095459,0.119507,0.898193
1480527257821035,-0.412048,-0.095459,0.119507,0.898193
1480527257836074,-0.412048,-0.095459,0.119507,0.898193
1480527257852618,-0.412048,-0.095459,0.119507,0.898193
1480527257875179,-0.412048,-0.095459,0.119507,0.898193
1480527257897237,-0.412048,-0.095459,0.119507,0.898193
1480527257912779,-0.412048,-0.095459,0.119507,0.898193
1480527257935840,-0.412109,-0.095459,0.119507,0.898193
1480527257972947,-0.412048,-0.095459,0.119507,0.898193
1480527257975446,-0.412048,-0.095459,0.119507,0.898193
1480527257994997,-0.412109,-0.09552,0.119507,0.898193
1480527258017558,-0.412109,-0.09552,0.119507,0.898193
1480527258031595,-0.412109,-0.09552,0.119507,0.898193
1480527258055157,-0.412048,-0.09552,0.119507,0.898193
1480527258077718,-0.412048,-0.09552,0.119507,0.898193
1480527258099776,-0.412109,-0.09552,0.119507,0.898193
1480527258114816,-0.411804,-0.095459,0.119568,0.898315
1480527258143392,-0.411743,-0.095459,0.119568,0.898315
1480527258151915,-0.412292,-0.0955811,0.119507,0.898132
1480527258174976,-0.412292,-0.0955811,0.119507,0.898071
1480527258197537,-0.412292,-0.0955811,0.119507,0.898071
1480527258212075,-0.412231,-0.0955811,0.119507,0.898132
1480527258235637,-0.412231,-0.0955811,0.119507,0.898132
1480527258257696,-0.412292,-0.0955811,0.119507,0.898071
1480527258278752,-0.412292,-0.0955811,0.119507,0.898071
1480527258294795,-0.412231,-0.0955811,0.119507,0.898132
1480527258317856,-0.412292,-0.0955811,0.119507,0.898071
1480527258338412,-0.412292,-0.0955811,0.119507,0.898071
1480527258354955,-0.412598,-0.09552,0.119507,0.897949
1480527258385037,-0.412598,-0.09552,0.119507,0.897949
1480527258400075,-0.412537,-0.0955811,0.119507,0.89801
1480527258415617,-0.412842,-0.0956421,0.119446,0.897827
1480527258437675,-0.412903,-0.0956421,0.119446,0.897827
1480527258458732,-0.412537,-0.0955811,0.119385,0.89801
1480527258474774,-0.412476,-0.0956421,0.119385,0.89801
1480527258497334,-0.412537,-0.0956421,0.119385,0.89801
1480527258519910,-0.412537,-0.0956421,0.119385,0.89801
1480527258535936,-0.412354,-0.0956421,0.119446,0.898071
1480527258565014,-0.412292,-0.0956421,0.119446,0.898071
1480527258578549,-0.412354,-0.0956421,0.119446,0.898071
1480527258595093,-0.412415,-0.0956421,0.119446,0.898071
1480527258618163,-0.412109,-0.095459,0.119446,0.898193
1480527258638710,-0.412109,-0.09552,0.119446,0.898193
1480527258655255,-0.412109,-0.09552,0.119446,0.898193
1480527258677313,-0.412109,-0.095459,0.119446,0.898193
1480527258705891,-0.412109,-0.09552,0.119446,0.898193
1480527258722434,-0.412109,-0.09552,0.119385,0.898193
1480527258737472,-0.412109,-0.09552,0.119385,0.898193
1480527258758529,-0.412415,-0.0956421,0.119507,0.89801
1480527258775073,-0.41217,-0.095459,0.119568,0.898193
1480527258797632,-0.412109,-0.095459,0.119568,0.898193
1480527258826209,-0.412109,-0.095459,0.119568,0.898193
1480527258840748,-0.411987,-0.0953369,0.119507,0.898254
1480527258858294,-0.411987,-0.0953369,0.119507,0.898254
1480527258879851,-0.412048,-0.09552,0.119507,0.898193
1480527258895894,-0.411987,-0.09552,0.119507,0.898254
1480527258917451,-0.412048,-0.09552,0.119507,0.898193
1480527258940014,-0.412048,-0.09552,0.119507,0.898193
1480527258955052,-0.412292,-0.0957031,0.119507,0.898071
1480527258977612,-0.411987,-0.0957031,0.119507,0.898193
1480527259000171,-0.411987,-0.0957031,0.119507,0.898193
1480527259014208,-0.412476,-0.0956421,0.119629,0.89801
1480527259037270,-0.412476,-0.0956421,0.119568,0.89801
1480527259074369,-0.412415,-0.0956421,0.119568,0.89801
1480527259080886,-0.412354,-0.0958252,0.11969,0.89801
1480527259097429,-0.412354,-0.0958252,0.119629,0.89801
1480527259119990,-0.412292,-0.0958252,0.11969,0.89801
1480527259135030,-0.412598,-0.0960083,0.119629,0.897888
1480527259157590,-0.412598,-0.0960083,0.119629,0.897888
1480527259180651,-0.412598,-0.0960083,0.119629,0.897888
1480527259194193,-0.412598,-0.0960083,0.119629,0.897888
1480527259217248,-0.412598,-0.0960083,0.119629,0.897888
1480527259240310,-0.412598,-0.0960083,0.119629,0.897888
1480527259254347,-0.412598,-0.0960083,0.119629,0.897888
1480527259277409,-0.412598,-0.0960083,0.119629,0.897888
1480527259299969,-0.412598,-0.0960693,0.119629,0.897888
1480527259321526,-0.412598,-0.0960693,0.119629,0.897888
1480527259343585,-0.412598,-0.0960083,0.119629,0.897888
1480527259360130,-0.412659,-0.0960083,0.119629,0.897888
1480527259380687,-0.412598,-0.0960083,0.119629,0.897888
1480527259397227,-0.412598,-0.0960083,0.119629,0.897888
1480527259419788,-0.412659,-0.0960083,0.119629,0.897888
1480527259440844,-0.412659,-0.0960083,0.119629,0.897888
1480527259457388,-0.412598,-0.0960083,0.119629,0.897888
1480527259479947,-0.412598,-0.0960083,0.119629,0.897888
1480527259501003,-0.412598,-0.0960083,0.119629,0.897888
1480527259517550,-0.412659,-0.0960083,0.119629,0.897888
1480527259540108,-0.412659,-0.0960083,0.119629,0.897888
1480527259561163,-0.412598,-0.0960083,0.119629,0.897888
1480527259577207,-0.412659,-0.0960083,0.119629,0.897888
1480527259599765,-0.412659,-0.0960083,0.119629,0.897888
1480527259620822,-0.412598,-0.0960083,0.119629,0.897888
1480527259637868,-0.41272,-0.0960693,0.119629,0.897827
1480527259675969,-0.41272,-0.0961304,0.119629,0.897827
1480527259690007,-0.41272,-0.0960693,0.119629,0.897827
1480527259705048,-0.41272,-0.0960693,0.119629,0.897827
1480527259720587,-0.412903,-0.0961304,0.119507,0.897766
1480527259741143,-0.412903,-0.0961304,0.119507,0.897766
1480527259757697,-0.413269,-0.0961304,0.119446,0.897583
1480527259779745,-0.413269,-0.0961304,0.119446,0.897583
1480527259809825,-0.413269,-0.0961304,0.119446,0.897583
1480527259817846,-0.413269,-0.0961304,0.119446,0.897583
1480527259839906,-0.413269,-0.0961304,0.119446,0.897583
1480527259862465,-0.413269,-0.0961304,0.119446,0.897583
1480527259877506,-0.413269,-0.0961304,0.119446,0.897583
1480527259900065,-0.413269,-0.0961304,0.119446,0.897583
1480527259922627,-0.413269,-0.0961304,0.119446,0.897583
1480527259936662,-0.413269,-0.0961304,0.119446,0.897583
1480527259965739,-0.413208,-0.0961304,0.119446,0.897583
1480527259982284,-0.413208,-0.0961304,0.119446,0.897644
1480527260012364,-0.413269,-0.0961304,0.119446,0.897583
1480527260019884,-0.413269,-0.0961304,0.119446,0.897583
1480527260042443,-0.413269,-0.0961304,0.119446,0.897583
1480527260056986,-0.413208,-0.0961304,0.119446,0.897583
1480527260080044,-0.413269,-0.0961304,0.119446,0.897583
1480527260110626,-0.413269,-0.0961304,0.119446,0.897583
1480527260118145,-0.413208,-0.0961304,0.119446,0.897644
1480527260140204,-0.413208,-0.0961304,0.119446,0.897644
1480527260162265,-0.413208,-0.0961304,0.119446,0.897644
1480527260176802,-0.413208,-0.0961304,0.119446,0.897583
1480527260199863,-0.413208,-0.0961304,0.119446,0.897644
1480527260230444,-0.413208,-0.0961304,0.119446,0.897644
1480527260236961,-0.412964,-0.0961304,0.119507,0.897705
1480527260260022,-0.41272,-0.0960693,0.119507,0.897827
1480527260283097,-0.413086,-0.0960693,0.119507,0.897705
1480527260303651,-0.41272,-0.0961914,0.119446,0.897827
1480527260326212,-0.41272,-0.0961914,0.119446,0.897827
1480527260349774,-0.412537,-0.0962524,0.119446,0.897888
1480527260363309,-0.412537,-0.0962524,0.119446,0.897888
1480527260387373,-0.412781,-0.0962524,0.119446,0.897827
1480527260402413,-0.41272,-0.0963135,0.119385,0.897827
1480527260432493,-0.412598,-0.0962524,0.119446,0.897888
1480527260440515,-0.412598,-0.0962524,0.119446,0.897888
1480527260462575,-0.412537,-0.0962524,0.119446,0.897888
1480527260483629,-0.412537,-0.0962524,0.119446,0.897888
1480527260507192,-0.412598,-0.0962524,0.119446,0.897888
1480527260522734,-0.412598,-0.0962524,0.119446,0.897888
1480527260543289,-0.412598,-0.0963135,0.119446,0.897888
1480527260560333,-0.412537,-0.0963135,0.119446,0.897888
1480527260582894,-0.412537,-0.0963135,0.119446,0.897888
1480527260603447,-0.412598,-0.0962524,0.119446,0.897888
1480527260619992,-0.412537,-0.0962524,0.119446,0.897888
1480527260642552,-0.412537,-0.0962524,0.119446,0.897888
1480527260665111,-0.412537,-0.0962524,0.119446,0.897888
1480527260680153,-0.412598,-0.0962524,0.119446,0.897888
1480527260702713,-0.412537,-0.0963135,0.119446,0.897888
1480527260732791,-0.412537,-0.0963135,0.119446,0.897888
1480527260748054,-0.412537,-0.0962524,0.119446,0.897949
1480527260769891,-0.412537,-0.0962524,0.119446,0.897949
1480527260784931,-0.412476,-0.0962524,0.119446,0.897949
1480527260799971,-0.412476,-0.0962524,0.119446,0.897949
1480527260822536,-0.412476,-0.0963135,0.119446,0.897949
1480527260845093,-0.412537,-0.0963135,0.119446,0.897949
1480527260859129,-0.412476,-0.0963135,0.119446,0.897949
1480527260882691,-0.412476,-0.0963135,0.119446,0.897949
1480527260905255,-0.412476,-0.0963135,0.119446,0.897949
1480527260919288,-0.412476,-0.0963135,0.119446,0.897949
1480527260942349,-0.412476,-0.0963135,0.119446,0.897949
1480527260965411,-0.412415,-0.0963135,0.119446,0.897949
1480527260979449,-0.412415,-0.0963135,0.119446,0.897949
1480527261016045,-0.412415,-0.0963135,0.119446,0.897949
1480527261025071,-0.412415,-0.0963135,0.119446,0.897949
1480527261039109,-0.412415,-0.0963135,0.119446,0.897949
1480527261062168,-0.412415,-0.0963135,0.119446,0.897949
1480527261092248,-0.412415,-0.0963135,0.119446,0.897949
1480527261099267,-0.412415,-0.0963135,0.119446,0.897949
1480527261122347,-0.412415,-0.0963135,0.119446,0.897949
1480527261144889,-0.412354,-0.0963135,0.119446,0.89801
1480527261159427,-0.412415,-0.0963135,0.119446,0.897949
1480527261182500,-0.412415,-0.0963135,0.119446,0.897949
1480527261205048,-0.412354,-0.0963135,0.119446,0.89801
1480527261226104,-0.412354,-0.0963135,0.119446,0.89801
1480527261242652,-0.412354,-0.0963135,0.119446,0.89801
1480527261264707,-0.412354,-0.0963135,0.119446,0.89801
1480527261285763,-0.412354,-0.0963135,0.119446,0.89801
1480527261302308,-0.412292,-0.0963135,0.119446,0.89801
1480527261325370,-0.412354,-0.0963135,0.119446,0.89801
1480527261346926,-0.412354,-0.0963135,0.119446,0.89801
1480527261362467,-0.412292,-0.0963135,0.119446,0.89801
1480527261384526,-0.412292,-0.0963135,0.119446,0.89801
1480527261406085,-0.412476,-0.0964355,0.119446,0.897949
1480527261422634,-0.412537,-0.0964355,0.119446,0.897888
1480527261445188,-0.412537,-0.0964355,0.119446,0.897888
1480527261465741,-0.412476,-0.0964355,0.119385,0.897949
1480527261482286,-0.412476,-0.0964355,0.119385,0.897949
1480527261504846,-0.412659,-0.0963745,0.119385,0.897827
1480527261525902,-0.412659,-0.0963745,0.119385,0.897827
1480527261542446,-0.412659,-0.0963745,0.119385,0.897827
1480527261565008,-0.412659,-0.0963745,0.119385,0.897888
1480527261586061,-0.412659,-0.0963745,0.119385,0.897827
1480527261602606,-0.412659,-0.0963745,0.119385,0.897827
1480527261625166,-0.412598,-0.0963745,0.119385,0.897888
1480527261646223,-0.412598,-0.0963745,0.119385,0.897888
1480527261670787,-0.412598,-0.0963745,0.119385,0.897888
1480527261684835,-0.412598,-0.0963745,0.119385,0.897888
1480527261707385,-0.412598,-0.0963745,0.119385,0.897888
1480527261722427,-0.412537,-0.0963745,0.119385,0.897888
1480527261752504,-0.412537,-0.0963745,0.119385,0.897888
1480527261775065,-0.412598,-0.0963745,0.119385,0.897888
1480527261782695,-0.412537,-0.0963745,0.119385,0.897888
1480527261813166,-0.412537,-0.0964355,0.119385,0.897888
1480527261827204,-0.412537,-0.0964355,0.119385,0.897888
1480527261842243,-0.412537,-0.0964355,0.119385,0.897888
1480527261864803,-0.412537,-0.0964355,0.119385,0.897888
1480527261887364,-0.412476,-0.0964355,0.119385,0.897949
1480527261901902,-0.412537,-0.0964355,0.119385,0.897888
1480527261924963,-0.412598,-0.0964355,0.119385,0.897888
1480527261948024,-0.412292,-0.0964355,0.119324,0.89801
1480527261961562,-0.412231,-0.0963745,0.119385,0.898071
1480527261985123,-0.412476,-0.0965576,0.119324,0.897888
1480527262014702,-0.412537,-0.0965576,0.119324,0.897888
1480527262021723,-0.412537,-0.0965576,0.119324,0.897888
1480527262059822,-0.412537,-0.0965576,0.119324,0.897888
1480527262067341,-0.412476,-0.0965576,0.119324,0.897949
1480527262081881,-0.412537,-0.0965576,0.119324,0.897888
1480527262104944,-0.412537,-0.0965576,0.119263,0.897888
1480527262127502,-0.412476,-0.0965576,0.119263,0.897949
1480527262141539,-0.412476,-0.0965576,0.119263,0.897949
1480527262166606,-0.412537,-0.0966187,0.119263,0.897888
1480527262187662,-0.412231,-0.0964355,0.119385,0.898071
1480527262208718,-0.41217,-0.0964355,0.119385,0.898071
1480527262224767,-0.412231,-0.0964966,0.119385,0.898071
1480527262247321,-0.412231,-0.0964966,0.119385,0.898071
1480527262268376,-0.411987,-0.0964355,0.119446,0.898132
1480527262284920,-0.411987,-0.0964355,0.119446,0.898132
1480527262307481,-0.412048,-0.0965576,0.119385,0.898132
1480527262328536,-0.412048,-0.0966187,0.119385,0.898132
1480527262345583,-0.412048,-0.0965576,0.119385,0.898071
1480527262375161,-0.412048,-0.0965576,0.119385,0.898071
1480527262388699,-0.412048,-0.0965576,0.119385,0.898132
1480527262405244,-0.412354,-0.0966187,0.119324,0.89801
1480527262428304,-0.412354,-0.0966187,0.119324,0.897949
1480527262448355,-0.412354,-0.0965576,0.119324,0.897949
1480527262464899,-0.412292,-0.0965576,0.119324,0.89801
1480527262487460,-0.412292,-0.0965576,0.119324,0.89801
1480527262508530,-0.412354,-0.0965576,0.119324,0.897949
1480527262525073,-0.41217,-0.0966187,0.119263,0.898071
1480527262547632,-0.411926,-0.0966187,0.119324,0.898193
1480527262568688,-0.411926,-0.0965576,0.119324,0.898193
1480527262584731,-0.411926,-0.0965576,0.119324,0.898193
1480527262607292,-0.411926,-0.0965576,0.119324,0.898193
1480527262629851,-0.411926,-0.0966187,0.119324,0.898193
1480527262644891,-0.411926,-0.0966187,0.119324,0.898193
1480527262667451,-0.411926,-0.0966187,0.119324,0.898193
1480527262690012,-0.411987,-0.0966187,0.119324,0.898132
1480527262705051,-0.411926,-0.0966187,0.119324,0.898193
1480527262727611,-0.411926,-0.0966187,0.119324,0.898193
1480527262756193,-0.411987,-0.0966187,0.119324,0.898132
1480527262764208,-0.411987,-0.0966187,0.119324,0.898132
1480527262787270,-0.411926,-0.0966187,0.119324,0.898193
1480527262809830,-0.411926,-0.0966187,0.119324,0.898193
1480527262824368,-0.411926,-0.0965576,0.119324,0.898193
1480527262847430,-0.412109,-0.0965576,0.119324,0.898071
1480527262869989,-0.412109,-0.0965576,0.119324,0.898071
1480527262884027,-0.411926,-0.0966187,0.119263,0.898193
1480527262907591,-0.411743,-0.0966187,0.119324,0.898254
1480527262930150,-0.411743,-0.0966187,0.119324,0.898254
1480527262951205,-0.411804,-0.0966187,0.119324,0.898254
1480527262967248,-0.411743,-0.0966187,0.119324,0.898254
1480527262989810,-0.411804,-0.0966797,0.119324,0.898254
1480527263004348,-0.411804,-0.0966187,0.119324,0.898254
1480527263027408,-0.411743,-0.0966187,0.119324,0.898254
1480527263050975,-0.411743,-0.0966797,0.119324,0.898254
1480527263064508,-0.411743,-0.0966797,0.119324,0.898254
1480527263087577,-0.411804,-0.0966187,0.119324,0.898254
1480527263110129,-0.411804,-0.0966187,0.119324,0.898254
1480527263131184,-0.411743,-0.0966187,0.119324,0.898254
1480527263153245,-0.411743,-0.0966187,0.119324,0.898254
1480527263170289,-0.411743,-0.0966187,0.119324,0.898254
1480527263190845,-0.411743,-0.0966187,0.119324,0.898254
1480527263207388,-0.411743,-0.0966187,0.119324,0.898254
1480527263230950,-0.411743,-0.0966187,0.119324,0.898254
1480527263251006,-0.411743,-0.0966187,0.119324,0.898254
1480527263275068,-0.411743,-0.0966187,0.119324,0.898254
1480527263290107,-0.411743,-0.0966187,0.119324,0.898254
1480527263312682,-0.411682,-0.0966187,0.119324,0.898254
1480527263327206,-0.411743,-0.0966187,0.119324,0.898254
1480527263349766,-0.411743,-0.0966187,0.119324,0.898254
1480527263370822,-0.411743,-0.0966187,0.119324,0.898254
1480527263387366,-0.411682,-0.0966187,0.119324,0.898254
1480527263410428,-0.411743,-0.0965576,0.119324,0.898254
1480527263430982,-0.411743,-0.0965576,0.119324,0.898254
1480527263447526,-0.411743,-0.0965576,0.119324,0.898254
1480527263470086,-0.411743,-0.0965576,0.119324,0.898254
1480527263491142,-0.411743,-0.0965576,0.119324,0.898254
1480527263507687,-0.411743,-0.0965576,0.119324,0.898254
1480527263529744,-0.411743,-0.0965576,0.119324,0.898254
1480527263552305,-0.411438,-0.0965576,0.119324,0.898376
1480527263567345,-0.411438,-0.0965576,0.119263,0.898376
1480527263589906,-0.411499,-0.0965576,0.119324,0.898376
1480527263612966,-0.411499,-0.0965576,0.119324,0.898376
1480527263627505,-0.411438,-0.0965576,0.119324,0.898376
1480527263650566,-0.411438,-0.0965576,0.119263,0.898376
1480527263680646,-0.411499,-0.0965576,0.119324,0.898376
1480527263694684,-0.411499,-0.0965576,0.119324,0.898376
1480527263709724,-0.411499,-0.0965576,0.119324,0.898376
1480527263732284,-0.411499,-0.0965576,0.119324,0.898376
1480527263753339,-0.411499,-0.0964966,0.119324,0.898376
1480527263769883,-0.411499,-0.0964966,0.119324,0.898376
1480527263792443,-0.411499,-0.0964966,0.119324,0.898376
1480527263806982,-0.411499,-0.0964966,0.119324,0.898376
1480527263830044,-0.411499,-0.0964966,0.119324,0.898376
1480527263853108,-0.41156,-0.0964966,0.119324,0.898376
1480527263866640,-0.411499,-0.0964966,0.119324,0.898376
1480527263889703,-0.411499,-0.0964966,0.119324,0.898376
1480527263912262,-0.41156,-0.0964966,0.119324,0.898376
1480527263926801,-0.41156,-0.0964966,0.119324,0.898376
1480527263949862,-0.41156,-0.0964966,0.119324,0.898376
1480527263972425,-0.411499,-0.0964966,0.119324,0.898376
1480527263993479,-0.41156,-0.0964966,0.119324,0.898376
1480527264010023,-0.41156,-0.0964966,0.119324,0.898376
1480527264032582,-0.41156,-0.0964966,0.119324,0.898376
1480527264046620,-0.41156,-0.0964966,0.119324,0.898376
1480527264070182,-0.41156,-0.0964966,0.119324,0.898376
1480527264106781,-0.41156,-0.0964966,0.119324,0.898376
1480527264113297,-0.41156,-0.0964966,0.119324,0.898376
1480527264129841,-0.41156,-0.0964966,0.119324,0.898376
1480527264158417,-0.41156,-0.0964966,0.119324,0.898376
1480527264173458,-0.41156,-0.0964966,0.119324,0.898315
1480527264190001,-0.41156,-0.0964966,0.119324,0.898315
1480527264212563,-0.41156,-0.0965576,0.119324,0.898376
1480527264233617,-0.41156,-0.0965576,0.119324,0.898376
1480527264249660,-0.41156,-0.0965576,0.119324,0.898315
1480527264272220,-0.411499,-0.0964966,0.119385,0.898376
1480527264293276,-0.411438,-0.0964966,0.119385,0.898376
1480527264310321,-0.411438,-0.0964966,0.119385,0.898376
1480527264332380,-0.411499,-0.0964966,0.119385,0.898376
1480527264353449,-0.411499,-0.0964966,0.119385,0.898376
1480527264369980,-0.411194,-0.0964355,0.119446,0.898499
1480527264392540,-0.411133,-0.0964355,0.119446,0.898499
1480527264421116,-0.411194,-0.0964355,0.119446,0.898499
1480527264430140,-0.411194,-0.0964355,0.119446,0.898499
1480527264453201,-0.41095,-0.0964966,0.119446,0.898621
1480527264473255,-0.41095,-0.0965576,0.119446,0.898621
1480527264489798,-0.41095,-0.0965576,0.119446,0.898621
1480527264512359,-0.41095,-0.0965576,0.119446,0.898621
1480527264535921,-0.41095,-0.0965576,0.119446,0.898621
1480527264549958,-0.410889,-0.0965576,0.119446,0.898621
1480527264572520,-0.41095,-0.0965576,0.119446,0.898621
1480527264595078,-0.41095,-0.0965576,0.119446,0.898621
1480527264610620,-0.41095,-0.0965576,0.119446,0.898621
1480527264632178,-0.41095,-0.0965576,0.119446,0.898621
1480527264654741,-0.41095,-0.0965576,0.119446,0.898621
1480527264669276,-0.41095,-0.0965576,0.119446,0.898621
1480527264692338,-0.41095,-0.0965576,0.119446,0.898621
1480527264714897,-0.41095,-0.0965576,0.119446,0.898621
1480527264729435,-0.41095,-0.0965576,0.119446,0.898621
1480527264752497,-0.411011,-0.0965576,0.119446,0.898621
1480527264775057,-0.410767,-0.0964966,0.119446,0.898743
1480527264789096,-0.410706,-0.0964966,0.119446,0.898743
1480527264812658,-0.410706,-0.0964966,0.119446,0.898743
1480527264835718,-0.410706,-0.0964966,0.119446,0.898743
1480527264849255,-0.410767,-0.0964966,0.119446,0.898682
1480527264872317,-0.410706,-0.0964966,0.119446,0.898743
1480527264895377,-0.410706,-0.0964966,0.119446,0.898743
1480527264909415,-0.410767,-0.0964966,0.119446,0.898682
1480527264932476,-0.410767,-0.0964966,0.119446,0.898682
1480527264955040,-0.410767,-0.0964966,0.119446,0.898682
1480527264969074,-0.410767,-0.0964966,0.119446,0.898682
1480527264998652,-0.410767,-0.0964966,0.119446,0.898682
1480527265014694,-0.410767,-0.0964966,0.119446,0.898682
1480527265036252,-0.410767,-0.0964966,0.119446,0.898682
1480527265052796,-0.410767,-0.0964966,0.119446,0.898682
1480527265082375,-0.410767,-0.0964966,0.119446,0.898682
1480527265095910,-0.410767,-0.0964966,0.119446,0.898682
1480527265112456,-0.410767,-0.0964966,0.119446,0.898682
1480527265136017,-0.410522,-0.0966187,0.119385,0.898804
1480527265156073,-0.410522,-0.0966187,0.119385,0.898804
1480527265179633,-0.410522,-0.0966187,0.119385,0.898804
1480527265195175,-0.410522,-0.0966187,0.119385,0.898804
1480527265215729,-0.410522,-0.0966797,0.119385,0.898804
1480527265233276,-0.410522,-0.0966797,0.119385,0.898804
1480527265254836,-0.410522,-0.0966797,0.119385,0.898804
1480527265275891,-0.410583,-0.0966187,0.119385,0.898804
1480527265292434,-0.410522,-0.0966187,0.119385,0.898804
1480527265314993,-0.410522,-0.0966797,0.119385,0.898804
1480527265336552,-0.410583,-0.0966187,0.119385,0.898804
1480527265354098,-0.410583,-0.0966187,0.119385,0.898743
1480527265375154,-0.410583,-0.0966187,0.119385,0.898804
1480527265396210,-0.410583,-0.0966797,0.119385,0.898804
1480527265412252,-0.410583,-0.0966797,0.119385,0.898804
1480527265435815,-0.410583,-0.0966797,0.119385,0.898743
1480527265455872,-0.410583,-0.0966797,0.119385,0.898743
1480527265472413,-0.410583,-0.0966797,0.119385,0.898804
1480527265494973,-0.410583,-0.0966797,0.119385,0.898804
1480527265517533,-0.410583,-0.0966187,0.119385,0.898743
1480527265532572,-0.410583,-0.0966797,0.119385,0.898743
1480527265555634,-0.4104,-0.0967407,0.119324,0.898865
1480527265577191,-0.4104,-0.0967407,0.119324,0.898865
1480527265592231,-0.4104,-0.0967407,0.119385,0.898865
1480527265614794,-0.4104,-0.0967407,0.119385,0.898865
1480527265637852,-0.410339,-0.0967407,0.119324,0.898865
1480527265659910,-0.4104,-0.0967407,0.119324,0.898865
1480527265674950,-0.4104,-0.0967407,0.119324,0.898865
1480527265703527,-0.410461,-0.0967407,0.119324,0.898865
1480527265718566,-0.4104,-0.0968018,0.119324,0.898865
1480527265735613,-0.4104,-0.0968018,0.119324,0.898865
1480527265757671,-0.4104,-0.0968018,0.119324,0.898865
1480527265771709,-0.410461,-0.0968018,0.119324,0.898865
1480527265794769,-0.4104,-0.0968018,0.119324,0.898865
1480527265817330,-0.4104,-0.0968018,0.119324,0.898865
1480527265832370,-0.4104,-0.0968018,0.119324,0.898865
1480527265854933,-0.4104,-0.0968018,0.119324,0.898865
1480527265877490,-0.410339,-0.0968018,0.119324,0.898865
1480527265892028,-0.410339,-0.0968018,0.119324,0.898865
1480527265915090,-0.4104,-0.0968018,0.119324,0.898865
1480527265937651,-0.4104,-0.0968018,0.119324,0.898865
1480527265958206,-0.4104,-0.0968018,0.119324,0.898865
1480527265974753,-0.4104,-0.0968018,0.119324,0.898865
1480527265997810,-0.4104,-0.0968018,0.119324,0.898865
1480527266019869,-0.4104,-0.0968018,0.119324,0.898865
1480527266036914,-0.4104,-0.0968018,0.119324,0.898865
1480527266057469,-0.4104,-0.0968018,0.119324,0.898865
1480527266078525,-0.4104,-0.0968018,0.119324,0.898865
1480527266101084,-0.410461,-0.0968018,0.119324,0.898865
1480527266117628,-0.4104,-0.0968018,0.119324,0.898865
1480527266146204,-0.4104,-0.0968018,0.119324,0.898865
1480527266156232,-0.4104,-0.0968018,0.119324,0.898865
1480527266178290,-0.410461,-0.0968018,0.119324,0.898804
1480527266182801,-0.410461,-0.0968018,0.119324,0.898804
1480527266214887,-0.4104,-0.0968018,0.119324,0.898865
1480527266244968,-0.4104,-0.0968018,0.119324,0.898865
1480527266260008,-0.410461,-0.0968018,0.119324,0.898804
1480527266275050,-0.410461,-0.0968018,0.119324,0.898804
1480527266297607,-0.4104,-0.0968018,0.119324,0.898865
1480527266319165,-0.410461,-0.0968628,0.119324,0.898804
1480527266335708,-0.410461,-0.0968628,0.119324,0.898804
1480527266363281,-0.410461,-0.0968628,0.119324,0.898804
1480527266378322,-0.410461,-0.0968628,0.119324,0.898804
1480527266394866,-0.410461,-0.0968628,0.119324,0.898804
1480527266423442,-0.410522,-0.0968628,0.119324,0.898804
1480527266439986,-0.410522,-0.0968628,0.119324,0.898804
1480527266455026,-0.410522,-0.0968628,0.119324,0.898804
1480527266478087,-0.410522,-0.0968628,0.119324,0.898804
1480527266500146,-0.410522,-0.0968628,0.119324,0.898804
1480527266514684,-0.410522,-0.0968628,0.119324,0.898804
1480527266543262,-0.410522,-0.0968628,0.119324,0.898804
1480527266576349,-0.410522,-0.0968628,0.119263,0.898804
1480527266581361,-0.410522,-0.0968628,0.119263,0.898804
1480527266583368,-0.410583,-0.0968628,0.119324,0.898804
1480527266602919,-0.410522,-0.0968628,0.119263,0.898804
1480527266625480,-0.410522,-0.0968628,0.119263,0.898804
1480527266641523,-0.410522,-0.0968628,0.119263,0.898804
1480527266664082,-0.410583,-0.0968628,0.119263,0.898743
1480527266685137,-0.410522,-0.0968628,0.119324,0.898804
1480527266701682,-0.410522,-0.0968628,0.119324,0.898804
1480527266722739,-0.410522,-0.0968628,0.119324,0.898804
1480527266745298,-0.410583,-0.0968628,0.119324,0.898804
1480527266769362,-0.410522,-0.0968628,0.119324,0.898804
1480527266782898,-0.410522,-0.0968628,0.119324,0.898804
1480527266806964,-0.410522,-0.0968628,0.119263,0.898804
1480527266821501,-0.410522,-0.0968628,0.119324,0.898804
1480527266842557,-0.410522,-0.0968628,0.119324,0.898804
1480527266865116,-0.410522,-0.0968628,0.119263,0.898804
1480527266883165,-0.410522,-0.0968628,0.119263,0.898804
1480527266902717,-0.410522,-0.0968628,0.119263,0.898804
1480527266925277,-0.410706,-0.0966797,0.119263,0.898743
1480527266944124,-0.410706,-0.0965576,0.119141,0.898743
1480527266962877,-0.410706,-0.0965576,0.119141,0.898743
1480527266985436,-0.410767,-0.0965576,0.119141,0.898743
1480527267007997,-0.410767,-0.0965576,0.119141,0.898743
1480527267023036,-0.410706,-0.0965576,0.119141,0.898743
1480527267045095,-0.410706,-0.0965576,0.119141,0.898743
1480527267061639,-0.410706,-0.0965576,0.119141,0.898743
1480527267085703,-0.410767,-0.0965576,0.119141,0.898743
1480527267105256,-0.410767,-0.0965576,0.119141,0.898743
1480527267127815,-0.410767,-0.0965576,0.119141,0.898743
1480527267142856,-0.410767,-0.0966187,0.119141,0.898743
1480527267165415,-0.410767,-0.0965576,0.119141,0.898743
1480527267182962,-0.410889,-0.0965576,0.11908,0.898682
1480527267203016,-0.410889,-0.0965576,0.11908,0.898682
1480527267225575,-0.410889,-0.0966187,0.11908,0.898682
1480527267247635,-0.411255,-0.0964355,0.119263,0.898499
1480527267262674,-0.411255,-0.0964355,0.119202,0.898499
1480527267285234,-0.411194,-0.0964966,0.119202,0.898499
1480527267307795,-0.411194,-0.0964966,0.119202,0.898499
1480527267322834,-0.411255,-0.0964355,0.119202,0.898499
1480527267345394,-0.411255,-0.0964355,0.119202,0.898499
1480527267367954,-0.411316,-0.0964966,0.119141,0.898499
1480527267382994,-0.411316,-0.0964966,0.119141,0.898499
1480527267412572,-0.411194,-0.0964966,0.11908,0.89856
1480527267429117,-0.411255,-0.0964966,0.11908,0.898499
1480527267442652,-0.411255,-0.0964966,0.11908,0.89856
1480527267465213,-0.411255,-0.0964966,0.11908,0.89856
1480527267487789,-0.411255,-0.0964966,0.11908,0.89856
1480527267502813,-0.411255,-0.0964966,0.11908,0.898499
1480527267525373,-0.411255,-0.0964966,0.11908,0.89856
1480527267547933,-0.411255,-0.0964966,0.11908,0.89856
1480527267579015,-0.411255,-0.0964966,0.11908,0.89856
1480527267585031,-0.411255,-0.0964966,0.11908,0.898499
1480527267607591,-0.411255,-0.0964966,0.11908,0.89856
1480527267622638,-0.411194,-0.0964966,0.11908,0.89856
1480527267648200,-0.411255,-0.0964966,0.11908,0.89856
1480527267667751,-0.411255,-0.0964966,0.11908,0.898499
1480527267685800,-0.411255,-0.0964966,0.11908,0.898499
1480527267706856,-0.411194,-0.0966797,0.119202,0.898499
1480527267727911,-0.411194,-0.0966797,0.119202,0.898499
1480527267742951,-0.411255,-0.0966797,0.119202,0.898499
1480527267765512,-0.411255,-0.0966797,0.119202,0.898499
1480527267788074,-0.411194,-0.0966797,0.119202,0.898499
1480527267802610,-0.411255,-0.0966797,0.119202,0.898499
1480527267825170,-0.411255,-0.0966797,0.119202,0.898499
1480527267847730,-0.411255,-0.0966797,0.119202,0.898499
1480527267863271,-0.411194,-0.0966797,0.119202,0.898499
1480527267885330,-0.411194,-0.0966797,0.119202,0.898499
1480527267907890,-0.411255,-0.0966797,0.119202,0.898499
1480527267922931,-0.411011,-0.0965576,0.119263,0.898621
1480527267945490,-0.411316,-0.0966797,0.119202,0.898499
1480527267968050,-0.411316,-0.0967407,0.119202,0.898438
1480527267984093,-0.411316,-0.0967407,0.119202,0.898438
1480527268005651,-0.411316,-0.0966797,0.119202,0.898438
1480527268036734,-0.411438,-0.0968018,0.119202,0.898376
1480527268051774,-0.411438,-0.0968018,0.119202,0.898376
1480527268065309,-0.411499,-0.0968018,0.119202,0.898376
1480527268095891,-0.411499,-0.0968018,0.119202,0.898376
1480527268104414,-0.411438,-0.0968018,0.119202,0.898376
1480527268132989,-0.411438,-0.0968018,0.119202,0.898376
1480527268147529,-0.411377,-0.0967407,0.119385,0.898376
1480527268164072,-0.411377,-0.0967407,0.119446,0.898376
1480527268193151,-0.41156,-0.0968018,0.119385,0.898315
1480527268215709,-0.41156,-0.0968018,0.119385,0.898315
1480527268224234,-0.411621,-0.0968018,0.119385,0.898315
1480527268245289,-0.411621,-0.0968018,0.119385,0.898315
1480527268267848,-0.411621,-0.0968018,0.119385,0.898315
1480527268290409,-0.411316,-0.0968628,0.119324,0.898438
1480527268315976,-0.411316,-0.0968628,0.119324,0.898438
1480527268329012,-0.411377,-0.0969238,0.119324,0.898376
1480527268346057,-0.411377,-0.0969238,0.119324,0.898376
1480527268365106,-0.411377,-0.0969238,0.119324,0.898376
1480527268396691,-0.411377,-0.0969238,0.119324,0.898376
1480527268411731,-0.411377,-0.0969238,0.119324,0.898376
1480527268425271,-0.411377,-0.0969238,0.119324,0.898376
1480527268449331,-0.411377,-0.0969238,0.119324,0.898376
1480527268465885,-0.411316,-0.0969238,0.119324,0.898376
1480527268485427,-0.411377,-0.0969238,0.119324,0.898376
1480527268515507,-0.411377,-0.0969238,0.119324,0.898376
1480527268526035,-0.411377,-0.0969238,0.119324,0.898376
1480527268552607,-0.411377,-0.0969849,0.119324,0.898376
1480527268567645,-0.411377,-0.0969849,0.119324,0.898376
1480527268585693,-0.411377,-0.0969849,0.119324,0.898376
1480527268612765,-0.411377,-0.0969238,0.119324,0.898376
1480527268627809,-0.411377,-0.0969849,0.119324,0.898376
1480527268645854,-0.411377,-0.0969849,0.119324,0.898376
1480527268665405,-0.411682,-0.0968018,0.119263,0.898254
1480527268689471,-0.411987,-0.0968018,0.119141,0.898132
1480527268710525,-0.411926,-0.0968628,0.119141,0.898193
1480527268725569,-0.411926,-0.0968628,0.119141,0.898193
1480527268747624,-0.411926,-0.0968018,0.119141,0.898193
1480527268770184,-0.411926,-0.0968018,0.119141,0.898193
1480527268785224,-0.411926,-0.0968018,0.119141,0.898193
1480527268809789,-0.411926,-0.0968018,0.119141,0.898193
1480527268830345,-0.411926,-0.0968018,0.119141,0.898193
1480527268846995,-0.411926,-0.0968018,0.119141,0.898193
1480527268867945,-0.411865,-0.0968018,0.119141,0.898193
1480527268892014,-0.411865,-0.0968018,0.119141,0.898193
1480527268905043,-0.411926,-0.0968018,0.119141,0.898193
1480527268930612,-0.411865,-0.0968018,0.119141,0.898193
1480527268950162,-0.411865,-0.0968018,0.119141,0.898193
1480527268966706,-0.411865,-0.0968018,0.119141,0.898193
1480527268987763,-0.411865,-0.0968018,0.119141,0.898193
1480527269010323,-0.411865,-0.0968018,0.119141,0.898193
1480527269034888,-0.411865,-0.0968018,0.119141,0.898193
1480527269047924,-0.41156,-0.0969849,0.119141,0.898315
1480527269073493,-0.41156,-0.0969849,0.119141,0.898315
1480527269086526,-0.41156,-0.0969238,0.119141,0.898315
1480527269107582,-0.41156,-0.0969849,0.119141,0.898315
1480527269130149,-0.411499,-0.0969849,0.119141,0.898315
1480527269146691,-0.411499,-0.0969849,0.119141,0.898315
1480527269167747,-0.41156,-0.0969238,0.119141,0.898315
1480527269190321,-0.411743,-0.0969238,0.118958,0.898254
1480527269206851,-0.411987,-0.0969238,0.118774,0.898193
1480527269229414,-0.41217,-0.0968018,0.118713,0.898132
1480527269250467,-0.41217,-0.0968018,0.118713,0.898132
1480527269268014,-0.41217,-0.0968018,0.118713,0.898132
1480527269287567,-0.412109,-0.0968018,0.118713,0.898132
1480527269310127,-0.412109,-0.0968018,0.118713,0.898132
1480527269328178,-0.41217,-0.0968018,0.118713,0.898132
1480527269347725,-0.41217,-0.0968018,0.118713,0.898132
1480527269370287,-0.41217,-0.0968018,0.118713,0.898132
1480527269388838,-0.412109,-0.0968018,0.118713,0.898132
1480527269407886,-0.41217,-0.0968018,0.118713,0.898132
1480527269430445,-0.41217,-0.0968018,0.118713,0.898132
1480527269447993,-0.41217,-0.0968628,0.118713,0.898132
1480527269468048,-0.41217,-0.0968628,0.118713,0.898132
1480527269490106,-0.41217,-0.0968628,0.118713,0.898132
1480527269508154,-0.41217,-0.0968018,0.118713,0.898132
1480527269527705,-0.41217,-0.0968018,0.118713,0.898132
1480527269550265,-0.41217,-0.0968018,0.118713,0.898132
1480527269568312,-0.41217,-0.0968018,0.118713,0.898132
1480527269587865,-0.41217,-0.0968018,0.118713,0.898132
1480527269610425,-0.41217,-0.0968018,0.118713,0.898132
1480527269627972,-0.41217,-0.0968628,0.118713,0.898132
1480527269647524,-0.41217,-0.0968628,0.118713,0.898132
1480527269670084,-0.41217,-0.0968628,0.118713,0.898132
1480527269688134,-0.41217,-0.0968628,0.118713,0.898132
1480527269707683,-0.412109,-0.0968628,0.118652,0.898132
1480527269733251,-0.41217,-0.0968628,0.118652,0.898132
1480527269748293,-0.41217,-0.0968628,0.118652,0.898132
1480527269767843,-0.412109,-0.0968628,0.118713,0.898132
1480527269790404,-0.412109,-0.0968628,0.118652,0.898132
1480527269807951,-0.412109,-0.0968628,0.118652,0.898132
1480527269828004,-0.41217,-0.0968628,0.118652,0.898132
1480527269850062,-0.412109,-0.0968628,0.118652,0.898132
1480527269868110,-0.412109,-0.0968628,0.118652,0.898132
1480527269904210,-0.412476,-0.0968018,0.11853,0.89801
1480527269910222,-0.412964,-0.0966187,0.118469,0.897827
1480527269928270,-0.412964,-0.0966187,0.118469,0.897827
1480527269950329,-0.412964,-0.0966187,0.118469,0.897827
1480527269970384,-0.412964,-0.0966187,0.118469,0.897827
1480527269988430,-0.412964,-0.0966187,0.118469,0.897827
1480527270009486,-0.412964,-0.0965576,0.118469,0.897827
1480527270030041,-0.412964,-0.0966187,0.118469,0.897827
1480527270049208,-0.412964,-0.0966187,0.118469,0.897827
1480527270069145,-0.412964,-0.0966187,0.118469,0.897827
1480527270090201,-0.412964,-0.0965576,0.118469,0.897827
1480527270108249,-0.412659,-0.0966187,0.118469,0.897949
1480527270129305,-0.412476,-0.0966187,0.11853,0.89801
1480527270150360,-0.412476,-0.0966187,0.11853,0.89801
1480527270175428,-0.412537,-0.0966187,0.11853,0.89801
1480527270189466,-0.412476,-0.0966187,0.11853,0.89801
1480527270213028,-0.412231,-0.0968018,0.118591,0.898132
1480527270236590,-0.412231,-0.0968018,0.118591,0.898071
1480527270250629,-0.412231,-0.0968018,0.118591,0.898071
1480527270270183,-0.412231,-0.0968018,0.118591,0.898132
1480527270292740,-0.411926,-0.0969849,0.11853,0.898254
1480527270310790,-0.411926,-0.0969849,0.11853,0.898254
1480527270337862,-0.411987,-0.0969849,0.11853,0.898193
1480527270355908,-0.411926,-0.0969849,0.11853,0.898254
1480527270376966,-0.411926,-0.0969238,0.11853,0.898254
1480527270393007,-0.411926,-0.0969238,0.11853,0.898254
1480527270412559,-0.411926,-0.0969238,0.11853,0.898254
1480527270430607,-0.411926,-0.0969849,0.11853,0.898254
1480527270450158,-0.411926,-0.0969849,0.11853,0.898254
1480527270472718,-0.411865,-0.0969238,0.11853,0.898254
1480527270490767,-0.411926,-0.0969238,0.11853,0.898254
1480527270510318,-0.411865,-0.0969238,0.11853,0.898254
1480527270535385,-0.411865,-0.0969849,0.11853,0.898254
1480527270555438,-0.411865,-0.0969849,0.11853,0.898254
1480527270570483,-0.411743,-0.0968018,0.11853,0.898376
1480527270592538,-0.412109,-0.0968628,0.118469,0.898193
1480527270610586,-0.412048,-0.0968628,0.118469,0.898193
1480527270630137,-0.412048,-0.0968628,0.118469,0.898193
1480527270663225,-0.412048,-0.0968628,0.118469,0.898193
1480527270670748,-0.412048,-0.0968628,0.118469,0.898193
1480527270691801,-0.412048,-0.0968628,0.118469,0.898193
1480527270712857,-0.411987,-0.0969238,0.118469,0.898193
1480527270730906,-0.411987,-0.0968628,0.118469,0.898193
1480527270750458,-0.412048,-0.0968628,0.118469,0.898193
1480527270773033,-0.411987,-0.0968628,0.118469,0.898193
1480527270790565,-0.411987,-0.0968628,0.118469,0.898254
1480527270810116,-0.411987,-0.0968628,0.118469,0.898254
1480527270832676,-0.411987,-0.0968628,0.118469,0.898254
1480527270850723,-0.411987,-0.0968628,0.118469,0.898254
1480527270872282,-0.411987,-0.0969238,0.118469,0.898254
1480527270892835,-0.411987,-0.0969238,0.118469,0.898254
1480527270910884,-0.411987,-0.0969238,0.118469,0.898254
1480527270931940,-0.411987,-0.0969238,0.118469,0.898254
1480527270952997,-0.411926,-0.0969238,0.118469,0.898254
1480527270978062,-0.411926,-0.0969238,0.118469,0.898254
1480527270997615,-0.411926,-0.0968628,0.118469,0.898254
1480527271014158,-0.411926,-0.0968628,0.118469,0.898254
1480527271030702,-0.411926,-0.0969238,0.118469,0.898254
1480527271053264,-0.411926,-0.0969238,0.118408,0.898254
1480527271072815,-0.411926,-0.0968628,0.118469,0.898254
1480527271090863,-0.411926,-0.0968628,0.118469,0.898254
1480527271112419,-0.411865,-0.0968628,0.118469,0.898315
1480527271132976,-0.411865,-0.0968628,0.118469,0.898315
1480527271150521,-0.411865,-0.0968628,0.118469,0.898254
1480527271173082,-0.411865,-0.0968628,0.118469,0.898254
1480527271192634,-0.411865,-0.0968628,0.118469,0.898315
1480527271210682,-0.411804,-0.0968628,0.118469,0.898315
1480527271233241,-0.411804,-0.0968628,0.118469,0.898315
1480527271252794,-0.411865,-0.0968628,0.118469,0.898315
1480527271282873,-0.411804,-0.0968628,0.118469,0.898315
1480527271293401,-0.411499,-0.0968628,0.118469,0.898438
1480527271313956,-0.411499,-0.0968628,0.118469,0.898438
1480527271330500,-0.411499,-0.0968628,0.118469,0.898438
1480527271353060,-0.411499,-0.0968628,0.118469,0.898438
1480527271372612,-0.411499,-0.0968628,0.118469,0.898438
1480527271390660,-0.411499,-0.0968628,0.118469,0.898438
1480527271413220,-0.411499,-0.0968628,0.11853,0.898438
1480527271432772,-0.411499,-0.0968628,0.118469,0.898438
1480527271451322,-0.411438,-0.0968628,0.118469,0.898499
1480527271473381,-0.411438,-0.0968628,0.118469,0.898499
1480527271492932,-0.411499,-0.0968628,0.118469,0.898438
1480527271511200,-0.411499,-0.0968018,0.11853,0.898438
1480527271533039,-0.411438,-0.0968628,0.118469,0.898499
1480527271552591,-0.411438,-0.0968628,0.118469,0.898499
1480527271570640,-0.411438,-0.0968628,0.118469,0.898499
1480527271593199,-0.411499,-0.0968018,0.11853,0.898438
1480527271612752,-0.411438,-0.0968628,0.118469,0.898499
1480527271635311,-0.411377,-0.0968628,0.118469,0.898499
1480527271653359,-0.411438,-0.0968628,0.118469,0.898499
1480527271675417,-0.411438,-0.0968628,0.118469,0.898499
1480527271702994,-0.411438,-0.0968628,0.118469,0.898499
1480527271713023,-0.411377,-0.0968628,0.118469,0.898499
1480527271732569,-0.411438,-0.0968628,0.118469,0.898499
1480527271755131,-0.411438,-0.0968018,0.11853,0.898499
1480527271773178,-0.411438,-0.0968628,0.118469,0.898499
1480527271794233,-0.411438,-0.0968628,0.118469,0.898499
1480527271815289,-0.411438,-0.0968628,0.118469,0.898499
1480527271833337,-0.411438,-0.0968628,0.118469,0.898499
1480527271854393,-0.411438,-0.0968628,0.118469,0.898499
1480527271875450,-0.411438,-0.0968628,0.118469,0.898499
1480527271892996,-0.411438,-0.0968628,0.118469,0.898499
1480527271914053,-0.411438,-0.0968628,0.118469,0.898499
1480527271936613,-0.411438,-0.0968628,0.118469,0.898499
1480527271953157,-0.411377,-0.0968628,0.118469,0.898499
1480527271975717,-0.411377,-0.0968628,0.118469,0.898499
1480527271995268,-0.411377,-0.0968018,0.118469,0.898499
1480527272013316,-0.411377,-0.0968018,0.11853,0.898499
1480527272034873,-0.411377,-0.0968018,0.11853,0.898499
1480527272055428,-0.411377,-0.0968628,0.118469,0.898499
1480527272080495,-0.411438,-0.0968628,0.118469,0.898499
1480527272094031,-0.411377,-0.0968018,0.11853,0.898499
1480527272115087,-0.411377,-0.0968018,0.118469,0.898499
1480527272133135,-0.411377,-0.0968628,0.118469,0.898499
1480527272155695,-0.411377,-0.0968628,0.118469,0.898499
1480527272175247,-0.411377,-0.0968018,0.11853,0.898499
1480527272193297,-0.411377,-0.0968018,0.11853,0.898499
1480527272228889,-0.411377,-0.0968018,0.11853,0.898499
1480527272235408,-0.411377,-0.0968018,0.11853,0.898499
1480527272252956,-0.411377,-0.0968018,0.11853,0.898499
1480527272275514,-0.411377,-0.0968018,0.11853,0.898499
1480527272295067,-0.411377,-0.0968018,0.11853,0.898499
1480527272321139,-0.411377,-0.0968018,0.11853,0.898499
1480527272336681,-0.411377,-0.0968018,0.11853,0.898499
1480527272362746,-0.411377,-0.0968018,0.11853,0.898499
1480527272373276,-0.411316,-0.0968018,0.118469,0.89856
1480527272395834,-0.411316,-0.0968018,0.118469,0.898499
1480527272415386,-0.411377,-0.0968018,0.118469,0.898499
1480527272433434,-0.411377,-0.0968628,0.118469,0.898499
1480527272455994,-0.411316,-0.0968628,0.118469,0.898499
1480527272475045,-0.411316,-0.0968628,0.118469,0.89856
1480527272493594,-0.41156,-0.0968628,0.118469,0.898438
1480527272515653,-0.411926,-0.0968628,0.118347,0.898254
1480527272535706,-0.411926,-0.0968628,0.118347,0.898254
1480527272553757,-0.411926,-0.0968628,0.118347,0.898315
1480527272575812,-0.412231,-0.0969849,0.118225,0.898132
1480527272612622,-0.41272,-0.0969849,0.118286,0.897888
1480527272614920,-0.412659,-0.0969849,0.118225,0.897949
1480527272636479,-0.412659,-0.0969849,0.118225,0.897949
1480527272655023,-0.412476,-0.0970459,0.118347,0.89801
1480527272673071,-0.412476,-0.0969849,0.118347,0.89801
1480527272711174,-0.412476,-0.0970459,0.118347,0.89801
1480527272716688,-0.412476,-0.0970459,0.118286,0.89801
1480527272733231,-0.412354,-0.0969849,0.118408,0.898071
1480527272755791,-0.412109,-0.0968628,0.118469,0.898193
1480527272776848,-0.412109,-0.0968628,0.118469,0.898193
1480527272792890,-0.412048,-0.0969238,0.118469,0.898193
1480527272815450,-0.412109,-0.0968628,0.118469,0.898193
1480527272837008,-0.411865,-0.0968628,0.118591,0.898254
1480527272854075,-0.411804,-0.0968628,0.118591,0.898254
1480527272875610,-0.411804,-0.0968628,0.118591,0.898315
1480527272896666,-0.411865,-0.0968628,0.118591,0.898254
1480527272913712,-0.411621,-0.0969849,0.118652,0.898376
1480527272937277,-0.411255,-0.0969849,0.118713,0.89856
1480527272956826,-0.411194,-0.0969849,0.118713,0.89856
1480527272979386,-0.411499,-0.0971069,0.118652,0.898376
1480527272995428,-0.411438,-0.0971069,0.118835,0.898376
1480527273023004,-0.411072,-0.0970459,0.118896,0.89856
1480527273045060,-0.411072,-0.0971069,0.118896,0.89856
1480527273055589,-0.411072,-0.0971069,0.118896,0.89856
1480527273078347,-0.411072,-0.0971069,0.118896,0.89856
1480527273093189,-0.411072,-0.0971069,0.118896,0.89856
1480527273115749,-0.411011,-0.0971069,0.118896,0.898621
1480527273138309,-0.411011,-0.0971069,0.118896,0.898621
1480527273157860,-0.411011,-0.0971069,0.118896,0.89856
1480527273175408,-0.411011,-0.0971069,0.118896,0.89856
1480527273197967,-0.411072,-0.0971069,0.118835,0.89856
1480527273218522,-0.411072,-0.0971069,0.118835,0.89856
1480527273236578,-0.411072,-0.0971069,0.118896,0.89856
1480527273258127,-0.411072,-0.0971069,0.118896,0.89856
1480527273279183,-0.411072,-0.0971069,0.118835,0.89856
1480527273295729,-0.411194,-0.097168,0.118774,0.898499
1480527273325808,-0.411255,-0.097168,0.118774,0.898499
1480527273338341,-0.411255,-0.0971069,0.118774,0.898499
1480527273355386,-0.411194,-0.0971069,0.118774,0.898499
1480527273385971,-0.411194,-0.097168,0.118774,0.898499
1480527273398500,-0.411194,-0.097168,0.118774,0.898499
1480527273415045,-0.411194,-0.097168,0.118774,0.898499
1480527273437105,-0.411194,-0.097168,0.118774,0.898499
1480527273458159,-0.411194,-0.097168,0.118774,0.89856
1480527273475205,-0.411194,-0.097168,0.118774,0.89856
1480527273497263,-0.411194,-0.097168,0.118774,0.898499
1480527273518319,-0.411194,-0.097168,0.118774,0.898499
1480527273535872,-0.411194,-0.097168,0.118774,0.898499
1480527273557423,-0.411072,-0.097229,0.118774,0.89856
1480527273578480,-0.41095,-0.0971069,0.118774,0.898621
1480527273595024,-0.41095,-0.0971069,0.118774,0.898621
1480527273617583,-0.410889,-0.097168,0.118713,0.898682
1480527273638138,-0.41095,-0.097168,0.118713,0.898682
1480527273662202,-0.41095,-0.097168,0.118774,0.898621
1480527273677745,-0.41095,-0.0971069,0.118774,0.898621
1480527273698799,-0.41095,-0.097168,0.118713,0.898621
1480527273714843,-0.41095,-0.097168,0.118774,0.898621
1480527273737402,-0.41095,-0.0971069,0.118774,0.898621
1480527273775504,-0.41095,-0.0971069,0.118774,0.898621
1480527273778010,-0.41095,-0.097168,0.118774,0.898621
1480527273797562,-0.41095,-0.097168,0.118713,0.898621
1480527273818618,-0.41095,-0.097168,0.118774,0.898621
1480527273835669,-0.41095,-0.0971069,0.118774,0.898621
1480527273857722,-0.41095,-0.0971069,0.118774,0.898621
1480527273878469,-0.41095,-0.0971069,0.118774,0.898621
1480527273894827,-0.41095,-0.0971069,0.118774,0.898621
1480527273917381,-0.41095,-0.0971069,0.118774,0.898621
1480527273937937,-0.41095,-0.0971069,0.118774,0.898621
1480527273954982,-0.41095,-0.0971069,0.118774,0.898682
1480527273977541,-0.41095,-0.0971069,0.118774,0.898621
1480527273999600,-0.410889,-0.0970459,0.118774,0.898682
1480527274022160,-0.410828,-0.0970459,0.118774,0.898682
1480527274043215,-0.410828,-0.0970459,0.118774,0.898682
1480527274059760,-0.410828,-0.0970459,0.118774,0.898682
1480527274074800,-0.410889,-0.0970459,0.118774,0.898682
1480527274097360,-0.410889,-0.0970459,0.118774,0.898682
1480527274119920,-0.410828,-0.0970459,0.118774,0.898682
1480527274135968,-0.410828,-0.0970459,0.118774,0.898682
1480527274157519,-0.410889,-0.0970459,0.118774,0.898682
1480527274179578,-0.410889,-0.0970459,0.118774,0.898682
1480527274194117,-0.410828,-0.0970459,0.118774,0.898682
1480527274217178,-0.410645,-0.097168,0.118774,0.898804
1480527274239738,-0.410645,-0.097168,0.118774,0.898743
1480527274254278,-0.410645,-0.097168,0.118774,0.898743
1480527274277840,-0.410645,-0.097168,0.118774,0.898804
1480527274299899,-0.410645,-0.097168,0.118774,0.898804
1480527274322460,-0.410645,-0.097168,0.118774,0.898743
1480527274338001,-0.410706,-0.097168,0.118774,0.898743
1480527274360058,-0.410645,-0.097168,0.118774,0.898743
1480527274374096,-0.410645,-0.097168,0.118774,0.898743
1480527274397157,-0.410645,-0.097168,0.118774,0.898743
1480527274427738,-0.410706,-0.097168,0.118774,0.898743
1480527274436763,-0.410645,-0.097168,0.118774,0.898743
1480527274457318,-0.410461,-0.097229,0.118652,0.898865
1480527274479379,-0.410461,-0.097229,0.118652,0.898865
1480527274500933,-0.410461,-0.097229,0.118652,0.898865
1480527274517478,-0.410461,-0.097229,0.118652,0.898865
1480527274540037,-0.410461,-0.097229,0.118652,0.898865
1480527274561096,-0.410461,-0.097229,0.118652,0.898865
1480527274577786,-0.410461,-0.097229,0.118652,0.898865
1480527274606213,-0.410461,-0.097229,0.118652,0.898865
1480527274620752,-0.410461,-0.097229,0.118652,0.898865
1480527274643312,-0.410461,-0.097229,0.118652,0.898865
1480527274660357,-0.410461,-0.097229,0.118652,0.898865
1480527274680912,-0.410461,-0.097229,0.118652,0.898865
1480527274697456,-0.410461,-0.097229,0.118652,0.898865
1480527274720016,-0.410461,-0.09729,0.118652,0.898865
1480527274757616,-0.410461,-0.09729,0.118652,0.898865
1480527274760123,-0.410461,-0.097229,0.118652,0.898865
1480527274779675,-0.410461,-0.09729,0.118652,0.898865
1480527274800731,-0.410461,-0.097229,0.118652,0.898865
1480527274817275,-0.410461,-0.097229,0.118652,0.898865
1480527274839836,-0.410461,-0.09729,0.118652,0.898865
1480527274862394,-0.410461,-0.09729,0.118652,0.898865
1480527274878496,-0.410461,-0.09729,0.118591,0.898865
1480527274899995,-0.410461,-0.09729,0.118591,0.898865
1480527274921051,-0.410461,-0.09729,0.118652,0.898865
1480527274937093,-0.410461,-0.09729,0.118591,0.898865
1480527274967174,-0.410461,-0.0973511,0.118591,0.898865
1480527274982213,-0.410461,-0.0973511,0.118591,0.898865
1480527275004773,-0.410461,-0.0973511,0.118591,0.898865
1480527275027333,-0.410461,-0.0973511,0.118591,0.898865
1480527275042876,-0.4104,-0.0973511,0.118591,0.898865
1480527275058918,-0.4104,-0.0973511,0.118591,0.898865
1480527275079974,-0.410461,-0.0973511,0.118591,0.898865
1480527275102535,-0.410461,-0.0973511,0.118591,0.898865
1480527275123589,-0.4104,-0.0973511,0.118591,0.898865
1480527275153168,-0.4104,-0.0973511,0.118591,0.898865
1480527275178737,-0.410461,-0.0973511,0.118591,0.898865
1480527275183248,-0.4104,-0.0973511,0.118591,0.898865
1480527275199793,-0.4104,-0.0974121,0.118591,0.898865
1480527275222353,-0.410461,-0.0974121,0.118591,0.898865
1480527275236892,-0.410461,-0.0974121,0.118591,0.898865
1480527275267974,-0.410461,-0.0974121,0.118591,0.898865
1480527275282513,-0.410461,-0.0974121,0.118591,0.898865
1480527275311091,-0.4104,-0.0974121,0.118591,0.898865
1480527275327131,-0.410461,-0.0974121,0.118591,0.898865
1480527275342677,-0.410461,-0.0973511,0.118591,0.898865
1480527275356709,-0.410461,-0.0974121,0.118591,0.898865
1480527275387291,-0.410461,-0.0974121,0.118591,0.898865
1480527275402331,-0.410461,-0.0974121,0.118591,0.898865
1480527275430907,-0.410461,-0.0974121,0.118591,0.898865
1480527275439931,-0.410461,-0.0974121,0.118591,0.898865
1480527275462491,-0.410461,-0.0974121,0.118591,0.898865
1480527275485051,-0.410461,-0.0974121,0.118591,0.898865
1480527275499590,-0.410461,-0.0974121,0.118591,0.898865
1480527275522150,-0.4104,-0.0974121,0.118591,0.898865
1480527275545212,-0.4104,-0.0974121,0.118591,0.898865
1480527275559750,-0.4104,-0.0974121,0.118591,0.898865
1480527275582310,-0.410461,-0.0974121,0.118591,0.898865
1480527275603366,-0.410461,-0.0974121,0.118591,0.898865
1480527275619910,-0.4104,-0.0974121,0.118591,0.898865
1480527275642971,-0.410461,-0.0974121,0.11853,0.898865
1480527275663527,-0.410461,-0.0974121,0.118591,0.898865
1480527275679568,-0.410461,-0.0974121,0.118591,0.898865
1480527275715664,-0.4104,-0.0974121,0.11853,0.898865
1480527275724689,-0.410461,-0.0974121,0.11853,0.898865
1480527275739728,-0.410461,-0.0974121,0.118591,0.898865
1480527275762289,-0.410461,-0.0974121,0.118591,0.898865
1480527275783348,-0.4104,-0.0974731,0.11853,0.898865
1480527275820443,-0.4104,-0.0974731,0.11853,0.898865
1480527275831473,-0.410461,-0.0974121,0.11853,0.898865
1480527275843505,-0.4104,-0.0974121,0.118591,0.898865
1480527275866064,-0.4104,-0.0974121,0.11853,0.898865
1480527275882107,-0.4104,-0.0974121,0.11853,0.898865
1480527275903163,-0.4104,-0.0974121,0.11853,0.898865
1480527275919712,-0.410461,-0.0974121,0.118591,0.898865
1480527275942268,-0.4104,-0.0974121,0.11853,0.898865
1480527275964828,-0.4104,-0.0974731,0.11853,0.898865
1480527275985884,-0.4104,-0.0974121,0.11853,0.898865
1480527276009948,-0.4104,-0.0974121,0.118591,0.898865
1480527276031003,-0.4104,-0.0974121,0.118591,0.898865
1480527276040027,-0.4104,-0.0974121,0.11853,0.898865
1480527276062086,-0.4104,-0.0974121,0.11853,0.898865
1480527276084646,-0.4104,-0.0974121,0.118591,0.898865
1480527276099185,-0.4104,-0.0974121,0.118591,0.898865
1480527276122247,-0.4104,-0.0974121,0.11853,0.898865
1480527276144806,-0.4104,-0.0974121,0.118591,0.898865
1480527276159345,-0.4104,-0.0974121,0.118591,0.898865
1480527276182406,-0.4104,-0.0974121,0.118591,0.898865
1480527276205467,-0.4104,-0.0974121,0.11853,0.898865
1480527276219005,-0.4104,-0.0974731,0.11853,0.898865
1480527276248081,-0.4104,-0.0974121,0.11853,0.898865
1480527276265126,-0.4104,-0.0974121,0.118591,0.898865
1480527276279163,-0.4104,-0.0974121,0.118591,0.898865
1480527276302225,-0.4104,-0.0974121,0.118591,0.898865
1480527276324785,-0.410461,-0.0974121,0.118591,0.898865
1480527276339324,-0.4104,-0.0974121,0.118591,0.898865
1480527276362385,-0.4104,-0.0974121,0.118591,0.898865
1480527276384945,-0.410461,-0.0974121,0.118591,0.898865
1480527276406000,-0.410461,-0.0974121,0.118591,0.898865
1480527276422546,-0.410461,-0.0974121,0.118591,0.898865
1480527276444604,-0.410461,-0.0974121,0.118591,0.898865
1480527276465661,-0.410461,-0.0974121,0.118591,0.898865
1480527276482210,-0.410461,-0.0974121,0.118591,0.898865
1480527276504763,-0.410522,-0.0974121,0.118591,0.898865
1480527276525820,-0.410461,-0.0974121,0.118591,0.898865
1480527276542363,-0.410461,-0.0974121,0.118591,0.898865
1480527276564927,-0.410461,-0.0974121,0.118591,0.898865
1480527276585479,-0.410522,-0.0974121,0.118591,0.898865
1480527276602526,-0.410522,-0.0974121,0.118591,0.898804
1480527276625083,-0.410522,-0.0974121,0.118591,0.898865
1480527276645639,-0.410522,-0.0974121,0.118591,0.898804
1480527276669704,-0.410522,-0.0974121,0.118591,0.898804
1480527276684742,-0.410522,-0.0974121,0.118591,0.898804
1480527276705798,-0.410522,-0.0974121,0.118591,0.898865
1480527276722342,-0.410522,-0.0974121,0.118591,0.898804
1480527276745403,-0.410522,-0.0974121,0.118591,0.898804
1480527276765959,-0.410522,-0.0974121,0.118591,0.898804
1480527276782502,-0.410522,-0.0974121,0.118591,0.898804
1480527276805063,-0.410522,-0.0974121,0.118591,0.898804
1480527276825617,-0.410522,-0.0973511,0.118591,0.898804
1480527276842161,-0.410522,-0.0973511,0.118591,0.898804
1480527276864721,-0.410522,-0.0974121,0.118591,0.898804
1480527276887281,-0.410522,-0.0974121,0.118591,0.898804
1480527276909842,-0.410522,-0.0974121,0.118591,0.898804
1480527276924881,-0.410522,-0.0973511,0.118591,0.898804
1480527276947441,-0.410522,-0.0973511,0.118591,0.898804
1480527276962481,-0.410522,-0.0973511,0.118591,0.898865
1480527276985045,-0.410522,-0.0973511,0.118591,0.898804
1480527277014620,-0.410522,-0.0973511,0.118591,0.898804
1480527277021639,-0.410522,-0.0973511,0.118591,0.898865
1480527277044699,-0.410522,-0.0974121,0.118591,0.898865
1480527277067260,-0.410522,-0.0974121,0.118591,0.898804
1480527277081799,-0.410522,-0.0973511,0.118591,0.898804
1480527277104860,-0.410522,-0.0973511,0.118591,0.898865
1480527277127420,-0.410461,-0.0974121,0.118591,0.898865
1480527277141457,-0.410522,-0.0973511,0.118591,0.898865
1480527277165020,-0.410522,-0.0973511,0.118591,0.898804
1480527277187079,-0.410522,-0.0973511,0.118591,0.898865
1480527277217159,-0.410461,-0.0973511,0.118591,0.898865
1480527277224678,-0.410522,-0.0973511,0.118591,0.898865
1480527277247238,-0.410522,-0.0973511,0.118591,0.898804
1480527277261777,-0.410522,-0.0973511,0.118591,0.898804
1480527277284839,-0.410522,-0.0973511,0.118591,0.898865
1480527277321938,-0.410522,-0.0973511,0.118591,0.898865
1480527277331463,-0.410522,-0.0973511,0.118591,0.898865
1480527277352519,-0.410522,-0.0973511,0.118591,0.898804
1480527277368060,-0.410522,-0.0973511,0.118591,0.898865
1480527277397137,-0.410522,-0.0973511,0.118591,0.898865
1480527277404657,-0.410522,-0.0973511,0.118591,0.898804
1480527277427718,-0.410522,-0.0973511,0.118591,0.898804
1480527277448273,-0.410522,-0.0973511,0.118591,0.898804
1480527277465318,-0.410522,-0.0973511,0.118591,0.898804
1480527277494897,-0.410522,-0.0973511,0.118591,0.898804
1480527277508433,-0.410522,-0.0973511,0.118591,0.898804
1480527277532497,-0.410522,-0.0973511,0.118591,0.898804
1480527277547036,-0.410522,-0.0973511,0.118591,0.898865
1480527277568598,-0.410522,-0.09729,0.118591,0.898804
1480527277584636,-0.410522,-0.09729,0.118652,0.898804
1480527277607196,-0.410278,-0.0974121,0.118713,0.898926
1480527277628254,-0.410034,-0.0975952,0.118774,0.898987
1480527277644796,-0.410034,-0.0975952,0.118774,0.898987
1480527277667357,-0.410034,-0.0975952,0.118774,0.898987
1480527277688412,-0.410034,-0.0975952,0.118774,0.898987
1480527277704955,-0.410034,-0.0975952,0.118774,0.898987
1480527277727516,-0.410034,-0.0975952,0.118774,0.898987
1480527277748572,-0.410034,-0.0975952,0.118774,0.898987
1480527277764615,-0.410034,-0.0975952,0.118774,0.898987
1480527277787175,-0.409973,-0.0976563,0.118774,0.899048
1480527277810236,-0.409973,-0.0976563,0.118774,0.899048
1480527277830790,-0.409973,-0.0976563,0.118774,0.899048
1480527277847836,-0.409973,-0.0976563,0.118713,0.899048
1480527277869895,-0.409973,-0.0976563,0.118713,0.899048
1480527277884936,-0.409912,-0.0976563,0.118713,0.899048
1480527277915015,-0.409912,-0.0976563,0.118774,0.899048
1480527277929553,-0.409973,-0.0976563,0.118774,0.899048
1480527277944640,-0.409912,-0.0976563,0.118713,0.899048
1480527277973170,-0.409912,-0.0976563,0.118713,0.899048
1480527277989714,-0.409973,-0.0976563,0.118713,0.899048
1480527278004258,-0.409973,-0.0977173,0.118713,0.899048
1480527278027313,-0.409912,-0.0977173,0.118713,0.899048
1480527278049873,-0.409912,-0.0977173,0.118713,0.899048
1480527278064413,-0.409912,-0.0977173,0.118713,0.899048
1480527278087475,-0.409912,-0.0977173,0.118713,0.899048
1480527278116049,-0.409912,-0.0977173,0.118713,0.899048
1480527278124071,-0.409912,-0.0977173,0.118713,0.899048
1480527278147633,-0.409912,-0.0977173,0.118713,0.899048
1480527278169692,-0.409912,-0.0977173,0.118713,0.899048
1480527278184231,-0.409851,-0.0977173,0.118713,0.899048
1480527278207292,-0.409851,-0.0977173,0.118713,0.899109
1480527278229852,-0.409851,-0.0977173,0.118713,0.899109
1480527278243889,-0.409851,-0.0977173,0.118713,0.899048
1480527278267452,-0.409851,-0.0977173,0.118713,0.899109
1480527278290013,-0.40979,-0.0977783,0.118713,0.899109
1480527278311068,-0.40979,-0.0977783,0.118713,0.899109
1480527278327111,-0.409851,-0.0977783,0.118713,0.899109
1480527278355688,-0.40979,-0.0977783,0.118652,0.899109
1480527278370727,-0.40979,-0.0977783,0.118652,0.899109
1480527278387277,-0.40979,-0.0977783,0.118652,0.899109
1480527278409832,-0.409851,-0.0977783,0.118652,0.899109
1480527278430886,-0.40979,-0.0977783,0.118652,0.899109
1480527278447431,-0.40979,-0.0977783,0.118652,0.899109
1480527278469991,-0.40979,-0.0977783,0.118652,0.899109
1480527278491046,-0.40979,-0.0977783,0.118652,0.899109
1480527278507089,-0.40979,-0.0977783,0.118652,0.899109
1480527278529650,-0.40979,-0.0977783,0.118652,0.899109
1480527278550705,-0.409729,-0.0977783,0.118652,0.899109
1480527278567250,-0.40979,-0.0977783,0.118652,0.899109
1480527278589810,-0.40979,-0.0977783,0.118652,0.899109
1480527278610866,-0.409729,-0.0978394,0.118652,0.899109
1480527278627409,-0.409729,-0.0978394,0.118652,0.899109
1480527278649970,-0.409729,-0.0978394,0.118652,0.899109
1480527278678545,-0.409729,-0.0978394,0.118652,0.899109
1480527278687069,-0.409729,-0.0978394,0.118652,0.89917
1480527278710132,-0.409729,-0.0978394,0.118652,0.89917
1480527278732188,-0.409668,-0.0978394,0.118652,0.89917
1480527278747229,-0.409729,-0.0978394,0.118652,0.89917
1480527278777309,-0.409668,-0.0978394,0.118652,0.89917
1480527278799868,-0.409668,-0.0978394,0.118652,0.89917
1480527278807388,-0.409668,-0.0978394,0.118652,0.89917
1480527278835969,-0.409668,-0.0978394,0.118652,0.89917
1480527278852508,-0.409668,-0.0978394,0.118652,0.89917
1480527278867549,-0.409485,-0.0978394,0.118774,0.899231
1480527278889607,-0.409485,-0.0978394,0.118774,0.899231
1480527278912167,-0.409485,-0.0978394,0.118774,0.899231
1480527278926706,-0.409485,-0.0978394,0.118774,0.899231
1480527278955783,-0.409424,-0.0978394,0.118774,0.899231
1480527278972327,-0.409424,-0.0978394,0.118774,0.899231
1480527278986866,-0.409485,-0.0978394,0.118774,0.899231
1480527279009927,-0.409485,-0.0978394,0.118774,0.899231
1480527279032487,-0.409485,-0.0978394,0.118774,0.899231
1480527279046524,-0.409424,-0.0979004,0.118774,0.899231
1480527279069592,-0.409424,-0.0978394,0.118774,0.899231
1480527279093148,-0.409424,-0.0978394,0.118774,0.899231
1480527279106684,-0.409424,-0.0978394,0.118774,0.899231
1480527279129746,-0.409424,-0.0978394,0.118774,0.899292
1480527279152311,-0.409424,-0.0978394,0.118774,0.899231
1480527279166844,-0.409424,-0.0978394,0.118774,0.899231
1480527279197426,-0.409363,-0.0978394,0.118774,0.899292
1480527279218488,-0.409363,-0.0978394,0.118774,0.899292
1480527279234023,-0.409363,-0.0978394,0.118774,0.899292
1480527279264605,-0.409363,-0.0978394,0.118774,0.899292
1480527279272125,-0.409363,-0.0978394,0.118774,0.899292
1480527279293180,-0.409363,-0.0978394,0.118774,0.899292
1480527279309726,-0.409363,-0.0978394,0.118774,0.899292
1480527279332284,-0.409302,-0.0978394,0.118774,0.899292
1480527279353340,-0.409302,-0.0978394,0.118774,0.899292
1480527279369885,-0.409302,-0.0978394,0.118774,0.899292
1480527279392444,-0.409302,-0.0978394,0.118774,0.899292
1480527279413500,-0.409302,-0.0978394,0.118774,0.899292
1480527279429543,-0.409302,-0.0978394,0.118774,0.899292
1480527279452106,-0.409302,-0.0978394,0.118774,0.899353
1480527279473159,-0.409302,-0.0978394,0.118774,0.899292
1480527279489703,-0.409302,-0.0978394,0.118774,0.899292
1480527279512264,-0.409302,-0.0978394,0.118774,0.899292
1480527279533319,-0.409302,-0.0978394,0.118774,0.899292
1480527279549863,-0.409302,-0.0978394,0.118774,0.899292
1480527279579944,-0.409302,-0.0978394,0.118774,0.899292
1480527279593480,-0.409302,-0.0978394,0.118774,0.899292
1480527279610023,-0.409302,-0.0978394,0.118774,0.899353
1480527279632082,-0.409241,-0.0978394,0.118774,0.899353
1480527279653138,-0.409302,-0.0978394,0.118774,0.899292
1480527279670183,-0.409302,-0.0978394,0.118774,0.899292
1480527279692242,-0.409302,-0.0978394,0.118774,0.899353
1480527279714802,-0.409241,-0.0978394,0.118774,0.899353
1480527279729842,-0.409302,-0.0978394,0.118774,0.899353
1480527279752402,-0.409546,-0.0978394,0.118774,0.899231
1480527279774962,-0.409546,-0.0979004,0.118774,0.899231
1480527279790003,-0.409485,-0.0979004,0.118774,0.899231
1480527279812562,-0.409546,-0.0979004,0.118774,0.899231
1480527279849661,-0.409546,-0.0979004,0.118774,0.89917
1480527279852172,-0.409546,-0.0979004,0.118774,0.89917
1480527279872221,-0.409546,-0.0979004,0.118774,0.899231
1480527279894781,-0.409546,-0.0979004,0.118774,0.899231
1480527279917341,-0.409546,-0.0979004,0.118774,0.89917
1480527279932380,-0.409546,-0.0979004,0.118774,0.899231
1480527279954941,-0.409546,-0.0979004,0.118774,0.899231
1480527279968978,-0.409546,-0.0979004,0.118774,0.899231
1480527279993045,-0.409546,-0.0978394,0.118774,0.89917
1480527280014600,-0.409546,-0.0978394,0.118774,0.899231
1480527280035663,-0.409485,-0.0978394,0.118774,0.899231
1480527280052199,-0.409485,-0.0978394,0.118774,0.899231
1480527280074759,-0.409546,-0.0978394,0.118774,0.89917
1480527280097319,-0.409546,-0.0978394,0.118774,0.89917
1480527280112363,-0.409546,-0.0978394,0.118774,0.899231
1480527280135925,-0.409546,-0.0978394,0.118774,0.899231
1480527280155474,-0.409546,-0.0978394,0.118774,0.899231
1480527280172528,-0.409546,-0.0978394,0.118774,0.899231
1480527280202106,-0.409485,-0.0978394,0.118774,0.899231
1480527280215643,-0.409485,-0.0978394,0.118774,0.899231
1480527280232186,-0.409546,-0.0978394,0.118774,0.899231
1480527280254746,-0.409485,-0.0978394,0.118774,0.899231
1480527280275802,-0.409546,-0.0979004,0.118774,0.89917
1480527280291845,-0.409546,-0.0979004,0.118774,0.89917
1480527280314907,-0.409546,-0.0979004,0.118774,0.89917
1480527280335963,-0.409607,-0.0979004,0.118774,0.89917
1480527280352507,-0.409546,-0.0979004,0.118774,0.89917
1480527280375067,-0.409546,-0.0979004,0.118774,0.89917
1480527280395621,-0.409607,-0.0979614,0.118774,0.89917
1480527280412166,-0.409607,-0.0979004,0.118774,0.89917
1480527280435728,-0.409546,-0.0979004,0.118774,0.89917
1480527280455781,-0.409546,-0.0979004,0.118774,0.89917
1480527280472327,-0.409546,-0.0979004,0.118774,0.89917
1480527280494887,-0.409546,-0.0979004,0.118774,0.89917
1480527280516442,-0.409546,-0.0979004,0.118774,0.89917
1480527280532486,-0.409546,-0.0979004,0.118774,0.89917
1480527280555046,-0.409546,-0.0979004,0.118774,0.89917
1480527280575600,-0.409546,-0.0979004,0.118835,0.89917
1480527280592144,-0.409546,-0.0979004,0.118835,0.89917
1480527280614704,-0.409546,-0.0979004,0.118774,0.899231
1480527280637264,-0.409546,-0.0979004,0.118774,0.899231
1480527280651805,-0.409546,-0.0979004,0.118835,0.89917
1480527280674866,-0.409546,-0.0979004,0.118835,0.899231
1480527280697424,-0.409485,-0.0979004,0.118835,0.899231
1480527280712465,-0.409485,-0.0979004,0.118835,0.899231
1480527280735529,-0.409546,-0.0978394,0.118835,0.89917
1480527280757083,-0.409546,-0.0978394,0.118835,0.89917
1480527280772123,-0.409485,-0.0978394,0.118835,0.899231
1480527280794684,-0.409546,-0.0979004,0.118774,0.899231
1480527280824763,-0.409546,-0.0979004,0.118835,0.89917
1480527280831782,-0.409546,-0.0978394,0.118835,0.89917
1480527280854843,-0.409546,-0.0979004,0.118835,0.89917
1480527280876902,-0.409546,-0.0979004,0.118835,0.899231
1480527280899963,-0.409546,-0.0978394,0.118835,0.89917
1480527280922022,-0.409546,-0.0978394,0.118835,0.89917
1480527280937062,-0.409485,-0.0978394,0.118835,0.899231
1480527280951600,-0.409485,-0.0978394,0.118835,0.899231
1480527280974662,-0.409363,-0.0979004,0.118896,0.899231
1480527280997221,-0.409363,-0.0979004,0.118896,0.899231
1480527281011760,-0.409363,-0.0979004,0.118896,0.899292
1480527281035824,-0.409363,-0.0979004,0.118896,0.899292
1480527281057882,-0.409363,-0.0979004,0.118896,0.899292
1480527281071419,-0.409363,-0.0979004,0.118896,0.899292
1480527281094981,-0.409363,-0.0979004,0.118896,0.899292
1480527281117541,-0.409302,-0.0979004,0.118896,0.899292
1480527281138597,-0.409302,-0.0979004,0.118896,0.899292
1480527281154640,-0.409363,-0.0979004,0.118896,0.899292
1480527281177201,-0.409363,-0.0979004,0.118896,0.899292
1480527281199761,-0.409302,-0.0979004,0.118896,0.899292
1480527281214800,-0.409546,-0.0979004,0.118774,0.89917
1480527281237361,-0.409546,-0.0979004,0.118835,0.89917
1480527281257914,-0.409546,-0.0979004,0.118835,0.89917
1480527281274961,-0.409546,-0.0979004,0.118835,0.899231
1480527281313062,-0.409485,-0.0979004,0.118835,0.899231
1480527281318577,-0.409546,-0.0979004,0.118835,0.89917
1480527281335622,-0.409546,-0.0978394,0.118835,0.89917
1480527281357179,-0.409546,-0.0979004,0.118835,0.899231
1480527281385756,-0.409485,-0.0979004,0.118835,0.899231
1480527281394779,-0.409546,-0.0979004,0.118835,0.89917
1480527281417339,-0.409546,-0.0978394,0.118835,0.89917
1480527281438395,-0.409546,-0.0978394,0.118835,0.899231
1480527281454939,-0.409485,-0.0978394,0.118835,0.899231
1480527281477499,-0.409546,-0.0978394,0.118835,0.89917
1480527281498053,-0.409546,-0.0978394,0.118835,0.89917
1480527281514599,-0.409546,-0.0978394,0.118835,0.899231
1480527281537158,-0.409851,-0.0979004,0.118835,0.899048
1480527281558214,-0.409912,-0.0979004,0.118835,0.899048
1480527281574758,-0.409912,-0.0979004,0.118835,0.899048
1480527281597318,-0.409912,-0.0979004,0.118835,0.899048
1480527281627397,-0.409851,-0.0979004,0.118835,0.899048
1480527281635920,-0.409851,-0.0979004,0.118835,0.899048
1480527281657478,-0.409912,-0.0979004,0.118835,0.899048
1480527281679537,-0.409851,-0.0978394,0.118835,0.899048
1480527281694576,-0.409851,-0.0979004,0.118835,0.899048
1480527281717137,-0.409851,-0.0979004,0.118835,0.899048
1480527281739698,-0.409851,-0.0979004,0.118835,0.899048
1480527281754236,-0.409851,-0.0979004,0.118835,0.899048
1480527281777629,-0.409851,-0.0979004,0.118835,0.899048
1480527281799856,-0.40979,-0.0979004,0.118835,0.899048
1480527281814396,-0.409851,-0.0979004,0.118835,0.899048
1480527281837958,-0.409851,-0.0979004,0.118835,0.899048
1480527281859515,-0.40979,-0.0979004,0.118835,0.899048
1480527281880572,-0.409851,-0.0979004,0.118835,0.899048
1480527281897115,-0.409912,-0.0979004,0.118835,0.899048
1480527281925691,-0.409912,-0.0979004,0.118835,0.899048
1480527281934215,-0.409851,-0.0978394,0.118835,0.899048
1480527281957275,-0.410034,-0.0979004,0.118835,0.898987
1480527281980336,-0.410095,-0.0979004,0.118835,0.898926
1480527281993872,-0.410034,-0.0979004,0.118835,0.898926
1480527282017435,-0.410034,-0.0978394,0.118835,0.898987
1480527282039995,-0.410034,-0.0979004,0.118835,0.898987
1480527282054032,-0.410034,-0.0979004,0.118835,0.898987
1480527282077595,-0.410034,-0.0978394,0.118835,0.898987
1480527282099654,-0.410034,-0.0978394,0.118835,0.898987
1480527282120710,-0.409973,-0.0979004,0.118835,0.898987
1480527282137755,-0.410034,-0.0978394,0.118835,0.898987
1480527282159814,-0.410034,-0.0978394,0.118835,0.898987
1480527282180870,-0.410034,-0.0978394,0.118835,0.898987
1480527282203430,-0.409973,-0.0978394,0.118835,0.898987
1480527282219974,-0.409973,-0.0978394,0.118835,0.898987
1480527282242033,-0.410034,-0.0978394,0.118896,0.898987
1480527282257073,-0.410034,-0.0978394,0.118896,0.898987
1480527282279633,-0.409973,-0.0978394,0.118835,0.898987
1480527282308211,-0.409973,-0.0978394,0.118835,0.898987
1480527282317233,-0.410034,-0.0978394,0.118896,0.898987
1480527282347313,-0.410034,-0.0978394,0.118896,0.898926
1480527282362353,-0.410034,-0.0978394,0.118835,0.898987
1480527282377393,-0.410217,-0.0978394,0.118774,0.898926
1480527282399956,-0.410278,-0.0978394,0.118774,0.898865
1480527282421009,-0.410278,-0.0978394,0.118774,0.898865
1480527282438054,-0.410217,-0.0978394,0.118774,0.898865
1480527282459612,-0.410217,-0.0977783,0.118774,0.898926
1480527282488187,-0.410217,-0.0977783,0.118774,0.898926
1480527282497211,-0.410217,-0.0977783,0.118774,0.898926
1480527282527291,-0.410217,-0.0977783,0.118774,0.898926
1480527282540827,-0.410217,-0.0978394,0.118774,0.898926
1480527282564892,-0.410217,-0.0977783,0.118774,0.898926
1480527282579933,-0.410217,-0.0977783,0.118774,0.898865
1480527282602491,-0.410217,-0.0977783,0.118774,0.898926
1480527282617031,-0.410217,-0.0977783,0.118774,0.898926
1480527282639591,-0.410217,-0.0977783,0.118774,0.898926
1480527282662150,-0.410217,-0.0977783,0.118774,0.898865
1480527282677191,-0.410217,-0.0977783,0.118774,0.898865
1480527282699750,-0.410217,-0.0977783,0.118774,0.898926
1480527282722310,-0.410217,-0.0977783,0.118774,0.898865
1480527282736849,-0.410217,-0.0977783,0.118774,0.898865
1480527282760413,-0.410217,-0.0977783,0.118774,0.898926
1480527282782470,-0.410217,-0.0977783,0.118774,0.898926
1480527282796507,-0.410217,-0.0977783,0.118774,0.898926
1480527282819569,-0.410217,-0.0977783,0.118774,0.898865
1480527282842129,-0.410217,-0.0977783,0.118774,0.898865
1480527282864690,-0.410217,-0.0977783,0.118774,0.898926
1480527282879729,-0.410217,-0.0977783,0.118774,0.898926
1480527282902290,-0.410217,-0.0977783,0.118774,0.898926
1480527282916828,-0.410217,-0.0977783,0.118774,0.898926
1480527282945904,-0.410217,-0.0977783,0.118774,0.898926
1480527282969969,-0.410217,-0.0977783,0.118774,0.898926
1480527282976486,-0.410217,-0.0977783,0.118774,0.898926
1480527283000049,-0.410217,-0.0977783,0.118774,0.898926
1480527283022108,-0.410217,-0.0977783,0.118774,0.898926
1480527283043164,-0.410217,-0.0977783,0.118774,0.898926
1480527283059708,-0.410217,-0.0977783,0.118774,0.898926
1480527283082268,-0.410217,-0.0977783,0.118774,0.898926
1480527283103324,-0.410217,-0.0977783,0.118774,0.898926
1480527283119868,-0.410217,-0.0977783,0.118774,0.898926
1480527283141926,-0.410217,-0.0977783,0.118774,0.898865
1480527283163484,-0.410217,-0.0977783,0.118774,0.898865
1480527283179526,-0.410217,-0.0977173,0.118774,0.898926
1480527283202087,-0.410217,-0.0977173,0.118774,0.898926
1480527283223142,-0.410217,-0.0977173,0.118774,0.898926
1480527283239687,-0.410217,-0.0977173,0.118835,0.898865
1480527283262247,-0.410217,-0.0977173,0.118835,0.898926
1480527283283303,-0.410217,-0.0977173,0.118774,0.898926
1480527283299847,-0.410217,-0.0977173,0.118774,0.898926
1480527283322408,-0.410217,-0.0977173,0.118774,0.898865
1480527283343462,-0.410217,-0.0977173,0.118774,0.898865
1480527283360008,-0.410217,-0.0977173,0.118774,0.898926
1480527283382066,-0.410217,-0.0977783,0.118774,0.898926
1480527283403121,-0.410278,-0.0977173,0.118774,0.898865
1480527283427185,-0.410278,-0.0977173,0.118774,0.898865
1480527283442225,-0.410217,-0.0977783,0.118774,0.898926
1480527283463281,-0.410217,-0.0977783,0.118774,0.898865
1480527283479324,-0.410278,-0.0977173,0.118774,0.898865
1480527283502386,-0.410278,-0.0977173,0.118835,0.898865
1480527283524945,-0.410217,-0.0977173,0.118774,0.898865
1480527283539985,-0.410217,-0.0977173,0.118774,0.898865
1480527283562545,-0.410278,-0.0977173,0.118774,0.898865
1480527283584607,-0.410095,-0.0976563,0.118835,0.898926
1480527283599644,-0.410095,-0.0976563,0.118835,0.898926
1480527283622205,-0.410095,-0.0977173,0.118835,0.898926
1480527283644765,-0.410156,-0.0977173,0.118835,0.898926
1480527283659302,-0.410095,-0.0976563,0.118835,0.898926
1480527283682364,-0.410095,-0.0976563,0.118835,0.898926
1480527283704924,-0.410095,-0.0976563,0.118835,0.898926
1480527283718961,-0.410095,-0.0976563,0.118835,0.898926
1480527283742525,-0.410095,-0.0976563,0.118835,0.898926
1480527283770600,-0.410095,-0.0976563,0.118835,0.898926
1480527283780625,-0.410095,-0.0977173,0.118835,0.898926
1480527283802183,-0.410095,-0.0977173,0.118835,0.898926
1480527283824743,-0.410095,-0.0976563,0.118835,0.898926
1480527283839282,-0.410095,-0.0976563,0.118835,0.898987
1480527283862343,-0.410095,-0.0976563,0.118835,0.898987
1480527283884903,-0.410095,-0.0977173,0.118835,0.898987
1480527283898942,-0.410156,-0.0977173,0.118835,0.898926
1480527283922503,-0.410095,-0.0977173,0.118835,0.898926
1480527283944885,-0.410095,-0.0977173,0.118835,0.898987
1480527283959100,-0.410278,-0.0979004,0.118896,0.898865
1480527283982165,-0.410339,-0.0980225,0.119202,0.898743
1480527284019260,-0.409912,-0.0976563,0.11908,0.898987
1480527284025778,-0.410278,-0.0975342,0.118835,0.898865
1480527284042321,-0.410706,-0.0977173,0.118713,0.898682
1480527284064881,-0.410583,-0.0977783,0.118835,0.898743
1480527284085937,-0.410583,-0.0977173,0.118835,0.898743
1480527284102482,-0.410583,-0.0977173,0.118835,0.898743
1480527284124540,-0.410278,-0.0976563,0.118896,0.898865
1480527284147100,-0.410278,-0.0976563,0.118896,0.898865
1480527284162140,-0.410278,-0.0976563,0.118896,0.898865
1480527284184700,-0.410339,-0.0977173,0.118835,0.898865
1480527284205756,-0.410339,-0.0977173,0.118835,0.898865
1480527284230321,-0.410278,-0.0976563,0.118835,0.898865
1480527284244860,-0.410278,-0.0976563,0.118835,0.898865
1480527284265916,-0.4104,-0.0976563,0.118774,0.898865
1480527284282460,-0.410583,-0.0977783,0.118774,0.898743
1480527284305020,-0.410522,-0.0977173,0.118774,0.898743
1480527284325575,-0.410522,-0.0977173,0.118774,0.898743
1480527284342119,-0.410645,-0.0977173,0.118774,0.898743
1480527284364679,-0.410645,-0.0977173,0.118713,0.898743
1480527284385739,-0.410522,-0.0975952,0.118774,0.898804
1480527284402279,-0.410522,-0.0975952,0.118774,0.898804
1480527284424839,-0.410522,-0.0975952,0.118774,0.898804
1480527284447399,-0.410522,-0.0975952,0.118774,0.898804
1480527284462439,-0.410522,-0.0975952,0.118774,0.898804
1480527284485000,-0.410522,-0.0975952,0.118774,0.898804
1480527284507058,-0.410522,-0.0975952,0.118774,0.898743
1480527284522097,-0.410522,-0.0975952,0.118774,0.898804
1480527284544658,-0.410522,-0.0975952,0.118774,0.898804
1480527284567220,-0.410522,-0.0975952,0.118774,0.898743
1480527284582258,-0.410583,-0.0975952,0.118774,0.898743
1480527284604817,-0.410522,-0.0975952,0.118774,0.898804
1480527284627378,-0.410522,-0.0975952,0.118774,0.898804
1480527284641916,-0.410583,-0.0975952,0.118774,0.898743
1480527284664978,-0.410583,-0.0975952,0.118774,0.898743
1480527284687538,-0.410522,-0.0975952,0.118774,0.898804
1480527284701575,-0.410522,-0.0975952,0.118774,0.898743
1480527284724637,-0.4104,-0.0975952,0.118774,0.898804
1480527284747196,-0.4104,-0.0975952,0.118774,0.898804
1480527284768253,-0.4104,-0.0975952,0.118835,0.898804
1480527284785298,-0.4104,-0.0975952,0.118774,0.898804
1480527284807858,-0.410461,-0.0975952,0.118774,0.898804
1480527284821895,-0.410461,-0.0975952,0.118774,0.898804
1480527284844956,-0.410461,-0.0975952,0.118774,0.898804
1480527284867520,-0.410461,-0.0976563,0.118774,0.898804
1480527284881554,-0.410461,-0.0975952,0.118774,0.898804
1480527284904615,-0.410461,-0.0975952,0.118774,0.898804
1480527284927175,-0.410461,-0.0976563,0.118774,0.898804
1480527284948231,-0.410461,-0.0976563,0.118774,0.898804
1480527284964775,-0.410461,-0.0976563,0.118774,0.898804
1480527284987335,-0.410461,-0.0976563,0.118774,0.898804
1480527285008392,-0.410461,-0.0975952,0.118774,0.898804
1480527285024935,-0.410461,-0.0975952,0.118774,0.898804
1480527285047495,-0.410461,-0.0976563,0.118774,0.898804
1480527285068551,-0.410461,-0.0976563,0.118774,0.898804
1480527285084594,-0.410522,-0.0976563,0.118774,0.898804
1480527285107154,-0.410461,-0.0976563,0.118774,0.898804
1480527285128210,-0.410461,-0.0976563,0.118774,0.898804
1480527285144754,-0.410522,-0.0976563,0.118774,0.898743
1480527285167316,-0.4104,-0.0976563,0.118774,0.898865
1480527285195890,-0.410339,-0.0976563,0.118774,0.898865
1480527285204914,-0.410339,-0.0976563,0.118774,0.898865
1480527285227475,-0.4104,-0.0976563,0.118774,0.898804
1480527285248529,-0.4104,-0.0976563,0.118774,0.898804
1480527285264573,-0.4104,-0.0976563,0.118835,0.898804
1480527285293149,-0.4104,-0.0976563,0.118774,0.898804
1480527285308188,-0.4104,-0.0976563,0.118774,0.898804
1480527285324733,-0.4104,-0.0976563,0.118774,0.898804
1480527285347794,-0.4104,-0.0976563,0.118774,0.898804
1480527285368350,-0.4104,-0.0976563,0.118774,0.898804
1480527285384892,-0.410461,-0.0976563,0.118774,0.898804
1480527285407452,-0.410461,-0.0976563,0.118835,0.898804
1480527285430013,-0.410461,-0.0976563,0.118774,0.898804
1480527285445250,-0.410461,-0.0976563,0.118774,0.898804
1480527285473128,-0.410461,-0.0976563,0.118774,0.898804
1480527285489671,-0.410522,-0.0976563,0.118835,0.898804
1480527285512232,-0.410522,-0.0976563,0.118774,0.898804
1480527285527271,-0.410461,-0.0976563,0.118774,0.898804
1480527285549834,-0.410522,-0.0976563,0.118774,0.898804
1480527285563869,-0.410522,-0.0976563,0.118774,0.898804
1480527285587434,-0.410706,-0.0976563,0.118896,0.898682
1480527285609992,-0.410706,-0.0976563,0.118835,0.898682
1480527285624031,-0.410706,-0.0977173,0.118835,0.898682
1480527285656114,-0.410767,-0.0977173,0.118835,0.898682
1480527285669650,-0.410767,-0.0977173,0.118835,0.898621
1480527285684193,-0.410767,-0.0977173,0.118835,0.898621
1480527285714269,-0.410767,-0.0977173,0.118835,0.898682
1480527285729810,-0.410767,-0.0977173,0.118835,0.898682
1480527285743847,-0.410767,-0.0977173,0.118835,0.898621
1480527285767414,-0.410767,-0.0977173,0.118835,0.898621
1480527285789970,-0.410767,-0.0977173,0.118835,0.898682
1480527285804007,-0.410767,-0.0977173,0.118835,0.898621
1480527285827068,-0.410767,-0.0977173,0.118835,0.898621
1480527285849629,-0.410767,-0.0977173,0.118835,0.898621
1480527285864168,-0.410767,-0.0977173,0.118835,0.898621
1480527285887732,-0.410828,-0.0977173,0.118835,0.898621
1480527285917310,-0.410828,-0.0977173,0.118835,0.898621
1480527285930844,-0.410828,-0.0977173,0.118835,0.898621
1480527285947389,-0.410583,-0.0977173,0.118835,0.898743
1480527285969949,-0.410583,-0.0977173,0.118835,0.898743
1480527285991005,-0.410828,-0.0977783,0.118774,0.898621
1480527286007048,-0.410828,-0.0977783,0.118774,0.898621
1480527286029607,-0.410828,-0.0977783,0.118774,0.898621
1480527286058184,-0.410828,-0.0977783,0.118774,0.898621
1480527286067211,-0.410828,-0.0977173,0.118774,0.898621
1480527286089768,-0.410889,-0.0977173,0.118774,0.898621
1480527286110824,-0.410889,-0.0977783,0.118774,0.898621
1480527286134893,-0.410889,-0.0977783,0.118774,0.898621
1480527286149928,-0.410889,-0.0977173,0.118774,0.89856
1480527286171484,-0.410889,-0.0977173,0.118774,0.898621
1480527286193042,-0.410889,-0.0977173,0.118774,0.898621
1480527286209587,-0.410889,-0.0977173,0.118774,0.898621
1480527286230642,-0.410889,-0.0977173,0.118774,0.89856
1480527286247187,-0.41095,-0.0977173,0.118774,0.89856
1480527286269747,-0.410889,-0.0977173,0.118774,0.898621
1480527286290802,-0.410889,-0.0977173,0.118774,0.898621
1480527286307346,-0.41095,-0.0977173,0.118774,0.89856
1480527286329907,-0.41095,-0.0977173,0.118774,0.89856
1480527286352466,-0.41095,-0.0977173,0.118774,0.89856
1480527286368013,-0.41095,-0.0977173,0.118774,0.89856
1480527286389565,-0.41095,-0.0977173,0.118774,0.89856
1480527286412125,-0.41095,-0.0977173,0.118774,0.89856
1480527286433181,-0.41095,-0.0977173,0.118774,0.89856
1480527286449725,-0.41095,-0.0977173,0.118774,0.89856
1480527286472286,-0.41095,-0.0977173,0.118774,0.89856
1480527286486825,-0.411011,-0.0977173,0.118774,0.89856
1480527286509886,-0.411011,-0.0977173,0.118774,0.89856
1480527286532447,-0.411011,-0.0977173,0.118774,0.89856
1480527286546483,-0.411011,-0.0977173,0.118774,0.898499
1480527286570045,-0.411072,-0.0977173,0.118774,0.898499
1480527286592107,-0.410828,-0.0978394,0.118774,0.898621
1480527286606643,-0.410767,-0.0978394,0.118774,0.898621
1480527286629704,-0.411072,-0.0978394,0.118713,0.898499
1480527286652264,-0.411133,-0.0978394,0.118713,0.898499
1480527286666807,-0.411133,-0.0978394,0.118774,0.898499
1480527286689864,-0.411133,-0.0978394,0.118774,0.898499
1480527286712424,-0.411133,-0.0978394,0.118713,0.898499
1480527286726461,-0.411133,-0.0978394,0.118774,0.898499
1480527286750024,-0.411133,-0.0977783,0.118774,0.898499
1480527286772083,-0.411133,-0.0977783,0.118774,0.898499
1480527286786621,-0.411072,-0.0977783,0.118774,0.898499
1480527286809683,-0.411133,-0.0977783,0.118774,0.898499
1480527286832242,-0.411133,-0.0977783,0.118774,0.898499
1480527286853298,-0.411133,-0.0978394,0.118774,0.898499
1480527286869843,-0.411133,-0.0978394,0.118774,0.898499
1480527286892402,-0.411133,-0.0978394,0.118774,0.898499
1480527286913458,-0.411133,-0.0977783,0.118774,0.898499
1480527286930003,-0.411133,-0.0977783,0.118774,0.898499
1480527286952061,-0.411133,-0.0977783,0.118774,0.898499
1480527286973117,-0.411133,-0.0978394,0.118774,0.898499
1480527286990162,-0.411133,-0.0978394,0.118774,0.898499
1480527287012222,-0.411133,-0.0977783,0.118774,0.898499
1480527287033278,-0.411133,-0.0978394,0.118774,0.898499
1480527287049822,-0.411133,-0.0978394,0.118774,0.898499
1480527287072383,-0.411133,-0.0977783,0.118774,0.898499
1480527287093437,-0.411133,-0.0977783,0.118774,0.898499
1480527287109981,-0.411133,-0.0977783,0.118774,0.898499
1480527287132040,-0.411133,-0.0978394,0.118774,0.898499
1480527287154600,-0.411133,-0.0977783,0.118774,0.898499
1480527287175656,-0.411133,-0.0977783,0.118774,0.898499
1480527287192200,-0.411133,-0.0977783,0.118774,0.898499
1480527287213256,-0.411133,-0.0977783,0.118774,0.898499
1480527287229799,-0.411133,-0.0977783,0.118774,0.898499
1480527287252360,-0.411133,-0.0977783,0.118774,0.898499
1480527287273415,-0.411133,-0.0977783,0.118774,0.898499
1480527287289960,-0.411194,-0.0977783,0.118774,0.898438
1480527287312019,-0.411194,-0.0977783,0.118774,0.898438
1480527287335081,-0.411194,-0.0977783,0.118774,0.898438
1480527287349621,-0.411133,-0.0977783,0.118774,0.898499
1480527287372180,-0.411194,-0.0977783,0.118774,0.898438
1480527287394739,-0.411194,-0.0977783,0.118774,0.898438
1480527287409780,-0.411194,-0.0977783,0.118774,0.898438
1480527287432340,-0.411133,-0.0977783,0.118774,0.898499
1480527287454899,-0.411133,-0.0977783,0.118774,0.898499
1480527287468936,-0.411133,-0.0977783,0.118774,0.898499
1480527287491998,-0.411194,-0.0977783,0.118774,0.898438
1480527287514557,-0.411133,-0.0977783,0.118774,0.898499
1480527287529098,-0.411133,-0.0977783,0.118774,0.898499
1480527287560179,-0.411133,-0.0977783,0.118774,0.898499
1480527287574718,-0.411194,-0.0977783,0.118774,0.898438
1480527287580232,-0.411194,-0.0977783,0.118774,0.898438
1480527287596776,-0.411133,-0.0977783,0.118774,0.898499
1480527287627859,-0.411133,-0.0977783,0.118774,0.898499
1480527287639891,-0.411194,-0.0977783,0.118774,0.898438
1480527287656435,-0.411194,-0.0977783,0.118774,0.898438
1480527287677490,-0.411194,-0.0977783,0.118774,0.898438
1480527287700052,-0.411194,-0.0978394,0.118774,0.898438
1480527287716598,-0.411194,-0.0977783,0.118774,0.898438
1480527287737651,-0.411194,-0.0977783,0.118774,0.898438
1480527287769736,-0.411133,-0.0977783,0.118774,0.898499
1480527287776755,-0.411133,-0.0977783,0.118774,0.898499
1480527287797810,-0.411194,-0.0977783,0.118774,0.898438
1480527287821374,-0.411194,-0.0977783,0.118774,0.898438
1480527287837417,-0.411133,-0.0977783,0.118774,0.898499
1480527287866494,-0.411133,-0.0977783,0.118774,0.898499
1480527287880029,-0.411133,-0.0977783,0.118774,0.898499
1480527287898078,-0.411194,-0.0977783,0.118774,0.898499
1480527287917632,-0.411133,-0.0977783,0.118774,0.898499
1480527287940190,-0.411133,-0.0977783,0.118774,0.898499
1480527287958238,-0.411133,-0.0977783,0.118774,0.898499
1480527287977789,-0.411133,-0.0977783,0.118774,0.898499
1480527288000353,-0.411133,-0.0977783,0.118774,0.898499
1480527288018899,-0.411133,-0.0977783,0.118774,0.898499
1480527288037448,-0.411133,-0.0977783,0.118774,0.898499
1480527288060009,-0.411194,-0.0977783,0.118774,0.898499
1480527288091592,-0.411133,-0.0977783,0.118774,0.898499
1480527288097608,-0.411133,-0.0977783,0.118774,0.898499
1480527288120168,-0.411133,-0.0977783,0.118774,0.898499
1480527288142728,-0.411194,-0.0977783,0.118774,0.898438
1480527288157768,-0.411133,-0.0977783,0.118774,0.898499
1480527288183838,-0.411133,-0.0977783,0.118774,0.898499
1480527288202387,-0.411133,-0.0978394,0.118774,0.898499
1480527288218931,-0.411133,-0.0978394,0.118774,0.898499
1480527288239987,-0.411133,-0.0978394,0.118774,0.898499
1480527288262547,-0.411133,-0.0978394,0.118774,0.898499
1480527288277587,-0.411072,-0.0977783,0.118774,0.898499
1480527288300148,-0.411072,-0.0977783,0.118774,0.898499
1480527288322707,-0.411072,-0.0977783,0.118774,0.898499
1480527288337747,-0.411072,-0.0977783,0.118774,0.898499
1480527288360307,-0.411072,-0.0977783,0.118774,0.898499
1480527288382366,-0.411133,-0.0977783,0.118774,0.898499
1480527288397405,-0.411133,-0.0977783,0.118774,0.898499
1480527288419966,-0.411072,-0.0977783,0.118774,0.898499
1480527288442525,-0.411072,-0.0977783,0.118774,0.898499
1480527288457566,-0.411072,-0.0977783,0.118774,0.898499
1480527288480125,-0.411072,-0.0977783,0.118774,0.898499
1480527288502686,-0.411072,-0.0977783,0.118774,0.898499
1480527288520734,-0.411072,-0.0978394,0.118774,0.898499
1480527288540286,-0.411072,-0.0978394,0.118713,0.898499
1480527288563849,-0.411072,-0.0978394,0.118774,0.898499
1480527288577385,-0.411072,-0.0978394,0.118774,0.898499
1480527288599947,-0.411072,-0.0978394,0.118774,0.898499
1480527288622504,-0.411072,-0.0977783,0.118774,0.898499
1480527288637545,-0.411072,-0.0977783,0.118774,0.898499
1480527288660106,-0.411499,-0.0979004,0.118652,0.898315
1480527288691187,-0.411438,-0.0979004,0.118652,0.898315
1480527288697704,-0.411438,-0.0979004,0.118652,0.898315
1480527288720264,-0.411499,-0.0979004,0.118652,0.898315
1480527288742824,-0.411499,-0.0979004,0.118652,0.898315
1480527288757364,-0.41156,-0.0979614,0.118652,0.898254
1480527288779923,-0.411682,-0.0981445,0.118896,0.898193
1480527288802483,-0.41095,-0.0979004,0.118896,0.89856
1480527288819028,-0.411377,-0.0978394,0.118774,0.898376
1480527288840083,-0.411804,-0.0979614,0.118591,0.898193
1480527288862648,-0.411804,-0.0980225,0.118591,0.898193
1480527288879188,-0.411682,-0.0979004,0.118652,0.898193
1480527288903252,-0.411682,-0.0979004,0.118652,0.898254
1480527288930824,-0.411682,-0.0979004,0.118652,0.898254
1480527288938846,-0.411621,-0.0979614,0.118652,0.898254
1480527288967424,-0.411682,-0.0979004,0.118652,0.898254
1480527288982462,-0.411682,-0.0979004,0.118713,0.898254
1480527288999006,-0.411499,-0.0979004,0.118713,0.898315
1480527289020062,-0.411316,-0.0978394,0.118591,0.898438
1480527289042622,-0.411316,-0.0978394,0.118591,0.898376
1480527289059166,-0.411316,-0.0978394,0.118591,0.898376
1480527289083231,-0.411316,-0.0978394,0.118591,0.898438
1480527289110803,-0.411316,-0.0978394,0.118591,0.898438
1480527289119326,-0.411316,-0.0978394,0.118591,0.898376
1480527289139881,-0.411316,-0.0978394,0.118591,0.898376
1480527289162441,-0.411316,-0.0978394,0.118591,0.898376
1480527289178985,-0.411316,-0.0979004,0.118591,0.898376
1480527289200041,-0.411316,-0.0979004,0.118591,0.898376
1480527289222601,-0.411377,-0.0978394,0.118591,0.898376
1480527289240649,-0.411316,-0.0978394,0.118591,0.898376
1480527289260201,-0.411316,-0.0979004,0.118591,0.898438
1480527289290281,-0.411316,-0.0979004,0.118591,0.898376
1480527289300309,-0.411377,-0.0979004,0.118591,0.898376
1480527289319860,-0.411377,-0.0979004,0.118591,0.898376
1480527289342419,-0.411377,-0.0979004,0.118591,0.898376
1480527289360468,-0.411377,-0.0979004,0.118591,0.898376
1480527289380019,-0.411377,-0.0979004,0.118591,0.898376
1480527289404084,-0.411377,-0.0978394,0.118591,0.898376
1480527289421131,-0.41156,-0.0980225,0.11853,0.898315
1480527289440179,-0.41156,-0.0980225,0.11853,0.898315
1480527289462739,-0.41156,-0.0980225,0.11853,0.898254
1480527289485299,-0.411621,-0.0980225,0.11853,0.898254
1480527289500341,-0.41156,-0.0980225,0.11853,0.898315
1480527289525407,-0.41156,-0.0980225,0.11853,0.898315
1480527289544958,-0.41156,-0.0980225,0.11853,0.898315
1480527289561503,-0.41156,-0.0980225,0.11853,0.898254
1480527289582559,-0.41156,-0.0980225,0.11853,0.898315
1480527289605118,-0.41156,-0.0980225,0.11853,0.898315
1480527289621663,-0.41156,-0.0980225,0.11853,0.898315
1480527289642718,-0.41156,-0.0980225,0.11853,0.898254
1480527289665280,-0.41156,-0.0980225,0.11853,0.898315
1480527289680318,-0.41156,-0.0980225,0.11853,0.898315
1480527289702376,-0.41156,-0.0979614,0.11853,0.898315
1480527289724936,-0.41156,-0.0979614,0.11853,0.898254
1480527289739977,-0.41156,-0.0979614,0.118591,0.898315
1480527289770057,-0.41156,-0.0979614,0.118591,0.898315
1480527289785096,-0.41156,-0.0979614,0.11853,0.898315
1480527289809161,-0.41156,-0.0979614,0.11853,0.898254
1480527289822700,-0.411621,-0.0979614,0.118591,0.898254
1480527289845366,-0.41156,-0.0979614,0.11853,0.898315
1480527289861802,-0.41156,-0.0979614,0.11853,0.898254
1480527289882356,-0.411621,-0.0979614,0.11853,0.898254
1480527289916449,-0.41156,-0.0979614,0.118591,0.898254
1480527289927476,-0.41156,-0.0979614,0.11853,0.898315
1480527289942515,-0.41156,-0.0979614,0.118591,0.898315
1480527289965076,-0.41156,-0.0979614,0.118591,0.898315
1480527289981620,-0.41156,-0.0979614,0.118591,0.898315
1480527290002676,-0.41156,-0.0979614,0.118591,0.898315
1480527290025235,-0.41156,-0.0979614,0.118591,0.898315
1480527290041780,-0.41156,-0.0979614,0.118591,0.898315
1480527290062836,-0.411621,-0.0979004,0.118591,0.898254
1480527290084894,-0.411194,-0.0979614,0.118591,0.898438
1480527290101439,-0.411194,-0.0979614,0.118591,0.898438
1480527290122496,-0.411194,-0.0979614,0.118591,0.898438
1480527290145206,-0.41156,-0.0979614,0.11853,0.898315
1480527290163102,-0.41156,-0.0979614,0.11853,0.898315
1480527290182655,-0.41156,-0.0979614,0.11853,0.898315
1480527290205214,-0.41156,-0.0979614,0.11853,0.898315
1480527290230281,-0.41156,-0.0979614,0.11853,0.898315
1480527290242814,-0.41156,-0.0979004,0.11853,0.898315
1480527290266378,-0.411499,-0.0979614,0.11853,0.898315
1480527290287433,-0.411499,-0.0979614,0.11853,0.898315
1480527290302473,-0.411438,-0.0979004,0.11853,0.898376
1480527290332557,-0.411377,-0.0979004,0.11853,0.898376
1480527290343081,-0.411377,-0.0979004,0.11853,0.898376
1480527290362633,-0.411377,-0.0979004,0.118469,0.898376
1480527290392714,-0.411377,-0.0979004,0.11853,0.898376
1480527290403241,-0.411438,-0.0979004,0.11853,0.898376
1480527290422794,-0.411377,-0.0979004,0.118469,0.898376
1480527290444852,-0.411377,-0.0979614,0.118469,0.898376
1480527290462900,-0.411438,-0.0979004,0.11853,0.898376
1480527290482453,-0.411377,-0.0979614,0.118591,0.898376
1480527290505011,-0.410767,-0.0980835,0.118469,0.898621
1480527290539103,-0.411072,-0.0980225,0.118469,0.898499
1480527290544116,-0.411133,-0.0980225,0.118469,0.898499
1480527290565172,-0.41095,-0.0979614,0.118591,0.89856
1480527290583722,-0.41095,-0.0979614,0.118591,0.89856
1480527290602772,-0.411072,-0.0980225,0.118469,0.898499
1480527290624831,-0.411133,-0.0980225,0.118469,0.898499
1480527290647390,-0.411133,-0.0980225,0.118469,0.898499
1480527290663935,-0.411133,-0.0980225,0.118469,0.898499
1480527290684991,-0.411133,-0.0980225,0.118469,0.898499
1480527290703038,-0.411133,-0.0980225,0.118469,0.898499
1480527290724095,-0.411133,-0.0980225,0.118469,0.898499
1480527290745150,-0.411133,-0.0980225,0.118469,0.898499
1480527290763199,-0.411072,-0.0980225,0.118469,0.898499
1480527290784254,-0.411133,-0.0980225,0.118469,0.898499
1480527290805310,-0.411133,-0.0980225,0.118469,0.898499
1480527290822859,-0.411133,-0.0980225,0.118469,0.898499
1480527290843914,-0.411072,-0.0980225,0.118469,0.898499
1480527290864970,-0.411316,-0.0980225,0.118408,0.898438
1480527290883020,-0.411316,-0.0979614,0.118469,0.898438
1480527290904073,-0.411255,-0.0979614,0.118469,0.898438
1480527290925129,-0.411255,-0.0979614,0.118469,0.898438
1480527290943177,-0.411316,-0.0979614,0.118469,0.898438
1480527290964233,-0.411133,-0.0979004,0.118469,0.898499
1480527290985290,-0.411133,-0.0979004,0.118469,0.898499
1480527291002837,-0.411133,-0.0979004,0.118469,0.898499
1480527291023893,-0.411133,-0.0979004,0.118469,0.898499
1480527291052468,-0.411133,-0.0979004,0.118469,0.898499
1480527291067508,-0.411133,-0.0979004,0.118469,0.898499
1480527291091572,-0.411133,-0.0979004,0.118469,0.898499
1480527291105108,-0.411133,-0.0979614,0.118408,0.898499
1480527291127668,-0.411133,-0.0979004,0.118408,0.898499
1480527291145716,-0.411133,-0.0979004,0.118469,0.898499
1480527291165269,-0.411133,-0.0979004,0.118469,0.898499
1480527291190335,-0.411133,-0.0979004,0.118469,0.898499
1480527291205376,-0.411133,-0.0979004,0.118408,0.898499
1480527291232448,-0.411133,-0.0979004,0.118469,0.898499
1480527291247487,-0.411133,-0.0979004,0.118469,0.898499
1480527291265536,-0.411133,-0.0979614,0.118408,0.898499
1480527291285087,-0.411133,-0.0979004,0.118408,0.898499
1480527291307647,-0.411133,-0.0979004,0.118469,0.898499
1480527291325696,-0.411133,-0.0979004,0.118469,0.898499
1480527291345246,-0.411133,-0.0979614,0.118408,0.898499
1480527291376330,-0.411133,-0.0979004,0.118408,0.898499
1480527291385354,-0.411194,-0.0979004,0.118469,0.898499
1480527291408415,-0.411194,-0.0979004,0.118408,0.898499
1480527291427465,-0.411133,-0.0979614,0.118408,0.898499
1480527291445514,-0.411133,-0.0979614,0.118408,0.898499
1480527291468074,-0.411438,-0.0978394,0.118408,0.898376
1480527291487626,-0.411438,-0.0978394,0.118469,0.898376
1480527291505674,-0.411438,-0.0978394,0.118469,0.898376
1480527291525226,-0.411438,-0.0978394,0.118469,0.898376
1480527291547786,-0.411438,-0.0978394,0.118469,0.898376
1480527291572853,-0.411499,-0.0978394,0.118469,0.898376
1480527291584884,-0.411438,-0.0978394,0.118469,0.898376
1480527291607444,-0.411438,-0.0978394,0.118469,0.898376
1480527291625493,-0.411499,-0.0978394,0.118469,0.898376
1480527291648053,-0.411499,-0.0978394,0.118469,0.898376
1480527291667605,-0.411438,-0.0978394,0.118469,0.898376
1480527291685652,-0.411438,-0.0978394,0.118469,0.898376
1480527291712724,-0.411499,-0.0978394,0.118469,0.898376
1480527291727764,-0.411499,-0.0978394,0.118469,0.898376
1480527291745311,-0.411499,-0.0978394,0.118469,0.898376
1480527291766870,-0.411438,-0.0978394,0.118469,0.898376
1480527291787423,-0.411499,-0.0978394,0.118469,0.898376
1480527291809983,-0.411316,-0.0977783,0.118469,0.898438
1480527291826527,-0.411255,-0.0977783,0.118469,0.898438
1480527291855103,-0.411255,-0.0977783,0.118469,0.898438
1480527291865635,-0.411255,-0.0977783,0.118469,0.898438
1480527291886687,-0.411316,-0.0977783,0.118469,0.898438
1480527291907746,-0.411316,-0.0977173,0.118469,0.898438
1480527291925290,-0.411316,-0.0977783,0.118469,0.898438
1480527291946346,-0.411316,-0.0977783,0.118469,0.898438
1480527291967402,-0.411316,-0.0977783,0.118469,0.898438
1480527291985451,-0.411316,-0.0977783,0.118469,0.898438
1480527292006506,-0.411316,-0.0977783,0.118469,0.898438
1480527292027561,-0.411316,-0.0977783,0.118469,0.898438
1480527292045991,-0.411316,-0.0977783,0.118469,0.898438
1480527292068170,-0.411316,-0.0977783,0.118469,0.898438
1480527292087721,-0.411316,-0.0977783,0.118469,0.898438
1480527292105770,-0.411316,-0.0978394,0.118469,0.898438
1480527292132843,-0.411377,-0.0977783,0.118469,0.898438
1480527292147380,-0.411377,-0.0977783,0.118469,0.898438
1480527292165428,-0.411316,-0.0977783,0.118469,0.898438
1480527292187988,-0.411316,-0.0977783,0.118469,0.898438
1480527292207541,-0.411316,-0.0978394,0.118469,0.898438
1480527292225589,-0.411377,-0.0978394,0.118469,0.898438
1480527292248149,-0.411377,-0.0977783,0.118469,0.898438
1480527292275221,-0.411316,-0.0977783,0.118469,0.898438
1480527292285248,-0.41156,-0.0978394,0.118408,0.898315
1480527292307808,-0.411621,-0.0977783,0.118408,0.898315
1480527292327861,-0.411621,-0.0978394,0.118408,0.898315
1480527292345408,-0.41156,-0.0978394,0.118408,0.898315
1480527292383010,-0.41156,-0.0978394,0.118408,0.898315
1480527292387519,-0.411621,-0.0978394,0.118408,0.898315
1480527292405567,-0.41156,-0.0978394,0.118408,0.898315
1480527292428127,-0.41156,-0.0978394,0.118408,0.898315
1480527292447680,-0.41156,-0.0978394,0.118408,0.898315
1480527292477760,-0.411621,-0.0978394,0.118408,0.898315
1480527292487786,-0.41156,-0.0978394,0.118408,0.898315
1480527292507338,-0.411072,-0.0978394,0.118408,0.89856
1480527292529898,-0.411316,-0.0976563,0.118469,0.898438
1480527292547947,-0.411804,-0.0977173,0.118469,0.898193
1480527292567498,-0.411621,-0.0977783,0.118469,0.898315
1480527292590058,-0.41156,-0.0977783,0.118469,0.898315
1480527292608108,-0.411804,-0.0978394,0.118469,0.898193
1480527292629162,-0.411804,-0.0978394,0.118469,0.898193
