timestamp,x,y,z
1480626299118364,-2.8125,0,0.125
1480626299129900,-1.375,-0.0625,-0.125
1480626299140425,-0.75,-0.1875,-0.4375
1480626299168999,-0.75,-0.125,-0.375
1480626299188050,-1.625,-0.125,-0.5
1480626299200081,-2,-0.25,-0.125
1480626299221638,-1.3125,-0.0625,-0.25
1480626299276785,-0.0625,0.0625,-0.25
1480626299282299,1.1875,0.125,0.0625
1480626299284806,2.3125,0.375,0.125
1480626299305864,2.625,0.5625,-0.0625
1480626299327921,2,0.375,0
1480626299366022,1.25,0.1875,0
1480626299386577,1.25,0.125,0.125
1480626299393094,2.1875,0.3125,0.25
1480626299416658,1.9375,0.125,0.4375
1480626299419164,0.4375,-0.4375,1.0625
1480626299448242,1.375,-0.4375,0.875
1480626299470300,2.125,-0.0625,0.75
1480626299489855,0.6875,-0.25,0.5
1480626299500379,0.125,-0.5625,0.125
1480626299523441,0.5,-0.125,0.375
1480626299559537,0.5,-1.5,-0.6875
1480626299562044,2.25,-0.125,1.1875
1480626299582599,0,0.5,-1.25
1480626299605159,-2.5,-0.9375,0.25
1480626299642761,-1.3125,-0.125,0.125
1480626299658301,-0.5,-0.375,-0.75
1480626299665319,-1.125,-0.5625,-0.4375
1480626299687880,-1.0625,-0.6875,-0.4375
1480626299718461,-0.5,-0.625,-0.875
1480626299723975,0.1875,-0.125,-0.1875
1480626299755565,0.3125,0.0625,0.6875
1480626299779121,0.8125,0.0625,0.5
1480626299783633,1.0625,0.125,0.4375
1480626299807697,0.8125,0.1875,0.5
1480626299830759,0.6875,-0.0625,0.75
1480626299842289,-0.125,-0.25,0.4375
1480626299860339,0.125,-0.1875,0.5
1480626299883400,1.125,0.1875,0.1875
1480626299921501,0.8125,-0.1875,-0.4375
1480626299926514,0.4375,-0.25,-0.375
1480626299947570,0.4375,-0.1875,-0.25
1480626299973140,0.125,-0.1875,-0.4375
1480626300004220,0.375,0.0625,0.1875
1480626300024273,0.6875,0.125,0.375
1480626300025777,0.875,-0.0625,0.0625
1480626300046833,0.75,0.0625,0.125
1480626300062375,-0.125,-0.375,0.0625
1480626300082931,-0.0625,0,0.375
1480626300107495,-0.0625,0.1875,0.6875
1480626300128050,-0.8125,0.3125,0.8125
1480626300143090,-0.625,0.0625,0.8125
1480626300166653,-0.125,0.1875,0.1875
1480626300190717,0.3125,0.0625,-0.0625
1480626300202749,2.4375,0.1875,-1.9375
1480626300219794,0.0625,0.4375,0.5
1480626300242353,-2.625,-0.75,0.375
1480626300285970,0.4375,-0.125,0.25
1480626300311538,0.8125,0.125,0.0625
1480626300325576,-0.875,-0.4375,0.5
1480626300330589,-0.5625,-0.1875,0.625
1480626300340115,1.0625,0.0625,0.125
1480626300362173,0.5,-0.125,0.25
1480626300384733,-0.8125,-0.3125,0.1875
1480626300399271,-0.8125,-0.25,0.125
1480626300421831,0.25,0.0625,-0.1875
1480626300468455,0.125,-0.125,0
1480626300473469,-0.5625,-0.375,0.0625
1480626300481992,-0.375,-0.1875,0
1480626300504551,0.375,0,0.125
1480626300525607,0.5,0,0.0625
1480626300549672,0,-0.125,-0.125
1480626300564711,0.375,-0.125,-0.1875
1480626300588274,0.5625,-0.0625,-0.0625
1480626300616850,0.75,-0.1875,0.25
1480626300640914,1.125,0,0.125
1480626300660968,0.625,0.125,-0.0625
1480626300670996,0.125,-0.0625,-0.25
1480626300690547,-0.1875,-0.25,-0.25
1480626300699570,0,-0.3125,0
1480626300722132,0,-0.25,0.0625
1480626300750706,-0.25,-0.3125,0.0625
1480626300765747,-0.5625,-0.5625,0.375
1480626300781789,0.4375,-0.1875,-0.1875
1480626300804349,0.0625,-0.125,0
1480626300834930,-0.875,-0.375,-0.0625
1480626300842451,-0.75,-0.25,-0.125
1480626300864509,-0.125,-0.125,-0.3125
1480626300879550,-0.8125,-0.3125,-0.1875
1480626300910130,-1.125,-0.3125,-0.375
1480626300940714,-0.4375,-0.25,-0.0625
1480626300946729,-0.3125,-0.3125,-0.0625
1480626300962269,-0.125,-0.4375,-0.1875
1480626300992850,-0.125,-0.0625,0.125
1480626301021427,-0.625,0.0625,-0.25
1480626301029949,-1.6875,-0.375,-0.25
1480626301044488,-1.0625,-0.375,-0.125
1480626301066045,-0.375,-0.125,-0.0625
1480626301096125,-0.5,-0.125,0
1480626301104648,-0.8125,-0.5,0.25
1480626301133223,-0.5625,-0.3125,0.25
1480626301141750,-0.0625,-0.1875,0.3125
1480626301164307,-0.375,-0.0625,0.125
1480626301186867,-1.1875,-0.5,-0.3125
1480626301216951,-0.9375,-0.625,-0.0625
1480626301224466,-0.3125,-0.5,0
1480626301245522,0.1875,-0.25,0.0625
1480626301269086,-0.25,-0.25,0.125
1480626301301672,-0.25,-0.3125,0.0625
1480626301307192,-0.4375,-0.3125,-0.25
1480626301322229,-0.3125,-0.1875,-0.0625
1480626301351807,-1,-0.125,0.1875
1480626301380382,-1.1875,-0.0625,0.1875
1480626301390909,-0.875,0.125,0.25
1480626301410461,-1.3125,-0.1875,0.25
1480626301433022,-0.375,-0.125,-0.25
1480626301442046,0.3125,-0.3125,-0.4375
1480626301464606,-0.5625,-0.625,-0.375
1480626301494685,-0.9375,-0.5,-0.25
1480626301501705,-0.8125,-0.375,-0.125
1480626301547326,-0.5,-0.375,-0.0625
1480626301549832,-1.6875,-0.25,0.0625
1480626301593448,-1.75,-0.3125,-0.125
1480626301607486,-0.75,-0.125,-0.3125
1480626301609992,-1.0625,-0.125,-0.25
1480626301667647,-1.1875,-0.3125,-0.5
1480626301670655,-1.25,-0.3125,-0.375
1480626301676168,-0.4375,-0.4375,-0.5
1480626301689705,-0.1875,-0.25,-0.5
1480626301710259,-0.9375,-0.4375,-0.375
1480626301741843,-1.1875,-0.375,-0.375
1480626301744350,-0.4375,-0.3125,-0.375
1480626301771948,-0.375,-0.25,0.0625
1480626301787465,0,0.125,-0.25
1480626301808019,-1.375,0.1875,0.375
1480626301824563,-1.375,-0.0625,0.375
1480626301864169,0.3125,-0.125,0.5625
1480626301883219,1.5,-0.1875,-0.125
1480626301892744,0.75,-0.25,-0.375
1480626301915304,-0.375,-0.4375,-0.25
1480626301935358,0.1875,-0.1875,-0.1875
1480626301946387,0.6875,0.125,-0.125
1480626301966941,0.25,0.3125,0.1875
1480626301989506,-0.5,0,0.0625
1480626302004543,-0.5,0,-0.0625
1480626302027102,0.1875,0.3125,0
1480626302049663,0.625,0.125,0.1875
1480626302065203,-0.0625,-0.1875,0
1480626302086761,-0.0625,-0.0625,0.0625
1480626302107817,0.375,-0.0625,-0.1875
1480626302139401,0.5,-0.125,-0.25
1480626302146921,-0.25,-0.1875,0
1480626302167977,-0.375,-0.125,0.0625
1480626302199561,0.5,0,0
1480626302214099,0.375,-0.125,-0.25
1480626302231144,-0.1875,-0.0625,-0.1875
1480626302244681,-0.4375,-0.125,-0.3125
1480626302266743,-0.125,-0.125,-0.3125
1480626302288300,0.1875,0,-0.125
1480626302304340,-0.1875,0.125,0.0625
1480626302334419,-0.0625,-0.0625,-0.125
1480626302365002,-0.1875,-0.1875,0
1480626302367006,0.5625,-0.1875,0
1480626302387060,0.8125,0,-0.3125
1480626302417640,0.25,-0.4375,-0.0625
1480626302424659,-0.0625,-0.25,0.125
1480626302446719,0.75,-0.0625,0.125
1480626302477300,0.9375,0.0625,0.0625
1480626302508381,0.75,0.125,0.25
1480626302520916,0.25,0,0.1875
1480626302530944,0.5,0,0.0625
1480626302550494,0.5,0.1875,-0.3125
1480626302580574,-0.25,-0.1875,-0.3125
1480626302605644,0.375,-0.125,0.125
1480626302610654,0.5625,-0.0625,-0.125
1480626302634721,0.5,-0.0625,-0.125
1480626302656778,0.875,-0.0625,-0.0625
1480626302663796,0.5,-0.25,-0.375
1480626302701897,-0.0625,-0.3125,-0.4375
1480626302725961,0.3125,-0.625,-0.1875
1480626302746515,0.0625,-0.4375,-0.3125
1480626302753033,1.125,0.0625,-0.125
1480626302785119,0.0625,0,0.25
1480626302801162,-0.4375,-0.125,0.125
1480626302807178,0.5,0,0
1480626302829236,0.3125,0,0.125
1480626302850793,-0.3125,-0.25,-0.125
1480626302880372,-0.125,-0.1875,-0.0625
1480626302890399,0.3125,-0.25,-0.0625
1480626302911956,0.875,-0.3125,-0.125
1480626302934516,0.75,-0.375,-0.0625
1480626302950058,0.25,-0.4375,0
1480626302970614,0,-0.1875,0.125
1480626303001194,0.1875,-0.0625,0.125
1480626303023753,0.0625,0.1875,0.3125
1480626303030772,0.5,-0.1875,-0.125
1480626303063359,3,0.0625,-0.4375
1480626303076894,0.8125,0.375,0.4375
1480626303097950,-0.125,-0.5,-0.0625
1480626303106982,1.5625,0.125,0.125
1480626303130040,1.375,-0.125,-0.125
1480626303158111,0.3125,-0.5,0
1480626303167135,0.4375,-0.25,-0.25
1480626303189695,0.375,-0.125,-0.1875
1480626303211759,-0.25,-0.1875,0.0625
1480626303226794,0.3125,-0.125,0.3125
1480626303249354,0.3125,-0.0625,0.125
1480626303277930,0,-0.1875,0.0625
1480626303300491,0,-0.3125,-0.0625
1480626303310015,0.1875,-0.4375,0
1480626303333076,0.375,-0.125,0
1480626303354637,0.3125,-0.0625,-0.0625
1480626303375690,-0.0625,-0.1875,0.3125
1480626303391733,-0.875,-0.375,0
1480626303406773,0,-0.1875,-0.125
1480626303436853,0.25,0,0
1480626303451894,0.5,-0.1875,-0.125
1480626303466431,0.375,0.0625,-0.3125
1480626303503028,0.25,0.125,-0.125
1480626303535115,-0.1875,0.0625,-0.125
1480626303537621,-0.1875,-0.0625,-0.25
1480626303558175,0.25,0.0625,0.0625
1480626303580237,0.625,-0.1875,-0.125
1480626303600287,0.3125,-0.1875,-0.1875
1480626303609812,-0.0625,-0.1875,0.1875
1480626303633376,-0.5,0.125,0.0625
1480626303662954,-0.9375,0,0.25
1480626303669472,0.75,0.125,0.1875
1480626303692033,0.75,-0.0625,-0.125
1480626303715093,0.5625,-0.1875,0.0625
1480626303729632,0.6875,-0.3125,0.0625
1480626303752191,0.8125,-0.1875,-0.0625
1480626303805332,0.625,-0.125,-0.0625
1480626303813855,0.25,0,0.0625
1480626303827893,-0.25,0.125,0.3125
1480626303832906,-0.4375,0.125,0.125
1480626303849951,-0.1875,0.1875,0.25
1480626303879530,0.0625,-0.0625,0.3125
1480626303894570,0,-0.125,0.4375
1480626303909612,0,-0.125,0.3125
1480626303932170,0.0625,-0.1875,-0.0625
1480626303969771,-0.25,-0.25,-0.125
1480626303972281,-0.6875,-0.25,-0.25
1480626303993335,-0.375,-0.0625,-0.125
1480626304012885,-0.3125,0,0.0625
1480626304057503,-0.5625,-0.125,0
1480626304090090,-0.3125,-0.1875,0
1480626304095103,-0.25,-0.125,-0.0625
1480626304105135,0,-0.1875,-0.125
1480626304126188,-1,-0.375,-0.1875
1480626304133205,-0.9375,-0.1875,-0.3125
1480626304157269,-0.6875,-0.125,-0.25
1480626304172810,-0.75,-0.1875,-0.125
1480626304192864,-0.875,-0.3125,-0.3125
1480626304209909,-0.25,-0.25,-0.25
1480626304239491,-0.0625,-0.1875,-0.0625
1480626304277589,0.0625,-0.1875,0.0625
1480626304281099,0,-0.1875,0
1480626304307168,-0.5625,-0.1875,-0.0625
1480626304335242,-0.125,-0.125,-0.1875
1480626304353290,0,0,-0.1875
1480626304360810,-0.4375,-0.1875,-0.125
1480626304374848,-0.75,-0.3125,-0.125
1480626304388885,0.0625,-0.3125,-0.25
1480626304411946,0.6875,-0.25,-0.375
1480626304434506,0.0625,-0.4375,-0.125
1480626304449046,-0.375,-0.375,-0.125
1480626304472110,-0.375,-0.125,-0.1875
1480626304494667,-0.625,0,-0.25
1480626304516726,-0.375,0.0625,-0.1875
1480626304554830,-0.75,0.125,-0.5
1480626304558336,-0.6875,-0.125,-0.4375
1480626304584405,-0.8125,-0.25,-0.3125
1480626304600950,-0.375,-0.25,-0.25
1480626304615489,0.125,-0.375,-0.125
1480626304637046,-0.4375,-0.25,-0.5625
1480626304652588,-1,-0.4375,-0.0625
1480626304682165,-0.625,-0.0625,0.0625
1480626304688682,-1.3125,-0.125,0
1480626304712246,-1,-0.125,0.1875
1480626304734805,-0.6875,-0.125,-0.0625
1480626304762880,-0.25,-0.0625,-0.1875
1480626304771910,0.0625,-0.0625,-0.3125
1480626304840086,-0.375,-0.125,-0.75
1480626304842593,-0.625,-0.0625,-0.9375
1480626304864652,-0.6875,-0.25,-0.5625
1480626304885707,-0.875,-0.125,0
1480626304906762,-0.5625,-0.125,0.0625
1480626304915786,0,-0.3125,-0.0625
1480626304944364,0.1875,-0.25,0.125
1480626304959402,-0.125,-0.1875,0.1875
1480626304980459,-0.1875,0.0625,0.25
1480626304995499,-0.75,0.0625,0.4375
1480626305012043,-0.625,-0.0625,0.25
1480626305042123,0.625,0,-0.125
1480626305057163,1,-0.0625,-0.0625
1480626305072203,0.4375,-0.25,-0.125
1480626305110304,0.1875,-0.25,-0.125
1480626305116320,0.5625,-0.0625,-0.125
1480626305139382,0.25,0,0.375
1480626305154927,-0.25,0.125,0.4375
1480626305192523,-0.25,0.25,0.3125
1480626305206061,-0.4375,0,0.1875
1480626305216086,0.375,0.0625,0.0625
1480626305237143,1.1875,0.0625,0.1875
1480626305252182,0.4375,-0.125,-0.0625
1480626305274240,-0.125,-0.3125,-0.0625
1480626305296800,0,-0.125,0
1480626305355462,0.25,0,-0.125
1480626305367488,-0.125,-0.0625,-0.1875
1480626305388544,-0.5625,-0.125,-0.0625
1480626305390049,-0.0625,0.125,0
1480626305396064,0,0.125,0.125
1480626305417120,-0.0625,0.1875,0.125
1480626305431659,-0.25,0.125,0.125
1480626305460235,-0.3125,-0.0625,-0.1875
1480626305476779,0.125,-0.125,-0.3125
1480626305491318,0.4375,0.0625,0
1480626305514379,0.25,0.125,0.4375
1480626305553484,0,-0.0625,0.125
1480626305572536,0.125,-0.125,-0.125
1480626305583564,0.375,-0.0625,-0.0625
1480626305611637,0.125,-0.1875,-0.0625
1480626305614145,0.25,-0.0625,0.125
1480626305656758,-0.0625,-0.0625,0.1875
1480626305666785,-0.0625,-0.0625,0.125
1480626305677815,1.125,-0.0625,0.1875
1480626305695361,1.3125,-0.0625,0
1480626305716918,0.5625,-0.1875,0.125
1480626305739981,0,-0.1875,0.125
1480626305763041,0.1875,-0.0625,0
1480626305777079,0.5625,0,0.0625
1480626305798134,0.375,-0.0625,0.0625
1480626305821700,0,-0.0625,-0.0625
1480626305837740,-0.125,-0.125,-0.125
1480626305857793,0.25,-0.125,-0.125
1480626305881857,0.375,-0.0625,0.0625
1480626305922967,0.125,-0.1875,-0.0625
1480626305936503,-0.1875,-0.25,-0.375
1480626305940514,0.1875,-0.25,-0.1875
1480626305964577,0.4375,-0.1875,0.1875
1480626305985633,-0.4375,-0.0625,0.125
1480626305995159,-0.4375,0.1875,-0.1875
1480626306016716,-0.3125,-0.0625,-0.0625
1480626306037772,1.0625,0.125,-0.0625
1480626306055319,0.3125,0.0625,0
1480626306077377,-0.5,0.0625,0.0625
1480626306099437,-0.5625,0.125,0.0625
1480626306137537,-0.25,-0.0625,0
1480626306140045,0.3125,0.0625,0.0625
1480626306220759,0.375,0,0.125
1480626306234796,0,-0.0625,0.125
1480626306240313,0.4375,-0.125,0.125
1480626306270391,0.125,-0.0625,-0.0625
1480626306294456,-0.375,-0.125,0.0625
1480626306296962,0.25,0,0.125
1480626306317516,0.25,0,0
1480626306347095,0.375,-0.0625,0.1875
1480626306353612,0.5625,0.0625,0.3125
1480626306390712,-0.125,0.125,0.3125
1480626306416780,0,-0.125,0.125
1480626306444857,0.1875,-0.0625,0.0625
1480626306459894,0.125,-0.125,0.25
1480626306462402,0,-0.125,0.125
1480626306498498,0.0625,0,0.125
1480626306503013,0.125,-0.125,0.125
1480626306527073,0,-0.125,0
1480626306542115,0.4375,-0.25,-0.0625
1480626306580217,0,-0.25,0.0625
1480626306583226,-0.0625,-0.25,0.0625
1480626306600268,0.4375,-0.1875,0.0625
1480626306624333,-0.4375,-0.25,-0.1875
1480626306639874,-0.6875,-0.3125,-0.0625
1480626306671459,0,-0.125,0
1480626306723095,0.5,-0.125,-0.0625
1480626306736130,0.1875,-0.0625,0.1875
1480626306754177,-0.5,-0.125,0
1480626306768215,-0.3125,-0.1875,0.125
1480626306780247,-0.1875,-0.125,0.1875
1480626306796791,0.25,-0.0625,0
1480626306825371,0.3125,0,0.25
1480626306857453,0.375,-0.125,0.5
1480626306859963,0.3125,0.125,0.3125
1480626306879516,0.25,0.1875,0.4375
1480626306901571,-0.1875,0.1875,0.375
1480626306938670,-0.3125,0,0.0625
1480626306949196,0.25,0.0625,-0.0625
1480626306960728,0.3125,0.125,-0.4375
1480626306984289,-0.1875,-0.25,-0.1875
1480626307013868,-0.1875,-0.4375,-0.3125
1480626307028406,-0.0625,-0.375,-0.4375
1480626307044450,0.125,-0.375,-0.25
1480626307065508,-0.3125,-0.4375,-0.1875
1480626307080546,-0.625,-0.3125,-0.0625
1480626307097594,-0.9375,-0.125,0.0625
1480626307127170,-1.3125,0.0625,0.3125
1480626307142726,-1.1875,0.0625,0.125
1480626307156750,-0.6875,0.125,0
1480626307180311,-0.25,0.3125,0.1875
1480626307215906,-0.5625,0,0
1480626307232453,0.0625,-0.1875,-0.1875
1480626307248494,0.25,-0.25,-0.25
1480626307262029,-0.3125,-0.3125,-0.25
1480626307290606,-0.75,-0.375,-0.1875
1480626307299628,-0.125,-0.3125,-0.0625
1480626307328204,-0.75,-0.1875,-0.0625
1480626307336227,-0.9375,-0.1875,-0.125
1480626307360291,-0.5625,0.0625,0.0625
1480626307381848,-0.4375,0.1875,0.125
1480626307410925,-0.8125,0.25,-0.1875
1480626307428471,-0.5625,0.125,-0.0625
1480626307442008,0,0,-0.1875
1480626307462562,0.1875,-0.0625,-0.5625
1480626307488632,-0.25,-0.125,-0.625
1480626307518210,-0.3125,-0.25,-0.375
1480626307523226,-0.0625,-0.1875,-0.3125
1480626307547287,0.0625,0,-0.375
1480626307569347,-0.5,-0.125,-0.0625
1480626307599928,-1.0625,-0.3125,0.0625
1480626307602434,-0.6875,-0.1875,0.1875
1480626307622489,-0.6875,0.0625,0.125
1480626307650562,-0.8125,0,0.1875
1480626307659587,-1.1875,-0.25,0.125
1480626307696183,-0.625,-0.25,-0.0625
1480626307710722,-0.5,-0.1875,-0.125
1480626307719245,0.0625,-0.3125,0
1480626307741805,-0.125,-0.1875,0
1480626307771887,-0.5,-0.3125,-0.125
1480626307779405,-0.5625,-0.125,-0.0625
1480626307802467,-0.0625,0,-0.0625
1480626307823022,-0.3125,0.0625,-0.0625
1480626307853103,-0.625,0.125,0.1875
1480626307884686,-0.6875,-0.0625,0.1875
1480626307887192,0.0625,-0.0625,0
1480626307900729,0.1875,-0.125,-0.125
1480626307929304,-0.25,-0.1875,-0.0625
1480626307959884,0.0625,-0.25,-0.0625
1480626307962392,-0.1875,-0.3125,-0.375
1480626307981944,0,-0.3125,-0.3125
1480626308010521,-0.1875,-0.1875,-0.0625
1480626308050125,-0.5,-0.0625,-0.0625
1480626308052632,-0.5,-0.125,-0.0625
1480626308066168,-0.375,0,0.0625
1480626308079704,0.1875,0.125,-0.0625
1480626308102263,0,0.0625,-0.125
1480626308124827,-0.25,0,0
1480626308162423,-0.5,-0.0625,-0.125
1480626308164931,-0.0625,-0.125,-0.1875
1480626308184483,0.3125,0,0.1875
1480626308207044,0.4375,0.0625,0.125
1480626308245143,0.0625,-0.0625,-0.25
1480626308247149,-0.3125,-0.125,-0.125
1480626308259194,0,0.0625,0.125
1480626308289262,0.625,0.1875,0.125
1480626308305806,0.1875,0.1875,0.125
1480626308320345,-0.25,0,0
1480626308349422,0.375,-0.125,0.125
1480626308370480,0.9375,-0.0625,-0.0625
1480626308379000,0.875,-0.125,-0.0625
1480626308402063,0.1875,-0.0625,-0.0625
1480626308433145,-0.4375,-0.125,0.125
1480626308438659,-0.1875,0.125,0.375
1480626308461720,0,0.1875,0.1875
1480626308484783,0.125,0.125,0.0625
1480626308512856,-0.125,0,0.25
1480626308521881,0.25,-0.0625,0.1875
1480626308551961,0.125,-0.0625,0.0625
1480626308574521,0.5625,0.0625,0.125
1480626308583043,-0.0625,-0.0625,-0.1875
1480626308606104,-0.375,-0.125,-0.3125
1480626308625661,-0.25,-0.0625,0
1480626308649219,0.0625,-0.0625,0.125
1480626308664259,-0.1875,0,0.25
1480626308685315,-0.0625,0.125,0.125
1480626308709382,-0.0625,-0.125,0
1480626308724926,0.1875,0.0625,0
1480626308745476,0,0.0625,-0.0625
1480626308762019,0,-0.0625,0
1480626308792601,-0.0625,0,-0.125
1480626308805635,-0.375,-0.25,-0.1875
1480626308829198,-0.0625,-0.0625,-0.0625
1480626308859278,0.5625,0,-0.1875
1480626308890867,0.375,0.0625,0
1480626308895875,-0.375,-0.0625,0.0625
1480626308905903,0,-0.125,0
1480626308932974,0.0625,0,0.125
1480626308942001,-0.25,0.125,-0.25
1480626308965060,-0.4375,-0.1875,0
1480626308986618,0.5625,-0.0625,0.0625
1480626309009680,0.125,-0.1875,-0.125
1480626309024720,0,0,0.0625
1480626309046777,0.5625,-0.125,0
1480626309069838,0.6875,-0.125,0
1480626309084376,0.625,-0.125,0
1480626309129999,0.4375,-0.0625,0
1480626309132505,0.0625,-0.0625,0.0625
1480626309152056,0,0.0625,0.1875
1480626309174117,-0.375,0.0625,0.125
1480626309190660,0.1875,0.125,0.125
1480626309204700,0.0625,-0.125,-0.0625
1480626309234276,0.25,-0.0625,0.0625
1480626309241295,0.3125,-0.25,-0.0625
1480626309265861,0,-0.25,-0.125
1480626309287418,-0.1875,-0.3125,-0.125
1480626309301455,-0.25,-0.125,0.1875
1480626309346073,0.125,0.125,0.1875
1480626309356099,-0.5625,0.0625,0.125
1480626309361113,-0.5625,-0.1875,0.3125
1480626309384174,-0.125,-0.125,0
1480626309406734,0.6875,0,-0.0625
1480626309435816,0.25,-0.0625,-0.125
1480626309444334,-0.5,-0.3125,-0.125
1480626309480932,-0.6875,-0.125,0
1480626309495476,0.25,0.0625,0
1480626309512014,-0.1875,0.0625,-0.0625
1480626309541091,-0.25,-0.125,0.125
1480626309548111,0,-0.0625,0.375
1480626309570672,0.5625,-0.0625,0.25
1480626309594234,0.4375,-0.1875,0.25
1480626309622808,0.625,-0.1875,0.4375
1480626309637852,-0.125,-0.125,0.25
1480626309646873,-0.1875,0,0.5
1480626309685476,0.0625,-0.25,-0.1875
1480626309687982,0.625,-0.0625,-1.4375
1480626309707535,0.625,-0.1875,0.375
1480626309737118,0,-0.25,-0.375
1480626309745135,0.5625,0.0625,-0.0625
1480626309766693,0.25,-0.125,0
1480626309796772,-0.125,-0.1875,0.125
1480626309812314,0.1875,-0.0625,-0.125
1480626309826852,0.4375,0.125,0
1480626309849412,-0.125,0.0625,0.3125
1480626309877486,-0.8125,0,0.375
1480626309904072,0.3125,0.125,0.1875
1480626309909572,0.3125,0.125,0.125
1480626309924613,0.125,-0.0625,0
1480626309961714,-0.4375,-0.25,0
1480626309993294,-0.4375,-0.3125,-0.3125
1480626309998309,-0.1875,-0.1875,-0.1875
1480626310008335,-0.375,-0.125,-0.1875
1480626310029391,-1.0625,-0.0625,-0.0625
1480626310044432,-1.0625,-0.0625,0.125
1480626310075013,-0.1875,0.1875,0.0625
1480626310097072,-0.0625,0.0625,-0.125
1480626310104093,-0.375,0.0625,-0.1875
1480626310127151,-0.6875,0,-0.125
1480626310150213,-0.5,0.0625,-0.1875
1480626310163749,-0.5625,-0.0625,-0.4375
1480626310186817,-0.8125,-0.375,-0.3125
1480626310210372,0,-0.1875,-0.3125
1480626310230426,0.125,-0.0625,-0.0625
1480626310246970,-0.125,-0.125,-0.0625
1480626310270536,-0.1875,-0.0625,0.125
1480626310298107,-0.25,-0.0625,-0.125
1480626310313145,-0.125,-0.0625,-0.125
1480626310330696,-0.5,0,0.0625
1480626310344228,-0.1875,-0.0625,0.1875
1480626310366791,0.25,0.0625,-0.125
1480626310389348,0,-0.1875,-0.3125
1480626310411909,-0.1875,-0.25,-0.1875
1480626310432965,0.25,-0.375,-0.1875
1480626310449509,0.625,-0.125,-0.1875
1480626310470565,-0.25,-0.1875,-0.1875
1480626310487110,-0.9375,0,0.25
1480626310516688,-0.8125,0.1875,0.0625
1480626310530224,-0.5625,0.25,0.1875
1480626310546767,-1.0625,0.25,0.6875
1480626310570336,-0.8125,0.0625,0.5
1480626310590884,-0.5,-0.1875,0.25
1480626310606927,0.125,0.3125,0.25
1480626310629488,-0.6875,0.5,-0.0625
1480626310650544,-1.75,0.6875,-0.375
1480626310667089,-1.625,1.75,-0.875
1480626310689647,-1.6875,2.25,-0.6875
1480626310710703,-3.5,1.3125,-0.75
1480626310734267,-2.6875,1.5625,0
1480626310749306,-1.25,2,0.125
1480626310770365,-2.3125,2.125,0.4375
1480626310787410,-4.1875,2.3125,0.75
1480626310825008,-3.875,3.25,4.4375
1480626310830522,-5.75,0.6875,3
1480626310847066,-8.6875,0.5,3.5
1480626310877146,-4.875,0.9375,3.6875
1480626310891684,-4.875,1.375,3
1480626310906725,-6.125,0.5625,2.75
1480626310929285,-3,0.9375,3
1480626310959365,5.875,0.9375,-0.0625
1480626310967387,3.9375,1.4375,-0.4375
1480626310997467,-1.375,0.75,-0.625
1480626311012007,-2.4375,-0.1875,0.5625
1480626311027546,1.8125,-0.1875,-0.3125
1480626311049605,3.1875,0.6875,-0.75
1480626311071664,0.5625,0.8125,0.25
1480626311087209,-0.125,0.8125,-0.6875
1480626311133327,0.6875,0.75,-0.625
1480626311145861,0.375,0.75,-0.25
1480626311155887,1.125,0.5625,-0.625
1480626311170431,2.0625,0.1875,-1
1480626311191984,2.6875,0.125,-1.8125
1480626311215046,2.1875,0.375,-1
1480626311244624,-1.5,-0.125,-1.125
1480626311253651,-2.875,0.0625,-1.0625
1480626311266181,-1.4375,1.625,-1.25
1480626311289242,-1.8125,2.125,-0.375
1480626311319824,-3.3125,1.6875,0.5625
1480626311326341,-1.625,1.5,0.5625
1480626311349403,1.5625,1.75,0
1480626311377978,2.4375,1.6875,-0.5
1480626311410065,2.625,1.0625,-0.25
1480626311413574,3,0.9375,0.5625
1480626311432122,4,1.4375,0.5625
1480626311461702,5.25,0.8125,-1
1480626311476742,4.5625,0.6875,1.0625
1480626311491781,2.0625,0.1875,0.8125
1480626311514341,0.875,-0.125,1.0625
1480626311536903,1.0625,-0.75,0.5625
1480626311551941,1.5625,-0.75,-0.0625
1480626311582021,1.0625,-0.375,-0.125
1480626311604582,-0.1875,-0.4375,-0.0625
1480626311612101,-1,-0.25,0.4375
1480626311657221,0.375,0,0.4375
1480626311659729,-0.5,-0.0625,-0.0625
1480626311679280,-1.75,0,-0.625
1480626311692816,-2.0625,-0.125,-0.6875
1480626311709862,-2.375,0.0625,-1.125
1480626311732422,-2.4375,0.3125,-1.75
1480626311752979,-2.875,0.1875,-1.8125
1480626311769521,-2.4375,0.0625,-1.5
1480626311793084,-2.5,-0.375,-1.1875
1480626311820656,-1.625,-0.1875,-1.5625
1480626311829681,-1.0625,-0.0625,-1.3125
1480626311852241,0.625,0,-0.3125
1480626311881819,1.8125,0.1875,-0.125
1480626311902876,1.9375,0.1875,0.5
1480626311941478,1.3125,0.25,0.9375
1480626311958022,2.0625,0.25,1
1480626311963035,2.5,0.3125,1
1480626311972562,1.625,0.125,0.5
1480626311995121,0.5,0.25,0.1875
1480626312008656,0.1875,0.1875,0.25
1480626312039239,-0.1875,-0.0625,0.5
1480626312054279,-0.5,-0.25,0.25
1480626312069319,0.625,-0.0625,-0.3125
1480626312091877,-0.3125,-0.0625,0.0625
1480626312114438,-1.3125,-0.75,0
1480626312128977,0.25,-0.4375,-0.25
1480626312152040,-1.375,0.1875,-0.875
1480626312174599,-0.9375,-0.1875,-0.0625
1480626312195654,-0.0625,0.0625,0.3125
1480626312217712,0.6875,0.0625,0
1480626312240272,1.1875,-0.25,-0.6875
1480626312256819,0.375,-0.4375,-0.6875
1480626312271865,-0.5625,-0.25,0.75
1480626312294417,-1,-0.375,1.4375
1480626312308454,1,-0.125,-0.1875
1480626312332017,0.8125,-0.125,0
1480626312354576,0.1875,-0.6875,0.25
1480626312377638,0.0625,-0.0625,-0.0625
1480626312392177,0.5,0.5,0
1480626312414235,0.1875,-0.0625,0.375
1480626312436797,0.75,-0.25,0.1875
1480626312467879,0.5625,-0.25,0.125
1480626312487931,0.4375,-0.3125,-0.25
1480626312512497,0,-0.25,0.125
1480626312515004,-0.875,-0.25,0.125
1480626312535057,-0.3125,-0.25,-0.375
1480626312563132,-1,-0.4375,-0.5625
1480626312571654,-0.625,-0.6875,-0.75
1480626312594214,-0.1875,-0.4375,-1.125
1480626312623291,-0.375,-0.5625,-0.875
1480626312633319,-0.8125,-0.5,-0.1875
1480626312654375,-1.3125,-0.625,-0.125
1480626312692476,-1.4375,-0.625,-0.0625
1480626312695985,-1.125,-0.25,-0.0625
1480626312716038,-2.5,-1.3125,0.1875
1480626312745116,-2.375,-1.9375,0.5
1480626312767176,-0.375,-1.75,-0.25
1480626312787729,1.3125,-1.3125,-1
1480626312796753,1.5625,-1.125,-1.8125
1480626312811793,0.3125,-1.1875,-1.625
1480626312834854,0.1875,-1.125,-1.625
1480626312856913,1.75,-0.6875,-1.4375
1480626312872456,1.5625,-0.75,-0.75
1480626312902034,2.5,-0.75,-1.4375
1480626312923089,0.375,0.125,-2.125
1480626312931111,1.125,0.3125,-1.8125
1480626312961692,-0.9375,0.5625,-0.9375
1480626313022353,-1.875,0.375,-0.375
1480626313024860,-1.625,0.5625,0.1875
1480626313065467,0,0.625,0
1480626313076497,-0.6875,0.1875,0.1875
1480626313081010,-0.9375,0.125,0.0625
1480626313097052,-0.6875,0.125,0.1875
1480626313111089,-0.5625,0.25,-0.3125
1480626313134652,-0.5625,0.3125,-0.5
1480626313156710,-1.375,0.0625,-0.1875
1480626313180274,-0.375,-0.4375,-0.3125
1480626313201831,0.375,-0.3125,-0.1875
1480626313216871,0.6875,-0.6875,-0.5625
1480626313239431,-0.125,-0.5,-0.5
1480626313269512,-0.1875,0.125,-0.1875
1480626313291569,-1.625,0,0
1480626313298087,-1.3125,0.125,0.1875
1480626313314630,-0.25,0.25,0.375
1480626313344209,-1.3125,0.3125,0.25
1480626313357745,-1.875,0.4375,0
1480626313374290,-1.125,0.375,0.125
1480626313404870,-1.1875,0.4375,0.375
1480626313417905,-1.375,0.3125,-0.1875
1480626313434450,-1.3125,0.1875,-0.375
1480626313457009,-1,0.125,-0.25
1480626313495112,-1.25,0.5625,-0.25
1480626313497618,-1.9375,0.75,0.0625
1480626313524188,-2.5,0.5625,-0.0625
1480626313545745,-0.6875,0.1875,-0.4375
1480626313561789,-0.25,0.375,0.125
1480626313577833,-1.0625,0.125,0.1875
1480626313597886,-1.5625,0.1875,0
1480626313620446,-0.875,0.3125,0
1480626313636988,0.1875,0.4375,0.0625
1480626313658044,-0.1875,0.4375,-0.3125
1480626313675591,-0.25,-0.5,0.5
1480626313696647,1.625,-0.4375,0.5625
1480626313718204,-1.125,0.1875,0.25
1480626313743271,0.9375,0.5625,-0.125
1480626313770846,0.625,0.6875,0.625
1480626313795911,0.875,-0.125,0.375
1480626313800422,2.3125,-0.4375,-0.125
1480626313822984,2.125,-0.5,0.125
1480626313839527,0.6875,-0.125,0.8125
1480626313854567,-0.625,0,0.9375
1480626313877629,0,-0.125,0.75
1480626313899186,0.75,-0.125,0.125
1480626313914226,-0.5,-0.25,-0.5
1480626313936788,-2.9375,-0.1875,-1.5625
1480626313966867,-4,-0.1875,-1.5
1480626313981906,-2.375,-0.125,-1.25
1480626314010482,0.5,0,-0.6875
1480626314034556,1.4375,0.0625,-0.5625
1480626314036553,1.9375,-0.1875,-0.3125
1480626314057106,1.8125,-0.125,0
1480626314095709,1.5625,-0.25,0.3125
1480626314100221,2.1875,0.125,0.6875
1480626314116765,1.875,-0.0625,1.25
1480626314146844,1.625,0.25,1.1875
1480626314153863,0.9375,0.25,0.9375
1480626314184948,0.6875,0.125,0.75
1480626314207005,0.125,0.0625,0.5625
1480626314228060,0.5,-0.0625,0.5625
1480626314237088,1.125,-0.1875,0.3125
1480626314242098,0.5,-0.125,0.4375
1480626314264660,0.625,-0.25,0.3125
1480626314298749,0.9375,-0.3125,0.0625
1480626314319305,0.6875,-0.375,-0.125
1480626314328327,-0.625,-0.3125,-0.5
1480626314350888,-1.0625,-0.1875,-0.75
1480626314378462,-1.75,0.125,-0.625
1480626314384979,-2.5,0,-0.5625
1480626314407037,-2.375,0.1875,-0.4375
1480626314423581,-2.125,0.1875,-0.4375
1480626314452159,0.5625,-0.3125,-0.1875
1480626314467197,2.8125,-0.25,-0.75
1480626314489757,1.9375,-0.5625,-1.1875
1480626314508808,0.0625,-0.9375,-0.0625
1480626314527357,0.5,-0.875,0.9375
1480626314549918,2.8125,-0.3125,-0.4375
1480626314573984,1.375,0.25,-0.25
1480626314604562,2.0625,0.3125,0.5625
1480626314606567,-0.125,0,0.75
1480626314624617,1.5625,0.25,0.375
1480626314648680,1.0625,0.4375,0.3125
1480626314662215,0.4375,0.125,0.125
1480626314684776,0.4375,0.1875,0.5
1480626314707336,-0.8125,-0.25,0.6875
1480626314722375,0.25,-0.1875,0.1875
1480626314746440,-0.125,0.1875,-0.0625
1480626314767496,-1.875,-0.25,-0.0625
1480626314782536,-1.375,-0.25,0
1480626314821139,0,-0.25,-0.1875
1480626314827156,-0.375,-0.1875,-0.3125
1480626314882301,-0.625,-0.3125,0
1480626314885814,0,-0.5625,-0.125
1480626314890323,0.9375,-0.3125,-0.5
1480626314902355,0.875,0.0625,0
1480626314927922,-0.1875,-0.0625,0.5
1480626314947475,-0.375,-0.125,0.6875
1480626314962515,0.0625,-0.1875,0.375
1480626314986080,1.375,-0.0625,0.375
1480626315010142,1.0625,-0.125,-0.0625
1480626315029693,0.5625,-0.0625,0.1875
1480626315044733,-0.5,-0.125,0.375
1480626315077320,0.375,0,-0.0625
1480626315089853,0,-0.0625,-0.3125
1480626315105396,0.0625,-0.0625,-0.1875
1480626315127453,-0.25,0.0625,-0.75
1480626315145000,-1,0.0625,-0.4375
1480626315164552,-0.5,-0.125,-0.25
1480626315187112,0.6875,-0.5,0
1480626315204159,0.5,-0.3125,0.5
1480626315226216,-0.25,0,0.5625
1480626315256296,-0.125,0,0
1480626315263816,0,0.1875,-0.5625
1480626315286378,1.125,-0.0625,-0.9375
1480626315307432,-0.1875,0,-0.625
1480626315323475,-1.3125,-0.1875,-0.125
1480626315348542,-0.4375,-0.25,0.5625
1480626315367091,0.3125,-0.125,0.5
1480626315383635,0.375,0.125,0.1875
1480626315407699,-1.125,0.125,-0.0625
1480626315427252,-1.5,0.3125,-0.6875
1480626315443795,-1,-0.25,-1.0625
1480626315464851,-0.25,-0.5625,-1.125
1480626315489416,1.3125,-0.3125,-0.75
1480626315503956,0.4375,-0.625,-0.1875
1480626315532030,-1.25,-0.5,0.0625
1480626315547571,0.8125,-0.25,0
1480626315563615,0.625,0.125,0.125
1480626315585676,-0.625,0.3125,0.125
1480626315615252,-2.1875,0.5625,0.625
1480626315629790,-2.125,0.5,1
1480626315661374,0.6875,0.3125,0.5625
1480626315667391,1.3125,0.1875,-0.0625
1480626315685438,0.125,-0.0625,0.3125
1480626315704990,-0.9375,-0.125,-0.5
1480626315727048,-0.9375,0.125,-0.8125
1480626315745097,0.875,-0.1875,-0.25
1480626315764648,-3.125,-0.625,-0.125
1480626315787209,-2.75,0,1.25
1480626315805260,-1.625,0.0625,0.875
1480626315824809,0.625,-0.625,-0.625
1480626315850377,3.1875,-0.4375,-0.5
1480626315879957,0.5,-0.9375,-1.0625
1480626315885470,-0.9375,-0.4375,-0.6875
1480626315910037,-0.9375,-0.375,0.875
1480626315939115,-1.6875,0,1.6875
1480626315944627,1.125,0.0625,-0.0625
1480626315967190,-0.4375,0.3125,-0.125
1480626315989747,-1.4375,0,-0.25
1480626316004788,-0.875,-0.3125,-0.5625
1480626316027348,-0.9375,0.125,-0.3125
1480626316049909,0.3125,0.3125,0.25
1480626316064948,0,-0.4375,0.1875
1480626316087507,0.75,-0.5625,0.5
1480626316126612,1.25,-0.125,0.0625
1480626316129118,0.375,0,0
1480626316157694,-0.5625,0,0.1875
1480626316188777,-0.625,-0.0625,0.4375
1480626316193791,0,0.1875,0.25
1480626316210335,0.1875,0.125,-0.25
1480626316229888,0.625,-0.0625,-0.3125
1480626316246430,0.5625,-0.1875,-0.375
1480626316267486,0.5,-0.125,-0.1875
1480626316289545,0,0.125,-0.0625
1480626316306590,-0.1875,0.375,0.0625
1480626316343689,-0.625,0.5625,-0.0625
1480626316349706,-1.1875,0.625,0
1480626316373769,0,0.6875,0.0625
1480626316403851,0,0.25,-0.3125
1480626316409864,0.875,-0.4375,-0.4375
1480626316456489,1.6875,0,-0.125
1480626316463508,0.75,-0.3125,-0.3125
1480626316478048,0.8125,-0.1875,-0.25
1480626316486570,0.8125,0.25,0.1875
1480626316508628,0,0.5,0.3125
1480626316540713,-0.5,0.375,0.125
1480626316546228,-0.3125,0.1875,-0.25
1480626316567284,0.375,-0.125,-0.375
1480626316592353,0.5625,-0.1875,-0.0625
1480626316621428,0.5,-0.125,0.3125
1480626316627448,0,-0.125,0
1480626316659028,-0.1875,-0.125,-0.25
1480626316681087,0.5,-0.0625,0.125
1480626316687102,0.3125,0.125,0.375
1480626316712671,-0.625,0.0625,0.1875
1480626316728213,-0.3125,0,0.3125
1480626316763808,0,-0.1875,-0.1875
1480626316769823,1.0625,-0.1875,-0.125
1480626316792384,1.0625,0,0.25
1480626316807423,-0.625,-0.0625,0.375
1480626316829983,-0.3125,0.0625,0.125
1480626316847529,0.375,0.0625,0.3125
1480626316870090,0.25,0.125,0.1875
1480626316889642,0,-0.0625,0.375
1480626316907690,0.3125,0,0.125
1480626316930250,-0.125,0.25,0.125
1480626316957322,-0.125,0.0625,0.0625
1480626316972362,-0.4375,0,0.4375
1480626316990411,0.1875,0,-0.1875
1480626317018990,0,-0.1875,-0.5
1480626317027508,0.25,-0.25,-0.25
1480626317047063,0.0625,-0.1875,0
1480626317069620,-0.1875,-0.1875,0
1480626317088169,0.4375,0.0625,0.1875
1480626317114741,-0.0625,0.3125,0.3125
1480626317129780,-0.1875,0.25,0.125
1480626317148330,0.3125,0.25,-0.125
1480626317187434,0.3125,0.1875,-0.125
1480626317215509,-0.3125,0.125,0.125
1480626317237572,-0.875,-0.0625,0.3125
1480626317251605,-0.1875,0.5,0.25
1480626317254112,-0.875,0.375,-0.0625
1480626317267647,-1.5625,-0.0625,0.1875
1480626317288703,-0.25,0.125,0.0625
1480626317313770,-0.25,0.3125,-0.0625
1480626317332319,-0.8125,0.125,0
1480626317363402,0.25,0.0625,0
1480626317369923,-1,0.1875,0
1480626317401504,-0.5625,-0.0625,-0.125
1480626317410026,-0.125,-0.1875,0.25
1480626317429578,0.0625,-0.375,0.0625
1480626317452138,0.125,-0.4375,-0.25
1480626317474698,-0.1875,-0.375,-0.1875
1480626317489738,0,-0.1875,-0.125
1480626317512298,-0.1875,-0.1875,-0.375
1480626317544885,-0.0625,0,-0.3125
1480626317549899,-0.5625,0,0.0625
1480626317572459,-1.25,-0.1875,0.125
1480626317590004,-0.5,0.0625,-0.5
1480626317612565,0,0,-0.25
1480626317632116,-0.75,-0.4375,-0.125
1480626317650165,-0.1875,-0.4375,-0.125
1480626317686264,0.3125,-0.0625,-0.25
1480626317692277,-0.5,0,-0.25
1480626317710325,-1.25,-0.125,0
1480626317729877,-0.375,0.125,-0.25
1480626317754943,-0.3125,0.5625,-0.25
1480626317769987,-1.5,0.25,-0.3125
1480626317791040,-1.5625,0,0
1480626317812597,-0.5625,-0.125,-0.25
1480626317830144,0.75,-0.125,-0.5
1480626317857215,0.125,-0.25,-0.5
1480626317872255,-1.0625,-0.4375,-0.5625
1480626317890304,-0.4375,-0.25,-0.4375
1480626317909856,-0.375,-0.3125,-0.3125
1480626317932415,0.25,0,-0.5625
1480626317972022,-0.0625,0,-0.0625
1480626317974028,-0.4375,-0.0625,0.0625
1480626317992075,-0.25,0,0.3125
1480626318011125,1.1875,0.125,0.1875
1480626318040203,0.3125,0.0625,0.5
1480626318053739,-0.1875,0.125,0.5
1480626318070283,-0.375,0.0625,0.0625
1480626318089835,0.75,0.5625,-0.125
1480626318119914,0.9375,0.375,-0.25
1480626318129941,-1,0.3125,-0.5
1480626318153004,-0.75,-0.375,-0.1875
1480626318172056,-0.875,0.0625,0.25
1480626318190613,-0.6875,1,0.8125
1480626318211159,-0.0625,-0.125,-0.1875
1480626318232213,1.4375,-0.125,-0.0625
1480626318250261,1.6875,-1.1875,0.125
1480626318271318,2.875,-0.75,-0.9375
1480626318292373,0.375,-0.1875,0.125
1480626318317441,-2.0625,0.375,1.125
1480626318331478,-2,0.375,1.6875
1480626318352535,0.1875,0.875,0.5625
1480626318370586,0.0625,0.875,-0.4375
1480626318392640,-0.3125,0.3125,-1.0625
1480626318412192,-1.3125,-0.25,-0.375
1480626318430240,0.125,-0.3125,0.25
1480626318457312,1.5625,-0.25,0.125
1480626318475360,1.25,-0.4375,0.1875
1480626318490401,0.0625,-0.625,-0.0625
1480626318512459,0.9375,-0.25,-0.25
1480626318534017,0.875,-0.125,-0.1875
1480626318557579,0.25,0.1875,0
1480626318572624,-1,0,0.5625
1480626318595179,-0.0625,0.0625,0.25
1480626318614731,1.1875,0.25,0
1480626318645813,1.0625,0.0625,-0.375
1480626318652333,0.375,-0.125,-0.375
1480626318671382,0.125,-0.1875,-0.0625
1480626318708982,0.625,0.3125,0.0625
1480626318713494,-0.4375,-0.125,0
1480626318734550,0.4375,-0.125,-0.5
1480626318753099,0.875,0.125,-0.0625
1480626318779670,0.0625,0.125,0.25
1480626318790210,-0.375,0.25,0
1480626318812770,-0.0625,0.5625,-0.25
1480626318832322,-0.1875,0.6875,0.0625
1480626318862402,-0.75,0.4375,-0.125
1480626318880451,-1.1875,-0.0625,-0.5625
1480626318900003,-0.3125,0.1875,-0.625
1480626318922563,0.25,0.3125,-0.5
1480626318932589,-1.75,0.25,0.1875
1480626318953645,-1.1875,0.125,0.4375
1480626318976205,0.875,0.625,0.5625
1480626318992750,0.875,0.4375,0.25
1480626319012301,-0.5625,0.4375,-0.0625
1480626319042381,-1.375,0.625,-0.625
1480626319058925,-1.3125,0.25,-0.4375
1480626319073464,0.125,0.0625,-0.5
1480626319095021,0.6875,0.0625,-0.5
1480626319128611,0.75,-0.375,-0.25
1480626319141144,0.875,-0.5,-0.75
1480626319154680,1.75,-0.75,-0.8125
1480626319177241,1.625,-1,-0.75
1480626319199799,2.1875,-0.625,-0.9375
1480626319222360,1.1875,-0.4375,-1.25
1480626319232888,1.125,-0.625,-1.25
1480626319253442,1,-0.625,0
1480626319275000,1.8125,-0.625,0.0625
1480626319292547,2,-0.5625,0.3125
1480626319313602,1.25,-0.6875,0.1875
1480626319334659,0.875,-0.5625,0.125
1480626319352706,0.5,-0.375,0.3125
1480626319374271,-0.6875,-1.0625,-5.625
1480626319394818,1.125,-1.625,2.75
1480626319428409,2.5625,-1.875,-2.5
1480626319435427,4.5625,-2.8125,-2.375
1480626319454979,5.5,-2.6875,-1.75
1480626319472527,3.375,-2,-1.125
1480626319502609,-0.375,-1,0.0625
1480626319514637,-0.75,-0.5,0.6875
1480626319544717,-0.8125,-0.25,1.3125
1480626319559758,2.625,-1.4375,2.1875
1480626319574798,7.125,-0.8125,0.25
1480626319592845,0.875,-0.625,-1.8125
1480626319619917,-2.1875,-1.3125,-1.6875
1480626319634959,-1.5625,-0.875,-0.0625
1480626319652510,0.5,-0.6875,-0.25
1480626319675064,1.75,-0.875,0
1480626319696120,0.75,-0.375,0.25
1480626319714168,-0.3125,0,0.5625
1480626319735225,-1.3125,0.375,0.9375
1480626319754776,-1.375,0.3125,0.5
1480626319777338,-0.375,0,0.125
1480626319795384,1.1875,-0.25,0.1875
1480626319814936,1.3125,-0.4375,0.1875
1480626319837497,1.5,-0.3125,-0.0625
1480626319856046,0,-0.125,0.0625
1480626319876099,-1.3125,0,0.125
1480626319893144,-1.3125,-0.1875,0.3125
1480626319915203,0,0,0.3125
1480626319934757,0.375,-0.5,0.1875
1480626319957315,-0.25,-0.75,0.125
1480626319983385,0.1875,-0.3125,0.0625
1480626320002436,0.6875,0.0625,0
1480626320012963,-1.0625,-0.0625,-0.0625
1480626320035527,-1.1875,-0.1875,0.3125
1480626320057582,-0.75,0,0.375
1480626320072622,-0.6875,0.0625,0.1875
1480626320095183,-0.5,0.0625,0
1480626320122254,-0.4375,-0.3125,0.25
1480626320146318,-0.0625,-0.4375,0
1480626320154840,0.6875,-0.3125,-0.25
1480626320176398,0.25,-0.25,0.0625
1480626320192441,-0.25,-0.125,0.25
1480626320222521,-0.4375,-0.0625,0.3125
1480626320237561,-0.6875,0.3125,0.4375
1480626320253103,-0.75,0.0625,0.375
1480626320290703,-0.3125,0.0625,0.0625
1480626320312763,-0.125,-0.25,-0.4375
1480626320317275,0.9375,-0.25,-0.4375
1480626320341337,0.5625,-0.375,-0.1875
1480626320372420,-0.125,-0.4375,0.0625
1480626320377433,-0.125,-0.125,0
1480626320395482,0.125,-0.1875,0.0625
1480626320418041,-0.0625,-0.0625,0.125
1480626320437595,0.5625,0.125,-0.125
1480626320455140,0.125,0.0625,0.0625
1480626320483716,0.6875,0,0.25
1480626320497252,0.4375,0.0625,0.625
1480626320515801,0.375,-0.1875,0.375
1480626320537860,1.25,0,0.125
1480626320558915,1,-0.1875,0
1480626320587492,0.5625,-0.3125,-0.0625
1480626320597520,0.75,0.0625,0
1480626320617572,0.5625,0.0625,-0.125
1480626320647150,0.3125,0,0
1480626320657678,-0.3125,0.1875,0.0625
1480626320677230,-0.0625,0.125,0.625
1480626320699790,0.125,0.125,0
1480626320717839,0.9375,0.3125,0
1480626320737390,0,0.1875,0.125
1480626320759951,-1,-0.1875,-0.0625
1480626320777497,0.3125,0.1875,0
1480626320804569,0.5625,-0.125,0.3125
1480626320815097,-0.1875,-0.125,0.25
1480626320837659,0,0.0625,0.25
1480626320857209,0.0625,0.25,0.125
1480626320875759,0.0625,0.125,0.25
1480626320902330,0.3125,0.125,0.125
1480626320917373,-0.5,0.0625,0.1875
1480626320935419,-0.3125,-0.125,-0.0625
1480626320957475,0.4375,-0.0625,0
1480626320977028,0,0.0625,0.1875
1480626320995076,0,0.125,0
1480626321022148,-0.1875,-0.0625,0
1480626321038692,0.6875,-0.125,0
1480626321055738,0.0625,0,0.125
1480626321092336,0.25,0.0625,0.1875
1480626321097850,0.25,0,0
1480626321114393,0.5625,-0.1875,-0.125
1480626321137455,0.9375,-0.125,0
1480626321165529,1.25,-0.125,0
1480626321174554,1.1875,-0.1875,-0.3125
1480626321196612,0.75,-0.3125,-0.25
1480626321218172,0.625,-0.3125,0.25
1480626321235216,0.8125,-0.125,0
1480626321256772,0.9375,0.125,-0.0625
1480626321279332,0.1875,0,0.125
1480626321294874,0.0625,-0.0625,0.25
1480626321316934,-0.375,-0.125,0.3125
1480626321339493,0.3125,0.0625,0.25
1480626321362052,0.125,0,0.0625
1480626321377092,-0.5625,-0.25,-0.125
1480626321400656,-0.1875,-0.125,-0.375
1480626321413689,0.4375,-0.125,-0.125
1480626321437255,-0.1875,-0.375,0.0625
1480626321459311,-0.5625,-0.25,-0.125
1480626321480368,0.75,0,0.0625
1480626321497914,0.875,0,0.0625
1480626321519973,0.25,0,-0.125
1480626321533511,-0.3125,0.0625,-0.1875
1480626321557071,-0.375,0,-0.1875
1480626321595172,0.0625,-0.0625,-0.1875
1480626321597178,0.375,0,0
1480626321624250,1.0625,0,0.3125
1480626321647311,0.4375,0.0625,0.375
1480626321660346,0.3125,0,-0.0625
1480626321677392,0,-0.125,-0.125
1480626321699450,0.5,0.0625,0
1480626321722010,-0.625,0,0.0625
1480626321743066,-0.4375,0.4375,0
1480626321759611,0.3125,0.3125,0.125
1480626321780165,2.125,-0.1875,-1.0625
1480626321804733,2.875,0.0625,-1.9375
1480626321819268,1.25,-0.0625,-0.8125
1480626321840325,0.125,-0.625,-0.875
1480626321871407,0.8125,-0.5,-1
1480626321879428,-0.1875,0.5625,-0.3125
1480626321901990,-1.6875,0,1.4375
1480626321934074,1.1875,-1.5,1.125
1480626321940090,3.8125,-2.125,-0.375
1480626321961649,6,-1.3125,-0.75
1480626321976687,-0.0625,-1.0625,0.75
1480626321999248,-4.875,0,2.9375
1480626322020303,0.3125,-0.0625,0.25
1480626322036850,-0.6875,0.25,0.375
1480626322059407,-0.5625,-0.8125,-0.5625
1480626322087985,0.1875,-0.5,-0.875
1480626322098010,0.1875,-0.625,0.3125
1480626322119567,-0.9375,-0.125,0.125
1480626322148143,-0.3125,-0.125,0.25
1480626322156666,-1.4375,0.25,0.25
1480626322180730,-1.8125,0.1875,-0.1875
1480626322201787,-1.875,-0.1875,0.0625
1480626322224346,-1.25,-0.3125,-0.1875
1480626322239388,0.5,-0.125,-0.1875
1480626322261947,-1.1875,0.25,0.4375
1480626322276485,-1.875,0.0625,-0.3125
1480626322300049,-0.9375,0,-0.1875
1480626322322608,-1.625,0.375,-0.125
1480626322336645,-0.625,0.125,-0.4375
1480626322359205,-0.8125,-0.1875,0.25
1480626322381766,0.4375,0.75,0.6875
1480626322396805,-2.25,0.375,1.0625
1480626322434407,0.625,-1.25,-0.125
1480626322458470,3.375,0.25,0.5625
1480626322470505,-1.125,0.125,0.8125
1480626322487045,-2.6875,0,1
1480626322502085,-0.125,0.9375,0.375
1480626322516122,-0.25,0.875,0.375
1480626322539184,-0.5,0.75,-0.3125
1480626322561744,0.75,0.75,-2.125
1480626322584307,-1.875,1.0625,-3.3125
1480626322599344,-2.625,0.625,-1.3125
1480626322622405,-2.0625,0.9375,0.5625
1480626322642961,-1.3125,0.9375,0.6875
1480626322659504,-1.0625,1.1875,-0.125
1480626322682064,-1.625,0.0625,0.25
1480626322696102,0.4375,0,-0.125
1480626322734203,0.4375,-0.375,0.5
1480626322741723,0.4375,-0.375,0.8125
1480626322762779,1.875,0,0.9375
1480626322793359,1.1875,0,0.625
1480626322809403,-1.0625,-0.5,0.875
1480626322822939,2,-0.875,-0.375
1480626322839485,2.9375,-1.125,0.125
1480626322862043,1.4375,-1,0.875
1480626322883099,-0.1875,-0.375,0.6875
1480626322899643,-0.125,-0.3125,0.4375
1480626322921701,-1,-0.375,-0.0625
1480626322950279,-0.0625,-0.5625,0.625
1480626322959803,-2.25,-1,3.25
1480626322981861,0.5625,0,1.25
1480626323004423,-0.3125,0.875,0.4375
1480626323034502,-3.75,0.25,0.1875
1480626323042022,-3.4375,0.1875,-1.125
1480626323063078,-0.125,-0.5625,-1.1875
1480626323079622,2.625,-0.6875,-1.25
1480626323109703,3.6875,-0.75,-1.0625
1480626323122736,1.9375,-0.625,-0.125
1480626323139282,0.3125,-0.5625,0.375
1480626323161842,0.4375,-0.9375,0.5
1480626323199942,1.9375,-0.5,0
1480626323202451,2.375,-0.1875,0.375
1480626323222000,1.9375,-0.625,0.125
1480626323260603,0.375,-0.4375,-0.5625
1480626323265618,0.375,-0.5,-0.0625
1480626323283163,0.4375,-0.5625,-0.25
1480626323304219,-0.5,-0.8125,-0.0625
1480626323319259,2.0625,-0.625,-1
1480626323341819,3.3125,0.0625,-0.625
1480626323364380,-3.3125,1.4375,-2.75
1480626323386939,-6.8125,-0.4375,-0.1875
1480626323401979,2.4375,1.25,1.0625
1480626323425040,-0.875,1.9375,-1.5
1480626323438577,-0.5,-1.0625,-0.9375
1480626323485202,5.1875,-0.375,-0.625
1480626323487206,3.9375,1.25,-0.0625
1480626323508262,-3.75,0.625,0.9375
1480626323521798,-2.25,0,1.125
1480626323544358,3.25,0.5,-0.6875
1480626323565415,3.1875,0,-0.625
1480626323582459,-0.4375,-0.6875,0.1875
1480626323610535,1.4375,-0.3125,0.75
1480626323618557,2.0625,0.125,0.8125
1480626323642118,0.75,0.125,0.3125
1480626323664678,0,-0.125,-0.25
1480626323678716,0.125,-0.375,-0.1875
1480626323701777,1,-0.125,-0.1875
1480626323724337,1.375,0.0625,0.375
1480626323752913,0.8125,-0.5,0.4375
1480626323761937,0.75,-0.875,0.625
1480626323784501,3.5,-1.875,1.1875
1480626323814577,3.1875,-2,1
1480626323822598,5,-0.4375,-1.8125
1480626323844156,0.5625,-0.0625,-2.5
1480626323865211,0,0.375,1.125
1480626323882760,-1.4375,1.75,3.1875
1480626323910331,-1.3125,2.4375,0
1480626323925371,-3.4375,0.6875,-1
1480626323941916,2.3125,-0.25,-3.125
1480626323964477,3.375,1.375,-9.8125
1480626323985534,2,-2.25,1.5
1480626324001575,4.9375,-1.3125,0
1480626324025138,5.9375,-1.3125,-0.25
1480626324052710,1.25,-1.375,-0.5625
1480626324063740,0.25,-1.5,0.25
1480626324084297,0.5,-0.4375,1
1480626324105351,-1.25,0.75,-1.0625
1480626324122396,-0.8125,1.1875,-0.25
1480626324144455,-2.75,1.25,0.75
1480626324167015,-3.125,0.125,0.125
1480626324195590,-1.5,0.25,-0.5625
1480626324205116,-0.5,0.5,0.25
1480626324227676,0.25,-0.0625,0.0625
1480626324241715,0.4375,0.3125,0.3125
1480626324264273,-0.125,-0.4375,0.3125
1480626324286833,2.3125,0.1875,1.75
1480626324316913,2.0625,0.3125,0.25
1480626324339473,0.3125,-0.25,0.5
1480626324346993,-0.6875,-0.1875,0.375
1480626324368051,1.1875,-0.3125,-0.375
1480626324384609,1.4375,-0.4375,-0.5
1480626324414172,-0.375,-0.9375,-0.0625
1480626324422194,-0.75,-0.75,-0.1875
1480626324444253,1.1875,-0.125,-0.125
1480626324466812,0.375,0.625,-0.4375
1480626324481352,-2.0625,0.4375,0.75
1480626324504417,-2.1875,0.3125,0.875
1480626324534497,-2.6875,0,0.5
1480626324541009,-2.625,-0.125,-0.5
1480626324564572,-1.5,-0.4375,-0.6875
1480626324594652,-2.5,-0.625,-0.9375
1480626324607687,-2.6875,-0.9375,-1.1875
1480626324624231,-1.4375,-0.875,-1.0625
1480626324646791,-3.125,-0.9375,-0.25
1480626324667847,-3.5,-0.5625,0
1480626324691911,-3.1875,0.0625,0.4375
1480626324706953,-2.5,0.75,0.6875
1480626324728007,-2.5625,1.25,0.875
1480626324752071,-3.1875,1.75,0.8125
1480626324774631,-4.3125,1.8125,0.5
1480626324788669,-2.6875,1.5,0.75
1480626324811730,-2.8125,1.3125,1.25
1480626324843314,-2.75,1.5,1.25
1480626324855346,-3.4375,1.5625,1.125
1480626324873394,-3.9375,0.6875,1.125
1480626324887932,-3.25,0.25,0.75
1480626324907988,-1.625,-0.375,0.3125
1480626324924530,-0.625,-1.125,0.0625
1480626324946588,0.625,-1.375,-0.9375
1480626324970158,0.875,-1.6875,-1.25
1480626324985194,2.25,-2,-1.125
1480626325007752,2.5,-2,-1.0625
1480626325027806,3.0625,-2.375,-0.875
1480626325068413,3.375,-2.4375,-0.3125
1480626325080946,6.9375,-5.4375,0.25
1480626325087964,6.0625,-0.4375,-0.6875
1480626325110525,-0.9375,-0.125,-3.5
1480626325127069,-5.1875,0,-1.0625
1480626325149629,-1.5625,0.4375,0.5625
1480626325164668,0.3125,0.5625,1.75
1480626325186727,2.1875,0.875,2.0625
1480626325209287,-0.4375,0.625,1.3125
1480626325224328,-1.6875,-0.4375,1.25
1480626325254407,-0.375,-0.25,0.875
1480626325275966,0.6875,-0.375,0
1480626325290503,0.875,-0.125,-0.0625
1480626325313565,-0.6875,-0.25,0.375
1480626325344146,-0.4375,-0.125,0.375
1480626325346653,0.8125,0.125,0.125
1480626325366706,0.1875,0,0.0625
1480626325396786,-0.625,-0.125,0.125
1480626325419346,-0.4375,-0.125,0.375
1480626325426866,0.8125,0.0625,0
1480626325449928,1,-0.125,0.5625
1480626325463464,0.375,0.0625,0.75
1480626325487029,0.3125,0.125,0.4375
1480626325509586,-0.3125,0.0625,0.375
1480626325524126,-0.125,-0.3125,-0.0625
1480626325547689,-0.125,-0.25,-0.25
1480626325569249,0.0625,-0.25,-0.5625
1480626325590301,0,-0.1875,-0.125
1480626325621885,-0.0625,-0.0625,0.0625
1480626325630408,0.25,0.0625,0.3125
1480626325650462,0.4375,0.125,0.3125
1480626325667007,-0.1875,0,0.1875
1480626325689564,0.125,0,-0.0625
1480626325710120,0.8125,-0.0625,-0.125
1480626325726664,0.125,-0.0625,0.0625
1480626325749224,0.0625,0.0625,0.1875
1480626325770280,0.25,0.25,0.1875
1480626325786824,-0.8125,-0.0625,0.1875
1480626325809885,0.0625,-0.125,-0.0625
1480626325830440,1,-0.125,-0.0625
1480626325846985,0.75,-0.3125,-0.25
1480626325869544,-0.3125,-0.4375,0
1480626325899626,-0.1875,-0.125,0.0625
1480626325921683,-0.0625,0,0.125
1480626325929706,-0.0625,0.0625,0.25
1480626325950259,-0.5625,0.0625,0.1875
1480626325966804,-0.875,0.0625,-0.125
1480626325989865,-0.125,0.0625,0
1480626326010418,-0.625,0,0.3125
1480626326026963,-0.4375,0.125,-0.125
1480626326049524,-1.0625,-0.1875,-0.375
1480626326080104,-1.3125,-0.125,-0.1875
1480626326088125,-0.875,0,-0.1875
1480626326116705,-1.1875,-0.0625,0.0625
1480626326131742,-1.8125,0.0625,0.375
1480626326146781,-1.3125,-0.1875,0.25
1480626326169345,-0.25,-0.3125,0.1875
1480626326191902,-0.1875,-0.3125,-0.3125
1480626326207443,0,-0.25,-0.625
1480626326230003,-0.0625,-0.1875,-0.4375
1480626326251562,-1.0625,-0.0625,0.1875
1480626326274120,-0.5625,-0.25,0.25
1480626326289160,0.875,-0.1875,0
1480626326312222,0.9375,-0.25,-0.375
1480626326326259,0.1875,-0.4375,-0.4375
1480626326350324,-0.75,-0.375,-0.0625
1480626326371880,-0.0625,0.125,-0.0625
1480626326392937,-0.375,0.0625,0.1875
1480626326415499,-0.75,0.0625,0.3125
1480626326446077,-0.5625,0.125,0.1875
1480626326455603,-0.75,0.0625,0.0625
1480626326475155,-0.4375,0,0
1480626326491698,-0.25,-0.1875,0.125
1480626326506237,-0.3125,-0.3125,-0.25
1480626326529800,-0.125,-0.25,-0.125
1480626326557875,-0.125,0.0625,0.0625
1480626326572917,-0.75,0.0625,0.1875
1480626326589459,-0.6875,0.1875,0.25
1480626326612019,-0.8125,0.125,0.1875
1480626326650121,-0.25,0.125,-0.0625
1480626326652126,-0.3125,-0.0625,0.0625
1480626326672683,-0.6875,-0.25,-0.125
1480626326700760,-0.25,-0.375,-0.375
1480626326716798,0,-0.3125,-0.375
1480626326732840,-0.375,-0.125,0.0625
1480626326752894,-0.8125,-0.0625,0.4375
1480626326769440,-0.625,-0.25,0.1875
1480626326791998,0.25,0.25,0.375
1480626326813054,-0.9375,0.25,0.125
1480626326829598,-0.625,0.125,0.125
1480626326859177,-0.625,0.3125,0.125
1480626326872712,-0.5,0.375,0.375
1480626326896776,0.375,0.25,0.9375
1480626326917833,0.75,-0.0625,1.25
1480626326940392,1,-0.375,1.5
1480626326950925,1.125,-0.25,1.4375
1480626326971476,1,-0.3125,-0.125
1480626326994036,1.25,-0.125,-0.1875
1480626327016596,-0.125,-0.3125,-0.125
1480626327031638,0.375,-0.1875,-0.3125
1480626327054196,-0.1875,-0.0625,-0.1875
1480626327069241,-0.5625,0.1875,0
1480626327091795,-0.125,0.4375,0
1480626327114356,-0.6875,0.125,0.1875
1480626327129396,-0.625,0.125,0.1875
1480626327151955,-0.3125,0.0625,0.25
1480626327174516,0.1875,0.1875,0.5
1480626327204596,-1,0,0.5625
1480626327211614,-0.125,0.0625,0.3125
1480626327234677,0,-0.0625,0.375
1480626327255230,0.25,0.25,-0.0625
1480626327272276,-0.375,0.125,-0.3125
1480626327294334,0.0625,-0.0625,-0.1875
1480626327308873,-0.125,-0.1875,-0.0625
1480626327339454,0.25,-0.25,-0.25
1480626327354495,1,0.1875,-0.125
1480626327368532,-0.8125,0,0.25
1480626327392095,-0.875,-0.125,0.25
1480626327414154,-0.0625,0.0625,0.375
1480626327428692,1.25,0,0.4375
1480626327452756,0.4375,0,0.125
1480626327474313,0.1875,-0.1875,-0.1875
1480626327488851,-0.3125,-0.25,-0.125
1480626327511913,0.4375,-0.25,-0.4375
1480626327534475,1.3125,-0.125,-0.4375
1480626327555529,0.5,-0.125,0.25
1480626327572073,0.1875,-0.25,0.25
1480626327594634,0.1875,0.25,0.125
1480626327616692,-0.0625,0.0625,-0.1875
1480626327631732,-0.4375,0.1875,0.0625
1480626327654793,0.25,0.3125,0.125
1480626327675347,0.5,0.125,0.125
1480626327697909,-0.3125,0.3125,0.5625
1480626327721972,0.125,-0.0625,0.875
1480626327752553,0.9375,0.1875,0.25
1480626327755060,-0.8125,0,-0.5625
1480626327780627,-0.75,-0.625,-0.6875
1480626327795167,0.3125,-0.1875,-0.25
1480626327811711,1.25,0,0.5625
1480626327834274,-0.5625,-0.0625,0.6875
1480626327855326,-0.375,0,0.3125
1480626327871872,0.125,0,0.0625
1480626327894431,0.125,0.0625,0.1875
1480626327915487,0,0.0625,0.1875
1480626327939551,-0.75,0.1875,0.125
1480626327954089,-0.3125,-0.0625,0
1480626327975145,0.625,-0.1875,-0.3125
1480626327991690,0.4375,0.0625,-0.125
1480626328029289,-0.8125,0.125,0.125
1480626328036811,-0.4375,0.125,0.3125
1480626328051850,0.5625,-0.125,0.5
1480626328089449,0.875,-0.3125,0.3125
1480626328104490,0.9375,-0.25,0.125
1480626328113513,1.125,0.0625,-0.4375
1480626328135072,-0.4375,-0.0625,-0.875
1480626328156628,-0.1875,-0.3125,-0.375
1480626328171167,0.8125,0.3125,0.375
1480626328194228,0.6875,0.4375,0.875
1480626328222804,-0.3125,0.25,0.875
1480626328231327,-0.125,0.0625,0.3125
1480626328254389,-0.25,0.125,-0.3125
1480626328277951,-0.875,-0.25,-0.0625
1480626328299510,-0.3125,-0.0625,0.25
1480626328314047,0,-0.125,0.375
1480626328336607,0.6875,-0.25,-0.125
1480626328358165,-0.375,-0.375,-0.25
1480626328389249,-0.0625,-0.25,-0.0625
1480626328397269,-0.875,-0.0625,0
1480626328417830,-0.9375,0.125,0.125
1480626328434369,-0.5,0.1875,0.4375
1480626328456927,-0.1875,-0.0625,0.375
1480626328477983,-0.4375,0.0625,0.5
1480626328494527,0.3125,-0.125,1.0625
1480626328517093,0.6875,0.3125,0.3125
1480626328538143,-1.6875,0,-0.3125
1480626328555189,-0.8125,-0.25,-0.4375
1480626328578752,-0.625,-0.0625,0.0625
1480626328598304,0.0625,-0.0625,0.125
1480626328614347,-1.3125,0.1875,0.3125
1480626328636906,-0.25,0.0625,0.375
1480626328659466,-0.875,-0.0625,0.125
1480626328675008,-0.4375,-0.25,-0.875
1480626328697568,-0.875,-0.4375,-0.625
1480626328718122,0.375,-0.625,-0.375
1480626328734666,-0.125,-0.25,0
1480626328756724,-0.25,-0.125,-0.25
1480626328777782,-0.8125,-0.1875,-0.125
1480626328794325,-0.6875,-0.0625,0
1480626328817889,0.4375,-0.0625,-0.25
1480626328837942,0.4375,-0.1875,-0.125
1480626328862506,-0.1875,-0.4375,-0.0625
1480626328877546,-0.0625,-0.3125,-0.125
1480626328898101,0.9375,0.0625,-0.0625
1480626328920663,0.75,0.125,-0.4375
1480626328936704,-0.6875,0.25,0
1480626328959766,-0.9375,0.1875,0.4375
1480626328974304,0.625,0,0
1480626328996865,0.25,0.25,-0.1875
1480626329019925,-0.375,0,-0.3125
1480626329047999,0.125,-0.25,-0.375
1480626329057024,1.1875,-0.1875,-0.625
1480626329079584,0.625,-0.0625,0.1875
1480626329093621,0.1875,0.0625,0.3125
1480626329117189,-0.3125,0.1875,0.125
1480626329139746,-0.9375,0.125,-0.1875
1480626329160298,-0.9375,0.125,-0.1875
1480626329182859,0,0.25,-0.25
1480626329199403,-0.75,0.1875,-0.875
1480626329213941,-1.0625,-0.25,-1.0625
1480626329244522,-1,-0.375,-0.6875
1480626329259562,-0.4375,-0.4375,-0.0625
1480626329273600,0.75,0,0
1480626329296661,-0.0625,-0.375,-0.375
1480626329326741,-0.9375,-0.625,-0.125
1480626329340278,-0.0625,-0.25,-0.4375
1480626329356821,0.4375,-0.625,0
1480626329379382,1.5625,-0.5625,0.0625
1480626329393419,2.4375,-0.625,-0.125
1480626329416987,4.5,-0.3125,1.6875
1480626329445557,1.125,0.8125,0
1480626329460095,-1.75,-0.3125,-0.75
1480626329477642,-1.3125,0.3125,-0.4375
1480626329500205,-1.8125,-0.3125,0.3125
1480626329520255,-0.5625,-0.75,0.1875
1480626329536805,4.125,0.375,-0.25
1480626329559861,-3.375,0.25,-1.3125
1480626329580417,-3.6875,0.625,-0.5625
1480626329604480,-2.375,2.5,1.1875
1480626329620022,0.0625,2.125,0.625
1480626329640576,-3.875,1.6875,0.5
1480626329656619,-3.125,-0.125,2.1875
1480626329686698,3.875,-0.3125,2.1875
1480626329700239,4.1875,-0.1875,0.5
1480626329717282,1.875,-1.1875,0
1480626329739840,-0.8125,-2.0625,1.1875
1480626329767915,1.3125,-3.75,2.75
1480626329776939,3.1875,-1.1875,1.875
1480626329805514,2.3125,-0.375,1.5
1480626329820554,-0.125,-0.125,2.125
1480626329836598,1.3125,-1.625,2.625
1480626329859158,1.9375,-1.75,1.875
1480626329881718,3.75,-0.8125,1.25
1480626329896757,1.8125,-0.5,0.5
1480626329919319,-2.1875,-0.0625,-0.5
1480626329941878,-1.9375,0.3125,-0.6875
1480626329964939,1.25,0.25,-0.8125
1480626329979478,0.875,0.125,-1.875
1480626330002039,-0.5625,-0.875,-1.0625
1480626330018080,4.375,-1.375,-0.4375
1480626330053174,10.5,0.125,-1
1480626330061697,5.25,-0.25,-1.0625
1480626330084256,-0.0625,-1.125,-3.0625
1480626330099801,0.5625,-1.125,-3.0625
1480626330122859,4,-0.4375,-0.875
1480626330135894,-4.5625,1.875,-1.875
1480626330167481,-3.25,-3.1875,0.5
1480626330181515,1,-0.9375,-2.375
1480626330196054,0.8125,-0.8125,-2.0625
1480626330219115,-1.8125,-0.6875,-0.5625
1480626330242178,-2.6875,-0.6875,0.125
1480626330256214,-0.75,-0.8125,-0.0625
1480626330279276,1.3125,-1,0
1480626330302338,1.6875,-1.5625,0.0625
1480626330324395,3,-1.1875,-0.375
1480626330339437,3.75,-0.625,-0.625
1480626330361995,1.875,-0.3125,0.1875
1480626330383055,-0.25,0.125,0.125
1480626330399095,-0.75,0.75,0
1480626330422657,-0.4375,1.25,-0.3125
1480626330442710,-0.6875,1.3125,-0.6875
1480626330460258,-1.1875,1.3125,-0.8125
1480626330481815,-1.5,1.3125,-1
1480626330502871,-0.0625,1.1875,-1.0625
1480626330519915,0.1875,0.75,-1.3125
1480626330541975,-1.1875,0.4375,-1.0625
1480626330570550,0.25,0.375,-0.6875
1480626330580076,1.25,0.25,-0.4375
1480626330609655,2.75,0.5,-0.375
1480626330630210,2.75,0,0.125
1480626330639234,1.25,-0.3125,-0.1875
1480626330661793,1.6875,-0.1875,-0.5625
1480626330690368,1.625,-0.4375,-0.25
1480626330700396,1.25,-0.5625,0.3125
1480626330722454,2.3125,-0.5,0.25
1480626330743011,2,-0.5,0.625
1480626330759553,1.625,-0.1875,0.5
1480626330782615,-0.1875,-0.375,0.4375
1480626330802668,0.4375,-0.5,0.3125
1480626330826731,1.8125,-1.125,0.5625
1480626330841772,3.0625,-1.5,0.375
1480626330864332,4.4375,-1.125,0.1875
1480626330879874,2.6875,-0.8125,-0.25
1480626330903940,0.5625,-0.625,-0.125
1480626330924493,-0.125,-0.6875,-0.3125
1480626330939532,0.625,-1.3125,-0.5625
1480626330961591,1.4375,-0.625,-1.125
1480626331000695,-2.125,-0.5625,-0.875
1480626331005207,-3.3125,-0.4375,0.25
1480626331028770,-3,-0.0625,1.1875
1480626331044310,-0.25,0.3125,1.1875
1480626331058849,-0.375,0.0625,0.8125
1480626331081912,0.125,-0.5625,0.75
1480626331104472,1.25,-0.875,-0.125
1480626331118508,2.5625,-0.75,-0.5625
1480626331142071,3,-0.3125,0
1480626331164130,0.375,0.3125,0.5625
1480626331186189,-1.375,-0.0625,0.875
1480626331201730,-1,0.125,1.1875
1480626331224791,-0.3125,-0.125,0.625
1480626331238829,-0.4375,-0.3125,0.125
1480626331269410,-1.125,-0.4375,0.1875
1480626331284450,-1.125,-0.25,0
1480626331305506,-1.5625,0,-0.25
1480626331329570,-1.4375,0.1875,0.0625
1480626331351628,-1.75,-0.1875,0.1875
1480626331366168,-0.6875,0.125,0.0625
1480626331381709,0.1875,0.1875,-0.0625
1480626331404269,-0.25,-0.0625,0.0625
1480626331425826,-0.75,-0.125,0.0625
1480626331441870,-0.5625,0,0.125
1480626331464428,-0.5625,-0.1875,0
1480626331485485,-0.125,-0.125,0
1480626331502530,-0.1875,0,0.1875
1480626331524589,-0.5,0,0.125
1480626331546647,-1.3125,0.0625,0.25
1480626331561687,-0.6875,0.0625,0.375
1480626331584250,-1.0625,0.1875,0
1480626331606807,-0.4375,-0.125,-0.1875
1480626331636888,-0.0625,-0.3125,0.0625
1480626331644407,0.3125,-0.3125,-0.25
1480626331665967,1.25,-0.0625,0
1480626331682008,-0.3125,0.1875,-0.0625
1480626331711586,-1.1875,-0.0625,-0.0625
1480626331725122,-1.125,0.1875,-0.1875
1480626331742167,-1.25,0,-0.25
1480626331764226,-0.625,0.0625,-0.25
1480626331787789,-0.0625,-0.0625,-0.125
1480626331801826,-0.9375,-0.0625,-0.0625
1480626331825890,-0.6875,-0.0625,-0.0625
1480626331846444,0.125,-0.375,-0.125
1480626331861986,1,-0.125,-0.25
1480626331892065,0.4375,-0.1875,-0.25
1480626331914124,0.125,0.1875,-0.125
1480626331921645,0.375,-0.0625,-0.0625
1480626331944205,-0.1875,-0.125,-0.0625
1480626331966765,-0.0625,0.0625,0.1875
1480626331989826,-0.125,0.0625,0.3125
1480626332005368,0.25,0.0625,0.25
1480626332026925,0.0625,-0.125,0.1875
1480626332040962,-0.5625,-0.3125,-0.1875
1480626332070541,0,-0.125,-0.125
1480626332086583,-0.5,-0.1875,0
1480626332101624,-0.5625,-0.25,0.1875
1480626332139223,-0.4375,-0.0625,0.0625
1480626332147245,-0.3125,0,0.1875
1480626332170808,-0.75,0.0625,0
1480626332191362,-0.5625,0.0625,0.375
1480626332222946,-0.625,0.1875,0.3125
1480626332227960,0,0.125,0.3125
1480626332244503,-0.25,0.3125,0.25
1480626332267064,0,0.0625,0
1480626332288119,0.3125,0.0625,-0.0625
1480626332304668,0.25,-0.1875,-0.125
1480626332326723,1.1875,0.0625,-0.125
1480626332349283,0.375,0.1875,-0.25
1480626332364322,-0.125,0.3125,-0.0625
1480626332386883,-0.625,0.6875,0.3125
1480626332409443,-0.875,0.5625,0.75
1480626332424983,-0.375,0.5,0.5
1480626332447042,0.625,0.25,0.25
1480626332477625,1.0625,-0.125,0.1875
1480626332498179,1.5,-0.3125,-0.25
1480626332506700,0.625,-0.1875,-0.25
1480626332527758,0.0625,-0.1875,-0.25
1480626332544802,0.1875,0.1875,-0.0625
1480626332567865,0.1875,0,0.0625
1480626332594937,0.625,0,0
1480626332606968,0.1875,0.125,-0.125
1480626332627021,0.9375,0.125,-0.0625
1480626332655597,0.8125,-0.125,0.0625
1480626332664120,1.125,0.0625,0.125
1480626332694200,0.75,0.0625,0.1875
1480626332724781,0.375,0,0.125
1480626332727288,0.5625,0.1875,-0.0625
1480626332752868,-0.375,0.1875,0.25
1480626332776920,-0.625,0.1875,0.1875
1480626332784441,0.5,0.125,0.0625
1480626332807001,-0.125,-0.1875,-0.125
1480626332829058,0.375,0,-0.3125
1480626332845102,0.375,0.125,-0.25
1480626332866661,-0.1875,-0.125,-0.0625
1480626332889219,-0.125,-0.125,0.0625
1480626332903757,0.5625,-0.0625,-0.25
1480626332934841,0.75,0.125,-0.1875
1480626332949384,0.3125,0,0.0625
1480626332971941,-0.125,0.125,-0.125
1480626333000515,0.0625,0.25,-0.1875
1480626333033102,0.875,0,-0.25
1480626333037613,0.625,0,-0.125
1480626333052653,-0.0625,0,-0.25
1480626333076718,0.125,0.0625,0
1480626333083738,0.125,0,0
1480626333106798,0.5,-0.0625,-0.25
1480626333136878,0.8125,-0.0625,-0.125
1480626333143896,0.75,-0.0625,-0.0625
1480626333166958,1,-0.125,-0.3125
1480626333189518,1.4375,0.1875,-0.1875
1480626333211576,1.3125,0,-0.3125
1480626333227118,1.1875,-0.0625,-0.25
1480626333249177,0.0625,0.1875,0.125
1480626333272739,-0.0625,0.375,0.25
1480626333294297,-0.3125,0.375,0.125
1480626333309838,-0.125,0.3125,-0.0625
1480626333330392,0.0625,0,0.0625
1480626333354456,-0.0625,-0.0625,-0.25
1480626333377518,-0.25,0.125,-0.3125
1480626333390553,-0.25,0.0625,-0.0625
1480626333406598,0.125,-0.0625,-0.125
1480626333429656,0.25,-0.1875,-0.3125
1480626333457731,0.875,0,-0.25
1480626333466755,0.9375,-0.25,-0.0625
1480626333495331,1.0625,-0.25,0.1875
1480626333510371,1.1875,-0.0625,0.3125
1480626333527417,0.875,-0.1875,0.5
1480626333549479,1.25,-0.3125,-0.0625
1480626333572036,1.5625,-0.9375,-0.625
1480626333587075,2.5,-1.5,-0.625
1480626333609134,3.625,0.125,-0.75
1480626333630191,-2.5,1.125,-0.25
1480626333661774,-4.75,0.1875,0.5
1480626333669796,-2.125,0.5625,0.6875
1480626333691854,2.25,0.25,0.625
1480626333706894,1.4375,0.25,0.5
1480626333729955,-0.4375,0.1875,0.5
1480626333752014,-1.125,0,1.125
1480626333774575,-1.375,0,0.8125
1480626333804153,0.5,-0.3125,-0.4375
1480626333827214,2.8125,-0.25,-0.8125
1480626333834736,1.375,-0.1875,-0.6875
1480626333857294,-0.1875,-0.5,-0.75
1480626333872335,0,-0.125,0.0625
1480626333885870,0.1875,-0.0625,-0.0625
1480626333909934,-0.375,0.0625,0.1875
1480626333932504,-0.3125,0.125,0.125
1480626333946031,0.375,0.25,-0.0625
1480626333969092,-0.25,0.125,0.1875
1480626333991651,-0.5625,0.0625,-0.125
1480626334020227,-0.25,-0.25,-0.25
1480626334030755,1.3125,-0.625,-0.625
1480626334051811,1.1875,-0.0625,-0.5625
1480626334080389,0.5,-0.125,-0.25
1480626334089412,-1.1875,-0.1875,0
1480626334111972,-0.1875,0.1875,0.0625
1480626334126511,-0.5,-0.0625,0.0625
1480626334155587,-0.3125,0.1875,0
1480626334171633,-0.4375,-0.0625,-0.125
1480626334193188,0.9375,-0.125,-0.3125
1480626334209732,0.9375,-0.0625,-0.25
1480626334232796,0.125,-0.3125,-0.25
1480626334252847,0,-0.0625,-0.0625
1480626334268890,0.5625,0.0625,0
1480626334306490,0.125,-0.1875,0.625
1480626334330052,2.1875,-0.8125,1.5
1480626334332561,2.25,0.6875,-0.5625
1480626334351609,-3.9375,-0.4375,-0.875
1480626334380687,-0.875,-1,-0.25
1480626334389211,2.5625,-0.25,-0.0625
1480626334411770,2,0.25,-0.125
1480626334432825,-2.375,-0.25,0.3125
1480626334455385,-0.5625,0.1875,0.25
1480626334471930,0.75,0.5,-0.0625
1480626334494992,-1.6875,0.1875,0.375
1480626334509529,-1,1,-0.125
1480626334531588,-3.4375,0.9375,0.3125
1480626334553145,-2.3125,0.375,0.0625
1480626334576207,-1.25,0.625,0.3125
1480626334607791,0.125,0.3125,0.25
1480626334614810,0.0625,0.1875,0.25
1480626334629348,0.3125,-0.3125,0
1480626334651909,1.6875,-0.25,-0.3125
1480626334681989,0.625,-0.3125,-0.0625
1480626334690009,0.1875,-0.0625,0.125
1480626334712068,-0.25,0.125,0.125
1480626334741647,-0.4375,0,0.0625
1480626334749168,-0.375,0,0.3125
1480626334771727,0.375,0.0625,0.25
1480626334801807,-0.25,0.3125,0
1480626334808826,-0.25,0,0
1480626334832391,0.5,-0.125,-0.0625
1480626334862468,0.125,-0.5,-0.125
1480626334884527,1.125,-1,-0.1875
1480626334891546,2.625,-1.125,0.0625
1480626334915109,3.9375,-0.9375,0.0625
1480626334935162,2.1875,0.375,-2
1480626334959226,-4.6875,-0.875,-1.5
1480626334974266,-0.25,-1.25,-0.125
1480626334988807,3.8125,-0.375,-0.0625
1480626335011867,4.375,0.0625,0
1480626335034927,-0.5625,0.3125,0.9375
1480626335056986,-1.8125,0.375,1.0625
1480626335071525,-0.5,1.1875,0.625
1480626335109125,-0.1875,0.875,0.75
1480626335112635,0.4375,0.5625,-0.1875
1480626335132687,1,-0.125,-0.25
1480626335154244,1.5,-0.25,0.1875
1480626335175300,1.8125,-0.3125,-0.0625
1480626335191845,0.6875,-0.375,-0.125
1480626335214405,-0.6875,-0.25,-0.25
1480626335236966,-0.375,-0.25,-0.125
1480626335258020,-0.625,0.1875,0.0625
1480626335274063,-0.9375,0.0625,0.0625
1480626335295119,-1.25,-0.0625,0.3125
1480626335302640,-0.25,-0.375,-0.1875
1480626335317178,0.375,-0.625,-0.3125
1480626335347257,1.4375,-0.5625,-0.1875
1480626335362298,1.25,-0.375,-0.125
1480626335378843,-0.375,-0.3125,0.25
1480626335407418,-0.1875,-0.4375,0.5
1480626335422458,2.1875,-0.1875,1.0625
1480626335437076,1.1875,-0.3125,-0.1875
1480626335459557,-3.1875,0.1875,-2.625
1480626335482118,-1.5625,1.3125,0.8125
1480626335497157,-2.3125,1.8125,2.25
1480626335519718,-2.0625,2,1.1875
1480626335542276,-1.125,0.75,1
1480626335558820,1.4375,-0.1875,-0.5625
1480626335579877,3.1875,-1.3125,-0.9375
1480626335612464,3,-0.8125,0.375
1480626335624495,1.1875,0,0.4375
1480626335639537,-2.125,0.4375,0.1875
1480626335679141,-2.9375,0.75,0.625
1480626335681648,-2.4375,0.6875,1.4375
1480626335700699,0.6875,0.6875,1.6875
1480626335722255,1.0625,1.1875,1.5
1480626335737296,-1.375,-0.125,2.0625
1480626335759855,2.875,-0.9375,1.25
1480626335799461,4.25,-1,0.5625
1480626335801969,3.1875,-0.875,1.25
1480626335821019,-0.0625,-1.0625,1.375
1480626335842074,-0.5,-1.0625,0.9375
1480626335859120,0.9375,-0.25,0.375
1480626335888698,-0.6875,-0.625,0.5625
1480626335912262,-0.375,-1.4375,1
1480626335917275,0.1875,-1.75,0.375
1480626335939835,1.3125,-1.5625,-0.0625
1480626335962394,1.75,-1.9375,-0.75
1480626335978437,2.875,-2,-1.4375
1480626336007014,3.875,-1.5,-0.625
1480626336023557,2.25,-1.4375,-0.875
1480626336038597,2.0625,-1.125,-1.625
1480626336059653,1.5,-0.125,-1.0625
1480626336082217,-0.9375,0.0625,-0.25
1480626336098761,-0.375,-0.1875,0.5625
1480626336135856,0.875,-0.5625,-0.9375
1480626336166938,2.125,-0.75,-1.9375
1480626336168944,1.3125,-1.25,-1.5625
1480626336187494,1.75,-1.125,-1.5625
1480626336202034,1.25,-0.5625,-0.625
1480626336218580,1.5625,-0.125,-0.625
1480626336239631,0.125,0.25,-0.8125
1480626336262192,-0.875,0.125,-0.6875
1480626336278736,-0.875,0.0625,-0.3125
1480626336299796,0.75,0.125,-0.4375
1480626336325360,1.625,-0.0625,0.0625
1480626336338395,2.125,-0.125,-0.25
1480626336359450,2,-0.125,-0.75
1480626336383515,1.5,-0.3125,-0.6875
1480626336404571,0.0625,-0.25,0.0625
1480626336427130,-0.1875,0.0625,-0.1875
1480626336443675,0.8125,0.5,-0.25
1480626336460219,0,0.625,0.1875
1480626336479773,-1.8125,0.25,0.4375
1480626336502331,-0.5,0.4375,0.375
1480626336520880,-0.125,0.25,0
1480626336539931,0.0625,-0.1875,-0.125
1480626336561990,0.5625,-0.4375,-0.125
1480626336580039,1.1875,-0.375,-0.125
1480626336603100,0.125,-0.375,-0.1875
1480626336631175,-0.5625,-0.125,-0.375
1480626336646213,-0.5,0,-0.125
1480626336662758,-0.625,0.25,-0.1875
1480626336692838,-1.0625,0.25,0.1875
1480626336708381,-1.375,0.5,0.1875
1480626336720913,-0.875,0.5,0.1875
1480626336742472,-0.5625,0.3125,0.125
1480626336764529,-0.5,-0.25,-0.1875
1480626336787088,-0.4375,-0.375,-0.25
1480626336802630,-0.3125,-0.4375,-0.375
1480626336824688,0.4375,-0.375,-0.375
1480626336839731,0.4375,-0.25,-0.4375
1480626336862288,-1.1875,-0.125,-0.5
1480626336884848,-1.625,-0.125,-0.0625
1480626336915935,-0.875,0.125,0.125
1480626336922449,0.0625,0.5625,0.375
1480626336944507,0.125,0.3125,0.4375
1480626336970076,0.9375,0.1875,0.3125
1480626336983612,0.5,0.3125,0.125
1480626337007175,0.3125,-0.0625,-0.25
1480626337021212,-0.0625,-0.1875,-0.3125
1480626337042267,0.375,-0.1875,-0.25
1480626337064828,0.5625,0,-0.125
1480626337079867,0.875,0.1875,-0.125
1480626337102428,-0.625,0.25,0
1480626337133010,-0.9375,-0.1875,0.125
1480626337141031,2.375,0.4375,0.125
1480626337162086,0.0625,1.25,0.5
1480626337192669,-2.875,0.75,0.5625
1480626337201192,-1.1875,1.0625,1
1480626337246812,-1.25,0.0625,0.75
1480626337249320,0.8125,-0.1875,0.1875
1480626337261350,1.5,-0.125,0.625
1480626337282409,-0.5625,-0.5625,0.4375
1480626337304464,-0.4375,-0.3125,0.5
1480626337321009,-0.8125,0.3125,0.875
1480626337342065,-1.75,0.1875,0.5625
1480626337364631,-1.1875,0.0625,0.3125
1480626337381170,0.5,-0.0625,-0.25
1480626337403730,1.75,0.1875,-1.1875
1480626337424785,-0.25,-0.0625,-0.625
1480626337441329,-1.1875,-0.25,-0.1875
1480626337462386,-0.25,0.125,0.125
1480626337485947,0.375,0.6875,0.125
1480626337510012,-1.4375,0.375,0.25
1480626337522043,-0.8125,0.1875,-0.1875
1480626337544604,0.8125,-0.5,-0.5625
1480626337563153,2.9375,-0.375,-1.75
1480626337582205,2.3125,-0.0625,-1.0625
1480626337604764,1.9375,0.1875,-0.125
1480626337635847,2.5625,1.1875,0.0625
1480626337642364,-0.4375,1.125,0.5
1480626337664925,-3.625,0.4375,0.375
1480626337682976,-1.875,-0.0625,-0.3125
1480626337702524,0.75,-0.0625,-0.6875
1480626337732104,1.25,-0.125,-0.4375
1480626337747142,0.375,0.25,0.125
1480626337762182,-2.5625,0.375,0.6875
1480626337784742,-0.875,0.4375,-0.125
1480626337802791,0.25,0.5625,-0.1875
1480626337829863,1.125,0.125,-0.25
1480626337847410,1.9375,0.1875,0.125
1480626337862449,1.6875,0.0625,0.1875
1480626337889521,1.5625,0.125,0.625
1480626337904562,1.0625,0.3125,1
1480626337922609,0.0625,0.25,1
1480626337943665,0,-0.6875,1.5
1480626337968232,4.375,0.5625,0.3125
1480626337988785,-3.3125,0.5625,-1.75
1480626338002322,-4.25,-0.8125,-0.4375
1480626338032403,-1.8125,-0.625,0.5625
1480626338055463,0.625,-0.0625,0.6875
1480626338063485,-0.9375,-0.0625,0.75
1480626338084540,-3.625,-1.0625,0
1480626338102590,0.25,-1.6875,-1.3125
1480626338124648,2.5625,-1.8125,-0.75
1480626338144700,3.125,-1.6875,-0.5625
1480626338167261,1,-1.6875,-0.6875
1480626338185309,0.8125,-1.4375,-0.5625
1480626338204861,0.75,-0.875,-0.5
1480626338227420,0.5,-1.1875,0.4375
1480626338243463,1.3125,-1.125,1.25
1480626338264519,1.4375,-0.6875,1.5
1480626338296605,2.25,-1.1875,1.125
1480626338303624,1.0625,-1.875,0.9375
1480626338324679,2,-2.4375,0.875
1480626338355761,3.4375,-1.8125,0.125
1480626338371304,4.1875,-1.5625,-0.375
1480626338384839,1.875,-1.125,0.25
1480626338407399,-0.0625,-0.875,0.0625
1480626338424946,-0.25,-0.1875,-0.0625
1480626338445000,-1.3125,0.3125,0.0625
1480626338467058,-1.9375,0.5,-0.1875
1480626338485106,-0.5625,0.625,-0.0625
1480626338504658,-0.875,0.25,0.1875
1480626338527218,-0.125,0.0625,-0.9375
1480626338545266,0.125,0.5,-1.125
1480626338574344,-0.75,0.3125,-1.4375
1480626338587378,-0.5625,0.9375,-1.1875
1480626338604928,-1.75,1.1875,-0.25
1480626338624476,-2.5625,1.625,-0.3125
1480626338656060,-3,1.8125,-0.25
1480626338665085,-2.25,2.3125,-0.25
1480626338687644,-2.625,2.25,-0.75
1480626338707197,-4.4375,-0.375,-0.375
1480626338725244,-1.1875,-3.6875,-1.0625
1480626338744798,16.875,-1.3125,6.1875
1480626338770365,8.25,6,-0.3125
1480626338785405,-10.4375,1.6875,-0.875
1480626338805959,-6.6875,-2,2.0625
1480626338827016,10.4375,-0.8125,-1.875
1480626338845565,10,-1.125,-2.5625
1480626338864616,-3.6875,-2,-0.3125
1480626338887175,-7.9375,-0.3125,2.625
1480626338913245,-4.25,0.3125,4.125
1480626338926279,1.75,-0.3125,-0.25
1480626338947335,4.1875,-1.625,-1.75
1480626338965388,3.9375,-1.9375,-1.3125
1480626338984434,1.75,-1.6875,-1.5
1480626339014514,0.625,-0.5,-0.375
1480626339025042,1.1875,1.125,-0.0625
1480626339046098,-1.8125,1.1875,0.5625
1480626339067154,-2,1.5,1.4375
1480626339085202,-1.1875,1.5,0.5625
1480626339106262,-0.875,0.8125,0
1480626339127314,0.4375,-0.375,-0.25
1480626339144861,1.875,-1.1875,-0.625
1480626339171932,4,-1.3125,-0.875
1480626339186973,3.3125,-1.1875,-0.875
1480626339211038,2.375,-0.75,-0.5625
1480626339232097,0.9375,-0.25,-0.3125
1480626339247134,0.1875,0.125,-0.125
1480626339265186,-0.75,0.5,0.375
1480626339293757,-0.9375,0.25,-0.1875
1480626339309299,0.3125,0.0625,-0.375
1480626339325341,0.8125,-0.3125,-0.25
1480626339351911,2.1875,-0.5625,-0.3125
1480626339366952,3.375,-0.375,-0.25
1480626339385000,1.8125,-0.375,0.25
1480626339407560,1.75,-0.25,0.4375
1480626339428615,1.125,-0.3125,0
1480626339445160,1.5,0,-0.125
1480626339467721,0.3125,0,0.0625
1480626339487272,0.75,0.25,-0.4375
1480626339506323,0.3125,0.375,-0.25
1480626339527881,0.0625,0.1875,-0.25
1480626339547434,1.0625,0.3125,0.0625
1480626339564983,1.9375,0.3125,0.125
1480626339602579,2.125,-0.0625,-0.0625
1480626339608595,1.1875,-0.375,-0.25
1480626339629650,1.1875,-0.5,-0.1875
1480626339647702,0.9375,-0.25,-0.0625
1480626339674771,-0.1875,-0.125,-0.125
1480626339689810,-0.0625,0.1875,0.125
1480626339707861,-0.5,0.5,-0.0625
1480626339727411,-0.3125,0.25,0.0625
1480626339749973,0.625,0.125,0.125
1480626339767518,0.6875,0,0.1875
1480626339787069,0.4375,-0.0625,0.5
1480626339813641,0.9375,-0.0625,-0.0625
1480626339827677,0.6875,-0.25,0.0625
1480626339848737,-0.125,-0.25,0.3125
1480626339869866,-0.1875,-0.0625,0.1875
1480626339894856,0.0625,0.3125,0.25
1480626339909896,-0.8125,0.1875,0.4375
1480626339939977,-1.375,0.0625,0.125
1480626339947497,-0.1875,0.125,-0.25
1480626339968553,-0.625,0.5,-0.1875
1480626339992617,-2.0625,0.4375,0.125
1480626340007657,-2.125,0.5625,0.0625
1480626340034729,-0.9375,0.75,0.0625
1480626340049768,-1.125,0.625,-0.1875
1480626340080350,-2.1875,0.8125,-0.25
1480626340088872,-2.8125,1.1875,0.5
1480626340126973,-2.4375,1.1875,0.5625
1480626340129481,-1.625,1.5,0
1480626340148536,-1.625,1.4375,-0.125
1480626340170591,-2.375,1.1875,0.375
1480626340187637,-2.75,1.1875,0.5
1480626340210195,-1.25,1.5,0.6875
1480626340240276,-1.5625,0.9375,0.6875
1480626340247795,-1.5625,0.125,0.4375
1480626340268851,0.375,0.375,0.1875
1480626340292414,0.0625,0.0625,0.0625
1480626340329014,-0.3125,-0.8125,-0.25
1480626340331536,1.6875,-0.875,-0.4375
1480626340353075,1.1875,-1.25,-0.25
1480626340373630,1,-1.125,-0.6875
1480626340390174,1,-1.0625,-0.4375
1480626340409726,0.8125,-1.1875,-0.1875
1480626340427774,2.625,-1.5,-1.5
1480626340463369,3.0625,-2.5625,-0.5
1480626340469886,6.75,-2.5,0.4375
1480626340493449,6.1875,0.5,-2.9375
1480626340510494,-6.4375,1.1875,-2.5625
1480626340531053,-6.6875,0.3125,1.5625
1480626340547599,0.0625,0.125,1.3125
1480626340570154,6.5,0.75,0.9375
1480626340592713,1.5625,-0.125,1
1480626340607754,-0.75,-0.25,-0.0625
1480626340630314,-1.6875,0.5625,0
1480626340657385,-3.0625,0.25,0.125
1480626340668415,-1.3125,0.375,0.125
1480626340690974,0.75,-0.5,-0.4375
1480626340709523,2.4375,-1.3125,-0.625
1480626340727572,4.1875,-0.9375,-0.3125
1480626340750633,2.5625,-0.4375,-0.25
1480626340771198,-0.25,-0.6875,-0.125
1480626340792245,-0.5625,-0.5,0.1875
1480626340810794,1,0.125,0.25
1480626340829844,0.625,0.25,0.5
1480626340853407,0.25,0.125,1
1480626340869951,0.3125,0.1875,0.4375
1480626340889502,0.1875,0.3125,0.5
1480626340908552,0.625,0.5625,0.1875
1480626340930113,-0.3125,0.75,0.3125
1480626340951167,-1,0.9375,0.3125
1480626340967712,-2,1.0625,0.5625
1480626340994783,-2.3125,0.6875,0.75
1480626341017342,-1.5625,0.3125,0.3125
1480626341027369,0.5,-0.5625,-0.1875
1480626341049929,2.0625,-1.3125,0.5
1480626341072489,5.125,-0.5,1
1480626341087529,0.9375,-0.125,0.375
1480626341116105,-0.9375,-0.5,-0.1875
1480626341132649,-0.5625,0.125,0.0625
1480626341153704,-0.25,0.875,0.1875
1480626341170249,-1.1875,1.0625,0.5
1480626341191306,-1.75,0.5,0.5625
1480626341212863,-1.1875,0.5625,0.1875
1480626341237429,-0.125,0.25,-0.375
1480626341250964,0.375,-0.5625,-0.625
1480626341272021,2.375,-1.3125,-0.1875
1480626341290068,3.3125,-1.125,0.4375
1480626341312633,3.5625,-0.625,0.375
1480626341332182,-0.25,-0.25,-0.1875
1480626341350730,-1.125,-0.1875,-0.625
1480626341372791,-1.375,0.375,-0.1875
1480626341399861,-1.125,0.125,-0.25
1480626341409887,-0.5,0.125,-0.5
1480626341439967,0.875,-0.25,-0.6875
1480626341451999,1.25,-0.875,-0.9375
1480626341470048,2.4375,-0.75,-0.3125
1480626341492607,3,-0.5625,1.6875
1480626341512158,2.375,0.25,1.4375
1480626341530207,0.625,0.25,-0.25
1480626341558783,-1,0.4375,0.5625
1480626341579839,-1.3125,0.5625,1.125
1480626341603904,-1.1875,0.8125,0.75
1480626341627967,-0.125,0.8125,-0.25
1480626341631982,0.4375,0.25,-0.3125
1480626341650026,-0.4375,-0.375,-1.5
1480626341672585,0.0625,-0.8125,-1.5
1480626341699657,1.8125,-0.625,-0.125
1480626341710688,2.375,-0.3125,0
1480626341732746,0.5,-0.1875,-0.8125
1480626341752298,-1.625,-0.4375,-0.8125
1480626341770848,-1.0625,0.25,-0.5
1480626341792405,-1.75,0.8125,-0.25
1480626341811956,-2.0625,1,-0.25
1480626341830006,-0.875,0.875,-0.0625
1480626341852565,0.8125,1.125,-1.3125
1480626341882645,-1.8125,0.5625,-1.875
1480626341914233,-1.4375,-0.875,-0.0625
1480626341935787,3.1875,-0.0625,0.125
1480626341939796,2.1875,-0.9375,-0.625
1480626341957343,2.4375,-1,-0.6875
1480626341979402,1.5625,-0.5,0.125
1480626341999456,0.5,0.3125,0.125
1480626342009983,-1.6875,0.75,0.375
1480626342032543,-1.4375,0.8125,0.25
1480626342060618,-1,0.3125,0.375
1480626342071648,0.125,0,-0.4375
1480626342093205,0.5625,-0.5625,-0.25
1480626342112762,2.625,-1.1875,1
1480626342129301,2.5,-1.1875,0.625
1480626342151861,1.875,-1.1875,0.625
1480626342173920,0.0625,-0.5,1.0625
1480626342188458,-1.6875,0.125,0.75
1480626342213024,-2.375,0.6875,0
1480626342241600,-3,0.6875,0.3125
1480626342262656,-1.8125,0.6875,-0.625
1480626342271682,-0.875,0.4375,-1.375
1480626342294240,-0.3125,-0.25,-1.5
1480626342315297,0.875,-1.375,0.1875
1480626342331840,3.125,-0.8125,1
1480626342354399,1.75,-0.6875,0.0625
1480626342375456,1.3125,-0.375,-0.125
1480626342398017,-2.625,-0.1875,0.5
1480626342414062,-2.875,-0.0625,0.25
1480626342436621,-1.1875,0.625,-0.125
1480626342457674,-1.0625,0.5625,-0.3125
1480626342474218,-0.75,0.1875,-0.6875
1480626342495775,0.125,0,-1.375
1480626342511819,0.625,0,-1.5
1480626342534379,-1.0625,0.25,-0.75
1480626342555434,-2,0.1875,0
1480626342571980,-0.1875,0.1875,-0.25
1480626342594539,0.125,0.0625,-0.25
1480626342615095,-0.5,0.0625,-0.3125
1480626342631637,-2.375,-1.1875,0.0625
1480626342654198,-2.875,-2.3125,1
1480626342675253,2.75,-3,0.3125
1480626342714861,9.5,-2.9375,3.8125
1480626342717365,7.375,3.125,-1.125
1480626342745941,-12.8125,2.0625,0
1480626342751957,-13.375,2.875,2.375
1480626342774018,-3.625,4.3125,2.8125
1480626342795072,1.3125,2.75,3
1480626342811617,2.375,-1.5625,1
1480626342834177,6.5625,-3.125,-1.6875
1480626342855733,6.125,-2.8125,-2.0625
1480626342871776,0.9375,-2.8125,-0.75
1480626342894335,-1.9375,-3.125,1.1875
1480626342915894,0.1875,-1.125,1.0625
1480626342931937,-0.625,1.25,1.6875
1480626342962016,-2.1875,0.6875,2
1480626342993099,1.0625,0.875,2.25
1480626343012651,1.625,0.9375,1.0625
1480626343023680,-0.0625,-0.3125,0.9375
1480626343044235,0.6875,-0.4375,0.75
1480626343051755,2.4375,-1.125,-0.25
1480626343074315,1.125,-1.5,-0.0625
1480626343095371,3.625,-1.5,0.4375
1480626343111915,2,-2.375,0.875
1480626343134475,3.875,-3.9375,-0.125
1480626343157536,6.9375,-3.25,-0.75
1480626343171574,6.125,-2.1875,-1
1480626343194134,1.3125,-1.25,-3.0625
1480626343216693,0.125,0.375,-0.5625
1480626343231733,1.5,2.0625,0.375
1480626343267830,-6,4.625,-0.8125
1480626343292896,-11.5,3.5625,-4.4375
1480626343297911,-8.875,2.875,-5.25
1480626343314456,-4.5625,2,-3.0625
1480626343353057,-1.125,1.1875,-0.875
1480626343358069,0.625,1,0.4375
1480626343374116,-0.4375,0.5625,1.25
1480626343404193,-1.25,-0.5,0.8125
1480626343411212,1.6875,-1.3125,0.375
1480626343434274,3.5,-1.625,-0.3125
1480626343456832,2.75,-2.1875,-0.75
1480626343471374,3.25,-1.8125,-1.0625
1480626343494432,0.8125,-1.4375,-1.3125
1480626343517494,-0.0625,-0.625,-1.3125
1480626343531032,-2.6875,0.25,-0.5625
1480626343569133,-2.6875,0.5625,-0.125
1480626343576651,-2.6875,0.4375,0.125
1480626343591190,-1.5,0.3125,-0.25
1480626343614255,-1.125,-0.1875,-0.1875
1480626343642827,-0.6875,-0.9375,0
1480626343657867,1.25,-0.75,-0.5625
1480626343680431,0.4375,-0.6875,-0.5
1480626343696974,-3,-1.1875,-0.375
1480626343718528,-2.1875,-1.0625,-0.6875
1480626343740086,-1.5625,-0.6875,-0.3125
1480626343764151,-2.25,-0.6875,-0.125
1480626343777686,-2.1875,-0.75,-0.3125
1480626343794230,-1.25,-0.625,-0.125
1480626343816790,0.6875,-0.6875,-0.5
1480626343845366,2.125,-0.6875,-0.4375
1480626343854391,1.75,-0.5,-0.4375
1480626343876951,1,-0.375,-0.125
1480626343898008,0,-0.375,0.3125
1480626343914050,0,-0.5625,1.0625
1480626343936609,0.5625,-0.1875,1
1480626343959672,0.8125,-0.375,-0.4375
1480626343975713,1.625,0,-0.5625
1480626343996771,-0.1875,-0.375,-0.25
1480626344017825,-0.25,-0.625,-0.5
1480626344034369,1,-0.625,0.0625
1480626344063949,1.75,-0.75,-0.25
1480626344077986,1.1875,-0.625,-0.875
1480626344094027,1.1875,-0.25,-0.25
1480626344117090,0.4375,-0.375,0.3125
1480626344139649,1.375,-0.3125,0.1875
1480626344154187,1.625,-0.1875,0.125
1480626344176750,1.75,-0.1875,-0.0625
1480626344206828,1,-0.1875,-0.1875
1480626344214351,0.375,-0.5,-0.25
1480626344237410,0.75,-0.25,-0.25
1480626344259468,0.5625,-0.0625,-0.125
1480626344288044,-0.25,-0.0625,0.0625
1480626344297070,0,-0.0625,0.125
1480626344319127,0.3125,-0.1875,0.3125
1480626344341686,1,-0.25,-0.4375
1480626344356726,0.4375,-0.375,-0.3125
1480626344379287,1.6875,-0.0625,0
1480626344393825,-0.625,0.125,0.1875
1480626344416888,-1,-0.125,0.375
1480626344445462,0.9375,0.25,0.125
1480626344453484,1.1875,0.25,-0.25
1480626344476545,1.1875,0.125,-0.1875
1480626344499105,0.3125,0,-0.25
1480626344513648,0.25,0,0.0625
1480626344544225,-0.3125,0.0625,0.0625
1480626344566787,-0.75,-0.25,0.0625
1480626344573804,-1.9375,-0.5,-0.0625
1480626344597386,-0.8125,-0.3125,0.1875
1480626344626945,-0.5625,0.375,-1
1480626344640482,0.0625,-0.25,-0.125
1480626344656524,3.25,0.1875,0.75
1480626344679085,3.4375,-0.625,-0.5
1480626344700140,3.6875,-0.625,-0.625
1480626344723201,1.3125,0.125,-0.0625
1480626344739245,0.0625,0.25,0.5625
1480626344760300,0.25,0.375,0.4375
1480626344776844,0.9375,0.625,0.25
1480626344799404,0.5625,0.4375,0.5625
1480626344822465,0.375,0.1875,-0.25
1480626344850540,0.75,0.25,-0.0625
1480626344875607,0,0.125,0
1480626344880626,0.375,-0.125,-0.3125
1480626344897168,1.25,0.0625,0.125
1480626344926743,0.75,0.375,-0.0625
1480626344947800,0.25,0,-0.25
1480626344956822,-0.1875,0.0625,-0.25
1480626344986903,0.1875,0.0625,-0.1875
1480626345000440,0.3125,0.3125,-0.125
1480626345017485,-0.375,0.375,0.125
1480626345039043,-0.125,0.5,0.3125
1480626345061602,-0.625,0.375,0
1480626345077644,-0.3125,0.625,0.125
1480626345100206,0.0625,0.5625,-0.125
1480626345121762,0.0625,0.125,-0.0625
1480626345142818,0.1875,0.125,-0.125
1480626345159361,1.25,0.125,-0.25
1480626345181922,1.125,0.25,0
1480626345196965,0.1875,0,0.0625
1480626345234061,0.625,0,0.1875
1480626345241581,0.5,-0.1875,0.375
1480626345256120,0.4375,-0.0625,0.25
1480626345279181,0.8125,0.1875,-0.125
1480626345301741,-0.125,-0.25,-0.125
1480626345322796,0.125,-0.1875,-0.0625
1480626345346862,1.1875,-0.1875,-0.25
1480626345369423,0.8125,-0.8125,0.1875
1480626345375937,1.125,-0.5625,-0.125
1480626345401507,1.375,-0.4375,-0.25
1480626345422060,-0.1875,0,-0.25
1480626345442615,-1.4375,0.4375,0
1480626345459160,-2.125,-0.3125,1
1480626345481721,0,0,-0.25
1480626345504280,-2.0625,0.125,-0.9375
1480626345519320,0.375,0,0.25
1480626345541879,2.4375,0.125,-0.125
1480626345562936,3.25,-0.5,-1.0625
1480626345593015,4.6875,-0.625,-1.25
1480626345601538,0.75,-0.375,-0.4375
1480626345624099,-0.6875,0.1875,0.875
1480626345654178,-0.75,0.6875,1.25
1480626345661700,0.5625,0.5,0.375
1480626345682755,1.0625,0.375,0.3125
1480626345706818,0.8125,0.3125,-0.3125
1480626345721858,-0.9375,0.625,-0.4375
1480626345744418,-2.375,0,0.0625
1480626345759458,-0.0625,-0.125,-0.0625
1480626345789037,1.4375,-0.0625,0
1480626345803075,2.25,-0.3125,-0.3125
1480626345819117,1.25,-0.4375,-0.25
1480626345841684,0.3125,-0.1875,-0.125
1480626345879780,-0.5,0.125,-0.0625
1480626345882285,-0.6875,0.3125,0.1875
1480626345901837,-0.4375,0.1875,0.3125
1480626345922892,0.25,0.25,0.1875
1480626345939437,0,0.1875,0
1480626345961998,-0.375,-0.25,0.0625
1480626345984056,0.375,0,0.125
1480626345999096,0.5625,0,-0.25
1480626346027672,0.75,-0.4375,-0.0625
1480626346044216,0.4375,-1,-0.1875
1480626346065272,1.75,-0.8125,-0.4375
1480626346081816,2.75,-0.25,-0.3125
1480626346104376,0.625,-0.375,-0.5
1480626346126936,0.5625,0.125,0.1875
1480626346149496,-0.5625,0.75,0
1480626346165539,-1,0.5625,0.0625
1480626346192612,-2.4375,-1.3125,1.0625
1480626346201636,-0.875,-2.4375,2.0625
1480626346224194,1.6875,-1.625,1.0625
1480626346238733,-0.125,-1.5625,-0.125
1480626346261795,0.75,-0.5625,-1.9375
1480626346284354,-2.125,-0.5,-0.875
1480626346298393,0.8125,-0.25,-0.3125
1480626346321954,0.9375,0.375,-0.5625
1480626346344013,1.75,0.4375,-0.3125
1480626346358552,1.1875,0.625,0.0625
1480626346381614,1.0625,0.625,0.0625
1480626346404174,0.25,0.8125,0.8125
1480626346419214,0.375,0.75,0.3125
1480626346447791,-0.5,0.4375,0.5
1480626346464335,0.6875,0.1875,-0.375
1480626346487394,0.5625,-0.125,-0.5625
1480626346501935,1.625,-0.1875,-0.375
1480626346523992,0.9375,0.0625,-0.5
1480626346545049,0.75,-0.1875,-0.0625
1480626346561592,1.1875,0,-0.25
1480626346584152,1.1875,0.375,0.0625
1480626346605208,-0.0625,0.5,0.375
1480626346621752,-1.1875,0.4375,0.125
1480626346651832,-0.4375,0.3125,0.25
1480626346664867,-0.5625,0.1875,0.5
1480626346683417,-0.75,-0.125,0.0625
1480626346703972,1.1875,0,-0.25
1480626346725529,1.3125,-0.125,-0.25
1480626346742573,0.625,-0.4375,-0.25
1480626346764131,-0.125,-0.0625,-0.125
1480626346785187,-0.8125,0.1875,0.0625
1480626346803236,-0.875,0.125,0.125
1480626346824295,0.75,0,-0.0625
1480626346845348,1.375,-0.125,0.25
1480626346861891,1.0625,0.0625,0.125
1480626346897987,-0.3125,-0.375,-0.125
1480626346907513,1.125,-0.8125,-0.125
1480626346928067,3.125,-1,-0.75
1480626346944110,2.3125,-2.3125,-0.0625
1480626346982211,3.25,-2.875,0
1480626346984718,6,-1.75,1.1875
1480626347011790,5.5625,-0.375,0.9375
1480626347026829,-0.3125,0.1875,-2.5
1480626347042371,-6.75,-0.4375,-1.125
1480626347064430,-0.9375,-1.0625,0.375
1480626347086989,3.0625,-1.0625,-0.125
1480626347101529,4.75,-1.125,-0.5625
1480626347124090,1.25,-1.25,-0.375
1480626347146651,0.4375,-0.9375,-0.875
1480626347177230,-0.8125,-0.3125,0.0625
1480626347184249,-1.5,0.0625,0.0625
1480626347207310,-1.1875,0.75,0.1875
1480626347236889,-0.8125,0.625,0.1875
1480626347244409,-0.875,0.5625,0.125
1480626347266969,-0.125,0.25,0.0625
1480626347281008,0.4375,0.0625,0.25
1480626347304068,0,-0.125,0.375
1480626347327630,0.25,-0.125,0.25
1480626347341166,1.1875,-0.0625,0.0625
1480626347364229,1.25,-0.3125,-0.4375
1480626347394308,1,-0.1875,-0.3125
1480626347401327,0.25,-0.1875,0.0625
1480626347424388,-0.1875,0.0625,0
1480626347446448,-0.1875,0.1875,-0.125
1480626347468005,-0.1875,0.25,0.0625
1480626347485049,-0.5,0.25,0.0625
1480626347506606,-0.875,0.0625,0
1480626347527663,-0.3125,0.3125,0.0625
1480626347544708,-0.5625,-0.25,-0.0625
1480626347566767,0.25,-0.1875,0.125
1480626347588826,0.625,-0.1875,-0.0625
1480626347604367,0.9375,-0.125,-0.125
1480626347626926,0.0625,-0.125,-0.125
1480626347647983,-0.3125,-0.0625,-0.25
1480626347664526,0.3125,0.25,-0.125
1480626347686585,0.125,0.3125,0
1480626347707641,-0.4375,0.25,0.3125
1480626347724185,-1,0,0.4375
1480626347752761,-0.625,0.1875,0.25
1480626347767801,-0.125,0.0625,0.0625
1480626347784345,-0.125,-0.3125,-0.1875
1480626347807406,0.5,-0.1875,-0.125
1480626347836985,0.3125,-0.125,-0.25
1480626347844506,0.0625,-0.0625,-0.25
1480626347866564,-0.875,0,-0.125
1480626347904667,-0.375,0.1875,0
1480626347907173,-0.3125,0.25,0.125
1480626347926724,0,0.25,0.3125
1480626347949284,0.125,0.3125,0.3125
1480626347964325,0.5625,0.4375,0.25
1480626347986884,-0.25,-0.125,0.0625
1480626348009444,0.1875,0.1875,0.375
1480626348023982,-0.0625,-0.125,0.0625
1480626348046543,0.125,-0.125,0
1480626348070106,0.125,0,0.125
1480626348083643,0.125,-0.125,0
1480626348112722,1,0.125,-0.125
1480626348129768,0.6875,-0.0625,0.0625
1480626348150318,0.5625,0,-0.1875
1480626348166863,-0.25,0.0625,-0.125
1480626348189423,-0.1875,-0.125,-0.0625
1480626348210479,0.6875,-0.125,-0.1875
1480626348232539,1.3125,-0.125,-0.125
1480626348249085,0.8125,0,-0.1875
1480626348263621,0.375,0,0
1480626348286681,0.25,-0.0625,-0.0625
1480626348309242,0.125,0.1875,0
1480626348323780,0.3125,0.1875,0.5
1480626348346843,0.1875,0.1875,0.3125
1480626348369402,0.4375,0,-0.0625
1480626348391961,1.0625,0,0
1480626348406501,0.25,-0.125,0
1480626348429565,-0.3125,-0.125,0.1875
1480626348450117,-0.1875,-0.0625,-0.0625
1480626348468166,0.625,0.125,-0.125
1480626348489221,0.6875,0.25,0
1480626348510277,-0.625,0.125,0.0625
1480626348532837,-0.3125,-0.0625,0
1480626348556900,0.0625,0,-0.25
1480626348570437,0.25,0,-0.375
1480626348586980,0.0625,0,0.0625
1480626348609039,-0.375,0.0625,0.25
1480626348637615,-0.0625,0.1875,0.25
1480626348648144,0.375,0.25,0.125
1480626348669201,0.125,0,0.125
1480626348690255,0.4375,-0.0625,0.25
1480626348707302,0.3125,0,0.1875
1480626348729359,0.0625,0.125,-0.0625
1480626348757935,0.1875,-0.0625,0
1480626348766458,0.1875,0.0625,0.0625
1480626348789018,0.3125,0.0625,0.125
1480626348810074,0.75,0.1875,0
1480626348834139,0.75,0.0625,0
1480626348849179,0.375,0.125,0.3125
1480626348870234,0.4375,0.0625,0.125
1480626348888282,0.25,0.125,-0.0625
1480626348910341,-0.1875,0.1875,0.0625
1480626348931898,-0.375,0.3125,-0.1875
1480626348945938,-0.375,0.875,0
1480626348969500,-2.25,1.0625,0.5
1480626348991557,-2.3125,0.5,0.1875
1480626349006597,-0.5,1,-0.0625
1480626349035173,-1.0625,0.625,0.3125
1480626349051718,-0.6875,-0.125,-0.5
1480626349066256,1,-0.1875,0
1480626349089317,1.375,-0.375,0.0625
1480626349112378,0.5625,-0.875,-0.4375
1480626349125914,0.75,-0.375,-0.25
1480626349148977,0.5625,-0.0625,-0.1875
1480626349172038,0.125,0.125,0.125
1480626349192591,-0.875,0.3125,0.25
1480626349209136,-0.9375,0.5625,-0.125
1480626349231696,-1,0.625,0.125
1480626349254255,0.625,0.125,-0.5
1480626349269297,1.1875,-0.0625,-0.375
1480626349292357,1,-0.25,-0.25
1480626349314417,0.5,-0.375,-0.1875
1480626349329457,1.25,0.125,0.0625
1480626349352015,0,-0.0625,0.375
1480626349372570,0.875,-0.0625,-0.0625
1480626349390118,0.625,-0.125,-0.0625
1480626349417690,2.25,0,1.0625
1480626349434235,1.1875,0.25,1.3125
1480626349449275,0.875,-0.5625,-0.1875
1480626349471835,1.8125,-0.4375,-2.5
1480626349492890,-1.8125,-1,-1.5
1480626349509939,0.8125,-0.8125,-0.1875
1480626349531996,1.8125,-0.0625,0.5
1480626349552549,1.25,0.625,0.875
1480626349569094,-2.1875,0.5625,0.9375
1480626349591653,-2.0625,1.125,0.6875
1480626349620229,-1.6875,1.3125,0.5
1480626349629255,-2.1875,1,0.75
1480626349651813,-0.875,0,-0.25
1480626349672368,1.25,-0.625,-0.3125
1480626349689417,2.375,-0.9375,-0.0625
1480626349725007,3.125,-1.0625,-0.25
1480626349735537,3.25,-0.75,0
1480626349756591,0.625,-0.4375,-0.5
1480626349771632,-3.375,-0.8125,-0.625
1480626349792688,-0.5625,-0.4375,0.0625
1480626349816752,0.3125,0.125,0
1480626349837808,-0.125,0.875,0.375
1480626349860369,-2.6875,1.125,0.625
1480626349869394,-3.6875,1.25,0.3125
1480626349891952,-2.3125,1.25,0.125
1480626349921531,-1.6875,0.3125,-0.125
1480626349929555,-0.25,-0.625,-0.875
1480626349951611,1.6875,-1.25,-0.8125
1480626349974171,2.3125,-1.0625,-0.9375
1480626349995228,-0.0625,-1.125,-0.875
1480626350011772,-1.25,-0.5,-0.8125
1480626350035336,-1.6875,0,-0.4375
1480626350048369,-0.25,0.375,0.1875
1480626350071931,-0.1875,0.1875,0.375
1480626350094993,0.4375,0.1875,0.0625
1480626350115546,0.25,0.25,0.25
1480626350132593,-0.25,0.0625,0.375
1480626350154149,-0.125,-0.375,0.6875
1480626350168689,1.6875,-0.25,0.6875
1480626350192752,0.625,-0.125,-1.5
1480626350229354,-2.5625,-1.3125,-1.5
1480626350231355,1.375,-0.5,-0.625
1480626350251910,1.1875,0.4375,0.875
1480626350274972,-1.5,0.625,0.6875
1480626350288507,-3.5,0.5625,0.8125
1480626350312071,-1.0625,0.75,0.1875
1480626350334129,-1.625,0.125,-0.0625
1480626350355185,-0.3125,0.1875,-0.375
1480626350372731,-1.3125,0.1875,-0.375
1480626350394289,-1.75,-0.3125,-0.125
1480626350422864,-1.125,-0.3125,0.1875
1480626350431889,0.625,-0.4375,-0.25
1480626350454950,0.5,-0.3125,0
1480626350483026,-0.25,-0.5,0.5625
1480626350499067,-0.5,-0.125,-0.4375
1480626350514107,-1.3125,-0.625,-0.5
1480626350536669,0.125,-0.1875,0.0625
1480626350552208,-0.25,0.125,0.0625
1480626350581787,-1.1875,0.5,0
1480626350595323,-2.25,0.875,0.25
1480626350619388,-1.9375,0.5,0.1875
1480626350634428,-1.3125,0.375,-0.3125
1480626350655483,-0.6875,-0.25,0
1480626350673532,0.5625,-0.5625,0
1480626350694086,1.6875,-0.625,-0.0625
1480626350715143,2.1875,-0.375,0
1480626350731686,0.3125,-0.4375,-0.375
1480626350754748,-0.4375,-0.375,-0.375
1480626350784331,-0.5,-0.3125,0.125
1480626350791846,0.0625,0.0625,-0.0625
1480626350814406,0.0625,0.3125,0
1480626350836969,0.8125,-0.3125,0.75
1480626350851506,0.1875,0.3125,-0.0625
1480626350874065,1.5,1.0625,-0.875
1480626350896625,-8.4375,1.5625,0.625
1480626350911666,-1.875,1.4375,1.1875
1480626350934727,1.1875,1.75,1.1875
1480626350956785,1.5,0.0625,-0.3125
1480626350971333,1,-0.875,-1.125
1480626350994386,1.625,-0.6875,-1.375
1480626351017948,-0.1875,-0.3125,-1.125
1480626351030982,-2.375,0.0625,0.3125
1480626351054044,-1.75,0.625,0.8125
1480626351076604,-0.4375,1.25,1.25
1480626351091142,0.25,1.25,1.625
1480626351114204,-0.1875,1,1.5
1480626351142779,-0.75,0.8125,1.375
1480626351151304,-0.25,0.375,1.125
1480626351174364,1.375,0.1875,0.875
1480626351196924,1.3125,0.4375,0.125
1480626351211964,-1.625,-0.125,0.4375
1480626351235025,-1.0625,0,0.125
1480626351256582,-0.5,0.125,0.625
1480626351279145,-0.4375,-0.4375,0.5625
1480626351294182,0.875,-0.5,-0.125
1480626351316743,0.8125,-0.75,-0.5625
1480626351337799,0.8125,-1,-0.9375
1480626351354342,1.9375,-1.1875,-0.375
1480626351376902,1.8125,-1.4375,0.0625
1480626351397959,2.75,-1.0625,-0.4375
1480626351415507,3.875,-0.9375,-1.4375
1480626351436561,-0.25,0,-0.6875
1480626351465138,-2,-0.125,0.9375
1480626351474161,-2.25,0.25,-0.4375
1480626351496722,0,0.3125,-0.5625
1480626351517778,-0.75,-0.6875,-0.5625
1480626351534322,2.4375,-0.6875,-1.5625
1480626351556881,3.1875,-0.375,-0.9375
1480626351577937,0.75,-0.4375,-0.25
1480626351593982,0.5625,0,-0.375
1480626351616540,1.125,0.5,-0.375
1480626351639100,-0.5,0.5,-0.25
1480626351654141,-0.625,0.5,-0.0625
1480626351677202,-0.625,0.375,-0.0625
1480626351697756,0.5,0.25,-0.25
1480626351714300,0.0625,-0.1875,-0.0625
1480626351736360,0.875,-0.375,-0.5
1480626351759420,0.875,-0.1875,-0.4375
1480626351774461,0.0625,-0.3125,-0.5625
1480626351802537,0.125,-0.1875,-0.25
1480626351819079,-0.3125,0.125,0.0625
1480626351834123,-0.375,0.375,0.125
1480626351862699,-0.9375,0.3125,0.0625
1480626351895785,-0.9375,0.3125,0.125
1480626351900295,-0.3125,0.125,0.125
1480626351916341,-0.125,0.0625,0
1480626351953938,0.125,0.0625,-0.1875
1480626351956445,-0.5625,-0.1875,-0.1875
1480626351978002,0,-0.1875,-0.4375
1480626352000061,0.3125,-0.125,-0.125
1480626352020114,0.1875,-0.125,0
1480626352036659,0.0625,0.1875,0.125
1480626352059218,0.0625,0.3125,0
1480626352073756,-1.125,0.3125,0.1875
1480626352096817,-0.5,0.125,0.125
1480626352119379,-0.75,-0.1875,0.3125
1480626352147954,-0.125,-0.375,0.0625
1480626352170631,1.4375,-0.6875,0.125
1480626352180541,3.4375,-0.75,0.0625
1480626352203602,3.875,0.25,0.0625
1480626352217640,-3.25,0.1875,-1.4375
1480626352239699,-3.5,-0.125,-0.125
1480626352260754,-0.125,-0.625,-0.3125
1480626352284819,4.1875,-0.75,-0.6875
1480626352299357,2.4375,-0.5,-0.25
1480626352320913,-1.125,0.125,-0.375
1480626352336957,-2.875,0.8125,0.0625
1480626352367037,-2.9375,0.8125,0.625
1480626352387592,-1.9375,0.375,0.5625
1480626352396617,-0.5,0.3125,0.25
1480626352426695,-0.0625,0.0625,0.125
1480626352449256,-0.5625,-0.375,-0.0625
1480626352456776,0.1875,-0.3125,-0.125
1480626352479837,-0.3125,-0.1875,-0.125
1480626352509416,-0.6875,-0.0625,0.0625
1480626352517437,-1,-0.0625,0.125
1480626352538994,-0.375,-0.125,-0.375
1480626352560551,-0.25,-0.375,-0.1875
1480626352576594,0.3125,0,0.1875
1480626352599155,-0.4375,0.125,0.1875
1480626352620711,-0.75,0,0.1875
1480626352636754,-0.75,0.0625,-0.0625
1480626352666835,-0.875,0.125,0
1480626352681874,-0.3125,0.25,0.125
1480626352696413,-0.625,0.1875,0.125
1480626352734014,-0.8125,0.125,0.125
1480626352757074,-0.5,0.0625,0.125
1480626352759581,-0.5,-0.25,0
1480626352779637,-0.1875,-0.4375,-0.3125
1480626352809213,0.25,0,-0.4375
1480626352816232,-1.1875,0,0.0625
1480626352839293,-1.875,0.1875,0.25
1480626352861853,-1.375,0.4375,0.25
1480626352884414,-0.3125,0.625,-0.375
1480626352898953,-1.625,0.3125,-0.1875
1480626352921511,-1.6875,-0.0625,-0.0625
1480626352936050,0.875,0.125,-0.25
1480626352959613,0.9375,0.0625,-0.1875
1480626352981672,-1.4375,-0.625,-0.0625
1480626353010248,0.375,-0.375,0.5
1480626353018770,-3.25,1.3125,-0.125
1480626353042836,-8.1875,0.6875,0.5
1480626353062891,-1.75,2,1.75
1480626353079433,1.9375,1.5,1.375
1480626353101491,1.875,0.3125,0.0625
1480626353122546,3.4375,-1.1875,-1.125
1480626353140094,8.625,1,0.875
1480626353161651,-5.3125,2.5,-1.375
1480626353183208,-11.625,-0.3125,0.8125
1480626353199251,-1.4375,0.5,2.5
1480626353221810,6.8125,0.375,-0.3125
1480626353259912,1.875,-0.4375,-0.125
1480626353262420,-0.875,-1.9375,0.75
1480626353289491,3.3125,-1.0625,-0.625
1480626353311550,2.0625,-1.0625,-0.75
1480626353325085,-0.625,-1.4375,-0.75
1480626353342633,0.9375,-1.0625,-0.8125
1480626353370207,-4.125,-0.0625,-0.8125
1480626353379233,-7.9375,-0.375,0.5
1480626353401791,-2,0.125,2.0625
1480626353422846,-0.4375,1,-0.4375
1480626353439390,-0.6875,0.625,-0.1875
1480626353461955,-1.0625,0.8125,0.5625
1480626353483007,0.1875,0.9375,1
1480626353506568,1.8125,0.375,0.9375
1480626353529132,4.125,-0.375,0.5625
1480626353566228,5.75,-0.875,-0.625
1480626353574249,6.375,-1.375,-1
1480626353583272,5.0625,-1.375,-1.0625
1480626353610344,5.9375,-1.25,-1.875
1480626353619368,1.875,-0.9375,-1.5625
1480626353642430,-1.6875,0.0625,-0.4375
1480626353663988,-1.75,0,1.1875
1480626353679530,1,0.1875,-0.3125
1480626353701588,1.125,0.3125,-0.375
1480626353724147,-0.75,-0.375,-1.5
1480626353739688,-0.1875,-0.625,-2.0625
1480626353762249,1.5,-1,-0.75
1480626353784308,2.625,-0.5625,-0.6875
1480626353805865,2.375,-0.75,-0.5625
1480626353836950,2.125,-0.375,-0.0625
1480626353843967,1.5625,0.1875,0.125
1480626353858504,0.4375,0.8125,0
1480626353895607,-1.4375,0.375,0
1480626353910141,-0.125,0.0625,-0.1875
1480626353918667,1.4375,-0.0625,-0.5625
1480626353941733,2.0625,-0.5,-1.0625
1480626353964288,2.75,-0.4375,-0.5625
1480626353985343,2.25,-0.375,0
1480626354001887,1.6875,-0.25,0.125
1480626354031967,1.25,-0.0625,-0.125
1480626354038484,1.0625,0.125,-0.0625
1480626354062049,-8.3125,-0.125,0.8125
1480626354090121,-3.75,-0.375,-0.5625
1480626354106665,2.25,0,1.0625
1480626354121705,1.375,0.5,-0.4375
1480626354144266,-0.875,0,0
1480626354165321,0.1875,0.5,0.625
1480626354181865,1.3125,0.75,0
1480626354204425,-0.25,0.125,-0.125
1480626354226483,-1.625,0.125,0.125
1480626354241524,-1.625,0.5,0
1480626354265086,-2.25,0.625,0.0625
1480626354285139,-3.6875,0.5,0.375
1480626354309205,-2.75,0.4375,0.0625
1480626354339785,-2.875,-0.0625,0.0625
1480626354346304,-1.5,-0.375,-0.0625
1480626354375379,-0.75,-0.125,-0.375
1480626354384404,-1.5,-0.125,-0.3125
1480626354405460,-1.375,0.1875,0.3125
1480626354421502,-0.9375,0.8125,0.375
1480626354444063,-1,1.125,0.75
1480626354465118,-0.8125,1.625,1
1480626354481663,-1.1875,1.6875,0.875
1480626354504223,-1.8125,0.6875,1.1875
1480626354525280,0.25,0.25,0.875
1480626354565385,0.6875,-0.1875,0
1480626354577418,2.1875,-0.75,-0.375
1480626354588446,1.3125,-1.0625,-0.5
1480626354616521,0.1875,-0.625,-0.75
1480626354624041,-2.75,-0.6875,-0.3125
1480626354646601,-2.625,-0.8125,-0.1875
1480626354662145,-2.25,-0.875,-0.0625
1480626354684201,-1.75,-1.125,0
1480626354712777,-2.0625,-1.125,0.25
1480626354720798,-2.9375,-1.875,-0.875
1480626354744362,0.375,-1.125,-0.75
1480626354766922,-3.125,0.9375,-3
1480626354780959,-10.6875,-0.25,-1.1875
1480626354804021,-4.5,0.0625,1.4375
1480626354832598,2.8125,-0.0625,1.1875
1480626354841119,6.375,-0.3125,0.0625
1480626354864180,3,-0.625,-0.0625
1480626354894762,0.75,-0.375,0.0625
1480626354907797,-0.5625,0.375,-0.0625
1480626354924342,0.3125,0.8125,0.4375
1480626354946900,0.9375,0.625,0.3125
1480626354961441,2.125,0.1875,0.25
1480626354984000,3.0625,0.0625,0
1480626355007060,2.5,0,-0.4375
1480626355021097,1.5625,0,-0.1875
1480626355044159,-0.875,-0.1875,0.5625
1480626355066719,-1.9375,-0.1875,0.5
1480626355089279,-0.625,0,0
1480626355109834,-0.3125,-0.3125,-0.1875
1480626355127882,-1.1875,-0.5625,-0.3125
1480626355147936,-1.3125,-0.375,-0.5625
1480626355171497,-1.0625,-0.125,-0.5
1480626355186537,-1.875,0,-0.375
1480626355215115,-1.625,-0.0625,-0.25
1480626355225140,-1.25,0.0625,-0.0625
1480626355254218,-1.125,-0.0625,-0.1875
1480626355267755,-0.6875,-0.0625,-0.125
1480626355284298,0.1875,0.0625,0.375
1480626355306858,0.0625,0,0.625
1480626355335434,-0.125,-0.1875,0.1875
1480626355344458,1.25,-0.25,0.125
1480626355367019,1.5,-0.125,-0.125
1480626355396597,1.125,0.0625,0
1480626355419156,1.1875,0,-0.125
1480626355426677,0.25,0.125,0
1480626355447733,-0.3125,0.4375,0.1875
1480626355471796,0.625,0.0625,0.1875
1480626355494357,-0.125,0,-0.1875
1480626355507894,-0.3125,0,-0.25
1480626355524436,-0.625,-0.125,-0.125
1480626355546495,-0.5,-0.125,-0.3125
1480626355570559,0.0625,-0.125,-0.3125
1480626355584096,-0.5625,-0.4375,-0.3125
1480626355612672,0.8125,-0.375,-0.4375
1480626355635233,1.0625,0.0625,-0.1875
1480626355643756,-1.125,0.375,0
1480626355674336,-1.5625,0.75,0.0625
1480626355689877,-1.5,0.1875,0.0625
1480626355703413,-0.75,0,-0.25
1480626355727979,0.6875,-0.0625,0.125
1480626355749034,1.1875,-0.125,0.0625
1480626355779116,0.5625,-0.375,-0.0625
1480626355786634,0.3125,-0.25,-0.1875
1480626355809194,0.4375,0.0625,-0.25
1480626355823732,0.25,0.3125,-0.0625
1480626355846294,-0.4375,0.125,-0.25
1480626355869356,-0.25,0.1875,-0.125
1480626355890414,-0.1875,-0.0625,-0.125
1480626355906453,0,0.0625,-0.0625
1480626355929016,-0.125,-0.0625,-0.125
1480626355951573,0.875,0.125,0
1480626355966613,0.375,0.375,0.1875
1480626355989173,-0.4375,0.1875,0
1480626356003712,-0.625,0.1875,0.125
1480626356026773,-0.1875,0.0625,0.0625
1480626356049835,-0.5,0.125,-0.125
1480626356070390,-0.25,0.125,-0.1875
1480626356088436,-0.1875,0.0625,0.0625
1480626356108992,-0.375,0.25,0.125
1480626356139072,-0.375,-0.375,0.1875
1480626356148096,1.5,0.0625,-0.1875
1480626356169152,1.25,-0.125,-0.3125
1480626356197728,0,-0.375,-0.125
1480626356206752,0.125,-0.0625,0.1875
1480626356229312,0.25,0.0625,0.0625
1480626356250368,-0.625,0.1875,0
1480626356266912,-0.375,0.1875,0.125
1480626356288974,-0.6875,0.0625,0
1480626356310026,0.125,-0.125,-0.1875
1480626356326571,-0.375,0.0625,-0.0625
1480626356332085,0.1875,-0.125,-0.1875
1480626356354645,-0.1875,-0.25,-0.1875
1480626356377207,-0.0625,-0.25,-0.25
1480626356392245,0.3125,0,0.0625
1480626356422325,-0.5625,0.0625,-0.0625
1480626356447393,-0.875,0.1875,-0.125
1480626356451904,-0.5,0.3125,0
1480626356474464,-1.125,0.125,-0.125
1480626356497024,-0.8125,0.25,0
1480626356519583,-1.25,0.5,0.3125
1480626356542144,-2.5,0.125,0.3125
1480626356557184,-1.5,-0.3125,-0.125
1480626356573731,-0.3125,-0.1875,-0.6875
1480626356594787,-0.4375,-0.375,-0.625
1480626356617344,-0.375,-0.4375,-0.125
1480626356631883,-0.8125,-0.3125,-0.125
1480626356654442,-0.375,-0.25,-0.3125
1480626356695552,-0.5625,-0.0625,0
1480626356700065,-0.1875,0.0625,-0.1875
1480626356725131,-1.0625,0.0625,0
1480626356737163,-0.1875,-0.0625,-0.0625
1480626356753706,0,-0.125,0
1480626356774763,0.625,-0.375,-0.3125
1480626356797323,1.8125,0.0625,-0.4375
1480626356813366,0.625,0.0625,0
1480626356835928,-1.125,-0.0625,0.0625
1480626356856981,-1.0625,0.0625,0
1480626356881046,-0.5,0.1875,0.0625
1480626356894585,-0.4375,0.1875,0.0625
1480626356917142,-0.3125,-0.0625,-0.1875
1480626356933686,0.25,-0.0625,0
1480626356954743,-0.5,-0.3125,-0.125
1480626356978809,-0.5625,-0.125,-0.0625
1480626357008385,-0.5,0.125,0
1480626357014401,-1,0.0625,-0.0625
1480626357036960,-0.875,-0.0625,0
1480626357053505,0,0,0
1480626357074560,-0.875,-0.25,-0.0625
1480626357097120,-0.5,-0.125,0
1480626357115670,-0.6875,-0.25,-0.125
1480626357134722,-0.5,-0.1875,-0.1875
1480626357157280,-0.875,-0.0625,-0.1875
1480626357173324,-0.3125,0.125,-0.0625
1480626357197387,-0.0625,0.125,0
1480626357220950,-0.6875,0,-0.125
1480626357258049,-0.375,-0.125,0
1480626357262061,0.3125,-0.4375,0.25
1480626357277100,1.8125,-0.5625,0.375
1480626357299660,1.25,0.0625,-0.6875
1480626357314700,-0.9375,0.125,-0.5
1480626357337260,-2.625,0.125,0.5
1480626357354806,-1.125,0.4375,0.0625
1480626357374358,-0.0625,0.625,0.1875
1480626357396917,-0.0625,0.4375,0.3125
1480626357414967,-0.875,0.375,0.4375
1480626357436095,-0.9375,0.4375,0.0625
1480626357457078,-1.6875,0.625,0.1875
1480626357479642,-1.875,0.1875,-0.0625
1480626357502199,0.25,0.0625,-0.125
1480626357520246,0.9375,-0.0625,-0.125
1480626357539802,0.625,-0.25,-0.4375
1480626357554337,0,-0.625,-0.5
1480626357576897,0.5625,-0.375,-0.1875
1480626357599457,-0.125,-0.0625,-0.1875
1480626357614497,0.4375,0.125,-0.1875
1480626357638562,0.625,0.0625,0.125
1480626357668642,0.0625,0.0625,0.1875
1480626357675158,0.3125,0.1875,0
1480626357697217,0.25,0.3125,0.25
1480626357719777,-0.1875,0.0625,0
1480626357734818,0.3125,0,-0.125
1480626357756875,1.25,-0.0625,-0.375
1480626357782444,0.4375,-0.3125,-0.625
1480626357794479,0.5,-0.125,-0.375
1480626357817035,-0.375,0,-0.1875
1480626357839595,-0.9375,0.1875,0.125
1480626357854635,-1.25,0.5,0.125
1480626357877198,-0.0625,0.4375,0.125
1480626357899756,0.125,0.1875,-0.125
1480626357917303,0.375,0,-0.125
1480626357937356,-0.125,-0.25,0.25
1480626357959432,0,-0.0625,0
1480626357974455,0,0.125,-0.1875
1480626357998018,-0.1875,0,-0.1875
1480626358019575,-0.9375,-0.3125,0
1480626358036622,0.25,-0.125,-0.3125
1480626358057174,0.3125,0.25,0
1480626358079736,-0.75,0.4375,0.3125
1480626358103799,-1.5,0.3125,0.25
1480626358124353,-0.75,0.4375,0.125
1480626358142401,0.0625,0.5,0.0625
1480626358161955,-0.0625,0.375,0.1875
1480626358184513,-0.8125,0.25,0.125
1480626358199558,-0.75,0.5,-0.0625
1480626358231138,-1.4375,0.4375,0.125
1480626358237155,-1.5,0.0625,0.1875
1480626358267735,0.125,0.1875,0.0625
1480626358276257,0,0.0625,-0.1875
1480626358297313,0.1875,0,-0.0625
1480626358327898,0.1875,0.0625,0.125
1480626358335917,-0.125,0.25,0.125
1480626358356972,-0.25,0.125,0
1480626358379533,-0.375,-0.0625,-0.0625
1480626358398083,-0.0625,0.125,-0.0625
1480626358417132,-0.25,0.25,-0.125
1480626358442701,-0.6875,0.1875,0.1875
1480626358458242,-0.625,0,0.375
1480626358477292,0.0625,0.125,0.25
1480626358499351,0.8125,-0.125,-0.0625
1480626358517399,0.25,-0.4375,-0.1875
1480626358544476,0.5625,-0.3125,-0.0625
1480626358559511,0.1875,-0.3125,-0.125
1480626358578563,0.25,-0.4375,0
1480626358597111,-0.25,-0.25,0.125
1480626358619670,0.125,-0.3125,0
1480626358637719,-0.0625,0.0625,0
1480626358657270,-0.75,-0.125,-0.1875
1480626358686850,-0.875,-0.625,-0.0625
1480626358697378,1.1875,-0.625,-0.3125
1480626358724450,1.4375,-0.5625,-0.1875
1480626358750018,0.125,0,0.0625
1480626358757537,-1.9375,-0.3125,0.0625
1480626358777090,-1.625,0.0625,0.375
1480626358799650,-0.375,0.25,0.0625
1480626358825218,-0.4375,-0.1875,-0.0625
1480626358837250,0.0625,-0.25,-0.0625
1480626358859811,0.125,-0.0625,-0.1875
1480626358884376,-0.1875,-0.3125,-0.0625
1480626358896908,-0.5,-0.5,-0.125
1480626358919469,0.9375,-0.4375,-0.4375
1480626358942029,-0.125,-0.0625,-0.125
1480626358958573,-1.6875,0,-0.1875
1480626358979628,-1.0625,-0.25,0.125
1480626359002189,-0.5625,-1.1875,0.9375
1480626359018732,8.0625,-0.875,0.8125
1480626359047309,3.625,3,0.375
1480626359061847,-12.3125,4.0625,-0.3125
1480626359088418,-17.625,2.125,2.8125
1480626359099448,-3.125,1.3125,2.0625
1480626359130029,9.9375,1.4375,0.3125
1480626359138552,3,1.375,0.5
1480626359159608,-8.25,-0.1875,0.375
1480626359182168,-7.875,0,0.9375
1480626359198711,-0.5,1,0.375
1480626359219767,1.25,0.5625,0.9375
1480626359242328,0.6875,1.4375,2.125
1480626359258370,-1.6875,1.375,3.1875
1480626359280930,-1.8125,1.0625,2.3125
1480626359301987,0.0625,0.25,1.6875
1480626359327556,3.25,-0.3125,0.125
1480626359348610,1.9375,-0.375,0.0625
1480626359362146,-1.75,-1,1.0625
1480626359380195,0.75,-1.375,0.625
1480626359399746,3.3125,-0.375,-0.125
1480626359422306,1.3125,-0.4375,0.0625
1480626359439857,-0.625,-1.5625,-0.25
1480626359462415,0.5625,-1.875,0
1480626359481966,1.5625,-3.1875,0.875
1480626359501016,2.5,-3.5,0.25
1480626359519565,3.0625,-2.5,-0.75
1480626359542128,2.375,-1.875,-1.25
1480626359560175,0,-0.25,-1.5625
1480626359579726,-0.8125,-0.875,-0.1875
1480626359602285,-0.25,-1.375,0.5625
1480626359619832,1.0625,-0.1875,-2.0625
1480626359639890,-1.6875,-0.8125,-3
1480626359661944,-0.8125,0.25,-2.8125
1480626359679992,-1.75,0.3125,-0.5625
1480626359699544,0.375,-0.25,-0.5625
1480626359722103,2.25,-0.5,0
1480626359747673,2.875,-0.75,-0.375
1480626359761211,2.8125,-1.1875,-0.75
1480626359782267,3.125,-1.6875,-1.0625
1480626359804824,2.0625,-1.875,-1.0625
1480626359819362,2.1875,-1.3125,-1.375
1480626359841922,1.4375,-1.625,-1.125
1480626359860477,2.5625,-1.125,-1.1875
1480626359879523,1.6875,-0.5625,-0.9375
1480626359902083,0.375,-0.25,-0.0625
1480626359920131,0.4375,0.3125,-0.125
1480626359943193,-1.125,0.3125,0.5
1480626359965252,-1.625,0.3125,0.4375
1480626359984803,0.1875,0.3125,0.4375
1480626360000846,1.75,0.375,0.3125
1480626360021901,-0.1875,0.1875,0.25
1480626360039949,-0.6875,-0.0625,0.0625
1480626360061006,-0.75,0.1875,-0.0625
1480626360082061,0.0625,0.1875,-0.25
1480626360106126,0.9375,-0.625,0.3125
1480626360121166,1.4375,-0.125,0.0625
1480626360142222,-0.4375,0.25,0.5625
1480626360167289,-3.25,0.9375,1.8125
1480626360181827,-4.375,0.875,2.375
1480626360209402,-2.3125,1.375,-0.125
1480626360219928,-10.625,1.0625,-0.875
1480626360240985,-5.125,2.1875,1.5625
1480626360262040,-1.25,3.1875,2.5
1480626360280090,-5.75,1.4375,2.5625
1480626360302650,1.0625,-0.875,0.5
1480626360325209,7.8125,-0.5625,-1.375
1480626360340249,4.5,0,-1.25
1480626360362307,-1,-0.75,-0.125
1480626360381860,1.6875,0.0625,-0.1875
1480626360407427,2.8125,0.5625,-0.5625
1480626360422969,-0.5625,0.875,-0.125
1480626360442019,-1.8125,1.625,-0.125
1480626360464579,-1.875,1.5625,-0.4375
1480626360497166,-1.25,1.1875,0
1480626360502681,1.375,0.875,1.0625
1480626360525241,0.5625,0.5,1.4375
1480626360548302,0.3125,0.4375,0.6875
1480626360569360,1.625,-0.1875,-0.25
1480626360584899,2.75,-0.4375,-0.3125
1480626360608463,0.25,-0.6875,-0.1875
1480626360625006,0.0625,-0.6875,0.4375
1480626360644562,1.3125,-0.375,0.75
1480626360662606,2.375,-0.625,-0.75
1480626360685166,0.9375,-1,-1
1480626360712238,0.8125,-1.3125,-0.5625
1480626360722265,-1.6875,-1.125,-0.3125
1480626360743824,-2.125,-0.5625,1.0625
1480626360765881,-3.5,-0.125,1.5625
1480626360782425,-0.375,0.0625,0.9375
1480626360801978,-0.125,-0.5625,-0.1875
1480626360824536,2.5,-0.75,-1.375
1480626360842587,1.625,-1.625,-1.8125
1480626360863641,1.5625,-2.4375,-1.5625
1480626360887705,2.5625,-1.6875,-0.8125
1480626360908260,1.0625,-1.8125,-0.9375
1480626360923299,2.1875,-1.125,-0.625
1480626360951876,1.3125,-0.5625,0.0625
1480626360968421,0.625,-0.1875,0.3125
1480626360989475,0.5625,0.1875,0.125
1480626361004516,0.6875,-0.0625,0.375
1480626361022563,1.875,-0.5,0.1875
1480626361045625,2.9375,-0.0625,-0.3125
1480626361072195,2.375,-0.1875,-0.6875
1480626361082723,1.1875,-0.6875,-0.8125
1480626361112803,-0.0625,-1.375,-1.0625
1480626361141380,0,0,-1
1480626361143890,-0.5,0,-0.8125
1480626361163439,-1.625,0.0625,-0.3125
1480626361187001,-1.625,0.1875,0.0625
1480626361202543,-2.125,-0.125,0.25
1480626361225103,-0.375,-0.125,0
1480626361252179,-0.375,-0.5625,0.0625
1480626361262202,0.3125,-0.3125,-0.125
1480626361285263,-0.75,-0.0625,0.0625
1480626361307321,-1.75,-0.375,0.0625
1480626361322361,0,0,0.1875
1480626361358457,0.375,0.125,0.375
1480626361364473,-1.5,-0.0625,0.3125
1480626361387034,-1.25,-0.1875,0.375
1480626361413103,-1.4375,0.0625,0.125
1480626361424633,-1.75,0.3125,0.25
1480626361442681,-2.25,0.25,0.375
1480626361465246,-1.8125,-0.125,0.25
1480626361484795,0.25,-0.0625,0.125
1480626361503348,-0.3125,-0.375,0.0625
1480626361524900,-0.0625,-0.375,-0.1875
1480626361544454,0,-0.4375,-0.375
1480626361562500,-0.75,-0.25,-0.25
1480626361585060,-1.5,-0.0625,-0.1875
1480626361607620,-2,-0.0625,0.25
1480626361628675,-1.6875,0.25,0.125
1480626361651737,-0.9375,0.0625,0.1875
1480626361664772,-0.875,0.3125,0.125
1480626361682820,-0.625,-0.0625,0.0625
1480626361704879,0.1875,-0.5,0
1480626361724432,1,-0.125,-0.5
1480626361742479,0.0625,0,-0.4375
1480626361766041,-1.375,0,-0.3125
1480626361792111,0,0.3125,0.25
1480626361803140,0.375,0.5625,0.3125
1480626361825198,-1.8125,0.5,0.0625
1480626361853274,-1.6875,0.6875,0.5
1480626361862298,-1.5625,0.6875,0.4375
1480626361890873,-1.5,0.5625,0.125
1480626361913433,-2.125,0.125,0.75
1480626361934491,-1,-0.4375,0.8125
1480626361945017,1.0625,-0.4375,0.3125
1480626361967578,2.75,-1.0625,0.0625
1480626361987130,2.4375,-1.5,-0.25
1480626362005178,2.375,-1.8125,-0.625
1480626362026234,2.4375,-2.25,-1.1875
1480626362046789,5.0625,-1.4375,-1.25
1480626362064837,1.625,1,-2.75
1480626362085892,-8.4375,-0.4375,-0.8125
1480626362106950,-3.5,-0.4375,0.4375
1480626362130515,3.125,1.0625,1.3125
1480626362162095,1.9375,1.5625,2.25
1480626362185659,-4.375,0.6875,2.25
1480626362189669,-3.0625,0.4375,1.4375
1480626362222255,0.0625,-0.0625,0.25
1480626362234789,1.75,-1.125,-0.5
1480626362244819,3,-1.5,-1.3125
1480626362267376,4.1875,-1.5625,-0.6875
1480626362286927,2.25,-1,-0.4375
1480626362304976,0.4375,-1.3125,-1.375
1480626362326535,0.375,-0.75,-0.8125
1480626362347087,-0.6875,-0.4375,0.0625
1480626362365136,-1.1875,0.4375,0.625
1480626362387696,-0.6875,0.9375,0.875
1480626362407749,-1.125,1.0625,0.625
1480626362460893,-1.9375,0.75,0.625
1480626362470416,-1.25,0.0625,0.25
1480626362474426,1.9375,0.125,0.25
1480626362496986,1.9375,-0.125,0.125
1480626362514534,0.6875,-0.0625,0
1480626362527071,-0.5,-0.1875,0.125
1480626362545114,-1.1875,-0.125,0.25
1480626362572186,-1.125,0.4375,0.125
1480626362594747,-1.625,0.8125,-0.1875
1480626362605280,-2.625,0.875,-0.4375
1480626362627332,-3.3125,0,0.25
1480626362646885,0.375,-0.25,0.4375
1480626362664933,2.5625,-0.0625,0.8125
1480626362687994,3,-0.25,1.125
1480626362710055,0.625,0.4375,0.5
1480626362725093,-1.25,-0.25,-0.125
1480626362748155,0.125,-0.25,-0.4375
1480626362777733,-1.1875,-0.125,-0.1875
1480626362790767,-0.75,0,-0.125
1480626362807311,-0.9375,-0.25,-0.0625
1480626362829370,0.75,-0.0625,-1.4375
1480626362844912,0.3125,-0.125,-1.25
1480626362867472,-1.1875,-0.25,-0.125
1480626362888527,-1.375,0.125,0.125
1480626362909584,0.8125,0.375,0.3125
1480626362927632,0.3125,0.3125,0.0625
1480626362948688,-0.125,-0.125,-0.0625
1480626362972251,0.4375,0,-0.0625
1480626363003835,0.3125,0.125,0.25
1480626363025893,-0.0625,0,-0.1875
1480626363053968,0.25,-0.375,-0.375
1480626363056475,0.9375,-0.375,-0.375
1480626363070010,1.1875,-0.0625,-0.25
1480626363089562,0.125,0.125,-0.0625
1480626363107611,-1.3125,0.25,0.4375
1480626363130170,-1.3125,0.3125,0.5
1480626363157744,-1.1875,0.125,0.4375
1480626363166768,0.6875,-0.25,1
1480626363189328,2.875,0.3125,0.0625
1480626363211891,-2.0625,-0.5,0.1875
1480626363249488,0.9375,-0.75,-0.5625
1480626363251995,1.75,-0.125,0.1875
1480626363270043,1.8125,0,-0.25
1480626363294106,-1.25,0.0625,-0.1875
1480626363309147,-1.5625,-0.0625,0.1875
1480626363330705,-1.125,0.0625,-0.125
1480626363346747,-1.6875,0,-0.5
1480626363369809,-1.0625,-0.0625,-0.25
1480626363390363,-0.1875,-0.1875,0.1875
1480626363406907,-0.1875,0,0.6875
1480626363428966,0.1875,0.0625,0
1480626363450021,-0.4375,-0.25,-0.25
1480626363466566,-0.875,-0.3125,-0.375
1480626363489126,-1,-0.3125,-0.4375
1480626363527230,-0.1875,-0.0625,-0.25
1480626363529734,-1.1875,-0.25,0.0625
1480626363550289,-0.6875,-0.1875,0
1480626363577863,-0.3125,-0.0625,-0.125
1480626363592901,-0.1875,-0.125,-0.1875
1480626363608945,-0.4375,0.0625,0.0625
1480626363630000,-0.4375,0,0.1875
1480626363646545,-0.3125,0,0.125
1480626363669104,-0.6875,-0.1875,-0.25
1480626363690160,0.125,-0.0625,0
1480626363706705,-0.5625,0,0.4375
1480626363735281,0.0625,-0.1875,1.375
1480626363750321,0.1875,0.375,-0.4375
1480626363774384,-3,-0.8125,-0.5
1480626363803462,0.4375,-0.625,-0.75
1480626363817499,0.125,-0.625,0.1875
1480626363832539,-0.375,-0.25,-0.0625
1480626363856603,-1.25,-0.4375,0.0625
1480626363879163,-0.625,-0.375,-0.125
1480626363886683,-1.1875,-0.0625,0.125
1480626363909244,-1.125,0.1875,-0.1875
1480626363930299,-2.625,0.375,-0.1875
1480626363946848,-2.625,0,-0.1875
1480626363968902,-1.3125,0.25,0.5
1480626363998982,-0.125,0.3125,0.4375
1480626364014022,0.625,0.25,0.1875
1480626364029062,0.0625,0,0.25
1480626364051622,-0.3125,-0.3125,-0.25
1480626364083210,-0.5625,-0.5,-0.3125
1480626364096742,-0.3125,-0.4375,-0.375
1480626364111783,-0.5625,-0.3125,-0.25
1480626364126824,-0.625,-0.1875,-0.3125
1480626364156901,0.0625,-0.0625,0
1480626364177459,-0.375,0.1875,0.375
1480626364186481,-1.375,0.125,0.25
1480626364209041,-0.75,0.4375,0.1875
1480626364231601,1,0.1875,-0.25
1480626364246139,0,-0.375,0
1480626364275217,0.9375,-0.75,-0.1875
1480626364299281,2.125,-0.375,0.3125
1480626364312315,-0.6875,-0.25,0.5
1480626364329361,-1.5625,-0.875,0.5
1480626364351921,-0.125,-0.375,0.875
1480626364366459,-0.25,0.4375,-0.4375
1480626364390022,-2.375,3.125,-0.0625
1480626364411581,-8.8125,2.875,3.125
1480626364426619,-6.375,1.125,3.3125
1480626364449681,3.125,1.75,1
1480626364471739,1.4375,-0.3125,0.3125
1480626364485777,-0.4375,-2.1875,0.1875
1480626364510345,2.8125,-1.625,-0.5
1480626364531398,4,-0.5625,0.4375
1480626364553958,-0.9375,0.1875,0.6875
1480626364576521,-4.5,-0.25,0.8125
1480626364605595,0.5,-0.3125,1
1480626364612615,3.375,-0.8125,0.4375
1480626364629660,5.6875,-1.875,0.3125
1480626364651718,7.25,-3.5625,3.75
1480626364672777,4.0625,-2.9375,1.8125
1480626364689320,5.8125,-2.125,-0.4375
1480626364719900,4.1875,-0.875,-1.1875
1480626364732938,1.375,-1.3125,-1.8125
1480626364748980,-1.0625,-0.3125,0.125
1480626364772540,-0.25,-0.75,0.4375
1480626364800113,2.25,0.0625,-2.625
1480626364809137,-2.6875,-0.5625,-3.375
1480626364831698,-0.5,-0.8125,-2.75
1480626364854258,0.625,0.3125,-1.9375
1480626364869799,-1.3125,0.5,-0.125
1480626364891859,-2.1875,0.625,1
1480626364912913,-0.6875,0.625,0.75
1480626364929960,0.625,0.375,0.1875
1480626364957531,1.8125,-0.5625,-0.8125
1480626364972573,3.8125,-1,-1.125
1480626364989117,2.5625,-1.4375,-1.0625
1480626365011676,1.6875,-1.25,-1.0625
1480626365034237,1.5625,-0.875,-1.125
1480626365049277,0.5625,-0.4375,-0.5625
1480626365071335,0.6875,-0.5,-0.25
1480626365109941,2.1875,-0.3125,0
1480626365111943,2.75,0.0625,-0.375
1480626365132999,1.6875,0.3125,-0.4375
1480626365154055,0.5625,0.25,0
1480626365182633,0.0625,-0.0625,1.625
1480626365191655,1.9375,0.75,0.5625
1480626365214215,2.0625,0.3125,0.0625
1480626365228252,-0.375,-0.125,0.4375
1480626365251814,-0.125,0,0
1480626365274375,-0.875,0.125,0.4375
1480626365289415,0,0.25,-0.375
1480626365326515,-0.5625,-0.0625,-0.1875
1480626365334034,-1.1875,-0.125,-0.375
