timestamp,roll,pitch,yaw
1480626299118364,-1.07975,0.030948,0.14759
1480626299129900,-1.08029,0.0310962,0.147513
1480626299140425,-1.08032,0.0310932,0.147522
1480626299168999,-1.08032,0.0310932,0.147522
1480626299188050,-1.0806,0.0308451,0.147531
1480626299200081,-1.08132,0.0307932,0.147583
1480626299221638,-1.08191,0.0306669,0.147535
1480626299276785,-1.08207,0.0306755,0.147538
1480626299282299,-1.08191,0.0306669,0.147535
1480626299284806,-1.08134,0.0308317,0.147423
1480626299305864,-1.08031,0.031072,0.147247
1480626299327921,-1.07942,0.0312198,0.14713
1480626299366022,-1.07886,0.0312806,0.147081
1480626299386577,-1.07815,0.0312282,0.147092
1480626299393094,-1.07728,0.0311047,0.146994
1480626299416658,-1.07655,0.0313239,0.146985
1480626299419164,-1.07655,0.0316786,0.147346
1480626299448242,-1.07625,0.0319504,0.147604
1480626299470300,-1.07552,0.032399,0.147745
1480626299489855,-1.07552,0.032399,0.147745
1480626299500379,-1.07552,0.032399,0.147745
1480626299523441,-1.07536,0.0323902,0.147742
1480626299559537,-1.07501,0.0313969,0.14804
1480626299562044,-1.07399,0.0320542,0.148334
1480626299582599,-1.07396,0.0321385,0.147996
1480626299605159,-1.0747,0.0319399,0.148279
1480626299642761,-1.07541,0.0320551,0.148374
1480626299658301,-1.0754,0.0321597,0.148311
1480626299665319,-1.07584,0.0320454,0.148534
1480626299687880,-1.07614,0.0319614,0.148594
1480626299718461,-1.07614,0.0319614,0.148594
1480626299723975,-1.07615,0.0318569,0.148656
1480626299755565,-1.07615,0.0318569,0.148656
1480626299779121,-1.07615,0.0318569,0.148656
1480626299783633,-1.07571,0.0320962,0.148645
1480626299807697,-1.07571,0.0320962,0.148645
1480626299830759,-1.07571,0.0320962,0.148645
1480626299842289,-1.07571,0.0320962,0.148645
1480626299860339,-1.07571,0.0320962,0.148645
1480626299883400,-1.07512,0.0323266,0.148632
1480626299921501,-1.07512,0.0323266,0.148632
1480626299926514,-1.07512,0.0323266,0.148632
1480626299947570,-1.075,0.0322103,0.1487
1480626299973140,-1.075,0.0321478,0.148594
1480626300004220,-1.07513,0.0321596,0.148588
1480626300024273,-1.07513,0.0321596,0.148588
1480626300025777,-1.07512,0.0323266,0.148632
1480626300046833,-1.07512,0.0323266,0.148632
1480626300062375,-1.07499,0.0323149,0.148637
1480626300082931,-1.07499,0.0323149,0.148637
1480626300107495,-1.07483,0.0323061,0.148634
1480626300128050,-1.07486,0.0323031,0.148643
1480626300143090,-1.07486,0.0323031,0.148643
1480626300166653,-1.0747,0.0322943,0.14864
1480626300190717,-1.0747,0.0322943,0.14864
1480626300202749,-1.07385,0.0319801,0.148233
1480626300219794,-1.07385,0.032147,0.148277
1480626300242353,-1.07487,0.0321361,0.1486
1480626300285970,-1.0747,0.0320649,0.148491
1480626300311538,-1.0747,0.0320649,0.148491
1480626300325576,-1.0747,0.0320649,0.148491
1480626300330589,-1.0747,0.0320649,0.148491
1480626300340115,-1.07428,0.0321996,0.148543
1480626300362173,-1.07428,0.0321996,0.148543
1480626300384733,-1.07427,0.0323041,0.14848
1480626300399271,-1.0744,0.0323159,0.148474
1480626300421831,-1.07427,0.0323666,0.148586
1480626300468455,-1.07427,0.0323666,0.148586
1480626300473469,-1.07426,0.0324711,0.148524
1480626300481992,-1.0741,0.0324623,0.148521
1480626300504551,-1.07426,0.0324711,0.148524
1480626300525607,-1.0741,0.0324623,0.148521
1480626300549672,-1.07426,0.0324711,0.148524
1480626300564711,-1.07426,0.0324711,0.148524
1480626300588274,-1.07426,0.0324711,0.148524
1480626300616850,-1.07426,0.0324711,0.148524
1480626300640914,-1.07353,0.0326899,0.148516
1480626300660968,-1.07353,0.0326899,0.148516
1480626300670996,-1.07337,0.0326811,0.148513
1480626300690547,-1.07338,0.0327435,0.148619
1480626300699570,-1.07338,0.0327435,0.148619
1480626300722132,-1.07338,0.0327435,0.148619
1480626300750706,-1.07337,0.0328481,0.148557
1480626300765747,-1.07337,0.0328481,0.148557
1480626300781789,-1.07337,0.0328481,0.148557
1480626300804349,-1.07337,0.0328481,0.148557
1480626300834930,-1.07324,0.0328363,0.148562
1480626300842451,-1.07324,0.0328363,0.148562
1480626300864509,-1.07324,0.0328363,0.148562
1480626300879550,-1.07324,0.0328363,0.148562
1480626300910130,-1.07382,0.0327729,0.148619
1480626300940714,-1.07382,0.0327729,0.148619
1480626300946729,-1.07382,0.0328774,0.148557
1480626300962269,-1.07379,0.0328803,0.148548
1480626300992850,-1.07382,0.0328774,0.148557
1480626301021427,-1.07382,0.0328774,0.148557
1480626301029949,-1.07409,0.0328587,0.148714
1480626301044488,-1.07439,0.0326078,0.14873
1480626301066045,-1.07439,0.0326078,0.14873
1480626301096125,-1.07439,0.0326078,0.14873
1480626301104648,-1.07439,0.0326702,0.148836
1480626301133223,-1.07438,0.0327748,0.148773
1480626301141750,-1.07438,0.0327748,0.148773
1480626301164307,-1.07438,0.0327748,0.148773
1480626301186867,-1.07481,0.032765,0.148933
1480626301216951,-1.07468,0.0327532,0.148939
1480626301224466,-1.07466,0.0327562,0.14893
1480626301245522,-1.07465,0.0326937,0.148824
1480626301269086,-1.07468,0.0326908,0.148833
1480626301301672,-1.07468,0.0327532,0.148939
1480626301307192,-1.07481,0.032765,0.148933
1480626301322229,-1.07481,0.032765,0.148933
1480626301351807,-1.07481,0.0328695,0.14887
1480626301380382,-1.07494,0.0327768,0.148927
1480626301390909,-1.07497,0.0327738,0.148936
1480626301410461,-1.07524,0.0328599,0.14903
1480626301433022,-1.07524,0.0328599,0.14903
1480626301442046,-1.07524,0.0328599,0.14903
1480626301464606,-1.07524,0.0328599,0.14903
1480626301494685,-1.0754,0.0328687,0.149033
1480626301501705,-1.0754,0.0328687,0.149033
1480626301547326,-1.0754,0.0328687,0.149033
1480626301549832,-1.07582,0.0327966,0.149087
1480626301593448,-1.07625,0.0327245,0.149141
1480626301607486,-1.07625,0.0327245,0.149141
1480626301609992,-1.07668,0.0326524,0.149195
1480626301667647,-1.07715,0.0324103,0.149215
1480626301670655,-1.07755,0.0322787,0.149154
1480626301676168,-1.07771,0.0322875,0.149157
1480626301689705,-1.07771,0.0323501,0.149263
1480626301710259,-1.07771,0.0323501,0.149263
1480626301741843,-1.07815,0.032111,0.149274
1480626301744350,-1.07815,0.032111,0.149274
1480626301771948,-1.07815,0.032111,0.149274
1480626301787465,-1.07816,0.0320066,0.149337
1480626301808019,-1.0786,0.0321405,0.149275
1480626301824563,-1.07928,0.0322593,0.14936
1480626301864169,-1.07944,0.0322681,0.149363
1480626301883219,-1.07898,0.032343,0.1493
1480626301892744,-1.07898,0.0324057,0.149406
1480626301915304,-1.07898,0.0324057,0.149406
1480626301935358,-1.07901,0.0324027,0.149415
1480626301946387,-1.07901,0.03234,0.149309
1480626301966941,-1.07885,0.0323312,0.149306
1480626301989506,-1.07885,0.0323312,0.149306
1480626302004543,-1.07886,0.0322268,0.149369
1480626302027102,-1.07901,0.03234,0.149309
1480626302049663,-1.07898,0.0324057,0.149406
1480626302065203,-1.07898,0.0324057,0.149406
1480626302086761,-1.07898,0.0324057,0.149406
1480626302107817,-1.07898,0.0324057,0.149406
1480626302139401,-1.07901,0.0324027,0.149415
1480626302146921,-1.07901,0.03234,0.149309
1480626302167977,-1.07901,0.03234,0.149309
1480626302199561,-1.07902,0.0322356,0.149372
1480626302214099,-1.07901,0.03234,0.149309
1480626302231144,-1.07914,0.0323519,0.149303
1480626302244681,-1.07914,0.0323519,0.149303
1480626302266743,-1.07914,0.0323519,0.149303
1480626302288300,-1.07914,0.0323519,0.149303
1480626302304340,-1.07914,0.0323519,0.149303
1480626302334419,-1.07914,0.0323519,0.149303
1480626302365002,-1.07914,0.0323519,0.149303
1480626302367006,-1.07914,0.0323519,0.149303
1480626302387060,-1.07914,0.0323519,0.149303
1480626302417640,-1.07914,0.0324145,0.149409
1480626302424659,-1.07914,0.0324145,0.149409
1480626302446719,-1.07927,0.0324264,0.149403
1480626302477300,-1.07914,0.0324145,0.149409
1480626302508381,-1.07914,0.0324145,0.149409
1480626302520916,-1.07914,0.0324145,0.149409
1480626302530944,-1.07914,0.0324145,0.149409
1480626302550494,-1.07898,0.0324057,0.149406
1480626302580574,-1.07898,0.0324057,0.149406
1480626302605644,-1.07898,0.0324057,0.149406
1480626302610654,-1.07914,0.0324145,0.149409
1480626302634721,-1.07914,0.0324145,0.149409
1480626302656778,-1.07898,0.0324057,0.149406
1480626302663796,-1.07897,0.0325101,0.149343
1480626302701897,-1.07901,0.0324027,0.149415
1480626302725961,-1.07885,0.0323939,0.149412
1480626302746515,-1.07885,0.0323939,0.149412
1480626302753033,-1.07856,0.0323106,0.149309
1480626302785119,-1.07856,0.0323106,0.149309
1480626302801162,-1.07856,0.0323106,0.149309
1480626302807178,-1.07856,0.0323106,0.149309
1480626302829236,-1.07856,0.0323106,0.149309
1480626302850793,-1.07856,0.0323106,0.149309
1480626302880372,-1.07859,0.0323076,0.149318
1480626302890399,-1.07843,0.0322988,0.149315
1480626302911956,-1.07843,0.0322988,0.149315
1480626302934516,-1.07843,0.0322988,0.149315
1480626302950058,-1.07859,0.0323076,0.149318
1480626302970614,-1.07859,0.0323076,0.149318
1480626303001194,-1.07856,0.0323106,0.149309
1480626303023753,-1.07859,0.0323076,0.149318
1480626303030772,-1.07843,0.0322988,0.149315
1480626303063359,-1.07715,0.0320373,0.149289
1480626303076894,-1.07714,0.0321418,0.149226
1480626303097950,-1.07715,0.0320373,0.149289
1480626303106982,-1.07658,0.032202,0.149177
1480626303130040,-1.07599,0.0323278,0.149226
1480626303158111,-1.07599,0.0323278,0.149226
1480626303167135,-1.07599,0.0323278,0.149226
1480626303189695,-1.07599,0.0323278,0.149226
1480626303211759,-1.07586,0.032316,0.149232
1480626303226794,-1.07586,0.032316,0.149232
1480626303249354,-1.07586,0.032316,0.149232
1480626303277930,-1.0757,0.0323072,0.149229
1480626303300491,-1.0757,0.0323072,0.149229
1480626303310015,-1.0757,0.0323072,0.149229
1480626303333076,-1.0757,0.0323072,0.149229
1480626303354637,-1.0757,0.0323072,0.149229
1480626303375690,-1.0757,0.0323072,0.149229
1480626303391733,-1.07573,0.0323667,0.149344
1480626303406773,-1.07557,0.0323579,0.149341
1480626303436853,-1.07557,0.0322954,0.149235
1480626303451894,-1.07544,0.0322836,0.149241
1480626303466431,-1.07544,0.0322836,0.149241
1480626303503028,-1.07544,0.0322836,0.149241
1480626303535115,-1.07544,0.0322836,0.149241
1480626303537621,-1.07544,0.0323461,0.149347
1480626303558175,-1.07544,0.0323461,0.149347
1480626303580237,-1.07527,0.0324418,0.149281
1480626303600287,-1.07527,0.0324418,0.149281
1480626303609812,-1.07512,0.0323284,0.149341
1480626303633376,-1.07515,0.0323254,0.14935
1480626303662954,-1.07515,0.0323254,0.14935
1480626303669472,-1.07515,0.0323254,0.14935
1480626303692033,-1.07514,0.03243,0.149287
1480626303715093,-1.07514,0.03243,0.149287
1480626303729632,-1.07514,0.03243,0.149287
1480626303752191,-1.07514,0.03243,0.149287
1480626303805332,-1.07498,0.0324211,0.149284
1480626303813855,-1.07485,0.0324093,0.14929
1480626303827893,-1.07485,0.0324093,0.14929
1480626303832906,-1.07485,0.0324093,0.14929
1480626303849951,-1.07469,0.0324005,0.149287
1480626303879530,-1.07469,0.0324005,0.149287
1480626303894570,-1.07469,0.0324005,0.149287
1480626303909612,-1.07472,0.0323975,0.149296
1480626303932170,-1.07456,0.0323887,0.149293
1480626303969771,-1.07455,0.0324932,0.14923
1480626303972281,-1.0744,0.0323799,0.14929
1480626303993335,-1.07443,0.0323769,0.149298
1480626304012885,-1.07443,0.0323769,0.149298
1480626304057503,-1.07427,0.0323681,0.149295
1480626304090090,-1.07443,0.0323769,0.149298
1480626304095103,-1.07443,0.0323769,0.149298
1480626304105135,-1.07443,0.0323769,0.149298
1480626304126188,-1.07443,0.0323769,0.149298
1480626304133205,-1.07443,0.0325439,0.149342
1480626304157269,-1.07427,0.0324726,0.149233
1480626304172810,-1.07427,0.0324726,0.149233
1480626304192864,-1.07427,0.0323681,0.149295
1480626304209909,-1.07427,0.0323681,0.149295
1480626304239491,-1.07427,0.0323681,0.149295
1480626304277589,-1.07427,0.0323681,0.149295
1480626304281099,-1.07427,0.0325351,0.149339
1480626304307168,-1.07427,0.0325351,0.149339
1480626304335242,-1.07427,0.0325351,0.149339
1480626304353290,-1.07414,0.0325233,0.149345
1480626304360810,-1.07414,0.0325233,0.149345
1480626304374848,-1.07414,0.0325233,0.149345
1480626304388885,-1.07414,0.0325233,0.149345
1480626304411946,-1.07414,0.0325233,0.149345
1480626304434506,-1.07414,0.0325233,0.149345
1480626304449046,-1.07414,0.0325233,0.149345
1480626304472110,-1.07414,0.0325233,0.149345
1480626304494667,-1.07414,0.0325233,0.149345
1480626304516726,-1.07414,0.0325233,0.149345
1480626304554830,-1.07414,0.0325233,0.149345
1480626304558336,-1.07398,0.0325144,0.149342
1480626304584405,-1.07398,0.0325144,0.149342
1480626304600950,-1.07398,0.0325144,0.149342
1480626304615489,-1.07398,0.0325144,0.149342
1480626304637046,-1.07414,0.0325233,0.149345
1480626304652588,-1.07414,0.0325233,0.149345
1480626304682165,-1.07414,0.0325233,0.149345
1480626304688682,-1.07441,0.0324423,0.149396
1480626304712246,-1.07444,0.0324393,0.149404
1480626304734805,-1.07444,0.0324393,0.149404
1480626304762880,-1.07444,0.0324393,0.149404
1480626304771910,-1.07427,0.0323681,0.149295
1480626304840086,-1.07444,0.0324393,0.149404
1480626304842593,-1.07444,0.0324393,0.149404
1480626304864652,-1.07443,0.0323769,0.149298
1480626304885707,-1.07443,0.0323769,0.149298
1480626304906762,-1.07443,0.0323769,0.149298
1480626304915786,-1.07444,0.0322724,0.149361
1480626304944364,-1.07444,0.0322724,0.149361
1480626304959402,-1.07428,0.0322635,0.149358
1480626304980459,-1.07428,0.0322635,0.149358
1480626304995499,-1.07444,0.0322724,0.149361
1480626305012043,-1.07444,0.0322724,0.149361
1480626305042123,-1.07444,0.0322724,0.149361
1480626305057163,-1.07399,0.0322429,0.149361
1480626305072203,-1.07399,0.0322429,0.149361
1480626305110304,-1.07402,0.0322399,0.14937
1480626305116320,-1.07402,0.0322399,0.14937
1480626305139382,-1.07387,0.0322311,0.149367
1480626305154927,-1.07402,0.0322399,0.14937
1480626305192523,-1.07402,0.0322399,0.14937
1480626305206061,-1.07399,0.0322429,0.149361
1480626305216086,-1.07415,0.0322517,0.149364
1480626305237143,-1.07357,0.0323774,0.149413
1480626305252182,-1.07357,0.0323774,0.149413
1480626305274240,-1.07357,0.0323774,0.149413
1480626305296800,-1.07357,0.0323774,0.149413
1480626305355462,-1.07357,0.0323774,0.149413
1480626305367488,-1.07357,0.032315,0.149307
1480626305388544,-1.07357,0.032315,0.149307
1480626305390049,-1.07357,0.0323774,0.149413
1480626305396064,-1.07357,0.0323774,0.149413
1480626305417120,-1.07357,0.0323774,0.149413
1480626305431659,-1.07357,0.0323774,0.149413
1480626305460235,-1.07357,0.0323774,0.149413
1480626305476779,-1.07357,0.0323774,0.149413
1480626305491318,-1.07357,0.032315,0.149307
1480626305514379,-1.07357,0.032315,0.149307
1480626305553484,-1.07357,0.032315,0.149307
1480626305572536,-1.07357,0.0323774,0.149413
1480626305583564,-1.07357,0.0323774,0.149413
1480626305611637,-1.07357,0.0323774,0.149413
1480626305614145,-1.07357,0.0323774,0.149413
1480626305656758,-1.07357,0.0323774,0.149413
1480626305666785,-1.07357,0.032315,0.149307
1480626305677815,-1.07316,0.032178,0.149378
1480626305695361,-1.07274,0.0321455,0.149387
1480626305716918,-1.07274,0.0322079,0.149493
1480626305739981,-1.07274,0.0322079,0.149493
1480626305763041,-1.07274,0.0322079,0.149493
1480626305777079,-1.07274,0.0322079,0.149493
1480626305798134,-1.07274,0.0322079,0.149493
1480626305821700,-1.07274,0.0322079,0.149493
1480626305837740,-1.07274,0.0322079,0.149493
1480626305857793,-1.07258,0.032199,0.14949
1480626305881857,-1.07258,0.032199,0.14949
1480626305922967,-1.07258,0.032199,0.14949
1480626305936503,-1.07258,0.032199,0.14949
1480626305940514,-1.07258,0.032199,0.14949
1480626305964577,-1.07258,0.032199,0.14949
1480626305985633,-1.07258,0.032199,0.14949
1480626305995159,-1.07258,0.032199,0.14949
1480626306016716,-1.07258,0.032199,0.14949
1480626306037772,-1.07216,0.0321042,0.149393
1480626306055319,-1.07203,0.0320924,0.149398
1480626306077377,-1.07203,0.0320924,0.149398
1480626306099437,-1.07216,0.0321042,0.149393
1480626306137537,-1.07216,0.0321042,0.149393
1480626306140045,-1.07216,0.0321042,0.149393
1480626306220759,-1.07216,0.0321042,0.149393
1480626306234796,-1.07215,0.0322089,0.14933
1480626306240313,-1.07216,0.0321042,0.149393
1480626306270391,-1.07203,0.0320924,0.149398
1480626306294456,-1.07203,0.0320924,0.149398
1480626306296962,-1.07216,0.0321042,0.149393
1480626306317516,-1.07216,0.0321042,0.149393
1480626306347095,-1.07215,0.0322089,0.14933
1480626306353612,-1.07202,0.0322594,0.149442
1480626306390712,-1.07202,0.0322594,0.149442
1480626306416780,-1.07202,0.0322594,0.149442
1480626306444857,-1.07202,0.0322594,0.149442
1480626306459894,-1.07186,0.0321882,0.149333
1480626306462402,-1.07186,0.0321882,0.149333
1480626306498498,-1.07186,0.0322505,0.149439
1480626306503013,-1.07186,0.0322505,0.149439
1480626306527073,-1.07202,0.0322594,0.149442
1480626306542115,-1.07186,0.0322505,0.149439
1480626306580217,-1.07186,0.0322505,0.149439
1480626306583226,-1.07189,0.0322476,0.149448
1480626306600268,-1.07173,0.0322387,0.149445
1480626306624333,-1.07173,0.0322387,0.149445
1480626306639874,-1.07173,0.0322387,0.149445
1480626306671459,-1.07173,0.0322387,0.149445
1480626306723095,-1.07173,0.0322387,0.149445
1480626306736130,-1.07173,0.0322387,0.149445
1480626306754177,-1.07172,0.0323434,0.149382
1480626306768215,-1.07172,0.0323434,0.149382
1480626306780247,-1.07172,0.0323434,0.149382
1480626306796791,-1.07173,0.0322387,0.149445
1480626306825371,-1.07173,0.0322387,0.149445
1480626306857453,-1.07173,0.0322387,0.149445
1480626306859963,-1.07172,0.0323434,0.149382
1480626306879516,-1.07172,0.0323434,0.149382
1480626306901571,-1.07172,0.0323434,0.149382
1480626306938670,-1.07172,0.0323434,0.149382
1480626306949196,-1.07172,0.0323434,0.149382
1480626306960728,-1.07159,0.0323316,0.149388
1480626306984289,-1.07159,0.0323939,0.149494
1480626307013868,-1.07159,0.0323316,0.149388
1480626307028406,-1.07159,0.0323316,0.149388
1480626307044450,-1.07159,0.0323316,0.149388
1480626307065508,-1.07159,0.0323939,0.149494
1480626307080546,-1.07158,0.0324985,0.149432
1480626307097594,-1.07143,0.0324896,0.149429
1480626307127170,-1.07201,0.0325933,0.149529
1480626307142726,-1.07228,0.0327186,0.149464
1480626307156750,-1.07228,0.0327186,0.149464
1480626307180311,-1.07213,0.0327097,0.149461
1480626307215906,-1.07213,0.0327097,0.149461
1480626307232453,-1.07228,0.0327186,0.149464
1480626307248494,-1.07213,0.0327097,0.149461
1480626307262029,-1.07228,0.0328232,0.149401
1480626307290606,-1.07228,0.0328232,0.149401
1480626307299628,-1.07228,0.0328232,0.149401
1480626307328204,-1.07212,0.0328143,0.149398
1480626307336227,-1.07212,0.0328143,0.149398
1480626307360291,-1.07212,0.0328143,0.149398
1480626307381848,-1.07212,0.0328143,0.149398
1480626307410925,-1.07212,0.0328143,0.149398
1480626307428471,-1.07212,0.0328143,0.149398
1480626307442008,-1.07228,0.0328855,0.149507
1480626307462562,-1.07228,0.0328855,0.149507
1480626307488632,-1.07228,0.0328855,0.149507
1480626307518210,-1.07212,0.0328766,0.149504
1480626307523226,-1.07212,0.0328766,0.149504
1480626307547287,-1.07212,0.0328143,0.149398
1480626307569347,-1.07212,0.0328143,0.149398
1480626307599928,-1.07255,0.0328045,0.149558
1480626307602434,-1.07255,0.0328045,0.149558
1480626307622489,-1.07271,0.0328134,0.149561
1480626307650562,-1.07271,0.0328134,0.149561
1480626307659587,-1.07297,0.0328994,0.149655
1480626307696183,-1.07297,0.0328994,0.149655
1480626307710722,-1.07297,0.0328994,0.149655
1480626307719245,-1.07298,0.0327948,0.149718
1480626307741805,-1.07298,0.0327948,0.149718
1480626307771887,-1.073,0.0327294,0.149621
1480626307779405,-1.07297,0.0327324,0.149612
1480626307802467,-1.07298,0.0327948,0.149718
1480626307823022,-1.07298,0.0327948,0.149718
1480626307853103,-1.07297,0.0328994,0.149655
1480626307884686,-1.07297,0.0328994,0.149655
1480626307887192,-1.07297,0.0328994,0.149655
1480626307900729,-1.07298,0.0327948,0.149718
1480626307929304,-1.07297,0.0327324,0.149612
1480626307959884,-1.07298,0.0327948,0.149718
1480626307962392,-1.07314,0.0328036,0.149721
1480626307981944,-1.07313,0.0329082,0.149658
1480626308010521,-1.07313,0.0329082,0.149658
1480626308050125,-1.07313,0.0329082,0.149658
1480626308052632,-1.07313,0.0329082,0.149658
1480626308066168,-1.07313,0.0329082,0.149658
1480626308079704,-1.07313,0.0329082,0.149658
1480626308102263,-1.07314,0.0328036,0.149721
1480626308124827,-1.07314,0.0328036,0.149721
1480626308162423,-1.07314,0.0328036,0.149721
1480626308164931,-1.07314,0.0328036,0.149721
1480626308184483,-1.07327,0.0328155,0.149715
1480626308207044,-1.07326,0.03292,0.149652
1480626308245143,-1.07313,0.0329082,0.149658
1480626308247149,-1.07314,0.0328036,0.149721
1480626308259194,-1.07314,0.0328036,0.149721
1480626308289262,-1.07314,0.0328036,0.149721
1480626308305806,-1.07313,0.0327413,0.149615
1480626308320345,-1.07314,0.0328036,0.149721
1480626308349422,-1.07314,0.0328036,0.149721
1480626308370480,-1.0731,0.0329112,0.14965
1480626308379000,-1.0731,0.0329112,0.14965
1480626308402063,-1.07313,0.0329082,0.149658
1480626308433145,-1.07313,0.0329082,0.149658
1480626308438659,-1.07313,0.0329082,0.149658
1480626308461720,-1.07314,0.0328036,0.149721
1480626308484783,-1.07298,0.0327948,0.149718
1480626308512856,-1.07313,0.0327413,0.149615
1480626308521881,-1.07314,0.0328036,0.149721
1480626308551961,-1.07314,0.0328036,0.149721
1480626308574521,-1.07313,0.0329082,0.149658
1480626308583043,-1.07313,0.0329082,0.149658
1480626308606104,-1.07313,0.0329082,0.149658
1480626308625661,-1.07313,0.0329082,0.149658
1480626308649219,-1.07313,0.0329082,0.149658
1480626308664259,-1.07298,0.0327948,0.149718
1480626308685315,-1.07313,0.0329082,0.149658
1480626308709382,-1.07314,0.0328036,0.149721
1480626308724926,-1.07313,0.0329082,0.149658
1480626308745476,-1.07313,0.0329082,0.149658
1480626308762019,-1.07313,0.0329082,0.149658
1480626308792601,-1.07313,0.0329082,0.149658
1480626308805635,-1.07313,0.0329082,0.149658
1480626308829198,-1.07297,0.0328994,0.149655
1480626308859278,-1.07297,0.0328994,0.149655
1480626308890867,-1.07298,0.0327948,0.149718
1480626308895875,-1.07297,0.0328994,0.149655
1480626308905903,-1.07297,0.0328994,0.149655
1480626308932974,-1.07297,0.0328994,0.149655
1480626308942001,-1.07297,0.0328994,0.149655
1480626308965060,-1.07297,0.0328994,0.149655
1480626308986618,-1.07297,0.0328994,0.149655
1480626309009680,-1.07297,0.0328994,0.149655
1480626309024720,-1.073,0.0328964,0.149664
1480626309046777,-1.07284,0.0328875,0.149661
1480626309069838,-1.073,0.0328964,0.149664
1480626309084376,-1.07297,0.0328994,0.149655
1480626309129999,-1.07296,0.0330039,0.149593
1480626309132505,-1.07296,0.0330039,0.149593
1480626309152056,-1.07296,0.0330039,0.149593
1480626309174117,-1.07299,0.0330634,0.149708
1480626309190660,-1.07283,0.0330545,0.149705
1480626309204700,-1.07283,0.0330545,0.149705
1480626309234276,-1.07283,0.0329921,0.149599
1480626309241295,-1.07283,0.0330545,0.149705
1480626309265861,-1.07283,0.0330545,0.149705
1480626309287418,-1.07298,0.033168,0.149645
1480626309301455,-1.07296,0.0330663,0.149699
1480626309346073,-1.07295,0.0331709,0.149636
1480626309356099,-1.07282,0.0331591,0.149642
1480626309361113,-1.07282,0.0331591,0.149642
1480626309384174,-1.07282,0.0331591,0.149642
1480626309406734,-1.07282,0.0331591,0.149642
1480626309435816,-1.07282,0.0331591,0.149642
1480626309444334,-1.07282,0.0331591,0.149642
1480626309480932,-1.07282,0.0331591,0.149642
1480626309495476,-1.07282,0.0331591,0.149642
1480626309512014,-1.07282,0.0331591,0.149642
1480626309541091,-1.07282,0.0331591,0.149642
1480626309548111,-1.07282,0.0331591,0.149642
1480626309570672,-1.07266,0.0331502,0.149639
1480626309594234,-1.07266,0.0331502,0.149639
1480626309622808,-1.07266,0.0331502,0.149639
1480626309637852,-1.07266,0.0331502,0.149639
1480626309646873,-1.07266,0.0331502,0.149639
1480626309685476,-1.07266,0.0331502,0.149639
1480626309687982,-1.0724,0.0330019,0.149439
1480626309707535,-1.0724,0.0330019,0.149439
1480626309737118,-1.0724,0.0330019,0.149439
1480626309745135,-1.07224,0.0329931,0.149436
1480626309766693,-1.07224,0.0329931,0.149436
1480626309796772,-1.07224,0.0329931,0.149436
1480626309812314,-1.07224,0.0329931,0.149436
1480626309826852,-1.07224,0.0329931,0.149436
1480626309849412,-1.07224,0.0329931,0.149436
1480626309877486,-1.07223,0.0330977,0.149373
1480626309904072,-1.07223,0.0330977,0.149373
1480626309909572,-1.07223,0.03316,0.14948
1480626309924613,-1.07226,0.0331571,0.149488
1480626309961714,-1.0721,0.0331482,0.149485
1480626309993294,-1.0721,0.0331482,0.149485
1480626309998309,-1.0721,0.0331482,0.149485
1480626310008335,-1.0721,0.0331482,0.149485
1480626310029391,-1.07251,0.0332853,0.149414
1480626310044432,-1.07309,0.033389,0.149514
1480626310075013,-1.07308,0.0334936,0.149452
1480626310097072,-1.07308,0.0334936,0.149452
1480626310104093,-1.07308,0.0334936,0.149452
1480626310127151,-1.07292,0.0334847,0.149449
1480626310150213,-1.07292,0.0334847,0.149449
1480626310163749,-1.07292,0.0334847,0.149449
1480626310186817,-1.07308,0.0334936,0.149452
1480626310210372,-1.07308,0.0334936,0.149452
1480626310230426,-1.07308,0.0334936,0.149452
1480626310246970,-1.07308,0.0334936,0.149452
1480626310270536,-1.07308,0.0334936,0.149452
1480626310298107,-1.07292,0.0334847,0.149449
1480626310313145,-1.07292,0.0334847,0.149449
1480626310330696,-1.07292,0.0334847,0.149449
1480626310344228,-1.07292,0.0334847,0.149449
1480626310366791,-1.07292,0.033547,0.149555
1480626310389348,-1.07308,0.0335559,0.149558
1480626310411909,-1.07308,0.0335559,0.149558
1480626310432965,-1.07308,0.0335559,0.149558
1480626310449509,-1.07308,0.0335559,0.149558
1480626310470565,-1.07292,0.033547,0.149555
1480626310487110,-1.07292,0.033547,0.149555
1480626310516688,-1.07279,0.0334729,0.149455
1480626310530224,-1.07295,0.0334818,0.149457
1480626310546767,-1.07319,0.0338393,0.149533
1480626310570336,-1.07319,0.0338393,0.149533
1480626310590884,-1.07335,0.0338482,0.149536
1480626310606927,-1.07335,0.0338482,0.149536
1480626310629488,-1.07319,0.0338393,0.149533
1480626310650544,-1.07376,0.0338604,0.149252
1480626310667089,-1.07415,0.0337897,0.148587
1480626310689647,-1.07425,0.0341761,0.147791
1480626310710703,-1.07555,0.0342256,0.147232
1480626310734267,-1.0765,0.0343224,0.146764
1480626310749306,-1.07706,0.0346949,0.146135
1480626310770365,-1.07813,0.0352799,0.145526
1480626310787410,-1.07997,0.0355372,0.144994
1480626310825008,-1.08127,0.0375827,0.14466
1480626310830522,-1.08319,0.0388991,0.144916
1480626310847066,-1.08586,0.0397877,0.145304
1480626310877146,-1.08738,0.0410329,0.145736
1480626310891684,-1.089,0.0423086,0.145716
1480626310906725,-1.09108,0.0433672,0.145979
1480626310929285,-1.09261,0.0443199,0.146153
1480626310959365,-1.09085,0.0450888,0.145795
1480626310967387,-1.08938,0.0453788,0.145299
1480626310997467,-1.08966,0.0453765,0.14502
1480626311012007,-1.09049,0.0457743,0.145082
1480626311027546,-1.09008,0.0454713,0.145114
1480626311049605,-1.08881,0.0451238,0.144725
1480626311071664,-1.08868,0.0451126,0.144732
1480626311087209,-1.08865,0.0451148,0.144723
1480626311133327,-1.08865,0.0451148,0.144723
1480626311145861,-1.08881,0.0451238,0.144725
1480626311155887,-1.0885,0.0452486,0.144498
1480626311170431,-1.08794,0.0451838,0.144241
1480626311191984,-1.08668,0.0446289,0.143978
1480626311215046,-1.08583,0.0445445,0.143726
1480626311244624,-1.08584,0.044314,0.143578
1480626311253651,-1.08673,0.0438088,0.143331
1480626311266181,-1.08715,0.0434608,0.142687
1480626311289242,-1.08785,0.04361,0.141899
1480626311319824,-1.08924,0.0441684,0.141447
1480626311326341,-1.09005,0.0446462,0.141172
1480626311349403,-1.08974,0.0451224,0.140594
1480626311377978,-1.08898,0.0453398,0.139871
1480626311410065,-1.08825,0.0454759,0.139486
1480626311413574,-1.08725,0.0457173,0.139326
1480626311432122,-1.08592,0.0459826,0.138993
1480626311461702,-1.08409,0.0457036,0.138559
1480626311476742,-1.08217,0.0463919,0.138534
1480626311491781,-1.0813,0.0468753,0.138517
1480626311514341,-1.08083,0.047412,0.138755
1480626311536903,-1.0807,0.04759,0.13908
1480626311551941,-1.07983,0.0476574,0.139306
1480626311582021,-1.07929,0.0475121,0.139388
1480626311604582,-1.07929,0.0475121,0.139388
1480626311612101,-1.07929,0.0475121,0.139388
1480626311657221,-1.07913,0.0475033,0.139386
1480626311659729,-1.07913,0.0475033,0.139386
1480626311679280,-1.07985,0.0473857,0.139326
1480626311692816,-1.08057,0.047268,0.139266
1480626311709862,-1.08128,0.0470873,0.139101
1480626311732422,-1.08216,0.0467895,0.138726
1480626311752979,-1.08318,0.0462303,0.138364
1480626311769521,-1.08377,0.0458082,0.138058
1480626311793084,-1.08467,0.045427,0.138022
1480626311820656,-1.08527,0.0449003,0.137779
1480626311829681,-1.08585,0.0442713,0.137591
1480626311852241,-1.08585,0.0442713,0.137591
1480626311881819,-1.08571,0.0443649,0.137534
1480626311902876,-1.08511,0.0445982,0.137523
1480626311941478,-1.08467,0.0450704,0.137662
1480626311958022,-1.08378,0.0454518,0.137698
1480626311963035,-1.08278,0.0458835,0.137856
1480626311972562,-1.0819,0.0459931,0.137913
1480626311995121,-1.08174,0.0459844,0.137911
1480626312008656,-1.08174,0.0459844,0.137911
1480626312039239,-1.08174,0.0460888,0.137848
1480626312054279,-1.0819,0.0460975,0.13785
1480626312069319,-1.0819,0.0460975,0.13785
1480626312091877,-1.0819,0.0460975,0.13785
1480626312114438,-1.08233,0.0461488,0.138113
1480626312128977,-1.08217,0.0461401,0.138111
1480626312152040,-1.08249,0.0458643,0.137861
1480626312174599,-1.08249,0.0458643,0.137861
1480626312195654,-1.08249,0.0458643,0.137861
1480626312217712,-1.08246,0.0458662,0.137852
1480626312240272,-1.08203,0.0459407,0.1378
1480626312256819,-1.08203,0.0459407,0.1378
1480626312271865,-1.08219,0.0459494,0.137802
1480626312294417,-1.08245,0.0464941,0.138192
1480626312308454,-1.08215,0.0464748,0.138197
1480626312332017,-1.08218,0.0464728,0.138205
1480626312354576,-1.08202,0.0464641,0.138204
1480626312377638,-1.08202,0.0464641,0.138204
1480626312392177,-1.08202,0.0464641,0.138204
1480626312414235,-1.08202,0.0464641,0.138204
1480626312436797,-1.08218,0.0464728,0.138205
1480626312467879,-1.08202,0.0464641,0.138204
1480626312487931,-1.08218,0.0465772,0.138143
1480626312512497,-1.08202,0.0465685,0.138141
1480626312515004,-1.08202,0.0466315,0.138246
1480626312535057,-1.08186,0.0466228,0.138245
1480626312563132,-1.08189,0.0466208,0.138253
1480626312571654,-1.08186,0.0466228,0.138245
1480626312594214,-1.08203,0.0462968,0.138161
1480626312623291,-1.08219,0.0463055,0.138163
1480626312633319,-1.08216,0.0463075,0.138154
1480626312654375,-1.08262,0.046294,0.13832
1480626312692476,-1.08306,0.0461783,0.13854
1480626312695985,-1.0832,0.0460846,0.138596
1480626312716038,-1.08406,0.0459578,0.138974
1480626312745116,-1.08482,0.0457382,0.139695
1480626312767176,-1.08498,0.045458,0.140152
1480626312787729,-1.08442,0.0451061,0.14035
1480626312796753,-1.08391,0.04425,0.140429
1480626312811793,-1.08378,0.0437611,0.140573
1480626312834854,-1.08398,0.0430593,0.140573
1480626312856913,-1.08313,0.0425616,0.140564
1480626312872456,-1.08247,0.0421964,0.140776
1480626312902034,-1.08137,0.0415096,0.140735
1480626312923089,-1.08112,0.0407975,0.140302
1480626312931111,-1.08056,0.0400683,0.139864
1480626312961692,-1.08057,0.0399639,0.139927
1480626313022353,-1.08141,0.0398989,0.139695
1480626313024860,-1.08242,0.0401744,0.13956
1480626313065467,-1.08242,0.0401744,0.13956
1480626313076497,-1.08226,0.0402702,0.139494
1480626313081010,-1.08226,0.0402702,0.139494
1480626313097052,-1.08226,0.0401658,0.139557
1480626313111089,-1.08226,0.0401658,0.139557
1480626313134652,-1.08226,0.0401658,0.139557
1480626313156710,-1.08298,0.0402155,0.139543
1480626313180274,-1.08298,0.0402155,0.139543
1480626313201831,-1.08314,0.0402241,0.139546
1480626313216871,-1.08313,0.0403284,0.139483
1480626313239431,-1.08313,0.0403284,0.139483
1480626313269512,-1.08298,0.0402155,0.139543
1480626313291569,-1.08341,0.0400785,0.13949
1480626313298087,-1.08369,0.0402652,0.139529
1480626313314630,-1.0837,0.0400979,0.139487
1480626313344209,-1.0841,0.0403997,0.139456
1480626313357745,-1.08481,0.0404906,0.139273
1480626313374290,-1.08538,0.0406336,0.139202
1480626313404870,-1.08578,0.0410396,0.139108
1480626313417905,-1.08606,0.0411632,0.139041
1480626313434450,-1.08649,0.0409629,0.138883
1480626313457009,-1.08649,0.0409629,0.138883
1480626313495112,-1.0869,0.041034,0.138704
1480626313497618,-1.08748,0.0410505,0.138421
1480626313524188,-1.08847,0.0412232,0.13834
1480626313545745,-1.08863,0.0412317,0.138342
1480626313561789,-1.0886,0.0413381,0.13827
1480626313577833,-1.08902,0.0413681,0.13826
1480626313597886,-1.08975,0.0415193,0.138191
1480626313620446,-1.08975,0.0415193,0.138191
1480626313636988,-1.08976,0.0414152,0.138254
1480626313658044,-1.08975,0.0415193,0.138191
1480626313675591,-1.08973,0.0414174,0.138246
1480626313696647,-1.08902,0.0414314,0.138366
1480626313718204,-1.08959,0.0417415,0.138336
1480626313743271,-1.08959,0.0417415,0.138336
1480626313770846,-1.08975,0.04175,0.138338
1480626313795911,-1.08972,0.0418155,0.138435
1480626313800422,-1.08874,0.0417447,0.138463
1480626313822984,-1.08776,0.0415309,0.138713
1480626313839527,-1.08759,0.0415224,0.138711
1480626313854567,-1.08759,0.0415224,0.138711
1480626313877629,-1.08759,0.0415224,0.138711
1480626313899186,-1.08759,0.0415224,0.138711
1480626313914226,-1.08759,0.0416266,0.138648
1480626313936788,-1.08861,0.0411931,0.138502
1480626313966867,-1.09022,0.040798,0.13835
1480626313981906,-1.09138,0.0403115,0.138094
1480626314010482,-1.09138,0.0403115,0.138094
1480626314034556,-1.09067,0.0400949,0.138066
1480626314036553,-1.08996,0.0398783,0.138038
1480626314057106,-1.08941,0.0398375,0.138054
1480626314095709,-1.08911,0.040049,0.138205
1480626314100221,-1.08851,0.0402821,0.138192
1480626314116765,-1.08794,0.0408067,0.138441
1480626314146844,-1.08718,0.0412617,0.138573
1480626314153863,-1.08717,0.0414291,0.138616
1480626314184948,-1.08704,0.0414184,0.138622
1480626314207005,-1.08704,0.0414184,0.138622
1480626314228060,-1.08704,0.0414184,0.138622
1480626314237088,-1.08662,0.0414514,0.138738
1480626314242098,-1.08662,0.0414514,0.138738
1480626314264660,-1.08662,0.0414514,0.138738
1480626314298749,-1.08661,0.0415557,0.138675
1480626314319305,-1.08661,0.0415557,0.138675
1480626314328327,-1.08661,0.0416188,0.13878
1480626314350888,-1.08675,0.041399,0.138626
1480626314378462,-1.08705,0.041251,0.13858
1480626314384979,-1.08777,0.0409656,0.138481
1480626314407037,-1.08849,0.0407843,0.138319
1480626314423581,-1.0895,0.0407895,0.138195
1480626314452159,-1.0895,0.0407895,0.138195
1480626314467197,-1.08865,0.0406663,0.13811
1480626314489757,-1.08795,0.0403455,0.138145
1480626314508808,-1.08795,0.0403455,0.138145
1480626314527357,-1.08795,0.0403455,0.138145
1480626314549918,-1.08666,0.0402578,0.138167
1480626314573984,-1.08597,0.0400802,0.137978
1480626314604562,-1.08493,0.0401814,0.13803
1480626314606567,-1.08496,0.0401792,0.138038
1480626314624617,-1.08436,0.0404123,0.138026
1480626314648680,-1.08392,0.0407583,0.137953
1480626314662215,-1.08389,0.0407605,0.137944
1480626314684776,-1.08388,0.0408648,0.137881
1480626314707336,-1.08404,0.0409363,0.137989
1480626314722375,-1.08391,0.0409256,0.137995
1480626314746440,-1.08391,0.0409256,0.137995
1480626314767496,-1.08418,0.0408428,0.138046
1480626314782536,-1.08464,0.0407662,0.138107
1480626314821139,-1.08461,0.0407684,0.138099
1480626314827156,-1.08477,0.0407769,0.138101
1480626314882301,-1.08476,0.0408812,0.138038
1480626314885814,-1.08477,0.0409442,0.138143
1480626314890323,-1.08477,0.0409442,0.138143
1480626314902355,-1.08477,0.0409442,0.138143
1480626314927922,-1.08463,0.0409335,0.13815
1480626314947475,-1.08463,0.0409335,0.13815
1480626314962515,-1.08463,0.0409335,0.13815
1480626314986080,-1.08418,0.0410731,0.138194
1480626315010142,-1.08376,0.0410431,0.138204
1480626315029693,-1.08375,0.0411474,0.138141
1480626315044733,-1.08375,0.0412104,0.138247
1480626315077320,-1.08375,0.0412104,0.138247
1480626315089853,-1.08375,0.0412104,0.138247
1480626315105396,-1.08375,0.0412104,0.138247
1480626315127453,-1.08362,0.0411997,0.138253
1480626315145000,-1.08362,0.0411997,0.138253
1480626315164552,-1.08361,0.041304,0.13819
1480626315187112,-1.08358,0.0413062,0.138182
1480626315204159,-1.08374,0.0413147,0.138184
1480626315226216,-1.08374,0.0413147,0.138184
1480626315256296,-1.08374,0.0413147,0.138184
1480626315263816,-1.08373,0.041482,0.138227
1480626315286378,-1.08319,0.0412111,0.138095
1480626315307432,-1.08303,0.0412026,0.138093
1480626315323475,-1.08362,0.0409694,0.138105
1480626315348542,-1.08362,0.0409694,0.138105
1480626315367091,-1.08362,0.0409694,0.138105
1480626315383635,-1.08362,0.0409694,0.138105
1480626315407699,-1.0839,0.0412602,0.138081
1480626315427252,-1.08447,0.04134,0.137904
1480626315443795,-1.08475,0.0410267,0.137806
1480626315464851,-1.08476,0.040692,0.137721
1480626315489416,-1.08422,0.0403799,0.137758
1480626315503956,-1.08406,0.0403084,0.13765
1480626315532030,-1.08449,0.040297,0.137808
1480626315547571,-1.08449,0.040297,0.137808
1480626315563615,-1.08449,0.04036,0.137914
1480626315585676,-1.08449,0.04036,0.137914
1480626315615252,-1.08518,0.040785,0.137816
1480626315629790,-1.08604,0.0412815,0.137826
1480626315661374,-1.08604,0.0412815,0.137826
1480626315667391,-1.08545,0.04118,0.137729
1480626315685438,-1.08532,0.0411693,0.137735
1480626315704990,-1.08532,0.0411693,0.137735
1480626315727048,-1.08531,0.0412736,0.137672
1480626315745097,-1.08531,0.0412736,0.137672
1480626315764648,-1.08631,0.0411986,0.137877
1480626315787209,-1.08744,0.041404,0.138063
1480626315805260,-1.08813,0.0421228,0.138218
1480626315824809,-1.08813,0.0421228,0.138218
1480626315850377,-1.08657,0.0420136,0.138253
1480626315879957,-1.08602,0.0414319,0.138303
1480626315885470,-1.08603,0.0413277,0.138366
1480626315910037,-1.08603,0.0413277,0.138366
1480626315939115,-1.08684,0.0421203,0.138621
1480626315944627,-1.08641,0.0421945,0.138568
1480626315967190,-1.08641,0.0421945,0.138568
1480626315989747,-1.08712,0.042348,0.13849
1480626316004788,-1.08699,0.0423373,0.138497
1480626316027348,-1.08699,0.0423373,0.138497
1480626316049909,-1.087,0.0422331,0.13856
1480626316064948,-1.087,0.0422331,0.13856
1480626316087507,-1.087,0.0422331,0.13856
1480626316126612,-1.08657,0.0422031,0.13857
1480626316129118,-1.08657,0.0422031,0.13857
1480626316157694,-1.08654,0.0423094,0.138499
1480626316188777,-1.0867,0.0423812,0.138606
1480626316193791,-1.08654,0.0423726,0.138604
1480626316210335,-1.08654,0.0423726,0.138604
1480626316229888,-1.08657,0.0423704,0.138613
1480626316246430,-1.08657,0.0422031,0.13857
1480626316267486,-1.08657,0.0422031,0.13857
1480626316289545,-1.08657,0.0422031,0.13857
1480626316306590,-1.08657,0.0422031,0.13857
1480626316343689,-1.08657,0.0422031,0.13857
1480626316349706,-1.08697,0.0425457,0.13837
1480626316373769,-1.08697,0.0425457,0.13837
1480626316403851,-1.08681,0.0425371,0.138368
1480626316409864,-1.08697,0.0425457,0.13837
1480626316456489,-1.08598,0.0423098,0.138347
1480626316463508,-1.08598,0.0423098,0.138347
1480626316478048,-1.08598,0.0422056,0.13841
1480626316486570,-1.08598,0.0422056,0.13841
1480626316508628,-1.08598,0.0423098,0.138347
1480626316540713,-1.08598,0.0423098,0.138347
1480626316546228,-1.08598,0.0423098,0.138347
1480626316567284,-1.08598,0.0423098,0.138347
1480626316592353,-1.08584,0.0422991,0.138353
1480626316621428,-1.08569,0.0421863,0.138414
1480626316627448,-1.08569,0.0421863,0.138414
1480626316659028,-1.08569,0.0421863,0.138414
1480626316681087,-1.08569,0.0421863,0.138414
1480626316687102,-1.08572,0.0421841,0.138423
1480626316712671,-1.08568,0.0422905,0.138351
1480626316728213,-1.08568,0.0422905,0.138351
1480626316763808,-1.08571,0.0422884,0.138359
1480626316769823,-1.08527,0.0421563,0.138425
1480626316792384,-1.08472,0.0421155,0.138441
1480626316807423,-1.08457,0.0420027,0.138502
1480626316829983,-1.08457,0.0420027,0.138502
1480626316847529,-1.08457,0.0420027,0.138502
1480626316870090,-1.08457,0.0420027,0.138502
1480626316889642,-1.08473,0.0420112,0.138505
1480626316907690,-1.08472,0.0421155,0.138441
1480626316930250,-1.08456,0.042107,0.138439
1480626316957322,-1.08456,0.042107,0.138439
1480626316972362,-1.08456,0.042107,0.138439
1480626316990411,-1.08443,0.0420962,0.138446
1480626317018990,-1.08443,0.0420962,0.138446
1480626317027508,-1.08443,0.0420962,0.138446
1480626317047063,-1.08456,0.042107,0.138439
1480626317069620,-1.08443,0.0420962,0.138446
1480626317088169,-1.08443,0.0420962,0.138446
1480626317114741,-1.08443,0.0420962,0.138446
1480626317129780,-1.08443,0.0420962,0.138446
1480626317148330,-1.08427,0.0420877,0.138444
1480626317187434,-1.08427,0.0420877,0.138444
1480626317215509,-1.0843,0.0419812,0.138515
1480626317237572,-1.08414,0.0419727,0.138513
1480626317251605,-1.08414,0.042077,0.13845
1480626317254112,-1.0843,0.0420855,0.138452
1480626317267647,-1.08484,0.0422936,0.138478
1480626317288703,-1.08484,0.0422936,0.138478
1480626317313770,-1.08484,0.0422936,0.138478
1480626317332319,-1.08484,0.0422936,0.138478
1480626317363402,-1.08468,0.042285,0.138476
1480626317369923,-1.08471,0.0422829,0.138484
1480626317401504,-1.08471,0.0422829,0.138484
1480626317410026,-1.08471,0.0422829,0.138484
1480626317429578,-1.08468,0.042285,0.138476
1480626317452138,-1.08468,0.042285,0.138476
1480626317474698,-1.08484,0.0422936,0.138478
1480626317489738,-1.08468,0.042285,0.138476
1480626317512298,-1.08468,0.042285,0.138476
1480626317544885,-1.08471,0.0422829,0.138484
1480626317549899,-1.08455,0.0422743,0.138482
1480626317572459,-1.08497,0.0423674,0.138577
1480626317590004,-1.08497,0.0423674,0.138577
1480626317612565,-1.08497,0.0423674,0.138577
1480626317632116,-1.08497,0.0423674,0.138577
1480626317650165,-1.08513,0.042376,0.138579
1480626317686264,-1.08497,0.0423674,0.138577
1480626317692277,-1.08497,0.0423674,0.138577
1480626317710325,-1.08498,0.0422631,0.13864
1480626317729877,-1.08498,0.0422631,0.13864
1480626317754943,-1.08498,0.0422631,0.13864
1480626317769987,-1.0854,0.0422301,0.138524
1480626317791040,-1.08614,0.0422772,0.138518
1480626317812597,-1.08612,0.0422794,0.138509
1480626317830144,-1.08612,0.0422794,0.138509
1480626317857215,-1.08612,0.0422794,0.138509
1480626317872255,-1.08658,0.0420357,0.138528
1480626317890304,-1.08658,0.0420357,0.138528
1480626317909856,-1.08658,0.0420357,0.138528
1480626317932415,-1.08659,0.0418683,0.138485
1480626317972022,-1.08643,0.0418598,0.138483
1480626317974028,-1.08659,0.0418683,0.138485
1480626317992075,-1.08659,0.0418683,0.138485
1480626318011125,-1.08629,0.0420164,0.138532
1480626318040203,-1.08629,0.0420164,0.138532
1480626318053739,-1.08629,0.0420164,0.138532
1480626318070283,-1.08629,0.0420164,0.138532
1480626318089835,-1.08629,0.0420164,0.138532
1480626318119914,-1.08613,0.0420078,0.13853
1480626318129941,-1.08613,0.0420078,0.13853
1480626318153004,-1.08616,0.0420056,0.138538
1480626318172056,-1.08616,0.0419425,0.138433
1480626318190613,-1.08655,0.0425157,0.138381
1480626318211159,-1.08654,0.0426199,0.138318
1480626318232213,-1.08612,0.04259,0.138328
1480626318250261,-1.08542,0.0426257,0.138723
1480626318271318,-1.08415,0.0419944,0.138787
1480626318292373,-1.084,0.0418815,0.138848
1480626318317441,-1.08458,0.0420875,0.138882
1480626318331478,-1.08527,0.042639,0.138995
1480626318352535,-1.08524,0.0426412,0.138987
1480626318370586,-1.08524,0.0427042,0.139092
1480626318392640,-1.08568,0.0426472,0.13871
1480626318412192,-1.08611,0.042573,0.138763
1480626318430240,-1.08611,0.042573,0.138763
1480626318457312,-1.08556,0.0425322,0.13878
1480626318475360,-1.08498,0.0424523,0.138957
1480626318490401,-1.08482,0.0424437,0.138955
1480626318512459,-1.08483,0.0423394,0.139018
1480626318534017,-1.08482,0.0424437,0.138955
1480626318557579,-1.08483,0.0423394,0.139018
1480626318572624,-1.08482,0.0424437,0.138955
1480626318595179,-1.08498,0.0424523,0.138957
1480626318614731,-1.08455,0.0425265,0.138905
1480626318645813,-1.08397,0.0424248,0.138807
1480626318652333,-1.08385,0.0423097,0.138877
1480626318671382,-1.08385,0.0423097,0.138877
1480626318708982,-1.08385,0.0423097,0.138877
1480626318713494,-1.08401,0.0423183,0.138879
1480626318734550,-1.08398,0.0423205,0.13887
1480626318753099,-1.08398,0.0423205,0.13887
1480626318779670,-1.08398,0.0423205,0.13887
1480626318790210,-1.08398,0.0423205,0.13887
1480626318812770,-1.08385,0.0423097,0.138877
1480626318832322,-1.08385,0.0423097,0.138877
1480626318862402,-1.08369,0.0423011,0.138875
1480626318880451,-1.08415,0.0419944,0.138787
1480626318900003,-1.08428,0.0420052,0.138781
1480626318922563,-1.08415,0.0419944,0.138787
1480626318932589,-1.08499,0.0421588,0.138703
1480626318953645,-1.0857,0.0423756,0.138731
1480626318976205,-1.0857,0.0423756,0.138731
1480626318992750,-1.08556,0.0423648,0.138737
1480626319012301,-1.08556,0.0423648,0.138737
1480626319042381,-1.08569,0.0421863,0.138414
1480626319058925,-1.08614,0.042151,0.138306
1480626319073464,-1.08614,0.042151,0.138306
1480626319095021,-1.08614,0.042151,0.138306
1480626319128611,-1.08627,0.0421617,0.1383
1480626319141144,-1.08627,0.0421617,0.1383
1480626319154680,-1.08558,0.041904,0.138441
1480626319177241,-1.08505,0.0415504,0.138647
1480626319199799,-1.08393,0.041032,0.13865
1480626319222360,-1.08308,0.0404723,0.138534
1480626319232888,-1.08269,0.039899,0.138584
1480626319253442,-1.08229,0.0396603,0.13872
1480626319275000,-1.08184,0.039591,0.13889
1480626319292547,-1.08129,0.0396758,0.139118
1480626319313602,-1.08072,0.0396584,0.1394
1480626319334659,-1.08073,0.039554,0.139463
1480626319352706,-1.08072,0.0396584,0.1394
1480626319374271,-1.08039,0.0375588,0.13879
1480626319394818,-1.07996,0.0383653,0.139731
1480626319428409,-1.07885,0.0375356,0.139911
1480626319435427,-1.07722,0.0362464,0.140357
1480626319454979,-1.07532,0.0351641,0.140961
1480626319472527,-1.07396,0.0342692,0.141318
1480626319502609,-1.07396,0.0342692,0.141318
1480626319514637,-1.07396,0.0342692,0.141318
1480626319544717,-1.07421,0.0349174,0.141648
1480626319559758,-1.07363,0.0353152,0.142397
1480626319574798,-1.07036,0.0352712,0.142766
1480626319592845,-1.06954,0.0347085,0.142653
1480626319619917,-1.07031,0.0338395,0.142759
1480626319634959,-1.0709,0.033296,0.14295
1480626319652510,-1.07106,0.0333668,0.143059
1480626319675064,-1.07053,0.0331774,0.143305
1480626319696120,-1.07037,0.0331688,0.143302
1480626319714168,-1.07037,0.0331688,0.143302
1480626319735225,-1.07064,0.0335225,0.143386
1480626319754776,-1.07104,0.033763,0.143253
1480626319777338,-1.07104,0.033763,0.143253
1480626319795384,-1.07064,0.0336895,0.14343
1480626319814936,-1.07006,0.033712,0.143542
1480626319837497,-1.06949,0.0335676,0.143611
1480626319856046,-1.06949,0.0335676,0.143611
1480626319876099,-1.07007,0.0336073,0.143605
1480626319893144,-1.07062,0.033712,0.143696
1480626319915203,-1.07062,0.033712,0.143696
1480626319934757,-1.07062,0.0337743,0.143802
1480626319957315,-1.07062,0.033712,0.143696
1480626319983385,-1.07065,0.0337093,0.143704
1480626320002436,-1.0705,0.033596,0.143764
1480626320012963,-1.07079,0.0336159,0.143761
1480626320035527,-1.07134,0.0337207,0.143852
1480626320057582,-1.07134,0.0337207,0.143852
1480626320072622,-1.07134,0.0337207,0.143852
1480626320095183,-1.07134,0.0337207,0.143852
1480626320122254,-1.07134,0.0337207,0.143852
1480626320146318,-1.07134,0.0337207,0.143852
1480626320154840,-1.07121,0.0337094,0.143858
1480626320176398,-1.07121,0.0335424,0.143815
1480626320192441,-1.07121,0.0335424,0.143815
1480626320222521,-1.07121,0.0335424,0.143815
1480626320237561,-1.07121,0.0335424,0.143815
1480626320253103,-1.07137,0.033551,0.143817
1480626320290703,-1.07121,0.0336047,0.143921
1480626320312763,-1.07121,0.0337094,0.143858
1480626320317275,-1.07121,0.0336047,0.143921
1480626320341337,-1.07121,0.0335424,0.143815
1480626320372420,-1.07121,0.0335424,0.143815
1480626320377433,-1.07121,0.0335424,0.143815
1480626320395482,-1.07121,0.0335424,0.143815
1480626320418041,-1.07121,0.0335424,0.143815
1480626320437595,-1.07121,0.0335424,0.143815
1480626320455140,-1.07121,0.0335424,0.143815
1480626320483716,-1.07121,0.0335424,0.143815
1480626320497252,-1.07121,0.0335424,0.143815
1480626320515801,-1.07105,0.0335339,0.143812
1480626320537860,-1.0705,0.0336583,0.14387
1480626320558915,-1.07006,0.0335251,0.143933
1480626320587492,-1.07006,0.0335251,0.143933
1480626320597520,-1.07006,0.0335251,0.143933
1480626320617572,-1.07006,0.0335251,0.143933
1480626320647150,-1.07006,0.0335251,0.143933
1480626320657678,-1.07006,0.0335251,0.143933
1480626320677230,-1.07009,0.0335224,0.143942
1480626320699790,-1.07009,0.0335224,0.143942
1480626320717839,-1.06993,0.0335138,0.143939
1480626320737390,-1.06993,0.0335138,0.143939
1480626320759951,-1.06993,0.0335138,0.143939
1480626320777497,-1.06993,0.0335138,0.143939
1480626320804569,-1.06993,0.0335138,0.143939
1480626320815097,-1.06993,0.0335138,0.143939
1480626320837659,-1.06993,0.0335138,0.143939
1480626320857209,-1.06993,0.0335138,0.143939
1480626320875759,-1.06993,0.0335138,0.143939
1480626320902330,-1.0698,0.0335025,0.143945
1480626320917373,-1.0698,0.0335025,0.143945
1480626320935419,-1.0698,0.0335025,0.143945
1480626320957475,-1.06964,0.0334939,0.143942
1480626320977028,-1.06963,0.0335986,0.14388
1480626320995076,-1.06963,0.0335986,0.14388
1480626321022148,-1.06963,0.0335986,0.14388
1480626321038692,-1.06963,0.0335986,0.14388
1480626321055738,-1.06966,0.0335959,0.143888
1480626321092336,-1.0695,0.0335873,0.143886
1480626321097850,-1.0695,0.0335873,0.143886
1480626321114393,-1.06934,0.0335787,0.143883
1480626321137455,-1.0695,0.0335873,0.143886
1480626321165529,-1.06892,0.0336096,0.143998
1480626321174554,-1.0685,0.0336832,0.143945
1480626321196612,-1.0685,0.0336832,0.143945
1480626321218172,-1.06834,0.0336746,0.143942
1480626321235216,-1.06837,0.0336718,0.14395
1480626321256772,-1.06821,0.0336632,0.143948
1480626321279332,-1.06821,0.0336632,0.143948
1480626321294874,-1.06821,0.0336632,0.143948
1480626321316934,-1.06821,0.0336632,0.143948
1480626321339493,-1.06821,0.0336632,0.143948
1480626321362052,-1.06821,0.0336632,0.143948
1480626321377092,-1.06821,0.0336632,0.143948
1480626321400656,-1.0682,0.033768,0.143885
1480626321413689,-1.06808,0.0336519,0.143954
1480626321437255,-1.06808,0.0336519,0.143954
1480626321459311,-1.06808,0.0336519,0.143954
1480626321480368,-1.06792,0.0336433,0.143951
1480626321497914,-1.06792,0.0336433,0.143951
1480626321519973,-1.06792,0.0336433,0.143951
1480626321533511,-1.06792,0.0336433,0.143951
1480626321557071,-1.06792,0.0336433,0.143951
1480626321595172,-1.06792,0.0336433,0.143951
1480626321597178,-1.06792,0.0336433,0.143951
1480626321624250,-1.06721,0.0336543,0.144069
1480626321647311,-1.06721,0.0336543,0.144069
1480626321660346,-1.06709,0.033643,0.144075
1480626321677392,-1.06709,0.033643,0.144075
1480626321699450,-1.06709,0.033643,0.144075
1480626321722010,-1.06709,0.033643,0.144075
1480626321743066,-1.06709,0.033643,0.144075
1480626321759611,-1.06709,0.033643,0.144075
1480626321780165,-1.06608,0.0336147,0.143922
1480626321804733,-1.06498,0.0329079,0.143598
1480626321819268,-1.06415,0.0326169,0.143466
1480626321840325,-1.06415,0.0326169,0.143466
1480626321871407,-1.06399,0.0326084,0.143463
1480626321879428,-1.06399,0.0326084,0.143463
1480626321901990,-1.06468,0.0330549,0.143646
1480626321934074,-1.06452,0.0335848,0.144325
1480626321940090,-1.06356,0.0333846,0.144845
1480626321961649,-1.06107,0.032674,0.1452
1480626321976687,-1.06067,0.0321821,0.145616
1480626321999248,-1.06188,0.0334008,0.146069
1480626322020303,-1.06176,0.0332844,0.146137
1480626322036850,-1.0616,0.0332757,0.146134
1480626322059407,-1.06176,0.0332844,0.146137
1480626322087985,-1.06176,0.0332844,0.146137
1480626322098010,-1.06176,0.0332844,0.146137
1480626322119567,-1.06176,0.0332844,0.146137
1480626322148143,-1.06176,0.0332844,0.146137
1480626322156666,-1.06217,0.0334828,0.146172
1480626322180730,-1.06245,0.0334412,0.146063
1480626322201787,-1.06304,0.0333767,0.146118
1480626322224346,-1.06346,0.0333034,0.146171
1480626322239388,-1.06346,0.0333034,0.146171
1480626322261947,-1.06358,0.0334198,0.146103
1480626322276485,-1.06429,0.0334098,0.145985
1480626322300049,-1.06429,0.0334717,0.146091
1480626322322608,-1.06502,0.0335637,0.145919
1480626322336645,-1.06486,0.033555,0.145916
1480626322359205,-1.06486,0.0333882,0.145872
1480626322381766,-1.06486,0.0333882,0.145872
1480626322396805,-1.06567,0.0340567,0.145924
1480626322434407,-1.06572,0.0334278,0.146297
1480626322458470,-1.06458,0.0336158,0.146301
1480626322470505,-1.06485,0.0341364,0.14643
1480626322487045,-1.06583,0.0344375,0.146565
1480626322502085,-1.06568,0.0344288,0.146562
1480626322516122,-1.06568,0.0344288,0.146562
1480626322539184,-1.06568,0.0344288,0.146562
1480626322561744,-1.06496,0.0340049,0.145937
1480626322584307,-1.06544,0.0328898,0.145184
1480626322599344,-1.06661,0.0323881,0.144659
1480626322622405,-1.06746,0.0324908,0.144482
1480626322642961,-1.06813,0.0330233,0.144327
1480626322659504,-1.06838,0.0334002,0.143969
1480626322682064,-1.06908,0.033723,0.143938
1480626322696102,-1.06905,0.0337257,0.14393
1480626322734203,-1.06908,0.033723,0.143938
1480626322741723,-1.06908,0.0336182,0.144001
1480626322762779,-1.06792,0.0337055,0.144057
1480626322793359,-1.06722,0.0337164,0.144175
1480626322809403,-1.06762,0.0342056,0.144467
1480626322822939,-1.06706,0.0340181,0.144704
1480626322839485,-1.06596,0.0338497,0.145062
1480626322862043,-1.06524,0.033944,0.145553
1480626322883099,-1.06527,0.0339413,0.145561
1480626322899643,-1.06527,0.0339413,0.145561
1480626322921701,-1.06527,0.0339413,0.145561
1480626322950279,-1.06511,0.0338706,0.145452
1480626322959803,-1.06581,0.034752,0.146378
1480626322981861,-1.06548,0.0350253,0.14663
1480626323004423,-1.06551,0.0350226,0.146638
1480626323034502,-1.06676,0.0352228,0.146548
1480626323042022,-1.0682,0.0351999,0.146319
1480626323063078,-1.06834,0.0348775,0.146225
1480626323079622,-1.06765,0.034554,0.146256
1480626323109703,-1.06611,0.0340028,0.146252
1480626323122736,-1.06501,0.0336046,0.14646
1480626323139282,-1.06501,0.0336046,0.14646
1480626323161842,-1.06501,0.0336046,0.14646
1480626323199942,-1.0646,0.033468,0.146531
1480626323202451,-1.06374,0.0334691,0.146647
1480626323222000,-1.06303,0.0335408,0.146872
1480626323260603,-1.06288,0.033532,0.146869
1480626323265618,-1.06291,0.0335292,0.146878
1480626323283163,-1.06291,0.0335292,0.146878
1480626323304219,-1.06291,0.0335292,0.146878
1480626323319259,-1.06223,0.0331004,0.146969
1480626323341819,-1.0604,0.0329025,0.146896
1480626323364380,-1.06111,0.0321272,0.145944
1480626323386939,-1.06399,0.0318501,0.146047
1480626323401979,-1.06323,0.0321158,0.145864
1480626323425040,-1.06349,0.0324532,0.144966
1480626323438577,-1.06408,0.0323454,0.14519
1480626323485202,-1.06211,0.0318686,0.145131
1480626323487206,-1.0601,0.0319172,0.144762
1480626323508262,-1.06123,0.0322688,0.144733
1480626323521798,-1.06206,0.0325602,0.144866
1480626323544358,-1.06105,0.0324702,0.144606
1480626323565415,-1.0598,0.0324812,0.144571
1480626323582459,-1.05976,0.0324222,0.144456
1480626323610535,-1.05935,0.0325143,0.144678
1480626323618557,-1.05847,0.0328493,0.144883
1480626323642118,-1.05847,0.0328493,0.144883
1480626323664678,-1.0585,0.0328465,0.144891
1480626323678716,-1.05834,0.0327763,0.144782
1480626323701777,-1.05794,0.0324732,0.144808
1480626323724337,-1.05752,0.0326085,0.144862
1480626323752913,-1.05751,0.0327136,0.1448
1480626323761937,-1.05751,0.0327136,0.1448
1480626323784501,-1.05609,0.0329389,0.145623
1480626323814577,-1.05539,0.0328818,0.146344
1480626323822598,-1.05358,0.032457,0.146119
1480626323844156,-1.05336,0.0313734,0.145754
1480626323865211,-1.05294,0.0311342,0.145877
1480626323882760,-1.05328,0.0324194,0.145848
1480626323910331,-1.05351,0.0328867,0.145156
1480626323925371,-1.05478,0.0331682,0.144748
1480626323941916,-1.05439,0.0324528,0.144302
1480626323964477,-1.05347,0.0304391,0.14219
1480626323985534,-1.0532,0.0303693,0.14307
1480626324001575,-1.05154,0.0300548,0.143493
1480626324025138,-1.04918,0.0296274,0.143821
1480626324052710,-1.04823,0.0291961,0.144187
1480626324063740,-1.04772,0.0284796,0.144727
1480626324084297,-1.04745,0.0284763,0.145005
1480626324105351,-1.04773,0.0282522,0.144575
1480626324122396,-1.048,0.0281944,0.144191
1480626324144455,-1.04908,0.0286981,0.143927
1480626324167015,-1.05051,0.0287973,0.143914
1480626324195590,-1.05104,0.0288839,0.143732
1480626324205116,-1.05104,0.0288839,0.143732
1480626324227676,-1.05107,0.028881,0.14374
1480626324241715,-1.05091,0.0288726,0.143737
1480626324264273,-1.05091,0.0288726,0.143737
1480626324286833,-1.05002,0.0296455,0.143972
1480626324316913,-1.04917,0.0297939,0.143866
1480626324339473,-1.04917,0.0297939,0.143866
1480626324346993,-1.04917,0.0297939,0.143866
1480626324368051,-1.04859,0.0297542,0.143872
1480626324384609,-1.0479,0.0297642,0.14399
1480626324414172,-1.0479,0.0295978,0.143944
1480626324422194,-1.04774,0.0295893,0.143942
1480626324444253,-1.04734,0.0294527,0.144011
1480626324466812,-1.04721,0.0294414,0.144017
1480626324481352,-1.04774,0.0297557,0.143987
1480626324504417,-1.04841,0.030245,0.144005
1480626324534497,-1.04939,0.0305435,0.144143
1480626324541009,-1.05025,0.030542,0.144028
1480626324564572,-1.05055,0.0304566,0.144086
1480626324594652,-1.0514,0.0301419,0.144147
1480626324607687,-1.05215,0.0294829,0.144123
1480626324624231,-1.05248,0.028854,0.144214
1480626324646791,-1.0535,0.0285041,0.144447
1480626324667847,-1.05481,0.0282797,0.144616
1480626324691911,-1.05594,0.0282572,0.144659
1480626324706953,-1.05691,0.0286002,0.144629
1480626324728007,-1.05799,0.0291032,0.144363
1480626324752071,-1.05909,0.0296464,0.143937
1480626324774631,-1.06062,0.0302204,0.143502
1480626324788669,-1.06142,0.0305358,0.143193
1480626324811730,-1.06224,0.0311817,0.142981
1480626324843314,-1.06307,0.0316607,0.142724
1480626324855346,-1.06416,0.0321619,0.142456
1480626324873394,-1.06554,0.0328064,0.142396
1480626324887932,-1.06664,0.0332216,0.142463
1480626324907988,-1.06748,0.0334076,0.142658
1480626324924530,-1.06778,0.0334468,0.142929
1480626324946588,-1.06754,0.032903,0.143244
1480626324970158,-1.06714,0.0321838,0.143511
1480626324985194,-1.06621,0.0313793,0.143961
1480626325007752,-1.06542,0.0308545,0.144395
1480626325027806,-1.06421,0.0300911,0.144953
1480626325068413,-1.06312,0.0294003,0.14561
1480626325080946,-1.06075,0.0273637,0.147307
1480626325087964,-1.05806,0.0272713,0.14728
1480626325110525,-1.05784,0.0262917,0.146855
1480626325127069,-1.05983,0.0259798,0.146529
1480626325149629,-1.06055,0.0259268,0.146581
1480626325164668,-1.06064,0.0265435,0.146647
1480626325186727,-1.05961,0.0272429,0.146775
1480626325209287,-1.0593,0.027661,0.146805
1480626325224328,-1.06,0.0280648,0.147158
1480626325254407,-1.06015,0.0281784,0.147099
1480626325275966,-1.06012,0.0281815,0.147091
1480626325290503,-1.06012,0.0281815,0.147091
1480626325313565,-1.06012,0.0281815,0.147091
1480626325344146,-1.06012,0.0281815,0.147091
1480626325346653,-1.05998,0.0282748,0.147034
1480626325366706,-1.05998,0.0282748,0.147034
1480626325396786,-1.05998,0.0282748,0.147034
1480626325419346,-1.05998,0.0282748,0.147034
1480626325426866,-1.05998,0.0282748,0.147034
1480626325449928,-1.05968,0.0284829,0.147188
1480626325463464,-1.05953,0.0285359,0.147291
1480626325487029,-1.05953,0.0285359,0.147291
1480626325509586,-1.05952,0.0286409,0.147229
1480626325524126,-1.05952,0.0286409,0.147229
1480626325547689,-1.05955,0.0286379,0.147238
1480626325569249,-1.05955,0.0286379,0.147238
1480626325590301,-1.05956,0.0285329,0.1473
1480626325621885,-1.05955,0.0286379,0.147238
1480626325630408,-1.05955,0.0286379,0.147238
1480626325650462,-1.05955,0.0286379,0.147238
1480626325667007,-1.05955,0.0286379,0.147238
1480626325689564,-1.05939,0.0286293,0.147235
1480626325710120,-1.05939,0.0286293,0.147235
1480626325726664,-1.05923,0.0286206,0.147232
1480626325749224,-1.05923,0.0286206,0.147232
1480626325770280,-1.05926,0.0286176,0.14724
1480626325786824,-1.05926,0.0286176,0.14724
1480626325809885,-1.05923,0.0286206,0.147232
1480626325830440,-1.05896,0.028764,0.147287
1480626325846985,-1.05893,0.028767,0.147279
1480626325869544,-1.05896,0.028764,0.147287
1480626325899626,-1.05896,0.028764,0.147287
1480626325921683,-1.05896,0.028764,0.147287
1480626325929706,-1.0588,0.0287553,0.147284
1480626325950259,-1.0588,0.0287553,0.147284
1480626325966804,-1.0588,0.0287553,0.147284
1480626325989865,-1.0588,0.0287553,0.147284
1480626326010418,-1.05879,0.0288604,0.147223
1480626326026963,-1.05879,0.0288604,0.147223
1480626326049524,-1.05908,0.0288807,0.14722
1480626326080104,-1.05955,0.0286379,0.147238
1480626326088125,-1.05939,0.0286293,0.147235
1480626326116705,-1.05968,0.0285445,0.147294
1480626326131742,-1.0601,0.0285765,0.147286
1480626326146781,-1.06069,0.0285739,0.147449
1480626326169345,-1.06069,0.0285739,0.147449
1480626326191902,-1.06069,0.0285739,0.147449
1480626326207443,-1.06068,0.0286788,0.147387
1480626326230003,-1.06068,0.0286788,0.147387
1480626326251562,-1.0611,0.0286059,0.147441
1480626326274120,-1.0611,0.0286059,0.147441
1480626326289160,-1.0611,0.0286059,0.147441
1480626326312222,-1.0611,0.0286059,0.147441
1480626326326259,-1.0611,0.0286059,0.147441
1480626326350324,-1.0611,0.0286059,0.147441
1480626326371880,-1.0611,0.0286059,0.147441
1480626326392937,-1.0611,0.0286059,0.147441
1480626326415499,-1.0611,0.0286059,0.147441
1480626326446077,-1.0611,0.0286059,0.147441
1480626326455603,-1.0611,0.0286059,0.147441
1480626326475155,-1.0611,0.0286059,0.147441
1480626326491698,-1.0611,0.0286059,0.147441
1480626326506237,-1.0611,0.0286059,0.147441
1480626326529800,-1.0611,0.0286059,0.147441
1480626326557875,-1.0611,0.0286059,0.147441
1480626326572917,-1.0611,0.0286059,0.147441
1480626326589459,-1.0611,0.0286059,0.147441
1480626326612019,-1.0611,0.0286059,0.147441
1480626326650121,-1.06109,0.0287108,0.147379
1480626326652126,-1.06109,0.0287108,0.147379
1480626326672683,-1.06109,0.0287108,0.147379
1480626326700760,-1.06109,0.0287108,0.147379
1480626326716798,-1.06094,0.0285972,0.147438
1480626326732840,-1.0611,0.0286059,0.147441
1480626326752894,-1.0611,0.0286059,0.147441
1480626326769440,-1.06109,0.0287108,0.147379
1480626326791998,-1.06109,0.0287108,0.147379
1480626326813054,-1.06109,0.0287108,0.147379
1480626326829598,-1.06109,0.0287108,0.147379
1480626326859177,-1.0611,0.0286059,0.147441
1480626326872712,-1.0611,0.0286059,0.147441
1480626326896776,-1.0611,0.0286059,0.147441
1480626326917833,-1.06092,0.0290973,0.147571
1480626326940392,-1.06091,0.0296159,0.14798
1480626326950925,-1.06059,0.030324,0.148267
1480626326971476,-1.06031,0.0302602,0.148438
1480626326994036,-1.0596,0.0303125,0.148387
1480626327016596,-1.05945,0.0301988,0.148446
1480626327031638,-1.05945,0.0301371,0.148339
1480626327054196,-1.05945,0.0301371,0.148339
1480626327069241,-1.05948,0.0301341,0.148348
1480626327091795,-1.05948,0.0301341,0.148348
1480626327114356,-1.05945,0.0301371,0.148339
1480626327129396,-1.05945,0.0301371,0.148339
1480626327151955,-1.05961,0.0301459,0.148342
1480626327174516,-1.05961,0.0302075,0.148449
1480626327204596,-1.05961,0.0302075,0.148449
1480626327211614,-1.05961,0.0302075,0.148449
1480626327234677,-1.05961,0.0301459,0.148342
1480626327255230,-1.05961,0.0301459,0.148342
1480626327272276,-1.05961,0.0301459,0.148342
1480626327294334,-1.05974,0.0301576,0.148337
1480626327308873,-1.05973,0.0303243,0.148381
1480626327339454,-1.05973,0.0303243,0.148381
1480626327354495,-1.05947,0.0302392,0.148286
1480626327368532,-1.05947,0.0302392,0.148286
1480626327392095,-1.05931,0.0302304,0.148283
1480626327414154,-1.05931,0.0302304,0.148283
1480626327428692,-1.05889,0.0303649,0.148336
1480626327452756,-1.05889,0.0303649,0.148336
1480626327474313,-1.05889,0.0303649,0.148336
1480626327488851,-1.05889,0.0303649,0.148336
1480626327511913,-1.05902,0.0303766,0.148331
1480626327534475,-1.0586,0.0302828,0.148233
1480626327555529,-1.0586,0.0303444,0.148339
1480626327572073,-1.0586,0.0303444,0.148339
1480626327594634,-1.0586,0.0302828,0.148233
1480626327616692,-1.0586,0.0303444,0.148339
1480626327631732,-1.05861,0.0301778,0.148294
1480626327654793,-1.05861,0.0301778,0.148294
1480626327675347,-1.05861,0.0301778,0.148294
1480626327697909,-1.05876,0.0302916,0.148235
1480626327721972,-1.05873,0.0303562,0.148333
1480626327752553,-1.05876,0.0303532,0.148342
1480626327755060,-1.0586,0.0303444,0.148339
1480626327780627,-1.0586,0.0303444,0.148339
1480626327795167,-1.05876,0.0303532,0.148342
1480626327811711,-1.05818,0.0303123,0.148347
1480626327834274,-1.05818,0.0303123,0.148347
1480626327855326,-1.05818,0.0303123,0.148347
1480626327871872,-1.05831,0.030324,0.148342
1480626327894431,-1.05831,0.0303856,0.148448
1480626327915487,-1.05831,0.0303856,0.148448
1480626327939551,-1.05818,0.0303738,0.148454
1480626327954089,-1.05818,0.0303738,0.148454
1480626327975145,-1.05818,0.0303738,0.148454
1480626327991690,-1.05818,0.0303123,0.148347
1480626328029289,-1.05818,0.0303123,0.148347
1480626328036811,-1.05831,0.030324,0.148342
1480626328051850,-1.05831,0.0303856,0.148448
1480626328089449,-1.05831,0.0303856,0.148448
1480626328104490,-1.0583,0.0304906,0.148386
1480626328113513,-1.0576,0.0303764,0.148291
1480626328135072,-1.05747,0.0303647,0.148297
1480626328156628,-1.05748,0.0302596,0.148359
1480626328171167,-1.05745,0.030201,0.148244
1480626328194228,-1.05761,0.0302098,0.148247
1480626328222804,-1.05761,0.0302098,0.148247
1480626328231327,-1.05761,0.0302713,0.148353
1480626328254389,-1.0576,0.0303764,0.148291
1480626328277951,-1.0576,0.0303764,0.148291
1480626328299510,-1.0576,0.0303764,0.148291
1480626328314047,-1.0576,0.0303764,0.148291
1480626328336607,-1.0576,0.0303764,0.148291
1480626328358165,-1.05744,0.0303677,0.148288
1480626328389249,-1.05748,0.0302596,0.148359
1480626328397269,-1.05745,0.0302626,0.14835
1480626328417830,-1.05761,0.0302713,0.148353
1480626328434369,-1.05761,0.0302713,0.148353
1480626328456927,-1.05776,0.0303852,0.148294
1480626328477983,-1.05776,0.0303852,0.148294
1480626328494527,-1.05746,0.0306544,0.148555
1480626328517093,-1.05731,0.0306457,0.148552
1480626328538143,-1.05771,0.0307829,0.148482
1480626328555189,-1.05772,0.0306163,0.148437
1480626328578752,-1.05787,0.0307301,0.148378
1480626328598304,-1.05788,0.0306251,0.14844
1480626328614347,-1.05857,0.0309494,0.148411
1480626328636906,-1.05856,0.0311161,0.148456
1480626328659466,-1.05856,0.0311161,0.148456
1480626328675008,-1.05856,0.0311161,0.148456
1480626328697568,-1.05856,0.0311161,0.148456
1480626328718122,-1.0584,0.0311073,0.148453
1480626328734666,-1.0584,0.0311073,0.148453
1480626328756724,-1.0584,0.0311073,0.148453
1480626328777782,-1.0584,0.0311073,0.148453
1480626328794325,-1.05856,0.0311161,0.148456
1480626328817889,-1.05856,0.0311161,0.148456
1480626328837942,-1.05869,0.0311278,0.14845
1480626328862506,-1.05856,0.0311161,0.148456
1480626328877546,-1.05856,0.0311161,0.148456
1480626328898101,-1.05856,0.0311161,0.148456
1480626328920663,-1.05856,0.0311161,0.148456
1480626328936704,-1.05857,0.0309494,0.148411
1480626328959766,-1.05857,0.0309494,0.148411
1480626328974304,-1.05869,0.0309611,0.148405
1480626328996865,-1.05869,0.0311278,0.14845
1480626329019925,-1.05869,0.0311278,0.14845
1480626329047999,-1.05869,0.0311278,0.14845
1480626329057024,-1.05841,0.0309407,0.148408
1480626329079584,-1.05844,0.0309377,0.148417
1480626329093621,-1.05828,0.0308674,0.148308
1480626329117189,-1.05828,0.0308674,0.148308
1480626329139746,-1.05828,0.0308674,0.148308
1480626329160298,-1.05828,0.0308674,0.148308
1480626329182859,-1.05844,0.0308761,0.14831
1480626329199403,-1.05844,0.0309377,0.148417
1480626329213941,-1.05887,0.030575,0.148213
1480626329244522,-1.05887,0.030575,0.148213
1480626329259562,-1.05887,0.030575,0.148213
1480626329273600,-1.05887,0.030575,0.148213
1480626329296661,-1.05887,0.030575,0.148213
1480626329326741,-1.05887,0.030575,0.148213
1480626329340278,-1.059,0.0305867,0.148207
1480626329356821,-1.059,0.0305867,0.148207
1480626329379382,-1.05871,0.0306895,0.148423
1480626329393419,-1.05803,0.0304267,0.148558
1480626329416987,-1.05604,0.0306313,0.14895
1480626329445557,-1.05531,0.0308939,0.148777
1480626329460095,-1.05561,0.0305812,0.148684
1480626329477642,-1.05591,0.0303737,0.14853
1480626329500205,-1.05689,0.030675,0.148667
1480626329520255,-1.05703,0.0305201,0.148616
1480626329536805,-1.05518,0.0306978,0.148463
1480626329559861,-1.05618,0.0303148,0.148146
1480626329580417,-1.05731,0.0299432,0.147823
1480626329604480,-1.0584,0.0306985,0.147273
1480626329620022,-1.05839,0.0309926,0.146822
1480626329640576,-1.05988,0.031405,0.146333
1480626329656619,-1.06157,0.0320479,0.146715
1480626329686698,-1.06028,0.0324738,0.147141
1480626329700239,-1.05898,0.0327143,0.147248
1480626329717282,-1.05842,0.0327534,0.147636
1480626329739840,-1.05872,0.0327262,0.14851
1480626329767915,-1.05867,0.0322216,0.150083
1480626329776939,-1.05725,0.0323823,0.1508
1480626329805514,-1.05609,0.0327552,0.151115
1480626329820554,-1.05578,0.033357,0.151466
1480626329836598,-1.05522,0.0338681,0.152432
1480626329859158,-1.05439,0.0340859,0.153419
1480626329881718,-1.05295,0.0343305,0.1538
1480626329896757,-1.05208,0.0344946,0.153962
1480626329919319,-1.05324,0.0344744,0.154011
1480626329941878,-1.05406,0.0345235,0.153717
1480626329964939,-1.05363,0.0344726,0.153451
1480626329979478,-1.05338,0.0339928,0.15316
1480626330002039,-1.05387,0.0334796,0.153192
1480626330018080,-1.0526,0.0330265,0.153554
1480626330053174,-1.04884,0.0324414,0.153369
1480626330061697,-1.0464,0.032471,0.153278
1480626330084256,-1.04644,0.0316392,0.153049
1480626330099801,-1.04667,0.0303783,0.152793
1480626330122859,-1.04528,0.0301037,0.15277
1480626330135894,-1.04647,0.0312343,0.151875
1480626330167481,-1.04762,0.031119,0.152961
1480626330181515,-1.04711,0.0300343,0.152861
1480626330196054,-1.04678,0.0290609,0.152711
1480626330219115,-1.04707,0.0286026,0.152838
1480626330242178,-1.04809,0.0284228,0.153115
1480626330256214,-1.04825,0.0284318,0.153118
1480626330279276,-1.04812,0.0283342,0.153451
1480626330302338,-1.04785,0.0282854,0.153897
1480626330324395,-1.04703,0.0279668,0.154195
1480626330339437,-1.04549,0.0275767,0.154229
1480626330361995,-1.04451,0.0274562,0.15441
1480626330383055,-1.04454,0.0273921,0.154312
1480626330399095,-1.04455,0.0272867,0.154373
1480626330422657,-1.04465,0.0274327,0.153863
1480626330442710,-1.04494,0.0274789,0.153426
1480626330460258,-1.04548,0.0274884,0.152871
1480626330481815,-1.04617,0.0274043,0.152372
1480626330502871,-1.04629,0.0274856,0.151764
1480626330519915,-1.04611,0.0273385,0.151272
1480626330541975,-1.04685,0.0270397,0.150904
1480626330570550,-1.04685,0.0270397,0.150904
1480626330580076,-1.0466,0.0267884,0.150763
1480626330609655,-1.04545,0.0265837,0.150559
1480626330630210,-1.04433,0.0266639,0.150623
1480626330639234,-1.04392,0.0266313,0.150631
1480626330661793,-1.04336,0.026318,0.150651
1480626330690368,-1.04292,0.0262886,0.15065
1480626330700396,-1.04252,0.0262111,0.150826
1480626330722454,-1.04154,0.0262583,0.151052
1480626330743011,-1.04085,0.0262205,0.151338
1480626330759553,-1.04,0.0262186,0.151452
1480626330782615,-1.04,0.0262186,0.151452
1480626330802668,-1.04,0.0262186,0.151452
1480626330826731,-1.03973,0.0263346,0.151943
1480626330841772,-1.03877,0.0262302,0.152399
1480626330864332,-1.03696,0.0260019,0.152754
1480626330879874,-1.03584,0.0257668,0.152992
1480626330903940,-1.03584,0.0257668,0.152992
1480626330924493,-1.03571,0.0257547,0.152998
1480626330939532,-1.03547,0.0253108,0.153243
1480626330961591,-1.03437,0.0246829,0.15328
1480626331000695,-1.03481,0.0242783,0.15324
1480626331005207,-1.0361,0.0240576,0.153408
1480626331028770,-1.03753,0.0243443,0.153719
1480626331044310,-1.03777,0.024701,0.1538
1480626331058849,-1.03793,0.0247099,0.153804
1480626331081912,-1.03793,0.0247099,0.153804
1480626331104472,-1.03765,0.0246436,0.153974
1480626331118508,-1.03655,0.0242419,0.154165
1480626331142071,-1.0353,0.0238732,0.154193
1480626331164130,-1.0353,0.0238732,0.154193
1480626331186189,-1.03587,0.0240362,0.154403
1480626331201730,-1.03627,0.0244623,0.154595
1480626331224791,-1.03626,0.024568,0.154535
1480626331238829,-1.03626,0.024568,0.154535
1480626331269410,-1.03655,0.0245439,0.1547
1480626331284450,-1.03669,0.0244506,0.154756
1480626331305506,-1.03712,0.0242124,0.154762
1480626331329570,-1.03741,0.0241732,0.154653
1480626331351628,-1.03811,0.0241828,0.154811
1480626331366168,-1.03811,0.0241224,0.154704
1480626331381709,-1.03827,0.0241313,0.154708
1480626331404269,-1.03827,0.0241313,0.154708
1480626331425826,-1.03827,0.0241313,0.154708
1480626331441870,-1.03827,0.0241918,0.154815
1480626331464428,-1.03827,0.0241313,0.154708
1480626331485485,-1.03827,0.0241313,0.154708
1480626331502530,-1.03812,0.0240167,0.154765
1480626331524589,-1.03815,0.0240133,0.154774
1480626331546647,-1.03869,0.0240592,0.154761
1480626331561687,-1.03869,0.0240592,0.154761
1480626331584250,-1.03925,0.0242073,0.154696
1480626331606807,-1.03941,0.0242163,0.154699
1480626331636888,-1.03938,0.0242197,0.15469
1480626331644407,-1.03938,0.0242197,0.15469
1480626331665967,-1.0388,0.0242828,0.154634
1480626331682008,-1.03884,0.0241738,0.154703
1480626331711586,-1.03898,0.0240805,0.154759
1480626331725122,-1.03942,0.0240501,0.154653
1480626331742167,-1.03996,0.0240354,0.154533
1480626331764226,-1.04012,0.0240443,0.154536
1480626331787789,-1.04012,0.0240443,0.154536
1480626331801826,-1.04009,0.0240477,0.154528
1480626331825890,-1.04009,0.0240477,0.154528
1480626331846444,-1.04009,0.0240477,0.154528
1480626331861986,-1.03967,0.0240142,0.154535
1480626331892065,-1.03967,0.0240142,0.154535
1480626331914124,-1.03968,0.0239086,0.154596
1480626331921645,-1.03968,0.0239086,0.154596
1480626331944205,-1.03984,0.0239175,0.154599
1480626331966765,-1.03984,0.0239175,0.154599
1480626331989826,-1.03983,0.0240231,0.154539
1480626332005368,-1.03996,0.0240354,0.154533
1480626332026925,-1.03996,0.0240354,0.154533
1480626332040962,-1.03996,0.0240354,0.154533
1480626332070541,-1.03983,0.0240231,0.154539
1480626332086583,-1.03983,0.0240231,0.154539
1480626332101624,-1.03984,0.0239175,0.154599
1480626332139223,-1.03984,0.0239175,0.154599
1480626332147245,-1.03996,0.0240354,0.154533
1480626332170808,-1.03996,0.0240354,0.154533
1480626332191362,-1.03996,0.0240354,0.154533
1480626332222946,-1.04012,0.0240443,0.154536
1480626332227960,-1.03996,0.0240354,0.154533
1480626332244503,-1.03996,0.0240354,0.154533
1480626332267064,-1.03997,0.0239298,0.154594
1480626332288119,-1.03997,0.0239298,0.154594
1480626332304668,-1.03997,0.0239298,0.154594
1480626332326723,-1.0397,0.0240108,0.154544
1480626332349283,-1.03967,0.0240142,0.154535
1480626332364322,-1.03967,0.0240142,0.154535
1480626332386883,-1.03967,0.0240142,0.154535
1480626332409443,-1.03967,0.0240142,0.154535
1480626332424983,-1.03967,0.0240142,0.154535
1480626332447042,-1.03967,0.0240142,0.154535
1480626332477625,-1.03925,0.0241468,0.154589
1480626332498179,-1.03886,0.0238415,0.154611
1480626332506700,-1.03886,0.0238415,0.154611
1480626332527758,-1.03899,0.0238538,0.154606
1480626332544802,-1.03899,0.0238538,0.154606
1480626332567865,-1.03898,0.0239594,0.154545
1480626332594937,-1.03898,0.0239594,0.154545
1480626332606968,-1.03899,0.0238538,0.154606
1480626332627021,-1.03899,0.0238538,0.154606
1480626332655597,-1.03899,0.0238538,0.154606
1480626332664120,-1.03841,0.0239775,0.154656
1480626332694200,-1.03841,0.0239775,0.154656
1480626332724781,-1.03856,0.0239864,0.154659
1480626332727288,-1.03856,0.0239864,0.154659
1480626332752868,-1.03855,0.024092,0.154598
1480626332776920,-1.03856,0.0239864,0.154659
1480626332784441,-1.03855,0.024092,0.154598
1480626332807001,-1.03855,0.024092,0.154598
1480626332829058,-1.03856,0.0239864,0.154659
1480626332845102,-1.03841,0.0239775,0.154656
1480626332866661,-1.03856,0.0239864,0.154659
1480626332889219,-1.03856,0.0239864,0.154659
1480626332903757,-1.03872,0.0239953,0.154663
1480626332934841,-1.03872,0.0239953,0.154663
1480626332949384,-1.03872,0.0239953,0.154663
1480626332971941,-1.03872,0.0239953,0.154663
1480626333000515,-1.03856,0.0239864,0.154659
1480626333033102,-1.03856,0.0239864,0.154659
1480626333037613,-1.03856,0.0239864,0.154659
1480626333052653,-1.03856,0.0239864,0.154659
1480626333076718,-1.03856,0.0239864,0.154659
1480626333083738,-1.03869,0.0239987,0.154654
1480626333106798,-1.03869,0.0239987,0.154654
1480626333136878,-1.03869,0.0239987,0.154654
1480626333143896,-1.03869,0.0239987,0.154654
1480626333166958,-1.03812,0.0238957,0.154551
1480626333189518,-1.03758,0.0237894,0.154457
1480626333211576,-1.03702,0.0235809,0.154414
1480626333227118,-1.03661,0.0233813,0.154375
1480626333249177,-1.03661,0.0233813,0.154375
1480626333272739,-1.03661,0.0233813,0.154375
1480626333294297,-1.03661,0.0233813,0.154375
1480626333309838,-1.03677,0.0233902,0.154379
1480626333330392,-1.03677,0.0233902,0.154379
1480626333354456,-1.03661,0.0233813,0.154375
1480626333377518,-1.03661,0.0233813,0.154375
1480626333390553,-1.03661,0.0233813,0.154375
1480626333406598,-1.03661,0.0233813,0.154375
1480626333429656,-1.03661,0.0233813,0.154375
1480626333457731,-1.03677,0.0234506,0.154486
1480626333466755,-1.03673,0.0235597,0.154416
1480626333495331,-1.03661,0.0236078,0.154529
1480626333510371,-1.0362,0.0236346,0.154644
1480626333527417,-1.03619,0.0237403,0.154583
1480626333549479,-1.03563,0.0235922,0.154648
1480626333572036,-1.03492,0.0233293,0.15477
1480626333587075,-1.03415,0.0227936,0.155195
1480626333609134,-1.03234,0.0220953,0.154964
1480626333630191,-1.03304,0.0224039,0.154675
1480626333661774,-1.03511,0.0226741,0.154587
1480626333669796,-1.03618,0.0233059,0.154542
1480626333691854,-1.03574,0.0237102,0.154582
1480626333706894,-1.03504,0.0238215,0.154638
1480626333729955,-1.03488,0.0238126,0.154634
1480626333752014,-1.03503,0.0240479,0.154791
1480626333774575,-1.0356,0.0243772,0.155048
1480626333804153,-1.0356,0.0243772,0.155048
1480626333827214,-1.03462,0.0240746,0.154906
1480626333834736,-1.03405,0.0239718,0.154803
1480626333857294,-1.03405,0.0239718,0.154803
1480626333872335,-1.03421,0.0239807,0.154807
1480626333885870,-1.03421,0.0239807,0.154807
1480626333909934,-1.03405,0.0239718,0.154803
1480626333932504,-1.03405,0.0239718,0.154803
1480626333946031,-1.03406,0.023866,0.154864
1480626333969092,-1.03406,0.023866,0.154864
1480626333991651,-1.03406,0.023866,0.154864
1480626334020227,-1.03406,0.023866,0.154864
1480626334030755,-1.03395,0.0237479,0.15493
1480626334051811,-1.03367,0.0235004,0.154778
1480626334080389,-1.03366,0.0236664,0.154825
1480626334089412,-1.03396,0.0234159,0.154836
1480626334111972,-1.03396,0.0234159,0.154836
1480626334126511,-1.03396,0.0234159,0.154836
1480626334155587,-1.03381,0.0234069,0.154833
1480626334171633,-1.03396,0.0234159,0.154836
1480626334193188,-1.03396,0.0234159,0.154836
1480626334209732,-1.03393,0.0234193,0.154828
1480626334232796,-1.03409,0.0234282,0.154831
1480626334252847,-1.03409,0.0234282,0.154831
1480626334268890,-1.03409,0.0234282,0.154831
1480626334306490,-1.03409,0.0234282,0.154831
1480626334330052,-1.03325,0.0236656,0.155374
1480626334332561,-1.03167,0.0236379,0.155054
1480626334351609,-1.0331,0.0235783,0.154997
1480626334380687,-1.03324,0.0234849,0.155052
1480626334389211,-1.03269,0.0236049,0.155111
1480626334411770,-1.03167,0.0235778,0.154946
1480626334432825,-1.03253,0.0237619,0.155155
1480626334455385,-1.03253,0.0237619,0.155155
1480626334471930,-1.03253,0.0237619,0.155155
1480626334494992,-1.03281,0.0237832,0.155153
1480626334509529,-1.03309,0.0236239,0.154829
1480626334531588,-1.0342,0.0240262,0.154639
1480626334553145,-1.03545,0.0242292,0.154564
1480626334576207,-1.03613,0.0244349,0.154326
1480626334607791,-1.03626,0.0245076,0.154427
1480626334614810,-1.03625,0.0246133,0.154367
1480626334629348,-1.0364,0.0246222,0.15437
1480626334651909,-1.03568,0.0244048,0.154325
1480626334681989,-1.03568,0.0244048,0.154325
1480626334690009,-1.03573,0.0242957,0.154394
1480626334712068,-1.03573,0.0242957,0.154394
1480626334741647,-1.03569,0.0242991,0.154385
1480626334749168,-1.03585,0.024308,0.154389
1480626334771727,-1.03585,0.024308,0.154389
1480626334801807,-1.03585,0.024308,0.154389
1480626334808826,-1.03585,0.024308,0.154389
1480626334832391,-1.03585,0.024308,0.154389
1480626334862468,-1.03585,0.024308,0.154389
1480626334884527,-1.0356,0.02403,0.15468
1480626334891546,-1.03461,0.0238062,0.154911
1480626334915109,-1.03312,0.023593,0.155272
1480626334935162,-1.03185,0.0230888,0.154809
1480626334959226,-1.034,0.022812,0.154757
1480626334974266,-1.03459,0.0223895,0.155155
1480626334988807,-1.0336,0.0224793,0.155213
1480626335011867,-1.03193,0.022348,0.155233
1480626335034927,-1.03178,0.0221731,0.155183
1480626335056986,-1.03233,0.0225477,0.155272
1480626335071525,-1.03245,0.0229798,0.155034
1480626335109125,-1.03245,0.0229798,0.155034
1480626335112635,-1.03245,0.0229798,0.155034
1480626335132687,-1.03245,0.0229798,0.155034
1480626335154244,-1.03215,0.0231245,0.155082
1480626335175300,-1.03145,0.0232355,0.155139
1480626335191845,-1.03145,0.0232957,0.155246
1480626335214405,-1.03128,0.0233926,0.155182
1480626335236966,-1.03129,0.0232867,0.155243
1480626335258020,-1.03129,0.0232867,0.155243
1480626335274063,-1.03129,0.0232266,0.155135
1480626335295119,-1.03185,0.0234953,0.155285
1480626335302640,-1.03185,0.0234953,0.155285
1480626335317178,-1.03198,0.0235077,0.15528
1480626335347257,-1.03185,0.0235555,0.155393
1480626335362298,-1.03142,0.0234194,0.155452
1480626335378843,-1.03142,0.0234194,0.155452
1480626335407418,-1.03142,0.0234194,0.155452
1480626335422458,-1.0306,0.023638,0.155729
1480626335437076,-1.0296,0.0238934,0.155834
1480626335459557,-1.03075,0.0228064,0.155213
1480626335482118,-1.03159,0.022916,0.15504
1480626335497157,-1.03266,0.0238621,0.154823
1480626335519718,-1.03357,0.0246786,0.154387
1480626335542276,-1.03421,0.0255487,0.154335
1480626335558820,-1.03391,0.0256936,0.154384
1480626335579877,-1.03285,0.025122,0.154537
1480626335612464,-1.03158,0.0249368,0.154878
1480626335624495,-1.03104,0.0248909,0.154892
1480626335639537,-1.03145,0.0248643,0.154777
1480626335679141,-1.03285,0.0252424,0.154752
1480626335681648,-1.03408,0.0258834,0.154709
1480626335700699,-1.03401,0.0264905,0.15478
1480626335722255,-1.03356,0.0270006,0.15476
1480626335737296,-1.0345,0.0280276,0.155195
1480626335759855,-1.03349,0.0283616,0.155676
1480626335799461,-1.03195,0.0284228,0.156017
1480626335801969,-1.03054,0.0284501,0.156521
1480626335821019,-1.03039,0.0287415,0.157055
1480626335842074,-1.03082,0.0289101,0.157536
1480626335859120,-1.03082,0.0289101,0.157536
1480626335888698,-1.03097,0.0290252,0.157479
1480626335912262,-1.03111,0.0292926,0.158178
1480626335917275,-1.031,0.0290404,0.158739
1480626335939835,-1.03062,0.0289746,0.159191
1480626335962394,-1.02979,0.028443,0.159599
1480626335978437,-1.02889,0.0274574,0.159988
1480626336007014,-1.02755,0.0269204,0.160251
1480626336023557,-1.0266,0.0265837,0.160553
1480626336038597,-1.02594,0.0257149,0.160592
1480626336059653,-1.02553,0.0254545,0.160446
1480626336082217,-1.02569,0.0254638,0.160449
1480626336098761,-1.02569,0.0254638,0.160449
1480626336135856,-1.02569,0.0254638,0.160449
1480626336166938,-1.02475,0.0247218,0.160272
1480626336168944,-1.02423,0.0240282,0.160362
1480626336187494,-1.02376,0.0232249,0.16052
1480626336202034,-1.02334,0.0229219,0.160531
1480626336218580,-1.02278,0.0226525,0.16038
1480626336239631,-1.02278,0.0226525,0.16038
1480626336262192,-1.02293,0.0227677,0.160324
1480626336278736,-1.02294,0.0226617,0.160384
1480626336299796,-1.02294,0.0226617,0.160384
1480626336325360,-1.02222,0.0226681,0.160492
1480626336338395,-1.0214,0.0225389,0.160399
1480626336359450,-1.02056,0.0221416,0.16031
1480626336383515,-1.02005,0.0218222,0.160335
1480626336404571,-1.02005,0.0218222,0.160335
1480626336427130,-1.02021,0.0218314,0.160338
1480626336443675,-1.02018,0.021835,0.160329
1480626336460219,-1.02018,0.021835,0.160329
1480626336479773,-1.02086,0.0219979,0.16026
1480626336502331,-1.02086,0.0219979,0.16026
1480626336520880,-1.02086,0.0219979,0.16026
1480626336539931,-1.02089,0.0219943,0.160269
1480626336561990,-1.02089,0.0219943,0.160269
1480626336580039,-1.02045,0.0220227,0.160375
1480626336603100,-1.02045,0.0220227,0.160375
1480626336631175,-1.02045,0.0220227,0.160375
1480626336646213,-1.02061,0.0220318,0.160379
1480626336662758,-1.02061,0.0220318,0.160379
1480626336692838,-1.02085,0.0221636,0.160308
1480626336708381,-1.0214,0.0223136,0.160244
1480626336720913,-1.0214,0.0223136,0.160244
1480626336742472,-1.0214,0.0223136,0.160244
1480626336764529,-1.02156,0.0223228,0.160247
1480626336787088,-1.02156,0.0223228,0.160247
1480626336802630,-1.02156,0.0223228,0.160247
1480626336824688,-1.02169,0.0223356,0.160242
1480626336839731,-1.02169,0.0223356,0.160242
1480626336862288,-1.02226,0.0221542,0.160082
1480626336884848,-1.02285,0.0219859,0.160199
1480626336915935,-1.02282,0.0219896,0.16019
1480626336922449,-1.02298,0.021833,0.160146
1480626336944507,-1.02298,0.021833,0.160146
1480626336970076,-1.02298,0.021833,0.160146
1480626336983612,-1.02314,0.0219018,0.160257
1480626337007175,-1.02313,0.0220079,0.160197
1480626337021212,-1.02326,0.0220207,0.160191
1480626337042267,-1.02326,0.0220207,0.160191
1480626337064828,-1.02326,0.0220207,0.160191
1480626337079867,-1.02326,0.0220207,0.160191
1480626337102428,-1.02327,0.0219146,0.160251
1480626337133010,-1.02326,0.0220207,0.160191
1480626337141031,-1.02256,0.0219043,0.160093
1480626337162086,-1.02238,0.022422,0.159798
1480626337192669,-1.02362,0.0227345,0.159665
1480626337201192,-1.02426,0.023381,0.159462
1480626337246812,-1.02505,0.0239475,0.159589
1480626337249320,-1.02505,0.0239475,0.159589
1480626337261350,-1.02435,0.0241165,0.159754
1480626337282409,-1.02435,0.0241165,0.159754
1480626337304464,-1.02436,0.0240105,0.159814
1480626337321009,-1.02436,0.0240105,0.159814
1480626337342065,-1.0252,0.0242421,0.159855
1480626337364631,-1.02601,0.0244173,0.159779
1480626337381170,-1.02601,0.0244772,0.159887
1480626337403730,-1.02547,0.0242504,0.159578
1480626337424785,-1.02547,0.0242504,0.159578
1480626337441329,-1.02577,0.0240005,0.159588
1480626337462386,-1.02577,0.0240005,0.159588
1480626337485947,-1.02577,0.0240005,0.159588
1480626337510012,-1.02629,0.0243196,0.159562
1480626337522043,-1.02629,0.0243196,0.159562
1480626337544604,-1.02645,0.0243288,0.159565
1480626337563153,-1.02592,0.0236217,0.15938
1480626337582205,-1.02524,0.0231739,0.159188
1480626337604764,-1.0247,0.0230669,0.159093
1480626337635847,-1.02368,0.0233533,0.158757
1480626337642364,-1.02336,0.0237558,0.158519
1480626337664925,-1.02448,0.0239488,0.15845
1480626337682976,-1.02531,0.0238517,0.158387
1480626337702524,-1.02546,0.0238608,0.158391
1480626337732104,-1.02519,0.0236733,0.158345
1480626337747142,-1.02519,0.0236733,0.158345
1480626337762182,-1.02598,0.0241796,0.158365
1480626337784742,-1.02614,0.0241887,0.158368
1480626337802791,-1.02614,0.0241887,0.158368
1480626337829863,-1.02586,0.0240011,0.158323
1480626337847410,-1.02528,0.0240039,0.158159
1480626337862449,-1.02472,0.0240203,0.158271
1480626337889521,-1.0243,0.0241518,0.158327
1480626337904562,-1.024,0.0244616,0.158424
1480626337922609,-1.02425,0.0249209,0.158457
1480626337943665,-1.02467,0.0252541,0.158987
1480626337968232,-1.02281,0.0254288,0.158826
1480626337988785,-1.02366,0.0252553,0.158389
1480626338002322,-1.02536,0.0250712,0.158546
1480626338032403,-1.02608,0.0248692,0.158824
1480626338055463,-1.02608,0.0248692,0.158824
1480626338063485,-1.02608,0.0248692,0.158824
1480626338084540,-1.02764,0.0250047,0.159082
1480626338102590,-1.02795,0.0245004,0.159372
1480626338124648,-1.02748,0.0238175,0.159747
1480626338144700,-1.02652,0.0234384,0.160206
1480626338167261,-1.02599,0.0230304,0.160558
1480626338185309,-1.02577,0.0224785,0.160861
1480626338204861,-1.02577,0.0224785,0.160861
1480626338227420,-1.02568,0.0223271,0.16137
1480626338243463,-1.02526,0.0224289,0.161859
1480626338264519,-1.02498,0.0226457,0.162292
1480626338296605,-1.02411,0.0228813,0.162826
1480626338303624,-1.02402,0.0230145,0.163598
1480626338324679,-1.02348,0.0229073,0.164479
1480626338355761,-1.02226,0.0226646,0.164996
1480626338371304,-1.02049,0.0220446,0.165422
1480626338384839,-1.01951,0.0218738,0.165759
1480626338407399,-1.01952,0.0217677,0.165819
1480626338424946,-1.01952,0.0217677,0.165819
1480626338445000,-1.01981,0.0217309,0.165709
1480626338467058,-1.02065,0.02168,0.165488
1480626338485106,-1.02066,0.0215739,0.165548
1480626338504658,-1.02081,0.021749,0.1656
1480626338527218,-1.02081,0.021749,0.1656
1480626338545266,-1.02065,0.0215609,0.165272
1480626338574344,-1.02094,0.0210736,0.164852
1480626338587378,-1.0211,0.0206792,0.164377
1480626338604928,-1.02179,0.020767,0.163934
1480626338624476,-1.02277,0.0208173,0.163381
1480626338656060,-1.02399,0.0209992,0.162758
1480626338665085,-1.02506,0.0213793,0.16202
1480626338687644,-1.02651,0.0220056,0.161153
1480626338707197,-1.02861,0.0225049,0.161229
1480626338725244,-1.03055,0.0213383,0.162096
1480626338744798,-1.02425,0.0216688,0.163656
1480626338770365,-1.01976,0.0226367,0.161836
1480626338785405,-1.02308,0.0230922,0.161132
1480626338805959,-1.02629,0.0236221,0.162066
1480626338827016,-1.02349,0.0233365,0.161988
1480626338845565,-1.01963,0.02219,0.161797
1480626338864616,-1.0203,0.0212791,0.162332
1480626338887175,-1.02352,0.0214648,0.162899
1480626338913245,-1.02538,0.0234021,0.163566
1480626338926279,-1.02494,0.0238042,0.163609
1480626338947335,-1.0233,0.0230796,0.163814
1480626338965388,-1.02171,0.0221389,0.164148
1480626338984434,-1.02079,0.0210941,0.164414
1480626339014514,-1.02078,0.0210345,0.164306
1480626339025042,-1.02052,0.0209953,0.164042
1480626339046098,-1.02132,0.0214872,0.163797
1480626339067154,-1.02224,0.0221576,0.163593
1480626339085202,-1.02286,0.0229579,0.163163
1480626339106262,-1.02301,0.023027,0.163274
1480626339127314,-1.02301,0.023027,0.163274
1480626339144861,-1.02248,0.022664,0.163459
1480626339171932,-1.02114,0.0220642,0.16361
1480626339186973,-1.01994,0.0213712,0.163815
1480626339211038,-1.01897,0.020976,0.163996
1480626339232097,-1.01912,0.0209259,0.163892
1480626339247134,-1.01912,0.0209259,0.163892
1480626339265186,-1.01912,0.0209854,0.164
1480626339293757,-1.01911,0.0210915,0.16394
1480626339309299,-1.01911,0.0210915,0.16394
1480626339325341,-1.01911,0.0210915,0.16394
1480626339351911,-1.01842,0.0206593,0.164012
1480626339366952,-1.01734,0.0204594,0.164088
1480626339385000,-1.01677,0.0204738,0.164199
1480626339407560,-1.01648,0.0206761,0.164357
1480626339428615,-1.0162,0.0207129,0.164467
1480626339445160,-1.01578,0.0207835,0.164414
1480626339467721,-1.01578,0.0207835,0.164414
1480626339487272,-1.01578,0.0207835,0.164414
1480626339506323,-1.01564,0.0206679,0.16447
1480626339527881,-1.01564,0.0206679,0.16447
1480626339547434,-1.0155,0.020761,0.164416
1480626339564983,-1.0148,0.0208091,0.164366
1480626339602579,-1.0141,0.0208573,0.164315
1480626339608595,-1.01383,0.0207284,0.164377
1480626339629650,-1.01355,0.0207651,0.164487
1480626339647702,-1.01355,0.0207651,0.164487
1480626339674771,-1.0134,0.0206493,0.164542
1480626339689810,-1.0134,0.0205902,0.164434
1480626339707861,-1.0134,0.0205902,0.164434
1480626339727411,-1.0134,0.0205902,0.164434
1480626339749973,-1.0134,0.0205902,0.164434
1480626339767518,-1.01356,0.0205996,0.164438
1480626339787069,-1.01356,0.0205996,0.164438
1480626339813641,-1.01353,0.0206033,0.164429
1480626339827677,-1.01368,0.0206719,0.164541
1480626339848737,-1.01368,0.0206719,0.164541
1480626339869866,-1.01353,0.0206033,0.164429
1480626339894856,-1.01356,0.0205996,0.164438
1480626339909896,-1.01356,0.0205996,0.164438
1480626339939977,-1.01396,0.0206352,0.164431
1480626339947497,-1.01396,0.0206352,0.164431
1480626339968553,-1.01396,0.0206352,0.164431
1480626339992617,-1.01477,0.0208129,0.164356
1480626340007657,-1.01592,0.0209461,0.164191
1480626340034729,-1.01591,0.0211117,0.164239
1480626340049768,-1.01602,0.0211125,0.163958
1480626340080350,-1.01658,0.0210388,0.163739
1480626340088872,-1.01753,0.0212723,0.1635
1480626340126973,-1.01833,0.0217642,0.163255
1480626340129481,-1.01898,0.0219622,0.162743
1480626340148536,-1.01978,0.0223347,0.162282
1480626340170591,-1.02087,0.0228482,0.162034
1480626340187637,-1.02196,0.0231957,0.161738
1480626340210195,-1.02247,0.0237705,0.161434
1480626340240276,-1.02297,0.0243023,0.161288
1480626340247795,-1.02353,0.0245123,0.161331
1480626340268851,-1.02354,0.0244062,0.161391
1480626340292414,-1.02353,0.0243465,0.161284
1480626340329014,-1.02354,0.0244062,0.161391
1480626340331536,-1.02314,0.0242652,0.161459
1480626340353075,-1.02288,0.0241502,0.161797
1480626340373630,-1.02264,0.0237037,0.162039
1480626340390174,-1.02238,0.0234694,0.162161
1480626340409726,-1.02212,0.0233542,0.162499
1480626340427774,-1.02133,0.0226972,0.162697
1480626340463369,-1.02039,0.0221032,0.163275
1480626340469886,-1.01798,0.021286,0.164211
1480626340493449,-1.01467,0.0201568,0.16346
1480626340510494,-1.01707,0.0194962,0.162649
1480626340531053,-1.02025,0.0201489,0.16282
1480626340547599,-1.02103,0.0208822,0.162997
1480626340570154,-1.01891,0.0213589,0.16294
1480626340592713,-1.01791,0.021835,0.163203
1480626340607754,-1.01775,0.0218257,0.163199
1480626340630314,-1.01819,0.021798,0.163093
1480626340657385,-1.01916,0.0218186,0.162974
1480626340668415,-1.01984,0.0219825,0.162905
1480626340690974,-1.01997,0.0219955,0.162899
1480626340709523,-1.01944,0.0216918,0.16319
1480626340727572,-1.0182,0.0213769,0.163323
1480626340750633,-1.01723,0.0213561,0.163442
1480626340771198,-1.01723,0.0213561,0.163442
1480626340792245,-1.01723,0.0213561,0.163442
1480626340810794,-1.01695,0.0213337,0.163444
1480626340829844,-1.01695,0.0213337,0.163444
1480626340853407,-1.01669,0.0215325,0.163611
1480626340869951,-1.01669,0.0215325,0.163611
1480626340889502,-1.01666,0.0215362,0.163602
1480626340908552,-1.01666,0.0215362,0.163602
1480626340930113,-1.01665,0.0216424,0.163542
1480626340951167,-1.01668,0.0216387,0.163551
1480626340967712,-1.01718,0.0220059,0.163359
1480626340994783,-1.01815,0.0225198,0.163393
1480626341017342,-1.01882,0.02279,0.163264
1480626341027369,-1.01879,0.0227937,0.163254
1480626341049929,-1.01854,0.0227372,0.1637
1480626341072489,-1.01673,0.0226613,0.164101
1480626341087529,-1.01672,0.0227675,0.164041
1480626341116105,-1.01672,0.0227675,0.164041
1480626341132649,-1.01688,0.0227769,0.164045
1480626341153704,-1.01688,0.0227769,0.164045
1480626341170249,-1.01714,0.0229525,0.163815
1480626341191306,-1.01768,0.0232692,0.163799
1480626341212863,-1.0182,0.023424,0.163726
1480626341237429,-1.01819,0.0235301,0.163666
1480626341250964,-1.01835,0.0235396,0.16367
1480626341272021,-1.01795,0.0232485,0.163956
1480626341290068,-1.01712,0.0233123,0.164453
1480626341312633,-1.01574,0.0233144,0.164689
1480626341332182,-1.01558,0.023305,0.164686
1480626341350730,-1.01576,0.0229834,0.164593
1480626341372791,-1.01617,0.0229597,0.164477
1480626341399861,-1.01674,0.0228393,0.164425
1480626341409887,-1.01674,0.0228393,0.164425
1480626341439967,-1.01674,0.0228393,0.164425
1480626341451999,-1.01676,0.0225675,0.164436
1480626341470048,-1.01639,0.0222131,0.164623
1480626341492607,-1.01537,0.0226448,0.165046
1480626341512158,-1.01436,0.0232258,0.165251
1480626341530207,-1.0142,0.0232163,0.165247
1480626341558783,-1.0142,0.0232163,0.165247
1480626341579839,-1.01463,0.0234139,0.165297
1480626341603904,-1.01501,0.0238278,0.165218
1480626341627967,-1.01501,0.0238278,0.165218
1480626341631982,-1.01501,0.0238278,0.165218
1480626341650026,-1.01513,0.0237225,0.164997
1480626341672585,-1.0156,0.0233173,0.164961
1480626341699657,-1.01549,0.0232571,0.165134
1480626341710688,-1.01465,0.0230829,0.1652
1480626341732746,-1.01449,0.0230734,0.165197
1480626341752298,-1.0148,0.0228243,0.165206
1480626341770848,-1.01513,0.0224529,0.165009
1480626341792405,-1.01565,0.0224896,0.16472
1480626341811956,-1.01663,0.0225543,0.164442
1480626341830006,-1.01663,0.0225543,0.164442
1480626341852565,-1.01632,0.0225071,0.163893
1480626341882645,-1.01743,0.0224063,0.163286
1480626341914233,-1.01831,0.0222143,0.163567
1480626341935787,-1.01732,0.0224058,0.163567
1480626341939796,-1.01662,0.0221391,0.163687
1480626341957343,-1.0157,0.0214681,0.163889
1480626341979402,-1.01504,0.0212568,0.164125
1480626341999456,-1.01503,0.0211975,0.164017
1480626342009983,-1.0157,0.0214681,0.163889
1480626342032543,-1.01624,0.0216662,0.163658
1480626342060618,-1.01637,0.0217386,0.16376
1480626342071648,-1.01637,0.0217386,0.16376
1480626342093205,-1.01637,0.0217386,0.16376
1480626342112762,-1.01569,0.0219177,0.164201
1480626342129301,-1.01457,0.0220646,0.164641
1480626342151861,-1.01389,0.0218686,0.165144
1480626342173920,-1.01361,0.0220234,0.165469
1480626342188458,-1.01401,0.022284,0.165618
1480626342213024,-1.01484,0.0223991,0.165445
1480626342241600,-1.01607,0.0226562,0.165203
1480626342262656,-1.01678,0.0226985,0.164927
1480626342271682,-1.01706,0.0225431,0.164602
1480626342294240,-1.01724,0.0219965,0.164353
1480626342315297,-1.01712,0.0217871,0.164744
1480626342331840,-1.01611,0.0221126,0.165226
1480626342354399,-1.01528,0.0219977,0.1654
1480626342375456,-1.01477,0.021736,0.165532
1480626342398017,-1.01574,0.0218765,0.165629
1480626342414062,-1.01698,0.0219374,0.165774
1480626342436621,-1.01753,0.0219703,0.165494
1480626342457674,-1.01796,0.0220493,0.165328
1480626342474218,-1.01796,0.0220493,0.165328
1480626342495775,-1.01796,0.0217055,0.164957
1480626342511819,-1.01758,0.0211136,0.164712
1480626342534379,-1.01803,0.020755,0.16451
1480626342555434,-1.019,0.020942,0.16444
1480626342571980,-1.019,0.020942,0.16444
1480626342594539,-1.01912,0.0209551,0.164434
1480626342615095,-1.01911,0.0211207,0.164482
1480626342631637,-1.02012,0.0210021,0.164866
1480626342654198,-1.02156,0.0209923,0.165627
1480626342675253,-1.02077,0.020483,0.166582
1480626342714861,-1.01706,0.0203539,0.168203
1480626342717365,-1.0131,0.0203502,0.167082
1480626342745941,-1.01723,0.0207823,0.166426
1480626342751957,-1.02237,0.0215744,0.166031
1480626342774018,-1.02446,0.0234063,0.165222
1480626342795072,-1.02455,0.0254871,0.164894
1480626342811617,-1.02368,0.0262149,0.165582
1480626342834177,-1.02153,0.0254062,0.166247
1480626342855733,-1.01911,0.0241824,0.166708
1480626342871776,-1.01851,0.0231248,0.167415
1480626342894335,-1.01915,0.022682,0.168528
1480626342915894,-1.01905,0.0222605,0.169039
1480626342931937,-1.01928,0.0229333,0.168953
1480626342962016,-1.02032,0.0239639,0.169115
1480626342993099,-1.02011,0.0247228,0.169244
1480626343012651,-1.01952,0.0254878,0.169222
1480626343023680,-1.01952,0.0254878,0.169222
1480626343044235,-1.0195,0.025594,0.169162
1480626343051755,-1.01854,0.0252556,0.169453
1480626343074315,-1.01833,0.0249228,0.16992
1480626343095371,-1.01708,0.0248448,0.170477
1480626343111915,-1.01651,0.0251108,0.171288
1480626343134475,-1.01564,0.0245325,0.172427
1480626343157536,-1.01348,0.0236705,0.173246
1480626343171574,-1.01087,0.0231357,0.173726
1480626343194134,-1.01028,0.021704,0.173513
1480626343216693,-1.01015,0.0216902,0.173519
1480626343231733,-1.00903,0.0215684,0.172985
1480626343267830,-1.01001,0.0223619,0.171458
1480626343292896,-1.01388,0.0220629,0.169521
1480626343297911,-1.01754,0.0211433,0.167781
1480626343314456,-1.02006,0.0206957,0.166578
1480626343353057,-1.02117,0.0206549,0.16608
1480626343358069,-1.0213,0.020817,0.165856
1480626343374116,-1.02151,0.021387,0.165821
1480626343404193,-1.02223,0.0217865,0.166192
1480626343411212,-1.02137,0.0217945,0.166571
1480626343434274,-1.02004,0.0213711,0.167046
1480626343456832,-1.01882,0.0206925,0.167516
1480626343471374,-1.01764,0.0199501,0.167888
1480626343494432,-1.01729,0.0193233,0.168086
1480626343517494,-1.01733,0.0187205,0.168002
1480626343531032,-1.01847,0.018422,0.167792
1480626343569133,-1.01959,0.0185605,0.167618
1480626343576651,-1.02055,0.018749,0.167549
1480626343591190,-1.02095,0.0188915,0.167482
1480626343614255,-1.02136,0.0189278,0.167475
1480626343642827,-1.02136,0.0189278,0.167475
1480626343657867,-1.02098,0.0185136,0.167554
1480626343680431,-1.02098,0.0185136,0.167554
1480626343696974,-1.02213,0.0181851,0.167779
1480626343718528,-1.02315,0.0178434,0.168011
1480626343740086,-1.02375,0.0175117,0.168081
1480626343764151,-1.02458,0.0175385,0.168236
1480626343777686,-1.02532,0.0171743,0.168469
1480626343794230,-1.02591,0.0170085,0.168587
1480626343816790,-1.02591,0.0170085,0.168587
1480626343845366,-1.0251,0.0166214,0.168772
1480626343854391,-1.02458,0.0164053,0.168736
1480626343876951,-1.02431,0.0163359,0.168905
1480626343898008,-1.02431,0.0163359,0.168905
1480626343914050,-1.02444,0.0165287,0.169223
1480626343936609,-1.02425,0.0170759,0.169468
1480626343959672,-1.02425,0.0170759,0.169468
1480626343975713,-1.02344,0.0167769,0.169326
1480626343996771,-1.02344,0.0167769,0.169326
1480626344017825,-1.02346,0.0166709,0.169386
1480626344034369,-1.02316,0.0166055,0.169546
1480626344063949,-1.02292,0.0165317,0.169724
1480626344077986,-1.02266,0.0162368,0.169738
1480626344094027,-1.0224,0.0159418,0.169752
1480626344117090,-1.02251,0.0160616,0.169686
1480626344139649,-1.02199,0.0159645,0.169866
1480626344154187,-1.02126,0.0160741,0.169911
1480626344176750,-1.02046,0.0157879,0.170044
1480626344206828,-1.0199,0.0157414,0.170046
1480626344214351,-1.0199,0.0157414,0.170046
1480626344237410,-1.0199,0.0157414,0.170046
1480626344259468,-1.0199,0.0157414,0.170046
1480626344288044,-1.02003,0.0157552,0.170041
1480626344297070,-1.02003,0.0157552,0.170041
1480626344319127,-1.02001,0.0158613,0.169981
1480626344341686,-1.01963,0.0155526,0.169999
1480626344356726,-1.01963,0.0155526,0.169999
1480626344379287,-1.01867,0.015363,0.170068
1480626344393825,-1.01867,0.015363,0.170068
1480626344416888,-1.01867,0.015363,0.170068
1480626344445462,-1.01879,0.0153767,0.170062
1480626344453484,-1.01851,0.0155022,0.169845
1480626344476545,-1.01822,0.0155851,0.169786
1480626344499105,-1.01822,0.0155851,0.169786
1480626344513648,-1.01822,0.0155851,0.169786
1480626344544225,-1.01822,0.0155851,0.169786
1480626344566787,-1.01806,0.0155756,0.169782
1480626344573804,-1.01879,0.0153173,0.169955
1480626344597386,-1.01895,0.0153268,0.169959
1480626344626945,-1.01895,0.0153268,0.169959
1480626344640482,-1.01907,0.0153406,0.169954
1480626344656524,-1.01835,0.0157176,0.169997
1480626344679085,-1.01738,0.0156934,0.170113
1480626344700140,-1.01603,0.0151949,0.170199
1480626344723201,-1.01531,0.0151389,0.170197
1480626344739245,-1.01531,0.0150797,0.170089
1480626344760300,-1.01531,0.0150797,0.170089
1480626344776844,-1.01531,0.0150797,0.170089
1480626344799404,-1.01531,0.0150797,0.170089
1480626344822465,-1.01531,0.0150797,0.170089
1480626344850540,-1.01547,0.0150892,0.170093
1480626344875607,-1.01547,0.0150892,0.170093
1480626344880626,-1.01559,0.0151029,0.170088
1480626344897168,-1.01503,0.0150564,0.17009
1480626344926743,-1.01503,0.0150564,0.17009
1480626344947800,-1.0149,0.0150426,0.170095
1480626344956822,-1.0149,0.0150426,0.170095
1480626344986903,-1.0149,0.0150426,0.170095
1480626345000440,-1.01503,0.0150564,0.17009
1480626345017485,-1.01503,0.0150564,0.17009
1480626345039043,-1.01503,0.0150564,0.17009
1480626345061602,-1.01503,0.0150564,0.17009
1480626345077644,-1.01518,0.0150659,0.170094
1480626345100206,-1.01518,0.0150659,0.170094
1480626345121762,-1.01503,0.0150564,0.17009
1480626345142818,-1.01518,0.0150659,0.170094
1480626345159361,-1.01479,0.0148635,0.170052
1480626345181922,-1.01417,0.0150338,0.169926
1480626345196965,-1.01432,0.0150433,0.16993
1480626345234061,-1.01432,0.0150433,0.16993
1480626345241581,-1.01433,0.0151024,0.170038
1480626345256120,-1.01432,0.0150433,0.16993
1480626345279181,-1.01433,0.0151024,0.170038
1480626345301741,-1.01433,0.0151024,0.170038
1480626345322796,-1.01432,0.0150433,0.16993
1480626345346862,-1.01392,0.0150063,0.169936
1480626345369423,-1.01392,0.0150063,0.169936
1480626345375937,-1.01349,0.0149264,0.1701
1480626345401507,-1.01325,0.0147925,0.17017
1480626345422060,-1.0131,0.014783,0.170166
1480626345442615,-1.01349,0.0149264,0.1701
1480626345459160,-1.01418,0.0152703,0.170357
1480626345481721,-1.01421,0.0152661,0.170367
1480626345504280,-1.01507,0.0149459,0.170159
1480626345519320,-1.01504,0.0149501,0.17015
1480626345541879,-1.01433,0.0151024,0.170038
1480626345562936,-1.01349,0.0148673,0.169992
1480626345593015,-1.01173,0.0143791,0.169916
1480626345601538,-1.01173,0.0143791,0.169916
1480626345624099,-1.0119,0.0142822,0.16998
1480626345654178,-1.01182,0.0148299,0.169948
1480626345661700,-1.01182,0.0148299,0.169948
1480626345682755,-1.0114,0.0149583,0.170003
1480626345706818,-1.01125,0.0149488,0.169999
1480626345721858,-1.01128,0.0149446,0.170008
1480626345744418,-1.01237,0.0150418,0.169995
1480626345759458,-1.01237,0.0150418,0.169995
1480626345789037,-1.01224,0.0151344,0.16994
1480626345803075,-1.01153,0.0149721,0.169998
1480626345819117,-1.011,0.0149214,0.170009
1480626345841684,-1.01085,0.0148055,0.170065
1480626345879780,-1.01085,0.0148055,0.170065
1480626345882285,-1.01085,0.0148055,0.170065
1480626345901837,-1.01085,0.0148055,0.170065
1480626345922892,-1.01085,0.0148055,0.170065
1480626345939437,-1.01085,0.0148055,0.170065
1480626345961998,-1.01101,0.014815,0.170069
1480626345984056,-1.01096,0.0149256,0.17
1480626345999096,-1.01097,0.0149846,0.170108
1480626346027672,-1.01097,0.0149846,0.170108
1480626346044216,-1.01097,0.0149846,0.170108
1480626346065272,-1.01033,0.0144398,0.170245
1480626346081816,-1.00923,0.0143424,0.170258
1480626346104376,-1.00923,0.0143424,0.170258
1480626346126936,-1.00923,0.0143424,0.170258
1480626346149496,-1.00923,0.0143424,0.170258
1480626346165539,-1.0092,0.0143467,0.170249
1480626346192612,-1.01048,0.0144765,0.170791
1480626346201636,-1.0109,0.0148358,0.171868
1480626346224194,-1.0101,0.0148471,0.17253
1480626346238733,-1.00988,0.0144093,0.173045
1480626346261795,-1.00939,0.0136965,0.172862
1480626346284354,-1.01024,0.0133347,0.172812
1480626346298393,-1.01024,0.0133347,0.172812
1480626346321954,-1.01024,0.0133347,0.172812
1480626346344013,-1.00983,0.0131793,0.172602
1480626346358552,-1.00966,0.0134846,0.172429
1480626346381614,-1.00923,0.013601,0.172208
1480626346404174,-1.00907,0.0135914,0.172203
1480626346419214,-1.00907,0.0135914,0.172203
1480626346447791,-1.00907,0.0135914,0.172203
1480626346464335,-1.00907,0.0135914,0.172203
1480626346487394,-1.00907,0.0135914,0.172203
1480626346501935,-1.00852,0.0134379,0.172264
1480626346523992,-1.00867,0.013554,0.172209
1480626346545049,-1.00867,0.013554,0.172209
1480626346561592,-1.00826,0.0135165,0.172215
1480626346584152,-1.00753,0.0135663,0.172153
1480626346605208,-1.00753,0.0135076,0.172045
1480626346621752,-1.00795,0.0136471,0.171989
1480626346651832,-1.00795,0.0136471,0.171989
1480626346664867,-1.00795,0.0136471,0.171989
1480626346683417,-1.00795,0.0136471,0.171989
1480626346703972,-1.00795,0.0136471,0.171989
1480626346725529,-1.0075,0.0137205,0.171926
1480626346742573,-1.0075,0.0137205,0.171926
1480626346764131,-1.00753,0.0137162,0.171936
1480626346785187,-1.00753,0.0137162,0.171936
1480626346803236,-1.00753,0.0137162,0.171936
1480626346824295,-1.00753,0.0137162,0.171936
1480626346845348,-1.0071,0.0137419,0.172041
1480626346861891,-1.00668,0.0138109,0.171987
1480626346897987,-1.0068,0.0139901,0.172031
1480626346907513,-1.00681,0.0139423,0.172199
1480626346928067,-1.00586,0.01381,0.172374
1480626346944110,-1.00535,0.0135713,0.173046
1480626346982211,-1.0042,0.0126837,0.173904
1480626346984718,-1.00189,0.0122868,0.174585
1480626347011790,-0.999193,0.0125092,0.174904
1480626347026829,-0.998675,0.0118938,0.174382
1480626347042371,-1.00165,0.0115442,0.17428
1480626347064430,-1.00264,0.0115335,0.174608
1480626347086989,-1.00208,0.0117678,0.174876
1480626347101529,-1.00043,0.0113629,0.175165
1480626347124090,-0.999622,0.0111361,0.175394
1480626347146651,-0.999498,0.0111218,0.175399
1480626347177230,-0.99951,0.0110151,0.175458
1480626347184249,-0.999801,0.010874,0.175408
1480626347207310,-1.00019,0.0109606,0.175235
1480626347236889,-1.00019,0.0109606,0.175235
1480626347244409,-1.00035,0.0109702,0.175239
1480626347266969,-1.00031,0.0109748,0.17523
1480626347281008,-1.00046,0.0111495,0.175284
1480626347304068,-1.00046,0.0111495,0.175284
1480626347327630,-1.00046,0.0111495,0.175284
1480626347341166,-0.9999,0.0111017,0.175285
1480626347364229,-0.999518,0.0107918,0.1753
1480626347394308,-0.999137,0.0104818,0.175315
1480626347401327,-0.999137,0.0104818,0.175315
1480626347424388,-0.999137,0.0104818,0.175315
1480626347446448,-0.999106,0.0104864,0.175306
1480626347468005,-0.999249,0.0106028,0.175251
1480626347485049,-0.999249,0.0106028,0.175251
1480626347506606,-0.999249,0.0106028,0.175251
1480626347527663,-0.999249,0.0106028,0.175251
1480626347544708,-0.999249,0.0106028,0.175251
1480626347566767,-0.999249,0.0106028,0.175251
1480626347588826,-0.999249,0.0106028,0.175251
1480626347604367,-0.999404,0.0106125,0.175256
1480626347626926,-0.999373,0.010617,0.175246
1480626347647983,-0.999529,0.0106267,0.175251
1480626347664526,-0.999529,0.0106267,0.175251
1480626347686585,-0.999373,0.010617,0.175246
1480626347707641,-0.999373,0.010617,0.175246
1480626347724185,-0.999373,0.010617,0.175246
1480626347752761,-0.999373,0.010617,0.175246
1480626347767801,-0.999373,0.010617,0.175246
1480626347784345,-0.999529,0.0106267,0.175251
1480626347807406,-0.999529,0.0106267,0.175251
1480626347836985,-0.999516,0.0107334,0.175192
1480626347844506,-0.999674,0.0108015,0.175305
1480626347866564,-0.999674,0.0108015,0.175305
1480626347904667,-0.999643,0.010806,0.175295
1480626347907173,-0.999674,0.0108015,0.175305
1480626347926724,-0.999516,0.0107334,0.175192
1480626347949284,-0.99964,0.0107477,0.175187
1480626347964325,-0.999643,0.010806,0.175295
1480626347986884,-0.999798,0.0108157,0.1753
1480626348009444,-0.999798,0.0108157,0.1753
1480626348023982,-0.999923,0.0108299,0.175294
1480626348046543,-0.99991,0.0109366,0.175235
1480626348070106,-0.99991,0.0109366,0.175235
1480626348083643,-0.99991,0.0109366,0.175235
1480626348112722,-0.999516,0.0107334,0.175192
1480626348129768,-0.999516,0.0107334,0.175192
1480626348150318,-0.999516,0.0107334,0.175192
1480626348166863,-0.999516,0.0107334,0.175192
1480626348189423,-0.999503,0.0108401,0.175133
1480626348210479,-0.99963,0.0109127,0.175236
1480626348232539,-0.999213,0.0109813,0.175183
1480626348249085,-0.999213,0.0109813,0.175183
1480626348263621,-0.999213,0.0109813,0.175183
1480626348286681,-0.999213,0.0109813,0.175183
1480626348309242,-0.999213,0.0109813,0.175183
1480626348323780,-0.999213,0.0109813,0.175183
1480626348346843,-0.999368,0.010991,0.175187
1480626348369402,-0.999337,0.0109955,0.175178
1480626348391961,-0.999358,0.011156,0.175237
1480626348406501,-0.999314,0.0112672,0.175168
1480626348429565,-0.999314,0.0112672,0.175168
1480626348450117,-0.999345,0.0112627,0.175178
1480626348468166,-0.999358,0.011156,0.175237
1480626348489221,-0.999358,0.011156,0.175237
1480626348510277,-0.999345,0.0112627,0.175178
1480626348532837,-0.999314,0.0112672,0.175168
1480626348556900,-0.999314,0.0112672,0.175168
1480626348570437,-0.999469,0.0112769,0.175173
1480626348586980,-0.999469,0.0112769,0.175173
1480626348609039,-0.999469,0.0112769,0.175173
1480626348637615,-0.999469,0.0112769,0.175173
1480626348648144,-0.999469,0.0112769,0.175173
1480626348669201,-0.999469,0.0112769,0.175173
1480626348690255,-0.999469,0.0112769,0.175173
1480626348707302,-0.999625,0.0112866,0.175177
1480626348729359,-0.999594,0.0112911,0.175167
1480626348757935,-0.999596,0.0113495,0.175276
1480626348766458,-0.999752,0.0113592,0.17528
1480626348789018,-0.999739,0.0114659,0.175221
1480626348810074,-0.999739,0.0114659,0.175221
1480626348834139,-0.999739,0.0114659,0.175221
1480626348849179,-0.999739,0.0114659,0.175221
1480626348870234,-0.999583,0.0114562,0.175217
1480626348888282,-0.999583,0.0114562,0.175217
1480626348910341,-0.999583,0.0114562,0.175217
1480626348931898,-0.999739,0.0114659,0.175221
1480626348945938,-0.999739,0.0114659,0.175221
1480626348969500,-1.00049,0.0121339,0.175023
1480626348991557,-1.00147,0.0122635,0.174857
1480626349006597,-1.00156,0.0124325,0.174626
1480626349035173,-1.00184,0.0127719,0.174457
1480626349051718,-1.00181,0.0127763,0.174448
1480626349066256,-1.0017,0.0126555,0.174512
1480626349089317,-1.00129,0.012676,0.174626
1480626349112378,-1.00126,0.0126804,0.174617
1480626349125914,-1.00142,0.0126901,0.174621
1480626349148977,-1.00141,0.0128552,0.17467
1480626349172038,-1.00141,0.0128552,0.17467
1480626349192591,-1.00142,0.0126901,0.174621
1480626349209136,-1.00126,0.0126804,0.174617
1480626349231696,-1.00142,0.0126901,0.174621
1480626349254255,-1.00141,0.0128552,0.17467
1480626349269297,-1.00114,0.0126663,0.174622
1480626349292357,-1.00101,0.0126521,0.174627
1480626349314417,-1.00101,0.0126521,0.174627
1480626349329457,-1.00072,0.012735,0.174569
1480626349352015,-1.00071,0.0128416,0.17451
1480626349372570,-1.00071,0.0129,0.174618
1480626349390118,-1.00071,0.0128416,0.17451
1480626349417690,-0.999871,0.0128868,0.174729
1480626349434235,-0.999282,0.0133925,0.174988
1480626349449275,-0.999114,0.0134895,0.174925
1480626349471835,-0.998333,0.0128601,0.17468
1480626349492890,-0.999329,0.0124507,0.174524
1480626349509939,-0.999497,0.0123537,0.174587
1480626349531996,-0.999041,0.0126502,0.174682
1480626349552549,-0.998199,0.013011,0.174735
1480626349569094,-0.99858,0.0133207,0.174719
1480626349591653,-0.999227,0.0137027,0.174535
1480626349620229,-0.999633,0.013833,0.174204
1480626349629255,-1.00043,0.0143895,0.174073
1480626349651813,-1.00043,0.0143895,0.174073
1480626349672368,-1.00044,0.0143412,0.17424
1480626349689417,-0.999853,0.0144147,0.17445
1480626349725007,-0.999072,0.0141837,0.174689
1480626349735537,-0.997689,0.0140741,0.17497
1480626349756591,-0.997689,0.0140741,0.17497
1480626349771632,-0.998826,0.0136889,0.175084
1480626349792688,-0.998823,0.0136306,0.174975
1480626349816752,-0.998823,0.0136306,0.174975
1480626349837808,-0.998867,0.0135195,0.175044
1480626349860369,-0.999638,0.0139157,0.174854
1480626349869394,-1.00114,0.0144131,0.174509
1480626349891952,-1.00206,0.0148668,0.174156
1480626349921531,-1.00286,0.0153165,0.174083
1480626349929555,-1.00285,0.0154231,0.174024
1480626349951611,-1.00249,0.0149588,0.174267
1480626349974171,-1.00126,0.0143688,0.174395
1480626349995228,-1.00092,0.0137391,0.174588
1480626350011772,-1.00137,0.0132336,0.174602
1480626350035336,-1.00208,0.0129652,0.174496
1480626350048369,-1.00223,0.0129749,0.1745
1480626350071931,-1.00223,0.0129749,0.1745
1480626350094993,-1.00223,0.0129749,0.1745
1480626350115546,-1.00239,0.0129846,0.174505
1480626350132593,-1.00223,0.0129749,0.1745
1480626350154149,-1.00223,0.0129749,0.1745
1480626350168689,-1.00153,0.0132433,0.174606
1480626350192752,-1.00097,0.0129721,0.17445
1480626350229354,-1.00228,0.0124315,0.17452
1480626350231355,-1.0022,0.0118738,0.174545
1480626350251910,-1.00161,0.012263,0.174586
1480626350274972,-1.00199,0.0125143,0.174462
1480626350288507,-1.00309,0.0128813,0.174449
1480626350312071,-1.00346,0.0131324,0.174324
1480626350334129,-1.00384,0.0133835,0.1742
1480626350355185,-1.00389,0.0132725,0.174268
1480626350372731,-1.00428,0.0133584,0.174095
1480626350394289,-1.00499,0.013207,0.174206
1480626350422864,-1.00567,0.0134339,0.174248
1480626350431889,-1.00582,0.0134436,0.174253
1480626350454950,-1.00582,0.0134436,0.174253
1480626350483026,-1.00582,0.0134436,0.174253
1480626350499067,-1.00567,0.0134339,0.174248
1480626350514107,-1.00614,0.0130892,0.174322
1480626350536669,-1.00614,0.0130892,0.174322
1480626350552208,-1.006,0.012973,0.174377
1480626350581787,-1.0064,0.0129522,0.174262
1480626350595323,-1.0072,0.0132843,0.173973
1480626350619388,-1.00802,0.0135685,0.173852
1480626350634428,-1.00868,0.0137841,0.173618
1480626350655483,-1.00884,0.0138526,0.17373
1480626350673532,-1.00884,0.0138526,0.17373
1480626350694086,-1.00817,0.0137435,0.173905
1480626350715143,-1.00707,0.0134354,0.174027
1480626350731686,-1.00691,0.0134257,0.174023
1480626350754748,-1.00691,0.013367,0.173915
1480626350784331,-1.00706,0.0133767,0.173919
1480626350791846,-1.00706,0.0133767,0.173919
1480626350814406,-1.00707,0.0134354,0.174027
1480626350836969,-1.00707,0.0134354,0.174027
1480626350851506,-1.00691,0.0134257,0.174023
1480626350874065,-1.0058,0.013198,0.173544
1480626350896625,-1.00853,0.0136412,0.173131
1480626350911666,-1.00978,0.0140647,0.172953
1480626350934727,-1.00913,0.0148213,0.172647
1480626350956785,-1.00871,0.0148902,0.172594
1480626350971333,-1.00845,0.0145949,0.172605
1480626350994386,-1.0078,0.0140967,0.172575
1480626351017948,-1.00782,0.0137662,0.172477
1480626351030982,-1.0085,0.0138273,0.17247
1480626351054044,-1.00906,0.0139809,0.172409
1480626351076604,-1.00929,0.014489,0.172278
1480626351091142,-1.00911,0.015125,0.172202
1480626351114204,-1.00875,0.0156492,0.172172
1480626351142779,-1.00901,0.0163773,0.172208
1480626351151304,-1.00938,0.0169107,0.172348
1480626351174364,-1.00891,0.0173144,0.172383
1480626351196924,-1.0082,0.0174663,0.172272
1480626351211964,-1.00859,0.0178343,0.172363
1480626351235025,-1.00887,0.0179168,0.17247
1480626351256582,-1.00887,0.0179168,0.17247
1480626351279145,-1.00887,0.0179168,0.17247
1480626351294182,-1.00871,0.017907,0.172466
1480626351316743,-1.00875,0.0179029,0.172475
1480626351337799,-1.00871,0.017907,0.172466
1480626351354342,-1.00805,0.0176919,0.172701
1480626351376902,-1.00753,0.0174428,0.173098
1480626351397959,-1.00659,0.0172624,0.173443
1480626351415507,-1.00494,0.0166831,0.173413
1480626351436561,-1.00498,0.0165137,0.173373
1480626351465138,-1.00508,0.0166492,0.173575
1480626351474161,-1.00579,0.016589,0.17336
1480626351496722,-1.00579,0.016589,0.17336
1480626351517778,-1.0058,0.0166477,0.173468
1480626351534322,-1.00514,0.0160907,0.173329
1480626351556881,-1.00404,0.0156656,0.173236
1480626351577937,-1.00404,0.0156656,0.173236
1480626351593982,-1.00391,0.0156516,0.173241
1480626351616540,-1.00338,0.0155415,0.173145
1480626351639100,-1.00322,0.0154732,0.173032
1480626351654141,-1.00322,0.0154732,0.173032
1480626351677202,-1.00322,0.0154732,0.173032
1480626351697756,-1.00322,0.0154732,0.173032
1480626351714300,-1.00322,0.0154732,0.173032
1480626351736360,-1.00322,0.0154732,0.173032
1480626351759420,-1.00322,0.0154732,0.173032
1480626351774461,-1.00322,0.0154732,0.173032
1480626351802537,-1.00322,0.0154732,0.173032
1480626351819079,-1.00308,0.0153569,0.173087
1480626351834123,-1.00311,0.0153527,0.173096
1480626351862699,-1.00295,0.0153429,0.173092
1480626351895785,-1.00295,0.0153429,0.173092
1480626351900295,-1.00295,0.0153429,0.173092
1480626351916341,-1.00295,0.0153429,0.173092
1480626351953938,-1.00295,0.0153429,0.173092
1480626351956445,-1.00295,0.0153429,0.173092
1480626351978002,-1.00295,0.0153429,0.173092
1480626352000061,-1.0028,0.0153332,0.173088
1480626352020114,-1.00283,0.015329,0.173098
1480626352036659,-1.00267,0.0153193,0.173093
1480626352059218,-1.00267,0.0153193,0.173093
1480626352073756,-1.00311,0.0152941,0.172988
1480626352096817,-1.00311,0.0152941,0.172988
1480626352119379,-1.0031,0.0154593,0.173037
1480626352147954,-1.0031,0.0154593,0.173037
1480626352170631,-1.00267,0.0153778,0.173202
1480626352180541,-1.00131,0.0149979,0.173493
1480626352203602,-0.999076,0.0150174,0.173394
1480626352217640,-0.99982,0.0145209,0.173139
1480626352239699,-1.00108,0.0144645,0.17308
1480626352260754,-1.0012,0.0144784,0.173075
1480626352284819,-0.99998,0.0141565,0.173202
1480626352299357,-0.998737,0.0141061,0.17332
1480626352320913,-0.999171,0.0140812,0.173215
1480626352336957,-0.99995,0.0142531,0.172867
1480626352367037,-1.00105,0.0146193,0.172854
1480626352387592,-1.00159,0.0149384,0.172842
1480626352396617,-1.00143,0.0149287,0.172837
1480626352426695,-1.00143,0.0149287,0.172837
1480626352449256,-1.00143,0.0149287,0.172837
1480626352456776,-1.00143,0.0149287,0.172837
1480626352479837,-1.00143,0.0149287,0.172837
1480626352509416,-1.00143,0.0149287,0.172837
1480626352517437,-1.00143,0.0149287,0.172837
1480626352538994,-1.00143,0.0149287,0.172837
1480626352560551,-1.00143,0.0149287,0.172837
1480626352576594,-1.00146,0.014866,0.172739
1480626352599155,-1.00132,0.0147496,0.172793
1480626352620711,-1.00132,0.0147496,0.172793
1480626352636754,-1.00132,0.0147496,0.172793
1480626352666835,-1.00132,0.0147496,0.172793
1480626352681874,-1.00132,0.0147496,0.172793
1480626352696413,-1.00147,0.0147593,0.172798
1480626352734014,-1.00146,0.014866,0.172739
1480626352757074,-1.0013,0.0148563,0.172734
1480626352759581,-1.0013,0.0148563,0.172734
1480626352779637,-1.0013,0.0148563,0.172734
1480626352809213,-1.00132,0.0147496,0.172793
1480626352816232,-1.00161,0.0146666,0.172851
1480626352839293,-1.00228,0.0148344,0.172785
1480626352861853,-1.00281,0.01526,0.172713
1480626352884414,-1.00281,0.01526,0.172713
1480626352898953,-1.00336,0.0153553,0.172544
1480626352921511,-1.0039,0.0153001,0.172591
