timestamp,x,y,z,w
1480626299118364,-0.51355,-0.0246582,0.071167,0.854736
1480626299129900,-0.513794,-0.0245972,0.071167,0.854553
1480626299140425,-0.513794,-0.0245972,0.071167,0.854614
1480626299168999,-0.513794,-0.0245972,0.071167,0.854614
1480626299188050,-0.513916,-0.0247192,0.071106,0.854492
1480626299200081,-0.514221,-0.0247803,0.071106,0.854309
1480626299221638,-0.514465,-0.0248413,0.0710449,0.854187
1480626299276785,-0.514526,-0.0248413,0.0710449,0.854187
1480626299282299,-0.514465,-0.0248413,0.0710449,0.854187
1480626299284806,-0.514221,-0.0247192,0.0710449,0.85437
1480626299305864,-0.513794,-0.0245361,0.0710449,0.854614
1480626299327921,-0.513428,-0.0244141,0.0710449,0.854797
1480626299366022,-0.513184,-0.024353,0.0710449,0.85498
1480626299386577,-0.512878,-0.024353,0.0710449,0.855164
1480626299393094,-0.512512,-0.024353,0.0709839,0.855347
1480626299416658,-0.512207,-0.024231,0.0710449,0.85553
1480626299419164,-0.512207,-0.0241699,0.0712891,0.85553
1480626299448242,-0.512085,-0.0241089,0.0714722,0.855591
1480626299470300,-0.51178,-0.0239258,0.0716553,0.855774
1480626299489855,-0.51178,-0.0239258,0.0716553,0.855774
1480626299500379,-0.51178,-0.0239258,0.0716553,0.855774
1480626299523441,-0.511719,-0.0239258,0.0716553,0.855774
1480626299559537,-0.511536,-0.0244141,0.0715332,0.855896
1480626299562044,-0.511108,-0.0241699,0.0718384,0.85614
1480626299582599,-0.511108,-0.0240479,0.0717163,0.85614
1480626299605159,-0.511414,-0.024231,0.0717773,0.855957
1480626299642761,-0.511719,-0.024231,0.0718384,0.855774
1480626299658301,-0.511719,-0.0241699,0.0718384,0.855774
1480626299665319,-0.511902,-0.024292,0.0718994,0.855652
1480626299687880,-0.512024,-0.024353,0.0718994,0.855591
1480626299718461,-0.512024,-0.024353,0.0718994,0.855591
1480626299723975,-0.512024,-0.0244141,0.0718994,0.855591
1480626299755565,-0.512024,-0.0244141,0.0718994,0.855591
1480626299779121,-0.512024,-0.0244141,0.0718994,0.855591
1480626299783633,-0.511841,-0.024292,0.0719604,0.855713
1480626299807697,-0.511841,-0.024292,0.0719604,0.855713
1480626299830759,-0.511841,-0.024292,0.0719604,0.855713
1480626299842289,-0.511841,-0.024292,0.0719604,0.855713
1480626299860339,-0.511841,-0.024292,0.0719604,0.855713
1480626299883400,-0.511597,-0.0241699,0.0720215,0.855835
1480626299921501,-0.511597,-0.0241699,0.0720215,0.855835
1480626299926514,-0.511597,-0.0241699,0.0720215,0.855835
1480626299947570,-0.511536,-0.024231,0.0720215,0.855896
1480626299973140,-0.511536,-0.024231,0.0719604,0.855896
1480626300004220,-0.511597,-0.024231,0.0719604,0.855835
1480626300024273,-0.511597,-0.024231,0.0719604,0.855835
1480626300025777,-0.511597,-0.0241699,0.0720215,0.855835
1480626300046833,-0.511597,-0.0241699,0.0720215,0.855835
1480626300062375,-0.511536,-0.0241699,0.0720215,0.855896
1480626300082931,-0.511536,-0.0241699,0.0720215,0.855896
1480626300107495,-0.511475,-0.0241699,0.0720215,0.855896
1480626300128050,-0.511475,-0.0241699,0.0720215,0.855957
1480626300143090,-0.511475,-0.0241699,0.0720215,0.855957
1480626300166653,-0.511414,-0.0241699,0.0720215,0.855957
1480626300190717,-0.511414,-0.0241699,0.0720215,0.855957
1480626300202749,-0.511047,-0.0241699,0.0717773,0.856201
1480626300219794,-0.511047,-0.0241089,0.0718384,0.856201
1480626300242353,-0.511475,-0.024231,0.0719604,0.855957
1480626300285970,-0.511414,-0.024231,0.0718994,0.855957
1480626300311538,-0.511414,-0.024231,0.0718994,0.855957
1480626300325576,-0.511414,-0.024231,0.0718994,0.855957
1480626300330589,-0.511414,-0.024231,0.0718994,0.855957
1480626300340115,-0.51123,-0.0241699,0.0719604,0.856079
1480626300362173,-0.51123,-0.0241699,0.0719604,0.856079
1480626300384733,-0.51123,-0.0241089,0.0719604,0.856079
1480626300399271,-0.511292,-0.0241089,0.0719604,0.856018
1480626300421831,-0.51123,-0.0241089,0.0720215,0.856079
1480626300468455,-0.51123,-0.0241089,0.0720215,0.856079
1480626300473469,-0.51123,-0.0240479,0.0720215,0.856079
1480626300481992,-0.511169,-0.0240479,0.0720215,0.856079
1480626300504551,-0.51123,-0.0240479,0.0720215,0.856079
1480626300525607,-0.511169,-0.0240479,0.0720215,0.856079
1480626300549672,-0.51123,-0.0240479,0.0720215,0.856079
1480626300564711,-0.51123,-0.0240479,0.0720215,0.856079
1480626300588274,-0.51123,-0.0240479,0.0720215,0.856079
1480626300616850,-0.51123,-0.0240479,0.0720215,0.856079
1480626300640914,-0.510925,-0.0239258,0.0720825,0.856262
1480626300660968,-0.510925,-0.0239258,0.0720825,0.856262
1480626300670996,-0.510864,-0.0239258,0.0720825,0.856262
1480626300690547,-0.510864,-0.0239258,0.0721436,0.856262
1480626300699570,-0.510864,-0.0239258,0.0721436,0.856262
1480626300722132,-0.510864,-0.0239258,0.0721436,0.856262
1480626300750706,-0.510864,-0.0238647,0.0721436,0.856262
1480626300765747,-0.510864,-0.0238647,0.0721436,0.856262
1480626300781789,-0.510864,-0.0238647,0.0721436,0.856262
1480626300804349,-0.510864,-0.0238647,0.0721436,0.856262
1480626300834930,-0.510803,-0.0238647,0.0721436,0.856323
1480626300842451,-0.510803,-0.0238647,0.0721436,0.856323
1480626300864509,-0.510803,-0.0238647,0.0721436,0.856323
1480626300879550,-0.510803,-0.0238647,0.0721436,0.856323
1480626300910130,-0.511047,-0.0239258,0.0721436,0.856201
1480626300940714,-0.511047,-0.0239258,0.0721436,0.856201
1480626300946729,-0.511047,-0.0238647,0.0721436,0.856201
1480626300962269,-0.511047,-0.0238647,0.0721436,0.85614
1480626300992850,-0.511047,-0.0238647,0.0721436,0.856201
1480626301021427,-0.511047,-0.0238647,0.0721436,0.856201
1480626301029949,-0.511169,-0.0239258,0.0722046,0.856079
1480626301044488,-0.511292,-0.0240479,0.0721436,0.856018
1480626301066045,-0.511292,-0.0240479,0.0721436,0.856018
1480626301096125,-0.511292,-0.0240479,0.0721436,0.856018
1480626301104648,-0.511292,-0.0240479,0.0722046,0.856018
1480626301133223,-0.511292,-0.0239868,0.0722046,0.856018
1480626301141750,-0.511292,-0.0239868,0.0722046,0.856018
1480626301164307,-0.511292,-0.0239868,0.0722046,0.856018
1480626301186867,-0.511475,-0.0240479,0.0722656,0.855896
1480626301216951,-0.511414,-0.0240479,0.0722656,0.855957
1480626301224466,-0.511414,-0.0240479,0.0722656,0.855896
1480626301245522,-0.511414,-0.0240479,0.0722046,0.855896
1480626301269086,-0.511414,-0.0240479,0.0722046,0.855957
1480626301301672,-0.511414,-0.0240479,0.0722656,0.855957
1480626301307192,-0.511475,-0.0240479,0.0722656,0.855896
1480626301322229,-0.511475,-0.0240479,0.0722656,0.855896
1480626301351807,-0.511475,-0.0239868,0.0722656,0.855896
1480626301380382,-0.511536,-0.0240479,0.0722656,0.855835
1480626301390909,-0.511536,-0.0240479,0.0722656,0.855896
1480626301410461,-0.511658,-0.0240479,0.0723267,0.855774
1480626301433022,-0.511658,-0.0240479,0.0723267,0.855774
1480626301442046,-0.511658,-0.0240479,0.0723267,0.855774
1480626301464606,-0.511658,-0.0240479,0.0723267,0.855774
1480626301494685,-0.511719,-0.0240479,0.0723267,0.855774
1480626301501705,-0.511719,-0.0240479,0.0723267,0.855774
1480626301547326,-0.511719,-0.0240479,0.0723267,0.855774
1480626301549832,-0.511902,-0.0241089,0.0723267,0.855652
1480626301593448,-0.512085,-0.0241699,0.0723267,0.85553
1480626301607486,-0.512085,-0.0241699,0.0723267,0.85553
1480626301609992,-0.512268,-0.024231,0.0723267,0.855408
1480626301667647,-0.512451,-0.024353,0.0722656,0.855347
1480626301670655,-0.512634,-0.0244141,0.0722046,0.855164
1480626301676168,-0.512695,-0.0244141,0.0722046,0.855164
1480626301689705,-0.512695,-0.0244141,0.0722656,0.855164
1480626301710259,-0.512695,-0.0244141,0.0722656,0.855164
1480626301741843,-0.512878,-0.0245361,0.0722046,0.855042
1480626301744350,-0.512878,-0.0245361,0.0722046,0.855042
1480626301771948,-0.512878,-0.0245361,0.0722046,0.855042
1480626301787465,-0.512878,-0.0245972,0.0722046,0.855042
1480626301808019,-0.513062,-0.0245361,0.0722046,0.85498
1480626301824563,-0.513367,-0.0245361,0.0722656,0.854736
1480626301864169,-0.513428,-0.0245361,0.0722656,0.854736
1480626301883219,-0.513245,-0.0244751,0.0722656,0.854797
1480626301892744,-0.513245,-0.0244751,0.0723267,0.854797
1480626301915304,-0.513245,-0.0244751,0.0723267,0.854797
1480626301935358,-0.513245,-0.0244751,0.0723267,0.854858
1480626301946387,-0.513245,-0.0244751,0.0722656,0.854858
1480626301966941,-0.513184,-0.0244751,0.0722656,0.854858
1480626301989506,-0.513184,-0.0244751,0.0722656,0.854858
1480626302004543,-0.513184,-0.0245361,0.0722656,0.854858
1480626302027102,-0.513245,-0.0244751,0.0722656,0.854858
1480626302049663,-0.513245,-0.0244751,0.0723267,0.854797
1480626302065203,-0.513245,-0.0244751,0.0723267,0.854797
1480626302086761,-0.513245,-0.0244751,0.0723267,0.854797
1480626302107817,-0.513245,-0.0244751,0.0723267,0.854797
1480626302139401,-0.513245,-0.0244751,0.0723267,0.854858
1480626302146921,-0.513245,-0.0244751,0.0722656,0.854858
1480626302167977,-0.513245,-0.0244751,0.0722656,0.854858
1480626302199561,-0.513245,-0.0245361,0.0722656,0.854858
1480626302214099,-0.513245,-0.0244751,0.0722656,0.854858
1480626302231144,-0.513306,-0.0244751,0.0722656,0.854797
1480626302244681,-0.513306,-0.0244751,0.0722656,0.854797
1480626302266743,-0.513306,-0.0244751,0.0722656,0.854797
1480626302288300,-0.513306,-0.0244751,0.0722656,0.854797
1480626302304340,-0.513306,-0.0244751,0.0722656,0.854797
1480626302334419,-0.513306,-0.0244751,0.0722656,0.854797
1480626302365002,-0.513306,-0.0244751,0.0722656,0.854797
1480626302367006,-0.513306,-0.0244751,0.0722656,0.854797
1480626302387060,-0.513306,-0.0244751,0.0722656,0.854797
1480626302417640,-0.513306,-0.0244751,0.0723267,0.854797
1480626302424659,-0.513306,-0.0244751,0.0723267,0.854797
1480626302446719,-0.513367,-0.0244751,0.0723267,0.854736
1480626302477300,-0.513306,-0.0244751,0.0723267,0.854797
1480626302508381,-0.513306,-0.0244751,0.0723267,0.854797
1480626302520916,-0.513306,-0.0244751,0.0723267,0.854797
1480626302530944,-0.513306,-0.0244751,0.0723267,0.854797
1480626302550494,-0.513245,-0.0244751,0.0723267,0.854797
1480626302580574,-0.513245,-0.0244751,0.0723267,0.854797
1480626302605644,-0.513245,-0.0244751,0.0723267,0.854797
1480626302610654,-0.513306,-0.0244751,0.0723267,0.854797
1480626302634721,-0.513306,-0.0244751,0.0723267,0.854797
1480626302656778,-0.513245,-0.0244751,0.0723267,0.854797
1480626302663796,-0.513245,-0.0244141,0.0723267,0.854797
1480626302701897,-0.513245,-0.0244751,0.0723267,0.854858
1480626302725961,-0.513184,-0.0244751,0.0723267,0.854858
1480626302746515,-0.513184,-0.0244751,0.0723267,0.854858
1480626302753033,-0.513062,-0.0244751,0.0722656,0.854919
1480626302785119,-0.513062,-0.0244751,0.0722656,0.854919
1480626302801162,-0.513062,-0.0244751,0.0722656,0.854919
1480626302807178,-0.513062,-0.0244751,0.0722656,0.854919
1480626302829236,-0.513062,-0.0244751,0.0722656,0.854919
1480626302850793,-0.513062,-0.0244751,0.0722656,0.854919
1480626302880372,-0.513062,-0.0244751,0.0722656,0.85498
1480626302890399,-0.513,-0.0244751,0.0722656,0.85498
1480626302911956,-0.513,-0.0244751,0.0722656,0.85498
1480626302934516,-0.513,-0.0244751,0.0722656,0.85498
1480626302950058,-0.513062,-0.0244751,0.0722656,0.85498
1480626302970614,-0.513062,-0.0244751,0.0722656,0.85498
1480626303001194,-0.513062,-0.0244751,0.0722656,0.854919
1480626303023753,-0.513062,-0.0244751,0.0722656,0.85498
1480626303030772,-0.513,-0.0244751,0.0722656,0.85498
1480626303063359,-0.512451,-0.0245361,0.0722046,0.855286
1480626303076894,-0.512451,-0.0244751,0.0722046,0.855286
1480626303097950,-0.512451,-0.0245361,0.0722046,0.855286
1480626303106982,-0.512207,-0.0244141,0.0722046,0.855469
1480626303130040,-0.511963,-0.024353,0.0722656,0.855591
1480626303158111,-0.511963,-0.024353,0.0722656,0.855591
1480626303167135,-0.511963,-0.024353,0.0722656,0.855591
1480626303189695,-0.511963,-0.024353,0.0722656,0.855591
1480626303211759,-0.511902,-0.024353,0.0722656,0.855652
1480626303226794,-0.511902,-0.024353,0.0722656,0.855652
1480626303249354,-0.511902,-0.024353,0.0722656,0.855652
1480626303277930,-0.511841,-0.024353,0.0722656,0.855652
1480626303300491,-0.511841,-0.024353,0.0722656,0.855652
1480626303310015,-0.511841,-0.024353,0.0722656,0.855652
1480626303333076,-0.511841,-0.024353,0.0722656,0.855652
1480626303354637,-0.511841,-0.024353,0.0722656,0.855652
1480626303375690,-0.511841,-0.024353,0.0722656,0.855652
1480626303391733,-0.511841,-0.024353,0.0723267,0.855713
1480626303406773,-0.51178,-0.024353,0.0723267,0.855713
1480626303436853,-0.51178,-0.024353,0.0722656,0.855713
1480626303451894,-0.511719,-0.024353,0.0722656,0.855774
1480626303466431,-0.511719,-0.024353,0.0722656,0.855774
1480626303503028,-0.511719,-0.024353,0.0722656,0.855774
1480626303535115,-0.511719,-0.024353,0.0722656,0.855774
1480626303537621,-0.511719,-0.024353,0.0723267,0.855774
1480626303558175,-0.511719,-0.024353,0.0723267,0.855774
1480626303580237,-0.511658,-0.024292,0.0723267,0.855774
1480626303600287,-0.511658,-0.024292,0.0723267,0.855774
1480626303609812,-0.511597,-0.024353,0.0723267,0.855774
1480626303633376,-0.511597,-0.024353,0.0723267,0.855835
1480626303662954,-0.511597,-0.024353,0.0723267,0.855835
1480626303669472,-0.511597,-0.024353,0.0723267,0.855835
1480626303692033,-0.511597,-0.024292,0.0723267,0.855835
1480626303715093,-0.511597,-0.024292,0.0723267,0.855835
1480626303729632,-0.511597,-0.024292,0.0723267,0.855835
1480626303752191,-0.511597,-0.024292,0.0723267,0.855835
1480626303805332,-0.511536,-0.024292,0.0723267,0.855835
1480626303813855,-0.511475,-0.024292,0.0723267,0.855896
1480626303827893,-0.511475,-0.024292,0.0723267,0.855896
1480626303832906,-0.511475,-0.024292,0.0723267,0.855896
1480626303849951,-0.511414,-0.024292,0.0723267,0.855896
1480626303879530,-0.511414,-0.024292,0.0723267,0.855896
1480626303894570,-0.511414,-0.024292,0.0723267,0.855896
1480626303909612,-0.511414,-0.024292,0.0723267,0.855957
1480626303932170,-0.511353,-0.024292,0.0723267,0.855957
1480626303969771,-0.511353,-0.024231,0.0723267,0.855957
1480626303972281,-0.511292,-0.024292,0.0723267,0.855957
1480626303993335,-0.511292,-0.024292,0.0723267,0.856018
1480626304012885,-0.511292,-0.024292,0.0723267,0.856018
1480626304057503,-0.51123,-0.024292,0.0723267,0.856018
1480626304090090,-0.511292,-0.024292,0.0723267,0.856018
1480626304095103,-0.511292,-0.024292,0.0723267,0.856018
1480626304105135,-0.511292,-0.024292,0.0723267,0.856018
1480626304126188,-0.511292,-0.024292,0.0723267,0.856018
1480626304133205,-0.511292,-0.024231,0.0723877,0.856018
1480626304157269,-0.51123,-0.024231,0.0723267,0.856018
1480626304172810,-0.51123,-0.024231,0.0723267,0.856018
1480626304192864,-0.51123,-0.024292,0.0723267,0.856018
1480626304209909,-0.51123,-0.024292,0.0723267,0.856018
1480626304239491,-0.51123,-0.024292,0.0723267,0.856018
1480626304277589,-0.51123,-0.024292,0.0723267,0.856018
1480626304281099,-0.51123,-0.024231,0.0723877,0.856018
1480626304307168,-0.51123,-0.024231,0.0723877,0.856018
1480626304335242,-0.51123,-0.024231,0.0723877,0.856018
1480626304353290,-0.511169,-0.024231,0.0723877,0.856079
1480626304360810,-0.511169,-0.024231,0.0723877,0.856079
1480626304374848,-0.511169,-0.024231,0.0723877,0.856079
1480626304388885,-0.511169,-0.024231,0.0723877,0.856079
1480626304411946,-0.511169,-0.024231,0.0723877,0.856079
1480626304434506,-0.511169,-0.024231,0.0723877,0.856079
1480626304449046,-0.511169,-0.024231,0.0723877,0.856079
1480626304472110,-0.511169,-0.024231,0.0723877,0.856079
1480626304494667,-0.511169,-0.024231,0.0723877,0.856079
1480626304516726,-0.511169,-0.024231,0.0723877,0.856079
1480626304554830,-0.511169,-0.024231,0.0723877,0.856079
1480626304558336,-0.511108,-0.024231,0.0723877,0.856079
1480626304584405,-0.511108,-0.024231,0.0723877,0.856079
1480626304600950,-0.511108,-0.024231,0.0723877,0.856079
1480626304615489,-0.511108,-0.024231,0.0723877,0.856079
1480626304637046,-0.511169,-0.024231,0.0723877,0.856079
1480626304652588,-0.511169,-0.024231,0.0723877,0.856079
1480626304682165,-0.511169,-0.024231,0.0723877,0.856079
1480626304688682,-0.511292,-0.024292,0.0723877,0.855957
1480626304712246,-0.511292,-0.024292,0.0723877,0.856018
1480626304734805,-0.511292,-0.024292,0.0723877,0.856018
1480626304762880,-0.511292,-0.024292,0.0723877,0.856018
1480626304771910,-0.51123,-0.024292,0.0723267,0.856018
1480626304840086,-0.511292,-0.024292,0.0723877,0.856018
1480626304842593,-0.511292,-0.024292,0.0723877,0.856018
1480626304864652,-0.511292,-0.024292,0.0723267,0.856018
1480626304885707,-0.511292,-0.024292,0.0723267,0.856018
1480626304906762,-0.511292,-0.024292,0.0723267,0.856018
1480626304915786,-0.511292,-0.024353,0.0723267,0.856018
1480626304944364,-0.511292,-0.024353,0.0723267,0.856018
1480626304959402,-0.51123,-0.024353,0.0723267,0.856018
1480626304980459,-0.51123,-0.024353,0.0723267,0.856018
1480626304995499,-0.511292,-0.024353,0.0723267,0.856018
1480626305012043,-0.511292,-0.024353,0.0723267,0.856018
1480626305042123,-0.511292,-0.024353,0.0723267,0.856018
1480626305057163,-0.511108,-0.024353,0.0723267,0.856079
1480626305072203,-0.511108,-0.024353,0.0723267,0.856079
1480626305110304,-0.511108,-0.024353,0.0723267,0.85614
1480626305116320,-0.511108,-0.024353,0.0723267,0.85614
1480626305139382,-0.511047,-0.024353,0.0723267,0.85614
1480626305154927,-0.511108,-0.024353,0.0723267,0.85614
1480626305192523,-0.511108,-0.024353,0.0723267,0.85614
1480626305206061,-0.511108,-0.024353,0.0723267,0.856079
1480626305216086,-0.511169,-0.024353,0.0723267,0.856079
1480626305237143,-0.510925,-0.024292,0.0723877,0.856201
1480626305252182,-0.510925,-0.024292,0.0723877,0.856201
1480626305274240,-0.510925,-0.024292,0.0723877,0.856201
1480626305296800,-0.510925,-0.024292,0.0723877,0.856201
1480626305355462,-0.510925,-0.024292,0.0723877,0.856201
1480626305367488,-0.510925,-0.024292,0.0723267,0.856201
1480626305388544,-0.510925,-0.024292,0.0723267,0.856201
1480626305390049,-0.510925,-0.024292,0.0723877,0.856201
1480626305396064,-0.510925,-0.024292,0.0723877,0.856201
1480626305417120,-0.510925,-0.024292,0.0723877,0.856201
1480626305431659,-0.510925,-0.024292,0.0723877,0.856201
1480626305460235,-0.510925,-0.024292,0.0723877,0.856201
1480626305476779,-0.510925,-0.024292,0.0723877,0.856201
1480626305491318,-0.510925,-0.024292,0.0723267,0.856201
1480626305514379,-0.510925,-0.024292,0.0723267,0.856201
1480626305553484,-0.510925,-0.024292,0.0723267,0.856201
1480626305572536,-0.510925,-0.024292,0.0723877,0.856201
1480626305583564,-0.510925,-0.024292,0.0723877,0.856201
1480626305611637,-0.510925,-0.024292,0.0723877,0.856201
1480626305614145,-0.510925,-0.024292,0.0723877,0.856201
1480626305656758,-0.510925,-0.024292,0.0723877,0.856201
1480626305666785,-0.510925,-0.024292,0.0723267,0.856201
1480626305677815,-0.510742,-0.024353,0.0723267,0.856323
1480626305695361,-0.510559,-0.024353,0.0723267,0.856445
1480626305716918,-0.510559,-0.024353,0.0723877,0.856445
1480626305739981,-0.510559,-0.024353,0.0723877,0.856445
1480626305763041,-0.510559,-0.024353,0.0723877,0.856445
1480626305777079,-0.510559,-0.024353,0.0723877,0.856445
1480626305798134,-0.510559,-0.024353,0.0723877,0.856445
1480626305821700,-0.510559,-0.024353,0.0723877,0.856445
1480626305837740,-0.510559,-0.024353,0.0723877,0.856445
1480626305857793,-0.510498,-0.024353,0.0723877,0.856445
1480626305881857,-0.510498,-0.024353,0.0723877,0.856445
1480626305922967,-0.510498,-0.024353,0.0723877,0.856445
1480626305936503,-0.510498,-0.024353,0.0723877,0.856445
1480626305940514,-0.510498,-0.024353,0.0723877,0.856445
1480626305964577,-0.510498,-0.024353,0.0723877,0.856445
1480626305985633,-0.510498,-0.024353,0.0723877,0.856445
1480626305995159,-0.510498,-0.024353,0.0723877,0.856445
1480626306016716,-0.510498,-0.024353,0.0723877,0.856445
1480626306037772,-0.510315,-0.024353,0.0723267,0.856567
1480626306055319,-0.510254,-0.024353,0.0723267,0.856628
1480626306077377,-0.510254,-0.024353,0.0723267,0.856628
1480626306099437,-0.510315,-0.024353,0.0723267,0.856567
1480626306137537,-0.510315,-0.024353,0.0723267,0.856567
1480626306140045,-0.510315,-0.024353,0.0723267,0.856567
1480626306220759,-0.510315,-0.024353,0.0723267,0.856567
1480626306234796,-0.510315,-0.024292,0.0723267,0.856567
1480626306240313,-0.510315,-0.024353,0.0723267,0.856567
1480626306270391,-0.510254,-0.024353,0.0723267,0.856628
1480626306294456,-0.510254,-0.024353,0.0723267,0.856628
1480626306296962,-0.510315,-0.024353,0.0723267,0.856567
1480626306317516,-0.510315,-0.024353,0.0723267,0.856567
1480626306347095,-0.510315,-0.024292,0.0723267,0.856567
1480626306353612,-0.510254,-0.024292,0.0723877,0.856628
1480626306390712,-0.510254,-0.024292,0.0723877,0.856628
1480626306416780,-0.510254,-0.024292,0.0723877,0.856628
1480626306444857,-0.510254,-0.024292,0.0723877,0.856628
1480626306459894,-0.510193,-0.024292,0.0723267,0.856628
1480626306462402,-0.510193,-0.024292,0.0723267,0.856628
1480626306498498,-0.510193,-0.024292,0.0723877,0.856628
1480626306503013,-0.510193,-0.024292,0.0723877,0.856628
1480626306527073,-0.510254,-0.024292,0.0723877,0.856628
1480626306542115,-0.510193,-0.024292,0.0723877,0.856628
1480626306580217,-0.510193,-0.024292,0.0723877,0.856628
1480626306583226,-0.510193,-0.024292,0.0723877,0.856689
1480626306600268,-0.510132,-0.024292,0.0723877,0.856689
1480626306624333,-0.510132,-0.024292,0.0723877,0.856689
1480626306639874,-0.510132,-0.024292,0.0723877,0.856689
1480626306671459,-0.510132,-0.024292,0.0723877,0.856689
1480626306723095,-0.510132,-0.024292,0.0723877,0.856689
1480626306736130,-0.510132,-0.024292,0.0723877,0.856689
1480626306754177,-0.510132,-0.024231,0.0723877,0.856689
1480626306768215,-0.510132,-0.024231,0.0723877,0.856689
1480626306780247,-0.510132,-0.024231,0.0723877,0.856689
1480626306796791,-0.510132,-0.024292,0.0723877,0.856689
1480626306825371,-0.510132,-0.024292,0.0723877,0.856689
1480626306857453,-0.510132,-0.024292,0.0723877,0.856689
1480626306859963,-0.510132,-0.024231,0.0723877,0.856689
1480626306879516,-0.510132,-0.024231,0.0723877,0.856689
1480626306901571,-0.510132,-0.024231,0.0723877,0.856689
1480626306938670,-0.510132,-0.024231,0.0723877,0.856689
1480626306949196,-0.510132,-0.024231,0.0723877,0.856689
1480626306960728,-0.510071,-0.024231,0.0723877,0.85675
1480626306984289,-0.510071,-0.024231,0.0724487,0.85675
1480626307013868,-0.510071,-0.024231,0.0723877,0.85675
1480626307028406,-0.510071,-0.024231,0.0723877,0.85675
1480626307044450,-0.510071,-0.024231,0.0723877,0.85675
1480626307065508,-0.510071,-0.024231,0.0724487,0.85675
1480626307080546,-0.510071,-0.0241699,0.0724487,0.85675
1480626307097594,-0.51001,-0.0241699,0.0724487,0.85675
1480626307127170,-0.510254,-0.0241699,0.0725098,0.856628
1480626307142726,-0.510376,-0.0241089,0.0725098,0.856567
1480626307156750,-0.510376,-0.0241089,0.0725098,0.856567
1480626307180311,-0.510315,-0.0241089,0.0725098,0.856567
1480626307215906,-0.510315,-0.0241089,0.0725098,0.856567
1480626307232453,-0.510376,-0.0241089,0.0725098,0.856567
1480626307248494,-0.510315,-0.0241089,0.0725098,0.856567
1480626307262029,-0.510376,-0.0240479,0.0725098,0.856567
1480626307290606,-0.510376,-0.0240479,0.0725098,0.856567
1480626307299628,-0.510376,-0.0240479,0.0725098,0.856567
1480626307328204,-0.510315,-0.0240479,0.0725098,0.856567
1480626307336227,-0.510315,-0.0240479,0.0725098,0.856567
1480626307360291,-0.510315,-0.0240479,0.0725098,0.856567
1480626307381848,-0.510315,-0.0240479,0.0725098,0.856567
1480626307410925,-0.510315,-0.0240479,0.0725098,0.856567
1480626307428471,-0.510315,-0.0240479,0.0725098,0.856567
1480626307442008,-0.510376,-0.0240479,0.0725708,0.856567
1480626307462562,-0.510376,-0.0240479,0.0725708,0.856567
1480626307488632,-0.510376,-0.0240479,0.0725708,0.856567
1480626307518210,-0.510315,-0.0240479,0.0725708,0.856567
1480626307523226,-0.510315,-0.0240479,0.0725708,0.856567
1480626307547287,-0.510315,-0.0240479,0.0725098,0.856567
1480626307569347,-0.510315,-0.0240479,0.0725098,0.856567
1480626307599928,-0.510498,-0.0241089,0.0725708,0.856445
1480626307602434,-0.510498,-0.0241089,0.0725708,0.856445
1480626307622489,-0.510559,-0.0241089,0.0725708,0.856445
1480626307650562,-0.510559,-0.0241089,0.0725708,0.856445
1480626307659587,-0.510681,-0.0241089,0.0726318,0.856323
1480626307696183,-0.510681,-0.0241089,0.0726318,0.856323
1480626307710722,-0.510681,-0.0241089,0.0726318,0.856323
1480626307719245,-0.510681,-0.0241699,0.0726318,0.856323
1480626307741805,-0.510681,-0.0241699,0.0726318,0.856323
1480626307771887,-0.510681,-0.0241699,0.0725708,0.856384
1480626307779405,-0.510681,-0.0241699,0.0725708,0.856323
1480626307802467,-0.510681,-0.0241699,0.0726318,0.856323
1480626307823022,-0.510681,-0.0241699,0.0726318,0.856323
1480626307853103,-0.510681,-0.0241089,0.0726318,0.856323
1480626307884686,-0.510681,-0.0241089,0.0726318,0.856323
1480626307887192,-0.510681,-0.0241089,0.0726318,0.856323
1480626307900729,-0.510681,-0.0241699,0.0726318,0.856323
1480626307929304,-0.510681,-0.0241699,0.0725708,0.856323
1480626307959884,-0.510681,-0.0241699,0.0726318,0.856323
1480626307962392,-0.510742,-0.0241699,0.0726318,0.856323
1480626307981944,-0.510742,-0.0241089,0.0726318,0.856323
1480626308010521,-0.510742,-0.0241089,0.0726318,0.856323
1480626308050125,-0.510742,-0.0241089,0.0726318,0.856323
1480626308052632,-0.510742,-0.0241089,0.0726318,0.856323
1480626308066168,-0.510742,-0.0241089,0.0726318,0.856323
1480626308079704,-0.510742,-0.0241089,0.0726318,0.856323
1480626308102263,-0.510742,-0.0241699,0.0726318,0.856323
1480626308124827,-0.510742,-0.0241699,0.0726318,0.856323
1480626308162423,-0.510742,-0.0241699,0.0726318,0.856323
1480626308164931,-0.510742,-0.0241699,0.0726318,0.856323
1480626308184483,-0.510803,-0.0241699,0.0726318,0.856262
1480626308207044,-0.510803,-0.0241089,0.0726318,0.856262
1480626308245143,-0.510742,-0.0241089,0.0726318,0.856323
1480626308247149,-0.510742,-0.0241699,0.0726318,0.856323
1480626308259194,-0.510742,-0.0241699,0.0726318,0.856323
1480626308289262,-0.510742,-0.0241699,0.0726318,0.856323
1480626308305806,-0.510742,-0.0241699,0.0725708,0.856323
1480626308320345,-0.510742,-0.0241699,0.0726318,0.856323
1480626308349422,-0.510742,-0.0241699,0.0726318,0.856323
1480626308370480,-0.510742,-0.0241089,0.0726318,0.856262
1480626308379000,-0.510742,-0.0241089,0.0726318,0.856262
1480626308402063,-0.510742,-0.0241089,0.0726318,0.856323
1480626308433145,-0.510742,-0.0241089,0.0726318,0.856323
1480626308438659,-0.510742,-0.0241089,0.0726318,0.856323
1480626308461720,-0.510742,-0.0241699,0.0726318,0.856323
1480626308484783,-0.510681,-0.0241699,0.0726318,0.856323
1480626308512856,-0.510742,-0.0241699,0.0725708,0.856323
1480626308521881,-0.510742,-0.0241699,0.0726318,0.856323
1480626308551961,-0.510742,-0.0241699,0.0726318,0.856323
1480626308574521,-0.510742,-0.0241089,0.0726318,0.856323
1480626308583043,-0.510742,-0.0241089,0.0726318,0.856323
1480626308606104,-0.510742,-0.0241089,0.0726318,0.856323
1480626308625661,-0.510742,-0.0241089,0.0726318,0.856323
1480626308649219,-0.510742,-0.0241089,0.0726318,0.856323
1480626308664259,-0.510681,-0.0241699,0.0726318,0.856323
1480626308685315,-0.510742,-0.0241089,0.0726318,0.856323
1480626308709382,-0.510742,-0.0241699,0.0726318,0.856323
1480626308724926,-0.510742,-0.0241089,0.0726318,0.856323
1480626308745476,-0.510742,-0.0241089,0.0726318,0.856323
1480626308762019,-0.510742,-0.0241089,0.0726318,0.856323
1480626308792601,-0.510742,-0.0241089,0.0726318,0.856323
1480626308805635,-0.510742,-0.0241089,0.0726318,0.856323
1480626308829198,-0.510681,-0.0241089,0.0726318,0.856323
1480626308859278,-0.510681,-0.0241089,0.0726318,0.856323
1480626308890867,-0.510681,-0.0241699,0.0726318,0.856323
1480626308895875,-0.510681,-0.0241089,0.0726318,0.856323
1480626308905903,-0.510681,-0.0241089,0.0726318,0.856323
1480626308932974,-0.510681,-0.0241089,0.0726318,0.856323
1480626308942001,-0.510681,-0.0241089,0.0726318,0.856323
1480626308965060,-0.510681,-0.0241089,0.0726318,0.856323
1480626308986618,-0.510681,-0.0241089,0.0726318,0.856323
1480626309009680,-0.510681,-0.0241089,0.0726318,0.856323
1480626309024720,-0.510681,-0.0241089,0.0726318,0.856384
1480626309046777,-0.51062,-0.0241089,0.0726318,0.856384
1480626309069838,-0.510681,-0.0241089,0.0726318,0.856384
1480626309084376,-0.510681,-0.0241089,0.0726318,0.856323
1480626309129999,-0.510681,-0.0240479,0.0726318,0.856323
1480626309132505,-0.510681,-0.0240479,0.0726318,0.856323
1480626309152056,-0.510681,-0.0240479,0.0726318,0.856323
1480626309174117,-0.510681,-0.0240479,0.0726929,0.856384
1480626309190660,-0.51062,-0.0240479,0.0726929,0.856384
1480626309204700,-0.51062,-0.0240479,0.0726929,0.856384
1480626309234276,-0.51062,-0.0240479,0.0726318,0.856384
1480626309241295,-0.51062,-0.0240479,0.0726929,0.856384
1480626309265861,-0.51062,-0.0240479,0.0726929,0.856384
1480626309287418,-0.510681,-0.0239868,0.0726929,0.856384
1480626309301455,-0.510681,-0.0240479,0.0726929,0.856323
1480626309346073,-0.510681,-0.0239868,0.0726929,0.856323
1480626309356099,-0.51062,-0.0239868,0.0726929,0.856384
1480626309361113,-0.51062,-0.0239868,0.0726929,0.856384
1480626309384174,-0.51062,-0.0239868,0.0726929,0.856384
1480626309406734,-0.51062,-0.0239868,0.0726929,0.856384
1480626309435816,-0.51062,-0.0239868,0.0726929,0.856384
1480626309444334,-0.51062,-0.0239868,0.0726929,0.856384
1480626309480932,-0.51062,-0.0239868,0.0726929,0.856384
1480626309495476,-0.51062,-0.0239868,0.0726929,0.856384
1480626309512014,-0.51062,-0.0239868,0.0726929,0.856384
1480626309541091,-0.51062,-0.0239868,0.0726929,0.856384
1480626309548111,-0.51062,-0.0239868,0.0726929,0.856384
1480626309570672,-0.510559,-0.0239868,0.0726929,0.856384
1480626309594234,-0.510559,-0.0239868,0.0726929,0.856384
1480626309622808,-0.510559,-0.0239868,0.0726929,0.856384
1480626309637852,-0.510559,-0.0239868,0.0726929,0.856384
1480626309646873,-0.510559,-0.0239868,0.0726929,0.856384
1480626309685476,-0.510559,-0.0239868,0.0726929,0.856384
1480626309687982,-0.510437,-0.0239868,0.0725708,0.856506
1480626309707535,-0.510437,-0.0239868,0.0725708,0.856506
1480626309737118,-0.510437,-0.0239868,0.0725708,0.856506
1480626309745135,-0.510376,-0.0239868,0.0725708,0.856506
1480626309766693,-0.510376,-0.0239868,0.0725708,0.856506
1480626309796772,-0.510376,-0.0239868,0.0725708,0.856506
1480626309812314,-0.510376,-0.0239868,0.0725708,0.856506
1480626309826852,-0.510376,-0.0239868,0.0725708,0.856506
1480626309849412,-0.510376,-0.0239868,0.0725708,0.856506
1480626309877486,-0.510376,-0.0239258,0.0725708,0.856506
1480626309904072,-0.510376,-0.0239258,0.0725708,0.856506
1480626309909572,-0.510376,-0.0239258,0.0726318,0.856506
1480626309924613,-0.510376,-0.0239258,0.0726318,0.856567
1480626309961714,-0.510315,-0.0239258,0.0726318,0.856567
1480626309993294,-0.510315,-0.0239258,0.0726318,0.856567
1480626309998309,-0.510315,-0.0239258,0.0726318,0.856567
1480626310008335,-0.510315,-0.0239258,0.0726318,0.856567
1480626310029391,-0.510498,-0.0238647,0.0726318,0.856445
1480626310044432,-0.510742,-0.0238647,0.0726929,0.856323
1480626310075013,-0.510742,-0.0238037,0.0726929,0.856323
1480626310097072,-0.510742,-0.0238037,0.0726929,0.856323
1480626310104093,-0.510742,-0.0238037,0.0726929,0.856323
1480626310127151,-0.510681,-0.0238037,0.0726929,0.856323
1480626310150213,-0.510681,-0.0238037,0.0726929,0.856323
1480626310163749,-0.510681,-0.0238037,0.0726929,0.856323
1480626310186817,-0.510742,-0.0238037,0.0726929,0.856323
1480626310210372,-0.510742,-0.0238037,0.0726929,0.856323
1480626310230426,-0.510742,-0.0238037,0.0726929,0.856323
1480626310246970,-0.510742,-0.0238037,0.0726929,0.856323
1480626310270536,-0.510742,-0.0238037,0.0726929,0.856323
1480626310298107,-0.510681,-0.0238037,0.0726929,0.856323
1480626310313145,-0.510681,-0.0238037,0.0726929,0.856323
1480626310330696,-0.510681,-0.0238037,0.0726929,0.856323
1480626310344228,-0.510681,-0.0238037,0.0726929,0.856323
1480626310366791,-0.510681,-0.0238037,0.0727539,0.856323
1480626310389348,-0.510742,-0.0238037,0.0727539,0.856323
1480626310411909,-0.510742,-0.0238037,0.0727539,0.856323
1480626310432965,-0.510742,-0.0238037,0.0727539,0.856323
1480626310449509,-0.510742,-0.0238037,0.0727539,0.856323
1480626310470565,-0.510681,-0.0238037,0.0727539,0.856323
1480626310487110,-0.510681,-0.0238037,0.0727539,0.856323
1480626310516688,-0.51062,-0.0238037,0.0726929,0.856384
1480626310530224,-0.510681,-0.0238037,0.0726929,0.856384
1480626310546767,-0.510803,-0.0236816,0.0728149,0.856262
1480626310570336,-0.510803,-0.0236816,0.0728149,0.856262
1480626310590884,-0.510864,-0.0236816,0.0728149,0.856262
1480626310606927,-0.510864,-0.0236816,0.0728149,0.856262
1480626310629488,-0.510803,-0.0236816,0.0728149,0.856262
1480626310650544,-0.511047,-0.0236206,0.0726929,0.85614
1480626310667089,-0.51123,-0.0234985,0.0723877,0.856018
1480626310689647,-0.511292,-0.0231323,0.0721436,0.856018
1480626310710703,-0.511841,-0.0230103,0.0718994,0.855774
1480626310734267,-0.512268,-0.0228882,0.0717163,0.855469
1480626310749306,-0.512512,-0.022583,0.0715332,0.855408
1480626310770365,-0.513,-0.0222168,0.0714111,0.855103
1480626310787410,-0.513794,-0.0220337,0.071228,0.854675
1480626310825008,-0.514404,-0.0211182,0.0715942,0.854309
1480626310830522,-0.515259,-0.0206909,0.0720215,0.85376
1480626310847066,-0.516418,-0.0205078,0.0723877,0.853027
1480626310877146,-0.51709,-0.0201416,0.072876,0.8526
1480626310891684,-0.517822,-0.0196533,0.0731812,0.852112
1480626310906725,-0.518738,-0.0193481,0.0735474,0.851501
1480626310929285,-0.519409,-0.019043,0.0738525,0.851074
1480626310959365,-0.518677,-0.0185547,0.0739136,0.851563
1480626310967387,-0.518066,-0.0182495,0.0737915,0.851929
1480626310997467,-0.518188,-0.0181885,0.0736694,0.851868
1480626311012007,-0.518555,-0.0180664,0.0737915,0.851624
1480626311027546,-0.518372,-0.0181885,0.0737305,0.851746
1480626311049605,-0.517822,-0.0181885,0.0734863,0.852112
1480626311071664,-0.517761,-0.0181885,0.0734863,0.852173
1480626311087209,-0.517761,-0.0181885,0.0734863,0.852112
1480626311133327,-0.517761,-0.0181885,0.0734863,0.852112
1480626311145861,-0.517822,-0.0181885,0.0734863,0.852112
1480626311155887,-0.5177,-0.0180664,0.0734253,0.852173
1480626311170431,-0.517456,-0.0180054,0.0733032,0.852356
1480626311191984,-0.516907,-0.0181274,0.0730591,0.852722
1480626311215046,-0.516541,-0.0180664,0.072937,0.852966
1480626311244624,-0.516541,-0.0181274,0.0728149,0.852966
1480626311253651,-0.516907,-0.0183105,0.0725708,0.852783
1480626311266181,-0.51709,-0.0183105,0.0722046,0.852661
1480626311289242,-0.517395,-0.0180664,0.0718994,0.852539
1480626311319824,-0.518005,-0.0177612,0.0718384,0.852173
1480626311326341,-0.518372,-0.0175171,0.0718384,0.851929
1480626311349403,-0.51825,-0.0171509,0.0717163,0.852051
1480626311377978,-0.517944,-0.0168457,0.0714722,0.852234
1480626311410065,-0.517639,-0.0166626,0.0713501,0.852417
1480626311413574,-0.517212,-0.0164795,0.0713501,0.852722
1480626311432122,-0.516663,-0.0162354,0.0712891,0.853027
1480626311461702,-0.515869,-0.0161743,0.0710449,0.853577
1480626311476742,-0.515076,-0.0158081,0.071228,0.854004
1480626311491781,-0.514709,-0.015564,0.0713501,0.854248
1480626311514341,-0.514526,-0.0153809,0.0715942,0.854309
1480626311536903,-0.514465,-0.0153809,0.0717773,0.85437
1480626311551941,-0.514099,-0.0153809,0.0718994,0.854553
1480626311582021,-0.513855,-0.0154419,0.0718994,0.854736
1480626311604582,-0.513855,-0.0154419,0.0718994,0.854736
1480626311612101,-0.513855,-0.0154419,0.0718994,0.854736
1480626311657221,-0.513794,-0.0154419,0.0718994,0.854736
1480626311659729,-0.513794,-0.0154419,0.0718994,0.854736
1480626311679280,-0.514099,-0.0155029,0.0718384,0.854553
1480626311692816,-0.514404,-0.015564,0.0717773,0.85437
1480626311709862,-0.514709,-0.015625,0.0716553,0.854187
1480626311732422,-0.515076,-0.015686,0.0714111,0.854004
1480626311752979,-0.515503,-0.0158691,0.071106,0.85376
1480626311769521,-0.515747,-0.0159912,0.0708618,0.853638
1480626311793084,-0.516113,-0.0161743,0.0707397,0.853455
1480626311820656,-0.516357,-0.0163574,0.0704956,0.853333
1480626311829681,-0.516602,-0.0166016,0.0702515,0.853149
1480626311852241,-0.516602,-0.0166016,0.0702515,0.853149
1480626311881819,-0.516541,-0.0165405,0.0702515,0.85321
1480626311902876,-0.516296,-0.0164185,0.0703125,0.853333
1480626311941478,-0.516113,-0.0162354,0.0704956,0.853455
1480626311958022,-0.515747,-0.0160522,0.0706177,0.853638
1480626311963035,-0.51532,-0.0158691,0.0708008,0.853943
1480626311972562,-0.514954,-0.0158081,0.0708618,0.854126
1480626311995121,-0.514893,-0.0158081,0.0708618,0.854126
1480626312008656,-0.514893,-0.0158081,0.0708618,0.854126
1480626312039239,-0.514893,-0.0157471,0.0708618,0.854126
1480626312054279,-0.514954,-0.0157471,0.0708618,0.854126
1480626312069319,-0.514954,-0.0157471,0.0708618,0.854126
1480626312091877,-0.514954,-0.0157471,0.0708618,0.854126
1480626312114438,-0.515137,-0.0158081,0.0709839,0.854004
1480626312128977,-0.515076,-0.0158081,0.0709839,0.854004
1480626312152040,-0.515198,-0.0158691,0.0708008,0.854004
1480626312174599,-0.515198,-0.0158691,0.0708008,0.854004
1480626312195654,-0.515198,-0.0158691,0.0708008,0.854004
1480626312217712,-0.515198,-0.0158691,0.0708008,0.853943
1480626312240272,-0.515015,-0.0158081,0.0708008,0.854065
1480626312256819,-0.515015,-0.0158081,0.0708008,0.854065
1480626312271865,-0.515076,-0.0158081,0.0708008,0.854065
1480626312294417,-0.515198,-0.015686,0.071106,0.853943
1480626312308454,-0.515076,-0.015686,0.071106,0.854004
1480626312332017,-0.515076,-0.015686,0.071106,0.854065
1480626312354576,-0.515015,-0.015686,0.071106,0.854065
1480626312377638,-0.515015,-0.015686,0.071106,0.854065
1480626312392177,-0.515015,-0.015686,0.071106,0.854065
1480626312414235,-0.515015,-0.015686,0.071106,0.854065
1480626312436797,-0.515076,-0.015686,0.071106,0.854065
1480626312467879,-0.515015,-0.015686,0.071106,0.854065
1480626312487931,-0.515076,-0.015625,0.071106,0.854065
1480626312512497,-0.515015,-0.015625,0.071106,0.854065
1480626312515004,-0.515015,-0.015625,0.071167,0.854065
1480626312535057,-0.514954,-0.015625,0.071167,0.854065
1480626312563132,-0.514954,-0.015625,0.071167,0.854126
1480626312571654,-0.514954,-0.015625,0.071167,0.854065
1480626312594214,-0.515015,-0.0157471,0.0710449,0.854065
1480626312623291,-0.515076,-0.0157471,0.0710449,0.854065
1480626312633319,-0.515076,-0.0157471,0.0710449,0.854004
1480626312654375,-0.515259,-0.0158081,0.071106,0.853943
1480626312692476,-0.515442,-0.0159302,0.071167,0.853821
1480626312695985,-0.515503,-0.0159912,0.071167,0.85376
1480626312716038,-0.515869,-0.0161743,0.0712891,0.853516
1480626312745116,-0.516174,-0.0164795,0.0715332,0.853333
1480626312767176,-0.516235,-0.0167236,0.0716553,0.853271
1480626312787729,-0.515991,-0.0169067,0.0716553,0.853394
1480626312796753,-0.515747,-0.0172729,0.0714722,0.853577
1480626312811793,-0.515686,-0.0175171,0.0714111,0.853577
1480626312834854,-0.515747,-0.0178223,0.071228,0.853577
1480626312856913,-0.515381,-0.0180054,0.071106,0.85376
1480626312872456,-0.515076,-0.0181885,0.071106,0.854004
1480626312902034,-0.514587,-0.0184326,0.0709229,0.854309
1480626312923089,-0.514465,-0.0186157,0.0705566,0.854431
1480626312931111,-0.514221,-0.0187988,0.0701904,0.854553
1480626312961692,-0.514221,-0.0188599,0.0701904,0.854553
1480626313022353,-0.514587,-0.0188599,0.0700684,0.854309
1480626313024860,-0.515015,-0.0187378,0.0700684,0.854126
1480626313065467,-0.515015,-0.0187378,0.0700684,0.854126
1480626313076497,-0.514954,-0.0186768,0.0700684,0.854126
1480626313081010,-0.514954,-0.0186768,0.0700684,0.854126
1480626313097052,-0.514954,-0.0187378,0.0700684,0.854126
1480626313111089,-0.514954,-0.0187378,0.0700684,0.854126
1480626313134652,-0.514954,-0.0187378,0.0700684,0.854126
1480626313156710,-0.515259,-0.0187378,0.0700684,0.853943
1480626313180274,-0.515259,-0.0187378,0.0700684,0.853943
1480626313201831,-0.51532,-0.0187378,0.0700684,0.853943
1480626313216871,-0.51532,-0.0186768,0.0700684,0.853943
1480626313239431,-0.51532,-0.0186768,0.0700684,0.853943
1480626313269512,-0.515259,-0.0187378,0.0700684,0.853943
1480626313291569,-0.515442,-0.0187988,0.0700073,0.853821
1480626313298087,-0.515564,-0.0187378,0.0700684,0.85376
1480626313314630,-0.515564,-0.0187988,0.0700073,0.85376
1480626313344209,-0.515747,-0.0186768,0.0700684,0.853638
1480626313357745,-0.516052,-0.0186157,0.0700073,0.853455
1480626313374290,-0.516296,-0.0185547,0.0700073,0.853333
1480626313404870,-0.516479,-0.0183716,0.0700684,0.85321
1480626313417905,-0.516602,-0.0183105,0.0700684,0.853149
1480626313434450,-0.516785,-0.0183716,0.0699463,0.853027
1480626313457009,-0.516785,-0.0183716,0.0699463,0.853027
1480626313495112,-0.516968,-0.0183105,0.0698853,0.852905
1480626313497618,-0.517212,-0.0182495,0.0697632,0.852783
1480626313524188,-0.517639,-0.0181885,0.0697632,0.852539
1480626313545745,-0.5177,-0.0181885,0.0697632,0.852539
1480626313561789,-0.5177,-0.0181274,0.0697632,0.852478
1480626313577833,-0.517883,-0.0181274,0.0697632,0.852356
1480626313597886,-0.518188,-0.0180664,0.0697632,0.852234
1480626313620446,-0.518188,-0.0180664,0.0697632,0.852234
1480626313636988,-0.518188,-0.0181274,0.0697632,0.852234
1480626313658044,-0.518188,-0.0180664,0.0697632,0.852234
1480626313675591,-0.518188,-0.0181274,0.0697632,0.852173
1480626313696647,-0.517883,-0.0181274,0.0698242,0.852356
1480626313718204,-0.518127,-0.0180054,0.0698853,0.852234
1480626313743271,-0.518127,-0.0180054,0.0698853,0.852234
1480626313770846,-0.518188,-0.0180054,0.0698853,0.852234
1480626313795911,-0.518188,-0.0180054,0.0699463,0.852173
1480626313800422,-0.517761,-0.0180054,0.0699463,0.852478
1480626313822984,-0.517334,-0.0181274,0.0700073,0.852722
1480626313839527,-0.517273,-0.0181274,0.0700073,0.852722
1480626313854567,-0.517273,-0.0181274,0.0700073,0.852722
1480626313877629,-0.517273,-0.0181274,0.0700073,0.852722
1480626313899186,-0.517273,-0.0181274,0.0700073,0.852722
1480626313914226,-0.517273,-0.0180664,0.0700073,0.852722
1480626313936788,-0.5177,-0.0182495,0.0698242,0.852478
1480626313966867,-0.518372,-0.0184326,0.0696411,0.852112
1480626313981906,-0.51886,-0.0186157,0.069397,0.851807
1480626314010482,-0.51886,-0.0186157,0.069397,0.851807
1480626314034556,-0.518555,-0.0186768,0.0693359,0.85199
1480626314036553,-0.51825,-0.0187378,0.0692749,0.852173
1480626314057106,-0.518005,-0.0187378,0.0692749,0.852356
1480626314095709,-0.517883,-0.0186768,0.069397,0.852417
1480626314100221,-0.517639,-0.0185547,0.069458,0.852539
1480626314116765,-0.517395,-0.0183716,0.0697021,0.852722
1480626314146844,-0.51709,-0.0181885,0.0698853,0.852844
1480626314153863,-0.51709,-0.0181274,0.0699463,0.852844
1480626314184948,-0.517029,-0.0181274,0.0699463,0.852905
1480626314207005,-0.517029,-0.0181274,0.0699463,0.852905
1480626314228060,-0.517029,-0.0181274,0.0699463,0.852905
1480626314237088,-0.516846,-0.0181274,0.0700073,0.853027
1480626314242098,-0.516846,-0.0181274,0.0700073,0.853027
1480626314264660,-0.516846,-0.0181274,0.0700073,0.853027
1480626314298749,-0.516846,-0.0180664,0.0700073,0.853027
1480626314319305,-0.516846,-0.0180664,0.0700073,0.853027
1480626314328327,-0.516846,-0.0180664,0.0700684,0.853027
1480626314350888,-0.516907,-0.0181274,0.0699463,0.852966
1480626314378462,-0.517029,-0.0181885,0.0698853,0.852905
1480626314384979,-0.517334,-0.0183105,0.0697632,0.852722
1480626314407037,-0.517639,-0.0183716,0.0696411,0.852539
1480626314423581,-0.518066,-0.0183716,0.0695801,0.852295
1480626314452159,-0.518066,-0.0183716,0.0695801,0.852295
1480626314467197,-0.5177,-0.0183716,0.069519,0.852539
1480626314489757,-0.517395,-0.0184937,0.069458,0.852722
1480626314508808,-0.517395,-0.0184937,0.069458,0.852722
1480626314527357,-0.517395,-0.0184937,0.069458,0.852722
1480626314549918,-0.516846,-0.0184937,0.069458,0.853027
1480626314573984,-0.516541,-0.0184937,0.0693359,0.853271
1480626314604562,-0.516113,-0.0184326,0.069397,0.853455
1480626314606567,-0.516113,-0.0184326,0.069397,0.853516
1480626314624617,-0.515869,-0.0183105,0.069458,0.853638
1480626314648680,-0.515686,-0.0181274,0.069519,0.85376
1480626314662215,-0.515686,-0.0181274,0.069519,0.853699
1480626314684776,-0.515686,-0.0180664,0.069519,0.853699
1480626314707336,-0.515747,-0.0180664,0.0695801,0.853699
1480626314722375,-0.515686,-0.0180664,0.0695801,0.85376
1480626314746440,-0.515686,-0.0180664,0.0695801,0.85376
1480626314767496,-0.515808,-0.0181274,0.0695801,0.853638
1480626314782536,-0.515991,-0.0181885,0.0695801,0.853577
1480626314821139,-0.515991,-0.0181885,0.0695801,0.853516
1480626314827156,-0.516052,-0.0181885,0.0695801,0.853516
1480626314882301,-0.516052,-0.0181274,0.0695801,0.853516
1480626314885814,-0.516052,-0.0181274,0.0696411,0.853516
1480626314890323,-0.516052,-0.0181274,0.0696411,0.853516
1480626314902355,-0.516052,-0.0181274,0.0696411,0.853516
1480626314927922,-0.515991,-0.0181274,0.0696411,0.853577
1480626314947475,-0.515991,-0.0181274,0.0696411,0.853577
1480626314962515,-0.515991,-0.0181274,0.0696411,0.853577
1480626314986080,-0.515808,-0.0180664,0.0697021,0.853638
1480626315010142,-0.515625,-0.0180664,0.0697021,0.85376
1480626315029693,-0.515625,-0.0180054,0.0697021,0.85376
1480626315044733,-0.515625,-0.0180054,0.0697632,0.85376
1480626315077320,-0.515625,-0.0180054,0.0697632,0.85376
1480626315089853,-0.515625,-0.0180054,0.0697632,0.85376
1480626315105396,-0.515625,-0.0180054,0.0697632,0.85376
1480626315127453,-0.515564,-0.0180054,0.0697632,0.853821
1480626315145000,-0.515564,-0.0180054,0.0697632,0.853821
1480626315164552,-0.515564,-0.0179443,0.0697632,0.853821
1480626315187112,-0.515564,-0.0179443,0.0697632,0.85376
1480626315204159,-0.515625,-0.0179443,0.0697632,0.85376
1480626315226216,-0.515625,-0.0179443,0.0697632,0.85376
1480626315256296,-0.515625,-0.0179443,0.0697632,0.85376
1480626315263816,-0.515625,-0.0178833,0.0698242,0.85376
1480626315286378,-0.515381,-0.0179443,0.0697021,0.853943
1480626315307432,-0.51532,-0.0179443,0.0697021,0.853943
1480626315323475,-0.515564,-0.0180664,0.0696411,0.853821
1480626315348542,-0.515564,-0.0180664,0.0696411,0.853821
1480626315367091,-0.515564,-0.0180664,0.0696411,0.853821
1480626315383635,-0.515564,-0.0180664,0.0696411,0.853821
1480626315407699,-0.515686,-0.0179443,0.0697021,0.85376
1480626315427252,-0.51593,-0.0178833,0.0696411,0.853638
1480626315443795,-0.516052,-0.0180054,0.069519,0.853516
1480626315464851,-0.516052,-0.0181274,0.069397,0.853516
1480626315489416,-0.515808,-0.0182495,0.0693359,0.853699
1480626315503956,-0.515747,-0.0182495,0.0692749,0.853699
1480626315532030,-0.51593,-0.0183105,0.0693359,0.853577
1480626315547571,-0.51593,-0.0183105,0.0693359,0.853577
1480626315563615,-0.51593,-0.0183105,0.069397,0.853577
1480626315585676,-0.51593,-0.0183105,0.069397,0.853577
1480626315615252,-0.516235,-0.0181274,0.069458,0.853394
1480626315629790,-0.516602,-0.0179443,0.0695801,0.85321
1480626315661374,-0.516602,-0.0179443,0.0695801,0.85321
1480626315667391,-0.516357,-0.0179443,0.069519,0.853333
1480626315685438,-0.516296,-0.0179443,0.069519,0.853394
1480626315704990,-0.516296,-0.0179443,0.069519,0.853394
1480626315727048,-0.516296,-0.0178833,0.069519,0.853394
1480626315745097,-0.516296,-0.0178833,0.069519,0.853394
1480626315764648,-0.516724,-0.0180054,0.0695801,0.853088
1480626315787209,-0.517212,-0.0180054,0.0697021,0.852783
1480626315805260,-0.517517,-0.0177612,0.0699463,0.8526
1480626315824809,-0.517517,-0.0177612,0.0699463,0.8526
1480626315850377,-0.516846,-0.0177612,0.0699463,0.853027
1480626315879957,-0.516602,-0.0180054,0.0698242,0.853149
1480626315885470,-0.516602,-0.0180664,0.0698242,0.853149
1480626315910037,-0.516602,-0.0180664,0.0698242,0.853149
1480626315939115,-0.516968,-0.0178223,0.0701294,0.852905
1480626315944627,-0.516785,-0.0177612,0.0701294,0.853027
1480626315967190,-0.516785,-0.0177612,0.0701294,0.853027
1480626315989747,-0.51709,-0.0177002,0.0701294,0.852844
1480626316004788,-0.517029,-0.0177002,0.0701294,0.852905
1480626316027348,-0.517029,-0.0177002,0.0701294,0.852905
1480626316049909,-0.517029,-0.0177612,0.0701294,0.852905
1480626316064948,-0.517029,-0.0177612,0.0701294,0.852905
1480626316087507,-0.517029,-0.0177612,0.0701294,0.852905
1480626316126612,-0.516846,-0.0177612,0.0701294,0.853027
1480626316129118,-0.516846,-0.0177612,0.0701294,0.853027
1480626316157694,-0.516846,-0.0177002,0.0701294,0.852966
1480626316188777,-0.516907,-0.0177002,0.0701904,0.852966
1480626316193791,-0.516846,-0.0177002,0.0701904,0.852966
1480626316210335,-0.516846,-0.0177002,0.0701904,0.852966
1480626316229888,-0.516846,-0.0177002,0.0701904,0.853027
1480626316246430,-0.516846,-0.0177612,0.0701294,0.853027
1480626316267486,-0.516846,-0.0177612,0.0701294,0.853027
1480626316289545,-0.516846,-0.0177612,0.0701294,0.853027
1480626316306590,-0.516846,-0.0177612,0.0701294,0.853027
1480626316343689,-0.516846,-0.0177612,0.0701294,0.853027
1480626316349706,-0.517029,-0.0175781,0.0701294,0.852905
1480626316373769,-0.517029,-0.0175781,0.0701294,0.852905
1480626316403851,-0.516968,-0.0175781,0.0701294,0.852905
1480626316409864,-0.517029,-0.0175781,0.0701294,0.852905
1480626316456489,-0.516602,-0.0176392,0.0700684,0.853149
1480626316463508,-0.516602,-0.0176392,0.0700684,0.853149
1480626316478048,-0.516602,-0.0177002,0.0700684,0.853149
1480626316486570,-0.516602,-0.0177002,0.0700684,0.853149
1480626316508628,-0.516602,-0.0176392,0.0700684,0.853149
1480626316540713,-0.516602,-0.0176392,0.0700684,0.853149
1480626316546228,-0.516602,-0.0176392,0.0700684,0.853149
1480626316567284,-0.516602,-0.0176392,0.0700684,0.853149
1480626316592353,-0.516541,-0.0176392,0.0700684,0.85321
1480626316621428,-0.516479,-0.0177002,0.0700684,0.85321
1480626316627448,-0.516479,-0.0177002,0.0700684,0.85321
1480626316659028,-0.516479,-0.0177002,0.0700684,0.85321
1480626316681087,-0.516479,-0.0177002,0.0700684,0.85321
1480626316687102,-0.516479,-0.0177002,0.0700684,0.853271
1480626316712671,-0.516479,-0.0176392,0.0700684,0.85321
1480626316728213,-0.516479,-0.0176392,0.0700684,0.85321
1480626316763808,-0.516479,-0.0176392,0.0700684,0.853271
1480626316769823,-0.516296,-0.0177002,0.0700684,0.853333
1480626316792384,-0.516052,-0.0177002,0.0700684,0.853516
1480626316807423,-0.515991,-0.0177612,0.0700684,0.853516
1480626316829983,-0.515991,-0.0177612,0.0700684,0.853516
1480626316847529,-0.515991,-0.0177612,0.0700684,0.853516
1480626316870090,-0.515991,-0.0177612,0.0700684,0.853516
1480626316889642,-0.516052,-0.0177612,0.0700684,0.853516
1480626316907690,-0.516052,-0.0177002,0.0700684,0.853516
1480626316930250,-0.515991,-0.0177002,0.0700684,0.853516
1480626316957322,-0.515991,-0.0177002,0.0700684,0.853516
1480626316972362,-0.515991,-0.0177002,0.0700684,0.853516
1480626316990411,-0.51593,-0.0177002,0.0700684,0.853577
1480626317018990,-0.51593,-0.0177002,0.0700684,0.853577
1480626317027508,-0.51593,-0.0177002,0.0700684,0.853577
1480626317047063,-0.515991,-0.0177002,0.0700684,0.853516
1480626317069620,-0.51593,-0.0177002,0.0700684,0.853577
1480626317088169,-0.51593,-0.0177002,0.0700684,0.853577
1480626317114741,-0.51593,-0.0177002,0.0700684,0.853577
1480626317129780,-0.51593,-0.0177002,0.0700684,0.853577
1480626317148330,-0.515869,-0.0177002,0.0700684,0.853577
1480626317187434,-0.515869,-0.0177002,0.0700684,0.853577
1480626317215509,-0.515869,-0.0177612,0.0700684,0.853638
1480626317237572,-0.515808,-0.0177612,0.0700684,0.853638
1480626317251605,-0.515808,-0.0177002,0.0700684,0.853638
1480626317254112,-0.515869,-0.0177002,0.0700684,0.853638
1480626317267647,-0.516113,-0.0176392,0.0701294,0.853455
1480626317288703,-0.516113,-0.0176392,0.0701294,0.853455
1480626317313770,-0.516113,-0.0176392,0.0701294,0.853455
1480626317332319,-0.516113,-0.0176392,0.0701294,0.853455
1480626317363402,-0.516052,-0.0176392,0.0701294,0.853455
1480626317369923,-0.516052,-0.0176392,0.0701294,0.853516
1480626317401504,-0.516052,-0.0176392,0.0701294,0.853516
1480626317410026,-0.516052,-0.0176392,0.0701294,0.853516
1480626317429578,-0.516052,-0.0176392,0.0701294,0.853455
1480626317452138,-0.516052,-0.0176392,0.0701294,0.853455
1480626317474698,-0.516113,-0.0176392,0.0701294,0.853455
1480626317489738,-0.516052,-0.0176392,0.0701294,0.853455
1480626317512298,-0.516052,-0.0176392,0.0701294,0.853455
1480626317544885,-0.516052,-0.0176392,0.0701294,0.853516
1480626317549899,-0.515991,-0.0176392,0.0701294,0.853516
1480626317572459,-0.516174,-0.0176392,0.0701904,0.853394
1480626317590004,-0.516174,-0.0176392,0.0701904,0.853394
1480626317612565,-0.516174,-0.0176392,0.0701904,0.853394
1480626317632116,-0.516174,-0.0176392,0.0701904,0.853394
1480626317650165,-0.516235,-0.0176392,0.0701904,0.853394
1480626317686264,-0.516174,-0.0176392,0.0701904,0.853394
1480626317692277,-0.516174,-0.0176392,0.0701904,0.853394
1480626317710325,-0.516174,-0.0177002,0.0701904,0.853394
1480626317729877,-0.516174,-0.0177002,0.0701904,0.853394
1480626317754943,-0.516174,-0.0177002,0.0701904,0.853394
1480626317769987,-0.516357,-0.0177002,0.0701294,0.853271
1480626317791040,-0.516663,-0.0177002,0.0701294,0.853149
1480626317812597,-0.516663,-0.0177002,0.0701294,0.853088
1480626317830144,-0.516663,-0.0177002,0.0701294,0.853088
1480626317857215,-0.516663,-0.0177002,0.0701294,0.853088
1480626317872255,-0.516846,-0.0178223,0.0700684,0.853027
1480626317890304,-0.516846,-0.0178223,0.0700684,0.853027
1480626317909856,-0.516846,-0.0178223,0.0700684,0.853027
1480626317932415,-0.516846,-0.0178833,0.0700073,0.853027
1480626317972022,-0.516785,-0.0178833,0.0700073,0.853027
1480626317974028,-0.516846,-0.0178833,0.0700073,0.853027
1480626317992075,-0.516846,-0.0178833,0.0700073,0.853027
1480626318011125,-0.516724,-0.0178223,0.0700684,0.853088
1480626318040203,-0.516724,-0.0178223,0.0700684,0.853088
1480626318053739,-0.516724,-0.0178223,0.0700684,0.853088
1480626318070283,-0.516724,-0.0178223,0.0700684,0.853088
1480626318089835,-0.516724,-0.0178223,0.0700684,0.853088
1480626318119914,-0.516663,-0.0178223,0.0700684,0.853088
1480626318129941,-0.516663,-0.0178223,0.0700684,0.853088
1480626318153004,-0.516663,-0.0178223,0.0700684,0.853149
1480626318172056,-0.516663,-0.0178223,0.0700073,0.853149
1480626318190613,-0.516846,-0.0175781,0.0701294,0.853027
1480626318211159,-0.516846,-0.0175171,0.0701294,0.853027
1480626318232213,-0.516663,-0.0175171,0.0701294,0.853149
1480626318250261,-0.516357,-0.0175781,0.0703125,0.853333
1480626318271318,-0.515808,-0.0178223,0.0701904,0.853638
1480626318292373,-0.515747,-0.0178833,0.0701904,0.853638
1480626318317441,-0.515991,-0.0178223,0.0702515,0.853516
1480626318331478,-0.516296,-0.0176392,0.0704346,0.853333
1480626318352535,-0.516296,-0.0176392,0.0704346,0.853271
1480626318370586,-0.516296,-0.0176392,0.0704956,0.853271
1480626318392640,-0.516479,-0.0175781,0.0703125,0.85321
1480626318412192,-0.516663,-0.0176392,0.0703125,0.853088
1480626318430240,-0.516663,-0.0176392,0.0703125,0.853088
1480626318457312,-0.516418,-0.0176392,0.0703125,0.853271
1480626318475360,-0.516174,-0.0177002,0.0703735,0.853394
1480626318490401,-0.516113,-0.0177002,0.0703735,0.853394
1480626318512459,-0.516113,-0.0177612,0.0703735,0.853394
1480626318534017,-0.516113,-0.0177002,0.0703735,0.853394
1480626318557579,-0.516113,-0.0177612,0.0703735,0.853394
1480626318572624,-0.516113,-0.0177002,0.0703735,0.853394
1480626318595179,-0.516174,-0.0177002,0.0703735,0.853394
1480626318614731,-0.515991,-0.0176392,0.0703735,0.853516
1480626318645813,-0.515747,-0.0176392,0.0703125,0.853638
1480626318652333,-0.515686,-0.0177002,0.0703125,0.853699
1480626318671382,-0.515686,-0.0177002,0.0703125,0.853699
1480626318708982,-0.515686,-0.0177002,0.0703125,0.853699
1480626318713494,-0.515747,-0.0177002,0.0703125,0.853699
1480626318734550,-0.515747,-0.0177002,0.0703125,0.853638
1480626318753099,-0.515747,-0.0177002,0.0703125,0.853638
1480626318779670,-0.515747,-0.0177002,0.0703125,0.853638
1480626318790210,-0.515747,-0.0177002,0.0703125,0.853638
1480626318812770,-0.515686,-0.0177002,0.0703125,0.853699
1480626318832322,-0.515686,-0.0177002,0.0703125,0.853699
1480626318862402,-0.515625,-0.0177002,0.0703125,0.853699
1480626318880451,-0.515808,-0.0178223,0.0701904,0.853638
1480626318900003,-0.515869,-0.0178223,0.0701904,0.853577
1480626318922563,-0.515808,-0.0178223,0.0701904,0.853638
1480626318932589,-0.516174,-0.0177612,0.0701904,0.853394
1480626318953645,-0.516479,-0.0177002,0.0702515,0.85321
1480626318976205,-0.516479,-0.0177002,0.0702515,0.85321
1480626318992750,-0.516418,-0.0177002,0.0702515,0.853271
1480626319012301,-0.516418,-0.0177002,0.0702515,0.853271
1480626319042381,-0.516479,-0.0177002,0.0700684,0.85321
1480626319058925,-0.516663,-0.0177002,0.0700073,0.853149
1480626319073464,-0.516663,-0.0177002,0.0700073,0.853149
1480626319095021,-0.516663,-0.0177002,0.0700073,0.853149
1480626319128611,-0.516724,-0.0177002,0.0700073,0.853088
1480626319141144,-0.516724,-0.0177002,0.0700073,0.853088
1480626319154680,-0.516418,-0.0178223,0.0700073,0.853271
1480626319177241,-0.516174,-0.0180054,0.0700073,0.853455
1480626319199799,-0.515686,-0.0181885,0.0698853,0.85376
1480626319222360,-0.51532,-0.0183716,0.0697021,0.853943
1480626319232888,-0.515137,-0.0186157,0.0695801,0.854065
1480626319253442,-0.514954,-0.0187378,0.0695801,0.854187
1480626319275000,-0.514771,-0.0187988,0.0696411,0.854248
1480626319292547,-0.514526,-0.0187988,0.0697632,0.854431
1480626319313602,-0.514282,-0.0188599,0.0698853,0.854553
1480626319334659,-0.514282,-0.0189209,0.0698853,0.854553
1480626319352706,-0.514282,-0.0188599,0.0698853,0.854553
1480626319374271,-0.514099,-0.0195923,0.0690918,0.854675
1480626319394818,-0.513916,-0.0194702,0.0697021,0.854797
1480626319428409,-0.513428,-0.0198364,0.0695801,0.855042
1480626319435427,-0.512695,-0.0204468,0.069458,0.855469
1480626319454979,-0.511841,-0.0209961,0.069458,0.856018
1480626319472527,-0.51123,-0.0214233,0.069397,0.856384
1480626319502609,-0.51123,-0.0214233,0.069397,0.856384
1480626319514637,-0.51123,-0.0214233,0.069397,0.856384
1480626319544717,-0.511353,-0.0212402,0.0697021,0.856262
1480626319559758,-0.511108,-0.0212402,0.0701294,0.856384
1480626319574798,-0.509705,-0.0212402,0.0703125,0.857178
1480626319592845,-0.509338,-0.0214233,0.0701294,0.857422
1480626319619917,-0.509644,-0.0218506,0.0699463,0.857239
1480626319634959,-0.509888,-0.0221558,0.0698853,0.857056
1480626319652510,-0.509949,-0.0221558,0.0699463,0.857056
1480626319675064,-0.509705,-0.0222778,0.0700073,0.857239
1480626319696120,-0.509644,-0.0222778,0.0700073,0.857239
1480626319714168,-0.509644,-0.0222778,0.0700073,0.857239
1480626319735225,-0.509766,-0.0221558,0.0701294,0.857178
1480626319754776,-0.509949,-0.0220337,0.0701294,0.857056
1480626319777338,-0.509949,-0.0220337,0.0701294,0.857056
1480626319795384,-0.509766,-0.0220947,0.0701904,0.857178
1480626319814936,-0.509521,-0.0220947,0.0702515,0.8573
1480626319837497,-0.509277,-0.0221558,0.0702515,0.857422
1480626319856046,-0.509277,-0.0221558,0.0702515,0.857422
1480626319876099,-0.509521,-0.0221558,0.0702515,0.8573
1480626319893144,-0.509766,-0.0221558,0.0703125,0.857117
1480626319915203,-0.509766,-0.0221558,0.0703125,0.857117
1480626319934757,-0.509766,-0.0221558,0.0703735,0.857117
1480626319957315,-0.509766,-0.0221558,0.0703125,0.857117
1480626319983385,-0.509766,-0.0221558,0.0703125,0.857178
1480626320002436,-0.509705,-0.0222168,0.0703125,0.857178
1480626320012963,-0.509827,-0.0222168,0.0703125,0.857117
1480626320035527,-0.510071,-0.0222168,0.0703735,0.856934
1480626320057582,-0.510071,-0.0222168,0.0703735,0.856934
1480626320072622,-0.510071,-0.0222168,0.0703735,0.856934
1480626320095183,-0.510071,-0.0222168,0.0703735,0.856934
1480626320122254,-0.510071,-0.0222168,0.0703735,0.856934
1480626320146318,-0.510071,-0.0222168,0.0703735,0.856934
1480626320154840,-0.51001,-0.0222168,0.0703735,0.856995
1480626320176398,-0.51001,-0.0222778,0.0703125,0.856995
1480626320192441,-0.51001,-0.0222778,0.0703125,0.856995
1480626320222521,-0.51001,-0.0222778,0.0703125,0.856995
1480626320237561,-0.51001,-0.0222778,0.0703125,0.856995
1480626320253103,-0.510071,-0.0222778,0.0703125,0.856995
1480626320290703,-0.51001,-0.0222778,0.0703735,0.856995
1480626320312763,-0.51001,-0.0222168,0.0703735,0.856995
1480626320317275,-0.51001,-0.0222778,0.0703735,0.856995
1480626320341337,-0.51001,-0.0222778,0.0703125,0.856995
1480626320372420,-0.51001,-0.0222778,0.0703125,0.856995
1480626320377433,-0.51001,-0.0222778,0.0703125,0.856995
1480626320395482,-0.51001,-0.0222778,0.0703125,0.856995
1480626320418041,-0.51001,-0.0222778,0.0703125,0.856995
1480626320437595,-0.51001,-0.0222778,0.0703125,0.856995
1480626320455140,-0.51001,-0.0222778,0.0703125,0.856995
1480626320483716,-0.51001,-0.0222778,0.0703125,0.856995
1480626320497252,-0.51001,-0.0222778,0.0703125,0.856995
1480626320515801,-0.509949,-0.0222778,0.0703125,0.856995
1480626320537860,-0.509705,-0.0222168,0.0703735,0.857178
1480626320558915,-0.509521,-0.0222778,0.0703735,0.857239
1480626320587492,-0.509521,-0.0222778,0.0703735,0.857239
1480626320597520,-0.509521,-0.0222778,0.0703735,0.857239
1480626320617572,-0.509521,-0.0222778,0.0703735,0.857239
1480626320647150,-0.509521,-0.0222778,0.0703735,0.857239
1480626320657678,-0.509521,-0.0222778,0.0703735,0.857239
1480626320677230,-0.509521,-0.0222778,0.0703735,0.8573
1480626320699790,-0.509521,-0.0222778,0.0703735,0.8573
1480626320717839,-0.50946,-0.0222778,0.0703735,0.8573
1480626320737390,-0.50946,-0.0222778,0.0703735,0.8573
1480626320759951,-0.50946,-0.0222778,0.0703735,0.8573
1480626320777497,-0.50946,-0.0222778,0.0703735,0.8573
1480626320804569,-0.50946,-0.0222778,0.0703735,0.8573
1480626320815097,-0.50946,-0.0222778,0.0703735,0.8573
1480626320837659,-0.50946,-0.0222778,0.0703735,0.8573
1480626320857209,-0.50946,-0.0222778,0.0703735,0.8573
1480626320875759,-0.50946,-0.0222778,0.0703735,0.8573
1480626320902330,-0.509399,-0.0222778,0.0703735,0.857361
1480626320917373,-0.509399,-0.0222778,0.0703735,0.857361
1480626320935419,-0.509399,-0.0222778,0.0703735,0.857361
1480626320957475,-0.509338,-0.0222778,0.0703735,0.857361
1480626320977028,-0.509338,-0.0222168,0.0703735,0.857361
1480626320995076,-0.509338,-0.0222168,0.0703735,0.857361
1480626321022148,-0.509338,-0.0222168,0.0703735,0.857361
1480626321038692,-0.509338,-0.0222168,0.0703735,0.857361
1480626321055738,-0.509338,-0.0222168,0.0703735,0.857422
1480626321092336,-0.509277,-0.0222168,0.0703735,0.857422
1480626321097850,-0.509277,-0.0222168,0.0703735,0.857422
1480626321114393,-0.509216,-0.0222168,0.0703735,0.857422
1480626321137455,-0.509277,-0.0222168,0.0703735,0.857422
1480626321165529,-0.509033,-0.0222168,0.0704346,0.857544
1480626321174554,-0.50885,-0.0221558,0.0704346,0.857666
1480626321196612,-0.50885,-0.0221558,0.0704346,0.857666
1480626321218172,-0.508789,-0.0221558,0.0704346,0.857666
1480626321235216,-0.508789,-0.0221558,0.0704346,0.857727
1480626321256772,-0.508728,-0.0221558,0.0704346,0.857727
1480626321279332,-0.508728,-0.0221558,0.0704346,0.857727
1480626321294874,-0.508728,-0.0221558,0.0704346,0.857727
1480626321316934,-0.508728,-0.0221558,0.0704346,0.857727
1480626321339493,-0.508728,-0.0221558,0.0704346,0.857727
1480626321362052,-0.508728,-0.0221558,0.0704346,0.857727
1480626321377092,-0.508728,-0.0221558,0.0704346,0.857727
1480626321400656,-0.508728,-0.0220947,0.0704346,0.857727
1480626321413689,-0.508667,-0.0221558,0.0704346,0.857788
1480626321437255,-0.508667,-0.0221558,0.0704346,0.857788
1480626321459311,-0.508667,-0.0221558,0.0704346,0.857788
1480626321480368,-0.508606,-0.0221558,0.0704346,0.857788
1480626321497914,-0.508606,-0.0221558,0.0704346,0.857788
1480626321519973,-0.508606,-0.0221558,0.0704346,0.857788
1480626321533511,-0.508606,-0.0221558,0.0704346,0.857788
1480626321557071,-0.508606,-0.0221558,0.0704346,0.857788
1480626321595172,-0.508606,-0.0221558,0.0704346,0.857788
1480626321597178,-0.508606,-0.0221558,0.0704346,0.857788
1480626321624250,-0.508301,-0.0221558,0.0704956,0.857971
1480626321647311,-0.508301,-0.0221558,0.0704956,0.857971
1480626321660346,-0.50824,-0.0221558,0.0704956,0.858032
1480626321677392,-0.50824,-0.0221558,0.0704956,0.858032
1480626321699450,-0.50824,-0.0221558,0.0704956,0.858032
1480626321722010,-0.50824,-0.0221558,0.0704956,0.858032
1480626321743066,-0.50824,-0.0221558,0.0704956,0.858032
1480626321759611,-0.50824,-0.0221558,0.0704956,0.858032
1480626321780165,-0.507813,-0.0220947,0.0704346,0.858276
1480626321804733,-0.507324,-0.0222778,0.0701294,0.858582
1480626321819268,-0.506958,-0.0223389,0.0700073,0.858826
1480626321840325,-0.506958,-0.0223389,0.0700073,0.858826
1480626321871407,-0.506897,-0.0223389,0.0700073,0.858826
1480626321879428,-0.506897,-0.0223389,0.0700073,0.858826
1480626321901990,-0.507202,-0.0222168,0.0701904,0.858643
1480626321934074,-0.507141,-0.0221558,0.0706177,0.858643
1480626321940090,-0.506714,-0.0223389,0.0708008,0.858887
1480626321961649,-0.505615,-0.022644,0.0708008,0.859558
1480626321976687,-0.505432,-0.0229492,0.0708618,0.859619
1480626321999248,-0.505981,-0.022583,0.0713501,0.859253
1480626322020303,-0.50592,-0.022644,0.0713501,0.859314
1480626322036850,-0.505859,-0.022644,0.0713501,0.859314
1480626322059407,-0.50592,-0.022644,0.0713501,0.859314
1480626322087985,-0.50592,-0.022644,0.0713501,0.859314
1480626322098010,-0.50592,-0.022644,0.0713501,0.859314
1480626322119567,-0.50592,-0.022644,0.0713501,0.859314
1480626322148143,-0.50592,-0.022644,0.0713501,0.859314
1480626322156666,-0.506104,-0.022583,0.0714111,0.859192
1480626322180730,-0.506226,-0.022583,0.0713501,0.859131
1480626322201787,-0.50647,-0.022644,0.0713501,0.859009
1480626322224346,-0.506653,-0.0227051,0.0713501,0.858887
1480626322239388,-0.506653,-0.0227051,0.0713501,0.858887
1480626322261947,-0.506714,-0.022644,0.0713501,0.858826
1480626322276485,-0.507019,-0.022644,0.0712891,0.858643
1480626322300049,-0.507019,-0.022644,0.0713501,0.858643
1480626322322608,-0.507324,-0.022583,0.0712891,0.858521
1480626322336645,-0.507263,-0.022583,0.0712891,0.858521
1480626322359205,-0.507263,-0.022644,0.071228,0.858521
1480626322381766,-0.507263,-0.022644,0.071228,0.858521
1480626322396805,-0.507629,-0.0223999,0.0714111,0.858276
1480626322434407,-0.507629,-0.0227661,0.0714111,0.858276
1480626322458470,-0.507141,-0.022644,0.0714722,0.858582
1480626322470505,-0.507263,-0.0224609,0.0716553,0.858521
1480626322487045,-0.50769,-0.0223999,0.0717773,0.858276
1480626322502085,-0.507629,-0.0223999,0.0717773,0.858276
1480626322516122,-0.507629,-0.0223999,0.0717773,0.858276
1480626322539184,-0.507629,-0.0223999,0.0717773,0.858276
1480626322561744,-0.507324,-0.0223999,0.0714111,0.858459
1480626322584307,-0.507507,-0.0227051,0.0708008,0.858398
1480626322599344,-0.507996,-0.0228271,0.0704346,0.858154
1480626322622405,-0.508362,-0.0227661,0.0703735,0.857971
1480626322642961,-0.508667,-0.022522,0.0704346,0.857788
1480626322659504,-0.508789,-0.0222778,0.0703735,0.857727
1480626322682064,-0.509094,-0.0221558,0.0704346,0.857544
1480626322696102,-0.509094,-0.0221558,0.0704346,0.857483
1480626322734203,-0.509094,-0.0221558,0.0704346,0.857544
1480626322741723,-0.509094,-0.0222168,0.0704346,0.857544
1480626322762779,-0.508606,-0.0221558,0.0704956,0.857788
1480626322793359,-0.508301,-0.0221558,0.0705566,0.857971
1480626322809403,-0.508484,-0.0220337,0.0708008,0.857849
1480626322822939,-0.50824,-0.0221558,0.0708618,0.857971
1480626322839485,-0.507751,-0.0222778,0.0709839,0.858276
1480626322862043,-0.507446,-0.0223389,0.071228,0.858398
1480626322883099,-0.507446,-0.0223389,0.071228,0.858459
1480626322899643,-0.507446,-0.0223389,0.071228,0.858459
1480626322921701,-0.507446,-0.0223389,0.071228,0.858459
1480626322950279,-0.507385,-0.0223389,0.071167,0.858459
1480626322959803,-0.50769,-0.0222168,0.0717773,0.858276
1480626322981861,-0.507568,-0.0221558,0.0719604,0.858276
1480626323004423,-0.507568,-0.0221558,0.0719604,0.858337
1480626323034502,-0.508118,-0.0220947,0.0719604,0.857971
1480626323042022,-0.508728,-0.0220947,0.0718384,0.857666
1480626323063078,-0.508789,-0.0222168,0.0717163,0.857605
1480626323079622,-0.508484,-0.0223389,0.0716553,0.857788
1480626323109703,-0.507813,-0.022522,0.0715332,0.858154
1480626323122736,-0.507324,-0.0227051,0.0715332,0.858459
1480626323139282,-0.507324,-0.0227051,0.0715332,0.858459
1480626323161842,-0.507324,-0.0227051,0.0715332,0.858459
1480626323199942,-0.507141,-0.0227661,0.0715332,0.858582
1480626323202451,-0.506775,-0.0227661,0.0715942,0.858765
1480626323222000,-0.50647,-0.0227661,0.0717163,0.858948
1480626323260603,-0.506409,-0.0227661,0.0717163,0.858948
1480626323265618,-0.506409,-0.0227661,0.0717163,0.859009
1480626323283163,-0.506409,-0.0227661,0.0717163,0.859009
1480626323304219,-0.506409,-0.0227661,0.0717163,0.859009
1480626323319259,-0.506104,-0.0229492,0.0716553,0.859192
1480626323341819,-0.50531,-0.0229492,0.0715942,0.85968
1480626323364380,-0.505615,-0.0230713,0.0709839,0.859497
1480626323386939,-0.506836,-0.0233154,0.0709229,0.858826
1480626323401979,-0.506531,-0.0231323,0.0709229,0.858948
1480626323425040,-0.506653,-0.0227661,0.0706177,0.858948
1480626323438577,-0.506897,-0.0228882,0.0706787,0.858826
1480626323485202,-0.506042,-0.0230103,0.0705566,0.859314
1480626323487206,-0.505188,-0.0228271,0.0704346,0.859802
1480626323508262,-0.505676,-0.0227051,0.0704956,0.859558
1480626323521798,-0.506042,-0.022644,0.0706177,0.859314
1480626323544358,-0.505615,-0.022583,0.0704956,0.859558
1480626323565415,-0.505066,-0.022522,0.0704956,0.859924
1480626323582459,-0.505066,-0.022522,0.0704346,0.859863
1480626323610535,-0.504883,-0.022522,0.0705566,0.859985
1480626323618557,-0.504517,-0.0223999,0.0707397,0.860168
1480626323642118,-0.504517,-0.0223999,0.0707397,0.860168
1480626323664678,-0.504517,-0.0223999,0.0707397,0.860229
1480626323678716,-0.504456,-0.0223999,0.0706787,0.860229
1480626323701777,-0.504272,-0.022522,0.0706177,0.860352
1480626323724337,-0.504089,-0.0224609,0.0706787,0.860474
1480626323752913,-0.504089,-0.0223999,0.0706787,0.860474
1480626323761937,-0.504089,-0.0223999,0.0706787,0.860474
1480626323784501,-0.503479,-0.0224609,0.071106,0.860779
1480626323814577,-0.503174,-0.022644,0.0714111,0.860901
1480626323822598,-0.50238,-0.0227051,0.071228,0.861389
1480626323844156,-0.502258,-0.0230713,0.0708008,0.861511
1480626323865211,-0.502075,-0.0231934,0.0708008,0.861572
1480626323882760,-0.502258,-0.022644,0.071106,0.86145
1480626323910331,-0.50238,-0.0222778,0.0709229,0.861389
1480626323925371,-0.50293,-0.0220947,0.0708008,0.861145
1480626323941916,-0.502747,-0.0222778,0.0704346,0.861267
1480626323964477,-0.502319,-0.022583,0.0690308,0.861633
1480626323985534,-0.502197,-0.0228271,0.069397,0.861633
1480626324001575,-0.501465,-0.0230103,0.069519,0.862061
1480626324025138,-0.500427,-0.0231934,0.0695801,0.862671
1480626324052710,-0.5,-0.0234375,0.0696411,0.862915
1480626324063740,-0.499756,-0.0238647,0.0697021,0.863037
1480626324084297,-0.499634,-0.0239258,0.0698242,0.863098
1480626324105351,-0.499756,-0.0239258,0.0695801,0.863037
1480626324122396,-0.499878,-0.0238647,0.069397,0.862976
1480626324144455,-0.500366,-0.0236206,0.069397,0.862671
1480626324167015,-0.500977,-0.0236206,0.069397,0.862366
1480626324195590,-0.501221,-0.0235596,0.0693359,0.862183
1480626324205116,-0.501221,-0.0235596,0.0693359,0.862183
1480626324227676,-0.501221,-0.0235596,0.0693359,0.862244
1480626324241715,-0.50116,-0.0235596,0.0693359,0.862244
1480626324264273,-0.50116,-0.0235596,0.0693359,0.862244
1480626324286833,-0.500793,-0.0232544,0.0696411,0.862427
1480626324316913,-0.500427,-0.0231323,0.0696411,0.862671
1480626324339473,-0.500427,-0.0231323,0.0696411,0.862671
1480626324346993,-0.500427,-0.0231323,0.0696411,0.862671
1480626324368051,-0.500183,-0.0231323,0.0696411,0.862793
1480626324384609,-0.499878,-0.0231323,0.0697021,0.862976
1480626324414172,-0.499878,-0.0231934,0.0696411,0.862976
1480626324422194,-0.499817,-0.0231934,0.0696411,0.862976
1480626324444253,-0.499634,-0.0232544,0.0696411,0.863098
1480626324466812,-0.499573,-0.0232544,0.0696411,0.863159
1480626324481352,-0.499817,-0.0231323,0.0697021,0.862976
1480626324504417,-0.500122,-0.0229492,0.0698242,0.862793
1480626324534497,-0.500549,-0.0228882,0.0699463,0.862549
1480626324541009,-0.500916,-0.0228882,0.0698853,0.862366
1480626324564572,-0.501038,-0.0229492,0.0698853,0.862305
1480626324594652,-0.501404,-0.0231323,0.0698242,0.862061
1480626324607687,-0.501709,-0.0234375,0.0696411,0.861877
1480626324624231,-0.501831,-0.0237427,0.069519,0.861816
1480626324646791,-0.502258,-0.0239868,0.069519,0.861572
1480626324667847,-0.502808,-0.0241699,0.069519,0.861267
1480626324691911,-0.503296,-0.024231,0.069519,0.860962
1480626324706953,-0.503723,-0.0241089,0.0695801,0.860718
1480626324728007,-0.504211,-0.0238647,0.0695801,0.860413
1480626324752071,-0.5047,-0.0235596,0.069519,0.860168
1480626324774631,-0.505371,-0.0232544,0.069458,0.859802
1480626324788669,-0.505737,-0.0230713,0.069397,0.859558
1480626324811730,-0.506104,-0.0227661,0.069458,0.859375
1480626324843314,-0.50647,-0.022522,0.069458,0.859192
1480626324855346,-0.506958,-0.0222778,0.069458,0.858887
1480626324873394,-0.507568,-0.0220337,0.0695801,0.858521
1480626324887932,-0.508057,-0.0219116,0.0697021,0.858215
1480626324907988,-0.508423,-0.0219116,0.0698242,0.857971
1480626324924530,-0.508545,-0.0219727,0.0699463,0.85791
1480626324946588,-0.508423,-0.0222778,0.0699463,0.857971
1480626324970158,-0.50824,-0.022644,0.0698853,0.858032
1480626324985194,-0.507813,-0.0230713,0.0698853,0.858276
1480626325007752,-0.507446,-0.0233765,0.0699463,0.858521
1480626325027806,-0.506897,-0.0238037,0.0700073,0.858826
1480626325068413,-0.506409,-0.024231,0.0701294,0.85907
1480626325080946,-0.50531,-0.0254517,0.0703735,0.85968
1480626325087964,-0.50415,-0.0253906,0.0703735,0.860352
1480626325110525,-0.504028,-0.0256958,0.0699463,0.860474
1480626325127069,-0.504883,-0.0258179,0.0697021,0.859985
1480626325149629,-0.505188,-0.0258789,0.0697021,0.859802
1480626325164668,-0.505249,-0.0256348,0.0698853,0.859741
1480626325186727,-0.504822,-0.0253296,0.0701294,0.859985
1480626325209287,-0.5047,-0.0251465,0.0702515,0.860046
1480626325224328,-0.505005,-0.0250854,0.0704956,0.859863
1480626325254407,-0.505066,-0.0250244,0.0704956,0.859863
1480626325275966,-0.505066,-0.0250244,0.0704956,0.859802
1480626325290503,-0.505066,-0.0250244,0.0704956,0.859802
1480626325313565,-0.505066,-0.0250244,0.0704956,0.859802
1480626325344146,-0.505066,-0.0250244,0.0704956,0.859802
1480626325346653,-0.505005,-0.0249634,0.0704956,0.859863
1480626325366706,-0.505005,-0.0249634,0.0704956,0.859863
1480626325396786,-0.505005,-0.0249634,0.0704956,0.859863
1480626325419346,-0.505005,-0.0249634,0.0704956,0.859863
1480626325426866,-0.505005,-0.0249634,0.0704956,0.859863
1480626325449928,-0.504883,-0.0249023,0.0706177,0.859924
1480626325463464,-0.504822,-0.0249023,0.0706787,0.859924
1480626325487029,-0.504822,-0.0249023,0.0706787,0.859924
1480626325509586,-0.504822,-0.0248413,0.0706787,0.859924
1480626325524126,-0.504822,-0.0248413,0.0706787,0.859924
1480626325547689,-0.504822,-0.0248413,0.0706787,0.859985
1480626325569249,-0.504822,-0.0248413,0.0706787,0.859985
1480626325590301,-0.504822,-0.0249023,0.0706787,0.859985
1480626325621885,-0.504822,-0.0248413,0.0706787,0.859985
1480626325630408,-0.504822,-0.0248413,0.0706787,0.859985
1480626325650462,-0.504822,-0.0248413,0.0706787,0.859985
1480626325667007,-0.504822,-0.0248413,0.0706787,0.859985
1480626325689564,-0.504761,-0.0248413,0.0706787,0.859985
1480626325710120,-0.504761,-0.0248413,0.0706787,0.859985
1480626325726664,-0.5047,-0.0248413,0.0706787,0.859985
1480626325749224,-0.5047,-0.0248413,0.0706787,0.859985
1480626325770280,-0.5047,-0.0248413,0.0706787,0.860046
1480626325786824,-0.5047,-0.0248413,0.0706787,0.860046
1480626325809885,-0.5047,-0.0248413,0.0706787,0.859985
1480626325830440,-0.504578,-0.0247803,0.0707397,0.860107
1480626325846985,-0.504578,-0.0247803,0.0707397,0.860046
1480626325869544,-0.504578,-0.0247803,0.0707397,0.860107
1480626325899626,-0.504578,-0.0247803,0.0707397,0.860107
1480626325921683,-0.504578,-0.0247803,0.0707397,0.860107
1480626325929706,-0.504517,-0.0247803,0.0707397,0.860107
1480626325950259,-0.504517,-0.0247803,0.0707397,0.860107
1480626325966804,-0.504517,-0.0247803,0.0707397,0.860107
1480626325989865,-0.504517,-0.0247803,0.0707397,0.860107
1480626326010418,-0.504517,-0.0247192,0.0707397,0.860107
1480626326026963,-0.504517,-0.0247192,0.0707397,0.860107
1480626326049524,-0.504639,-0.0247192,0.0707397,0.860046
1480626326080104,-0.504822,-0.0248413,0.0706787,0.859985
1480626326088125,-0.504761,-0.0248413,0.0706787,0.859985
1480626326116705,-0.504883,-0.0249023,0.0706787,0.859924
1480626326131742,-0.505066,-0.0249023,0.0706787,0.859802
1480626326146781,-0.50531,-0.0249634,0.0707397,0.85968
1480626326169345,-0.50531,-0.0249634,0.0707397,0.85968
1480626326191902,-0.50531,-0.0249634,0.0707397,0.85968
1480626326207443,-0.50531,-0.0249023,0.0707397,0.85968
1480626326230003,-0.50531,-0.0249023,0.0707397,0.85968
1480626326251562,-0.505493,-0.0249634,0.0707397,0.859558
1480626326274120,-0.505493,-0.0249634,0.0707397,0.859558
1480626326289160,-0.505493,-0.0249634,0.0707397,0.859558
1480626326312222,-0.505493,-0.0249634,0.0707397,0.859558
1480626326326259,-0.505493,-0.0249634,0.0707397,0.859558
1480626326350324,-0.505493,-0.0249634,0.0707397,0.859558
1480626326371880,-0.505493,-0.0249634,0.0707397,0.859558
1480626326392937,-0.505493,-0.0249634,0.0707397,0.859558
1480626326415499,-0.505493,-0.0249634,0.0707397,0.859558
1480626326446077,-0.505493,-0.0249634,0.0707397,0.859558
1480626326455603,-0.505493,-0.0249634,0.0707397,0.859558
1480626326475155,-0.505493,-0.0249634,0.0707397,0.859558
1480626326491698,-0.505493,-0.0249634,0.0707397,0.859558
1480626326506237,-0.505493,-0.0249634,0.0707397,0.859558
1480626326529800,-0.505493,-0.0249634,0.0707397,0.859558
1480626326557875,-0.505493,-0.0249634,0.0707397,0.859558
1480626326572917,-0.505493,-0.0249634,0.0707397,0.859558
1480626326589459,-0.505493,-0.0249634,0.0707397,0.859558
1480626326612019,-0.505493,-0.0249634,0.0707397,0.859558
1480626326650121,-0.505493,-0.0249023,0.0707397,0.859558
1480626326652126,-0.505493,-0.0249023,0.0707397,0.859558
1480626326672683,-0.505493,-0.0249023,0.0707397,0.859558
1480626326700760,-0.505493,-0.0249023,0.0707397,0.859558
1480626326716798,-0.505432,-0.0249634,0.0707397,0.859558
1480626326732840,-0.505493,-0.0249634,0.0707397,0.859558
1480626326752894,-0.505493,-0.0249634,0.0707397,0.859558
1480626326769440,-0.505493,-0.0249023,0.0707397,0.859558
1480626326791998,-0.505493,-0.0249023,0.0707397,0.859558
1480626326813054,-0.505493,-0.0249023,0.0707397,0.859558
1480626326829598,-0.505493,-0.0249023,0.0707397,0.859558
1480626326859177,-0.505493,-0.0249634,0.0707397,0.859558
1480626326872712,-0.505493,-0.0249634,0.0707397,0.859558
1480626326896776,-0.505493,-0.0249634,0.0707397,0.859558
1480626326917833,-0.505432,-0.0247803,0.0709229,0.859558
1480626326940392,-0.505432,-0.0246582,0.071228,0.859558
1480626326950925,-0.50531,-0.0244141,0.0715332,0.859619
1480626326971476,-0.505188,-0.0244751,0.0715942,0.85968
1480626326994036,-0.504883,-0.0244141,0.0715942,0.859863
1480626327016596,-0.504822,-0.0244751,0.0715942,0.859863
1480626327031638,-0.504822,-0.0244751,0.0715332,0.859863
1480626327054196,-0.504822,-0.0244751,0.0715332,0.859863
1480626327069241,-0.504822,-0.0244751,0.0715332,0.859924
1480626327091795,-0.504822,-0.0244751,0.0715332,0.859924
1480626327114356,-0.504822,-0.0244751,0.0715332,0.859863
1480626327129396,-0.504822,-0.0244751,0.0715332,0.859863
1480626327151955,-0.504883,-0.0244751,0.0715332,0.859863
1480626327174516,-0.504883,-0.0244751,0.0715942,0.859863
1480626327204596,-0.504883,-0.0244751,0.0715942,0.859863
1480626327211614,-0.504883,-0.0244751,0.0715942,0.859863
1480626327234677,-0.504883,-0.0244751,0.0715332,0.859863
1480626327255230,-0.504883,-0.0244751,0.0715332,0.859863
1480626327272276,-0.504883,-0.0244751,0.0715332,0.859863
1480626327294334,-0.504944,-0.0244751,0.0715332,0.859802
1480626327308873,-0.504944,-0.0244141,0.0715942,0.859802
1480626327339454,-0.504944,-0.0244141,0.0715942,0.859802
1480626327354495,-0.504822,-0.0244141,0.0715332,0.859924
1480626327368532,-0.504822,-0.0244141,0.0715332,0.859924
1480626327392095,-0.504761,-0.0244141,0.0715332,0.859924
1480626327414154,-0.504761,-0.0244141,0.0715332,0.859924
1480626327428692,-0.504578,-0.024353,0.0715942,0.860046
1480626327452756,-0.504578,-0.024353,0.0715942,0.860046
1480626327474313,-0.504578,-0.024353,0.0715942,0.860046
1480626327488851,-0.504578,-0.024353,0.0715942,0.860046
1480626327511913,-0.504639,-0.024353,0.0715942,0.859985
1480626327534475,-0.504456,-0.024353,0.0715332,0.860107
1480626327555529,-0.504456,-0.024353,0.0715942,0.860107
1480626327572073,-0.504456,-0.024353,0.0715942,0.860107
1480626327594634,-0.504456,-0.024353,0.0715332,0.860107
1480626327616692,-0.504456,-0.024353,0.0715942,0.860107
1480626327631732,-0.504456,-0.0244141,0.0715332,0.860107
1480626327654793,-0.504456,-0.0244141,0.0715332,0.860107
1480626327675347,-0.504456,-0.0244141,0.0715332,0.860107
1480626327697909,-0.504517,-0.024353,0.0715332,0.860107
1480626327721972,-0.504517,-0.024353,0.0715942,0.860046
1480626327752553,-0.504517,-0.024353,0.0715942,0.860107
1480626327755060,-0.504456,-0.024353,0.0715942,0.860107
1480626327780627,-0.504456,-0.024353,0.0715942,0.860107
1480626327795167,-0.504517,-0.024353,0.0715942,0.860107
1480626327811711,-0.504272,-0.024353,0.0715942,0.860229
1480626327834274,-0.504272,-0.024353,0.0715942,0.860229
1480626327855326,-0.504272,-0.024353,0.0715942,0.860229
1480626327871872,-0.504333,-0.024353,0.0715942,0.860168
1480626327894431,-0.504333,-0.024353,0.0716553,0.860168
1480626327915487,-0.504333,-0.024353,0.0716553,0.860168
1480626327939551,-0.504272,-0.024353,0.0716553,0.860229
1480626327954089,-0.504272,-0.024353,0.0716553,0.860229
1480626327975145,-0.504272,-0.024353,0.0716553,0.860229
1480626327991690,-0.504272,-0.024353,0.0715942,0.860229
1480626328029289,-0.504272,-0.024353,0.0715942,0.860229
1480626328036811,-0.504333,-0.024353,0.0715942,0.860168
1480626328051850,-0.504333,-0.024353,0.0716553,0.860168
1480626328089449,-0.504333,-0.024353,0.0716553,0.860168
1480626328104490,-0.504333,-0.024292,0.0716553,0.860168
1480626328113513,-0.504028,-0.024292,0.0715942,0.860352
1480626328135072,-0.503967,-0.024292,0.0715942,0.860413
1480626328156628,-0.503967,-0.024353,0.0715942,0.860413
1480626328171167,-0.503967,-0.024353,0.0715332,0.860352
1480626328194228,-0.504028,-0.024353,0.0715332,0.860352
1480626328222804,-0.504028,-0.024353,0.0715332,0.860352
1480626328231327,-0.504028,-0.024353,0.0715942,0.860352
1480626328254389,-0.504028,-0.024292,0.0715942,0.860352
1480626328277951,-0.504028,-0.024292,0.0715942,0.860352
1480626328299510,-0.504028,-0.024292,0.0715942,0.860352
1480626328314047,-0.504028,-0.024292,0.0715942,0.860352
1480626328336607,-0.504028,-0.024292,0.0715942,0.860352
1480626328358165,-0.503967,-0.024292,0.0715942,0.860352
1480626328389249,-0.503967,-0.024353,0.0715942,0.860413
1480626328397269,-0.503967,-0.024353,0.0715942,0.860352
1480626328417830,-0.504028,-0.024353,0.0715942,0.860352
1480626328434369,-0.504028,-0.024353,0.0715942,0.860352
1480626328456927,-0.504089,-0.024292,0.0715942,0.860352
1480626328477983,-0.504089,-0.024292,0.0715942,0.860352
1480626328494527,-0.503967,-0.024231,0.0717773,0.860413
1480626328517093,-0.503906,-0.024231,0.0717773,0.860413
1480626328538143,-0.504089,-0.0241699,0.0717773,0.860291
1480626328555189,-0.504089,-0.024231,0.0717163,0.860291
1480626328578752,-0.50415,-0.0241699,0.0717163,0.860291
1480626328598304,-0.50415,-0.024231,0.0717163,0.860291
1480626328614347,-0.504456,-0.0241089,0.0717773,0.860107
1480626328636906,-0.504456,-0.0240479,0.0718384,0.860107
1480626328659466,-0.504456,-0.0240479,0.0718384,0.860107
1480626328675008,-0.504456,-0.0240479,0.0718384,0.860107
1480626328697568,-0.504456,-0.0240479,0.0718384,0.860107
1480626328718122,-0.504395,-0.0240479,0.0718384,0.860107
1480626328734666,-0.504395,-0.0240479,0.0718384,0.860107
1480626328756724,-0.504395,-0.0240479,0.0718384,0.860107
1480626328777782,-0.504395,-0.0240479,0.0718384,0.860107
1480626328794325,-0.504456,-0.0240479,0.0718384,0.860107
1480626328817889,-0.504456,-0.0240479,0.0718384,0.860107
1480626328837942,-0.504517,-0.0240479,0.0718384,0.860046
1480626328862506,-0.504456,-0.0240479,0.0718384,0.860107
1480626328877546,-0.504456,-0.0240479,0.0718384,0.860107
1480626328898101,-0.504456,-0.0240479,0.0718384,0.860107
1480626328920663,-0.504456,-0.0240479,0.0718384,0.860107
1480626328936704,-0.504456,-0.0241089,0.0717773,0.860107
1480626328959766,-0.504456,-0.0241089,0.0717773,0.860107
1480626328974304,-0.504517,-0.0241089,0.0717773,0.860046
1480626328996865,-0.504517,-0.0240479,0.0718384,0.860046
1480626329019925,-0.504517,-0.0240479,0.0718384,0.860046
1480626329047999,-0.504517,-0.0240479,0.0718384,0.860046
1480626329057024,-0.504395,-0.0241089,0.0717773,0.860107
1480626329079584,-0.504395,-0.0241089,0.0717773,0.860168
1480626329093621,-0.504333,-0.0241089,0.0717163,0.860168
1480626329117189,-0.504333,-0.0241089,0.0717163,0.860168
1480626329139746,-0.504333,-0.0241089,0.0717163,0.860168
1480626329160298,-0.504333,-0.0241089,0.0717163,0.860168
1480626329182859,-0.504395,-0.0241089,0.0717163,0.860168
1480626329199403,-0.504395,-0.0241089,0.0717773,0.860168
1480626329213941,-0.504578,-0.024231,0.0715942,0.860046
1480626329244522,-0.504578,-0.024231,0.0715942,0.860046
1480626329259562,-0.504578,-0.024231,0.0715942,0.860046
1480626329273600,-0.504578,-0.024231,0.0715942,0.860046
1480626329296661,-0.504578,-0.024231,0.0715942,0.860046
1480626329326741,-0.504578,-0.024231,0.0715942,0.860046
1480626329340278,-0.504639,-0.024231,0.0715942,0.859985
1480626329356821,-0.504639,-0.024231,0.0715942,0.859985
1480626329379382,-0.504517,-0.024231,0.0717163,0.860046
1480626329393419,-0.504211,-0.024353,0.0717163,0.860229
1480626329416987,-0.503357,-0.024292,0.0719604,0.860718
1480626329445557,-0.503052,-0.0241089,0.0719604,0.860901
1480626329460095,-0.503174,-0.024231,0.0718384,0.86084
1480626329477642,-0.503296,-0.024292,0.0717163,0.860779
1480626329500205,-0.503723,-0.024231,0.0718384,0.860535
1480626329520255,-0.503784,-0.024292,0.0717773,0.860474
1480626329536805,-0.502991,-0.0241089,0.0717773,0.860962
1480626329559861,-0.503418,-0.024231,0.0715332,0.860718
1480626329580417,-0.503906,-0.024353,0.0712891,0.860413
1480626329604480,-0.504395,-0.0239258,0.071228,0.860168
1480626329620022,-0.504395,-0.0236816,0.071106,0.860229
1480626329640576,-0.505066,-0.0234375,0.0709839,0.859802
1480626329656619,-0.505798,-0.0233154,0.0712891,0.859375
1480626329686698,-0.505249,-0.0231934,0.0715942,0.85968
1480626329700239,-0.5047,-0.0230713,0.0717163,0.859985
1480626329717282,-0.504456,-0.0231323,0.0718994,0.860107
1480626329739840,-0.504578,-0.0233765,0.0722656,0.859985
1480626329767915,-0.504517,-0.0239868,0.0728149,0.859985
1480626329776939,-0.503906,-0.0240479,0.0731812,0.860291
1480626329805514,-0.503418,-0.0239258,0.0734253,0.860535
1480626329820554,-0.503296,-0.0237427,0.0737305,0.860596
1480626329836598,-0.503052,-0.0237427,0.0742798,0.860718
1480626329859158,-0.502686,-0.0238647,0.0747681,0.860901
1480626329881718,-0.502075,-0.0238037,0.0750122,0.861206
1480626329896757,-0.501709,-0.0237427,0.0751343,0.861389
1480626329919319,-0.502197,-0.0238037,0.0751343,0.861145
1480626329941878,-0.502563,-0.0237427,0.0750122,0.860901
1480626329964939,-0.50238,-0.0236816,0.0748901,0.861023
1480626329979478,-0.502258,-0.0238037,0.074646,0.861145
1480626330002039,-0.502441,-0.0240479,0.0745239,0.861084
1480626330018080,-0.501892,-0.024292,0.074585,0.861328
1480626330053174,-0.500244,-0.024353,0.0744019,0.862366
1480626330061697,-0.499207,-0.024231,0.0744019,0.862915
1480626330084256,-0.499207,-0.0245361,0.0740967,0.862915
1480626330099801,-0.499268,-0.0250244,0.0736694,0.862915
1480626330122859,-0.498657,-0.0250854,0.0736084,0.863281
1480626330135894,-0.499207,-0.0244141,0.0734863,0.863037
1480626330167481,-0.499695,-0.0247803,0.0739136,0.862671
1480626330181515,-0.499451,-0.0252075,0.0736084,0.862793
1480626330196054,-0.499268,-0.0255737,0.0733032,0.862976
1480626330219115,-0.49939,-0.0258179,0.0732422,0.862854
1480626330242178,-0.499817,-0.026001,0.0733032,0.86261
1480626330256214,-0.499878,-0.026001,0.0733032,0.86261
1480626330279276,-0.499817,-0.026123,0.0734253,0.86261
1480626330302338,-0.499695,-0.0262451,0.0736084,0.862671
1480626330324395,-0.499329,-0.0264282,0.0736694,0.862854
1480626330339437,-0.498657,-0.0265503,0.0736084,0.86322
1480626330361995,-0.49823,-0.0266113,0.0736694,0.863464
1480626330383055,-0.49823,-0.0266113,0.0736084,0.863525
1480626330399095,-0.49823,-0.0266724,0.0736084,0.863525
1480626330422657,-0.498291,-0.0264893,0.0734253,0.863464
1480626330442710,-0.498413,-0.0263672,0.0732422,0.863464
1480626330460258,-0.498657,-0.0262451,0.072998,0.863342
1480626330481815,-0.498962,-0.0261841,0.0727539,0.863159
1480626330502871,-0.499023,-0.026001,0.0725098,0.863159
1480626330519915,-0.498962,-0.0259399,0.0722656,0.863159
1480626330541975,-0.499268,-0.026001,0.0720215,0.863037
1480626330570550,-0.499268,-0.026001,0.0720215,0.863037
1480626330580076,-0.499146,-0.026062,0.0718994,0.863159
1480626330609655,-0.498657,-0.026062,0.0717773,0.863403
1480626330630210,-0.498169,-0.026001,0.0718384,0.863708
1480626330639234,-0.497986,-0.026001,0.0718384,0.863831
1480626330661793,-0.497742,-0.026123,0.0717773,0.863953
1480626330690368,-0.497559,-0.026123,0.0717773,0.864014
1480626330700396,-0.497375,-0.0261841,0.0718384,0.864136
1480626330722454,-0.496948,-0.0261841,0.0719604,0.86438
1480626330743011,-0.496643,-0.0262451,0.0720825,0.864563
1480626330759553,-0.496277,-0.0262451,0.0721436,0.864746
1480626330782615,-0.496277,-0.0262451,0.0721436,0.864746
1480626330802668,-0.496277,-0.0262451,0.0721436,0.864746
1480626330826731,-0.496155,-0.0263062,0.0723877,0.864807
1480626330841772,-0.495728,-0.0264282,0.0725708,0.865051
1480626330864332,-0.494934,-0.0265503,0.0726929,0.865479
1480626330879874,-0.494446,-0.0266724,0.0727539,0.865723
1480626330903940,-0.494446,-0.0266724,0.0727539,0.865723
1480626330924493,-0.494385,-0.0266724,0.0727539,0.865784
1480626330939532,-0.494263,-0.0269165,0.0727539,0.865845
1480626330961591,-0.493774,-0.0271606,0.0726318,0.866089
1480626331000695,-0.493958,-0.0273438,0.0725098,0.865967
1480626331005207,-0.494507,-0.0275269,0.0725098,0.865662
1480626331028770,-0.495117,-0.0275269,0.0726929,0.865356
1480626331044310,-0.495239,-0.0274048,0.0728149,0.865234
1480626331058849,-0.4953,-0.0274048,0.0728149,0.865234
1480626331081912,-0.4953,-0.0274048,0.0728149,0.865234
1480626331104472,-0.495178,-0.0274658,0.072876,0.865295
1480626331118508,-0.49469,-0.0276489,0.072876,0.86554
1480626331142071,-0.494141,-0.027771,0.0728149,0.865845
1480626331164130,-0.494141,-0.027771,0.0728149,0.865845
1480626331186189,-0.494385,-0.027771,0.072937,0.865723
1480626331201730,-0.494568,-0.0276489,0.0731201,0.865601
1480626331224791,-0.494568,-0.0275879,0.0731201,0.865601
1480626331238829,-0.494568,-0.0275879,0.0731201,0.865601
1480626331269410,-0.49469,-0.0276489,0.0731812,0.86554
1480626331284450,-0.494751,-0.02771,0.0731812,0.865479
1480626331305506,-0.494934,-0.027832,0.0731201,0.865356
1480626331329570,-0.495056,-0.027832,0.0730591,0.865295
1480626331351628,-0.495361,-0.0278931,0.0731201,0.865112
1480626331366168,-0.495361,-0.0278931,0.0730591,0.865112
1480626331381709,-0.495422,-0.0278931,0.0730591,0.865112
1480626331404269,-0.495422,-0.0278931,0.0730591,0.865112
1480626331425826,-0.495422,-0.0278931,0.0730591,0.865112
1480626331441870,-0.495422,-0.0278931,0.0731201,0.865112
1480626331464428,-0.495422,-0.0278931,0.0730591,0.865112
1480626331485485,-0.495422,-0.0278931,0.0730591,0.865112
1480626331502530,-0.495361,-0.0279541,0.0730591,0.865112
1480626331524589,-0.495361,-0.0279541,0.0730591,0.865173
1480626331546647,-0.495605,-0.0279541,0.0730591,0.86499
1480626331561687,-0.495605,-0.0279541,0.0730591,0.86499
1480626331584250,-0.49585,-0.0278931,0.0730591,0.864868
1480626331606807,-0.495911,-0.0278931,0.0730591,0.864868
1480626331636888,-0.495911,-0.0278931,0.0730591,0.864807
1480626331644407,-0.495911,-0.0278931,0.0730591,0.864807
1480626331665967,-0.495667,-0.027832,0.0730591,0.864929
1480626331682008,-0.495667,-0.0278931,0.0730591,0.86499
1480626331711586,-0.495728,-0.0279541,0.0730591,0.864929
1480626331725122,-0.495911,-0.0279541,0.072998,0.864868
1480626331742167,-0.496155,-0.0279541,0.072937,0.864685
1480626331764226,-0.496216,-0.0279541,0.072937,0.864685
1480626331787789,-0.496216,-0.0279541,0.072937,0.864685
1480626331801826,-0.496216,-0.0279541,0.072937,0.864624
1480626331825890,-0.496216,-0.0279541,0.072937,0.864624
1480626331846444,-0.496216,-0.0279541,0.072937,0.864624
1480626331861986,-0.496033,-0.0279541,0.072937,0.864746
1480626331892065,-0.496033,-0.0279541,0.072937,0.864746
1480626331914124,-0.496033,-0.0280151,0.072937,0.864746
1480626331921645,-0.496033,-0.0280151,0.072937,0.864746
1480626331944205,-0.496094,-0.0280151,0.072937,0.864746
1480626331966765,-0.496094,-0.0280151,0.072937,0.864746
1480626331989826,-0.496094,-0.0279541,0.072937,0.864746
1480626332005368,-0.496155,-0.0279541,0.072937,0.864685
1480626332026925,-0.496155,-0.0279541,0.072937,0.864685
1480626332040962,-0.496155,-0.0279541,0.072937,0.864685
1480626332070541,-0.496094,-0.0279541,0.072937,0.864746
1480626332086583,-0.496094,-0.0279541,0.072937,0.864746
1480626332101624,-0.496094,-0.0280151,0.072937,0.864746
1480626332139223,-0.496094,-0.0280151,0.072937,0.864746
1480626332147245,-0.496155,-0.0279541,0.072937,0.864685
1480626332170808,-0.496155,-0.0279541,0.072937,0.864685
1480626332191362,-0.496155,-0.0279541,0.072937,0.864685
1480626332222946,-0.496216,-0.0279541,0.072937,0.864685
1480626332227960,-0.496155,-0.0279541,0.072937,0.864685
1480626332244503,-0.496155,-0.0279541,0.072937,0.864685
1480626332267064,-0.496155,-0.0280151,0.072937,0.864685
1480626332288119,-0.496155,-0.0280151,0.072937,0.864685
1480626332304668,-0.496155,-0.0280151,0.072937,0.864685
1480626332326723,-0.496033,-0.0279541,0.072937,0.864807
1480626332349283,-0.496033,-0.0279541,0.072937,0.864746
1480626332364322,-0.496033,-0.0279541,0.072937,0.864746
1480626332386883,-0.496033,-0.0279541,0.072937,0.864746
1480626332409443,-0.496033,-0.0279541,0.072937,0.864746
1480626332424983,-0.496033,-0.0279541,0.072937,0.864746
1480626332447042,-0.496033,-0.0279541,0.072937,0.864746
1480626332477625,-0.49585,-0.0278931,0.072998,0.864868
1480626332498179,-0.495667,-0.0280151,0.072937,0.86499
1480626332506700,-0.495667,-0.0280151,0.072937,0.86499
1480626332527758,-0.495728,-0.0280151,0.072937,0.864929
1480626332544802,-0.495728,-0.0280151,0.072937,0.864929
1480626332567865,-0.495728,-0.0279541,0.072937,0.864929
1480626332594937,-0.495728,-0.0279541,0.072937,0.864929
1480626332606968,-0.495728,-0.0280151,0.072937,0.864929
1480626332627021,-0.495728,-0.0280151,0.072937,0.864929
1480626332655597,-0.495728,-0.0280151,0.072937,0.864929
1480626332664120,-0.495483,-0.0279541,0.072998,0.865051
1480626332694200,-0.495483,-0.0279541,0.072998,0.865051
1480626332724781,-0.495544,-0.0279541,0.072998,0.865051
1480626332727288,-0.495544,-0.0279541,0.072998,0.865051
1480626332752868,-0.495544,-0.0278931,0.072998,0.865051
1480626332776920,-0.495544,-0.0279541,0.072998,0.865051
1480626332784441,-0.495544,-0.0278931,0.072998,0.865051
1480626332807001,-0.495544,-0.0278931,0.072998,0.865051
1480626332829058,-0.495544,-0.0279541,0.072998,0.865051
1480626332845102,-0.495483,-0.0279541,0.072998,0.865051
1480626332866661,-0.495544,-0.0279541,0.072998,0.865051
1480626332889219,-0.495544,-0.0279541,0.072998,0.865051
1480626332903757,-0.495605,-0.0279541,0.072998,0.865051
1480626332934841,-0.495605,-0.0279541,0.072998,0.865051
1480626332949384,-0.495605,-0.0279541,0.072998,0.865051
1480626332971941,-0.495605,-0.0279541,0.072998,0.865051
1480626333000515,-0.495544,-0.0279541,0.072998,0.865051
1480626333033102,-0.495544,-0.0279541,0.072998,0.865051
1480626333037613,-0.495544,-0.0279541,0.072998,0.865051
1480626333052653,-0.495544,-0.0279541,0.072998,0.865051
1480626333076718,-0.495544,-0.0279541,0.072998,0.865051
1480626333083738,-0.495605,-0.0279541,0.072998,0.86499
1480626333106798,-0.495605,-0.0279541,0.072998,0.86499
1480626333136878,-0.495605,-0.0279541,0.072998,0.86499
1480626333143896,-0.495605,-0.0279541,0.072998,0.86499
1480626333166958,-0.495361,-0.0279541,0.072937,0.865112
1480626333189518,-0.495117,-0.0279541,0.072876,0.865295
1480626333211576,-0.494873,-0.0280151,0.0728149,0.865417
1480626333227118,-0.49469,-0.0280762,0.0727539,0.86554
1480626333249177,-0.49469,-0.0280762,0.0727539,0.86554
1480626333272739,-0.49469,-0.0280762,0.0727539,0.86554
1480626333294297,-0.49469,-0.0280762,0.0727539,0.86554
1480626333309838,-0.494751,-0.0280762,0.0727539,0.86554
1480626333330392,-0.494751,-0.0280762,0.0727539,0.86554
1480626333354456,-0.49469,-0.0280762,0.0727539,0.86554
1480626333377518,-0.49469,-0.0280762,0.0727539,0.86554
1480626333390553,-0.49469,-0.0280762,0.0727539,0.86554
1480626333406598,-0.49469,-0.0280762,0.0727539,0.86554
1480626333429656,-0.49469,-0.0280762,0.0727539,0.86554
1480626333457731,-0.494751,-0.0280762,0.0728149,0.86554
1480626333466755,-0.494751,-0.0280151,0.0728149,0.865479
1480626333495331,-0.49469,-0.0280151,0.072876,0.86554
1480626333510371,-0.494507,-0.0280151,0.072937,0.865662
1480626333527417,-0.494507,-0.0279541,0.072937,0.865662
1480626333549479,-0.494263,-0.0280151,0.072937,0.865784
1480626333572036,-0.493958,-0.0281372,0.072937,0.865906
1480626333587075,-0.493591,-0.0284424,0.072998,0.86615
1480626333609134,-0.492798,-0.0286255,0.0727539,0.866577
1480626333630191,-0.493103,-0.0284424,0.0726929,0.866455
1480626333661774,-0.494019,-0.0283813,0.0726929,0.865906
1480626333669796,-0.494507,-0.0281372,0.0728149,0.865601
1480626333691854,-0.494324,-0.0279541,0.072937,0.865723
1480626333706894,-0.494019,-0.0278931,0.072998,0.865906
1480626333729955,-0.493958,-0.0278931,0.072998,0.865906
1480626333752014,-0.494019,-0.027832,0.0731201,0.865906
1480626333774575,-0.494263,-0.027771,0.0733032,0.865784
1480626333804153,-0.494263,-0.027771,0.0733032,0.865784
1480626333827214,-0.493835,-0.027832,0.0731812,0.866028
1480626333834736,-0.493591,-0.027832,0.0731201,0.86615
1480626333857294,-0.493591,-0.027832,0.0731201,0.86615
1480626333872335,-0.493652,-0.027832,0.0731201,0.86615
1480626333885870,-0.493652,-0.027832,0.0731201,0.86615
1480626333909934,-0.493591,-0.027832,0.0731201,0.86615
1480626333932504,-0.493591,-0.027832,0.0731201,0.86615
1480626333946031,-0.493591,-0.0278931,0.0731201,0.86615
1480626333969092,-0.493591,-0.0278931,0.0731201,0.86615
1480626333991651,-0.493591,-0.0278931,0.0731201,0.86615
1480626334020227,-0.493591,-0.0278931,0.0731201,0.86615
1480626334030755,-0.49353,-0.0279541,0.0731201,0.866211
1480626334051811,-0.493408,-0.0280151,0.072998,0.866272
1480626334080389,-0.493408,-0.0279541,0.0730591,0.866272
1480626334089412,-0.49353,-0.0280762,0.072998,0.866211
1480626334111972,-0.49353,-0.0280762,0.072998,0.866211
1480626334126511,-0.49353,-0.0280762,0.072998,0.866211
1480626334155587,-0.493469,-0.0280762,0.072998,0.866211
1480626334171633,-0.49353,-0.0280762,0.072998,0.866211
1480626334193188,-0.49353,-0.0280762,0.072998,0.866211
1480626334209732,-0.49353,-0.0280762,0.072998,0.86615
1480626334232796,-0.493591,-0.0280762,0.072998,0.86615
1480626334252847,-0.493591,-0.0280762,0.072998,0.86615
1480626334268890,-0.493591,-0.0280762,0.072998,0.86615
1480626334306490,-0.493591,-0.0280762,0.072998,0.86615
1480626334330052,-0.493225,-0.0280762,0.0733032,0.866333
1480626334332561,-0.492554,-0.0279541,0.0731812,0.866699
1480626334351609,-0.493164,-0.0280151,0.0731201,0.866394
1480626334380687,-0.493225,-0.0280762,0.0731201,0.866333
1480626334389211,-0.492981,-0.0280151,0.0731812,0.866516
1480626334411770,-0.492554,-0.0279541,0.0731201,0.866699
1480626334432825,-0.49292,-0.0279541,0.0732422,0.866516
1480626334455385,-0.49292,-0.0279541,0.0732422,0.866516
1480626334471930,-0.49292,-0.0279541,0.0732422,0.866516
1480626334494992,-0.493042,-0.0279541,0.0732422,0.866455
1480626334509529,-0.493164,-0.0279541,0.0730591,0.866394
1480626334531588,-0.493652,-0.027771,0.0730591,0.86615
1480626334553145,-0.494202,-0.02771,0.0730591,0.865845
1480626334576207,-0.494507,-0.0275879,0.072998,0.865662
1480626334607791,-0.494568,-0.0275879,0.0730591,0.865601
1480626334614810,-0.494568,-0.0275269,0.0730591,0.865601
1480626334629348,-0.494629,-0.0275269,0.0730591,0.865601
1480626334651909,-0.494324,-0.0275879,0.072998,0.865723
1480626334681989,-0.494324,-0.0275879,0.072998,0.865723
1480626334690009,-0.494324,-0.0276489,0.072998,0.865784
1480626334712068,-0.494324,-0.0276489,0.072998,0.865784
1480626334741647,-0.494324,-0.0276489,0.072998,0.865723
1480626334749168,-0.494385,-0.0276489,0.072998,0.865723
1480626334771727,-0.494385,-0.0276489,0.072998,0.865723
1480626334801807,-0.494385,-0.0276489,0.072998,0.865723
1480626334808826,-0.494385,-0.0276489,0.072998,0.865723
1480626334832391,-0.494385,-0.0276489,0.072998,0.865723
1480626334862468,-0.494385,-0.0276489,0.072998,0.865723
1480626334884527,-0.494263,-0.027832,0.0730591,0.865784
1480626334891546,-0.493835,-0.0279541,0.0731201,0.865967
1480626334915109,-0.493164,-0.0280762,0.0732422,0.866394
1480626334935162,-0.492615,-0.0281372,0.072937,0.866699
1480626334959226,-0.49353,-0.0283203,0.0728149,0.866211
1480626334974266,-0.493774,-0.0286255,0.072876,0.866028
1480626334988807,-0.493347,-0.0285645,0.072937,0.866272
1480626335011867,-0.492615,-0.0285645,0.072937,0.866699
1480626335034927,-0.492554,-0.0286255,0.072876,0.866699
1480626335056986,-0.492798,-0.0285034,0.072998,0.866577
1480626335071525,-0.492859,-0.0282593,0.072998,0.866577
1480626335109125,-0.492859,-0.0282593,0.072998,0.866577
1480626335112635,-0.492859,-0.0282593,0.072998,0.866577
1480626335132687,-0.492859,-0.0282593,0.072998,0.866577
1480626335154244,-0.492737,-0.0281982,0.0730591,0.866638
1480626335175300,-0.492432,-0.0281372,0.0731201,0.866821
1480626335191845,-0.492432,-0.0281372,0.0731812,0.866821
1480626335214405,-0.492371,-0.0280762,0.0731812,0.866821
1480626335236966,-0.492371,-0.0281372,0.0731812,0.866821
1480626335258020,-0.492371,-0.0281372,0.0731812,0.866821
1480626335274063,-0.492371,-0.0281372,0.0731201,0.866821
1480626335295119,-0.492615,-0.0280762,0.0732422,0.866699
1480626335302640,-0.492615,-0.0280762,0.0732422,0.866699
1480626335317178,-0.492676,-0.0280762,0.0732422,0.866638
1480626335347257,-0.492615,-0.0280762,0.0733032,0.866699
1480626335362298,-0.492432,-0.0281372,0.0733032,0.86676
1480626335378843,-0.492432,-0.0281372,0.0733032,0.86676
1480626335407418,-0.492432,-0.0281372,0.0733032,0.86676
1480626335422458,-0.492065,-0.0280762,0.0734863,0.867004
1480626335437076,-0.491638,-0.0279541,0.0736084,0.867249
1480626335459557,-0.492126,-0.0283203,0.0730591,0.866943
1480626335482118,-0.492493,-0.0282593,0.072998,0.86676
1480626335497157,-0.492981,-0.027832,0.0731201,0.866516
1480626335519718,-0.493408,-0.0274048,0.0731201,0.866272
1480626335542276,-0.493713,-0.0270386,0.0733032,0.866089
1480626335558820,-0.493591,-0.0269775,0.0733643,0.86615
1480626335579877,-0.493103,-0.0272217,0.0733032,0.866455
1480626335612464,-0.492554,-0.0273438,0.0734253,0.866699
1480626335624495,-0.49231,-0.0273438,0.0734253,0.866882
1480626335639537,-0.492493,-0.0273438,0.0733643,0.86676
1480626335679141,-0.493103,-0.0272217,0.0734253,0.866455
1480626335681648,-0.493652,-0.0269775,0.0735474,0.86615
1480626335700699,-0.493652,-0.0267334,0.0737305,0.866089
1480626335722255,-0.493469,-0.0264893,0.0738525,0.866211
1480626335737296,-0.493896,-0.0261841,0.0742798,0.865967
1480626335759855,-0.493469,-0.026123,0.074585,0.86615
1480626335799461,-0.492798,-0.026123,0.0747681,0.866516
1480626335801969,-0.492188,-0.0261841,0.0750122,0.866821
1480626335821019,-0.492126,-0.0261841,0.0753174,0.866821
1480626335842074,-0.49231,-0.0262451,0.0755615,0.866699
1480626335859120,-0.49231,-0.0262451,0.0755615,0.866699
1480626335888698,-0.492371,-0.0261841,0.0755615,0.866699
1480626335912262,-0.492432,-0.0262451,0.0759277,0.866638
1480626335917275,-0.492371,-0.0264893,0.0761108,0.866638
1480626335939835,-0.492188,-0.0266113,0.0762939,0.86676
1480626335962394,-0.491821,-0.0269165,0.076355,0.866882
1480626335978437,-0.491394,-0.0274048,0.0762939,0.867126
1480626336007014,-0.490784,-0.0276489,0.0762939,0.867493
1480626336023557,-0.490356,-0.027832,0.076355,0.867737
1480626336038597,-0.490051,-0.0281982,0.0761719,0.867859
1480626336059653,-0.489868,-0.0282593,0.0760498,0.867981
1480626336082217,-0.489929,-0.0282593,0.0760498,0.867981
1480626336098761,-0.489929,-0.0282593,0.0760498,0.867981
1480626336135856,-0.489929,-0.0282593,0.0760498,0.867981
1480626336166938,-0.489502,-0.0285034,0.0758057,0.868225
1480626336168944,-0.489258,-0.0288086,0.0756836,0.868347
1480626336187494,-0.489014,-0.0291748,0.0755615,0.86853
1480626336202034,-0.488831,-0.0292969,0.0755005,0.868591
1480626336218580,-0.488586,-0.0293579,0.0753784,0.868713
1480626336239631,-0.488586,-0.0293579,0.0753784,0.868713
1480626336262192,-0.488647,-0.0292969,0.0753784,0.868713
1480626336278736,-0.488647,-0.0293579,0.0753784,0.868713
1480626336299796,-0.488647,-0.0293579,0.0753784,0.868713
1480626336325360,-0.488342,-0.0293579,0.0754395,0.868835
1480626336338395,-0.487976,-0.0293579,0.0753784,0.86908
1480626336359450,-0.48761,-0.02948,0.0752563,0.869263
1480626336383515,-0.487366,-0.0296021,0.0751953,0.869446
1480626336404571,-0.487366,-0.0296021,0.0751953,0.869446
1480626336427130,-0.487427,-0.0296021,0.0751953,0.869446
1480626336443675,-0.487427,-0.0296021,0.0751953,0.869385
1480626336460219,-0.487427,-0.0296021,0.0751953,0.869385
1480626336479773,-0.487732,-0.029541,0.0751953,0.869202
1480626336502331,-0.487732,-0.029541,0.0751953,0.869202
1480626336520880,-0.487732,-0.029541,0.0751953,0.869202
1480626336539931,-0.487732,-0.029541,0.0751953,0.869263
1480626336561990,-0.487732,-0.029541,0.0751953,0.869263
1480626336580039,-0.487549,-0.029541,0.0752563,0.869324
1480626336603100,-0.487549,-0.029541,0.0752563,0.869324
1480626336631175,-0.487549,-0.029541,0.0752563,0.869324
1480626336646213,-0.48761,-0.029541,0.0752563,0.869324
1480626336662758,-0.48761,-0.029541,0.0752563,0.869324
1480626336692838,-0.487732,-0.02948,0.0752563,0.869202
1480626336708381,-0.487976,-0.0294189,0.0752563,0.86908
1480626336720913,-0.487976,-0.0294189,0.0752563,0.86908
1480626336742472,-0.487976,-0.0294189,0.0752563,0.86908
1480626336764529,-0.488037,-0.0294189,0.0752563,0.86908
1480626336787088,-0.488037,-0.0294189,0.0752563,0.86908
1480626336802630,-0.488037,-0.0294189,0.0752563,0.86908
1480626336824688,-0.488098,-0.0294189,0.0752563,0.869019
1480626336839731,-0.488098,-0.0294189,0.0752563,0.869019
1480626336862288,-0.488342,-0.02948,0.0751343,0.868896
1480626336884848,-0.488586,-0.0296021,0.0751343,0.868774
1480626336915935,-0.488586,-0.0296021,0.0751343,0.868713
1480626336922449,-0.488647,-0.0296631,0.0750732,0.868713
1480626336944507,-0.488647,-0.0296631,0.0750732,0.868713
1480626336970076,-0.488647,-0.0296631,0.0750732,0.868713
1480626336983612,-0.488708,-0.0296631,0.0751343,0.868713
1480626337007175,-0.488708,-0.0296021,0.0751343,0.868713
1480626337021212,-0.48877,-0.0296021,0.0751343,0.868652
1480626337042267,-0.48877,-0.0296021,0.0751343,0.868652
1480626337064828,-0.48877,-0.0296021,0.0751343,0.868652
1480626337079867,-0.48877,-0.0296021,0.0751343,0.868652
1480626337102428,-0.48877,-0.0296631,0.0751343,0.868652
1480626337133010,-0.48877,-0.0296021,0.0751343,0.868652
1480626337141031,-0.488464,-0.0296021,0.0750732,0.868835
1480626337162086,-0.488403,-0.0292969,0.0750732,0.868896
1480626337192669,-0.488953,-0.0291748,0.0750732,0.868591
1480626337201192,-0.489258,-0.0288696,0.0751343,0.868408
1480626337246812,-0.489624,-0.0286865,0.0753174,0.868164
1480626337249320,-0.489624,-0.0286865,0.0753174,0.868164
1480626337261350,-0.489319,-0.0286255,0.0754395,0.868347
1480626337282409,-0.489319,-0.0286255,0.0754395,0.868347
1480626337304464,-0.489319,-0.0286865,0.0754395,0.868347
1480626337321009,-0.489319,-0.0286865,0.0754395,0.868347
1480626337342065,-0.489685,-0.0286255,0.0755005,0.868164
1480626337364631,-0.490051,-0.0285645,0.0755005,0.86792
1480626337381170,-0.490051,-0.0285645,0.0755615,0.86792
1480626337403730,-0.489807,-0.0285645,0.0753784,0.868103
1480626337424785,-0.489807,-0.0285645,0.0753784,0.868103
1480626337441329,-0.489929,-0.0286865,0.0753174,0.868042
1480626337462386,-0.489929,-0.0286865,0.0753174,0.868042
1480626337485947,-0.489929,-0.0286865,0.0753174,0.868042
1480626337510012,-0.490173,-0.0285645,0.0753784,0.867859
1480626337522043,-0.490173,-0.0285645,0.0753784,0.867859
1480626337544604,-0.490234,-0.0285645,0.0753784,0.867859
1480626337563153,-0.48999,-0.0288086,0.0751343,0.867981
1480626337582205,-0.489685,-0.0289307,0.0749512,0.868164
1480626337604764,-0.489441,-0.0289307,0.0748901,0.868347
1480626337635847,-0.489014,-0.0286865,0.0748291,0.868591
1480626337642364,-0.488892,-0.0284424,0.0748291,0.868652
1480626337664925,-0.48938,-0.0283813,0.0748291,0.868408
1480626337682976,-0.489746,-0.0284424,0.0747681,0.868164
1480626337702524,-0.489807,-0.0284424,0.0747681,0.868164
1480626337732104,-0.489685,-0.0285034,0.074707,0.868225
1480626337747142,-0.489685,-0.0285034,0.074707,0.868225
1480626337762182,-0.490051,-0.0283203,0.0748291,0.867981
1480626337784742,-0.490112,-0.0283203,0.0748291,0.867981
1480626337802791,-0.490112,-0.0283203,0.0748291,0.867981
1480626337829863,-0.48999,-0.0283813,0.0747681,0.868042
1480626337847410,-0.489746,-0.0283203,0.074707,0.868164
1480626337862449,-0.489502,-0.0283203,0.0747681,0.868286
1480626337889521,-0.489319,-0.0282593,0.0748291,0.868408
1480626337904562,-0.489197,-0.0281372,0.0749512,0.868469
1480626337922609,-0.489319,-0.0279541,0.0750732,0.868408
1480626337943665,-0.489502,-0.0279541,0.0753784,0.868286
1480626337968232,-0.488708,-0.027771,0.0753784,0.868713
1480626337988785,-0.489075,-0.027771,0.0751343,0.86853
1480626338002322,-0.489807,-0.0279541,0.0751343,0.868103
1480626338032403,-0.490112,-0.0281372,0.0751953,0.86792
1480626338055463,-0.490112,-0.0281372,0.0751953,0.86792
1480626338063485,-0.490112,-0.0281372,0.0751953,0.86792
1480626338084540,-0.490784,-0.0281982,0.0753174,0.867554
1480626338102590,-0.490906,-0.0285034,0.0753174,0.867432
1480626338124648,-0.490662,-0.0288696,0.0753174,0.867615
1480626338144700,-0.490234,-0.0291138,0.0754395,0.867798
1480626338167261,-0.48999,-0.0293579,0.0755005,0.86792
1480626338185309,-0.489868,-0.0296631,0.0755005,0.867981
1480626338204861,-0.489868,-0.0296631,0.0755005,0.867981
1480626338227420,-0.489807,-0.0298462,0.0756836,0.868042
1480626338243463,-0.489624,-0.0299072,0.0759277,0.868103
1480626338264519,-0.489502,-0.0299072,0.0761719,0.868164
1480626338296605,-0.489136,-0.0299072,0.0764771,0.868286
1480626338303624,-0.489075,-0.0300293,0.0768433,0.868347
1480626338324679,-0.488831,-0.0302734,0.0772095,0.868408
1480626338355761,-0.488281,-0.0304565,0.0773926,0.868713
1480626338371304,-0.487488,-0.0307617,0.0774536,0.869141
1480626338384839,-0.487061,-0.0308838,0.0775757,0.869324
1480626338407399,-0.487061,-0.0309448,0.0775757,0.869324
1480626338424946,-0.487061,-0.0309448,0.0775757,0.869324
1480626338445000,-0.487183,-0.0309448,0.0775146,0.869263
1480626338467058,-0.487549,-0.0309448,0.0773926,0.86908
1480626338485106,-0.487549,-0.0310059,0.0773926,0.86908
1480626338504658,-0.48761,-0.0309448,0.0774536,0.86908
1480626338527218,-0.48761,-0.0309448,0.0774536,0.86908
1480626338545266,-0.487549,-0.0309448,0.0772705,0.86908
1480626338574344,-0.487671,-0.0310669,0.0769653,0.869019
1480626338587378,-0.487732,-0.0311279,0.0766602,0.869019
1480626338604928,-0.488037,-0.0310059,0.0764771,0.868896
1480626338624476,-0.488464,-0.0308838,0.0762329,0.868713
1480626338656060,-0.489014,-0.0307007,0.0759888,0.868408
1480626338665085,-0.489502,-0.0303955,0.0757446,0.868164
1480626338687644,-0.490173,-0.0299683,0.0755005,0.867798
1480626338707197,-0.491089,-0.0298462,0.0756226,0.86731
1480626338725244,-0.491882,-0.0306396,0.0756836,0.866821
1480626338744798,-0.489136,-0.0306396,0.0765381,0.868286
1480626338770365,-0.487244,-0.0296021,0.0760498,0.869446
1480626338785405,-0.488708,-0.0293579,0.0758057,0.868652
1480626338805959,-0.490112,-0.02948,0.0762939,0.867798
1480626338827016,-0.488892,-0.02948,0.0762329,0.868469
1480626338845565,-0.487183,-0.0297852,0.0759277,0.869446
1480626338864616,-0.487427,-0.0303345,0.0759277,0.869324
1480626338887175,-0.488831,-0.0305176,0.0761719,0.868469
1480626338913245,-0.489685,-0.0299072,0.0769043,0.867981
1480626338926279,-0.489502,-0.0297241,0.0770264,0.868103
1480626338947335,-0.48877,-0.0300293,0.0769653,0.868469
1480626338965388,-0.488037,-0.0304565,0.0769043,0.868896
1480626338984434,-0.48761,-0.0309448,0.0767822,0.86908
1480626339014514,-0.48761,-0.0309448,0.0767212,0.86908
1480626339025042,-0.487488,-0.0308838,0.0765991,0.869202
1480626339046098,-0.487854,-0.0306396,0.0765991,0.869019
1480626339067154,-0.488281,-0.0303345,0.0766602,0.868774
1480626339085202,-0.488586,-0.0299072,0.0766602,0.868591
1480626339106262,-0.488647,-0.0299072,0.0767212,0.868591
1480626339127314,-0.488647,-0.0299072,0.0767212,0.868591
1480626339144861,-0.488403,-0.0300903,0.0767212,0.868713
1480626339171932,-0.487793,-0.0303345,0.0766602,0.86908
1480626339186973,-0.487244,-0.0306396,0.0765991,0.869385
1480626339211038,-0.486816,-0.0308228,0.0765991,0.869568
1480626339232097,-0.486877,-0.0308228,0.0765381,0.869568
1480626339247134,-0.486877,-0.0308228,0.0765381,0.869568
1480626339265186,-0.486877,-0.0308228,0.0765991,0.869568
1480626339293757,-0.486877,-0.0307617,0.0765991,0.869568
1480626339309299,-0.486877,-0.0307617,0.0765991,0.869568
1480626339325341,-0.486877,-0.0307617,0.0765991,0.869568
1480626339351911,-0.486572,-0.0309448,0.0765381,0.86969
1480626339366952,-0.486084,-0.0310059,0.0765381,0.869995
1480626339385000,-0.48584,-0.0310059,0.0765991,0.870117
1480626339407560,-0.485718,-0.0309448,0.0767212,0.870178
1480626339428615,-0.485596,-0.0309448,0.0767822,0.870239
1480626339445160,-0.485413,-0.0308838,0.0767822,0.870361
1480626339467721,-0.485413,-0.0308838,0.0767822,0.870361
1480626339487272,-0.485413,-0.0308838,0.0767822,0.870361
1480626339506323,-0.485352,-0.0309448,0.0767822,0.870361
1480626339527881,-0.485352,-0.0309448,0.0767822,0.870361
1480626339547434,-0.485291,-0.0308838,0.0767822,0.870422
1480626339564983,-0.484985,-0.0308228,0.0767822,0.870605
1480626339602579,-0.48468,-0.0307617,0.0767822,0.870789
1480626339608595,-0.484558,-0.0308228,0.0767822,0.87085
1480626339629650,-0.484436,-0.0308228,0.0768433,0.870911
1480626339647702,-0.484436,-0.0308228,0.0768433,0.870911
1480626339674771,-0.484375,-0.0308838,0.0768433,0.870911
1480626339689810,-0.484375,-0.0308838,0.0767822,0.870911
1480626339707861,-0.484375,-0.0308838,0.0767822,0.870911
1480626339727411,-0.484375,-0.0308838,0.0767822,0.870911
1480626339749973,-0.484375,-0.0308838,0.0767822,0.870911
1480626339767518,-0.484436,-0.0308838,0.0767822,0.870911
1480626339787069,-0.484436,-0.0308838,0.0767822,0.870911
1480626339813641,-0.484436,-0.0308838,0.0767822,0.87085
1480626339827677,-0.484497,-0.0308838,0.0768433,0.87085
1480626339848737,-0.484497,-0.0308838,0.0768433,0.87085
1480626339869866,-0.484436,-0.0308838,0.0767822,0.87085
1480626339894856,-0.484436,-0.0308838,0.0767822,0.870911
1480626339909896,-0.484436,-0.0308838,0.0767822,0.870911
1480626339939977,-0.484619,-0.0308838,0.0767822,0.870789
1480626339947497,-0.484619,-0.0308838,0.0767822,0.870789
1480626339968553,-0.484619,-0.0308838,0.0767822,0.870789
1480626339992617,-0.484985,-0.0308228,0.0767822,0.870544
1480626340007657,-0.485474,-0.0307617,0.0767212,0.870361
1480626340034729,-0.485474,-0.0307007,0.0767822,0.870361
1480626340049768,-0.485535,-0.0306396,0.0766602,0.8703
1480626340080350,-0.485779,-0.0306396,0.0765381,0.870178
1480626340088872,-0.486206,-0.0305176,0.0764771,0.869934
1480626340126973,-0.486572,-0.0302734,0.0764771,0.869751
1480626340129481,-0.486877,-0.0300903,0.0762939,0.869568
1480626340148536,-0.487244,-0.0298462,0.0761719,0.869385
1480626340170591,-0.487732,-0.0296021,0.0761719,0.869141
1480626340187637,-0.48822,-0.0294189,0.0761108,0.868896
1480626340210195,-0.488464,-0.0291138,0.0761108,0.868774
1480626340240276,-0.488708,-0.0288696,0.0761719,0.868591
1480626340247795,-0.488953,-0.0288086,0.0762329,0.868469
1480626340268851,-0.488953,-0.0288696,0.0762329,0.868469
1480626340292414,-0.488953,-0.0288696,0.0761719,0.868469
1480626340329014,-0.488953,-0.0288696,0.0762329,0.868469
1480626340331536,-0.48877,-0.0289307,0.0762329,0.868591
1480626340353075,-0.488647,-0.0290527,0.076355,0.868652
1480626340373630,-0.488525,-0.0292969,0.076355,0.868713
1480626340390174,-0.488403,-0.0294189,0.076355,0.868774
1480626340409726,-0.488281,-0.029541,0.0764771,0.868835
1480626340427774,-0.487915,-0.0298462,0.076416,0.869019
1480626340463369,-0.487488,-0.0302124,0.0765381,0.869202
1480626340469886,-0.486389,-0.0307007,0.0767822,0.869812
1480626340493449,-0.484924,-0.0308838,0.0762329,0.870667
1480626340510494,-0.485962,-0.0310669,0.0756836,0.870117
1480626340531053,-0.487366,-0.0309448,0.0758667,0.869324
1480626340547599,-0.487732,-0.0307007,0.0761108,0.86908
1480626340570154,-0.486816,-0.0303955,0.0762329,0.869629
1480626340592713,-0.486389,-0.0302124,0.0764771,0.869873
1480626340607754,-0.486328,-0.0302124,0.0764771,0.869873
1480626340630314,-0.486511,-0.0302124,0.076416,0.869812
1480626340657385,-0.486938,-0.0302124,0.076355,0.869568
1480626340668415,-0.487244,-0.0301514,0.076355,0.869385
1480626340690974,-0.487305,-0.0301514,0.076355,0.869324
1480626340709523,-0.487061,-0.0303345,0.076416,0.869446
1480626340727572,-0.486511,-0.0304565,0.076416,0.869751
1480626340750633,-0.486084,-0.0304565,0.0764771,0.869995
1480626340771198,-0.486084,-0.0304565,0.0764771,0.869995
1480626340792245,-0.486084,-0.0304565,0.0764771,0.869995
1480626340810794,-0.485962,-0.0304565,0.0764771,0.870056
1480626340829844,-0.485962,-0.0304565,0.0764771,0.870056
1480626340853407,-0.48584,-0.0303955,0.0765991,0.870178
1480626340869951,-0.48584,-0.0303955,0.0765991,0.870178
1480626340889502,-0.48584,-0.0303955,0.0765991,0.870117
1480626340908552,-0.48584,-0.0303955,0.0765991,0.870117
1480626340930113,-0.48584,-0.0303345,0.0765991,0.870117
1480626340951167,-0.48584,-0.0303345,0.0765991,0.870178
1480626340967712,-0.486084,-0.0301514,0.0765991,0.869995
1480626340994783,-0.486511,-0.0299683,0.0767212,0.869812
1480626341017342,-0.486816,-0.0298462,0.0767212,0.869629
1480626341027369,-0.486816,-0.0298462,0.0767212,0.869568
1480626341049929,-0.486694,-0.0299683,0.0769043,0.869629
1480626341072489,-0.485901,-0.0300293,0.0770874,0.870056
1480626341087529,-0.485901,-0.0299683,0.0770874,0.870056
1480626341116105,-0.485901,-0.0299683,0.0770874,0.870056
1480626341132649,-0.485962,-0.0299683,0.0770874,0.870056
1480626341153704,-0.485962,-0.0299683,0.0770874,0.870056
1480626341170249,-0.486084,-0.0298462,0.0770264,0.869995
1480626341191306,-0.486328,-0.0297241,0.0770874,0.869873
1480626341212863,-0.486572,-0.0296631,0.0770874,0.86969
1480626341237429,-0.486572,-0.0296021,0.0770874,0.86969
1480626341250964,-0.486633,-0.0296021,0.0770874,0.86969
1480626341272021,-0.48645,-0.0297852,0.0771484,0.869751
1480626341290068,-0.486084,-0.0298462,0.0773926,0.869934
1480626341312633,-0.485474,-0.0298462,0.0775146,0.8703
1480626341332182,-0.485413,-0.0298462,0.0775146,0.8703
1480626341350730,-0.485474,-0.0299683,0.0773926,0.8703
1480626341372791,-0.485657,-0.0299683,0.0773315,0.870178
1480626341399861,-0.485901,-0.0300293,0.0772705,0.870056
1480626341409887,-0.485901,-0.0300293,0.0772705,0.870056
1480626341439967,-0.485901,-0.0300293,0.0772705,0.870056
1480626341451999,-0.485901,-0.0301514,0.0772095,0.870056
1480626341470048,-0.485718,-0.0303345,0.0772095,0.870178
1480626341492607,-0.485291,-0.0302124,0.0775146,0.870361
1480626341512158,-0.484863,-0.0299683,0.0777588,0.870605
1480626341530207,-0.484802,-0.0299683,0.0777588,0.870605
1480626341558783,-0.484802,-0.0299683,0.0777588,0.870605
1480626341579839,-0.484985,-0.0299072,0.0778198,0.870544
1480626341603904,-0.485168,-0.0297241,0.0778809,0.870422
1480626341627967,-0.485168,-0.0297241,0.0778809,0.870422
1480626341631982,-0.485168,-0.0297241,0.0778809,0.870422
1480626341650026,-0.485229,-0.0297241,0.0777588,0.870361
1480626341672585,-0.485413,-0.0299072,0.0776367,0.8703
1480626341699657,-0.485352,-0.0299683,0.0776978,0.870361
1480626341710688,-0.484985,-0.0300293,0.0776978,0.870544
1480626341732746,-0.484924,-0.0300293,0.0776978,0.870544
