timestamp,x,y,z
1480510090081687,-0.227539,-0.971191,0.166992
1480510090107255,-0.217285,-0.956543,0.15918
1480510090120791,-0.227051,-0.984375,0.156738
1480510090141847,-0.226074,-0.972168,0.161621
1480510090166414,-0.218262,-0.958008,0.165039
1480510090180450,-0.222656,-0.972168,0.164063
1480510090232588,-0.22168,-0.964355,0.160156
1480510090233090,-0.220215,-0.956543,0.161133
1480510090239105,-0.224121,-0.981934,0.157715
1480510090261666,-0.220703,-0.961914,0.155762
1480510090284229,-0.211914,-0.958984,0.157227
1480510090306787,-0.224121,-0.97998,0.157715
1480510090329346,-0.217285,-0.961914,0.157715
1480510090344386,-0.212891,-0.959473,0.155273
1480510090366946,-0.223633,-0.979004,0.160156
1480510090389509,-0.219238,-0.956055,0.158691
1480510090411565,-0.224121,-0.958008,0.161133
1480510090426605,-0.225098,-0.977539,0.156738
1480510090449165,-0.219238,-0.962891,0.154297
1480510090464206,-0.212891,-0.973633,0.154785
1480510090486764,-0.227539,-0.980469,0.159668
1480510090509324,-0.222656,-0.961426,0.165527
1480510090524365,-0.223145,-0.967285,0.161621
1480510090546924,-0.22998,-0.986816,0.161133
1480510090568983,-0.225586,-0.961426,0.139648
1480510090584024,-0.225586,-0.949219,0.151367
1480510090606584,-0.220215,-0.979492,0.125977
1480510090629145,-0.212891,-0.96582,0.14209
1480510090644183,-0.213867,-0.968262,0.144531
1480510090666743,-0.204102,-0.981445,0.154297
1480510090692311,-0.214355,-0.938965,0.152344
1480510090704343,-0.22168,-0.96875,0.14502
1480510090726903,-0.220215,-0.988281,0.148438
1480510090756984,-0.205566,-0.95459,0.148926
1480510090767010,-0.212402,-0.960938,0.154297
1480510090786562,-0.216797,-0.98291,0.149902
1480510090809122,-0.200684,-0.967285,0.158691
1480510090824162,-0.203613,-0.972656,0.145508
1480510090846722,-0.218262,-0.987793,0.145508
1480510090869282,-0.225586,-0.958984,0.147461
1480510090891842,-0.228516,-0.981934,0.136719
1480510090909388,-0.246094,-0.976563,0.131836
1480510090928940,-0.246582,-0.956055,0.118164
1480510090951502,-0.244141,-0.969727,0.118652
1480510090968044,-0.239258,-0.965332,0.119141
1480510090989101,-0.224609,-0.96582,0.108887
1480510091011661,-0.216797,-0.992676,0.129883
1480510091026701,-0.199219,-0.999512,0.131836
1480510091049263,-0.195313,-0.987793,0.146973
1480510091071826,-0.202148,-1.01904,0.149902
1480510091086866,-0.20459,-1.00439,0.163086
1480510091108924,-0.216797,-0.959961,0.156738
1480510091131485,-0.23584,-0.971191,0.151855
1480510091146524,-0.231445,-0.972168,0.15332
1480510091169085,-0.221191,-0.957031,0.152832
1480510091191644,-0.214355,-0.971191,0.161621
1480510091217213,-0.214844,-0.950684,0.180664
1480510091236764,-0.208984,-0.970215,0.161621
1480510091253308,-0.206543,-1.00098,0.167969
1480510091274364,-0.206543,-0.98291,0.15332
1480510091289405,-0.20166,-0.959961,0.152344
1480510091311463,-0.21582,-0.972656,0.145996
1480510091334025,-0.21875,-0.951172,0.145508
1480510091356583,-0.220215,-0.935547,0.145996
1480510091371624,-0.236328,-0.950684,0.144043
1480510091394184,-0.238281,-0.942383,0.14502
1480510091416744,-0.236816,-0.962402,0.141602
1480510091447826,-0.231934,-0.978027,0.139648
1480510091454344,-0.226563,-0.955078,0.13623
1480510091476401,-0.223633,-0.968262,0.132324
1480510091491442,-0.227051,-0.979492,0.139648
1480510091514002,-0.217285,-0.952637,0.140625
1480510091536562,-0.223145,-0.95752,0.137695
1480510091559122,-0.229004,-0.992188,0.137695
1480510091574162,-0.224121,-0.959961,0.143555
1480510091596722,-0.22168,-0.959961,0.152832
1480510091611762,-0.229004,-0.996582,0.152344
1480510091634322,-0.22998,-0.969727,0.158203
1480510091656882,-0.234863,-0.958008,0.164551
1480510091671922,-0.24707,-0.96582,0.159668
1480510091693981,-0.225098,-0.950195,0.170898
1480510091716541,-0.236816,-0.96875,0.158203
1480510091731581,-0.240723,-0.979004,0.15332
1480510091754147,-0.23291,-0.949219,0.15918
1480510091776701,-0.23291,-0.972656,0.156738
1480510091791749,-0.241699,-0.982422,0.15332
1480510091814317,-0.216797,-0.955566,0.146484
1480510091836860,-0.224121,-0.960938,0.144043
1480510091851402,-0.231934,-0.974121,0.144043
1480510091874460,-0.21875,-0.95752,0.147949
1480510091896519,-0.225098,-0.962891,0.152344
1480510091911559,-0.231445,-0.976563,0.142578
1480510091934120,-0.229492,-0.958008,0.149414
1480510091956679,-0.227051,-0.966797,0.154297
1480510091971719,-0.234375,-0.96875,0.145996
1480510091994280,-0.228027,-0.952637,0.155273
1480510092018345,-0.228516,-0.979004,0.148438
1480510092031882,-0.235352,-0.980957,0.151367
1480510092053943,-0.22168,-0.954102,0.149902
1480510092078002,-0.227539,-0.969727,0.154297
1480510092091538,-0.231445,-0.97168,0.152832
1480510092114098,-0.226074,-0.958984,0.150879
1480510092136658,-0.22998,-0.96875,0.151855
1480510092159218,-0.237793,-0.973633,0.144531
1480510092174262,-0.223633,-0.958008,0.157715
1480510092196822,-0.229492,-0.980469,0.157715
1480510092211858,-0.233887,-0.971191,0.150879
1480510092241436,-0.220703,-0.955566,0.151367
1480510092256477,-0.226074,-0.96875,0.145508
1480510092271519,-0.236328,-0.96875,0.150391
1480510092297085,-0.225586,-0.952148,0.145996
1480510092325661,-0.229492,-0.974121,0.144531
1480510092339198,-0.227539,-0.967773,0.145508
1480510092357245,-0.223633,-0.960449,0.151855
1480510092376797,-0.229004,-0.981445,0.149902
1480510092399357,-0.234375,-0.962402,0.149902
1480510092415400,-0.223633,-0.954102,0.146484
1480510092436456,-0.233887,-0.972656,0.145508
1480510092468040,-0.234863,-0.962402,0.148438
1480510092474056,-0.228027,-0.95459,0.148926
1480510092496616,-0.239258,-0.974121,0.158691
1480510092519177,-0.234863,-0.960449,0.145508
1480510092534215,-0.229492,-0.95752,0.146973
1480510092556776,-0.236328,-0.973145,0.143066
1480510092579335,-0.234863,-0.960449,0.141602
1480510092601896,-0.228027,-0.961914,0.143555
1480510092616936,-0.229492,-0.983887,0.144043
1480510092638995,-0.230957,-0.961914,0.144531
1480510092661554,-0.230469,-0.966309,0.150391
1480510092676594,-0.231934,-0.993652,0.144043
1480510092699154,-0.229492,-0.964844,0.142578
1480510092714194,-0.226563,-0.964355,0.142578
1480510092736754,-0.226074,-0.989258,0.145996
1480510092759314,-0.229492,-0.950684,0.144531
1480510092775357,-0.237793,-0.961426,0.146484
1480510092796414,-0.237793,-0.996094,0.143066
1480510092818973,-0.216797,-0.981445,0.164551
1480510092834013,-0.20752,-0.994141,0.174805
1480510092856573,-0.198242,-0.98877,0.174316
1480510092879133,-0.202637,-0.952637,0.155762
1480510092894173,-0.229492,-0.958496,0.142578
1480510092916733,-0.246582,-0.970703,0.126953
1480510092939294,-0.241211,-0.952148,0.126953
1480510092954333,-0.237793,-0.941895,0.134277
1480510092977903,-0.229004,-0.956055,0.136719
1480510092998952,-0.223633,-0.939941,0.144531
1480510093013992,-0.222168,-0.962891,0.157715
1480510093036552,-0.216797,-0.995605,0.158691
1480510093059113,-0.197754,-0.983887,0.149902
1480510093081672,-0.192383,-0.989258,0.161621
1480510093099720,-0.205566,-0.988281,0.165527
1480510093119272,-0.197266,-0.961914,0.160645
1480510093134311,-0.210449,-0.967773,0.153809
1480510093159379,-0.222656,-0.967773,0.145996
1480510093187955,-0.212891,-0.947754,0.150391
1480510093193971,-0.206055,-0.96875,0.162598
1480510093216532,-0.224609,-0.972656,0.173828
1480510093239091,-0.225098,-0.945801,0.17334
1480510093261651,-0.214355,-0.981445,0.16748
1480510093276691,-0.21875,-0.984375,0.157715
1480510093299251,-0.208984,-0.953125,0.152832
1480510093321812,-0.214844,-0.971191,0.152832
1480510093336851,-0.211426,-0.970703,0.154785
1480510093358909,-0.213379,-0.950684,0.154785
1480510093390493,-0.227539,-0.976074,0.157715
1480510093396514,-0.228516,-0.974121,0.15918
1480510093419070,-0.22168,-0.94873,0.164063
1480510093441629,-0.219727,-0.971191,0.162109
1480510093456670,-0.213867,-0.974609,0.15918
1480510093479229,-0.208984,-0.956055,0.166504
1480510093501789,-0.210449,-0.980469,0.150879
1480510093516830,-0.213867,-0.966797,0.151367
1480510093541896,-0.208984,-0.961426,0.141113
1480510093561449,-0.222168,-0.990723,0.148926
1480510093576488,-0.219238,-0.975098,0.15332
1480510093599048,-0.212402,-0.956055,0.160156
1480510093621614,-0.223145,-0.977051,0.166016
1480510093636648,-0.216309,-0.962402,0.164063
1480510093659208,-0.220215,-0.959961,0.156738
1480510093682270,-0.223145,-0.977051,0.159668
1480510093696808,-0.211426,-0.959961,0.158203
1480510093719368,-0.207031,-0.961426,0.15625
1480510093741928,-0.225098,-0.989746,0.163574
1480510093756471,-0.219727,-0.964355,0.166016
1480510093779028,-0.20752,-0.964844,0.162598
1480510093801587,-0.216309,-0.981445,0.158203
1480510093816627,-0.212891,-0.958008,0.155762
1480510093839187,-0.213867,-0.955566,0.166992
1480510093862248,-0.219727,-0.983887,0.163086
1480510093876791,-0.205566,-0.963867,0.16748
1480510093899347,-0.202637,-0.969727,0.169434
1480510093921908,-0.230957,-0.97998,0.172852
1480510093936447,-0.23584,-0.944824,0.177734
1480510093962013,-0.237305,-0.974121,0.160645
1480510093981565,-0.226563,-0.966309,0.155273
1480510093996606,-0.208984,-0.936523,0.148926
1480510094019166,-0.20166,-0.969238,0.144531
1480510094041726,-0.211914,-0.974121,0.142578
1480510094056770,-0.21875,-0.950684,0.147461
1480510094079329,-0.213867,-0.96875,0.161621
1480510094101387,-0.212402,-0.977539,0.175293
1480510094116428,-0.202148,-0.96582,0.17334
1480510094138988,-0.221191,-0.981934,0.181152
1480510094161548,-0.228027,-0.979004,0.166504
1480510094184109,-0.219727,-0.962402,0.166504
1480510094199147,-0.209961,-0.970703,0.154297
1480510094221708,-0.210449,-0.96875,0.151855
1480510094244268,-0.205566,-0.954102,0.145508
1480510094259308,-0.212402,-0.967773,0.141113
1480510094281868,-0.211426,-0.974121,0.151855
1480510094303927,-0.206543,-0.955566,0.144043
1480510094319297,-0.20459,-0.974609,0.148926
1480510094341529,-0.21875,-0.990234,0.155762
1480510094364087,-0.203613,-0.969238,0.156738
1480510094379126,-0.206055,-0.991699,0.147949
1480510094401686,-0.209961,-0.972656,0.163574
1480510094424247,-0.206055,-0.957031,0.154297
1480510094439288,-0.214355,-0.984375,0.150879
1480510094461848,-0.228516,-0.980469,0.144531
1480510094484407,-0.208984,-0.955566,0.143555
1480510094498945,-0.204102,-0.982422,0.141113
1480510094521511,-0.19873,-0.988281,0.137207
1480510094544065,-0.195801,-0.974609,0.140137
1480510094559111,-0.211426,-0.984863,0.145996
1480510094581665,-0.214844,-0.967773,0.15332
1480510094604226,-0.216797,-0.952148,0.154297
1480510094619265,-0.226563,-0.970703,0.13916
1480510094641825,-0.229492,-0.976563,0.129395
1480510094663884,-0.224609,-0.963379,0.129395
1480510094678924,-0.235352,-0.963379,0.12207
1480510094701484,-0.23291,-0.970215,0.119629
1480510094724045,-0.209961,-0.973633,0.129883
1480510094739084,-0.209961,-1.00195,0.135254
1480510094761644,-0.202148,-0.980469,0.154297
1480510094784206,-0.187012,-0.975586,0.160645
1480510094799244,-0.196777,-0.981934,0.152344
1480510094821805,-0.209961,-0.963379,0.144531
1480510094852888,-0.211914,-0.973145,0.132324
1480510094858903,-0.211914,-0.994629,0.124512
1480510094881463,-0.209961,-0.961914,0.136719
1480510094905025,-0.206543,-0.95752,0.147461
1480510094919063,-0.214355,-0.981445,0.146973
1480510094941623,-0.202148,-0.961426,0.15332
1480510094964183,-0.201172,-0.966309,0.155762
1480510094979223,-0.205566,-0.993164,0.148438
1480510095001783,-0.203613,-0.979492,0.147461
1480510095024344,-0.198242,-0.97998,0.144043
1480510095039384,-0.208496,-0.983887,0.140137
1480510095068961,-0.208984,-0.956055,0.136719
1480510095084002,-0.214844,-0.959473,0.132813
1480510095099042,-0.219727,-0.981934,0.134277
1480510095129122,-0.217773,-0.955566,0.131348
1480510095144162,-0.216797,-0.964355,0.128418
1480510095166722,-0.220703,-0.983398,0.134766
1480510095181762,-0.217285,-0.956055,0.139648
1480510095204322,-0.21582,-0.97168,0.144043
1480510095226882,-0.22168,-0.994141,0.141602
1480510095241421,-0.209961,-0.96875,0.140137
1480510095263980,-0.211914,-0.981445,0.151367
1480510095286541,-0.207031,-0.987793,0.155762
1480510095301580,-0.200684,-0.961426,0.15625
1480510095324141,-0.196777,-0.974609,0.151367
1480510095346700,-0.208008,-0.982422,0.152344
1480510095361740,-0.201172,-0.959961,0.145508
1480510095384300,-0.200195,-0.973633,0.137695
1480510095406861,-0.205078,-0.979492,0.14209
1480510095421901,-0.20459,-0.950684,0.140137
1480510095443959,-0.210449,-0.964844,0.14502
1480510095466519,-0.217285,-0.974609,0.154297
1480510095481559,-0.20752,-0.95752,0.145996
1480510095513143,-0.209961,-0.977051,0.129395
1480510095526679,-0.210938,-0.978027,0.12793
1480510095544727,-0.205566,-0.963867,0.134277
1480510095564279,-0.218262,-0.989258,0.129395
1480510095595362,-0.22998,-0.983887,0.144043
1480510095601378,-0.219727,-0.958984,0.155273
1480510095625442,-0.216309,-0.970215,0.160156
1480510095646498,-0.217773,-0.966309,0.172363
1480510095661538,-0.203613,-0.95752,0.166504
1480510095687607,-0.206543,-0.981934,0.157715
1480510095706658,-0.20459,-0.976074,0.149414
1480510095721701,-0.195801,-0.95459,0.138672
1480510095744259,-0.203613,-0.972656,0.129395
1480510095766817,-0.205078,-0.968262,0.125488
1480510095781868,-0.20752,-0.964355,0.129883
1480510095803916,-0.212891,-0.989746,0.13623
1480510095826489,-0.208984,-0.975586,0.150391
1480510095849053,-0.205078,-0.966797,0.155273
1480510095864076,-0.208496,-0.982422,0.15918
1480510095886636,-0.209473,-0.964844,0.154785
1480510095901676,-0.209961,-0.959473,0.155762
1480510095924237,-0.223145,-0.983887,0.148438
1480510095946796,-0.220703,-0.964355,0.140137
1480510095961837,-0.211914,-0.963379,0.138672
1480510095983895,-0.22168,-0.986816,0.141602
1480510096006458,-0.216797,-0.969727,0.145508
1480510096021496,-0.212891,-0.964355,0.140137
1480510096045560,-0.214355,-0.979492,0.148926
1480510096066615,-0.212891,-0.960449,0.15332
1480510096089176,-0.209961,-0.965332,0.152832
1480510096104216,-0.214844,-0.983398,0.143555
1480510096126775,-0.216309,-0.97168,0.143555
1480510096149336,-0.206543,-0.964355,0.141113
1480510096163874,-0.214844,-0.984863,0.146484
1480510096186435,-0.215332,-0.964844,0.15332
1480510096208994,-0.216797,-0.966797,0.150391
1480510096224034,-0.222168,-0.977051,0.151855
1480510096246594,-0.217285,-0.955566,0.158691
1480510096269154,-0.214355,-0.969727,0.149414
1480510096284194,-0.223145,-0.991699,0.140625
1480510096309762,-0.216797,-0.965332,0.135254
1480510096329314,-0.214844,-0.967773,0.13623
1480510096343852,-0.221191,-0.986816,0.137695
1480510096375437,-0.217285,-0.96582,0.141113
1480510096388973,-0.215332,-0.966797,0.151855
1480510096404013,-0.219238,-0.985352,0.160156
1480510096426573,-0.208008,-0.95459,0.157715
1480510096449133,-0.211914,-0.96582,0.15625
1480510096464173,-0.216797,-0.971191,0.148438
1480510096486733,-0.212402,-0.958984,0.147461
1480510096509293,-0.20752,-0.972656,0.140137
1480510096523833,-0.21875,-0.97998,0.135254
1480510096546893,-0.211914,-0.964844,0.140625
1480510096568951,-0.216309,-0.977539,0.144043
1480510096583991,-0.219727,-0.977051,0.150879
1480510096606551,-0.21582,-0.957031,0.146973
1480510096614071,-0.219727,-0.980957,0.144531
1480510096638136,-0.227539,-0.981934,0.148926
1480510096651672,-0.217285,-0.958008,0.147949
1480510096683255,-0.220703,-0.977539,0.149414
1480510096697795,-0.222656,-0.976563,0.152832
1480510096711831,-0.214355,-0.967285,0.140137
1480510096734392,-0.216309,-0.983398,0.145508
1480510096756951,-0.216309,-0.967773,0.154785
1480510096772995,-0.212402,-0.949219,0.154297
1480510096794050,-0.220215,-0.981445,0.150391
1480510096818617,-0.214355,-0.980469,0.144531
1480510096831650,-0.210938,-0.95166,0.150391
1480510096854211,-0.216309,-0.974121,0.145508
1480510096877774,-0.212402,-0.975586,0.146973
1480510096891811,-0.209961,-0.95459,0.140137
1480510096914370,-0.227051,-0.983398,0.13916
1480510096937934,-0.217773,-0.975098,0.14502
1480510096951470,-0.210449,-0.961914,0.151855
1480510096974029,-0.213867,-0.980469,0.149414
1480510096998094,-0.22168,-0.96875,0.152832
1480510097020653,-0.210938,-0.958984,0.148438
1480510097034189,-0.213867,-0.98291,0.144531
1480510097058253,-0.216797,-0.973633,0.146973
1480510097072291,-0.208496,-0.958008,0.146484
1480510097094350,-0.217773,-0.978027,0.148926
1480510097117925,-0.221191,-0.969727,0.144043
1480510097131448,-0.209473,-0.958496,0.146973
1480510097154008,-0.216309,-0.987305,0.141113
1480510097178072,-0.214844,-0.964844,0.152344
1480510097191608,-0.214844,-0.961426,0.138184
1480510097214183,-0.217773,-0.98584,0.146973
1480510097238243,-0.216797,-0.96875,0.143555
1480510097260290,-0.210449,-0.967773,0.141602
1480510097274327,-0.223145,-0.98584,0.140625
1480510097297892,-0.217285,-0.959473,0.144531
1480510097311427,-0.212891,-0.962402,0.155273
1480510097333993,-0.220703,-0.987305,0.148438
1480510097358050,-0.223633,-0.964355,0.147461
1480510097371588,-0.216309,-0.965332,0.143066
1480510097394146,-0.223633,-0.980957,0.144531
1480510097418210,-0.214844,-0.96582,0.146973
1480510097431747,-0.20752,-0.96875,0.151855
1480510097454307,-0.22168,-0.986328,0.149414
1480510097477870,-0.215332,-0.96582,0.14209
1480510097491405,-0.205566,-0.965332,0.140625
1480510097513965,-0.217773,-0.987305,0.14502
1480510097537530,-0.218262,-0.961426,0.138184
1480510097551566,-0.214844,-0.970703,0.141602
1480510097574125,-0.21875,-0.986328,0.142578
1480510097604706,-0.217285,-0.955566,0.143555
1480510097614733,-0.216797,-0.972168,0.145508
1480510097634285,-0.222168,-0.984375,0.143066
1480510097656845,-0.217285,-0.956055,0.140137
1480510097671886,-0.220703,-0.976074,0.143066
1480510097693944,-0.224121,-0.975098,0.152832
1480510097716504,-0.213867,-0.963379,0.149902
1480510097740568,-0.220215,-0.976563,0.143555
1480510097754105,-0.226074,-0.975586,0.144531
1480510097776667,-0.214844,-0.957031,0.140137
1480510097800226,-0.214355,-0.977539,0.148438
1480510097814264,-0.220703,-0.975098,0.15332
1480510097836824,-0.208496,-0.952148,0.150879
1480510097860387,-0.21875,-0.974609,0.148926
1480510097874424,-0.219727,-0.976074,0.140625
1480510097905507,-0.214844,-0.961914,0.13916
1480510097920546,-0.214355,-0.981934,0.135742
1480510097934083,-0.220703,-0.970703,0.153809
1480510097956643,-0.218262,-0.953125,0.147949
1480510097980205,-0.215332,-0.974609,0.145996
1480510097994243,-0.216797,-0.975586,0.141113
1480510098016803,-0.211914,-0.974609,0.132813
1480510098040365,-0.219727,-0.980469,0.137207
1480510098053903,-0.225098,-0.972168,0.140137
1480510098076485,-0.219238,-0.961426,0.152344
1480510098100525,-0.226074,-0.979492,0.150879
1480510098114062,-0.222168,-0.972656,0.161133
1480510098136623,-0.207031,-0.978027,0.158203
1480510098160184,-0.199707,-1.01221,0.15918
1480510098174222,-0.181152,-1.0127,0.174805
1480510098196781,-0.177734,-0.977051,0.18457
1480510098220344,-0.195313,-0.966797,0.17334
1480510098233880,-0.222168,-0.950684,0.163086
1480510098256440,-0.230957,-0.949219,0.138184
1480510098280504,-0.244629,-0.967285,0.124023
1480510098294044,-0.243652,-0.956055,0.116699
1480510098316600,-0.232422,-0.966797,0.116699
1480510098340664,-0.234375,-0.967773,0.130371
1480510098354201,-0.213379,-0.942383,0.131348
1480510098376761,-0.216309,-0.962891,0.143066
1480510098400323,-0.225098,-0.988281,0.148926
1480510098414374,-0.214844,-0.964355,0.147949
1480510098436419,-0.204102,-0.969238,0.157227
1480510098460483,-0.200684,-0.981445,0.166992
1480510098474019,-0.20459,-0.956055,0.191895
1480510098496579,-0.20752,-0.952637,0.172363
1480510098520643,-0.228516,-0.980957,0.166016
1480510098534180,-0.208984,-0.961914,0.175293
1480510098556739,-0.22998,-0.981934,0.173828
1480510098580302,-0.237793,-0.97998,0.163086
1480510098594338,-0.235352,-0.952637,0.155762
1480510098616398,-0.230957,-0.959473,0.142578
1480510098639960,-0.225586,-0.974609,0.13916
1480510098653998,-0.217285,-0.949219,0.14209
1480510098677059,-0.233398,-0.970703,0.143555
1480510098708153,-0.233398,-0.974609,0.130371
1480510098714158,-0.237305,-0.945801,0.136719
1480510098736719,-0.231445,-0.972656,0.137695
1480510098759278,-0.234863,-0.979492,0.142578
1480510098774318,-0.239746,-0.941406,0.139648
1480510098796376,-0.23877,-0.972656,0.13916
1480510098818968,-0.226074,-0.984375,0.148926
1480510098833977,-0.224609,-0.955566,0.150391
1480510098856536,-0.233398,-0.969238,0.146484
1480510098879096,-0.240723,-0.976074,0.151367
1480510098894140,-0.235352,-0.958008,0.145508
1480510098916696,-0.248535,-0.977539,0.150391
1480510098939256,-0.242676,-0.972656,0.145508
1480510098962819,-0.23877,-0.95752,0.141602
1480510098976355,-0.235352,-0.977051,0.139648
1480510098998915,-0.236816,-0.973145,0.144043
1480510099016963,-0.231445,-0.953613,0.141113
1480510099036515,-0.234863,-0.969238,0.140625
1480510099059075,-0.242676,-0.966309,0.137207
1480510099074115,-0.230469,-0.946289,0.143066
1480510099096675,-0.232422,-0.979004,0.141113
1480510099119742,-0.231934,-0.973145,0.14502
1480510099134276,-0.22998,-0.943359,0.14209
1480510099156840,-0.241211,-0.980957,0.143066
1480510099178893,-0.241211,-0.972168,0.134766
1480510099202958,-0.230469,-0.949707,0.144531
1480510099216494,-0.241699,-0.976563,0.145508
1480510099239054,-0.237305,-0.967773,0.144043
1480510099263620,-0.237793,-0.956055,0.141602
1480510099276654,-0.239258,-0.977051,0.145996
1480510099299214,-0.23584,-0.967773,0.152344
1480510099322776,-0.234375,-0.961914,0.145996
1480510099336814,-0.237305,-0.976563,0.142578
1480510099359374,-0.239258,-0.959473,0.15332
1480510099382958,-0.23291,-0.952148,0.145996
1480510099396473,-0.242676,-0.981934,0.143555
1480510099419534,-0.236328,-0.965332,0.143555
1480510099443096,-0.230469,-0.954102,0.150391
1480510099456633,-0.237305,-0.978027,0.144531
1480510099479193,-0.233887,-0.967285,0.140625
1480510099502254,-0.231445,-0.966797,0.142578
1480510099516793,-0.239746,-0.974121,0.14209
1480510099547876,-0.231445,-0.964844,0.150391
1480510099569433,-0.22998,-0.955566,0.142578
1480510099579460,-0.240234,-0.979004,0.143555
1480510099599011,-0.231934,-0.967285,0.136719
1480510099622072,-0.224121,-0.964844,0.13916
1480510099636612,-0.234375,-0.978027,0.143555
1480510099659186,-0.22998,-0.952637,0.146973
1480510099681732,-0.230957,-0.960449,0.144531
1480510099696771,-0.244629,-0.981934,0.144043
1480510099727854,-0.238281,-0.956543,0.144531
1480510099741390,-0.238281,-0.962891,0.144043
1480510099756430,-0.243164,-0.980957,0.146973
1480510099778990,-0.237305,-0.95459,0.140625
1480510099801550,-0.231934,-0.973145,0.141113
1480510099816590,-0.241211,-0.976074,0.144043
1480510099839150,-0.227539,-0.953613,0.146973
1480510099861710,-0.226074,-0.973633,0.147461
1480510099876750,-0.239746,-0.98291,0.144531
1480510099899310,-0.233398,-0.958008,0.140137
1480510099930894,-0.230469,-0.961914,0.145508
1480510099936411,-0.234375,-0.973633,0.146484
1480510099958969,-0.233398,-0.952637,0.146973
1480510099981529,-0.237305,-0.967773,0.133301
1480510099996569,-0.241211,-0.973145,0.143555
1480510100019129,-0.227051,-0.946289,0.143555
1480510100041689,-0.231445,-0.969238,0.139648
1480510100065251,-0.236328,-0.977051,0.147949
1480510100079288,-0.225098,-0.958008,0.140137
1480510100101849,-0.229004,-0.975586,0.145508
1480510100125412,-0.233887,-0.968262,0.14502
1480510100138947,-0.230957,-0.952148,0.146973
1480510100161508,-0.232422,-0.976563,0.143066
1480510100176547,-0.236328,-0.97168,0.149414
1480510100199108,-0.229004,-0.953125,0.145508
1480510100221668,-0.240234,-0.971191,0.142578
1480510100236708,-0.23877,-0.975098,0.139648
1480510100259268,-0.226074,-0.949219,0.145996
1480510100281828,-0.234375,-0.969727,0.14502
1480510100296867,-0.234375,-0.96875,0.145508
1480510100319621,-0.228516,-0.955078,0.139648
1480510100341487,-0.237793,-0.979492,0.140625
1480510100356526,-0.241211,-0.969727,0.144531
1480510100379086,-0.234863,-0.951172,0.144043
1480510100401647,-0.236816,-0.974121,0.14502
1480510100416687,-0.23877,-0.964844,0.145996
1480510100440751,-0.233398,-0.95166,0.141602
1480510100470331,-0.239746,-0.978516,0.13623
1480510100476345,-0.239746,-0.96582,0.14209
1480510100498905,-0.23291,-0.953613,0.146973
1480510100521465,-0.241211,-0.983887,0.151367
1480510100536506,-0.23877,-0.966309,0.14209
1480510100559065,-0.227539,-0.952148,0.145996
1480510100590649,-0.236816,-0.975586,0.146484
1480510100596670,-0.235352,-0.96875,0.143555
1480510100619225,-0.233398,-0.956543,0.138672
1480510100641785,-0.241699,-0.980469,0.143066
1480510100656825,-0.23584,-0.960449,0.142578
1480510100678883,-0.230957,-0.960938,0.140625
1480510100701444,-0.23584,-0.977539,0.148438
1480510100724005,-0.239258,-0.961426,0.147949
1480510100740561,-0.230957,-0.958496,0.145996
1480510100761604,-0.234863,-0.98291,0.138672
1480510100784164,-0.237305,-0.965332,0.148438
1480510100799204,-0.233887,-0.958008,0.140137
1480510100821764,-0.236816,-0.983398,0.148438
1480510100844324,-0.229492,-0.961426,0.142578
1480510100858862,-0.230469,-0.95752,0.147949
1480510100881424,-0.235352,-0.976563,0.14502
1480510100903984,-0.236328,-0.955078,0.144531
1480510100928047,-0.230957,-0.962402,0.144043
1480510100941582,-0.237793,-0.97998,0.14502
1480510100964144,-0.23291,-0.957031,0.145508
1480510100979182,-0.234375,-0.971191,0.145996
1480510101001744,-0.236816,-0.977539,0.141113
1480510101024302,-0.22998,-0.952148,0.14209
1480510101039343,-0.230469,-0.961426,0.142578
1480510101061401,-0.23291,-0.986816,0.134277
1480510101083962,-0.231445,-0.961426,0.146973
1480510101099001,-0.233398,-0.96875,0.142578
1480510101121563,-0.236816,-0.97998,0.149414
1480510101144121,-0.232422,-0.950195,0.145996
1480510101159162,-0.236328,-0.967773,0.142578
1480510101181722,-0.245117,-0.976563,0.144043
1480510101204282,-0.234375,-0.953613,0.13916
1480510101219322,-0.236328,-0.969238,0.147461
1480510101241380,-0.241699,-0.98291,0.145508
1480510101263940,-0.227051,-0.952637,0.14502
1480510101278980,-0.235352,-0.975586,0.144043
1480510101301540,-0.237305,-0.975586,0.144531
1480510101324100,-0.231445,-0.947754,0.146484
1480510101339140,-0.230957,-0.972656,0.138672
1480510101361700,-0.238281,-0.97168,0.143066
1480510101384260,-0.234375,-0.949219,0.14209
1480510101399300,-0.237793,-0.978027,0.148438
1480510101421361,-0.236816,-0.975098,0.142578
1480510101443919,-0.229492,-0.954102,0.146484
1480510101461972,-0.23584,-0.976563,0.145508
1480510101489540,-0.235352,-0.972168,0.145508
1480510101513102,-0.236816,-0.958984,0.145508
1480510101519119,-0.236328,-0.977051,0.145508
1480510101541679,-0.23584,-0.967773,0.148926
1480510101564239,-0.228516,-0.956543,0.138672
1480510101586799,-0.240234,-0.97168,0.145996
1480510101601338,-0.231445,-0.96582,0.147461
1480510101633423,-0.234863,-0.947754,0.14209
1480510101638937,-0.236816,-0.985352,0.151367
1480510101661497,-0.237305,-0.972656,0.144531
1480510101684063,-0.228516,-0.949219,0.147949
1480510101709626,-0.231934,-0.97998,0.152344
1480510101721658,-0.237793,-0.974121,0.145508
1480510101744217,-0.229004,-0.960938,0.146484
1480510101762265,-0.23584,-0.971191,0.143555
1480510101790340,-0.231934,-0.95752,0.148438
1480510101803876,-0.233887,-0.960449,0.137207
1480510101820423,-0.245117,-0.984375,0.141113
1480510101841476,-0.234863,-0.963867,0.145996
1480510101864055,-0.23291,-0.95459,0.143555
1480510101879076,-0.240723,-0.973145,0.142578
1480510101901636,-0.238281,-0.965332,0.144043
1480510101924196,-0.239258,-0.95752,0.140625
1480510101939236,-0.245117,-0.983887,0.13916
1480510101962799,-0.233887,-0.959961,0.14209
1480510101983855,-0.225098,-0.963867,0.138184
1480510101998894,-0.234375,-0.978027,0.148926
1480510102021455,-0.229004,-0.964355,0.148438
1480510102044015,-0.228516,-0.956055,0.146484
1480510102059055,-0.234375,-0.973633,0.143555
1480510102081615,-0.231445,-0.949707,0.149414
1480510102104175,-0.23291,-0.970215,0.140137
1480510102119216,-0.236328,-0.979004,0.144043
1480510102141775,-0.228516,-0.955566,0.146484
1480510102163834,-0.227051,-0.97168,0.147461
1480510102186394,-0.23584,-0.978027,0.148926
1480510102201434,-0.230957,-0.953125,0.150391
1480510102223994,-0.236816,-0.970215,0.144043
1480510102246554,-0.235352,-0.980469,0.148438
1480510102261594,-0.235352,-0.950195,0.139648
1480510102284154,-0.239258,-0.974609,0.143555
1480510102315236,-0.234863,-0.97998,0.14209
1480510102321754,-0.225586,-0.953125,0.141113
1480510102344313,-0.230469,-0.966797,0.14502
1480510102366372,-0.236816,-0.973145,0.14209
1480510102381412,-0.232422,-0.950684,0.145508
1480510102403973,-0.235352,-0.972656,0.142578
1480510102426532,-0.244141,-0.977051,0.13916
1480510102441573,-0.231934,-0.956543,0.136719
1480510102464132,-0.228027,-0.969238,0.139648
1480510102486692,-0.235352,-0.974121,0.146484
1480510102501732,-0.22998,-0.948242,0.145996
1480510102523791,-0.230957,-0.973633,0.143066
1480510102546351,-0.241699,-0.970703,0.138672
1480510102561392,-0.222656,-0.95166,0.13916
1480510102583951,-0.23291,-0.98291,0.142578
1480510102606512,-0.230957,-0.976563,0.14502
1480510102624560,-0.226074,-0.951172,0.145508
1480510102644112,-0.234863,-0.976563,0.144531
1480510102666671,-0.237305,-0.96875,0.147461
1480510102681711,-0.236816,-0.955078,0.144043
1480510102704271,-0.240723,-0.977051,0.141602
1480510102726330,-0.241699,-0.975098,0.140137
1480510102741370,-0.234375,-0.958984,0.140137
1480510102763929,-0.228516,-0.989746,0.143555
1480510102786490,-0.229492,-0.967773,0.144043
1480510102801530,-0.224121,-0.946777,0.15625
1480510102824090,-0.234863,-0.975586,0.147949
1480510102846649,-0.230469,-0.969238,0.138184
1480510102869210,-0.228516,-0.955566,0.145508
1480510102884250,-0.240234,-0.977051,0.13916
1480510102906810,-0.23877,-0.97168,0.143066
1480510102921349,-0.230957,-0.956543,0.143066
1480510102943909,-0.234375,-0.975586,0.152344
1480510102966468,-0.23584,-0.961426,0.146484
1480510102981509,-0.230469,-0.94873,0.13916
1480510103004068,-0.239746,-0.987305,0.140137
1480510103026629,-0.23584,-0.968262,0.145996
1480510103041669,-0.231934,-0.962891,0.142578
1480510103064236,-0.236328,-0.975586,0.151855
1480510103086791,-0.231934,-0.95752,0.145996
1480510103101327,-0.22998,-0.960449,0.148926
1480510103123887,-0.239746,-0.983887,0.147461
1480510103146447,-0.230469,-0.949707,0.143066
1480510103161487,-0.226563,-0.959473,0.14502
1480510103184049,-0.23877,-0.976074,0.143555
1480510103206607,-0.230957,-0.955566,0.141113
1480510103221648,-0.231934,-0.956055,0.141113
1480510103244207,-0.233398,-0.972168,0.144043
1480510103266768,-0.229492,-0.955078,0.138672
1480510103281807,-0.229492,-0.96582,0.139648
1480510103303866,-0.234863,-0.979004,0.144531
1480510103326426,-0.229492,-0.960449,0.145996
1480510103348987,-0.22998,-0.964355,0.149902
1480510103364046,-0.23584,-0.977051,0.152344
1480510103386587,-0.236328,-0.95459,0.145996
1480510103401627,-0.23877,-0.968262,0.148438
1480510103425691,-0.245605,-0.974609,0.143066
1480510103446746,-0.238281,-0.953125,0.14209
1480510103461788,-0.234863,-0.97168,0.144043
1480510103484346,-0.237793,-0.977051,0.150879
1480510103506405,-0.230957,-0.956055,0.138672
1480510103521446,-0.233398,-0.965332,0.146973
1480510103544005,-0.23584,-0.970703,0.146973
1480510103566565,-0.230469,-0.951172,0.145508
1480510103581605,-0.234863,-0.971191,0.141113
1480510103604166,-0.239258,-0.978516,0.148926
1480510103626725,-0.232422,-0.95459,0.147949
1480510103641764,-0.23584,-0.972656,0.14502
1480510103663827,-0.23584,-0.974121,0.143066
1480510103686718,-0.229004,-0.955078,0.14502
1480510103708944,-0.235352,-0.970215,0.14502
1480510103723984,-0.243164,-0.977539,0.145508
1480510103746543,-0.236816,-0.955078,0.146484
1480510103769104,-0.236328,-0.977051,0.145996
1480510103784144,-0.239746,-0.974121,0.151367
1480510103806704,-0.23291,-0.960449,0.15332
1480510103829264,-0.240234,-0.975098,0.151367
1480510103843802,-0.236816,-0.963379,0.148926
1480510103866362,-0.235352,-0.956055,0.151855
1480510103888923,-0.237305,-0.974121,0.146973
1480510103903962,-0.239746,-0.968262,0.137695
1480510103926522,-0.236816,-0.95459,0.145508
1480510103949083,-0.233887,-0.974609,0.148438
1480510103964123,-0.234375,-0.963379,0.141113
1480510103986684,-0.227051,-0.95459,0.138672
1480510104009242,-0.240234,-0.981445,0.143066
1480510104023781,-0.234375,-0.97168,0.138184
1480510104046341,-0.228516,-0.958984,0.147949
1480510104068902,-0.23584,-0.973633,0.145996
1480510104083941,-0.235352,-0.963379,0.152832
1480510104106501,-0.233398,-0.956055,0.143555
1480510104129061,-0.246582,-0.981445,0.141602
1480510104144101,-0.237793,-0.964355,0.147461
1480510104166661,-0.229492,-0.958008,0.150391
1480510104189221,-0.236816,-0.979492,0.144531
1480510104204261,-0.233887,-0.959473,0.151367
1480510104226320,-0.230469,-0.962891,0.136719
1480510104248879,-0.231934,-0.974121,0.149414
1480510104263920,-0.226074,-0.956055,0.150879
1480510104289488,-0.228516,-0.962402,0.140137
1480510104309039,-0.240723,-0.980957,0.135742
1480510104324080,-0.241211,-0.964844,0.144043
1480510104346639,-0.233398,-0.958984,0.146484
1480510104369201,-0.233887,-0.975098,0.150879
1480510104384240,-0.230469,-0.955566,0.141113
1480510104406799,-0.230469,-0.966797,0.140625
1480510104430363,-0.242188,-0.983887,0.148926
1480510104443899,-0.237793,-0.961914,0.144043
1480510104466459,-0.234375,-0.967285,0.143555
1480510104489019,-0.238281,-0.977051,0.147461
1480510104507067,-0.238281,-0.95752,0.150391
1480510104526619,-0.230469,-0.966797,0.145508
1480510104549179,-0.243652,-0.977539,0.145996
1480510104564223,-0.229004,-0.957031,0.141602
1480510104593797,-0.235352,-0.97168,0.145996
1480510104609338,-0.241211,-0.984863,0.143066
1480510104623877,-0.233887,-0.956055,0.145996
1480510104646438,-0.229492,-0.967773,0.138184
1480510104668998,-0.236816,-0.974121,0.141602
1480510104691558,-0.226563,-0.952148,0.148438
1480510104706597,-0.229004,-0.96582,0.14502
1480510104729158,-0.233398,-0.976074,0.142578
1480510104751720,-0.227051,-0.958008,0.135254
1480510104766757,-0.22998,-0.980469,0.14209
1480510104788816,-0.231934,-0.976074,0.144043
1480510104811878,-0.234375,-0.950195,0.151367
1480510104826416,-0.239258,-0.96875,0.142578
1480510104848977,-0.241699,-0.975098,0.144531
1480510104871536,-0.236816,-0.959473,0.144531
1480510104886577,-0.239258,-0.974609,0.141602
1480510104909136,-0.245117,-0.973633,0.146973
1480510104931696,-0.230957,-0.956543,0.14209
1480510104946736,-0.233887,-0.98291,0.143066
1480510104977819,-0.236816,-0.966797,0.141602
1480510104991355,-0.228516,-0.948242,0.144531
1480510105006395,-0.237305,-0.970703,0.142578
1480510105028955,-0.236816,-0.973145,0.142578
1480510105051515,-0.232422,-0.958496,0.136719
1480510105066554,-0.236816,-0.977051,0.140625
1480510105092123,-0.236816,-0.963867,0.13916
1480510105111674,-0.227051,-0.946777,0.151855
1480510105126714,-0.239258,-0.974609,0.148438
1480510105148774,-0.235352,-0.96582,0.147949
1480510105171334,-0.231934,-0.95166,0.144043
1480510105186374,-0.237793,-0.98291,0.144043
1480510105208933,-0.234375,-0.967773,0.152344
1480510105231494,-0.229004,-0.956055,0.142578
1480510105246534,-0.239258,-0.984863,0.144043
1480510105269094,-0.236816,-0.959473,0.149414
1480510105291654,-0.23291,-0.958008,0.148438
1480510105306694,-0.235352,-0.979492,0.152344
1480510105329253,-0.23877,-0.960938,0.144043
1480510105351313,-0.233887,-0.958008,0.144043
1480510105367856,-0.236816,-0.977539,0.14502
1480510105396433,-0.228516,-0.960449,0.146973
1480510105411473,-0.232422,-0.95752,0.14209
1480510105426513,-0.240723,-0.977051,0.141113
1480510105449072,-0.233398,-0.963867,0.149414
1480510105471632,-0.230469,-0.961426,0.143555
1480510105486674,-0.240234,-0.97998,0.14209
1480510105509232,-0.233887,-0.966309,0.142578
1480510105534299,-0.226563,-0.963379,0.146484
1480510105546331,-0.242676,-0.978027,0.149414
1480510105568891,-0.233398,-0.952148,0.146973
1480510105591451,-0.233398,-0.962891,0.144043
1480510105614011,-0.243164,-0.978027,0.144043
1480510105629051,-0.237305,-0.958984,0.144531
1480510105651611,-0.234863,-0.964844,0.143555
1480510105674171,-0.239258,-0.979492,0.141602
1480510105689211,-0.229492,-0.959473,0.145508
1480510105711270,-0.232422,-0.978027,0.146484
1480510105733829,-0.233398,-0.971191,0.146484
1480510105748870,-0.233887,-0.95166,0.148438
1480510105771447,-0.234375,-0.969238,0.141602
1480510105793990,-0.240723,-0.975098,0.144531
1480510105809030,-0.232422,-0.955566,0.139648
1480510105841115,-0.23291,-0.973145,0.146484
1480510105854150,-0.23584,-0.977051,0.145508
1480510105869190,-0.231445,-0.955566,0.141602
1480510105891262,-0.242676,-0.967773,0.140625
1480510105922832,-0.239746,-0.971191,0.149902
1480510105929350,-0.231445,-0.952148,0.142578
1480510105954416,-0.23584,-0.974609,0.147949
1480510105973968,-0.242188,-0.974121,0.13916
1480510105989009,-0.23291,-0.95166,0.137695
1480510106011569,-0.23584,-0.977051,0.138184
1480510106034128,-0.241211,-0.972656,0.141602
1480510106049169,-0.224121,-0.964355,0.149902
1480510106071728,-0.23584,-0.970703,0.143066
1480510106094290,-0.235352,-0.976074,0.14209
1480510106109328,-0.228516,-0.958008,0.14502
1480510106131388,-0.23584,-0.977051,0.140137
1480510106153948,-0.242676,-0.970215,0.139648
1480510106179516,-0.238281,-0.965332,0.141602
1480510106200572,-0.240234,-0.976563,0.145996
1480510106214107,-0.231445,-0.962891,0.148926
1480510106232155,-0.221191,-0.952148,0.148438
1480510106259730,-0.230957,-0.974609,0.145996
1480510106274267,-0.241699,-0.961914,0.14502
1480510106288806,-0.235352,-0.957031,0.141602
1480510106312870,-0.244141,-0.972168,0.147949
1480510106333926,-0.242676,-0.953613,0.162598
1480510106348967,-0.241211,-0.956543,0.153809
1480510106371526,-0.249512,-0.971191,0.145996
1480510106394086,-0.25293,-0.964355,0.144531
1480510106409126,-0.251465,-0.96875,0.143066
1480510106431687,-0.260742,-0.972168,0.139648
1480510106456753,-0.251953,-0.960938,0.13916
1480510106469287,-0.248047,-0.970215,0.136719
1480510106491345,-0.248047,-0.984863,0.146973
1480510106513908,-0.233887,-0.956055,0.146973
1480510106528945,-0.225098,-0.961914,0.150879
1480510106551506,-0.224121,-0.980469,0.135742
1480510106574065,-0.227539,-0.954102,0.136719
1480510106596625,-0.23584,-0.944336,0.139648
1480510106611664,-0.241699,-0.979492,0.140137
1480510106634225,-0.235352,-0.958984,0.145508
1480510106656785,-0.225586,-0.96582,0.142578
1480510106671324,-0.234375,-0.975586,0.154785
1480510106695410,-0.233887,-0.958496,0.144531
1480510106716444,-0.243164,-0.974609,0.141602
1480510106731483,-0.255371,-0.98877,0.144531
1480510106754046,-0.246094,-0.954102,0.144043
1480510106776607,-0.253906,-0.96582,0.141113
1480510106791643,-0.254395,-0.980469,0.152344
1480510106815709,-0.245117,-0.958496,0.147949
1480510106836763,-0.231934,-0.955566,0.149902
1480510106851804,-0.232422,-0.959473,0.152832
1480510106873862,-0.236328,-0.942383,0.155762
1480510106896423,-0.248535,-0.966309,0.158203
1480510106911463,-0.262695,-0.977539,0.155273
1480510106934023,-0.246582,-0.946289,0.143066
1480510106956582,-0.249023,-0.960449,0.14502
1480510106974630,-0.249023,-0.97168,0.144531
1480510106994182,-0.237793,-0.957031,0.150391
1480510107016742,-0.237305,-0.973633,0.145996
1480510107031281,-0.243164,-0.974121,0.151855
1480510107053841,-0.242188,-0.941895,0.150391
1480510107076405,-0.239746,-0.962891,0.150879
1480510107091441,-0.246094,-0.967773,0.144043
1480510107114001,-0.240234,-0.956543,0.14502
1480510107136561,-0.243164,-0.967285,0.145996
1480510107159121,-0.250488,-0.966309,0.152344
1480510107174161,-0.236816,-0.95166,0.14209
1480510107196721,-0.240234,-0.976563,0.138672
1480510107211260,-0.256836,-0.958984,0.159668
1480510107233819,-0.242676,-0.957031,0.144531
1480510107256380,-0.243652,-0.964844,0.13916
1480510107271420,-0.250488,-0.96582,0.147461
1480510107293980,-0.244141,-0.955566,0.143555
1480510107316540,-0.25293,-0.959961,0.153809
1480510107339100,-0.257324,-0.949707,0.147949
1480510107354140,-0.241699,-0.94873,0.155273
1480510107376700,-0.251953,-0.976074,0.149414
1480510107391746,-0.248047,-0.965332,0.145996
1480510107413798,-0.245117,-0.958496,0.150391
1480510107448392,-0.244629,-0.989258,0.145508
1480510107452904,-0.243164,-0.963379,0.142578
1480510107473958,-0.23877,-0.949219,0.144531
1480510107496519,-0.242188,-0.975586,0.152832
1480510107519580,-0.244141,-0.95166,0.15918
1480510107537126,-0.233398,-0.961914,0.150879
1480510107556682,-0.244141,-0.969238,0.150879
1480510107579238,-0.25,-0.965332,0.154785
1480510107593777,-0.240234,-0.963867,0.15332
1480510107616337,-0.248535,-0.975098,0.152344
1480510107638897,-0.244629,-0.960938,0.149414
1480510107653938,-0.23291,-0.959961,0.14502
1480510107676497,-0.242188,-0.979492,0.150391
1480510107699058,-0.244629,-0.958984,0.144531
1480510107714101,-0.242188,-0.959961,0.14502
1480510107745180,-0.244141,-0.984863,0.14502
1480510107759217,-0.23877,-0.958984,0.15332
1480510107774257,-0.236328,-0.952637,0.158203
1480510107796817,-0.248047,-0.979004,0.153809
1480510107819379,-0.246094,-0.949707,0.152344
1480510107841436,-0.247559,-0.958496,0.148438
1480510107856502,-0.252441,-0.974121,0.143555
1480510107879036,-0.24707,-0.95459,0.155273
1480510107897085,-0.242676,-0.960449,0.147949
1480510107916642,-0.250488,-0.979004,0.15332
1480510107939196,-0.236816,-0.95752,0.148926
1480510107954236,-0.239746,-0.957031,0.152344
1480510107976796,-0.246582,-0.969727,0.15625
1480510107999356,-0.241699,-0.95459,0.145996
1480510108013899,-0.240234,-0.967773,0.149414
1480510108036454,-0.248047,-0.974121,0.145996
1480510108059015,-0.236816,-0.95752,0.146973
1480510108074055,-0.237305,-0.964844,0.150879
1480510108096615,-0.24707,-0.972168,0.152344
1480510108119177,-0.239258,-0.952148,0.152344
1480510108134215,-0.240234,-0.968262,0.157227
1480510108156273,-0.244141,-0.976074,0.154297
1480510108178835,-0.237305,-0.953125,0.152344
1480510108193874,-0.240723,-0.966797,0.151855
1480510108216435,-0.248047,-0.971191,0.15625
1480510108238994,-0.240234,-0.95752,0.154785
1480510108254233,-0.237793,-0.96582,0.157227
1480510108276594,-0.245605,-0.974121,0.152344
1480510108307676,-0.240723,-0.952148,0.153809
1480510108314196,-0.244629,-0.970703,0.153809
1480510108336755,-0.249023,-0.96875,0.147461
1480510108358812,-0.23584,-0.953613,0.146973
1480510108373852,-0.244629,-0.96875,0.150391
1480510108397916,-0.241211,-0.961914,0.154785
1480510108418972,-0.237305,-0.95166,0.151367
1480510108441532,-0.244141,-0.97168,0.147949
1480510108459580,-0.241699,-0.969727,0.149902
1480510108479132,-0.23291,-0.958496,0.149902
1480510108501693,-0.243652,-0.97168,0.148926
1480510108516734,-0.248047,-0.963867,0.15918
1480510108538791,-0.239746,-0.951172,0.152344
1480510108561351,-0.247559,-0.976563,0.152832
1480510108576391,-0.247559,-0.96875,0.151367
1480510108598950,-0.239258,-0.947266,0.144531
1480510108621511,-0.244629,-0.976563,0.146973
1480510108636550,-0.240234,-0.962891,0.153809
1480510108667634,-0.23584,-0.958008,0.150391
1480510108681672,-0.242188,-0.973145,0.154785
1480510108699218,-0.243164,-0.955078,0.151855
1480510108718770,-0.233887,-0.955078,0.153809
1480510108741329,-0.244629,-0.977539,0.150879
1480510108763890,-0.243164,-0.963867,0.145996
1480510108778929,-0.233398,-0.959473,0.139648
1480510108801490,-0.243652,-0.981445,0.149414
1480510108816535,-0.246094,-0.956543,0.155762
1480510108839090,-0.241211,-0.953125,0.149414
1480510108861649,-0.243652,-0.969727,0.155273
1480510108876691,-0.243652,-0.962891,0.150879
1480510108899249,-0.241211,-0.956543,0.149902
1480510108930337,-0.244629,-0.975586,0.151855
1480510108943869,-0.242676,-0.955566,0.151855
1480510108958908,-0.236328,-0.963379,0.151367
1480510108981468,-0.243164,-0.970703,0.154297
1480510108996509,-0.242188,-0.955078,0.155762
1480510109019413,-0.241211,-0.961914,0.158203
1480510109041629,-0.248535,-0.975586,0.143066
1480510109056668,-0.242676,-0.95459,0.15332
1480510109079228,-0.249023,-0.963379,0.151855
1480510109101789,-0.250977,-0.980469,0.146484
1480510109116327,-0.239746,-0.950195,0.148926
1480510109138887,-0.236328,-0.953613,0.157227
1480510109161447,-0.242676,-0.969238,0.155273
1480510109176487,-0.240723,-0.94873,0.146973
1480510109199047,-0.238281,-0.963867,0.144531
1480510109221607,-0.23877,-0.973145,0.149902
1480510109236647,-0.240234,-0.952637,0.154297
1480510109259207,-0.245605,-0.961914,0.152344
1480510109281767,-0.245117,-0.970703,0.15332
1480510109296306,-0.246094,-0.949707,0.151855
1480510109318866,-0.245117,-0.961426,0.14502
1480510109341426,-0.248535,-0.976563,0.146973
1480510109356466,-0.240234,-0.947754,0.146484
1480510109379026,-0.236816,-0.963867,0.151855
1480510109401586,-0.246094,-0.978027,0.143555
1480510109424146,-0.236328,-0.95459,0.150879
1480510109439185,-0.245117,-0.964844,0.153809
1480510109461746,-0.244629,-0.980469,0.152832
1480510109484307,-0.239746,-0.956543,0.149902
1480510109501854,-0.242188,-0.978516,0.146973
1480510109521405,-0.246582,-0.97168,0.15332
1480510109543965,-0.239746,-0.94873,0.150879
1480510109560509,-0.249512,-0.964355,0.141602
1480510109581565,-0.245117,-0.967285,0.146484
1480510109604125,-0.239258,-0.952637,0.147949
1480510109619167,-0.243652,-0.970703,0.147949
1480510109641724,-0.248047,-0.963867,0.151855
1480510109663783,-0.239746,-0.953125,0.150391
1480510109678823,-0.250977,-0.972656,0.147949
1480510109701383,-0.251465,-0.961426,0.158691
1480510109723944,-0.244141,-0.95166,0.149902
1480510109746504,-0.247559,-0.972656,0.153809
1480510109761543,-0.251953,-0.963867,0.150879
1480510109784104,-0.242676,-0.958008,0.150391
1480510109806663,-0.253418,-0.977539,0.146973
1480510109821704,-0.246094,-0.958496,0.152832
1480510109843762,-0.230957,-0.943848,0.157227
1480510109858802,-0.244629,-0.971191,0.151855
1480510109881362,-0.249023,-0.962891,0.146973
1480510109903922,-0.242676,-0.955566,0.141113
1480510109918963,-0.249023,-0.976074,0.151367
1480510109941522,-0.244141,-0.955078,0.144531
1480510109964082,-0.244629,-0.943848,0.143555
1480510109979122,-0.266113,-0.973145,0.131836
1480510110001682,-0.24707,-0.95752,0.143555
1480510110024242,-0.237305,-0.946777,0.140137
1480510110038781,-0.20752,-0.977539,0.158203
1480510110061341,-0.233398,-0.964355,0.173828
1480510110085406,-0.233398,-0.972168,0.175293
1480510110098941,-0.240723,-0.980957,0.149902
1480510110121501,-0.230469,-0.952637,0.14209
1480510110144061,-0.23291,-0.972656,0.143066
1480510110159101,-0.26416,-0.977539,0.152344
1480510110181661,-0.250488,-0.964355,0.149902
1480510110204221,-0.251465,-0.967285,0.145508
1480510110226781,-0.244141,-0.975098,0.148438
1480510110241319,-0.239258,-0.953613,0.146484
1480510110263879,-0.242188,-0.955566,0.151855
1480510110278921,-0.254395,-0.967773,0.140625
1480510110301480,-0.239746,-0.951172,0.14209
1480510110333063,-0.239746,-0.963379,0.137695
1480510110346599,-0.245117,-0.97998,0.143066
1480510110361640,-0.243652,-0.949219,0.135254
1480510110384200,-0.236816,-0.962891,0.14209
1480510110406760,-0.246582,-0.975586,0.150879
1480510110421299,-0.242676,-0.953613,0.150391
1480510110443858,-0.243652,-0.967773,0.147461
1480510110466418,-0.243164,-0.973145,0.155762
1480510110481458,-0.238281,-0.958984,0.152344
1480510110504018,-0.240234,-0.965332,0.150391
1480510110527080,-0.243652,-0.97998,0.155273
1480510110541618,-0.241211,-0.953125,0.147949
1480510110564179,-0.241699,-0.965332,0.151855
1480510110586559,-0.244141,-0.967285,0.147949
1480510110601779,-0.236816,-0.952148,0.147461
1480510110623837,-0.242188,-0.966309,0.141602
1480510110646397,-0.241699,-0.977539,0.13916
1480510110661437,-0.236328,-0.955566,0.14209
1480510110684002,-0.243652,-0.969727,0.148438
1480510110706557,-0.249023,-0.973633,0.147461
1480510110721597,-0.244629,-0.940918,0.148926
1480510110744157,-0.25,-0.969727,0.143555
1480510110766717,-0.250977,-0.967773,0.147949
1480510110781757,-0.239258,-0.950195,0.144043
1480510110803816,-0.253906,-0.987305,0.151855
1480510110826376,-0.257813,-0.966797,0.138184
1480510110841416,-0.231934,-0.948242,0.140137
1480510110863977,-0.23584,-0.976074,0.147949
1480510110886536,-0.243652,-0.953613,0.157227
1480510110901578,-0.244141,-0.958496,0.157227
1480510110924136,-0.27002,-0.984863,0.130371
1480510110946696,-0.249023,-0.966797,0.125977
1480510110961736,-0.25,-0.932129,0.133789
1480510110983795,-0.251465,-0.975098,0.13623
1480510111006355,-0.240234,-0.961426,0.152344
1480510111021394,-0.259766,-0.956543,0.134277
1480510111043954,-0.240723,-0.953125,0.141602
1480510111066514,-0.204102,-0.951172,0.156738
1480510111081554,-0.205078,-0.976074,0.169922
1480510111104115,-0.240723,-0.986328,0.175781
1480510111126674,-0.236816,-0.94873,0.167969
1480510111141714,-0.228516,-0.974121,0.162598
1480510111163774,-0.239258,-1.00342,0.15625
1480510111186336,-0.248047,-0.949219,0.154785
1480510111201373,-0.248535,-0.949707,0.168457
1480510111223933,-0.279297,-0.986328,0.128418
1480510111246994,-0.239258,-0.94043,0.133789
1480510111261533,-0.196289,-0.952637,0.141113
1480510111285599,-0.178711,-0.970703,0.165039
1480510111306653,-0.185059,-0.937988,0.16748
1480510111329213,-0.231934,-0.96875,0.15918
1480510111343752,-0.280273,-1.01074,0.140137
1480510111366312,-0.276855,-0.961426,0.123535
1480510111388872,-0.253906,-0.946289,0.120117
1480510111411432,-0.25293,-0.971191,0.135254
1480510111426472,-0.255859,-0.933105,0.136719
1480510111449032,-0.253906,-0.947266,0.137207
1480510111471592,-0.260254,-0.984863,0.132813
1480510111486632,-0.241211,-0.95459,0.125977
1480510111509192,-0.245117,-0.967285,0.14209
1480510111524232,-0.250488,-0.996094,0.147461
1480510111546291,-0.239258,-0.970215,0.156738
1480510111568855,-0.236816,-0.95459,0.153809
1480510111583893,-0.239746,-0.982422,0.144531
1480510111609459,-0.243164,-0.955566,0.14502
1480510111629011,-0.246582,-0.95459,0.152344
1480510111644051,-0.244141,-0.965332,0.144531
1480510111666611,-0.239746,-0.959961,0.142578
1480510111689673,-0.23877,-0.974609,0.149902
1480510111704210,-0.244629,-0.977051,0.141602
1480510111726270,-0.237793,-0.95752,0.147461
1480510111749337,-0.241699,-0.963379,0.139648
1480510111763873,-0.244629,-0.964355,0.148926
1480510111786931,-0.248047,-0.959961,0.145508
1480510111808990,-0.256348,-0.987793,0.14209
1480510111824029,-0.260254,-0.979004,0.147949
1480510111846589,-0.244141,-0.947754,0.150879
1480510111869149,-0.273438,-0.973145,0.130371
1480510111884191,-0.277344,-0.946289,0.130859
1480510111915773,-0.256348,-0.921387,0.146973
1480510111929309,-0.264648,-0.969727,0.149902
1480510111943848,-0.255859,-0.958984,0.155762
1480510111973928,-0.233398,-0.922363,0.144531
1480510111988969,-0.259277,-1.00342,0.136719
1480510112004009,-0.296387,-0.984863,0.121094
1480510112026568,-0.27832,-0.913086,0.129883
1480510112049141,-0.262207,-0.963379,0.145508
1480510112064169,-0.249023,-0.96582,0.152344
1480510112086728,-0.208984,-0.903809,0.151367
1480510112108787,-0.147461,-0.965332,0.17334
1480510112123827,-0.160645,-1.00049,0.193848
1480510112146388,-0.220215,-0.960449,0.1875
1480510112168947,-0.27832,-1.00293,0.149414
1480510112183987,-0.242188,-1.00244,0.139648
1480510112206547,-0.230957,-0.96582,0.123535
1480510112229107,-0.25,-0.967285,0.138672
1480510112251667,-0.271973,-0.942871,0.136719
1480510112266707,-0.267578,-0.938477,0.14502
1480510112288766,-0.271484,-0.977051,0.135254
1480510112311326,-0.258301,-0.960938,0.13916
1480510112326365,-0.257813,-0.943359,0.130371
1480510112348926,-0.264648,-0.98584,0.145508
1480510112371486,-0.262207,-0.962891,0.15332
1480510112386610,-0.246094,-0.957031,0.160645
1480510112417609,-0.254395,-0.967773,0.154785
1480510112431646,-0.263672,-0.951172,0.146973
1480510112446686,-0.263184,-0.945801,0.145996
1480510112468745,-0.270996,-0.965332,0.149414
1480510112491304,-0.253906,-0.958984,0.15332
1480510112513864,-0.25,-0.950684,0.143555
1480510112528904,-0.260742,-0.97998,0.149902
1480510112551465,-0.252441,-0.960449,0.149414
1480510112566504,-0.24707,-0.955078,0.153809
1480510112589064,-0.254395,-0.977051,0.144531
1480510112611637,-0.248535,-0.958008,0.138672
1480510112626664,-0.242676,-0.95459,0.141602
1480510112649225,-0.241699,-0.971191,0.144531
1480510112671283,-0.245117,-0.95752,0.154297
1480510112686595,-0.242676,-0.964355,0.152344
1480510112708884,-0.23584,-0.974609,0.152344
1480510112731443,-0.231934,-0.956543,0.150391
1480510112746483,-0.22998,-0.956543,0.155762
1480510112769043,-0.247559,-0.971191,0.153809
1480510112791603,-0.245117,-0.959473,0.142578
1480510112806644,-0.261719,-0.966797,0.138672
1480510112829214,-0.271484,-0.986328,0.146484
1480510112851764,-0.260742,-0.96582,0.148926
1480510112866302,-0.262695,-0.958008,0.150391
1480510112888861,-0.261719,-0.972168,0.138184
1480510112911422,-0.242676,-0.937988,0.144531
1480510112926462,-0.251465,-0.94043,0.13916
1480510112949023,-0.256348,-0.964844,0.136719
1480510112980105,-0.257324,-0.956543,0.132813
1480510112986622,-0.255371,-0.962891,0.145508
1480510113009182,-0.25,-0.962402,0.147949
1480510113031241,-0.241211,-0.951172,0.155762
1480510113054302,-0.243164,-0.976074,0.145508
1480510113068841,-0.253418,-0.982422,0.151367
1480510113091401,-0.237793,-0.959473,0.142578
1480510113106441,-0.246094,-0.974121,0.140625
1480510113129001,-0.25,-0.962891,0.140137
1480510113151563,-0.23877,-0.933594,0.141602
1480510113166601,-0.241699,-0.955078,0.151855
1480510113189161,-0.234375,-0.954102,0.152832
1480510113211721,-0.237793,-0.95459,0.144043
1480510113233780,-0.237305,-0.974609,0.145508
1480510113248819,-0.239258,-0.996094,0.146484
1480510113271379,-0.229004,-0.969238,0.14209
1480510113293940,-0.239746,-0.982422,0.147949
1480510113308979,-0.248535,-0.974609,0.150391
1480510113331541,-0.249512,-0.952148,0.158203
1480510113354101,-0.250977,-0.975586,0.153809
1480510113369139,-0.242676,-0.964844,0.154297
1480510113391699,-0.230957,-0.943359,0.150391
1480510113413758,-0.23877,-0.974609,0.151367
1480510113428801,-0.245117,-0.967285,0.144043
1480510113451358,-0.233887,-0.947754,0.150879
1480510113473918,-0.239746,-0.979492,0.150391
1480510113488958,-0.240723,-0.971191,0.155762
1480510113511518,-0.236816,-0.944824,0.151367
1480510113534079,-0.242188,-0.976074,0.154297
1480510113549119,-0.246094,-0.968262,0.149414
1480510113571678,-0.242676,-0.944824,0.147461
1480510113594238,-0.251465,-0.975098,0.148438
1480510113608777,-0.242676,-0.967285,0.148926
1480510113631338,-0.238281,-0.956543,0.14209
1480510113653985,-0.243164,-0.96875,0.144531
1480510113668937,-0.231934,-0.958984,0.148438
1480510113691497,-0.230469,-0.958984,0.146973
1480510113714057,-0.236816,-0.968262,0.148438
1480510113729100,-0.235352,-0.952148,0.144043
1480510113754665,-0.234863,-0.958984,0.135254
1480510113774219,-0.242676,-0.981934,0.135742
1480510113788756,-0.244141,-0.956543,0.137695
1480510113811316,-0.237305,-0.957031,0.146484
1480510113833876,-0.245605,-0.98584,0.149414
1480510113848916,-0.245605,-0.957031,0.158203
1480510113871475,-0.244629,-0.95752,0.151855
1480510113894036,-0.25,-0.981445,0.15918
1480510113909076,-0.23877,-0.959473,0.158203
1480510113939156,-0.240723,-0.960938,0.146973
1480510113954200,-0.243164,-0.975586,0.150879
1480510113971747,-0.235352,-0.95166,0.147949
1480510113998815,-0.237305,-0.962402,0.162598
1480510114013861,-0.24707,-0.976074,0.155762
1480510114028894,-0.23877,-0.954102,0.14502
1480510114051455,-0.234375,-0.962402,0.149902
1480510114074018,-0.245117,-0.974121,0.150879
1480510114089054,-0.236816,-0.955566,0.144531
1480510114111614,-0.233398,-0.958008,0.146484
1480510114137182,-0.23877,-0.974121,0.155762
1480510114156233,-0.235352,-0.958496,0.143555
1480510114171273,-0.234863,-0.966309,0.144531
1480510114193833,-0.238281,-0.979492,0.147949
1480510114216393,-0.237793,-0.958984,0.156738
1480510114231433,-0.239258,-0.959473,0.15332
1480510114253995,-0.249023,-0.972168,0.166016
1480510114276553,-0.245605,-0.948242,0.154785
1480510114291593,-0.245117,-0.965332,0.145996
1480510114314153,-0.247559,-0.970215,0.155273
1480510114336212,-0.246582,-0.951172,0.150879
1480510114351754,-0.240234,-0.969727,0.151367
1480510114376820,-0.243652,-0.975586,0.15625
1480510114396376,-0.235352,-0.95166,0.154297
1480510114411415,-0.242676,-0.957031,0.15332
1480510114442995,-0.241211,-0.974121,0.145996
1480510114456532,-0.236328,-0.95166,0.154297
1480510114471572,-0.244629,-0.962891,0.15625
1480510114494132,-0.245605,-0.965332,0.151367
1480510114525215,-0.234375,-0.950684,0.150391
1480510114531230,-0.234863,-0.961426,0.149414
1480510114556799,-0.245117,-0.965332,0.143555
1480510114576352,-0.23877,-0.95166,0.155273
1480510114591390,-0.244141,-0.970703,0.149414
1480510114613951,-0.24707,-0.969238,0.150391
1480510114636511,-0.241699,-0.955078,0.146484
1480510114651553,-0.241211,-0.979492,0.154785
1480510114674111,-0.245117,-0.967285,0.156738
1480510114696670,-0.23877,-0.95166,0.154297
1480510114711711,-0.243164,-0.973145,0.152832
1480510114734271,-0.241699,-0.960938,0.15625
1480510114756334,-0.237305,-0.947754,0.155762
1480510114771369,-0.244629,-0.978027,0.149902
1480510114801951,-0.234863,-0.965332,0.154297
1480510114816490,-0.228027,-0.949707,0.148926
1480510114833033,-0.238281,-0.979492,0.147949
1480510114854089,-0.240234,-0.966797,0.15332
1480510114876650,-0.236328,-0.956055,0.144043
1480510114891693,-0.243652,-0.977539,0.144531
1480510114913748,-0.25,-0.962891,0.150879
1480510114936309,-0.243652,-0.952148,0.145508
1480510114951348,-0.248535,-0.969727,0.148926
1480510114973912,-0.251465,-0.956055,0.148926
1480510115005492,-0.243652,-0.950195,0.146484
1480510115011508,-0.26123,-0.980469,0.150879
1480510115034068,-0.246094,-0.96875,0.14502
1480510115059636,-0.21582,-0.960938,0.15625
1480510115079188,-0.225586,-0.978027,0.139648
1480510115093727,-0.246094,-0.964844,0.15918
1480510115116287,-0.23291,-0.960449,0.155762
1480510115138847,-0.255371,-0.962891,0.143555
1480510115153887,-0.244141,-0.941406,0.125977
1480510115176446,-0.23291,-0.976074,0.132813
1480510115199007,-0.254395,-0.995605,0.149902
1480510115214048,-0.25293,-0.955078,0.149902
1480510115236607,-0.244141,-0.946777,0.149902
1480510115259167,-0.238281,-0.979004,0.146973
1480510115274206,-0.240723,-0.946777,0.151855
1480510115296268,-0.22998,-0.960938,0.154297
1480510115318828,-0.26123,-0.980469,0.144531
1480510115333865,-0.229004,-0.965332,0.136719
1480510115356430,-0.243164,-0.979492,0.139648
1480510115378985,-0.249512,-0.980957,0.149414
1480510115394026,-0.240234,-0.937988,0.154297
1480510115416586,-0.242188,-0.945313,0.146484
1480510115439145,-0.241211,-0.994141,0.141602
1480510115454186,-0.245605,-0.95752,0.151855
1480510115476746,-0.251465,-0.962891,0.158203
1480510115498804,-0.262695,-0.975586,0.149902
1480510115521364,-0.237305,-0.942871,0.140625
1480510115536405,-0.234375,-0.972168,0.146973
1480510115559003,-0.246582,-0.984863,0.140625
1480510115574004,-0.235352,-0.939941,0.134766
1480510115596564,-0.242676,-0.960449,0.135742
1480510115627145,-0.246582,-0.980957,0.142578
1480510115636672,-0.236328,-0.95166,0.143555
1480510115665249,-0.242188,-0.963867,0.158203
1480510115678785,-0.248535,-0.963379,0.160645
1480510115693824,-0.237793,-0.946289,0.154785
1480510115716385,-0.247559,-0.974609,0.150879
1480510115738943,-0.236816,-0.97998,0.148926
1480510115753983,-0.265137,-0.951172,0.149902
1480510115778048,-0.220215,-0.98291,0.142578
1480510115799104,-0.21875,-0.972168,0.13916
1480510115814144,-0.251953,-0.952148,0.155273
1480510115836703,-0.242188,-0.969238,0.162598
1480510115858761,-0.252441,-0.950195,0.149414
1480510115873802,-0.236328,-0.939941,0.135254
1480510115896362,-0.246094,-0.998535,0.138672
1480510115918924,-0.250488,-0.972168,0.141602
1480510115933962,-0.236816,-0.938477,0.144043
1480510115956527,-0.251953,-0.97168,0.145996
1480510115979082,-0.241699,-0.971191,0.14209
1480510115994122,-0.232422,-0.9375,0.13916
1480510116016682,-0.239746,-0.963379,0.162109
1480510116038740,-0.249023,-0.98584,0.150391
1480510116061301,-0.244629,-0.953125,0.14209
1480510116076340,-0.259277,-0.980469,0.137695
1480510116098901,-0.254883,-0.981445,0.14502
1480510116121461,-0.250488,-0.937012,0.149902
1480510116139508,-0.248047,-0.972656,0.159668
1480510116159061,-0.23584,-0.965332,0.155762
1480510116190144,-0.256836,-0.956055,0.150879
1480510116196663,-0.23291,-0.958984,0.152344
1480510116219640,-0.23291,-0.959473,0.138672
1480510116241280,-0.244629,-0.955078,0.143555
1480510116256319,-0.248047,-0.987305,0.144531
1480510116278879,-0.239258,-0.970215,0.140625
1480510116301440,-0.234863,-0.958984,0.142578
1480510116323999,-0.272461,-0.958008,0.151367
1480510116339039,-0.229492,-0.977539,0.151367
1480510116361599,-0.233887,-0.998047,0.146973
1480510116376639,-0.248047,-0.957031,0.150879
1480510116399200,-0.246094,-0.951172,0.168945
1480510116421759,-0.253906,-0.959961,0.141113
1480510116445322,-0.246094,-0.93457,0.137695
1480510116458858,-0.229004,-0.961426,0.137207
1480510116481418,-0.245117,-0.981934,0.136719
1480510116503978,-0.266602,-0.972656,0.146973
1480510116519018,-0.243164,-0.964355,0.149414
1480510116541578,-0.249512,-0.982422,0.152344
1480510116556625,-0.254883,-0.96875,0.153809
1480510116579178,-0.239746,-0.942871,0.144531
1480510116601237,-0.229004,-0.944336,0.149902
1480510116616277,-0.231934,-0.97168,0.152832
1480510116638837,-0.23877,-0.959473,0.155762
1480510116661401,-0.242676,-0.964844,0.150391
1480510116676437,-0.246094,-0.967773,0.13916
1480510116698996,-0.243652,-0.949707,0.129883
1480510116721557,-0.257324,-0.963379,0.136719
1480510116752639,-0.259766,-0.968262,0.136719
1480510116759157,-0.258789,-0.958008,0.158691
1480510116781215,-0.25,-0.967285,0.160645
1480510116796756,-0.250488,-0.960449,0.154785
1480510116819317,-0.23877,-0.960449,0.151367
1480510116841375,-0.236816,-0.973145,0.152832
1480510116863937,-0.245117,-0.960449,0.148438
1480510116878975,-0.247559,-0.947754,0.146973
1480510116901535,-0.244629,-0.967285,0.138672
1480510116916575,-0.249512,-0.964355,0.146973
1480510116939136,-0.245605,-0.964355,0.140137
1480510116961695,-0.241699,-0.976074,0.156738
1480510116984256,-0.25293,-0.969238,0.157227
1480510116998794,-0.234863,-0.946777,0.15918
1480510117022859,-0.244141,-0.947754,0.151855
1480510117043915,-0.25,-0.97998,0.130859
1480510117061962,-0.244141,-0.968262,0.131836
1480510117081515,-0.259277,-0.959961,0.149902
1480510117104074,-0.26123,-0.962891,0.146484
1480510117119115,-0.244629,-0.944336,0.144043
1480510117141674,-0.241211,-0.96582,0.140137
1480510117163733,-0.253906,-0.964844,0.15332
1480510117178773,-0.241211,-0.952148,0.154297
1480510117201334,-0.250488,-0.976074,0.154297
1480510117223893,-0.249512,-0.978516,0.150391
1480510117241941,-0.237305,-0.966797,0.148926
1480510117261493,-0.242676,-0.969238,0.150391
1480510117284054,-0.236816,-0.953125,0.152344
1480510117300598,-0.24707,-0.959473,0.154297
1480510117330180,-0.260742,-0.977539,0.162598
1480510117344213,-0.256348,-0.959961,0.159668
1480510117367776,-0.250977,-0.94873,0.149414
1480510117381312,-0.259277,-0.973633,0.138184
1480510117403872,-0.240723,-0.970215,0.14209
1480510117418912,-0.241699,-0.953613,0.13916
1480510117441472,-0.255371,-0.971191,0.148926
1480510117464032,-0.26123,-0.956543,0.141602
1480510117479071,-0.250977,-0.952148,0.137207
1480510117501631,-0.253418,-0.975586,0.145508
1480510117524191,-0.245117,-0.957031,0.160645
1480510117539231,-0.247559,-0.940918,0.147949
1480510117546250,-0.245117,-0.95752,0.152344
1480510117568810,-0.249023,-0.968262,0.15332
1480510117592875,-0.23877,-0.95752,0.155762
1480510117615435,-0.248535,-0.953613,0.146973
1480510117628971,-0.253906,-0.956543,0.143555
1480510117653034,-0.240723,-0.955078,0.147949
1480510117675093,-0.241211,-0.973633,0.148926
1480510117689131,-0.243164,-0.97168,0.14502
1480510117712694,-0.25293,-0.977051,0.142578
1480510117726229,-0.23584,-0.984375,0.146484
1480510117748790,-0.221191,-0.962891,0.154297
1480510117772853,-0.238281,-0.957031,0.161621
1480510117786390,-0.25,-0.969238,0.163574
1480510117808949,-0.250977,-0.968262,0.152344
1480510117833014,-0.242676,-0.949219,0.14209
1480510117846549,-0.258301,-0.979492,0.147949
1480510117869109,-0.251953,-0.957031,0.15625
1480510117892672,-0.253906,-0.954102,0.154297
1480510117906709,-0.268555,-0.96875,0.149902
1480510117929269,-0.239258,-0.978027,0.149902
1480510117953019,-0.234863,-0.941406,0.143555
1480510117966369,-0.263672,-0.953125,0.154297
1480510117988928,-0.246094,-0.952637,0.13916
1480510118012991,-0.250488,-0.953613,0.129883
1480510118026528,-0.257813,-0.963379,0.126465
1480510118049089,-0.236816,-0.986328,0.140137
1480510118072650,-0.263184,-0.962402,0.160156
1480510118086189,-0.263672,-0.976074,0.15625
1480510118108747,-0.261719,-0.942871,0.147949
1480510118133313,-0.229492,-0.971191,0.151855
1480510118146347,-0.231445,-0.969238,0.138184
1480510118168907,-0.260254,-0.940918,0.162598
1480510118192971,-0.243652,-0.976074,0.146973
1480510118206507,-0.230469,-0.970215,0.138672
1480510118229066,-0.234375,-0.948242,0.135742
1480510118252631,-0.23877,-0.998047,0.145508
1480510118266667,-0.257324,-0.962402,0.157227
1480510118289227,-0.251953,-0.944336,0.148926
1480510118312789,-0.255859,-0.973145,0.144043
1480510118326325,-0.247559,-0.968262,0.153809
1480510118348886,-0.24707,-0.950684,0.147949
1480510118371947,-0.242676,-0.95752,0.143066
1480510118386487,-0.253418,-0.96582,0.14209
1480510118409547,-0.243164,-0.960938,0.136719
1480510118440129,-0.249512,-0.974609,0.135742
1480510118446645,-0.242188,-0.96582,0.144043
1480510118469207,-0.239258,-0.947754,0.153809
1480510118492267,-0.25,-0.973145,0.148926
1480510118506304,-0.249512,-0.971191,0.125488
1480510118528864,-0.281738,-0.946289,0.125
1480510118551427,-0.267578,-0.978027,0.148438
1480510118575989,-0.273926,-0.95752,0.147949
1480510118589025,-0.266113,-0.953613,0.156738
1480510118611585,-0.264648,-0.972656,0.164551
1480510118635147,-0.242188,-0.95166,0.175293
1480510118649185,-0.229492,-0.952148,0.172852
1480510118671256,-0.239746,-0.979492,0.168457
1480510118695307,-0.232422,-0.968262,0.16748
1480510118708843,-0.222656,-0.966309,0.156738
1480510118731403,-0.226074,-0.981934,0.158691
1480510118755467,-0.230469,-0.961426,0.147461
1480510118769003,-0.227051,-0.953125,0.136719
1480510118791563,-0.245117,-0.967285,0.139648
1480510118815125,-0.246094,-0.946289,0.143555
1480510118829162,-0.252441,-0.948242,0.147461
1480510118851726,-0.254395,-0.964844,0.145996
1480510118875286,-0.249512,-0.95459,0.148926
1480510118888822,-0.246582,-0.95459,0.156738
1480510118911382,-0.255371,-0.975098,0.149414
1480510118935446,-0.25293,-0.951172,0.149414
1480510118948982,-0.25,-0.961426,0.149414
1480510118971542,-0.268555,-0.974121,0.148438
1480510118995104,-0.264648,-0.942871,0.15625
1480510119009142,-0.25293,-0.963379,0.152344
1480510119031200,-0.26416,-0.97168,0.151855
1480510119055264,-0.255859,-0.944824,0.156738
1480510119068801,-0.245117,-0.958984,0.150879
1480510119091360,-0.250977,-0.979492,0.157715
1480510119115425,-0.243164,-0.956055,0.158203
1480510119128960,-0.24707,-0.959961,0.152344
1480510119151520,-0.248047,-0.976074,0.153809
1480510119176086,-0.249023,-0.946289,0.153809
1480510119197659,-0.257324,-0.956543,0.140625
1480510119211179,-0.256348,-0.972168,0.145508
1480510119235243,-0.244141,-0.951172,0.139648
1480510119248779,-0.250488,-0.963867,0.154785
1480510119271339,-0.26416,-0.965332,0.147461
1480510119295404,-0.254883,-0.95166,0.148438
1480510119308939,-0.243164,-0.967773,0.148438
1480510119331499,-0.251953,-0.959961,0.149902
1480510119355061,-0.255371,-0.945801,0.14502
1480510119369102,-0.258789,-0.971191,0.145508
1480510119391659,-0.259277,-0.96875,0.148438
1480510119415222,-0.256348,-0.942383,0.145996
1480510119428758,-0.256836,-0.968262,0.149414
1480510119451319,-0.262695,-0.97168,0.154785
1480510119475381,-0.254883,-0.942871,0.149414
1480510119489420,-0.259766,-0.961914,0.151855
1480510119511478,-0.26123,-0.970215,0.156738
1480510119534539,-0.252441,-0.95166,0.155762
1480510119549079,-0.255859,-0.970703,0.151855
1480510119571641,-0.258301,-0.968262,0.145996
1480510119593697,-0.246582,-0.950684,0.153809
1480510119608736,-0.251465,-0.972656,0.156738
1480510119631296,-0.249512,-0.960449,0.161621
1480510119653859,-0.246094,-0.943359,0.152344
1480510119668897,-0.262695,-0.964844,0.148926
1480510119691457,-0.262207,-0.962402,0.154785
1480510119714017,-0.256836,-0.95459,0.148926
1480510119729056,-0.263184,-0.966797,0.155762
1480510119751617,-0.257813,-0.953613,0.148926
1480510119773675,-0.244141,-0.945313,0.145996
1480510119805259,-0.249512,-0.972656,0.142578
1480510119819297,-0.251953,-0.954102,0.151367
1480510119833836,-0.244141,-0.949707,0.147949
1480510119848876,-0.248047,-0.972168,0.160645
1480510119871437,-0.253418,-0.963379,0.163574
1480510119893996,-0.257813,-0.949219,0.154785
1480510119909036,-0.264648,-0.982422,0.155273
1480510119931595,-0.261719,-0.961914,0.152832
1480510119954155,-0.255859,-0.939453,0.144043
1480510119969195,-0.251953,-0.979492,0.146484
1480510119991254,-0.248047,-0.958008,0.152832
1480510120014315,-0.245605,-0.947266,0.15625
1480510120028854,-0.257324,-0.976563,0.149414
1480510120051414,-0.254883,-0.955566,0.150879
1480510120074475,-0.244629,-0.946289,0.149902
1480510120113579,-0.25293,-0.974609,0.152344
1480510120116086,-0.253418,-0.95459,0.150391
1480510120134136,-0.25,-0.953613,0.160156
1480510120157698,-0.259766,-0.979492,0.152344
1480510120171234,-0.253418,-0.95166,0.154785
1480510120193793,-0.254395,-0.957031,0.151855
1480510120217859,-0.260742,-0.981445,0.15625
1480510120231393,-0.247559,-0.951172,0.15918
1480510120253953,-0.255859,-0.959473,0.151367
1480510120278017,-0.258789,-0.969727,0.149902
1480510120291554,-0.249023,-0.953613,0.15625
1480510120314113,-0.249023,-0.951172,0.152344
1480510120337676,-0.257324,-0.967773,0.150391
1480510120351212,-0.253906,-0.958496,0.146973
1480510120373771,-0.249512,-0.95752,0.150391
1480510120397836,-0.256348,-0.974121,0.148926
1480510120411372,-0.249512,-0.952148,0.146484
1480510120433935,-0.246582,-0.960938,0.148926
1480510120457995,-0.252441,-0.978027,0.153809
1480510120471532,-0.249023,-0.956055,0.150879
1480510120494092,-0.250977,-0.956055,0.150879
1480510120517156,-0.260254,-0.975098,0.160156
1480510120531692,-0.251953,-0.952637,0.15625
1480510120554251,-0.251953,-0.960938,0.158203
1480510120576310,-0.255371,-0.974609,0.15625
1480510120600376,-0.245605,-0.95459,0.158691
1480510120613911,-0.240234,-0.959961,0.146484
1480510120644994,-0.26123,-0.973633,0.160156
1480510120660033,-0.248535,-0.952637,0.149902
1480510120674074,-0.26123,-0.955078,0.157715
1480510120696630,-0.26123,-0.964844,0.155273
1480510120711169,-0.241699,-0.950684,0.151855
1480510120733731,-0.244141,-0.964355,0.14209
1480510120756294,-0.25293,-0.968262,0.143066
1480510120771329,-0.256836,-0.955078,0.151855
1480510120793889,-0.255371,-0.962891,0.144531
1480510120816449,-0.254395,-0.967285,0.150879
1480510120831489,-0.248535,-0.94043,0.151367
1480510120854049,-0.256836,-0.960449,0.149902
1480510120876609,-0.266113,-0.977539,0.153809
1480510120891147,-0.250488,-0.944824,0.151855
1480510120914209,-0.257813,-0.961426,0.143555
1480510120936769,-0.262695,-0.979004,0.150391
1480510120954316,-0.272949,-0.952148,0.134277
1480510120973867,-0.251953,-0.946289,0.147949
1480510120996428,-0.235352,-0.970703,0.135742
1480510121011468,-0.247559,-0.952637,0.166504
1480510121034028,-0.26123,-1.01074,0.157715
1480510121056588,-0.28418,-0.962891,0.148438
1480510121071636,-0.246094,-0.885742,0.13916
1480510121094188,-0.239746,-0.984375,0.151855
1480510121116247,-0.263184,-0.98584,0.141602
1480510121131287,-0.27002,-0.912109,0.155762
1480510121154348,-0.280273,-0.950684,0.143066
1480510121185431,-0.224121,-1.00781,0.131348
1480510121191446,-0.263672,-0.932617,0.130371
1480510121214508,-0.276367,-0.955566,0.16748
1480510121236567,-0.279297,-0.979492,0.160645
1480510121260129,-0.249512,-0.913574,0.145996
1480510121274170,-0.243652,-0.956055,0.140137
1480510121296233,-0.227051,-0.979492,0.144531
1480510121311265,-0.260742,-0.959473,0.152344
1480510121333828,-0.265137,-0.974121,0.140625
1480510121356385,-0.239746,-0.957031,0.144531
1480510121371425,-0.236816,-0.951172,0.14209
1480510121393985,-0.269043,-0.991211,0.162109
1480510121416550,-0.283691,-0.956543,0.154297
1480510121434593,-0.257813,-0.92041,0.150391
1480510121453646,-0.241699,-0.964844,0.154297
1480510121476204,-0.242188,-0.979004,0.15918
1480510121494257,-0.270996,-0.957031,0.146973
1480510121513804,-0.279297,-0.978516,0.13916
1480510121536364,-0.264648,-0.951172,0.140137
1480510121558925,-0.260254,-0.937012,0.134277
1480510121573968,-0.260742,-0.984863,0.135254
1480510121596524,-0.265625,-0.967773,0.148438
1480510121619084,-0.266113,-0.943848,0.15918
1480510121634125,-0.267578,-0.969727,0.15625
1480510121656183,-0.258301,-0.954102,0.157227
1480510121678743,-0.254883,-0.956055,0.148926
1480510121693783,-0.271973,-0.970215,0.144531
1480510121716344,-0.260254,-0.941406,0.147461
1480510121738903,-0.262207,-0.95459,0.142578
1480510121753958,-0.266113,-0.964844,0.146973
1480510121776503,-0.237793,-0.959961,0.14209
1480510121799063,-0.265137,-0.961426,0.148926
1480510121814103,-0.256348,-0.973145,0.141602
1480510121836663,-0.246094,-0.95752,0.129395
1480510121858722,-0.259766,-0.946289,0.158691
1480510121873761,-0.274414,-0.971191,0.162598
1480510121896321,-0.258789,-0.938477,0.150879
1480510121918881,-0.251953,-0.925781,0.14209
1480510121933921,-0.267578,-0.976563,0.131348
1480510121956481,-0.263184,-0.974609,0.137695
1480510121979041,-0.270996,-0.964355,0.150879
1480510121994082,-0.275391,-0.970703,0.159668
1480510122016641,-0.263184,-0.955078,0.151367
1480510122047725,-0.248535,-0.954102,0.144531
1480510122053881,-0.266602,-0.965332,0.155762
1480510122076300,-0.256348,-0.945801,0.136719
1480510122098861,-0.246094,-0.944824,0.132813
1480510122113900,-0.258301,-0.970215,0.166992
1480510122136461,-0.262207,-0.975098,0.163086
1480510122159021,-0.270508,-0.960938,0.149902
1480510122174060,-0.273438,-0.933594,0.134766
1480510122196620,-0.260742,-0.961914,0.135742
1480510122219380,-0.273438,-0.981445,0.14209
1480510122234221,-0.273926,-0.947266,0.146973
1480510122256284,-0.272949,-0.942383,0.157715
1480510122278839,-0.267578,-0.98584,0.14502
1480510122295388,-0.229004,-0.943359,0.146484
1480510122316441,-0.263672,-0.946777,0.160645
1480510122338999,-0.276855,-0.98584,0.157715
1480510122357047,-0.268066,-0.949707,0.147949
1480510122376604,-0.254883,-0.949707,0.147949
1480510122399175,-0.270996,-0.983398,0.145508
1480510122413698,-0.276855,-0.949219,0.148926
1480510122436258,-0.265625,-0.934082,0.132324
1480510122466839,-0.276855,-0.961914,0.141113
1480510122476866,-0.251953,-0.992676,0.138184
1480510122496418,-0.243652,-0.939453,0.150879
1480510122518979,-0.275391,-0.968262,0.160645
1480510122534018,-0.270996,-0.957031,0.150879
1480510122556579,-0.260254,-0.935059,0.14209
1480510122579137,-0.279297,-0.967285,0.13916
1480510122593695,-0.259277,-0.978027,0.145996
1480510122616254,-0.261719,-0.950684,0.150391
1480510122638797,-0.280762,-0.959961,0.151855
1480510122653837,-0.262695,-0.960449,0.148926
1480510122676396,-0.25,-0.950195,0.157227
1480510122698957,-0.261719,-0.966309,0.152344
1480510122713996,-0.254395,-0.952148,0.148926
1480510122739063,-0.250977,-0.960449,0.145508
1480510122759116,-0.256836,-0.980469,0.145508
1480510122774166,-0.257324,-0.953613,0.142578
1480510122796215,-0.250977,-0.953613,0.144531
1480510122818777,-0.256836,-0.972656,0.151367
1480510122833815,-0.262207,-0.949219,0.156738
1480510122856376,-0.269043,-0.949219,0.160645
1480510122879436,-0.273438,-0.972168,0.154297
1480510122893975,-0.272461,-0.952637,0.151367
1480510122916552,-0.251953,-0.956055,0.153809
1480510122939095,-0.266602,-0.982422,0.155762
1480510122954151,-0.255859,-0.953613,0.143066
1480510122976695,-0.260254,-0.96582,0.154785
1480510122998754,-0.272949,-0.968262,0.150391
1480510123021314,-0.261719,-0.945801,0.141602
1480510123036354,-0.262695,-0.960449,0.140625
1480510123058914,-0.267578,-0.963867,0.149414
1480510123081483,-0.266602,-0.93457,0.143066
1480510123098018,-0.262207,-0.959961,0.145996
1480510123119074,-0.270996,-0.973633,0.152344
1480510123141634,-0.272461,-0.954102,0.150391
1480510123156174,-0.264648,-0.956055,0.151855
1480510123178733,-0.266602,-0.96875,0.15332
1480510123201294,-0.257324,-0.942871,0.152832
1480510123216333,-0.269531,-0.958008,0.145996
1480510123238893,-0.266602,-0.966797,0.147461
1480510123261453,-0.265137,-0.942871,0.139648
1480510123276493,-0.269043,-0.964355,0.144043
1480510123299053,-0.268555,-0.977539,0.154785
1480510123321612,-0.262695,-0.952637,0.153809
1480510123336653,-0.272949,-0.961426,0.148926
1480510123359212,-0.271484,-0.955078,0.160156
1480510123381294,-0.259766,-0.946289,0.150879
1480510123396324,-0.276855,-0.970215,0.156738
1480510123418872,-0.271484,-0.956543,0.150391
1480510123441431,-0.25,-0.947266,0.153809
1480510123456472,-0.257324,-0.972168,0.150391
1480510123479032,-0.270508,-0.961426,0.150879
1480510123501592,-0.267578,-0.943848,0.146484
1480510123516645,-0.272461,-0.965332,0.149414
1480510123538690,-0.262695,-0.944336,0.15625
1480510123561252,-0.262695,-0.944336,0.151855
1480510123576290,-0.274902,-0.968262,0.151855
1480510123598851,-0.273926,-0.944824,0.150879
1480510123621410,-0.261719,-0.946777,0.142578
1480510123643970,-0.266113,-0.977539,0.146484
1480510123659011,-0.272949,-0.946777,0.147949
1480510123681571,-0.255859,-0.941895,0.138672
1480510123696611,-0.260742,-0.970215,0.145996
1480510123721677,-0.271973,-0.956055,0.148926
1480510123741230,-0.265625,-0.950195,0.158203
1480510123756268,-0.271973,-0.975586,0.166992
1480510123778829,-0.262207,-0.960938,0.159668
1480510123801390,-0.250977,-0.955078,0.14209
1480510123817934,-0.260254,-0.970215,0.148926
1480510123838989,-0.262207,-0.937012,0.152344
1480510123861550,-0.258301,-0.937988,0.146973
1480510123876593,-0.276855,-0.966797,0.151855
1480510123898648,-0.257813,-0.944336,0.147949
1480510123921722,-0.268066,-0.960938,0.149414
1480510123936248,-0.28125,-0.994629,0.152344
1480510123961820,-0.270508,-0.960449,0.149414
1480510123990391,-0.258789,-0.95459,0.152832
1480510123996408,-0.256348,-0.984863,0.146973
1480510124020473,-0.257813,-0.945801,0.15625
1480510124041528,-0.265625,-0.941895,0.150879
1480510124056569,-0.276367,-0.977539,0.141113
1480510124078626,-0.269531,-0.949219,0.144043
1480510124101187,-0.268555,-0.955566,0.14502
1480510124123746,-0.276367,-0.970215,0.15332
1480510124138786,-0.268066,-0.942871,0.146973
1480510124161347,-0.258301,-0.956543,0.156738
1480510124176402,-0.266113,-0.96582,0.162109
1480510124198946,-0.280273,-0.949707,0.146484
1480510124221525,-0.272949,-0.951172,0.145996
1480510124238050,-0.270996,-0.967773,0.147949
1480510124259106,-0.263184,-0.946777,0.146484
1480510124281173,-0.26709,-0.958984,0.150391
1480510124298712,-0.269043,-0.97168,0.154297
1480510124318767,-0.251465,-0.94873,0.152344
1480510124341326,-0.252441,-0.959473,0.163574
1480510124356365,-0.256348,-0.961914,0.149902
1480510124378925,-0.239746,-0.931152,0.155762
1480510124401485,-0.256836,-0.953613,0.152832
1480510124416529,-0.278809,-0.976074,0.138184
1480510124439085,-0.275391,-0.937012,0.141602
1480510124461645,-0.273926,-0.964844,0.133301
1480510124483706,-0.274902,-0.974121,0.146973
1480510124498745,-0.273438,-0.944336,0.155762
1480510124521332,-0.276855,-0.951172,0.155273
1480510124543864,-0.27002,-0.96582,0.152344
1480510124558903,-0.254883,-0.949219,0.15625
1480510124581464,-0.267578,-0.966797,0.149902
1480510124604023,-0.278809,-0.963867,0.158691
1480510124619065,-0.268066,-0.950195,0.150391
1480510124641624,-0.27002,-0.964844,0.151855
1480510124663683,-0.260254,-0.970215,0.157715
1480510124678723,-0.256836,-0.941895,0.157715
1480510124701283,-0.272461,-0.963867,0.165039
1480510124723844,-0.268555,-0.964844,0.158691
1480510124741891,-0.26416,-0.944336,0.144043
1480510124761443,-0.26709,-0.968262,0.146484
1480510124784003,-0.273926,-0.956055,0.155273
1480510124802051,-0.265625,-0.932617,0.150879
1480510124821605,-0.283203,-0.96582,0.148926
1480510124844169,-0.28418,-0.956543,0.149414
1480510124866225,-0.258789,-0.944336,0.151367
1480510124881262,-0.260254,-0.973633,0.161621
1480510124903821,-0.269043,-0.960938,0.165039
1480510124918862,-0.283203,-0.943848,0.15332
1480510124941422,-0.285156,-0.96582,0.150391
1480510124963981,-0.262695,-0.961914,0.148438
1480510124979022,-0.279297,-0.936035,0.162598
1480510125001581,-0.277344,-0.964844,0.155762
1480510125023641,-0.276855,-0.952148,0.159668
1480510125046200,-0.290039,-0.938477,0.14209
1480510125061240,-0.246582,-0.983887,0.154297
1480510125083800,-0.257324,-0.942871,0.157227
1480510125101849,-0.263184,-0.94043,0.166992
1480510125121400,-0.276855,-0.975098,0.147949
1480510125143960,-0.26709,-0.942383,0.147461
1480510125159000,-0.243652,-0.935059,0.149414
1480510125181561,-0.250488,-0.980469,0.158203
1480510125204121,-0.270996,-0.94873,0.166016
1480510125218659,-0.272949,-0.944824,0.172363
1480510125241218,-0.287598,-0.978027,0.165039
1480510125263779,-0.277832,-0.95752,0.160156
1480510125278819,-0.271973,-0.944336,0.156738
1480510125301379,-0.290527,-0.95752,0.160156
1480510125323939,-0.271484,-0.935547,0.163574
1480510125338979,-0.254395,-0.955078,0.154297
1480510125361539,-0.248535,-0.974609,0.157715
1480510125384099,-0.24707,-0.946289,0.161621
1480510125399139,-0.252441,-0.951172,0.171387
1480510125421198,-0.276367,-0.97168,0.16748
1480510125443759,-0.274902,-0.958984,0.148438
1480510125458797,-0.271973,-0.950195,0.152832
1480510125481358,-0.267578,-0.963867,0.155273
1480510125503917,-0.268066,-0.947754,0.154785
1480510125526479,-0.266602,-0.945313,0.157715
1480510125541518,-0.285156,-0.959473,0.151855
1480510125564077,-0.279297,-0.961426,0.141113
1480510125603683,-0.275391,-0.949219,0.151855
1480510125605696,-0.272461,-0.969238,0.148926
1480510125626744,-0.272461,-0.954102,0.157227
1480510125646296,-0.265625,-0.95752,0.163086
1480510125664344,-0.267578,-0.963379,0.161133
1480510125683897,-0.271484,-0.950684,0.150879
1480510125706456,-0.266113,-0.959473,0.146484
1480510125721496,-0.265137,-0.966309,0.15332
1480510125744056,-0.26123,-0.954102,0.152344
1480510125766616,-0.250977,-0.954102,0.15918
1480510125781155,-0.271484,-0.964355,0.148438
1480510125803715,-0.263672,-0.945313,0.147461
1480510125826275,-0.264648,-0.951172,0.155762
1480510125848837,-0.26123,-0.965332,0.155273
1480510125863875,-0.259766,-0.942871,0.14502
1480510125886435,-0.27002,-0.971191,0.150879
1480510125901475,-0.265137,-0.97168,0.153809
1480510125924035,-0.265137,-0.945801,0.153809
1480510125946595,-0.263184,-0.966797,0.154785
1480510125968653,-0.288574,-0.963379,0.151855
1480510125983694,-0.273926,-0.922363,0.14502
1480510126006254,-0.289063,-0.95166,0.146973
1480510126021295,-0.274414,-0.972656,0.141113
1480510126043854,-0.250488,-0.945801,0.151855
1480510126066415,-0.282715,-0.979004,0.16748
1480510126081455,-0.263184,-0.970703,0.164063
1480510126104013,-0.213867,-0.937012,0.155273
1480510126126573,-0.247559,-0.957031,0.151855
1480510126141613,-0.288574,-0.962891,0.167969
1480510126164174,-0.283691,-0.948242,0.149414
1480510126186232,-0.266113,-0.945801,0.134766
1480510126201273,-0.244141,-0.933105,0.135254
1480510126223833,-0.25293,-0.979004,0.148926
1480510126246392,-0.291016,-0.977539,0.152344
1480510126261433,-0.296387,-0.941406,0.151367
1480510126283992,-0.270508,-0.94043,0.15332
1480510126309059,-0.248535,-0.984863,0.163574
1480510126321593,-0.261719,-0.945313,0.157715
1480510126347663,-0.28418,-0.944824,0.161621
1480510126366213,-0.260742,-0.975586,0.153809
1480510126381253,-0.253906,-0.945801,0.154297
1480510126403812,-0.263184,-0.949219,0.143555
1480510126429381,-0.277832,-0.980957,0.150879
1480510126441412,-0.276855,-0.96582,0.144043
1480510126463972,-0.263184,-0.939941,0.152832
1480510126489540,-0.285156,-0.961426,0.143066
1480510126509091,-0.279785,-0.942383,0.154297
1480510126523631,-0.26123,-0.952637,0.159668
1480510126547694,-0.271973,-0.966797,0.154297
1480510126568751,-0.255859,-0.935547,0.145996
1480510126583791,-0.244629,-0.970215,0.141113
1480510126606350,-0.274902,-1.00049,0.145508
1480510126628911,-0.271973,-0.950195,0.15625
1480510126643950,-0.275391,-0.941406,0.166504
1480510126666510,-0.255371,-0.946777,0.154785
1480510126689070,-0.263672,-0.939453,0.151367
1480510126711129,-0.27832,-0.958496,0.152344
1480510126726168,-0.277344,-0.963379,0.155762
1480510126748730,-0.269531,-0.948242,0.149902
1480510126763769,-0.272461,-0.960449,0.155762
1480510126786960,-0.276367,-0.979492,0.149902
1480510126808889,-0.275879,-0.946777,0.15918
1480510126823929,-0.26709,-0.941895,0.160156
1480510126846490,-0.266602,-0.95752,0.157715
1480510126869049,-0.259277,-0.960938,0.155762
1480510126884088,-0.268555,-0.959961,0.155762
1480510126906147,-0.273926,-0.963867,0.159668
1480510126928717,-0.266113,-0.946777,0.154297
1480510126943748,-0.260742,-0.955566,0.141602
1480510126966308,-0.271973,-0.964844,0.152832
1480510126997891,-0.257813,-0.937988,0.153809
1480510127003907,-0.26416,-0.960449,0.149902
1480510127026467,-0.274902,-0.976563,0.149414
1480510127049027,-0.26416,-0.953613,0.151855
1480510127064067,-0.259277,-0.958984,0.158203
1480510127086628,-0.270508,-0.963379,0.166016
1480510127108686,-0.263672,-0.951172,0.157715
1480510127125230,-0.26709,-0.961426,0.144531
1480510127146286,-0.269531,-0.955566,0.152344
1480510127168846,-0.26416,-0.942383,0.154785
1480510127183891,-0.268066,-0.969727,0.149414
1480510127206450,-0.271973,-0.96875,0.148438
1480510127229006,-0.266602,-0.949219,0.146484
1480510127244047,-0.269531,-0.962402,0.146973
1480510127266108,-0.274414,-0.963867,0.152344
1480510127288665,-0.277344,-0.95459,0.153809
1480510127303704,-0.265137,-0.966797,0.158203
1480510127326265,-0.276367,-0.952148,0.156738
1480510127348825,-0.269531,-0.928711,0.148926
1480510127363865,-0.277832,-0.960449,0.142578
1480510127386926,-0.265625,-0.959961,0.14209
1480510127408985,-0.255859,-0.94043,0.141602
1480510127440569,-0.275391,-0.956543,0.144043
1480510127455108,-0.276367,-0.964844,0.146973
1480510127468644,-0.259277,-0.951172,0.15332
1480510127491204,-0.276855,-0.963379,0.143555
1480510127506244,-0.286133,-0.951172,0.142578
1480510127528804,-0.263672,-0.947266,0.142578
1480510127551379,-0.258789,-0.973145,0.142578
1480510127571417,-0.250488,-0.945313,0.164063
1480510127588964,-0.251953,-0.957031,0.167969
1480510127611524,-0.27002,-0.96875,0.166016
1480510127626564,-0.264648,-0.947266,0.157715
1480510127648624,-0.256348,-0.952148,0.165039
1480510127671182,-0.270508,-0.996094,0.161133
1480510127686222,-0.271973,-0.962891,0.155273
1480510127708782,-0.253906,-0.94043,0.151855
1480510127731344,-0.260254,-0.969727,0.143555
1480510127746383,-0.268066,-0.94043,0.14502
1480510127768943,-0.26123,-0.928711,0.140625
1480510127791502,-0.266602,-0.984863,0.138672
1480510127806542,-0.235352,-0.952637,0.157715
1480510127829102,-0.254883,-0.955078,0.165039
1480510127851663,-0.256348,-0.964844,0.161621
1480510127866201,-0.266602,-0.920898,0.139648
1480510127888761,-0.256348,-0.935547,0.134277
1480510127911822,-0.26709,-0.997559,0.13916
1480510127926362,-0.271973,-0.973145,0.144531
1480510127948931,-0.295898,-0.950684,0.146973
1480510127971481,-0.243652,-0.947754,0.15918
1480510127986522,-0.24707,-0.965332,0.155762
1480510128009082,-0.26123,-0.962891,0.175781
1480510128031642,-0.286621,-0.958496,0.174805
1480510128046180,-0.290527,-0.935059,0.15918
1480510128068740,-0.281738,-0.930176,0.133789
1480510128091300,-0.28418,-0.980469,0.117676
1480510128106339,-0.26709,-0.964844,0.124512
1480510128128900,-0.268066,-0.930664,0.155762
1480510128152964,-0.268066,-0.963379,0.163086
1480510128166501,-0.266602,-0.943359,0.167969
1480510128189060,-0.261719,-0.948242,0.155273
1480510128220143,-0.274414,-0.976563,0.14209
1480510128226159,-0.268066,-0.96875,0.143066
1480510128248720,-0.266113,-0.949707,0.155273
1480510128271279,-0.280273,-0.959473,0.143066
1480510128286319,-0.269531,-0.956055,0.147949
1480510128308879,-0.265625,-0.953125,0.145508
1480510128331439,-0.276367,-0.959473,0.147461
1480510128346479,-0.26709,-0.944824,0.144531
1480510128369038,-0.269531,-0.960449,0.154785
1480510128400123,-0.268066,-0.969727,0.166016
1480510128413659,-0.263184,-0.939941,0.15332
1480510128431706,-0.271973,-0.963379,0.155273
1480510128451259,-0.275391,-0.973633,0.157227
1480510128473818,-0.266602,-0.944336,0.154297
1480510128488858,-0.266113,-0.964355,0.154785
1480510128511422,-0.273926,-0.969727,0.154785
1480510128533979,-0.26416,-0.950684,0.15918
1480510128549018,-0.263184,-0.963379,0.153809
1480510128571577,-0.263672,-0.964355,0.153809
1480510128593636,-0.258789,-0.944336,0.145508
1480510128608678,-0.275879,-0.963867,0.149414
1480510128631237,-0.277344,-0.959961,0.150879
1480510128653796,-0.271484,-0.937988,0.145996
1480510128668836,-0.277344,-0.956055,0.155762
1480510128691396,-0.274414,-0.967285,0.15332
1480510128713956,-0.270996,-0.958496,0.151855
1480510128728997,-0.276367,-0.960938,0.151855
1480510128751557,-0.266602,-0.964844,0.155762
1480510128774116,-0.257813,-0.943848,0.156738
1480510128788654,-0.276367,-0.953613,0.146484
1480510128811215,-0.275879,-0.946289,0.147949
1480510128833775,-0.26123,-0.941895,0.143066
1480510128848816,-0.263184,-0.966797,0.149902
1480510128871375,-0.269043,-0.955078,0.149414
1480510128893937,-0.272949,-0.944824,0.147461
1480510128908975,-0.280273,-0.966797,0.143555
1480510128931535,-0.270996,-0.952637,0.151367
1480510128954096,-0.26709,-0.953125,0.154297
1480510128968633,-0.275391,-0.972656,0.156738
1480510128991195,-0.267578,-0.958008,0.154785
1480510129013754,-0.269043,-0.95166,0.13623
1480510129028794,-0.279785,-0.972656,0.156738
1480510129051354,-0.286621,-0.949219,0.158203
1480510129073914,-0.283691,-0.947754,0.159668
1480510129088954,-0.273438,-0.958496,0.168457
1480510129111514,-0.260742,-0.95752,0.172852
1480510129134073,-0.265625,-0.952148,0.165039
1480510129156137,-0.266602,-0.963379,0.152344
1480510129171172,-0.250977,-0.961426,0.149902
1480510129193733,-0.245605,-0.954102,0.146973
1480510129208773,-0.262207,-0.97998,0.150879
1480510129231332,-0.261719,-0.938965,0.143555
1480510129253892,-0.25293,-0.95166,0.144531
1480510129268932,-0.268555,-0.970703,0.150879
1480510129291493,-0.268066,-0.938965,0.145996
1480510129314052,-0.271973,-0.939941,0.149414
1480510129336612,-0.281738,-0.974121,0.154297
1480510129351153,-0.270996,-0.95459,0.155273
1480510129373711,-0.269043,-0.952637,0.171875
1480510129396271,-0.277344,-0.960938,0.163086
1480510129411311,-0.26709,-0.940918,0.159668
1480510129434874,-0.263672,-0.963867,0.150391
1480510129456432,-0.275391,-0.968262,0.148926
1480510129471471,-0.269043,-0.936035,0.152832
1480510129494031,-0.268066,-0.949219,0.146484
1480510129516594,-0.270996,-0.961426,0.143555
1480510129539154,-0.262207,-0.945801,0.145996
1480510129553706,-0.270996,-0.951172,0.147949
1480510129585275,-0.266113,-0.963379,0.150879
1480510129591290,-0.269531,-0.951172,0.152344
1480510129613851,-0.274902,-0.963867,0.148438
1480510129636409,-0.280273,-0.967285,0.15625
1480510129651450,-0.268555,-0.946289,0.160645
1480510129674014,-0.254395,-0.961426,0.163086
1480510129696570,-0.29834,-0.959473,0.146973
1480510129711611,-0.23877,-0.917969,0.142578
1480510129733669,-0.26709,-0.964844,0.144531
1480510129756229,-0.268066,-0.979492,0.14502
1480510129771269,-0.286621,-0.960938,0.148926
1480510129793829,-0.272461,-0.956055,0.141602
1480510129816892,-0.255371,-0.921387,0.148926
1480510129831429,-0.244629,-0.94043,0.153809
1480510129853989,-0.274414,-0.978027,0.146484
1480510129876549,-0.283691,-0.955566,0.162598
1480510129891589,-0.274902,-0.961426,0.173828
1480510129913647,-0.282715,-0.992188,0.150879
1480510129936207,-0.283203,-0.955566,0.144043
1480510129951248,-0.279785,-0.946289,0.140137
1480510129973807,-0.269043,-0.985352,0.138672
1480510130005391,-0.265625,-0.954102,0.162109
1480510130011407,-0.269043,-0.925781,0.157227
1480510130036975,-0.294922,-0.96582,0.143555
1480510130056527,-0.285156,-0.960449,0.13623
1480510130071066,-0.270996,-0.919434,0.141113
1480510130096634,-0.28125,-0.96875,0.146973
1480510130116186,-0.276367,-0.95752,0.148438
1480510130131732,-0.28125,-0.932129,0.161133
1480510130153786,-0.269531,-0.95459,0.146973
1480510130176346,-0.26416,-0.953613,0.137207
1480510130191386,-0.269531,-0.945801,0.146484
1480510130213946,-0.287109,-0.980957,0.155273
1480510130236506,-0.27832,-0.941406,0.151367
1480510130259066,-0.27002,-0.92334,0.148926
1480510130273609,-0.265137,-0.979492,0.148438
1480510130296165,-0.275879,-0.966797,0.151367
1480510130319047,-0.275391,-0.9375,0.166016
1480510130333765,-0.287598,-0.953613,0.148926
1480510130356325,-0.267578,-0.958984,0.139648
1480510130388410,-0.248047,-0.952637,0.136719
1480510130393925,-0.302246,-0.963867,0.141113
1480510130416490,-0.283203,-0.960938,0.140137
1480510130439045,-0.279297,-0.95459,0.143066
1480510130453584,-0.269043,-0.962891,0.161621
1480510130476143,-0.275879,-0.950684,0.168945
1480510130499206,-0.266113,-0.942383,0.168457
1480510130513744,-0.270508,-0.937988,0.149902
1480510130536303,-0.263672,-0.977051,0.128906
1480510130558864,-0.273438,-0.958496,0.14502
1480510130573904,-0.291016,-0.977539,0.140625
1480510130596464,-0.280762,-0.94043,0.137695
1480510130619024,-0.257813,-0.895996,0.13623
1480510130634063,-0.269043,-0.973633,0.134277
1480510130656122,-0.274414,-0.960938,0.140625
1480510130678683,-0.28418,-0.950195,0.155762
1480510130693722,-0.291992,-0.977539,0.159668
1480510130716283,-0.27832,-0.951172,0.152344
1480510130738843,-0.276367,-0.938965,0.145508
1480510130753896,-0.286621,-0.972656,0.150391
1480510130776443,-0.255859,-0.946777,0.134277
1480510130799002,-0.250977,-0.950195,0.171875
1480510130814043,-0.30127,-0.989746,0.157227
1480510130836101,-0.288574,-0.947266,0.135254
1480510130867685,-0.279785,-0.92334,0.126465
1480510130873701,-0.282227,-0.963379,0.134277
1480510130899271,-0.273926,-0.979004,0.137695
1480510130918821,-0.281738,-0.939453,0.160645
1480510130941381,-0.280762,-0.963867,0.16748
1480510130959429,-0.271484,-0.961426,0.161133
1480510130978981,-0.271484,-0.943848,0.151855
1480510130994021,-0.275391,-0.962402,0.136719
1480510131016085,-0.256836,-0.925781,0.144531
1480510131038639,-0.263184,-0.975098,0.12207
1480510131061200,-0.274414,-0.970215,0.157715
1480510131076240,-0.28418,-0.974609,0.139648
1480510131098800,-0.288086,-0.929199,0.141602
1480510131113840,-0.291016,-0.906738,0.145996
1480510131136400,-0.272461,-0.952148,0.152344
1480510131158960,-0.277832,-0.977539,0.138672
1480510131174000,-0.289551,-0.945801,0.155762
1480510131212602,-0.270996,-0.956543,0.157715
1480510131218752,-0.263184,-0.989746,0.143066
1480510131241179,-0.268555,-0.944336,0.140625
1480510131256218,-0.27002,-0.937012,0.135742
1480510131280282,-0.282715,-0.963379,0.142578
1480510131301338,-0.280273,-0.947266,0.157227
1480510131316378,-0.283203,-0.949707,0.144531
1480510131338938,-0.288574,-0.970703,0.146973
1480510131361498,-0.282715,-0.953613,0.143066
1480510131376538,-0.263184,-0.9375,0.147949
1480510131399100,-0.278809,-0.961426,0.153809
1480510131421157,-0.287598,-0.95459,0.141602
1480510131436197,-0.27832,-0.940918,0.149902
1480510131458757,-0.278809,-0.962891,0.145996
1480510131481318,-0.284668,-0.958496,0.148926
1480510131496360,-0.275391,-0.944336,0.154297
1480510131519000,-0.27002,-0.962402,0.149902
1480510131541477,-0.272949,-0.955566,0.15918
1480510131556517,-0.274902,-0.94043,0.154785
1480510131579078,-0.283691,-0.969727,0.154297
1480510131601136,-0.279785,-0.957031,0.151367
1480510131616178,-0.277344,-0.939941,0.148438
1480510131638736,-0.285156,-0.962891,0.145996
1480510131661298,-0.279297,-0.958984,0.147949
1480510131676336,-0.271484,-0.94043,0.151855
1480510131701904,-0.27002,-0.962891,0.15332
1480510131721456,-0.26709,-0.95459,0.150879
1480510131736496,-0.26123,-0.947266,0.147949
1480510131759056,-0.277344,-0.960449,0.138672
1480510131781617,-0.28418,-0.946777,0.147461
1480510131796156,-0.272949,-0.948242,0.138184
1480510131818715,-0.289063,-0.963379,0.152344
1480510131841276,-0.27832,-0.949219,0.15625
1480510131856332,-0.275391,-0.947754,0.15332
1480510131878875,-0.285645,-0.962891,0.15332
1480510131901435,-0.279297,-0.950195,0.148438
1480510131916480,-0.281738,-0.954102,0.147949
1480510131939034,-0.289063,-0.966797,0.152832
1480510131961094,-0.277832,-0.946777,0.148926
1480510131977638,-0.269531,-0.945801,0.148926
1480510131998697,-0.279785,-0.973145,0.152344
1480510132021353,-0.275391,-0.935059,0.157715
1480510132043813,-0.273438,-0.938477,0.148438
1480510132058854,-0.28418,-0.973633,0.154297
1480510132081414,-0.275879,-0.947266,0.15332
1480510132096454,-0.282715,-0.959473,0.150391
1480510132119249,-0.286621,-0.966309,0.147461
1480510132141573,-0.279785,-0.952148,0.15918
1480510132163633,-0.275391,-0.958496,0.155273
1480510132178673,-0.282227,-0.958984,0.152832
1480510132201232,-0.270996,-0.942383,0.148438
1480510132223792,-0.269531,-0.954102,0.151367
1480510132239333,-0.280273,-0.95752,0.152832
1480510132261393,-0.284668,-0.939941,0.154297
1480510132284454,-0.273438,-0.95166,0.144531
1480510132298992,-0.275879,-0.972656,0.152344
1480510132321051,-0.28125,-0.947266,0.150879
1480510132343610,-0.280273,-0.95166,0.15625
1480510132358651,-0.282715,-0.964844,0.155273
1480510132381211,-0.270508,-0.935547,0.158203
1480510132403771,-0.275879,-0.94873,0.149902
1480510132418820,-0.286133,-0.964844,0.15332
1480510132441371,-0.282227,-0.947266,0.149902
1480510132463931,-0.278809,-0.954102,0.148438
1480510132478971,-0.28125,-0.972168,0.146973
1480510132501531,-0.273438,-0.94873,0.14502
1480510132523590,-0.279297,-0.953613,0.151855
1480510132538630,-0.285156,-0.960938,0.149902
1480510132562694,-0.274902,-0.942871,0.148926
1480510132583751,-0.275391,-0.973145,0.149902
1480510132598790,-0.282227,-0.965332,0.151367
1480510132622854,-0.272461,-0.9375,0.155273
1480510132643911,-0.279297,-0.975586,0.154785
1480510132658950,-0.284668,-0.956055,0.148926
1480510132681510,-0.274414,-0.922363,0.143066
1480510132704070,-0.283203,-0.963867,0.144531
1480510132726129,-0.282715,-0.959473,0.145996
1480510132741168,-0.275879,-0.9375,0.148926
1480510132763731,-0.273438,-0.970215,0.145996
1480510132787793,-0.277832,-0.967285,0.148438
1480510132801329,-0.280273,-0.943359,0.141602
1480510132823889,-0.287598,-0.955078,0.145996
1480510132838928,-0.290039,-0.949707,0.155762
1480510132869008,-0.293945,-0.937988,0.144531
1480510132884049,-0.291992,-0.950684,0.140625
1480510132899088,-0.274414,-0.947266,0.141113
1480510132921147,-0.255371,-0.939941,0.145996
1480510132943708,-0.260742,-0.963379,0.147461
1480510132958747,-0.273438,-0.964844,0.150879
1480510132981308,-0.265625,-0.96582,0.153809
1480510133003868,-0.274902,-0.98877,0.147461
1480510133018907,-0.286621,-0.958984,0.151855
1480510133041467,-0.293945,-0.935059,0.141602
1480510133066535,-0.316406,-0.973145,0.130859
1480510133078566,-0.305664,-0.944824,0.123535
1480510133101127,-0.274902,-0.937988,0.143555
1480510133123685,-0.299316,-0.974121,0.137695
1480510133146246,-0.27832,-0.946777,0.151855
1480510133161285,-0.267578,-0.933594,0.157715
1480510133183847,-0.278809,-0.98291,0.161133
1480510133206406,-0.290039,-0.947754,0.152344
1480510133221447,-0.276367,-0.930664,0.153809
1480510133244012,-0.271973,-0.973633,0.157715
1480510133266567,-0.279297,-0.959473,0.155273
1480510133284113,-0.29541,-0.935059,0.153809
1480510133303664,-0.307617,-0.958008,0.140625
1480510133326225,-0.28125,-0.934082,0.146484
1480510133344272,-0.275879,-0.933594,0.148438
1480510133363825,-0.318848,-0.962891,0.133789
1480510133386385,-0.319824,-0.953613,0.150391
1480510133401425,-0.316406,-0.936523,0.134277
1480510133426992,-0.327148,-0.960938,0.134277
1480510133446545,-0.306152,-0.945313,0.134766
1480510133462587,-0.297852,-0.914063,0.14502
1480510133485148,-0.229004,-0.926758,0.179199
1480510133506203,-0.232422,-0.970215,0.16748
1480510133521243,-0.253906,-0.939941,0.189941
1480510133543803,-0.276855,-0.950195,0.177734
1480510133566865,-0.27002,-0.95752,0.149414
1480510133588924,-0.26123,-0.933594,0.135742
1480510133603965,-0.276855,-0.961426,0.132324
1480510133626524,-0.300293,-0.952148,0.138184
1480510133648583,-0.314941,-0.944336,0.146973
1480510133664124,-0.306641,-0.95752,0.140625
1480510133686183,-0.28125,-0.937012,0.150391
1480510133701222,-0.276855,-0.949219,0.15918
1480510133723782,-0.286133,-0.957031,0.171387
1480510133746343,-0.270508,-0.937988,0.15918
1480510133761382,-0.251953,-0.949707,0.182617
1480510133783942,-0.304199,-0.981445,0.162109
1480510133806503,-0.285156,-0.950684,0.145508
1480510133821549,-0.285156,-0.928711,0.139648
1480510133843601,-0.267578,-0.956055,0.155273
1480510133866160,-0.279297,-0.946777,0.161621
1480510133881201,-0.323242,-0.970215,0.155273
1480510133903761,-0.335449,-0.946289,0.140137
1480510133926320,-0.299805,-0.91748,0.136719
1480510133941361,-0.297852,-0.962402,0.13916
1480510133963921,-0.29834,-0.964355,0.158203
1480510133986481,-0.291504,-0.941895,0.161621
1480510134001520,-0.265625,-0.95166,0.163086
1480510134023580,-0.272949,-0.975586,0.168457
1480510134047644,-0.279297,-0.958496,0.158203
1480510134068700,-0.286133,-0.95166,0.148438
1480510134083741,-0.283203,-0.955078,0.146973
1480510134106313,-0.279785,-0.959473,0.150879
1480510134128860,-0.302246,-0.989746,0.158691
1480510134143900,-0.296875,-0.959961,0.163574
1480510134166460,-0.289551,-0.928223,0.162598
1480510134189019,-0.291016,-0.960449,0.156738
1480510134214103,-0.285645,-0.945313,0.150879
1480510134226118,-0.287598,-0.908691,0.154785
1480510134248679,-0.307617,-0.964355,0.135742
1480510134263718,-0.293945,-0.946289,0.132813
1480510134287782,-0.280762,-0.912109,0.139648
1480510134308838,-0.268066,-0.979492,0.154297
1480510134323878,-0.29541,-0.986328,0.151367
1480510134346440,-0.295898,-0.933594,0.145996
1480510134368998,-0.277344,-0.929688,0.150391
1480510134384039,-0.310547,-0.94873,0.149902
1480510134406097,-0.291016,-0.951172,0.147461
1480510134428658,-0.258301,-0.935547,0.149902
1480510134443697,-0.274414,-0.955566,0.172852
1480510134466257,-0.274414,-0.963867,0.167969
1480510134488817,-0.241699,-0.947754,0.163574
1480510134506865,-0.290039,-0.986328,0.150879
1480510134534939,-0.29248,-0.946289,0.138184
1480510134548978,-0.289551,-0.945801,0.158203
1480510134564028,-0.297852,-0.947266,0.157227
1480510134586076,-0.280762,-0.941895,0.175781
1480510134608636,-0.310547,-0.959961,0.175781
1480510134623676,-0.318848,-0.931641,0.159668
1480510134646236,-0.29541,-0.963379,0.147461
1480510134668796,-0.260742,-0.962891,0.138184
1480510134683836,-0.287598,-0.916992,0.166992
1480510134706396,-0.28418,-0.974609,0.145508
1480510134728955,-0.320801,-0.957031,0.144043
1480510134743996,-0.290527,-0.929199,0.150391
1480510134766556,-0.22168,-0.961426,0.153809
1480510134788615,-0.234863,-0.958496,0.174805
1480510134803667,-0.265625,-0.937012,0.187012
1480510134826214,-0.281738,-0.975586,0.159668
1480510134848788,-0.280762,-0.973145,0.154297
1480510134871335,-0.282715,-0.930176,0.147949
1480510134886375,-0.288574,-0.936035,0.148926
1480510134908935,-0.302734,-0.946289,0.169922
1480510134923975,-0.303711,-0.938477,0.166504
1480510134946535,-0.301758,-0.927246,0.166992
1480510134971100,-0.29248,-0.930176,0.161621
1480510134983634,-0.277344,-0.948242,0.162598
1480510135006193,-0.256836,-0.970703,0.177246
1480510135028754,-0.255859,-0.958984,0.177734
1480510135051314,-0.269531,-0.928223,0.183594
1480510135066355,-0.294922,-0.967773,0.165527
1480510135091921,-0.289063,-0.970215,0.162109
1480510135111473,-0.248535,-0.927734,0.162598
1480510135126517,-0.262207,-0.953613,0.166504
1480510135149073,-0.293457,-0.981934,0.167969
1480510135171132,-0.302246,-0.95166,0.161621
1480510135193692,-0.287598,-0.937012,0.168945
1480510135208732,-0.275879,-0.953125,0.178223
1480510135231292,-0.282227,-0.955566,0.168457
1480510135246332,-0.319336,-0.95459,0.15332
1480510135268892,-0.316895,-0.951172,0.140137
1480510135291453,-0.278809,-0.9375,0.149414
1480510135307996,-0.275879,-0.955078,0.157715
1480510135329054,-0.297852,-0.953613,0.145508
1480510135351113,-0.303711,-0.9375,0.140137
1480510135366152,-0.296387,-0.955078,0.144043
1480510135388711,-0.286133,-0.964844,0.150391
1480510135411272,-0.279785,-0.946777,0.157715
1480510135426310,-0.273438,-0.952637,0.160156
1480510135448871,-0.282715,-0.957031,0.159668
1480510135471430,-0.263184,-0.95752,0.166992
1480510135486479,-0.272949,-0.961914,0.156738
1480510135509030,-0.276855,-0.95459,0.162109
1480510135531091,-0.283691,-0.958496,0.148438
1480510135546130,-0.286133,-0.970215,0.153809
1480510135568689,-0.283691,-0.938965,0.151855
1480510135591751,-0.266602,-0.939941,0.146484
1480510135606289,-0.277832,-0.978516,0.147461
1480510135628850,-0.275391,-0.94873,0.150391
1480510135651410,-0.268066,-0.940918,0.151367
1480510135666450,-0.275391,-0.973145,0.151367
1480510135689010,-0.272949,-0.976563,0.152832
1480510135711068,-0.270996,-0.947754,0.154785
1480510135726108,-0.277832,-0.966309,0.155762
1480510135748669,-0.257324,-0.947266,0.148926
1480510135771228,-0.274414,-0.944824,0.151367
1480510135786268,-0.291504,-0.967773,0.147461
1480510135808829,-0.290039,-0.938965,0.144531
1480510135831389,-0.279785,-0.933105,0.133301
1480510135846429,-0.280762,-0.966797,0.137207
1480510135868989,-0.282715,-0.936035,0.150879
1480510135891548,-0.27832,-0.932617,0.153809
1480510135906087,-0.284668,-0.958496,0.147949
1480510135928647,-0.280273,-0.955566,0.154785
1480510135951207,-0.274902,-0.953613,0.153809
1480510135973767,-0.282227,-0.974121,0.145996
1480510135988807,-0.268555,-0.951172,0.143066
1480510136011367,-0.262695,-0.95459,0.14209
1480510136033927,-0.27832,-0.967773,0.137695
1480510136048967,-0.272461,-0.937988,0.140137
1480510136071025,-0.265625,-0.94873,0.131836
1480510136093586,-0.271484,-0.967285,0.150391
1480510136108626,-0.263184,-0.9375,0.145996
1480510136131186,-0.271484,-0.941406,0.144043
1480510136153746,-0.278809,-0.973633,0.145996
1480510136177810,-0.282715,-0.950684,0.144043
1480510136191346,-0.278809,-0.960449,0.145996
1480510136213907,-0.299316,-0.973633,0.149414
1480510136228946,-0.28125,-0.959473,0.147461
1480510136251506,-0.262207,-0.961426,0.153809
1480510136273577,-0.291504,-0.973145,0.144531
1480510136288604,-0.290527,-0.95166,0.135742
1480510136312668,-0.275879,-0.942383,0.133301
1480510136333724,-0.273926,-0.97168,0.142578
1480510136348768,-0.273926,-0.945313,0.144531
1480510136371325,-0.27832,-0.952148,0.147461
1480510136393884,-0.265625,-0.961426,0.162109
1480510136416445,-0.257813,-0.953613,0.152832
1480510136431484,-0.270996,-0.95166,0.149902
1480510136453543,-0.284668,-0.960449,0.144531
1480510136468583,-0.28125,-0.943359,0.145508
1480510136491154,-0.286621,-0.953613,0.14502
1480510136515208,-0.279297,-0.958496,0.147949
1480510136528743,-0.269531,-0.946289,0.151855
1480510136551303,-0.26709,-0.969238,0.154297
1480510136573863,-0.275391,-0.961914,0.15625
1480510136588903,-0.265625,-0.934082,0.15332
1480510136611464,-0.271973,-0.963379,0.147949
1480510136634042,-0.273926,-0.972656,0.133789
1480510136649063,-0.281738,-0.938965,0.134766
1480510136671122,-0.273438,-0.964355,0.144531
1480510136693682,-0.275879,-0.954102,0.144043
1480510136708722,-0.256348,-0.925293,0.155273
1480510136731282,-0.267578,-1.0083,0.133789
1480510136754344,-0.278809,-0.936523,0.14209
1480510136768883,-0.282227,-0.951172,0.142578
1480510136791442,-0.304688,-0.961426,0.144531
1480510136822525,-0.285645,-0.900879,0.135742
1480510136828541,-0.297363,-0.938965,0.119629
1480510136851101,-0.254395,-1.0166,0.125488
1480510136873660,-0.269531,-0.955566,0.15332
1480510136888701,-0.278809,-0.936035,0.166016
1480510136911260,-0.28418,-0.964355,0.162109
1480510136933821,-0.264648,-0.955566,0.161133
1480510136956385,-0.261719,-0.936523,0.151367
1480510136971421,-0.27832,-0.958496,0.149902
1480510136993981,-0.276367,-0.947754,0.149902
1480510137016040,-0.272461,-0.955566,0.140137
1480510137034088,-0.267578,-0.979004,0.136719
1480510137053655,-0.275391,-0.957031,0.142578
1480510137076203,-0.270996,-0.945801,0.149902
1480510137092743,-0.272949,-0.962891,0.155762
1480510137113799,-0.274414,-0.942383,0.157227
1480510137136359,-0.277344,-0.945313,0.145996
1480510137151411,-0.280762,-0.970703,0.145508
1480510137173959,-0.276367,-0.953125,0.151855
1480510137196519,-0.269043,-0.95459,0.15332
1480510137211058,-0.282227,-0.969238,0.147461
1480510137233618,-0.267578,-0.949219,0.140137
1480510137256179,-0.280273,-0.950684,0.155273
1480510137278754,-0.291016,-0.958496,0.15918
1480510137293778,-0.251953,-0.967285,0.127441
1480510137316339,-0.258301,-0.933105,0.152832
1480510137331385,-0.307617,-0.993164,0.165039
1480510137353950,-0.294434,-0.957031,0.141602
1480510137376498,-0.298828,-0.880371,0.129395
1480510137391037,-0.283203,-0.947754,0.129883
1480510137413603,-0.285645,-0.975098,0.129883
1480510137445181,-0.263672,-0.956543,0.147461
1480510137451197,-0.277344,-0.953125,0.153809
1480510137473757,-0.26709,-0.963867,0.169434
1480510137496317,-0.270996,-0.969727,0.161133
1480510137511357,-0.272949,-0.953125,0.155762
1480510137533917,-0.266602,-0.935547,0.154297
1480510137556492,-0.280762,-0.968262,0.148438
1480510137571517,-0.289551,-0.958984,0.147461
1480510137593576,-0.289063,-0.930664,0.137207
1480510137616142,-0.281738,-0.961914,0.131836
1480510137631176,-0.278809,-0.96582,0.14209
1480510137653736,-0.272461,-0.930176,0.152832
1480510137676306,-0.266602,-0.95166,0.149414
1480510137691336,-0.276367,-0.975586,0.148926
1480510137713896,-0.267578,-0.960449,0.145508
1480510137736456,-0.274902,-0.970215,0.149902
1480510137751496,-0.285645,-0.956055,0.150391
1480510137776564,-0.273926,-0.938965,0.146484
1480510137796114,-0.274414,-0.960449,0.154785
1480510137811154,-0.280762,-0.963867,0.160645
1480510137836722,-0.277832,-0.938477,0.151855
1480510137856289,-0.274414,-0.964355,0.15332
1480510137878835,-0.276855,-0.967773,0.147949
1480510137893875,-0.271973,-0.944336,0.15332
1480510137916445,-0.277832,-0.963867,0.15332
1480510137938994,-0.278809,-0.954102,0.144043
1480510137953534,-0.283203,-0.927246,0.137207
1480510137976093,-0.217773,-0.986328,0.140137
1480510138007677,-0.260742,-0.985352,0.160156
1480510138013694,-0.288086,-0.951172,0.151367
1480510138036253,-0.299805,-0.970215,0.144043
1480510138058813,-0.302734,-0.932617,0.129883
1480510138073853,-0.28125,-0.899902,0.129395
1480510138096413,-0.272949,-0.977051,0.136719
1480510138119058,-0.286133,-0.984863,0.142578
1480510138141031,-0.273438,-0.9375,0.151855
1480510138165097,-0.271484,-0.960449,0.16748
1480510138178634,-0.275879,-0.979492,0.174316
1480510138193672,-0.266602,-0.955078,0.158691
1480510138216236,-0.267578,-0.945801,0.149902
1480510138238791,-0.276367,-0.955566,0.151855
1480510138253832,-0.282715,-0.949707,0.145996
1480510138276392,-0.292969,-0.960449,0.130859
1480510138298952,-0.289063,-0.945801,0.149902
1480510138314995,-0.267578,-0.942383,0.144531
1480510138336552,-0.275391,-0.966309,0.149414
1480510138358611,-0.270996,-0.944824,0.157227
1480510138373651,-0.263672,-0.949219,0.147461
1480510138397715,-0.266602,-0.979004,0.149902
1480510138418771,-0.269043,-0.958008,0.149414
1480510138433811,-0.268555,-0.941406,0.146484
1480510138456371,-0.283203,-0.958984,0.142578
1480510138478930,-0.282227,-0.950684,0.144531
1480510138493971,-0.280762,-0.949219,0.15332
1480510138501491,-0.282715,-0.967285,0.161621
1480510138523550,-0.272949,-0.94873,0.156738
1480510138547613,-0.272949,-0.960938,0.148926
1480510138561150,-0.276367,-0.970215,0.143066
1480510138583709,-0.273926,-0.936523,0.150391
1480510138607773,-0.27002,-0.945801,0.160645
1480510138621310,-0.279785,-0.967773,0.156738
1480510138643869,-0.276855,-0.95166,0.137695
1480510138667432,-0.273438,-0.956055,0.143555
1480510138681470,-0.280762,-0.961914,0.157715
1480510138704029,-0.272461,-0.942871,0.157715
1480510138727592,-0.269043,-0.942871,0.151367
1480510138741128,-0.279297,-0.965332,0.148438
1480510138763688,-0.273926,-0.95459,0.144043
1480510138787752,-0.275879,-0.95459,0.146973
1480510138801289,-0.28125,-0.966309,0.146973
1480510138823848,-0.271973,-0.944824,0.145508
1480510138847411,-0.27002,-0.956543,0.151855
1480510138861449,-0.279785,-0.960938,0.146484
1480510138884020,-0.272949,-0.938965,0.157227
1480510138907571,-0.273438,-0.95166,0.157227
1480510138921107,-0.281738,-0.961914,0.15918
1480510138944169,-0.275879,-0.942871,0.159668
1480510138967730,-0.271973,-0.958008,0.161621
1480510138981270,-0.279297,-0.964844,0.15332
1480510139003827,-0.265137,-0.948242,0.15625
1480510139027890,-0.266113,-0.959961,0.150391
1480510139041428,-0.272461,-0.96582,0.148926
1480510139063987,-0.275391,-0.938965,0.15332
1480510139087550,-0.277344,-0.956055,0.155273
1480510139101085,-0.284668,-0.962402,0.15625
1480510139123645,-0.283203,-0.939453,0.149414
1480510139147710,-0.278809,-0.955078,0.149414
1480510139161246,-0.280762,-0.961914,0.153809
1480510139183806,-0.277344,-0.942383,0.151855
1480510139207369,-0.27832,-0.959473,0.154785
1480510139221908,-0.27832,-0.96875,0.144043
1480510139252489,-0.265137,-0.937012,0.157227
1480510139267027,-0.274414,-0.950195,0.160645
1480510139281065,-0.275391,-0.959473,0.161621
1480510139312648,-0.270508,-0.944336,0.155762
1480510139327191,-0.271973,-0.965332,0.148438
1480510139341224,-0.275879,-0.960938,0.154785
1480510139363785,-0.266113,-0.942383,0.156738
1480510139386345,-0.276367,-0.95752,0.149414
1480510139409907,-0.283203,-0.95459,0.150391
1480510139423944,-0.272949,-0.945801,0.149902
1480510139446506,-0.276855,-0.964844,0.146484
1480510139469065,-0.285156,-0.961426,0.15332
1480510139483604,-0.271973,-0.947266,0.162109
1480510139506163,-0.27832,-0.964844,0.154785
1480510139530228,-0.268555,-0.958984,0.159668
1480510139543763,-0.268066,-0.943359,0.161133
1480510139566324,-0.28418,-0.963379,0.161133
1480510139589889,-0.272949,-0.950195,0.161621
1480510139603923,-0.271484,-0.947266,0.147949
1480510139626483,-0.280762,-0.960449,0.151367
1480510139650046,-0.274902,-0.945801,0.157227
1480510139663588,-0.271973,-0.946777,0.148438
1480510139686142,-0.277344,-0.975586,0.14502
1480510139710206,-0.271973,-0.955566,0.149902
1480510139723742,-0.256836,-0.945801,0.157227
1480510139746804,-0.263184,-0.953613,0.151367
1480510139769864,-0.265137,-0.950684,0.145508
1480510139784403,-0.280762,-0.945313,0.139648
1480510139806964,-0.292969,-0.981934,0.148438
1480510139830025,-0.266602,-0.94043,0.157227
1480510139844062,-0.261719,-0.893066,0.150879
1480510139866121,-0.271973,-0.978027,0.145996
1480510139890685,-0.269531,-0.993652,0.137207
1480510139903720,-0.275879,-0.945313,0.14502
1480510139926281,-0.284668,-0.973145,0.161133
1480510139950345,-0.285645,-0.959473,0.158203
1480510139963894,-0.273926,-0.938965,0.151367
1480510139986441,-0.278809,-0.962402,0.149414
1480510140010005,-0.270508,-0.946289,0.152344
1480510140023540,-0.270996,-0.952637,0.149902
1480510140046102,-0.275879,-0.966797,0.145996
1480510140070163,-0.273926,-0.944824,0.134766
1480510140084203,-0.26709,-0.951172,0.145996
1480510140106259,-0.272461,-0.967285,0.146973
1480510140130323,-0.276855,-0.945313,0.151367
1480510140143859,-0.273438,-0.946777,0.149902
1480510140166419,-0.285645,-0.972168,0.149414
1480510140189982,-0.276367,-0.947266,0.145996
1480510140203518,-0.274902,-0.955078,0.154297
1480510140226078,-0.277344,-0.964355,0.15625
1480510140250142,-0.272949,-0.94873,0.148438
1480510140272702,-0.268555,-0.951172,0.152344
1480510140286238,-0.277832,-0.966797,0.151367
1480510140308798,-0.270508,-0.94043,0.148926
1480510140323838,-0.266602,-0.95752,0.144043
1480510140346399,-0.273438,-0.961426,0.144043
1480510140377481,-0.270508,-0.94043,0.146973
1480510140384000,-0.268066,-0.958496,0.150879
1480510140406057,-0.275391,-0.97168,0.141602
1480510140429619,-0.26709,-0.940918,0.152344
1480510140443657,-0.274414,-0.958008,0.155762
1480510140466216,-0.271973,-0.960938,0.157715
1480510140488777,-0.269531,-0.938477,0.145508
1480510140503817,-0.283203,-0.966797,0.144531
1480510140526377,-0.286621,-0.970215,0.148926
1480510140548937,-0.273438,-0.944336,0.150391
1480510140563977,-0.275879,-0.963867,0.149902
1480510140586036,-0.282227,-0.970703,0.151367
1480510140608595,-0.270996,-0.949707,0.143555
1480510140623635,-0.269043,-0.957031,0.15625
1480510140646196,-0.273926,-0.95166,0.146973
1480510140668756,-0.262207,-0.936523,0.145508
1480510140683796,-0.275879,-0.96582,0.140137
1480510140706355,-0.276855,-0.960938,0.149902
1480510140728916,-0.266602,-0.947754,0.151855
1480510140743955,-0.266113,-0.963867,0.147949
1480510140766015,-0.270996,-0.953125,0.152344
1480510140788575,-0.271973,-0.937988,0.149414
1480510140803615,-0.276855,-0.963379,0.149414
1480510140826174,-0.274414,-0.963867,0.150391
1480510140848736,-0.271484,-0.945801,0.145508
1480510140863775,-0.277344,-0.966797,0.148438
1480510140886336,-0.276367,-0.958008,0.157227
1480510140908895,-0.271973,-0.943359,0.149902
1480510140932458,-0.278809,-0.963867,0.15625
1480510140946496,-0.278809,-0.95752,0.15625
1480510140968553,-0.271484,-0.943848,0.148438
1480510140992617,-0.277832,-0.96875,0.143066
1480510141006153,-0.269043,-0.956543,0.147461
1480510141028714,-0.268555,-0.944336,0.147461
1480510141052778,-0.276367,-0.967773,0.15332
1480510141066313,-0.266113,-0.953125,0.147461
1480510141088873,-0.26123,-0.949707,0.143555
1480510141112436,-0.272949,-0.975098,0.144531
1480510141126473,-0.269531,-0.951172,0.146484
1480510141148532,-0.264648,-0.94873,0.150879
1480510141171092,-0.275879,-0.959473,0.148926
1480510141195156,-0.272949,-0.950195,0.155273
1480510141208692,-0.273926,-0.952148,0.146484
1480510141232755,-0.287109,-0.963867,0.148926
1480510141246293,-0.282715,-0.95752,0.153809
1480510141268852,-0.271973,-0.949707,0.150879
1480510141292414,-0.279297,-0.966797,0.146973
1480510141306452,-0.26709,-0.950684,0.150879
1480510141329012,-0.265137,-0.944824,0.156738
1480510141352164,-0.27832,-0.95752,0.154785
1480510141366110,-0.272949,-0.94043,0.144531
1480510141388670,-0.268066,-0.953613,0.149414
1480510141411231,-0.274902,-0.970215,0.140625
1480510141426271,-0.270996,-0.937012,0.144531
1480510141448831,-0.27002,-0.947754,0.141602
1480510141471892,-0.274902,-0.969238,0.143066
1480510141486431,-0.273926,-0.944824,0.15332
1480510141508490,-0.270508,-0.94043,0.152344
1480510141531049,-0.281738,-0.974609,0.15918
1480510141546090,-0.269043,-0.953125,0.152344
1480510141578175,-0.270508,-0.95459,0.151855
1480510141591209,-0.273926,-0.96582,0.155762
1480510141606249,-0.269531,-0.945313,0.162598
1480510141628810,-0.266602,-0.95459,0.154297
1480510141651370,-0.276367,-0.969238,0.152832
1480510141666409,-0.270508,-0.949707,0.154297
1480510141697993,-0.266113,-0.955078,0.152344
1480510141720052,-0.270508,-0.972656,0.154297
1480510141726069,-0.266602,-0.941406,0.155762
1480510141748629,-0.266113,-0.948242,0.149414
1480510141771188,-0.273438,-0.969238,0.151367
1480510141786230,-0.267578,-0.946289,0.145508
1480510141808788,-0.267578,-0.961914,0.145996
1480510141831349,-0.272461,-0.96582,0.144531
1480510141846389,-0.269043,-0.944336,0.157715
1480510141868948,-0.275879,-0.958496,0.154785
1480510141891007,-0.28125,-0.961426,0.148438
1480510141906047,-0.272949,-0.947266,0.153809
1480510141928607,-0.280762,-0.963867,0.147949
1480510141951856,-0.27832,-0.968262,0.154297
1480510141967209,-0.263184,-0.945801,0.151367
1480510141997790,-0.266602,-0.963867,0.148926
1480510142011327,-0.273926,-0.975098,0.145996
1480510142027871,-0.264648,-0.939941,0.158203
1480510142048927,-0.271484,-0.961426,0.148926
1480510142071486,-0.273438,-0.963867,0.154297
1480510142086527,-0.268555,-0.94873,0.146973
1480510142108585,-0.271484,-0.961914,0.147949
1480510142131146,-0.273926,-0.965332,0.150391
1480510142146187,-0.26416,-0.942383,0.143555
1480510142168745,-0.274414,-0.965332,0.146973
1480510142191306,-0.279785,-0.959961,0.152832
1480510142206346,-0.270508,-0.947754,0.143066
1480510142228907,-0.282715,-0.961914,0.150879
1480510142251466,-0.287109,-0.958984,0.149414
1480510142266004,-0.277344,-0.946777,0.150391
1480510142288565,-0.272949,-0.969727,0.15625
1480510142311124,-0.275879,-0.959961,0.155273
1480510142326165,-0.272949,-0.940918,0.149414
1480510142348725,-0.272461,-0.974121,0.13623
1480510142371284,-0.28125,-0.942871,0.151855
1480510142393844,-0.252441,-0.91748,0.150879
1480510142411893,-0.254395,-0.98584,0.133301
1480510142431444,-0.260254,-0.959961,0.126953
1480510142453504,-0.264648,-0.976563,0.153809
1480510142468543,-0.283203,-0.957031,0.129395
1480510142500628,-0.257324,-0.875977,0.150879
1480510142522687,-0.260254,-0.948242,0.146484
1480510142528707,-0.272949,-1.01025,0.121094
1480510142551765,-0.276855,-0.936523,0.151855
1480510142573823,-0.281738,-0.947754,0.16748
1480510142588863,-0.281738,-0.978516,0.17041
1480510142611424,-0.278809,-0.939453,0.148438
1480510142633983,-0.274414,-0.938965,0.149414
1480510142648522,-0.278809,-0.974609,0.15625
1480510142671091,-0.277832,-0.958496,0.147949
1480510142693642,-0.26709,-0.949707,0.14209
1480510142708682,-0.271973,-0.976074,0.14209
