timestamp,x,y,z,w
1480510090081687,-0.330688,-0.559265,0.722778,0.235596
1480510090107255,-0.330688,-0.559265,0.722778,0.235596
1480510090120791,-0.330688,-0.559265,0.722778,0.235535
1480510090141847,-0.330688,-0.559204,0.722778,0.235535
1480510090166414,-0.330688,-0.559204,0.722778,0.235535
1480510090180450,-0.330688,-0.559143,0.722839,0.235535
1480510090232588,-0.33075,-0.559143,0.722839,0.235535
1480510090233090,-0.33075,-0.559143,0.722839,0.235535
1480510090239105,-0.33075,-0.559143,0.722839,0.235535
1480510090261666,-0.33075,-0.559143,0.722839,0.235474
1480510090284229,-0.33075,-0.559143,0.722839,0.235535
1480510090306787,-0.33075,-0.559143,0.722839,0.235474
1480510090329346,-0.33075,-0.559082,0.722839,0.235474
1480510090344386,-0.33075,-0.559082,0.722839,0.235474
1480510090366946,-0.33075,-0.559082,0.7229,0.235474
1480510090389509,-0.33075,-0.559082,0.7229,0.235474
1480510090411565,-0.33075,-0.559082,0.7229,0.235474
1480510090426605,-0.330811,-0.559082,0.7229,0.235474
1480510090449165,-0.330872,-0.559204,0.722778,0.235413
1480510090464206,-0.330872,-0.559204,0.722778,0.235413
1480510090486764,-0.330872,-0.559387,0.722595,0.235474
1480510090509324,-0.330811,-0.55957,0.722534,0.235413
1480510090524365,-0.33075,-0.559937,0.72229,0.235291
1480510090546924,-0.330627,-0.560669,0.721924,0.234863
1480510090568983,-0.330444,-0.562195,0.721191,0.233704
1480510090584024,-0.330261,-0.563354,0.720764,0.232544
1480510090606584,-0.329895,-0.565002,0.720154,0.230835
1480510090629145,-0.329346,-0.566101,0.719971,0.229614
1480510090644183,-0.328491,-0.566772,0.720093,0.22876
1480510090666743,-0.32782,-0.567261,0.720093,0.228516
1480510090692311,-0.327637,-0.567566,0.720093,0.227966
1480510090704343,-0.327637,-0.568298,0.719788,0.227112
1480510090726903,-0.327209,-0.568787,0.719788,0.226624
1480510090756984,-0.326599,-0.56897,0.719971,0.226563
1480510090767010,-0.326172,-0.569092,0.720032,0.226563
1480510090786562,-0.32605,-0.569397,0.719849,0.226563
1480510090809122,-0.325928,-0.569458,0.719727,0.226807
1480510090824162,-0.326172,-0.569458,0.719543,0.227173
1480510090846722,-0.326721,-0.569275,0.719299,0.2276
1480510090869282,-0.327332,-0.568787,0.719299,0.227905
1480510090891842,-0.32782,-0.568542,0.719238,0.228088
1480510090909388,-0.32843,-0.568298,0.719116,0.228088
1480510090928940,-0.329041,-0.568298,0.718872,0.228088
1480510090951502,-0.329529,-0.568237,0.718689,0.228149
1480510090968044,-0.330078,-0.568298,0.718384,0.228027
1480510090989101,-0.330505,-0.568726,0.717896,0.227722
1480510091011661,-0.330505,-0.568787,0.717896,0.227722
1480510091026701,-0.3302,-0.568848,0.717957,0.227783
1480510091049263,-0.329712,-0.568909,0.71814,0.227905
1480510091071826,-0.328979,-0.569031,0.718323,0.228027
1480510091086866,-0.328125,-0.568787,0.71875,0.228394
1480510091108924,-0.327454,-0.56842,0.719299,0.228516
1480510091131485,-0.327026,-0.568298,0.719727,0.22821
1480510091146524,-0.326599,-0.568176,0.720154,0.227783
1480510091169085,-0.326416,-0.567871,0.720581,0.227417
1480510091191644,-0.326538,-0.567261,0.721069,0.227112
1480510091217213,-0.327026,-0.566406,0.72168,0.226807
1480510091236764,-0.327454,-0.565735,0.722107,0.226624
1480510091253308,-0.32782,-0.56488,0.722534,0.226807
1480510091274364,-0.328186,-0.563965,0.7229,0.227234
1480510091289405,-0.328552,-0.563171,0.723145,0.227783
1480510091311463,-0.328918,-0.562561,0.723328,0.22821
1480510091334025,-0.329224,-0.562012,0.723572,0.228516
1480510091356583,-0.32959,-0.56134,0.723816,0.22876
1480510091371624,-0.3302,-0.560791,0.723999,0.228699
1480510091394184,-0.33075,-0.560364,0.724121,0.228577
1480510091416744,-0.331238,-0.560242,0.72406,0.228516
1480510091447826,-0.331421,-0.559998,0.72406,0.228577
1480510091454344,-0.331421,-0.560059,0.72406,0.228516
1480510091476401,-0.331482,-0.56012,0.723999,0.228516
1480510091491442,-0.33136,-0.560303,0.723938,0.228333
1480510091514002,-0.331238,-0.560364,0.723999,0.228088
1480510091536562,-0.331421,-0.560547,0.723938,0.227844
1480510091559122,-0.331604,-0.560791,0.723694,0.2276
1480510091574162,-0.331787,-0.560791,0.723694,0.227478
1480510091596722,-0.33197,-0.560852,0.723572,0.227356
1480510091611762,-0.332275,-0.561157,0.723206,0.227234
1480510091634322,-0.332581,-0.561218,0.723022,0.227295
1480510091656882,-0.332886,-0.561218,0.7229,0.227173
1480510091671922,-0.333191,-0.561279,0.722778,0.227051
1480510091693981,-0.333191,-0.561218,0.722717,0.227356
1480510091716541,-0.333374,-0.561035,0.722717,0.2276
1480510091731581,-0.333618,-0.560791,0.722717,0.227905
1480510091754147,-0.333801,-0.560486,0.722778,0.227966
1480510091776701,-0.333801,-0.560486,0.722839,0.227966
1480510091791749,-0.333801,-0.560486,0.722839,0.227966
1480510091814317,-0.333618,-0.560425,0.722961,0.227905
1480510091836860,-0.333557,-0.560364,0.723083,0.227844
1480510091851402,-0.333557,-0.560364,0.723083,0.227783
1480510091874460,-0.333313,-0.560181,0.723267,0.227905
1480510091896519,-0.333252,-0.560181,0.723328,0.227905
1480510091911559,-0.333313,-0.560242,0.723267,0.227905
1480510091934120,-0.333313,-0.560242,0.723267,0.227905
1480510091956679,-0.333313,-0.560181,0.723267,0.227905
1480510091971719,-0.333313,-0.560181,0.723267,0.227905
1480510091994280,-0.333313,-0.560181,0.723328,0.227905
1480510092018345,-0.333313,-0.560425,0.723145,0.227905
1480510092031882,-0.333313,-0.560425,0.723145,0.227905
1480510092053943,-0.333313,-0.560425,0.723145,0.227905
1480510092078002,-0.333252,-0.560425,0.723145,0.227905
1480510092091538,-0.333191,-0.560608,0.723022,0.227844
1480510092114098,-0.333191,-0.560608,0.723083,0.227844
1480510092136658,-0.333191,-0.560608,0.723083,0.227844
1480510092159218,-0.333191,-0.560608,0.723022,0.227844
1480510092174262,-0.333191,-0.560547,0.723083,0.227844
1480510092196822,-0.333191,-0.560547,0.723083,0.227844
1480510092211858,-0.333191,-0.560547,0.723083,0.227844
1480510092241436,-0.333191,-0.560547,0.723083,0.227844
1480510092256477,-0.333191,-0.560547,0.723083,0.227844
1480510092271519,-0.333191,-0.560547,0.723083,0.227844
1480510092297085,-0.333191,-0.560547,0.723083,0.227844
1480510092325661,-0.333252,-0.560547,0.723083,0.227844
1480510092339198,-0.333252,-0.560608,0.723083,0.227783
1480510092357245,-0.333191,-0.560547,0.723083,0.227844
1480510092376797,-0.333191,-0.560608,0.723083,0.227844
1480510092399357,-0.333252,-0.560547,0.723083,0.227783
1480510092415400,-0.333374,-0.56073,0.722839,0.227844
1480510092436456,-0.333374,-0.56073,0.722839,0.227844
1480510092468040,-0.333557,-0.560852,0.722656,0.227783
1480510092474056,-0.333557,-0.560852,0.722717,0.227783
1480510092496616,-0.333618,-0.560852,0.722717,0.227783
1480510092519177,-0.333862,-0.560913,0.722595,0.227661
1480510092534215,-0.333862,-0.560913,0.722595,0.227661
1480510092556776,-0.333862,-0.560913,0.722595,0.227661
1480510092579335,-0.333862,-0.560913,0.722534,0.2276
1480510092601896,-0.333923,-0.561157,0.722412,0.227295
1480510092616936,-0.333923,-0.561401,0.72229,0.227173
1480510092638995,-0.333923,-0.561584,0.722229,0.226868
1480510092661554,-0.333923,-0.561707,0.722229,0.226501
1480510092676594,-0.333801,-0.562012,0.722168,0.226257
1480510092699154,-0.333679,-0.562195,0.722168,0.225952
1480510092714194,-0.333496,-0.562378,0.722229,0.225647
1480510092736754,-0.333374,-0.562439,0.72229,0.225403
1480510092759314,-0.333313,-0.562317,0.722473,0.22522
1480510092775357,-0.333252,-0.562317,0.722595,0.224915
1480510092796414,-0.332947,-0.562439,0.722656,0.224731
1480510092818973,-0.332153,-0.562439,0.722961,0.225037
1480510092834013,-0.331055,-0.562256,0.72345,0.225708
1480510092856573,-0.32959,-0.562073,0.723877,0.226685
1480510092879133,-0.328308,-0.562195,0.724121,0.227661
1480510092894173,-0.327026,-0.562256,0.724304,0.228638
1480510092916733,-0.325867,-0.5625,0.724426,0.229492
1480510092939294,-0.324951,-0.562805,0.724365,0.230103
1480510092954333,-0.32428,-0.563293,0.724243,0.230347
1480510092977903,-0.323669,-0.563721,0.724182,0.230286
1480510092998952,-0.323303,-0.564148,0.724182,0.229797
1480510093013992,-0.322998,-0.56427,0.724365,0.229187
1480510093036552,-0.322876,-0.564697,0.724365,0.228394
1480510093059113,-0.32251,-0.565063,0.724365,0.227966
1480510093081672,-0.321899,-0.565308,0.724609,0.2276
1480510093099720,-0.321228,-0.56543,0.724976,0.227051
1480510093119272,-0.320557,-0.565552,0.725281,0.226501
1480510093134311,-0.320129,-0.565613,0.725647,0.225952
1480510093159379,-0.320068,-0.565674,0.72583,0.225098
1480510093187955,-0.32019,-0.565674,0.726013,0.224548
1480510093193971,-0.320496,-0.565247,0.726196,0.224548
1480510093216532,-0.321472,-0.564575,0.726135,0.224915
1480510093239091,-0.322327,-0.564026,0.726135,0.225281
1480510093261651,-0.322571,-0.563843,0.725952,0.22583
1480510093276691,-0.322571,-0.56366,0.726013,0.226135
1480510093299251,-0.322205,-0.563477,0.726257,0.226379
1480510093321812,-0.321838,-0.563538,0.726379,0.226318
1480510093336851,-0.321655,-0.563599,0.72644,0.226318
1480510093358909,-0.321655,-0.563599,0.72644,0.226318
1480510093390493,-0.321655,-0.563599,0.72644,0.226257
1480510093396514,-0.321716,-0.563538,0.72644,0.226257
1480510093419070,-0.321716,-0.563538,0.72644,0.226257
1480510093441629,-0.321716,-0.563538,0.726501,0.226257
1480510093456670,-0.321838,-0.563538,0.726379,0.226318
1480510093479229,-0.321838,-0.563477,0.726379,0.226318
1480510093501789,-0.321899,-0.563477,0.726318,0.226563
1480510093516830,-0.32196,-0.563354,0.726318,0.226807
1480510093541896,-0.32196,-0.563354,0.726196,0.227173
1480510093561449,-0.322083,-0.563354,0.726074,0.227417
1480510093576488,-0.322205,-0.563293,0.726013,0.227661
1480510093599048,-0.322266,-0.563049,0.726013,0.227905
1480510093621614,-0.322266,-0.563049,0.726074,0.227905
1480510093636648,-0.322327,-0.563049,0.726074,0.227905
1480510093659208,-0.322327,-0.563049,0.726074,0.227844
1480510093682270,-0.322205,-0.562866,0.726318,0.2276
1480510093696808,-0.32196,-0.562866,0.72644,0.2276
1480510093719368,-0.32196,-0.562866,0.72644,0.2276
1480510093741928,-0.322021,-0.562683,0.726501,0.227844
1480510093756471,-0.322021,-0.562439,0.726624,0.227905
1480510093779028,-0.322021,-0.562439,0.726624,0.227966
1480510093801587,-0.322021,-0.562439,0.726624,0.227966
1480510093816627,-0.322083,-0.562317,0.726685,0.228027
1480510093839187,-0.322266,-0.562073,0.726746,0.228149
1480510093862248,-0.322571,-0.56189,0.726685,0.228333
1480510093876791,-0.322754,-0.561707,0.726624,0.228821
1480510093899347,-0.32312,-0.561584,0.726379,0.22937
1480510093921908,-0.323792,-0.561035,0.726379,0.229736
1480510093936447,-0.324585,-0.560852,0.726135,0.229797
1480510093962013,-0.325134,-0.56073,0.726013,0.229675
1480510093981565,-0.325073,-0.560364,0.726379,0.229553
1480510093996606,-0.324768,-0.560547,0.726501,0.229187
1480510094019166,-0.32428,-0.560974,0.72644,0.229004
1480510094041726,-0.324036,-0.561157,0.726379,0.229126
1480510094056770,-0.324219,-0.561401,0.726074,0.229187
1480510094079329,-0.324219,-0.561707,0.72583,0.229187
1480510094101387,-0.324097,-0.561951,0.725586,0.229492
1480510094116428,-0.323914,-0.562195,0.725403,0.229797
1480510094138988,-0.324036,-0.562195,0.725281,0.230042
1480510094161548,-0.324158,-0.562378,0.725037,0.230103
1480510094184109,-0.324097,-0.562622,0.724854,0.230286
1480510094199147,-0.323914,-0.562805,0.72467,0.230591
1480510094221708,-0.32373,-0.56311,0.724426,0.230896
1480510094244268,-0.323608,-0.563599,0.72406,0.230957
1480510094259308,-0.323608,-0.564148,0.723694,0.230835
1480510094281868,-0.323608,-0.564819,0.723267,0.230591
1480510094303927,-0.323669,-0.565491,0.722778,0.230347
1480510094319297,-0.32373,-0.56604,0.722351,0.230103
1480510094341529,-0.323792,-0.566528,0.722107,0.229797
1480510094364087,-0.323792,-0.567139,0.72168,0.229492
1480510094379126,-0.323792,-0.567749,0.721252,0.229248
1480510094401686,-0.32373,-0.568115,0.72113,0.228943
1480510094424247,-0.32373,-0.568481,0.720947,0.22876
1480510094439288,-0.323792,-0.568848,0.720642,0.228699
1480510094461848,-0.323853,-0.569092,0.720398,0.228516
1480510094484407,-0.323669,-0.569336,0.720337,0.228394
1480510094498945,-0.323425,-0.56958,0.720276,0.228333
1480510094521511,-0.323425,-0.569641,0.720276,0.228394
1480510094544065,-0.323486,-0.56958,0.720154,0.228577
1480510094559111,-0.32373,-0.569336,0.720154,0.228882
1480510094581665,-0.324097,-0.56897,0.720276,0.229004
1480510094604226,-0.324463,-0.568604,0.720398,0.229065
1480510094619265,-0.324951,-0.56842,0.720337,0.228882
1480510094641825,-0.3255,-0.568298,0.720215,0.22876
1480510094663884,-0.32605,-0.56781,0.720337,0.228821
1480510094678924,-0.326782,-0.567688,0.720215,0.228638
1480510094701484,-0.327393,-0.56781,0.71991,0.228271
1480510094724045,-0.327759,-0.567871,0.719727,0.22821
1480510094739084,-0.328003,-0.568054,0.719421,0.228271
1480510094761644,-0.327942,-0.568115,0.71936,0.228394
1480510094784206,-0.327881,-0.568115,0.719421,0.228455
1480510094799244,-0.32782,-0.568115,0.719421,0.228516
1480510094821805,-0.32782,-0.568115,0.719421,0.228516
1480510094852888,-0.327637,-0.56842,0.719299,0.228394
1480510094858903,-0.327454,-0.568665,0.719116,0.228516
1480510094881463,-0.327271,-0.568787,0.719177,0.228455
1480510094905025,-0.327087,-0.568909,0.719238,0.22821
1480510094919063,-0.327026,-0.568848,0.719421,0.227905
1480510094941623,-0.326965,-0.568726,0.719604,0.227661
1480510094964183,-0.326782,-0.568665,0.719788,0.227539
1480510094979223,-0.326477,-0.568665,0.71991,0.227539
1480510095001783,-0.326111,-0.568787,0.71991,0.227661
1480510095024344,-0.325623,-0.568848,0.720032,0.227966
1480510095039384,-0.325073,-0.568909,0.720154,0.228149
1480510095068961,-0.324646,-0.56897,0.720276,0.228271
1480510095084002,-0.324341,-0.56897,0.720398,0.228271
1480510095099042,-0.324158,-0.56897,0.720459,0.228149
1480510095129122,-0.324097,-0.56897,0.720581,0.228088
1480510095144162,-0.324158,-0.56897,0.72052,0.228088
1480510095166722,-0.324158,-0.56897,0.72052,0.228088
1480510095181762,-0.324219,-0.56897,0.72052,0.228027
1480510095204322,-0.324219,-0.56897,0.72052,0.228027
1480510095226882,-0.324341,-0.569092,0.720398,0.227905
1480510095241421,-0.324402,-0.569153,0.720398,0.227905
1480510095263980,-0.324341,-0.569092,0.720398,0.227905
1480510095286541,-0.324341,-0.569092,0.720398,0.227966
1480510095301580,-0.324341,-0.569092,0.720459,0.227966
1480510095324141,-0.32428,-0.569092,0.720459,0.227966
1480510095346700,-0.324097,-0.568909,0.720642,0.227905
1480510095361740,-0.323914,-0.568848,0.720825,0.227844
1480510095384300,-0.32373,-0.568787,0.720947,0.227844
1480510095406861,-0.323608,-0.568726,0.721069,0.227844
1480510095421901,-0.323486,-0.568542,0.721191,0.227844
1480510095443959,-0.323425,-0.56842,0.721375,0.227905
1480510095466519,-0.323425,-0.56842,0.721375,0.227844
1480510095481559,-0.323425,-0.56842,0.721375,0.227844
1480510095513143,-0.323425,-0.56842,0.721375,0.227844
1480510095526679,-0.323669,-0.568481,0.721191,0.227905
1480510095544727,-0.323914,-0.56842,0.721069,0.228027
1480510095564279,-0.324341,-0.56842,0.720886,0.228088
1480510095595362,-0.324768,-0.568237,0.720825,0.228149
1480510095601378,-0.325134,-0.568054,0.720825,0.228088
1480510095625442,-0.325073,-0.567993,0.720886,0.228088
1480510095646498,-0.325073,-0.567932,0.720947,0.228088
1480510095661538,-0.324829,-0.567749,0.721252,0.227905
1480510095687607,-0.324463,-0.567627,0.721558,0.227722
1480510095706658,-0.324158,-0.567627,0.721741,0.2276
1480510095721701,-0.323914,-0.567749,0.721802,0.2276
1480510095744259,-0.323792,-0.56781,0.721802,0.227539
1480510095766817,-0.323792,-0.56781,0.721802,0.227539
1480510095781868,-0.323792,-0.567871,0.721741,0.227539
1480510095803916,-0.324036,-0.567871,0.721558,0.227661
1480510095826489,-0.324219,-0.567749,0.721497,0.227966
1480510095849053,-0.324219,-0.567688,0.721436,0.228271
1480510095864076,-0.324219,-0.567688,0.721497,0.228333
1480510095886636,-0.324219,-0.567627,0.721497,0.228333
1480510095901676,-0.324219,-0.567627,0.721497,0.228333
1480510095924237,-0.324219,-0.567627,0.721497,0.228271
1480510095946796,-0.324219,-0.567566,0.721497,0.228271
1480510095961837,-0.324463,-0.567627,0.721375,0.228271
1480510095983895,-0.324768,-0.567566,0.721313,0.228271
1480510096006458,-0.325012,-0.567444,0.721313,0.228271
1480510096021496,-0.325073,-0.567444,0.721313,0.228271
1480510096045560,-0.325195,-0.567322,0.721252,0.228333
1480510096066615,-0.325195,-0.567322,0.721313,0.228333
1480510096089176,-0.325317,-0.567261,0.721313,0.22821
1480510096104216,-0.325317,-0.567261,0.721313,0.22821
1480510096126775,-0.325317,-0.567261,0.721313,0.22821
1480510096149336,-0.325317,-0.567261,0.721313,0.22821
1480510096163874,-0.325317,-0.567261,0.721313,0.22821
1480510096186435,-0.325317,-0.567261,0.721313,0.22821
1480510096208994,-0.325317,-0.5672,0.721375,0.22821
1480510096224034,-0.325317,-0.5672,0.721375,0.228149
1480510096246594,-0.325317,-0.567139,0.721375,0.228149
1480510096269154,-0.325317,-0.567139,0.721436,0.228149
1480510096284194,-0.325378,-0.567139,0.721375,0.228149
1480510096309762,-0.325623,-0.567139,0.721252,0.228271
1480510096329314,-0.325867,-0.567139,0.72113,0.228271
1480510096343852,-0.325867,-0.567139,0.72113,0.228271
1480510096375437,-0.325867,-0.567139,0.72113,0.228271
1480510096388973,-0.325867,-0.567139,0.72113,0.228271
1480510096404013,-0.325867,-0.567078,0.721191,0.228271
1480510096426573,-0.325867,-0.567078,0.721191,0.228271
1480510096449133,-0.325684,-0.567017,0.721375,0.22821
1480510096464173,-0.325684,-0.567017,0.721375,0.22821
1480510096486733,-0.325684,-0.566956,0.721375,0.22821
1480510096509293,-0.325684,-0.567017,0.721375,0.22821
1480510096523833,-0.325684,-0.567017,0.721375,0.228149
1480510096546893,-0.325684,-0.567017,0.721375,0.228149
1480510096568951,-0.325806,-0.566956,0.721252,0.228333
1480510096583991,-0.325806,-0.566956,0.721313,0.228333
1480510096606551,-0.325806,-0.566956,0.721313,0.228333
1480510096614071,-0.325806,-0.566956,0.721313,0.228333
1480510096638136,-0.325867,-0.566895,0.721313,0.228333
1480510096651672,-0.325867,-0.566895,0.721313,0.228271
1480510096683255,-0.325867,-0.566895,0.721313,0.228271
1480510096697795,-0.325867,-0.566895,0.721375,0.228271
1480510096711831,-0.325867,-0.566895,0.721313,0.228271
1480510096734392,-0.325867,-0.566895,0.721313,0.228271
1480510096756951,-0.325867,-0.566833,0.721375,0.228271
1480510096772995,-0.325867,-0.566833,0.721375,0.228271
1480510096794050,-0.325867,-0.566833,0.721375,0.228271
1480510096818617,-0.325928,-0.566833,0.721375,0.228271
1480510096831650,-0.325867,-0.566772,0.721436,0.228271
1480510096854211,-0.325928,-0.566772,0.721436,0.228271
1480510096877774,-0.325867,-0.566772,0.721436,0.228271
1480510096891811,-0.325928,-0.566772,0.721375,0.228271
1480510096914370,-0.325928,-0.566833,0.721375,0.22821
1480510096937934,-0.325928,-0.566772,0.721375,0.22821
1480510096951470,-0.325928,-0.566772,0.721436,0.22821
1480510096974029,-0.325928,-0.566772,0.721436,0.22821
1480510096998094,-0.325928,-0.566772,0.721436,0.22821
1480510097020653,-0.325928,-0.566772,0.721436,0.22821
1480510097034189,-0.325928,-0.566772,0.721436,0.22821
1480510097058253,-0.325928,-0.566772,0.721436,0.22821
1480510097072291,-0.325928,-0.566772,0.721436,0.22821
1480510097094350,-0.325928,-0.566711,0.721436,0.22821
1480510097117925,-0.325928,-0.566711,0.721436,0.22821
1480510097131448,-0.325928,-0.566711,0.721436,0.22821
1480510097154008,-0.325928,-0.566711,0.721436,0.22821
1480510097178072,-0.325928,-0.566711,0.721436,0.22821
1480510097191608,-0.325989,-0.566711,0.721436,0.228149
1480510097214183,-0.325989,-0.566711,0.721436,0.228149
1480510097238243,-0.325989,-0.566711,0.721436,0.228149
1480510097260290,-0.325989,-0.566711,0.721436,0.228149
1480510097274327,-0.325989,-0.566711,0.721436,0.228149
1480510097297892,-0.325989,-0.566711,0.721436,0.228149
1480510097311427,-0.325989,-0.566711,0.721436,0.228149
1480510097333993,-0.325989,-0.566711,0.721436,0.228149
1480510097358050,-0.32605,-0.566711,0.721497,0.228088
1480510097371588,-0.32605,-0.566711,0.721497,0.228088
1480510097394146,-0.32605,-0.566711,0.721497,0.228088
1480510097418210,-0.32605,-0.56665,0.721497,0.228088
1480510097431747,-0.32605,-0.56665,0.721497,0.228088
1480510097454307,-0.32605,-0.56665,0.721497,0.228088
1480510097477870,-0.32605,-0.56665,0.721497,0.228088
1480510097491405,-0.32605,-0.56665,0.721497,0.228088
1480510097513965,-0.32605,-0.56665,0.721497,0.228088
1480510097537530,-0.326111,-0.566711,0.721497,0.228088
1480510097551566,-0.326111,-0.566711,0.721436,0.228088
1480510097574125,-0.326111,-0.566711,0.721436,0.228088
1480510097604706,-0.326111,-0.566711,0.721436,0.228027
1480510097614733,-0.326111,-0.566711,0.721436,0.228027
1480510097634285,-0.326111,-0.566711,0.721436,0.228027
1480510097656845,-0.326294,-0.56665,0.721375,0.228088
1480510097671886,-0.326355,-0.56665,0.721375,0.228088
1480510097693944,-0.326355,-0.566589,0.721436,0.228088
1480510097716504,-0.326355,-0.566589,0.721436,0.228088
1480510097740568,-0.326355,-0.566589,0.721436,0.228027
1480510097754105,-0.326355,-0.566589,0.721436,0.228027
1480510097776667,-0.326416,-0.566589,0.721436,0.228027
1480510097800226,-0.326416,-0.566589,0.721436,0.228027
1480510097814264,-0.326416,-0.566528,0.721436,0.228027
1480510097836824,-0.326355,-0.566528,0.721436,0.228027
1480510097860387,-0.326416,-0.566528,0.721497,0.228027
1480510097874424,-0.326416,-0.566528,0.721436,0.228027
1480510097905507,-0.326416,-0.566528,0.721436,0.228027
1480510097920546,-0.326416,-0.566589,0.721436,0.227966
1480510097934083,-0.326477,-0.566345,0.721497,0.228149
1480510097956643,-0.326538,-0.566345,0.721497,0.228149
1480510097980205,-0.326538,-0.566345,0.721497,0.228149
1480510097994243,-0.326538,-0.566345,0.721497,0.228149
1480510098016803,-0.326599,-0.566528,0.721313,0.228333
1480510098040365,-0.326721,-0.566589,0.72113,0.228516
1480510098053903,-0.326782,-0.566589,0.72113,0.228516
1480510098076485,-0.326782,-0.566589,0.72113,0.228516
1480510098100525,-0.326782,-0.566528,0.72113,0.228455
1480510098114062,-0.326782,-0.566528,0.721191,0.228455
1480510098136623,-0.326782,-0.566467,0.721191,0.228516
1480510098160184,-0.326477,-0.566223,0.721375,0.229065
1480510098174222,-0.325989,-0.565613,0.72168,0.230103
1480510098196781,-0.325378,-0.564819,0.722229,0.231384
1480510098220344,-0.324585,-0.564087,0.722778,0.232544
1480510098233880,-0.324097,-0.563477,0.723206,0.233337
1480510098256440,-0.32373,-0.56311,0.723389,0.234131
1480510098280504,-0.323608,-0.562683,0.723511,0.234924
1480510098294044,-0.32373,-0.562561,0.723389,0.235352
1480510098316600,-0.324158,-0.562744,0.723083,0.235229
1480510098340664,-0.32489,-0.562622,0.723083,0.234619
1480510098354201,-0.3255,-0.562378,0.723206,0.234009
1480510098376761,-0.326538,-0.562256,0.723083,0.233215
1480510098400323,-0.327637,-0.561768,0.723145,0.232666
1480510098414374,-0.328735,-0.561523,0.723083,0.231873
1480510098436419,-0.329651,-0.561462,0.722839,0.231384
1480510098460483,-0.330383,-0.561462,0.722534,0.231262
1480510098474019,-0.33075,-0.561096,0.722656,0.231445
1480510098496579,-0.330994,-0.561157,0.722534,0.231262
1480510098520643,-0.331055,-0.560974,0.722717,0.231018
1480510098534180,-0.331726,-0.560669,0.722595,0.231262
1480510098556739,-0.332886,-0.559937,0.722473,0.23175
1480510098580302,-0.33429,-0.559204,0.722168,0.232483
1480510098594338,-0.335388,-0.558533,0.721985,0.233093
1480510098616398,-0.336365,-0.558167,0.721741,0.233215
1480510098639960,-0.337219,-0.557739,0.721619,0.233398
1480510098653998,-0.338013,-0.55719,0.721497,0.233887
1480510098677059,-0.338989,-0.556763,0.721191,0.234497
1480510098708153,-0.340088,-0.556396,0.720764,0.235168
1480510098714158,-0.341187,-0.55603,0.720276,0.235718
1480510098736719,-0.342346,-0.55603,0.719543,0.236328
1480510098759278,-0.343201,-0.555664,0.719116,0.237305
1480510098774318,-0.344055,-0.555054,0.718933,0.238098
1480510098796376,-0.345032,-0.55481,0.718506,0.238525
1480510098818968,-0.345886,-0.554688,0.718018,0.239197
1480510098833977,-0.346619,-0.55426,0.717651,0.23999
1480510098856536,-0.347473,-0.553955,0.717224,0.240845
1480510098879096,-0.348328,-0.553772,0.716675,0.241577
1480510098894140,-0.348938,-0.55365,0.716187,0.242371
1480510098916696,-0.349426,-0.553284,0.716064,0.243042
1480510098939256,-0.34967,-0.552979,0.716003,0.243469
1480510098962819,-0.34967,-0.552795,0.716064,0.243591
1480510098976355,-0.34967,-0.552856,0.716064,0.243591
1480510098998915,-0.349792,-0.552673,0.716125,0.243713
1480510099016963,-0.349976,-0.55249,0.716064,0.243896
1480510099036515,-0.350159,-0.55249,0.715942,0.243896
1480510099059075,-0.35022,-0.55249,0.715942,0.243896
1480510099074115,-0.350342,-0.55249,0.715881,0.244019
1480510099096675,-0.350342,-0.55249,0.715881,0.244019
1480510099119742,-0.350342,-0.55249,0.71582,0.244263
1480510099134276,-0.350342,-0.552429,0.71582,0.244263
1480510099156840,-0.350525,-0.552673,0.715576,0.244202
1480510099178893,-0.350525,-0.552673,0.715576,0.244202
1480510099202958,-0.350525,-0.552673,0.715576,0.244202
1480510099216494,-0.350525,-0.552612,0.715576,0.244202
1480510099239054,-0.350525,-0.552612,0.715576,0.244141
1480510099263620,-0.350647,-0.552795,0.715454,0.24408
1480510099276654,-0.350647,-0.552795,0.715454,0.24408
1480510099299214,-0.350647,-0.552734,0.715515,0.24408
1480510099322776,-0.350647,-0.552734,0.715515,0.24408
1480510099336814,-0.350647,-0.552734,0.715515,0.24408
1480510099359374,-0.350647,-0.552734,0.715515,0.24408
1480510099382958,-0.350647,-0.552673,0.715515,0.24408
1480510099396473,-0.350647,-0.552673,0.715515,0.24408
1480510099419534,-0.350647,-0.552673,0.715515,0.24408
1480510099443096,-0.350647,-0.552673,0.715576,0.24408
1480510099456633,-0.350647,-0.552673,0.715576,0.24408
1480510099479193,-0.350647,-0.552673,0.715576,0.24408
1480510099502254,-0.350647,-0.552673,0.715576,0.24408
1480510099516793,-0.350647,-0.552673,0.715515,0.24408
1480510099547876,-0.350647,-0.552673,0.715576,0.24408
1480510099569433,-0.350647,-0.552673,0.715576,0.24408
1480510099579460,-0.350647,-0.552673,0.715576,0.24408
1480510099599011,-0.350647,-0.552673,0.715515,0.24408
1480510099622072,-0.350647,-0.552734,0.715515,0.24408
1480510099636612,-0.350647,-0.552734,0.715515,0.24408
1480510099659186,-0.350525,-0.552795,0.715515,0.244202
1480510099681732,-0.350525,-0.552795,0.715515,0.244202
1480510099696771,-0.350525,-0.552795,0.715515,0.244202
1480510099727854,-0.350586,-0.552734,0.715515,0.244141
1480510099741390,-0.350586,-0.552734,0.715515,0.244141
1480510099756430,-0.350586,-0.552734,0.715515,0.244141
1480510099778990,-0.350586,-0.552734,0.715515,0.244141
1480510099801550,-0.350586,-0.552734,0.715515,0.244141
1480510099816590,-0.350586,-0.552734,0.715515,0.244141
1480510099839150,-0.350586,-0.552734,0.715515,0.244141
1480510099861710,-0.350586,-0.552734,0.715515,0.244141
1480510099876750,-0.350586,-0.552734,0.715515,0.244141
1480510099899310,-0.350586,-0.552734,0.715515,0.244141
1480510099930894,-0.350586,-0.552734,0.715515,0.244141
1480510099936411,-0.350586,-0.552734,0.715515,0.244141
1480510099958969,-0.350586,-0.552734,0.715515,0.244141
1480510099981529,-0.350586,-0.552734,0.715515,0.244141
1480510099996569,-0.350586,-0.552734,0.715515,0.244141
1480510100019129,-0.350586,-0.552734,0.715515,0.244141
1480510100041689,-0.350586,-0.552734,0.715515,0.244141
1480510100065251,-0.350586,-0.552734,0.715515,0.244141
1480510100079288,-0.350586,-0.552734,0.715515,0.244141
1480510100101849,-0.350586,-0.552734,0.715515,0.244141
1480510100125412,-0.350586,-0.552734,0.715515,0.244141
1480510100138947,-0.350586,-0.552734,0.715515,0.244141
1480510100161508,-0.350586,-0.552734,0.715515,0.244141
1480510100176547,-0.350586,-0.552734,0.715515,0.244141
1480510100199108,-0.350586,-0.552734,0.715515,0.244141
1480510100221668,-0.350586,-0.552734,0.715515,0.244141
1480510100236708,-0.350586,-0.552734,0.715515,0.244141
1480510100259268,-0.350586,-0.552734,0.715515,0.244141
1480510100281828,-0.350586,-0.552734,0.715576,0.244141
1480510100296867,-0.350586,-0.552673,0.715576,0.244141
1480510100319621,-0.350586,-0.552734,0.715515,0.244141
1480510100341487,-0.350586,-0.552734,0.715515,0.244141
1480510100356526,-0.350586,-0.552734,0.715515,0.244141
1480510100379086,-0.350586,-0.552673,0.715515,0.244263
1480510100401647,-0.350586,-0.552673,0.715515,0.244263
1480510100416687,-0.350586,-0.552673,0.715515,0.244263
1480510100440751,-0.350586,-0.552673,0.715515,0.244263
1480510100470331,-0.350586,-0.552673,0.715515,0.244202
1480510100476345,-0.350586,-0.552673,0.715515,0.244202
1480510100498905,-0.350586,-0.552673,0.715515,0.244202
1480510100521465,-0.350586,-0.552673,0.715515,0.244202
1480510100536506,-0.350647,-0.552673,0.715515,0.244202
1480510100559065,-0.350586,-0.552673,0.715576,0.244202
1480510100590649,-0.350586,-0.552673,0.715576,0.244202
1480510100596670,-0.350586,-0.552673,0.715576,0.244202
1480510100619225,-0.350647,-0.552673,0.715576,0.244202
1480510100641785,-0.350647,-0.552673,0.715515,0.244202
1480510100656825,-0.350647,-0.552673,0.715576,0.244202
1480510100678883,-0.350647,-0.552673,0.715515,0.244202
1480510100701444,-0.350647,-0.552673,0.715576,0.244202
1480510100724005,-0.350647,-0.552612,0.715576,0.244141
1480510100740561,-0.350647,-0.552612,0.715576,0.244141
1480510100761604,-0.350647,-0.552612,0.715576,0.244141
1480510100784164,-0.350647,-0.552612,0.715576,0.244141
1480510100799204,-0.350647,-0.552612,0.715576,0.244141
1480510100821764,-0.350647,-0.552612,0.715576,0.244141
1480510100844324,-0.350769,-0.552734,0.715454,0.244141
1480510100858862,-0.350769,-0.552734,0.715454,0.244141
1480510100881424,-0.350769,-0.552734,0.715454,0.244141
1480510100903984,-0.350769,-0.552734,0.715454,0.244141
1480510100928047,-0.350769,-0.552734,0.715454,0.244141
1480510100941582,-0.350769,-0.552734,0.715454,0.244141
1480510100964144,-0.350769,-0.552734,0.715454,0.244141
1480510100979182,-0.350769,-0.552734,0.715454,0.244141
1480510101001744,-0.350769,-0.552734,0.715454,0.244141
1480510101024302,-0.350769,-0.552734,0.715454,0.244141
1480510101039343,-0.350769,-0.552734,0.715454,0.244141
1480510101061401,-0.350769,-0.552734,0.715454,0.244141
1480510101083962,-0.350769,-0.552734,0.715454,0.244141
1480510101099001,-0.350769,-0.552734,0.715454,0.244141
1480510101121563,-0.350769,-0.552734,0.715454,0.244141
1480510101144121,-0.350769,-0.552734,0.715454,0.244141
1480510101159162,-0.350769,-0.552734,0.715454,0.244141
1480510101181722,-0.350769,-0.552673,0.715454,0.244141
1480510101204282,-0.350769,-0.552673,0.715454,0.24408
1480510101219322,-0.350769,-0.552673,0.715454,0.24408
1480510101241380,-0.350769,-0.552673,0.715454,0.24408
1480510101263940,-0.350769,-0.552673,0.715454,0.24408
1480510101278980,-0.350769,-0.552673,0.715454,0.24408
1480510101301540,-0.350769,-0.552673,0.715454,0.24408
1480510101324100,-0.350769,-0.552673,0.715515,0.24408
1480510101339140,-0.350769,-0.552673,0.715454,0.24408
1480510101361700,-0.350769,-0.552673,0.715454,0.24408
1480510101384260,-0.350769,-0.552673,0.715454,0.24408
1480510101399300,-0.350769,-0.552673,0.715454,0.24408
1480510101421361,-0.350769,-0.552673,0.715454,0.24408
1480510101443919,-0.350769,-0.552673,0.715515,0.24408
1480510101461972,-0.350769,-0.552673,0.715515,0.24408
1480510101489540,-0.350769,-0.552673,0.715515,0.24408
1480510101513102,-0.350769,-0.552673,0.715515,0.24408
1480510101519119,-0.350769,-0.552673,0.715515,0.24408
1480510101541679,-0.350769,-0.552612,0.715515,0.24408
1480510101564239,-0.350769,-0.552612,0.715515,0.24408
1480510101586799,-0.35083,-0.552734,0.715393,0.244019
1480510101601338,-0.35083,-0.552734,0.715393,0.244019
1480510101633423,-0.35083,-0.552734,0.715454,0.244019
1480510101638937,-0.350952,-0.552856,0.715271,0.24408
1480510101661497,-0.351074,-0.552795,0.71521,0.244141
1480510101684063,-0.351074,-0.552551,0.715332,0.244324
1480510101709626,-0.351074,-0.552551,0.715332,0.244324
1480510101721658,-0.351074,-0.552551,0.715393,0.244324
1480510101744217,-0.350952,-0.552429,0.715393,0.244568
1480510101762265,-0.351013,-0.552429,0.715393,0.244568
1480510101790340,-0.350952,-0.552429,0.715454,0.244568
1480510101803876,-0.351013,-0.552368,0.715332,0.244812
1480510101820423,-0.351135,-0.552429,0.71521,0.244995
1480510101841476,-0.351135,-0.552368,0.715149,0.245239
1480510101864055,-0.351013,-0.552429,0.715088,0.245483
1480510101879076,-0.350952,-0.55249,0.715088,0.245544
1480510101901636,-0.350952,-0.55249,0.715088,0.245544
1480510101924196,-0.350952,-0.55249,0.715088,0.245483
1480510101939236,-0.351013,-0.55249,0.715088,0.245483
1480510101962799,-0.351013,-0.55249,0.715088,0.245483
1480510101983855,-0.351013,-0.55249,0.715027,0.245483
1480510101998894,-0.350952,-0.55249,0.715027,0.245483
1480510102021455,-0.350952,-0.55249,0.715088,0.245483
1480510102044015,-0.350952,-0.55249,0.715088,0.245483
1480510102059055,-0.350952,-0.55249,0.715088,0.245483
1480510102081615,-0.350952,-0.552429,0.715088,0.245483
1480510102104175,-0.350952,-0.552429,0.715088,0.245483
1480510102119216,-0.350952,-0.55249,0.715088,0.245483
1480510102141775,-0.350952,-0.552429,0.715088,0.245483
1480510102163834,-0.350952,-0.552429,0.715088,0.245483
1480510102186394,-0.350952,-0.552429,0.715088,0.245483
1480510102201434,-0.350952,-0.552429,0.715088,0.245483
1480510102223994,-0.350952,-0.552429,0.715088,0.245483
1480510102246554,-0.350952,-0.552429,0.715149,0.245483
1480510102261594,-0.350952,-0.552429,0.715149,0.245483
1480510102284154,-0.350952,-0.552429,0.715149,0.245483
1480510102315236,-0.350952,-0.552429,0.715088,0.245483
1480510102321754,-0.350952,-0.552429,0.715088,0.245483
1480510102344313,-0.350952,-0.552429,0.715088,0.245483
1480510102366372,-0.350952,-0.552429,0.715088,0.245483
1480510102381412,-0.350952,-0.552429,0.715149,0.245483
1480510102403973,-0.351013,-0.552429,0.715149,0.245483
1480510102426532,-0.351013,-0.552429,0.715088,0.245422
1480510102441573,-0.351013,-0.552429,0.715088,0.245422
1480510102464132,-0.351013,-0.552429,0.715088,0.245422
1480510102486692,-0.351013,-0.552429,0.715088,0.245422
1480510102501732,-0.351013,-0.552429,0.715088,0.245422
1480510102523791,-0.351013,-0.552429,0.715088,0.245422
1480510102546351,-0.351013,-0.552429,0.715088,0.245422
1480510102561392,-0.351013,-0.552429,0.715088,0.245422
1480510102583951,-0.351013,-0.552429,0.715088,0.245422
1480510102606512,-0.351013,-0.552429,0.715088,0.245422
1480510102624560,-0.351013,-0.552429,0.715088,0.245483
1480510102644112,-0.350952,-0.552673,0.714966,0.245422
1480510102666671,-0.351013,-0.552673,0.714966,0.245422
1480510102681711,-0.351013,-0.552612,0.714966,0.245361
1480510102704271,-0.351013,-0.552612,0.714966,0.245361
1480510102726330,-0.351013,-0.552612,0.714966,0.245361
1480510102741370,-0.350952,-0.552734,0.714966,0.245178
1480510102763929,-0.350952,-0.552734,0.714966,0.245178
1480510102786490,-0.350891,-0.552612,0.715088,0.245239
1480510102801530,-0.350891,-0.552612,0.715088,0.245239
1480510102824090,-0.350891,-0.552612,0.715088,0.245239
1480510102846649,-0.350891,-0.552612,0.715088,0.245239
1480510102869210,-0.35083,-0.552612,0.715088,0.245239
1480510102884250,-0.350891,-0.552612,0.715088,0.245239
1480510102906810,-0.350891,-0.552612,0.715088,0.245239
1480510102921349,-0.350891,-0.552612,0.715088,0.245239
1480510102943909,-0.350891,-0.552551,0.715149,0.245239
1480510102966468,-0.350891,-0.552551,0.715149,0.245239
1480510102981509,-0.350891,-0.552551,0.715149,0.245239
1480510103004068,-0.350891,-0.552551,0.715088,0.245239
1480510103026629,-0.350891,-0.552551,0.715149,0.245239
1480510103041669,-0.350891,-0.552551,0.715149,0.245239
1480510103064236,-0.350891,-0.552551,0.715149,0.245239
1480510103086791,-0.350891,-0.552551,0.715149,0.245239
1480510103101327,-0.350891,-0.552551,0.715149,0.245239
1480510103123887,-0.350891,-0.552551,0.715149,0.245239
1480510103146447,-0.350891,-0.552307,0.715332,0.245178
1480510103161487,-0.350891,-0.552307,0.715332,0.245178
1480510103184049,-0.350891,-0.552307,0.715332,0.245178
1480510103206607,-0.350891,-0.552307,0.715332,0.245178
1480510103221648,-0.350891,-0.552307,0.715332,0.245178
1480510103244207,-0.350891,-0.552307,0.715332,0.245178
1480510103266768,-0.350891,-0.552307,0.715332,0.245178
1480510103281807,-0.350891,-0.552368,0.715332,0.245178
1480510103303866,-0.350891,-0.552368,0.715332,0.245178
1480510103326426,-0.350891,-0.552368,0.715332,0.245178
1480510103348987,-0.350891,-0.552307,0.715332,0.245178
1480510103364046,-0.350891,-0.552307,0.715332,0.245178
1480510103386587,-0.350891,-0.552307,0.715332,0.245178
1480510103401627,-0.350891,-0.552307,0.715393,0.245178
1480510103425691,-0.350891,-0.552307,0.715393,0.245117
1480510103446746,-0.350952,-0.552246,0.715393,0.245117
1480510103461788,-0.350952,-0.552246,0.715393,0.245117
1480510103484346,-0.350952,-0.552246,0.715393,0.245117
1480510103506405,-0.350952,-0.552246,0.715393,0.245117
1480510103521446,-0.350952,-0.552246,0.715393,0.245117
1480510103544005,-0.350952,-0.552246,0.715393,0.245117
1480510103566565,-0.350952,-0.552246,0.715393,0.245117
1480510103581605,-0.350952,-0.552246,0.715393,0.245117
1480510103604166,-0.350952,-0.552246,0.715393,0.245117
1480510103626725,-0.350952,-0.552246,0.715393,0.245117
1480510103641764,-0.350952,-0.552246,0.715393,0.245117
1480510103663827,-0.350952,-0.552246,0.715393,0.245117
1480510103686718,-0.350952,-0.552246,0.715393,0.245117
1480510103708944,-0.350952,-0.552246,0.715393,0.245117
1480510103723984,-0.350952,-0.552185,0.715393,0.245056
1480510103746543,-0.350952,-0.552185,0.715454,0.245056
1480510103769104,-0.350952,-0.552185,0.715454,0.245056
1480510103784144,-0.350952,-0.552185,0.715454,0.245056
1480510103806704,-0.350952,-0.552185,0.715454,0.245056
1480510103829264,-0.350952,-0.552124,0.715454,0.245056
1480510103843802,-0.350952,-0.552124,0.715515,0.245056
1480510103866362,-0.350952,-0.552124,0.715515,0.245056
1480510103888923,-0.350952,-0.552124,0.715515,0.245056
1480510103903962,-0.351013,-0.552124,0.715515,0.245056
1480510103926522,-0.351013,-0.552063,0.715515,0.244995
1480510103949083,-0.351013,-0.552063,0.715515,0.245056
1480510103964123,-0.351013,-0.552063,0.715515,0.244995
1480510103986684,-0.351013,-0.552124,0.715515,0.244995
1480510104009242,-0.351013,-0.552124,0.715515,0.244995
1480510104023781,-0.351013,-0.552124,0.715454,0.244995
1480510104046341,-0.351013,-0.552124,0.715515,0.244995
1480510104068902,-0.351013,-0.552124,0.715515,0.244995
1480510104083941,-0.351013,-0.552063,0.715515,0.244995
1480510104106501,-0.351013,-0.552063,0.715515,0.244995
1480510104129061,-0.351013,-0.552063,0.715515,0.244995
1480510104144101,-0.351013,-0.552063,0.715515,0.244995
1480510104166661,-0.351013,-0.552063,0.715515,0.244995
1480510104189221,-0.351013,-0.552063,0.715515,0.244995
1480510104204261,-0.351013,-0.552063,0.715576,0.244995
1480510104226320,-0.351074,-0.552246,0.715332,0.244995
1480510104248879,-0.351074,-0.552246,0.715332,0.244995
1480510104263920,-0.351013,-0.552246,0.715393,0.244995
1480510104289488,-0.351013,-0.552246,0.715332,0.244995
1480510104309039,-0.351074,-0.552307,0.715332,0.244995
1480510104324080,-0.351257,-0.552368,0.71521,0.244995
1480510104346639,-0.351257,-0.552368,0.71521,0.244995
1480510104369201,-0.351196,-0.552307,0.71521,0.244995
1480510104384240,-0.351196,-0.552307,0.71521,0.244995
1480510104406799,-0.351196,-0.552368,0.71521,0.244995
1480510104430363,-0.351257,-0.552307,0.71521,0.244995
1480510104443899,-0.351257,-0.552307,0.71521,0.244995
1480510104466459,-0.351257,-0.552307,0.71521,0.244995
1480510104489019,-0.351257,-0.552307,0.71521,0.244995
1480510104507067,-0.351257,-0.552307,0.715271,0.244995
1480510104526619,-0.351257,-0.552307,0.715271,0.244995
1480510104549179,-0.351257,-0.552307,0.715271,0.244995
1480510104564223,-0.351257,-0.552307,0.715271,0.244995
1480510104593797,-0.351257,-0.552246,0.715271,0.244995
1480510104609338,-0.351257,-0.552307,0.715271,0.244934
1480510104623877,-0.351257,-0.552246,0.715271,0.244934
1480510104646438,-0.351257,-0.552307,0.715271,0.244934
1480510104668998,-0.351257,-0.552307,0.715271,0.244934
1480510104691558,-0.351257,-0.552246,0.715271,0.244995
1480510104706597,-0.351257,-0.552307,0.715271,0.244995
1480510104729158,-0.351257,-0.552307,0.715271,0.244995
1480510104751720,-0.351257,-0.552307,0.715271,0.244995
1480510104766757,-0.351257,-0.552307,0.71521,0.244995
1480510104788816,-0.351257,-0.552307,0.71521,0.244995
1480510104811878,-0.351257,-0.552307,0.715271,0.244995
1480510104826416,-0.351257,-0.552307,0.715271,0.244995
1480510104848977,-0.351257,-0.552307,0.715271,0.244995
1480510104871536,-0.351257,-0.552307,0.715271,0.244934
1480510104886577,-0.351257,-0.552307,0.715271,0.244934
1480510104909136,-0.351318,-0.552246,0.715271,0.244934
1480510104931696,-0.351318,-0.552246,0.715271,0.244934
1480510104946736,-0.351257,-0.552246,0.715271,0.244934
1480510104977819,-0.351318,-0.552246,0.715271,0.244934
1480510104991355,-0.351318,-0.552246,0.715271,0.244934
1480510105006395,-0.351318,-0.552246,0.715271,0.244934
1480510105028955,-0.351318,-0.552246,0.715271,0.244934
1480510105051515,-0.351318,-0.552246,0.715271,0.244934
1480510105066554,-0.351318,-0.552307,0.715271,0.244934
1480510105092123,-0.351318,-0.552307,0.71521,0.244873
1480510105111674,-0.351318,-0.552246,0.715271,0.244934
1480510105126714,-0.351318,-0.552246,0.715271,0.244934
1480510105148774,-0.351318,-0.552246,0.715271,0.244934
1480510105171334,-0.351318,-0.552246,0.715271,0.244934
1480510105186374,-0.351318,-0.552246,0.715271,0.244873
1480510105208933,-0.351318,-0.552246,0.715271,0.244934
1480510105231494,-0.351318,-0.552246,0.715271,0.244934
1480510105246534,-0.351318,-0.552246,0.715271,0.244934
1480510105269094,-0.351318,-0.552185,0.715332,0.244873
1480510105291654,-0.351318,-0.552185,0.715332,0.244934
1480510105306694,-0.351318,-0.552185,0.715332,0.244934
1480510105329253,-0.351318,-0.552185,0.715332,0.244873
1480510105351313,-0.351318,-0.552185,0.715332,0.244873
1480510105367856,-0.351318,-0.552185,0.715332,0.244873
1480510105396433,-0.351318,-0.552185,0.715332,0.244873
1480510105411473,-0.351318,-0.552185,0.715332,0.244873
1480510105426513,-0.351318,-0.552185,0.715332,0.244873
1480510105449072,-0.351318,-0.552185,0.715332,0.244873
1480510105471632,-0.351318,-0.552185,0.715332,0.244873
1480510105486674,-0.351318,-0.552185,0.715332,0.244873
1480510105509232,-0.351318,-0.552185,0.715332,0.244873
1480510105534299,-0.351318,-0.552185,0.715332,0.244873
1480510105546331,-0.351318,-0.552124,0.715332,0.244873
1480510105568891,-0.351318,-0.552124,0.715393,0.244873
1480510105591451,-0.351318,-0.552124,0.715393,0.244873
1480510105614011,-0.351318,-0.552124,0.715393,0.244873
1480510105629051,-0.351318,-0.552124,0.715393,0.244873
1480510105651611,-0.351318,-0.552124,0.715393,0.244873
1480510105674171,-0.351318,-0.552124,0.715393,0.244873
1480510105689211,-0.351318,-0.552124,0.715393,0.244873
1480510105711270,-0.351318,-0.552124,0.715393,0.244873
1480510105733829,-0.351318,-0.552124,0.715393,0.244873
1480510105748870,-0.351318,-0.552124,0.715393,0.244873
1480510105771447,-0.351318,-0.552124,0.715393,0.244873
1480510105793990,-0.351318,-0.552124,0.715393,0.244873
1480510105809030,-0.351318,-0.552124,0.715393,0.244873
1480510105841115,-0.351318,-0.552124,0.715393,0.244873
1480510105854150,-0.351318,-0.552124,0.715393,0.244873
1480510105869190,-0.351318,-0.552124,0.715393,0.244873
1480510105891262,-0.351379,-0.552124,0.715393,0.244812
1480510105922832,-0.351379,-0.552063,0.715393,0.244812
1480510105929350,-0.351379,-0.552063,0.715393,0.244812
1480510105954416,-0.351379,-0.552063,0.715393,0.244812
1480510105973968,-0.351379,-0.552063,0.715393,0.244812
1480510105989009,-0.351196,-0.552307,0.715332,0.244812
1480510106011569,-0.351135,-0.552673,0.715088,0.244751
1480510106034128,-0.351135,-0.552856,0.714966,0.24469
1480510106049169,-0.351074,-0.552979,0.714844,0.244812
1480510106071728,-0.351074,-0.552979,0.714844,0.244812
1480510106094290,-0.351074,-0.552979,0.714844,0.244812
1480510106109328,-0.351074,-0.552979,0.714844,0.244812
1480510106131388,-0.351257,-0.552856,0.714966,0.244507
1480510106153948,-0.351746,-0.552734,0.714966,0.244141
1480510106179516,-0.352173,-0.552368,0.715149,0.243835
1480510106200572,-0.352539,-0.55188,0.715393,0.243652
1480510106214107,-0.352844,-0.551575,0.715637,0.243225
1480510106232155,-0.353149,-0.55127,0.715881,0.242798
1480510106259730,-0.353333,-0.550842,0.716125,0.242554
1480510106274267,-0.353516,-0.550537,0.71637,0.24231
1480510106288806,-0.353516,-0.550537,0.71637,0.24231
1480510106312870,-0.353271,-0.550537,0.716492,0.242432
1480510106333926,-0.352844,-0.550476,0.716614,0.242737
1480510106348967,-0.352356,-0.550598,0.716614,0.243103
1480510106371526,-0.35199,-0.550842,0.716553,0.243347
1480510106394086,-0.351685,-0.551025,0.716492,0.243652
1480510106409126,-0.35144,-0.551208,0.71637,0.243835
1480510106431687,-0.351379,-0.55127,0.716309,0.243958
1480510106456753,-0.351501,-0.551392,0.716187,0.243958
1480510106469287,-0.351501,-0.551392,0.716125,0.243958
1480510106491345,-0.351746,-0.551147,0.716248,0.243896
1480510106513908,-0.351929,-0.550781,0.716492,0.243774
1480510106528945,-0.352051,-0.550476,0.716736,0.24353
1480510106551506,-0.352234,-0.550293,0.716858,0.243347
1480510106574065,-0.352661,-0.550049,0.716919,0.243164
1480510106596625,-0.352905,-0.549866,0.71698,0.24292
1480510106611664,-0.352905,-0.549866,0.71698,0.24292
1480510106634225,-0.352661,-0.55011,0.716919,0.242859
1480510106656785,-0.352356,-0.550537,0.716736,0.243042
1480510106671324,-0.352051,-0.550659,0.716736,0.243225
1480510106695410,-0.351929,-0.550903,0.716553,0.243225
1480510106716444,-0.35199,-0.551147,0.71637,0.243164
1480510106731483,-0.35199,-0.551147,0.71637,0.243164
1480510106754046,-0.352173,-0.550964,0.716553,0.24292
1480510106776607,-0.352539,-0.550781,0.716614,0.242493
1480510106791643,-0.352905,-0.550537,0.716736,0.242188
1480510106815709,-0.353333,-0.55011,0.71698,0.241821
1480510106836763,-0.353638,-0.549683,0.717285,0.241516
1480510106851804,-0.353943,-0.549377,0.717407,0.241394
1480510106873862,-0.354309,-0.549133,0.717407,0.241272
1480510106896423,-0.354492,-0.548889,0.717529,0.24115
1480510106911463,-0.354492,-0.548889,0.71759,0.241089
1480510106934023,-0.354431,-0.548828,0.717712,0.240967
1480510106956582,-0.354431,-0.548828,0.717712,0.240967
1480510106974630,-0.354309,-0.549011,0.71759,0.240967
1480510106994182,-0.354065,-0.549133,0.71759,0.241089
1480510107016742,-0.354065,-0.549133,0.71759,0.24115
1480510107031281,-0.354065,-0.549133,0.71759,0.24115
1480510107053841,-0.354065,-0.549133,0.71759,0.24115
1480510107076405,-0.354004,-0.549133,0.71759,0.24115
1480510107091441,-0.354065,-0.549133,0.71759,0.24115
1480510107114001,-0.354004,-0.549133,0.71759,0.24115
1480510107136561,-0.354065,-0.549011,0.717651,0.241272
1480510107159121,-0.354065,-0.549011,0.717651,0.241272
1480510107174161,-0.354065,-0.549011,0.717651,0.241272
1480510107196721,-0.354065,-0.549011,0.717651,0.241272
1480510107211260,-0.353882,-0.548828,0.717896,0.241272
1480510107233819,-0.353638,-0.548828,0.718018,0.241211
1480510107256380,-0.353394,-0.548767,0.71814,0.24115
1480510107271420,-0.353333,-0.548889,0.718201,0.241028
1480510107293980,-0.353333,-0.548889,0.718201,0.241028
1480510107316540,-0.353333,-0.548828,0.718201,0.241028
1480510107339100,-0.353455,-0.549011,0.71814,0.240723
1480510107354140,-0.353333,-0.549316,0.718018,0.240601
1480510107376700,-0.353333,-0.549316,0.718018,0.240601
1480510107391746,-0.353271,-0.549377,0.717957,0.240723
1480510107413798,-0.353271,-0.549622,0.717773,0.240662
1480510107448392,-0.35321,-0.549622,0.717773,0.240662
1480510107452904,-0.353271,-0.549622,0.717773,0.240662
1480510107473958,-0.35321,-0.549622,0.717773,0.240662
1480510107496519,-0.353027,-0.549683,0.717834,0.240662
1480510107519580,-0.3526,-0.549683,0.718018,0.240784
1480510107537126,-0.352356,-0.549805,0.717957,0.241028
1480510107556682,-0.352234,-0.549805,0.717957,0.241211
1480510107579238,-0.352234,-0.549927,0.717834,0.241272
1480510107593777,-0.352112,-0.549927,0.717834,0.241455
1480510107616337,-0.352051,-0.549866,0.717896,0.241638
1480510107638897,-0.352051,-0.549805,0.717896,0.241638
1480510107653938,-0.352051,-0.549866,0.717896,0.241638
1480510107676497,-0.352051,-0.549866,0.717896,0.241638
1480510107699058,-0.352051,-0.549866,0.717896,0.241638
1480510107714101,-0.352051,-0.549866,0.717896,0.241638
1480510107745180,-0.352051,-0.549866,0.717834,0.241638
1480510107759217,-0.352051,-0.549683,0.717957,0.24176
1480510107774257,-0.35199,-0.549622,0.718018,0.24176
1480510107796817,-0.35199,-0.549622,0.718018,0.24176
1480510107819379,-0.35199,-0.549622,0.718018,0.24176
1480510107841436,-0.352051,-0.549622,0.718018,0.24176
1480510107856502,-0.352051,-0.549622,0.718018,0.24176
1480510107879036,-0.352051,-0.549561,0.718018,0.241699
1480510107897085,-0.352051,-0.549561,0.718018,0.241699
1480510107916642,-0.352051,-0.549561,0.718018,0.241699
1480510107939196,-0.352051,-0.549561,0.718079,0.241699
1480510107954236,-0.352051,-0.549561,0.718079,0.241699
1480510107976796,-0.352051,-0.549561,0.718079,0.241699
1480510107999356,-0.352051,-0.549561,0.718079,0.241699
1480510108013899,-0.352051,-0.549561,0.718079,0.241699
1480510108036454,-0.352051,-0.549561,0.718079,0.241699
1480510108059015,-0.352051,-0.549561,0.718079,0.241699
1480510108074055,-0.352051,-0.549561,0.718079,0.241699
1480510108096615,-0.352051,-0.549561,0.718079,0.241699
1480510108119177,-0.352051,-0.549561,0.718079,0.241699
1480510108134215,-0.352051,-0.5495,0.718079,0.241699
1480510108156273,-0.352051,-0.5495,0.718079,0.24176
1480510108178835,-0.352051,-0.5495,0.71814,0.24176
1480510108193874,-0.35199,-0.5495,0.71814,0.24176
1480510108216435,-0.352051,-0.5495,0.71814,0.24176
1480510108238994,-0.35199,-0.549438,0.71814,0.24176
1480510108254233,-0.35199,-0.549438,0.71814,0.24176
1480510108276594,-0.35199,-0.549438,0.71814,0.24176
1480510108307676,-0.35199,-0.549438,0.718201,0.24176
1480510108314196,-0.35199,-0.549438,0.718201,0.24176
1480510108336755,-0.35199,-0.549438,0.718201,0.24176
1480510108358812,-0.35199,-0.549438,0.718201,0.24176
1480510108373852,-0.35199,-0.549438,0.718201,0.24176
1480510108397916,-0.35199,-0.549438,0.718201,0.24176
1480510108418972,-0.35199,-0.549377,0.718201,0.24176
1480510108441532,-0.35199,-0.549377,0.718201,0.24176
1480510108459580,-0.35199,-0.549377,0.718201,0.24176
1480510108479132,-0.35199,-0.549438,0.718201,0.24176
1480510108501693,-0.35199,-0.549438,0.718201,0.24176
1480510108516734,-0.35199,-0.549377,0.718201,0.24176
1480510108538791,-0.35199,-0.549377,0.718201,0.24176
1480510108561351,-0.35199,-0.549377,0.718262,0.24176
1480510108576391,-0.35199,-0.549377,0.718262,0.24176
1480510108598950,-0.35199,-0.549377,0.718262,0.24176
1480510108621511,-0.35199,-0.549377,0.718201,0.24176
1480510108636550,-0.35199,-0.549377,0.718262,0.24176
1480510108667634,-0.35199,-0.549377,0.718262,0.24176
1480510108681672,-0.35199,-0.549377,0.718262,0.24176
1480510108699218,-0.35199,-0.549316,0.718262,0.24176
1480510108718770,-0.351929,-0.549316,0.718262,0.24176
1480510108741329,-0.351929,-0.549316,0.718262,0.24176
1480510108763890,-0.35199,-0.549316,0.718262,0.24176
1480510108778929,-0.35199,-0.549377,0.718262,0.24176
1480510108801490,-0.351929,-0.549377,0.718262,0.24176
1480510108816535,-0.35199,-0.549377,0.718262,0.24176
1480510108839090,-0.35199,-0.549316,0.718262,0.24176
1480510108861649,-0.351929,-0.549316,0.718262,0.24176
1480510108876691,-0.35199,-0.549316,0.718262,0.24176
1480510108899249,-0.35199,-0.549316,0.718262,0.24176
1480510108930337,-0.35199,-0.549316,0.718262,0.24176
1480510108943869,-0.35199,-0.549316,0.718262,0.24176
1480510108958908,-0.351929,-0.549316,0.718262,0.24176
1480510108981468,-0.351929,-0.549316,0.718323,0.24176
1480510108996509,-0.351929,-0.549255,0.718323,0.24176
1480510109019413,-0.351929,-0.549255,0.718323,0.24176
1480510109041629,-0.351929,-0.549255,0.718323,0.24176
1480510109056668,-0.351929,-0.549255,0.718323,0.24176
1480510109079228,-0.35199,-0.549255,0.718323,0.24176
1480510109101789,-0.35199,-0.549255,0.718323,0.241699
1480510109116327,-0.35199,-0.549255,0.718323,0.241699
1480510109138887,-0.352173,-0.549011,0.718445,0.241699
1480510109161447,-0.352356,-0.548889,0.718445,0.241577
1480510109176487,-0.352356,-0.548889,0.718445,0.241577
1480510109199047,-0.352356,-0.548889,0.718445,0.241577
1480510109221607,-0.352356,-0.548889,0.718445,0.241577
1480510109236647,-0.352234,-0.549011,0.718384,0.241699
1480510109259207,-0.352112,-0.549133,0.718323,0.241821
1480510109281767,-0.35199,-0.549316,0.718201,0.241943
1480510109296306,-0.35199,-0.549316,0.718201,0.241943
1480510109318866,-0.352051,-0.549316,0.718201,0.241943
1480510109341426,-0.352051,-0.549316,0.718201,0.241943
1480510109356466,-0.352051,-0.549316,0.718201,0.241943
1480510109379026,-0.352051,-0.549316,0.718201,0.241943
1480510109401586,-0.352051,-0.549316,0.718201,0.241943
1480510109424146,-0.352051,-0.549316,0.718201,0.241943
1480510109439185,-0.352051,-0.549316,0.718201,0.241943
1480510109461746,-0.352051,-0.549316,0.718201,0.241943
1480510109484307,-0.352051,-0.549316,0.718201,0.241943
1480510109501854,-0.352051,-0.549316,0.718201,0.241943
1480510109521405,-0.352112,-0.549133,0.718323,0.241821
1480510109543965,-0.352173,-0.549011,0.718445,0.241699
1480510109560509,-0.352417,-0.548889,0.718445,0.241516
1480510109581565,-0.352417,-0.548889,0.718445,0.241516
1480510109604125,-0.352417,-0.548889,0.718445,0.241516
1480510109619167,-0.352417,-0.54895,0.718445,0.241516
1480510109641724,-0.352417,-0.548889,0.718445,0.241516
1480510109663783,-0.352417,-0.548889,0.718445,0.241516
1480510109678823,-0.352417,-0.548889,0.718445,0.241455
1480510109701383,-0.352417,-0.548889,0.718506,0.241455
1480510109723944,-0.352417,-0.548889,0.718506,0.241455
1480510109746504,-0.352417,-0.548889,0.718506,0.241455
1480510109761543,-0.352478,-0.548828,0.718506,0.241455
1480510109784104,-0.352478,-0.548828,0.718506,0.241455
1480510109806663,-0.352478,-0.548828,0.718506,0.241455
1480510109821704,-0.352478,-0.548828,0.718506,0.241394
1480510109843762,-0.352478,-0.548828,0.718506,0.241455
1480510109858802,-0.352478,-0.548828,0.718506,0.241455
1480510109881362,-0.352478,-0.548828,0.718506,0.241455
1480510109903922,-0.352478,-0.548828,0.718506,0.241394
1480510109918963,-0.352478,-0.548828,0.718506,0.241394
1480510109941522,-0.352478,-0.548828,0.718506,0.241394
1480510109964082,-0.352356,-0.549072,0.718506,0.241089
1480510109979122,-0.352295,-0.549438,0.718506,0.240417
1480510110001682,-0.351685,-0.549683,0.718689,0.240051
1480510110024242,-0.351257,-0.550415,0.718567,0.239502
1480510110038781,-0.351318,-0.551025,0.718079,0.239441
1480510110061341,-0.351929,-0.551147,0.717529,0.239868
1480510110085406,-0.351929,-0.551147,0.717346,0.24054
1480510110098941,-0.351624,-0.551025,0.717346,0.24115
1480510110121501,-0.351135,-0.551025,0.717407,0.241577
1480510110144061,-0.351135,-0.551025,0.717407,0.241577
1480510110159101,-0.351563,-0.550659,0.717468,0.241699
1480510110181661,-0.351807,-0.550293,0.71759,0.241882
1480510110204221,-0.351868,-0.550293,0.71759,0.241882
1480510110226781,-0.351807,-0.550049,0.717712,0.242065
1480510110241319,-0.351807,-0.550049,0.717712,0.242065
1480510110263879,-0.351807,-0.550049,0.717712,0.242004
1480510110278921,-0.351868,-0.550049,0.717712,0.242004
1480510110301480,-0.351746,-0.550171,0.717651,0.242065
1480510110333063,-0.351807,-0.550415,0.717407,0.242004
1480510110346599,-0.351807,-0.550415,0.717407,0.242004
1480510110361640,-0.351868,-0.550476,0.717407,0.241943
1480510110384200,-0.351868,-0.550476,0.717407,0.241943
1480510110406760,-0.351868,-0.550476,0.717407,0.241943
1480510110421299,-0.351868,-0.550415,0.717407,0.241943
1480510110443858,-0.351868,-0.550415,0.717407,0.241943
1480510110466418,-0.351868,-0.550415,0.717407,0.241943
1480510110481458,-0.351807,-0.550415,0.717468,0.241943
1480510110504018,-0.351807,-0.550415,0.717468,0.241943
1480510110527080,-0.351807,-0.550415,0.717468,0.241943
1480510110541618,-0.351807,-0.550354,0.717468,0.241943
1480510110564179,-0.351807,-0.550354,0.717468,0.241943
1480510110586559,-0.351807,-0.550354,0.717468,0.241943
1480510110601779,-0.351807,-0.550354,0.717468,0.241943
1480510110623837,-0.351868,-0.550354,0.717468,0.241943
1480510110646397,-0.351868,-0.550415,0.717468,0.241943
1480510110661437,-0.351868,-0.550415,0.717468,0.241943
1480510110684002,-0.351868,-0.550415,0.717468,0.241943
1480510110706557,-0.351868,-0.550415,0.717468,0.241943
1480510110721597,-0.351868,-0.550415,0.717407,0.241943
1480510110744157,-0.351868,-0.550415,0.717407,0.241943
1480510110766717,-0.351868,-0.550415,0.717407,0.241943
1480510110781757,-0.351929,-0.550415,0.717407,0.241943
1480510110803816,-0.351929,-0.550415,0.717407,0.241943
1480510110826376,-0.352295,-0.550293,0.717468,0.241516
1480510110841416,-0.352234,-0.550232,0.71759,0.241272
1480510110863977,-0.352295,-0.550293,0.71759,0.24115
1480510110886536,-0.352234,-0.550293,0.71759,0.24115
1480510110901578,-0.352295,-0.550476,0.717529,0.240967
1480510110924136,-0.3526,-0.550476,0.717529,0.240356
1480510110946696,-0.352417,-0.550537,0.717834,0.239624
1480510110961736,-0.352295,-0.550659,0.718018,0.238892
1480510110983795,-0.351624,-0.551208,0.718201,0.238159
1480510111006355,-0.35083,-0.551697,0.718384,0.23761
1480510111021394,-0.350525,-0.552124,0.718567,0.236389
1480510111043954,-0.349487,-0.552307,0.719299,0.235352
1480510111066514,-0.348572,-0.552979,0.719421,0.234863
1480510111081554,-0.348328,-0.553284,0.719238,0.235168
1480510111104115,-0.348511,-0.552734,0.71936,0.235718
1480510111126674,-0.34845,-0.552673,0.719421,0.235718
1480510111141714,-0.348328,-0.55304,0.719238,0.235596
1480510111163774,-0.348145,-0.552917,0.719299,0.235962
1480510111186336,-0.3479,-0.55249,0.719604,0.236389
1480510111201373,-0.347839,-0.552124,0.719849,0.236511
1480510111223933,-0.348328,-0.552063,0.719849,0.235901
1480510111246994,-0.348267,-0.551758,0.720154,0.23584
1480510111261533,-0.348572,-0.552246,0.719421,0.23645
1480510111285599,-0.348755,-0.552185,0.718689,0.238708
1480510111306653,-0.349243,-0.552185,0.71759,0.241211
1480510111329213,-0.350342,-0.552673,0.716125,0.242798
1480510111343752,-0.351379,-0.552795,0.715332,0.243469
1480510111366312,-0.351624,-0.55249,0.715393,0.243591
1480510111388872,-0.351685,-0.552612,0.715332,0.243469
1480510111411432,-0.351807,-0.552673,0.715149,0.243591
1480510111426472,-0.352051,-0.552429,0.715088,0.243958
1480510111449032,-0.352478,-0.552429,0.714783,0.24408
1480510111471592,-0.3526,-0.552551,0.714661,0.24408
1480510111486632,-0.352661,-0.552551,0.714661,0.244019
1480510111509192,-0.352661,-0.552551,0.714661,0.244019
1480510111524232,-0.352844,-0.552429,0.714783,0.243835
1480510111546291,-0.352661,-0.552124,0.715149,0.24353
1480510111568855,-0.352417,-0.551819,0.715637,0.243042
1480510111583893,-0.352356,-0.55188,0.71582,0.242615
1480510111609459,-0.352417,-0.551758,0.716003,0.242249
1480510111629011,-0.352356,-0.55127,0.716553,0.241882
1480510111644051,-0.352234,-0.551147,0.716858,0.241455
1480510111666611,-0.352234,-0.551147,0.717041,0.240906
1480510111689673,-0.352173,-0.550903,0.717346,0.240662
1480510111704210,-0.352234,-0.550781,0.717529,0.240417
1480510111726270,-0.352295,-0.550842,0.717529,0.240051
1480510111749337,-0.352234,-0.550842,0.717651,0.239685
1480510111763873,-0.352173,-0.55072,0.717896,0.23938
1480510111786931,-0.352173,-0.55072,0.717896,0.23938
1480510111808990,-0.352173,-0.55072,0.717896,0.23938
1480510111824029,-0.352051,-0.550415,0.718323,0.238953
1480510111846589,-0.35199,-0.55011,0.718811,0.238403
1480510111869149,-0.352356,-0.55011,0.718994,0.237244
1480510111884191,-0.352234,-0.549866,0.719727,0.235718
1480510111915773,-0.351929,-0.549805,0.720337,0.234436
1480510111929309,-0.351929,-0.549927,0.720581,0.233337
1480510111943848,-0.351501,-0.549683,0.721191,0.232727
1480510111973928,-0.351196,-0.549927,0.721313,0.232178
1480510111988969,-0.351501,-0.550598,0.720886,0.231506
1480510112004009,-0.351624,-0.550842,0.72113,0.230103
1480510112026568,-0.351135,-0.550781,0.721863,0.228638
1480510112049141,-0.350342,-0.55127,0.722473,0.226624
1480510112064169,-0.349182,-0.551331,0.723633,0.224609
1480510112086728,-0.347839,-0.551514,0.724426,0.223633
1480510112108787,-0.347473,-0.552979,0.723267,0.224426
1480510112123827,-0.348511,-0.553955,0.721497,0.226257
1480510112146388,-0.349365,-0.553772,0.72052,0.228333
1480510112168947,-0.349548,-0.553894,0.720215,0.228699
1480510112183987,-0.348633,-0.553772,0.720764,0.228699
1480510112206547,-0.34845,-0.554016,0.720947,0.227844
1480510112229107,-0.34845,-0.55365,0.721191,0.227966
1480510112251667,-0.348328,-0.553101,0.721375,0.22876
1480510112266707,-0.348328,-0.552795,0.721313,0.229675
1480510112288766,-0.348755,-0.552979,0.720886,0.22998
1480510112311326,-0.348877,-0.552673,0.721008,0.230103
1480510112326365,-0.349121,-0.552368,0.72113,0.230164
1480510112348926,-0.349365,-0.552124,0.721191,0.230225
1480510112371486,-0.349365,-0.552063,0.721252,0.230164
1480510112386610,-0.349365,-0.552063,0.721252,0.230225
1480510112417609,-0.349365,-0.552063,0.721191,0.230347
1480510112431646,-0.349426,-0.552124,0.72113,0.230408
1480510112446686,-0.349426,-0.552002,0.72113,0.230469
1480510112468745,-0.349487,-0.551941,0.721191,0.23053
1480510112491304,-0.349487,-0.551941,0.721191,0.23053
1480510112513864,-0.349426,-0.552002,0.72113,0.230713
1480510112528904,-0.349426,-0.551941,0.72113,0.230713
1480510112551465,-0.349609,-0.55188,0.721069,0.230896
1480510112566504,-0.349548,-0.551697,0.72113,0.231079
1480510112589064,-0.349548,-0.551941,0.720947,0.23114
1480510112611637,-0.349426,-0.552185,0.720764,0.231262
1480510112626664,-0.349182,-0.552368,0.720703,0.231445
1480510112649225,-0.349121,-0.552368,0.720703,0.231445
1480510112671283,-0.349182,-0.552307,0.720642,0.23175
1480510112686595,-0.34906,-0.552307,0.720581,0.232056
1480510112708884,-0.348877,-0.552368,0.72052,0.232422
1480510112731443,-0.348999,-0.552307,0.720337,0.232971
1480510112746483,-0.349243,-0.552063,0.720154,0.233643
1480510112769043,-0.349548,-0.551941,0.71991,0.234314
1480510112791603,-0.349854,-0.552002,0.719543,0.234802
1480510112806644,-0.350159,-0.552063,0.719177,0.235291
1480510112829214,-0.350525,-0.552124,0.718872,0.235596
1480510112851764,-0.35083,-0.551941,0.718628,0.236206
1480510112866302,-0.351318,-0.551758,0.718384,0.236755
1480510112888861,-0.351929,-0.551636,0.71814,0.237
1480510112911422,-0.352417,-0.551208,0.71814,0.237122
1480510112926462,-0.352966,-0.550842,0.718262,0.236938
1480510112949023,-0.353455,-0.550598,0.718262,0.236755
1480510112980105,-0.353699,-0.550537,0.718201,0.236572
1480510112986622,-0.353699,-0.550537,0.718201,0.236511
1480510113009182,-0.353699,-0.550537,0.718262,0.236511
1480510113031241,-0.353394,-0.550781,0.71814,0.236755
1480510113054302,-0.353027,-0.551086,0.717896,0.237061
1480510113068841,-0.3526,-0.551208,0.717957,0.237366
1480510113091401,-0.352173,-0.551453,0.717957,0.237549
1480510113106441,-0.352173,-0.551514,0.717896,0.237549
1480510113129001,-0.352173,-0.551514,0.717896,0.237488
1480510113151563,-0.351929,-0.551453,0.718079,0.237488
1480510113166601,-0.351929,-0.551453,0.718079,0.237488
1480510113189161,-0.351807,-0.551636,0.717834,0.238037
1480510113211721,-0.351624,-0.552063,0.717407,0.238464
1480510113233780,-0.350891,-0.552673,0.717163,0.238892
1480510113248819,-0.350159,-0.553223,0.717041,0.239075
1480510113271379,-0.349609,-0.553345,0.717224,0.239136
1480510113293940,-0.349487,-0.553467,0.717224,0.239014
1480510113308979,-0.349487,-0.553528,0.717285,0.238708
1480510113331541,-0.349365,-0.553284,0.717651,0.238403
1480510113354101,-0.349243,-0.552917,0.718079,0.23822
1480510113369139,-0.349121,-0.552612,0.718384,0.237976
1480510113391699,-0.348938,-0.552551,0.718567,0.237915
1480510113413758,-0.348938,-0.552551,0.718567,0.237915
1480510113428801,-0.348938,-0.552551,0.718567,0.237915
1480510113451358,-0.348877,-0.552368,0.718689,0.238037
1480510113473918,-0.349121,-0.552307,0.718567,0.23822
1480510113488958,-0.349243,-0.552063,0.718567,0.238525
1480510113511518,-0.349243,-0.552063,0.718567,0.238525
1480510113534079,-0.349243,-0.552063,0.718628,0.238525
1480510113549119,-0.349243,-0.552063,0.718628,0.238464
1480510113571678,-0.349243,-0.552063,0.718628,0.238464
1480510113594238,-0.349243,-0.552002,0.718628,0.238464
1480510113608777,-0.349243,-0.552002,0.718628,0.238464
1480510113631338,-0.349243,-0.552002,0.718628,0.238464
1480510113653985,-0.349243,-0.552063,0.718628,0.238464
1480510113668937,-0.349243,-0.552063,0.718628,0.238464
1480510113691497,-0.349243,-0.552063,0.718628,0.238464
1480510113714057,-0.349243,-0.552063,0.718628,0.238464
1480510113729100,-0.349243,-0.552063,0.718628,0.238525
1480510113754665,-0.349243,-0.552063,0.718567,0.238525
1480510113774219,-0.349243,-0.552124,0.718567,0.238464
1480510113788756,-0.349243,-0.552124,0.718567,0.238464
1480510113811316,-0.349243,-0.552124,0.718567,0.238464
1480510113833876,-0.349243,-0.552124,0.718567,0.238464
1480510113848916,-0.349243,-0.552063,0.718567,0.238464
1480510113871475,-0.349243,-0.552063,0.718567,0.238464
1480510113894036,-0.349243,-0.552063,0.718628,0.238464
1480510113909076,-0.349243,-0.552002,0.718628,0.238464
1480510113939156,-0.349243,-0.55188,0.71875,0.238464
1480510113954200,-0.349243,-0.55188,0.71875,0.238464
1480510113971747,-0.349182,-0.55188,0.71875,0.238464
1480510113998815,-0.349182,-0.551819,0.718811,0.238525
1480510114013861,-0.349182,-0.551819,0.718811,0.238525
1480510114028894,-0.349182,-0.551819,0.718811,0.238525
1480510114051455,-0.349182,-0.551819,0.718811,0.238525
1480510114074018,-0.349182,-0.551819,0.718811,0.238525
1480510114089054,-0.349182,-0.551819,0.718811,0.238525
1480510114111614,-0.349182,-0.551819,0.718811,0.238525
1480510114137182,-0.349182,-0.551819,0.718811,0.238525
1480510114156233,-0.349182,-0.551819,0.718811,0.238525
1480510114171273,-0.349121,-0.551819,0.718811,0.238525
1480510114193833,-0.349121,-0.551819,0.718811,0.238525
1480510114216393,-0.349121,-0.551819,0.718811,0.238586
1480510114231433,-0.348999,-0.551758,0.718872,0.23877
1480510114253995,-0.348999,-0.551758,0.718872,0.23877
1480510114276553,-0.348999,-0.551697,0.718933,0.238708
1480510114291593,-0.348999,-0.551697,0.718933,0.238708
1480510114314153,-0.348999,-0.551697,0.718933,0.238708
1480510114336212,-0.348999,-0.551636,0.718933,0.238708
1480510114351754,-0.348999,-0.551636,0.718933,0.238708
1480510114376820,-0.348999,-0.551636,0.718933,0.238708
1480510114396376,-0.348999,-0.551636,0.718994,0.238708
1480510114411415,-0.348999,-0.551392,0.719177,0.238647
1480510114442995,-0.348999,-0.551392,0.719177,0.238647
1480510114456532,-0.348938,-0.551392,0.719177,0.238647
1480510114471572,-0.34906,-0.551147,0.719299,0.238708
1480510114494132,-0.34906,-0.551086,0.71936,0.238708
1480510114525215,-0.34906,-0.551086,0.71936,0.238708
1480510114531230,-0.34906,-0.551147,0.71936,0.238708
1480510114556799,-0.34906,-0.551147,0.719299,0.238708
1480510114576352,-0.34906,-0.551086,0.71936,0.238708
1480510114591390,-0.34906,-0.551086,0.71936,0.238708
1480510114613951,-0.34906,-0.551086,0.71936,0.238708
1480510114636511,-0.34906,-0.551086,0.71936,0.238647
1480510114651553,-0.34906,-0.551086,0.71936,0.238708
1480510114674111,-0.34906,-0.551086,0.71936,0.238708
1480510114696670,-0.34906,-0.551086,0.71936,0.238708
1480510114711711,-0.34906,-0.551086,0.71936,0.238708
1480510114734271,-0.34906,-0.551025,0.719421,0.238708
1480510114756334,-0.34906,-0.551025,0.719421,0.238708
1480510114771369,-0.34906,-0.551025,0.719421,0.238708
1480510114801951,-0.34906,-0.551025,0.719421,0.238708
1480510114816490,-0.349121,-0.551147,0.719238,0.238953
1480510114833033,-0.349426,-0.551392,0.718811,0.239197
1480510114854089,-0.349731,-0.551514,0.718445,0.239441
1480510114876650,-0.349915,-0.551575,0.718201,0.239746
1480510114891693,-0.350159,-0.551575,0.718018,0.23999
1480510114913748,-0.350281,-0.551514,0.717957,0.240112
1480510114936309,-0.350464,-0.551514,0.717834,0.240234
1480510114951348,-0.350586,-0.551636,0.717651,0.240356
1480510114973912,-0.350647,-0.551636,0.717651,0.240295
1480510115005492,-0.350647,-0.551636,0.717651,0.240295
1480510115011508,-0.350647,-0.551575,0.717651,0.240295
1480510115034068,-0.350464,-0.55188,0.717712,0.239868
1480510115059636,-0.34967,-0.551941,0.717957,0.240051
1480510115079188,-0.350037,-0.55249,0.71759,0.239441
1480510115093727,-0.350647,-0.55249,0.717285,0.239441
1480510115116287,-0.35083,-0.552124,0.717224,0.240051
1480510115138847,-0.350708,-0.551697,0.717468,0.240601
1480510115153887,-0.350769,-0.551941,0.717346,0.240295
1480510115176446,-0.350952,-0.552307,0.717041,0.23999
1480510115199007,-0.350952,-0.552002,0.717285,0.240051
1480510115214048,-0.351013,-0.551697,0.717468,0.240112
1480510115236607,-0.350952,-0.551819,0.717468,0.239929
1480510115259167,-0.350769,-0.55188,0.71759,0.239685
1480510115274206,-0.350769,-0.55188,0.71759,0.239685
1480510115296268,-0.350525,-0.551636,0.717834,0.239746
1480510115318828,-0.350281,-0.551941,0.717834,0.239563
1480510115333865,-0.350098,-0.552307,0.717651,0.239441
1480510115356430,-0.350769,-0.552612,0.717224,0.239197
1480510115378985,-0.350891,-0.552185,0.717346,0.239502
1480510115394026,-0.350891,-0.55188,0.717407,0.240051
1480510115416586,-0.350647,-0.551697,0.71759,0.240417
1480510115439145,-0.350647,-0.552002,0.717468,0.239929
1480510115454186,-0.350952,-0.551758,0.717529,0.239807
1480510115476746,-0.351135,-0.551453,0.717651,0.239929
1480510115498804,-0.351196,-0.55127,0.717834,0.239807
1480510115521364,-0.351196,-0.551331,0.717834,0.239563
1480510115536405,-0.351257,-0.551514,0.717773,0.239319
1480510115559003,-0.351257,-0.551392,0.717896,0.239136
1480510115574004,-0.351257,-0.55127,0.718079,0.238892
1480510115596564,-0.351135,-0.551453,0.71814,0.238464
1480510115627145,-0.350891,-0.551819,0.718018,0.238281
1480510115636672,-0.350891,-0.551819,0.718018,0.238281
1480510115665249,-0.35083,-0.55188,0.717957,0.238464
1480510115678785,-0.35083,-0.551819,0.718018,0.238464
1480510115693824,-0.350708,-0.552002,0.717957,0.238464
1480510115716385,-0.350708,-0.552185,0.717896,0.238342
1480510115738943,-0.350647,-0.552368,0.717773,0.238281
1480510115753983,-0.35022,-0.552246,0.718079,0.238098
1480510115778048,-0.349609,-0.552917,0.718018,0.237732
1480510115799104,-0.349792,-0.553223,0.717834,0.237305
1480510115814144,-0.350586,-0.553101,0.717468,0.237488
1480510115836703,-0.350769,-0.552551,0.71759,0.23822
1480510115858761,-0.350586,-0.552002,0.717896,0.238647
1480510115873802,-0.350647,-0.552124,0.717896,0.238342
1480510115896362,-0.350647,-0.552185,0.717957,0.238098
1480510115918924,-0.350708,-0.55188,0.71814,0.238098
1480510115933962,-0.350708,-0.551697,0.718262,0.238159
1480510115956527,-0.350708,-0.551697,0.718262,0.238159
1480510115979082,-0.350586,-0.551819,0.718262,0.238098
1480510115994122,-0.350586,-0.551819,0.718262,0.238098
1480510116016682,-0.350769,-0.551758,0.718079,0.238525
1480510116038740,-0.350891,-0.551697,0.718018,0.238586
1480510116061301,-0.35083,-0.551575,0.71814,0.238708
1480510116076340,-0.351013,-0.55188,0.717957,0.23822
1480510116098901,-0.351074,-0.55188,0.717957,0.238159
1480510116121461,-0.351074,-0.551453,0.718262,0.238159
1480510116139508,-0.351074,-0.551331,0.718445,0.237915
1480510116159061,-0.350952,-0.551392,0.718567,0.23761
1480510116190144,-0.351013,-0.551331,0.71875,0.237244
1480510116196663,-0.350525,-0.551575,0.718628,0.23761
1480510116219640,-0.350403,-0.55188,0.718384,0.237854
1480510116241280,-0.350525,-0.552002,0.718201,0.237976
1480510116256319,-0.350342,-0.552246,0.718079,0.237976
1480510116278879,-0.35022,-0.552368,0.71814,0.237732
1480510116301440,-0.350342,-0.552551,0.718018,0.237427
1480510116323999,-0.350342,-0.552246,0.718445,0.236877
1480510116339039,-0.349976,-0.552551,0.718323,0.237122
1480510116361599,-0.351013,-0.553223,0.71759,0.236145
1480510116376639,-0.351379,-0.552368,0.717957,0.236633
1480510116399200,-0.351746,-0.552307,0.717712,0.236816
1480510116421759,-0.351501,-0.551819,0.718018,0.237488
1480510116445322,-0.350952,-0.551453,0.718384,0.237976
1480510116458858,-0.350525,-0.552002,0.71814,0.238098
1480510116481418,-0.350586,-0.552063,0.718079,0.238098
1480510116503978,-0.350647,-0.551575,0.718506,0.237976
1480510116519018,-0.350647,-0.551636,0.718506,0.237671
1480510116541578,-0.350464,-0.551697,0.718689,0.237244
1480510116556625,-0.350098,-0.551514,0.719177,0.236816
1480510116579178,-0.349731,-0.551697,0.719482,0.235901
1480510116601237,-0.349365,-0.55188,0.719788,0.235107
1480510116616277,-0.349609,-0.552063,0.719604,0.234802
1480510116638837,-0.350037,-0.552063,0.719299,0.235229
1480510116661401,-0.350037,-0.551636,0.71936,0.236023
1480510116676437,-0.35022,-0.551636,0.719177,0.236389
1480510116698996,-0.349854,-0.551453,0.71936,0.236572
1480510116721557,-0.349976,-0.551453,0.719543,0.235962
1480510116752639,-0.35022,-0.551514,0.719543,0.235474
1480510116759157,-0.35022,-0.551453,0.719543,0.235474
1480510116781215,-0.35022,-0.551453,0.719604,0.235474
1480510116796756,-0.35022,-0.551392,0.719604,0.235413
1480510116819317,-0.35022,-0.551819,0.719421,0.235107
1480510116841375,-0.349854,-0.551758,0.719543,0.235229
1480510116863937,-0.349609,-0.551758,0.719727,0.235229
1480510116878975,-0.349487,-0.552185,0.719604,0.234802
1480510116901535,-0.34906,-0.552551,0.719666,0.234314
1480510116916575,-0.348572,-0.552612,0.71991,0.234131
1480510116939136,-0.34906,-0.552917,0.719604,0.233643
1480510116961695,-0.34967,-0.552551,0.719543,0.233765
1480510116984256,-0.349915,-0.552185,0.719604,0.23407
1480510116998794,-0.350098,-0.55188,0.719604,0.234497
1480510117022859,-0.349854,-0.55127,0.719971,0.235229
1480510117043915,-0.349854,-0.551697,0.719666,0.235168
1480510117061962,-0.349854,-0.551575,0.719727,0.235229
1480510117081515,-0.350037,-0.551331,0.719849,0.235291
1480510117104074,-0.350098,-0.551331,0.719849,0.235229
1480510117119115,-0.349854,-0.551331,0.71991,0.235168
1480510117141674,-0.349854,-0.551758,0.719666,0.235107
1480510117163733,-0.349854,-0.551819,0.719604,0.235046
1480510117178773,-0.349854,-0.551819,0.719604,0.235046
1480510117201334,-0.349854,-0.551636,0.719727,0.235168
1480510117223893,-0.350098,-0.551636,0.719666,0.235046
1480510117241941,-0.350342,-0.551575,0.719604,0.235046
1480510117261493,-0.350464,-0.551331,0.719666,0.235107
1480510117284054,-0.350586,-0.551147,0.719727,0.235107
1480510117300598,-0.35083,-0.550903,0.719788,0.235229
1480510117330180,-0.351074,-0.550415,0.71991,0.235474
1480510117344213,-0.351257,-0.549988,0.720032,0.23584
1480510117367776,-0.35144,-0.549805,0.720032,0.236145
1480510117381312,-0.351563,-0.549805,0.719849,0.23645
1480510117403872,-0.351501,-0.549805,0.719727,0.237061
1480510117418912,-0.351624,-0.549622,0.719604,0.237732
1480510117441472,-0.351807,-0.549316,0.719482,0.238281
1480510117464032,-0.352173,-0.549438,0.719177,0.238464
1480510117479071,-0.352356,-0.549377,0.719055,0.238647
1480510117501631,-0.3526,-0.549377,0.718933,0.238831
1480510117524191,-0.352722,-0.549072,0.718933,0.239136
1480510117539231,-0.352722,-0.549072,0.718933,0.239136
1480510117546250,-0.352783,-0.549194,0.718811,0.239197
1480510117568810,-0.352966,-0.5495,0.718567,0.239136
1480510117592875,-0.352722,-0.549377,0.718689,0.239319
1480510117615435,-0.352722,-0.549377,0.718689,0.239319
1480510117628971,-0.352722,-0.549683,0.718506,0.239075
1480510117653034,-0.3526,-0.549927,0.718384,0.239075
1480510117675093,-0.352356,-0.550171,0.718323,0.239197
1480510117689131,-0.352112,-0.550415,0.718201,0.239197
1480510117712694,-0.351624,-0.550659,0.718262,0.239136
1480510117726229,-0.350952,-0.550964,0.718445,0.239075
1480510117748790,-0.351318,-0.551086,0.718079,0.239258
1480510117772853,-0.352051,-0.55072,0.717773,0.239929
1480510117786390,-0.352356,-0.550415,0.71759,0.240662
1480510117808949,-0.352844,-0.55011,0.71759,0.240723
1480510117833014,-0.35321,-0.549744,0.717712,0.24054
1480510117846549,-0.353699,-0.549683,0.717651,0.240173
1480510117869109,-0.353882,-0.549133,0.718018,0.240173
1480510117892672,-0.353882,-0.548645,0.718384,0.240234
1480510117906709,-0.353821,-0.548706,0.718506,0.239746
1480510117929269,-0.353455,-0.548889,0.718628,0.239502
1480510117953019,-0.353821,-0.549011,0.718445,0.239197
1480510117966369,-0.354187,-0.548767,0.718262,0.239685
1480510117988928,-0.354431,-0.549072,0.717773,0.240112
1480510118012991,-0.353943,-0.548889,0.717957,0.240845
1480510118026528,-0.354187,-0.549377,0.71759,0.240479
1480510118049089,-0.354614,-0.549744,0.717163,0.240173
1480510118072650,-0.354858,-0.549133,0.717529,0.240234
1480510118086189,-0.354919,-0.549194,0.71759,0.239807
1480510118108747,-0.354675,-0.549255,0.717773,0.23938
1480510118133313,-0.353943,-0.549561,0.717896,0.239258
1480510118146347,-0.35437,-0.549988,0.717529,0.238892
1480510118168907,-0.354614,-0.549438,0.717651,0.239502
1480510118192971,-0.354675,-0.549438,0.717468,0.23999
1480510118206507,-0.354126,-0.549377,0.717468,0.240845
1480510118229066,-0.354248,-0.549744,0.717224,0.240601
1480510118252631,-0.354431,-0.549866,0.717041,0.240601
1480510118266667,-0.354553,-0.549194,0.717346,0.241028
1480510118289227,-0.354492,-0.548889,0.71759,0.241028
1480510118312789,-0.354553,-0.548889,0.71759,0.241028
1480510118326325,-0.354553,-0.548889,0.71759,0.241028
1480510118348886,-0.354492,-0.548584,0.717834,0.24115
1480510118371947,-0.354431,-0.548279,0.718018,0.241333
1480510118386487,-0.354614,-0.54834,0.717957,0.241028
1480510118409547,-0.354492,-0.548462,0.717957,0.240967
1480510118440129,-0.35437,-0.548523,0.717957,0.241028
1480510118446645,-0.354248,-0.548401,0.718018,0.24115
1480510118469207,-0.354248,-0.548401,0.718079,0.24115
1480510118492267,-0.354004,-0.548645,0.718079,0.240906
1480510118506304,-0.353516,-0.549255,0.718079,0.240173
1480510118528864,-0.353088,-0.549744,0.718323,0.239075
1480510118551427,-0.352234,-0.549927,0.718872,0.238159
1480510118575989,-0.351807,-0.550415,0.719116,0.236816
1480510118589025,-0.351501,-0.55072,0.719421,0.235596
1480510118611585,-0.351379,-0.550781,0.719788,0.23468
1480510118635147,-0.351379,-0.550781,0.71991,0.234192
1480510118649185,-0.351379,-0.550476,0.720154,0.234131
1480510118671256,-0.351563,-0.550232,0.720337,0.234131
1480510118695307,-0.351746,-0.549927,0.720398,0.234253
1480510118708843,-0.351746,-0.549622,0.720581,0.234619
1480510118731403,-0.351746,-0.549316,0.720581,0.235107
1480510118755467,-0.351807,-0.549072,0.720642,0.235413
1480510118769003,-0.351807,-0.54895,0.720642,0.235779
1480510118791563,-0.351746,-0.548828,0.720642,0.236084
1480510118815125,-0.351624,-0.548706,0.720703,0.236328
1480510118829162,-0.351624,-0.548645,0.720703,0.236511
1480510118851726,-0.351624,-0.548645,0.720581,0.236755
1480510118875286,-0.351746,-0.548645,0.720459,0.237061
1480510118888822,-0.351868,-0.548523,0.720337,0.237427
1480510118911382,-0.35199,-0.548462,0.720276,0.237732
1480510118935446,-0.352173,-0.548401,0.720154,0.238037
1480510118948982,-0.352234,-0.548401,0.719971,0.238342
1480510118971542,-0.352478,-0.548157,0.719971,0.238525
1480510118995104,-0.352783,-0.548035,0.71991,0.238647
1480510119009142,-0.35321,-0.548035,0.719666,0.23877
1480510119031200,-0.35376,-0.547729,0.719543,0.239014
1480510119055264,-0.354309,-0.547302,0.719543,0.239319
1480510119068801,-0.354736,-0.547119,0.71936,0.239563
1480510119091360,-0.355164,-0.546753,0.719299,0.239868
1480510119115425,-0.35553,-0.546387,0.719238,0.240234
1480510119128960,-0.355896,-0.546204,0.719116,0.240601
1480510119151520,-0.35614,-0.545959,0.719055,0.241028
1480510119176086,-0.356384,-0.545532,0.719116,0.241394
1480510119197659,-0.356628,-0.54541,0.719055,0.241516
1480510119211179,-0.356628,-0.54541,0.719055,0.241455
1480510119235243,-0.356812,-0.545288,0.718994,0.241699
1480510119248779,-0.357117,-0.544983,0.718933,0.242004
1480510119271339,-0.357483,-0.544678,0.718933,0.242188
1480510119295404,-0.357666,-0.544617,0.718872,0.24231
1480510119308939,-0.357788,-0.544556,0.71875,0.242554
1480510119331499,-0.35791,-0.544312,0.718811,0.242798
1480510119355061,-0.358154,-0.54425,0.718689,0.242859
1480510119369102,-0.358337,-0.54425,0.718567,0.242981
1480510119391659,-0.358337,-0.54425,0.718567,0.242981
1480510119415222,-0.358398,-0.54425,0.718567,0.242981
1480510119428758,-0.358398,-0.54425,0.718567,0.242981
1480510119451319,-0.358398,-0.54425,0.718567,0.242981
1480510119475381,-0.358398,-0.544189,0.718567,0.24292
1480510119489420,-0.358459,-0.544189,0.718567,0.24292
1480510119511478,-0.358521,-0.54425,0.718506,0.242737
1480510119534539,-0.358521,-0.54425,0.718567,0.242737
1480510119549079,-0.358521,-0.54425,0.718567,0.242737
1480510119571641,-0.358704,-0.54425,0.718567,0.242554
1480510119593697,-0.358765,-0.544189,0.718628,0.242432
1480510119608736,-0.358704,-0.544189,0.718628,0.242493
1480510119631296,-0.358704,-0.544128,0.718628,0.242493
1480510119653859,-0.358704,-0.544128,0.718628,0.242493
1480510119668897,-0.358704,-0.544128,0.718628,0.242493
1480510119691457,-0.358704,-0.544128,0.718628,0.242432
1480510119714017,-0.358765,-0.544128,0.718628,0.242432
1480510119729056,-0.358765,-0.544128,0.718628,0.242432
1480510119751617,-0.358765,-0.544128,0.718628,0.242432
1480510119773675,-0.358582,-0.544312,0.718506,0.242554
1480510119805259,-0.358276,-0.544617,0.718384,0.242615
1480510119819297,-0.35791,-0.5448,0.718506,0.242554
1480510119833836,-0.357666,-0.545105,0.718384,0.242432
1480510119848876,-0.357666,-0.545105,0.718445,0.242432
1480510119871437,-0.357666,-0.545105,0.718445,0.242493
1480510119893996,-0.357666,-0.545044,0.718445,0.242432
1480510119909036,-0.357666,-0.545227,0.718445,0.242188
1480510119931595,-0.357544,-0.545166,0.718567,0.242065
1480510119954155,-0.357544,-0.545166,0.718567,0.242004
1480510119969195,-0.357666,-0.54541,0.718384,0.241882
1480510119991254,-0.357666,-0.54541,0.718384,0.241882
1480510120014315,-0.357666,-0.54541,0.718384,0.241882
1480510120028854,-0.357666,-0.54541,0.718384,0.241882
1480510120051414,-0.357666,-0.54541,0.718445,0.241882
1480510120074475,-0.357666,-0.54541,0.718445,0.241882
1480510120113579,-0.357605,-0.545593,0.718262,0.241882
1480510120116086,-0.357605,-0.545593,0.718262,0.241882
1480510120134136,-0.357605,-0.545593,0.718323,0.241882
1480510120157698,-0.357605,-0.545593,0.718323,0.241882
1480510120171234,-0.357605,-0.545532,0.718323,0.241882
1480510120193793,-0.357605,-0.545532,0.718323,0.241821
1480510120217859,-0.357727,-0.545532,0.718262,0.241943
1480510120231393,-0.357788,-0.54541,0.718201,0.242249
1480510120253953,-0.357788,-0.54541,0.718201,0.242188
1480510120278017,-0.357788,-0.54541,0.718201,0.242188
1480510120291554,-0.357788,-0.54541,0.718201,0.242188
1480510120314113,-0.357788,-0.54541,0.718262,0.242188
1480510120337676,-0.357788,-0.545349,0.718262,0.242188
1480510120351212,-0.357849,-0.545349,0.718262,0.242188
1480510120373771,-0.357788,-0.545349,0.718262,0.242188
1480510120397836,-0.357849,-0.545349,0.718262,0.242188
1480510120411372,-0.357849,-0.54541,0.718262,0.242188
1480510120433935,-0.357788,-0.54541,0.718201,0.242188
1480510120457995,-0.357788,-0.54541,0.718201,0.242188
1480510120471532,-0.357788,-0.54541,0.718262,0.242188
1480510120494092,-0.357788,-0.545349,0.718262,0.242188
1480510120517156,-0.35791,-0.54541,0.718201,0.242126
1480510120531692,-0.35791,-0.54541,0.718201,0.242126
1480510120554251,-0.357849,-0.545349,0.718262,0.242126
1480510120576310,-0.357849,-0.545349,0.718262,0.242126
1480510120600376,-0.357849,-0.545349,0.718262,0.242188
1480510120613911,-0.357605,-0.545288,0.718323,0.242432
1480510120644994,-0.357605,-0.545044,0.718506,0.242493
1480510120660033,-0.35791,-0.544861,0.718384,0.242859
1480510120674074,-0.358093,-0.544495,0.718445,0.243225
1480510120696630,-0.358276,-0.544373,0.718323,0.243469
1480510120711169,-0.358459,-0.544128,0.718323,0.243774
1480510120733731,-0.358704,-0.543945,0.718262,0.24408
1480510120756294,-0.359131,-0.543762,0.718079,0.244263
1480510120771329,-0.359558,-0.543518,0.718018,0.244507
1480510120793889,-0.359802,-0.543335,0.717896,0.244751
1480510120816449,-0.360046,-0.543396,0.717712,0.244934
1480510120831489,-0.360352,-0.543274,0.71759,0.245239
1480510120854049,-0.360718,-0.543274,0.717346,0.245361
1480510120876609,-0.361023,-0.543274,0.717102,0.245422
1480510120891147,-0.361145,-0.543152,0.717102,0.245605
1480510120914209,-0.361145,-0.543152,0.717102,0.245605
1480510120936769,-0.361084,-0.543518,0.71698,0.245178
1480510120954316,-0.360962,-0.544128,0.716919,0.244202
1480510120973867,-0.360046,-0.544373,0.717285,0.244019
1480510120996428,-0.360718,-0.545471,0.716553,0.242676
1480510121011468,-0.361816,-0.545227,0.716309,0.242371
1480510121034028,-0.362976,-0.545105,0.715759,0.242493
1480510121056588,-0.363647,-0.54425,0.716003,0.242676
1480510121071636,-0.363342,-0.543579,0.716736,0.242493
1480510121094188,-0.363281,-0.544067,0.716614,0.241882
1480510121116247,-0.363586,-0.544067,0.716614,0.241333
1480510121131287,-0.363342,-0.543701,0.717041,0.241272
1480510121154348,-0.362244,-0.544434,0.717102,0.241089
1480510121185431,-0.361511,-0.545532,0.716736,0.240784
1480510121191446,-0.362427,-0.545227,0.716797,0.240051
1480510121214508,-0.362915,-0.544922,0.716797,0.239929
1480510121236567,-0.363037,-0.544922,0.716614,0.240295
1480510121260129,-0.362366,-0.544373,0.717102,0.241028
1480510121274170,-0.362305,-0.544739,0.71698,0.240723
1480510121296233,-0.362366,-0.545471,0.716492,0.240295
1480510121311265,-0.362122,-0.545105,0.716919,0.240356
1480510121333828,-0.361206,-0.545166,0.717285,0.240479
1480510121356385,-0.360413,-0.545532,0.717346,0.24054
1480510121371425,-0.360779,-0.546265,0.716858,0.239746
1480510121393985,-0.361023,-0.545959,0.71698,0.239746
1480510121416550,-0.361145,-0.54541,0.717285,0.239929
1480510121434593,-0.360779,-0.545044,0.717529,0.24054
1480510121453646,-0.360535,-0.54541,0.717285,0.240906
1480510121476204,-0.360718,-0.545227,0.717224,0.241211
1480510121494257,-0.361267,-0.5448,0.717224,0.241333
1480510121513804,-0.361328,-0.544678,0.717285,0.241333
1480510121536364,-0.361389,-0.544678,0.717285,0.241333
1480510121558925,-0.361389,-0.544678,0.717285,0.241272
1480510121573968,-0.361694,-0.544983,0.71698,0.241089
1480510121596524,-0.361816,-0.544678,0.717102,0.241089
1480510121619084,-0.361938,-0.544189,0.717468,0.241028
1480510121634125,-0.362183,-0.544312,0.717407,0.240662
1480510121656183,-0.361938,-0.544128,0.717651,0.240601
1480510121678743,-0.361938,-0.544128,0.717651,0.240601
1480510121693783,-0.362,-0.544006,0.717773,0.240417
1480510121716344,-0.362061,-0.544067,0.717834,0.240051
1480510121738903,-0.362,-0.544067,0.717896,0.239868
1480510121753958,-0.362,-0.543945,0.718079,0.239624
1480510121776503,-0.361816,-0.544006,0.718201,0.239563
1480510121799063,-0.361755,-0.544128,0.718201,0.239197
1480510121814103,-0.360962,-0.54425,0.718567,0.239014
1480510121836663,-0.361267,-0.544678,0.718445,0.237976
1480510121858722,-0.362061,-0.544678,0.71814,0.237732
1480510121873761,-0.362183,-0.544312,0.718262,0.238159
1480510121896321,-0.361816,-0.544067,0.718323,0.238953
1480510121918881,-0.361084,-0.543823,0.718628,0.239746
1480510121933921,-0.361206,-0.544495,0.718201,0.239258
1480510121956481,-0.361511,-0.544617,0.718079,0.238892
1480510121979041,-0.361877,-0.544067,0.718323,0.238892
1480510121994082,-0.362183,-0.543823,0.718384,0.238831
1480510122016641,-0.362122,-0.543884,0.718445,0.238525
1480510122047725,-0.361877,-0.544128,0.718506,0.238037
1480510122053881,-0.361694,-0.544312,0.718689,0.237366
1480510122076300,-0.361145,-0.544312,0.719116,0.236877
1480510122098861,-0.361389,-0.544617,0.718872,0.236572
1480510122113900,-0.362061,-0.544922,0.718201,0.237
1480510122136461,-0.362305,-0.544556,0.718079,0.237854
1480510122159021,-0.362427,-0.543945,0.718262,0.238464
1480510122174060,-0.362366,-0.543701,0.718506,0.238403
1480510122196620,-0.362549,-0.544067,0.718323,0.237854
1480510122219380,-0.362915,-0.543945,0.718262,0.237671
1480510122234221,-0.36322,-0.543701,0.718323,0.237549
1480510122256284,-0.362976,-0.543823,0.718445,0.237366
1480510122278839,-0.362183,-0.544067,0.71875,0.237244
1480510122295388,-0.362122,-0.544067,0.718689,0.237305
1480510122316441,-0.362366,-0.543762,0.718689,0.237793
1480510122338999,-0.362854,-0.543579,0.718506,0.237915
1480510122357047,-0.362793,-0.543213,0.71875,0.238159
1480510122376604,-0.362976,-0.543396,0.718567,0.237976
1480510122399175,-0.363159,-0.543335,0.718567,0.237915
1480510122413698,-0.363037,-0.543091,0.718811,0.237793
1480510122436258,-0.362732,-0.543335,0.718872,0.237549
1480510122466839,-0.362244,-0.543701,0.718872,0.237488
1480510122476866,-0.361938,-0.544373,0.718628,0.237183
1480510122496418,-0.362366,-0.544189,0.718506,0.237305
1480510122518979,-0.362732,-0.543823,0.718445,0.237671
1480510122534018,-0.362854,-0.543701,0.718323,0.23822
1480510122556579,-0.362366,-0.54364,0.718506,0.238708
1480510122579137,-0.362244,-0.544067,0.718384,0.238159
1480510122593695,-0.361938,-0.544434,0.718384,0.237732
1480510122616254,-0.361755,-0.544067,0.71875,0.237671
1480510122638797,-0.361694,-0.543823,0.718994,0.237671
1480510122653837,-0.36145,-0.544128,0.718933,0.237549
1480510122676396,-0.361328,-0.54425,0.718872,0.237549
1480510122698957,-0.361328,-0.544067,0.719055,0.23761
1480510122713996,-0.361328,-0.544067,0.719055,0.23761
1480510122739063,-0.361145,-0.544006,0.719055,0.237854
1480510122759116,-0.361084,-0.544067,0.719055,0.237854
1480510122774166,-0.361084,-0.544067,0.719055,0.237854
1480510122796215,-0.361084,-0.544067,0.719055,0.237854
1480510122818777,-0.361145,-0.544006,0.718933,0.23822
1480510122833815,-0.361267,-0.543762,0.718933,0.238586
1480510122856376,-0.361389,-0.543518,0.718994,0.238831
1480510122879436,-0.361389,-0.543518,0.718994,0.23877
1480510122893975,-0.361511,-0.543274,0.719055,0.238953
1480510122916552,-0.361694,-0.543091,0.718933,0.239502
1480510122939095,-0.362061,-0.542847,0.718811,0.239929
1480510122954151,-0.362244,-0.542603,0.71875,0.240417
1480510122976695,-0.362427,-0.542419,0.718628,0.240784
1480510122998754,-0.362732,-0.542236,0.718628,0.240967
1480510123021314,-0.362976,-0.541931,0.718689,0.241089
1480510123036354,-0.36322,-0.541748,0.718628,0.241272
1480510123058914,-0.363403,-0.541321,0.71875,0.241516
1480510123081483,-0.363647,-0.541077,0.71875,0.241638
1480510123098018,-0.363953,-0.540894,0.718689,0.24176
1480510123119074,-0.364319,-0.540466,0.71875,0.242004
1480510123141634,-0.364868,-0.540222,0.718628,0.242188
1480510123156174,-0.365112,-0.539978,0.718567,0.242432
1480510123178733,-0.365295,-0.539856,0.718567,0.242432
1480510123201294,-0.365295,-0.539856,0.718567,0.242493
1480510123216333,-0.365295,-0.539856,0.718567,0.242432
1480510123238893,-0.365295,-0.539856,0.718506,0.242432
1480510123261453,-0.365295,-0.539917,0.718506,0.242432
1480510123276493,-0.365356,-0.539917,0.718506,0.242432
1480510123299053,-0.365356,-0.539917,0.718506,0.242432
1480510123321612,-0.365479,-0.539795,0.718506,0.242371
1480510123336653,-0.365479,-0.539795,0.718506,0.242371
1480510123359212,-0.365479,-0.539734,0.718567,0.242371
1480510123381294,-0.365479,-0.539734,0.718567,0.242371
1480510123396324,-0.365662,-0.53949,0.718689,0.242371
1480510123418872,-0.365662,-0.53949,0.718689,0.242371
1480510123441431,-0.365784,-0.539551,0.718567,0.242371
1480510123456472,-0.365967,-0.539551,0.718506,0.242371
1480510123479032,-0.366211,-0.539368,0.718506,0.24231
1480510123501592,-0.366333,-0.539307,0.718567,0.242065
1480510123516645,-0.366394,-0.539246,0.718689,0.24176
1480510123538690,-0.366394,-0.539246,0.718689,0.24176
1480510123561252,-0.366394,-0.539368,0.718506,0.242004
1480510123576290,-0.366394,-0.539368,0.718506,0.242004
1480510123598851,-0.36615,-0.539429,0.718567,0.242065
1480510123621410,-0.365967,-0.539856,0.718323,0.242126
1480510123643970,-0.365784,-0.540222,0.718079,0.24231
1480510123659011,-0.36554,-0.540283,0.71814,0.242371
1480510123681571,-0.365234,-0.540771,0.717957,0.242249
1480510123696611,-0.365112,-0.541016,0.717834,0.242249
1480510123721677,-0.365173,-0.541138,0.717712,0.242249
1480510123741230,-0.365173,-0.541138,0.717712,0.242249
1480510123756268,-0.365173,-0.541077,0.717773,0.242249
1480510123778829,-0.364929,-0.541138,0.717896,0.242249
1480510123801390,-0.364685,-0.541321,0.717834,0.242249
1480510123817934,-0.364624,-0.541321,0.717834,0.24231
1480510123838989,-0.364624,-0.541321,0.717834,0.242249
1480510123861550,-0.364746,-0.541565,0.717773,0.241943
1480510123876593,-0.364685,-0.541748,0.717712,0.241638
1480510123898648,-0.364502,-0.541992,0.71759,0.24176
1480510123921722,-0.364563,-0.542297,0.717285,0.24176
1480510123936248,-0.364563,-0.54248,0.717285,0.241455
1480510123961820,-0.364319,-0.542297,0.71759,0.241272
1480510123990391,-0.364014,-0.542358,0.717834,0.240967
1480510123996408,-0.364014,-0.542358,0.717834,0.240967
1480510124020473,-0.364197,-0.541931,0.718018,0.241089
1480510124041528,-0.364441,-0.541687,0.718201,0.240845
1480510124056569,-0.364624,-0.541565,0.718323,0.240295
1480510124078626,-0.364624,-0.541321,0.718628,0.240051
1480510124101187,-0.364685,-0.541199,0.71875,0.239929
1480510124123746,-0.364685,-0.541199,0.71875,0.239929
1480510124138786,-0.36438,-0.541077,0.718994,0.239807
1480510124161347,-0.364136,-0.541199,0.719055,0.239685
1480510124176402,-0.364075,-0.541199,0.719055,0.239685
1480510124198946,-0.364136,-0.541199,0.719116,0.239685
1480510124221525,-0.363953,-0.541016,0.71936,0.239441
1480510124238050,-0.363831,-0.541077,0.719482,0.239136
1480510124259106,-0.363525,-0.541077,0.719604,0.239197
1480510124281173,-0.363342,-0.541016,0.719727,0.239197
1480510124298712,-0.363403,-0.541016,0.719849,0.238892
1480510124318767,-0.363525,-0.541138,0.719727,0.238708
1480510124341326,-0.363464,-0.540955,0.719788,0.239014
1480510124356365,-0.363464,-0.540894,0.719727,0.23938
1480510124378925,-0.363342,-0.540771,0.719666,0.23999
1480510124401485,-0.363525,-0.541077,0.719238,0.240295
1480510124416529,-0.36377,-0.541199,0.718994,0.240479
1480510124439085,-0.36377,-0.541138,0.718994,0.240662
1480510124461645,-0.363831,-0.541138,0.718933,0.240601
1480510124483706,-0.363953,-0.541321,0.71875,0.240723
1480510124498745,-0.363953,-0.54126,0.71875,0.240723
1480510124521332,-0.363953,-0.54126,0.718811,0.240662
1480510124543864,-0.363831,-0.541321,0.718811,0.24054
1480510124558903,-0.363525,-0.541382,0.718933,0.240601
1480510124581464,-0.363525,-0.541382,0.718933,0.240601
1480510124604023,-0.363586,-0.541321,0.718933,0.240601
1480510124619065,-0.363525,-0.541321,0.719055,0.240356
1480510124641624,-0.363403,-0.541199,0.719238,0.240234
1480510124663683,-0.363342,-0.541077,0.71936,0.240295
1480510124678723,-0.363464,-0.540894,0.719421,0.240356
1480510124701283,-0.363464,-0.540894,0.719421,0.240356
1480510124723844,-0.363464,-0.540833,0.719421,0.240356
1480510124741891,-0.363464,-0.540833,0.719421,0.240356
1480510124761443,-0.363525,-0.540894,0.719421,0.240356
1480510124784003,-0.363525,-0.540833,0.719421,0.240356
1480510124802051,-0.363525,-0.540833,0.719421,0.240295
1480510124821605,-0.363525,-0.540833,0.719543,0.240051
1480510124844169,-0.363342,-0.54071,0.719849,0.239746
1480510124866225,-0.362976,-0.540833,0.719971,0.239502
1480510124881262,-0.362915,-0.540833,0.719971,0.239502
1480510124903821,-0.363403,-0.540527,0.71991,0.239746
1480510124918862,-0.363953,-0.539917,0.720093,0.239685
1480510124941422,-0.364136,-0.539795,0.720337,0.239136
1480510124963981,-0.364258,-0.539734,0.720459,0.238586
1480510124979022,-0.364441,-0.539368,0.720764,0.238342
1480510125001581,-0.364075,-0.539063,0.721191,0.23822
1480510125023641,-0.363647,-0.539063,0.721558,0.237793
1480510125046200,-0.36322,-0.539246,0.721985,0.236694
1480510125061240,-0.362732,-0.539612,0.722168,0.236145
1480510125083800,-0.362671,-0.539551,0.722351,0.235718
1480510125101849,-0.362671,-0.539551,0.722351,0.235718
1480510125121400,-0.36261,-0.539673,0.722351,0.235413
1480510125143960,-0.361877,-0.53949,0.722961,0.235168
1480510125159000,-0.361084,-0.5401,0.723022,0.234924
1480510125181561,-0.360596,-0.540588,0.722839,0.235046
1480510125204121,-0.360291,-0.540527,0.722961,0.235413
1480510125218659,-0.360046,-0.540527,0.7229,0.235657
1480510125241218,-0.360107,-0.540771,0.722717,0.235657
1480510125263779,-0.360107,-0.540771,0.722717,0.235657
1480510125278819,-0.360107,-0.540771,0.722717,0.235657
1480510125301379,-0.360168,-0.54071,0.722778,0.235596
1480510125323939,-0.360168,-0.54071,0.722778,0.235596
1480510125338979,-0.360168,-0.54071,0.722778,0.235596
1480510125361539,-0.360107,-0.540771,0.722656,0.235962
1480510125384099,-0.360352,-0.540955,0.722229,0.23645
1480510125399139,-0.360718,-0.540894,0.721802,0.237305
1480510125421198,-0.360901,-0.54071,0.72168,0.237732
1480510125443759,-0.361145,-0.540771,0.721497,0.237732
1480510125458797,-0.361328,-0.540894,0.721375,0.237732
1480510125481358,-0.361328,-0.540833,0.721252,0.238159
1480510125503917,-0.361511,-0.540771,0.721069,0.238708
1480510125526479,-0.361755,-0.540771,0.720764,0.239319
1480510125541518,-0.362122,-0.540955,0.720337,0.239441
1480510125564077,-0.362122,-0.540955,0.720337,0.239441
1480510125603683,-0.362183,-0.540955,0.720337,0.239441
1480510125605696,-0.362183,-0.540955,0.720337,0.23938
1480510125626744,-0.362427,-0.541016,0.720154,0.23938
1480510125646296,-0.362549,-0.540955,0.720093,0.239685
1480510125664344,-0.362549,-0.540894,0.720032,0.239929
1480510125683897,-0.362793,-0.540955,0.719849,0.239807
1480510125706456,-0.362793,-0.541016,0.719849,0.239807
1480510125721496,-0.362793,-0.541016,0.719849,0.239807
1480510125744056,-0.363037,-0.541016,0.719727,0.239807
1480510125766616,-0.363159,-0.541077,0.719482,0.240173
1480510125781155,-0.363403,-0.541199,0.719299,0.240173
1480510125803715,-0.363403,-0.541199,0.719299,0.240173
1480510125826275,-0.363403,-0.541199,0.719299,0.240173
1480510125848837,-0.363403,-0.541199,0.719299,0.240173
1480510125863875,-0.363342,-0.541321,0.719116,0.240417
1480510125886435,-0.363342,-0.541504,0.718933,0.240723
1480510125901475,-0.363342,-0.541504,0.718933,0.240723
1480510125924035,-0.363342,-0.541443,0.718933,0.240723
1480510125946595,-0.363525,-0.54187,0.718506,0.240723
1480510125968653,-0.364075,-0.541687,0.718384,0.240723
1480510125983694,-0.36438,-0.541504,0.718384,0.240723
1480510126006254,-0.364197,-0.541321,0.718628,0.240479
1480510126021295,-0.364075,-0.54126,0.718994,0.239868
1480510126043854,-0.364258,-0.541138,0.719055,0.239502
1480510126066415,-0.364502,-0.540833,0.71936,0.239197
1480510126081455,-0.363892,-0.540527,0.719849,0.239197
1480510126104013,-0.362976,-0.540588,0.720154,0.239563
1480510126126573,-0.363831,-0.541077,0.719604,0.23877
1480510126141613,-0.364929,-0.540588,0.719421,0.238831
1480510126164174,-0.365051,-0.540161,0.719604,0.239014
1480510126186232,-0.364319,-0.539856,0.720032,0.239502
1480510126201273,-0.363953,-0.540405,0.719849,0.239502
1480510126223833,-0.364136,-0.540894,0.719421,0.239319
1480510126246392,-0.364319,-0.540161,0.719849,0.23938
1480510126261433,-0.364502,-0.539795,0.720154,0.239014
1480510126283992,-0.36438,-0.540222,0.720032,0.238647
1480510126309059,-0.363892,-0.540466,0.719971,0.238953
1480510126321593,-0.364319,-0.540466,0.719727,0.238953
1480510126347663,-0.364502,-0.540161,0.719849,0.239136
1480510126366213,-0.364258,-0.540466,0.719727,0.239197
1480510126381253,-0.363708,-0.540222,0.719971,0.23999
1480510126403812,-0.363953,-0.540405,0.719666,0.239929
1480510126429381,-0.363953,-0.540405,0.719666,0.239929
1480510126441412,-0.364136,-0.540405,0.719727,0.239441
1480510126463972,-0.363831,-0.540283,0.71991,0.239624
1480510126489540,-0.364197,-0.540344,0.719849,0.239136
1480510126509091,-0.364929,-0.540649,0.71936,0.23877
1480510126523631,-0.364868,-0.540222,0.719604,0.239258
1480510126547694,-0.364502,-0.539978,0.719788,0.239624
1480510126568751,-0.364136,-0.539856,0.719971,0.240051
1480510126583791,-0.364197,-0.540588,0.71936,0.23999
1480510126606350,-0.364258,-0.540527,0.719299,0.240173
1480510126628911,-0.364258,-0.540039,0.719666,0.240356
1480510126643950,-0.364075,-0.539734,0.719971,0.240295
1480510126666510,-0.363953,-0.539978,0.719788,0.240601
1480510126689070,-0.364136,-0.540161,0.719421,0.240906
1480510126711129,-0.364319,-0.539856,0.719482,0.241211
1480510126726168,-0.364258,-0.53949,0.719727,0.241394
1480510126748730,-0.364319,-0.53949,0.719727,0.241394
1480510126763769,-0.364319,-0.53949,0.719727,0.241394
1480510126786960,-0.364319,-0.53949,0.719727,0.241394
1480510126808889,-0.364441,-0.539001,0.71991,0.241699
1480510126823929,-0.364441,-0.53894,0.71991,0.241638
1480510126846490,-0.36438,-0.539124,0.719849,0.241638
1480510126869049,-0.364319,-0.539307,0.719727,0.241638
1480510126884088,-0.364258,-0.539124,0.719849,0.241821
1480510126906147,-0.364258,-0.539124,0.719849,0.24176
1480510126928717,-0.364258,-0.539307,0.719788,0.241577
1480510126943748,-0.364258,-0.539673,0.719482,0.24176
1480510126966308,-0.364258,-0.539612,0.71936,0.242065
1480510126997891,-0.36438,-0.539612,0.719299,0.242188
1480510127003907,-0.36438,-0.539612,0.719299,0.242188
1480510127026467,-0.36438,-0.539612,0.719299,0.242188
1480510127049027,-0.36438,-0.539612,0.719299,0.242188
1480510127064067,-0.364502,-0.539673,0.719116,0.242432
1480510127086628,-0.364563,-0.53949,0.719177,0.242554
1480510127108686,-0.364563,-0.539429,0.719177,0.242554
1480510127125230,-0.364624,-0.53949,0.719177,0.242554
1480510127146286,-0.364624,-0.53949,0.719177,0.242493
1480510127168846,-0.364624,-0.539429,0.719177,0.242493
1480510127183891,-0.364746,-0.539612,0.718994,0.242493
1480510127206450,-0.364929,-0.539734,0.718872,0.242432
1480510127229006,-0.364929,-0.539734,0.718872,0.242371
1480510127244047,-0.36499,-0.539734,0.718811,0.242371
1480510127266108,-0.365234,-0.539978,0.718567,0.242188
1480510127288665,-0.365479,-0.539978,0.718567,0.241943
1480510127303704,-0.365479,-0.539856,0.718689,0.24176
1480510127326265,-0.365723,-0.539429,0.718933,0.241638
1480510127348825,-0.366089,-0.539368,0.718811,0.241455
1480510127363865,-0.366089,-0.539429,0.718811,0.241455
1480510127386926,-0.366211,-0.53949,0.718811,0.241272
1480510127408985,-0.366211,-0.539368,0.718933,0.240967
1480510127440569,-0.366272,-0.53949,0.718994,0.240479
1480510127455108,-0.366028,-0.539734,0.719055,0.240112
1480510127468644,-0.36554,-0.539978,0.719177,0.23999
1480510127491204,-0.365295,-0.540222,0.719238,0.239563
1480510127506244,-0.364685,-0.540649,0.719421,0.238953
1480510127528804,-0.363464,-0.541382,0.719604,0.238708
1480510127551379,-0.362305,-0.54187,0.719849,0.238525
1480510127571417,-0.361511,-0.542236,0.720032,0.238403
1480510127588964,-0.361206,-0.542542,0.720032,0.23822
1480510127611524,-0.361023,-0.542603,0.720032,0.23822
1480510127626564,-0.360962,-0.542603,0.720032,0.238403
1480510127648624,-0.361084,-0.542664,0.719849,0.238647
1480510127671182,-0.361267,-0.54248,0.719788,0.238892
1480510127686222,-0.361389,-0.541992,0.720093,0.238953
1480510127708782,-0.36145,-0.541748,0.720337,0.23877
1480510127731344,-0.361633,-0.54187,0.720276,0.238342
1480510127746383,-0.361511,-0.541992,0.720337,0.237915
1480510127768943,-0.360718,-0.542297,0.720581,0.237732
1480510127791502,-0.361206,-0.543091,0.720093,0.236755
1480510127806542,-0.361694,-0.542908,0.720032,0.236633
1480510127829102,-0.362061,-0.542664,0.719849,0.237122
1480510127851663,-0.362183,-0.542664,0.719604,0.23761
1480510127866201,-0.361755,-0.542114,0.720093,0.238159
1480510127888761,-0.36145,-0.542297,0.720093,0.238098
1480510127911822,-0.361633,-0.542786,0.719727,0.237915
1480510127926362,-0.361877,-0.542542,0.719727,0.238037
1480510127948931,-0.362061,-0.542603,0.719788,0.23761
1480510127971481,-0.361328,-0.542786,0.71991,0.237793
1480510127986522,-0.362,-0.543274,0.719421,0.237061
1480510128009082,-0.363403,-0.542847,0.718994,0.237183
1480510128031642,-0.36438,-0.541748,0.719055,0.237976
1480510128046180,-0.364868,-0.541504,0.718872,0.238464
1480510128068740,-0.36438,-0.540833,0.719421,0.239136
1480510128091300,-0.364258,-0.54126,0.719299,0.238647
1480510128106339,-0.364624,-0.541199,0.719238,0.238464
1480510128128900,-0.365112,-0.540283,0.719482,0.239014
1480510128152964,-0.365479,-0.539978,0.719238,0.239868
1480510128166501,-0.365601,-0.539429,0.719299,0.240784
1480510128189060,-0.365723,-0.539307,0.719055,0.241516
1480510128220143,-0.36615,-0.539612,0.718506,0.241821
1480510128226159,-0.366394,-0.539429,0.718384,0.242249
1480510128248720,-0.366455,-0.538757,0.718628,0.24292
1480510128271279,-0.366821,-0.538635,0.718506,0.243042
1480510128286319,-0.367065,-0.538696,0.718323,0.243103
1480510128308879,-0.367249,-0.538452,0.718323,0.243347
1480510128331439,-0.367493,-0.53833,0.718262,0.243408
1480510128346479,-0.367493,-0.538391,0.718262,0.243347
1480510128369038,-0.367493,-0.538513,0.718079,0.243591
1480510128400123,-0.367432,-0.538452,0.71814,0.243591
1480510128413659,-0.367432,-0.538452,0.71814,0.243591
1480510128431706,-0.367432,-0.538452,0.71814,0.243591
1480510128451259,-0.367432,-0.538452,0.71814,0.243591
1480510128473818,-0.367432,-0.538391,0.71814,0.243591
1480510128488858,-0.367615,-0.53833,0.718079,0.243713
1480510128511422,-0.367798,-0.538269,0.718018,0.243835
1480510128533979,-0.367981,-0.538025,0.718018,0.244019
1480510128549018,-0.368103,-0.537842,0.718018,0.244324
1480510128571577,-0.368286,-0.537659,0.717957,0.244568
1480510128593636,-0.368408,-0.537537,0.717957,0.244812
1480510128608678,-0.36853,-0.537476,0.717834,0.244995
1480510128631237,-0.368713,-0.537354,0.717773,0.245178
1480510128653796,-0.368835,-0.537292,0.717712,0.2453
1480510128668836,-0.368896,-0.537292,0.717712,0.2453
1480510128691396,-0.368896,-0.537292,0.717712,0.2453
1480510128713956,-0.368896,-0.537231,0.717712,0.2453
1480510128728997,-0.368896,-0.537231,0.717712,0.245239
1480510128751557,-0.368896,-0.537231,0.717712,0.245239
1480510128774116,-0.368896,-0.536926,0.717957,0.245361
1480510128788654,-0.369019,-0.536682,0.718079,0.2453
1480510128811215,-0.369019,-0.536682,0.718079,0.245239
1480510128833775,-0.369019,-0.536743,0.718079,0.245239
1480510128848816,-0.368958,-0.536804,0.717957,0.245483
1480510128871375,-0.368896,-0.536987,0.717773,0.245667
1480510128893937,-0.368774,-0.53717,0.717712,0.245667
1480510128908975,-0.368835,-0.53717,0.717712,0.245667
1480510128931535,-0.368835,-0.53717,0.717712,0.245605
1480510128954096,-0.368835,-0.53717,0.717712,0.245605
1480510128968633,-0.368835,-0.53717,0.717712,0.245605
1480510128991195,-0.368652,-0.537292,0.717834,0.2453
1480510129013754,-0.368347,-0.537781,0.717773,0.244751
1480510129028794,-0.368042,-0.537964,0.717957,0.244324
1480510129051354,-0.367981,-0.538025,0.71814,0.243835
1480510129073914,-0.367615,-0.537964,0.718506,0.243286
1480510129088954,-0.367249,-0.538025,0.718811,0.242798
1480510129111514,-0.367188,-0.537964,0.718994,0.242493
1480510129134073,-0.367188,-0.53772,0.719238,0.242371
1480510129156137,-0.367065,-0.537537,0.719421,0.242371
1480510129171172,-0.366882,-0.537476,0.719482,0.242615
1480510129193733,-0.366638,-0.537537,0.719421,0.242981
1480510129208773,-0.366333,-0.537476,0.719543,0.243225
1480510129231332,-0.365967,-0.537598,0.719666,0.243225
1480510129253892,-0.365723,-0.537781,0.719604,0.243225
1480510129268932,-0.365723,-0.537842,0.719604,0.243225
1480510129291493,-0.365723,-0.53772,0.719727,0.243164
1480510129314052,-0.365784,-0.537842,0.719604,0.243042
1480510129336612,-0.365906,-0.538025,0.719421,0.242981
1480510129351153,-0.366089,-0.537903,0.71936,0.243042
1480510129373711,-0.366394,-0.537598,0.719421,0.243164
1480510129396271,-0.366638,-0.537292,0.719604,0.243042
1480510129411311,-0.366699,-0.53717,0.719727,0.242859
1480510129434874,-0.366699,-0.53717,0.719727,0.242859
1480510129456432,-0.36676,-0.536987,0.719788,0.243042
1480510129471471,-0.36676,-0.536987,0.719788,0.243042
1480510129494031,-0.36676,-0.536987,0.719788,0.242981
1480510129516594,-0.36676,-0.536987,0.719727,0.242981
1480510129539154,-0.36676,-0.536987,0.719727,0.242981
1480510129553706,-0.366821,-0.537048,0.719727,0.242981
1480510129585275,-0.366943,-0.537231,0.719482,0.243042
1480510129591290,-0.367188,-0.537292,0.719238,0.243225
1480510129613851,-0.367371,-0.537354,0.719116,0.243347
1480510129636409,-0.367554,-0.537415,0.718994,0.243225
1480510129651450,-0.367554,-0.537354,0.718994,0.243225
1480510129674014,-0.367493,-0.537354,0.719055,0.243286
1480510129696570,-0.367798,-0.537781,0.718872,0.242432
1480510129711611,-0.366882,-0.538208,0.718994,0.242554
1480510129733669,-0.367676,-0.538879,0.718445,0.241394
1480510129756229,-0.368652,-0.539001,0.717957,0.240967
1480510129771269,-0.369507,-0.538635,0.717712,0.241272
1480510129793829,-0.369873,-0.538879,0.717163,0.241821
1480510129816892,-0.369202,-0.538574,0.717407,0.242859
1480510129831429,-0.368774,-0.539001,0.717102,0.243347
1480510129853989,-0.369141,-0.53894,0.716919,0.243469
1480510129876549,-0.369324,-0.538208,0.717163,0.244019
1480510129891589,-0.369507,-0.537598,0.717285,0.24469
1480510129913647,-0.369751,-0.536926,0.717529,0.245239
1480510129936207,-0.369934,-0.536194,0.717896,0.245361
1480510129951248,-0.370117,-0.536255,0.718079,0.244629
1480510129973807,-0.370361,-0.536499,0.717773,0.244568
1480510130005391,-0.370972,-0.536194,0.717529,0.244995
1480510130011407,-0.371155,-0.535461,0.717712,0.245789
1480510130036975,-0.371826,-0.535522,0.717346,0.245605
1480510130056527,-0.372131,-0.535339,0.717468,0.245361
1480510130071066,-0.372192,-0.534851,0.717773,0.2453
1480510130096634,-0.37262,-0.534912,0.717651,0.244873
1480510130116186,-0.37262,-0.534912,0.717651,0.244812
1480510130131732,-0.372375,-0.534912,0.717896,0.24469
1480510130153786,-0.371643,-0.535217,0.718018,0.24469
1480510130176346,-0.371887,-0.535706,0.717773,0.244019
1480510130191386,-0.372742,-0.535889,0.717224,0.243774
1480510130213946,-0.372986,-0.535522,0.717285,0.24408
1480510130236506,-0.372803,-0.5354,0.717285,0.244507
1480510130259066,-0.372681,-0.535583,0.717224,0.244568
1480510130273609,-0.372986,-0.536255,0.716736,0.244202
1480510130296165,-0.372864,-0.536133,0.716858,0.244263
1480510130319047,-0.372681,-0.53595,0.717163,0.244141
1480510130333765,-0.372375,-0.536255,0.717102,0.244019
1480510130356325,-0.371826,-0.536987,0.716858,0.243958
1480510130388410,-0.371887,-0.537476,0.716431,0.244019
1480510130393925,-0.371948,-0.537231,0.716614,0.243896
1480510130416490,-0.371643,-0.537354,0.716736,0.243591
1480510130439045,-0.371277,-0.537476,0.71698,0.243347
1480510130453584,-0.371155,-0.537659,0.71698,0.243042
1480510130476143,-0.371216,-0.537781,0.716919,0.242859
1480510130499206,-0.370911,-0.537415,0.717346,0.242981
1480510130513744,-0.370667,-0.537476,0.717468,0.242859
1480510130536303,-0.371277,-0.53833,0.716797,0.241943
1480510130558864,-0.371948,-0.538208,0.716675,0.241699
1480510130573904,-0.372375,-0.537842,0.716675,0.24176
1480510130596464,-0.372498,-0.537842,0.716492,0.242126
1480510130619024,-0.37207,-0.537598,0.716614,0.24292
1480510130634063,-0.372192,-0.538147,0.716187,0.242737
1480510130656122,-0.37262,-0.538025,0.716125,0.242615
1480510130678683,-0.372742,-0.537292,0.716492,0.242859
1480510130693722,-0.372742,-0.537292,0.716553,0.242859
1480510130716283,-0.372498,-0.537109,0.716797,0.242676
1480510130738843,-0.372314,-0.537292,0.716919,0.242188
1480510130753896,-0.371887,-0.537415,0.717224,0.241699
1480510130776443,-0.372192,-0.537781,0.716919,0.241333
1480510130799002,-0.372986,-0.537903,0.71637,0.241638
1480510130814043,-0.373474,-0.537537,0.716125,0.242371
1480510130836101,-0.373962,-0.537537,0.715759,0.242554
1480510130867685,-0.373474,-0.537048,0.716309,0.243042
1480510130873701,-0.373413,-0.537476,0.716187,0.242493
1480510130899271,-0.373352,-0.537415,0.716248,0.242493
1480510130918821,-0.373596,-0.536865,0.716492,0.242615
1480510130941381,-0.373718,-0.536682,0.716492,0.242737
1480510130959429,-0.373718,-0.536621,0.716553,0.242737
1480510130978981,-0.373474,-0.536438,0.716858,0.242676
1480510130994021,-0.373291,-0.536621,0.716919,0.242188
1480510131016085,-0.372681,-0.536804,0.717163,0.242004
1480510131038639,-0.373352,-0.537415,0.716675,0.24115
1480510131061200,-0.374023,-0.537598,0.716187,0.241211
1480510131076240,-0.374634,-0.537659,0.715759,0.241455
1480510131098800,-0.374573,-0.537109,0.716003,0.242004
1480510131113840,-0.374268,-0.53656,0.716492,0.242249
1480510131136400,-0.373901,-0.536743,0.716492,0.24231
1480510131158960,-0.373962,-0.536499,0.716614,0.242371
1480510131174000,-0.374268,-0.535889,0.716858,0.242554
1480510131212602,-0.374329,-0.535889,0.716736,0.242798
1480510131218752,-0.374146,-0.535889,0.716675,0.243225
1480510131241179,-0.373962,-0.535645,0.716858,0.24353
1480510131256218,-0.374084,-0.535828,0.716797,0.243286
1480510131280282,-0.374084,-0.535828,0.716736,0.243286
1480510131301338,-0.373962,-0.535461,0.71698,0.243652
1480510131316378,-0.374207,-0.5354,0.716858,0.243835
1480510131338938,-0.374207,-0.5354,0.716858,0.243835
1480510131361498,-0.374207,-0.5354,0.716858,0.243835
1480510131376538,-0.374207,-0.5354,0.716858,0.243835
1480510131399100,-0.374207,-0.535156,0.716919,0.244019
1480510131421157,-0.374207,-0.535156,0.716919,0.243958
1480510131436197,-0.374268,-0.535156,0.71698,0.243958
1480510131458757,-0.374268,-0.535156,0.716919,0.243958
1480510131481318,-0.374268,-0.535156,0.71698,0.243958
1480510131496360,-0.374268,-0.535156,0.71698,0.243958
1480510131519000,-0.374207,-0.535156,0.71698,0.243958
1480510131541477,-0.374084,-0.535095,0.71698,0.244263
1480510131556517,-0.374084,-0.535095,0.717041,0.244263
1480510131579078,-0.374084,-0.535034,0.717041,0.244263
1480510131601136,-0.374084,-0.535034,0.717041,0.244263
1480510131616178,-0.374146,-0.53479,0.717163,0.244263
1480510131638736,-0.374207,-0.53479,0.717163,0.244263
1480510131661298,-0.374268,-0.534607,0.717163,0.244385
1480510131676336,-0.374329,-0.534424,0.717224,0.24469
1480510131701904,-0.374329,-0.534424,0.717224,0.24469
1480510131721456,-0.374329,-0.534424,0.717224,0.244751
1480510131736496,-0.374268,-0.534424,0.717224,0.244751
1480510131759056,-0.374146,-0.534424,0.717285,0.244873
1480510131781617,-0.374207,-0.534363,0.717285,0.244812
1480510131796156,-0.374207,-0.534424,0.717224,0.244812
1480510131818715,-0.374207,-0.534424,0.717285,0.244812
1480510131841276,-0.374207,-0.534363,0.717285,0.244812
1480510131856332,-0.374329,-0.534302,0.717224,0.244873
1480510131878875,-0.374329,-0.534302,0.717224,0.244873
1480510131901435,-0.374329,-0.534302,0.717224,0.244873
1480510131916480,-0.374329,-0.534302,0.717224,0.244873
1480510131939034,-0.37439,-0.534302,0.717224,0.244873
1480510131961094,-0.37439,-0.534241,0.717224,0.244873
1480510131977638,-0.374329,-0.534302,0.717224,0.244873
1480510131998697,-0.374329,-0.534302,0.717224,0.244873
1480510132021353,-0.374329,-0.534241,0.717285,0.244873
1480510132043813,-0.37439,-0.534424,0.717163,0.244751
1480510132058854,-0.37439,-0.534424,0.717163,0.244751
1480510132081414,-0.37439,-0.534424,0.717163,0.244751
1480510132096454,-0.37439,-0.534363,0.717163,0.244751
1480510132119249,-0.374634,-0.534424,0.717041,0.244812
1480510132141573,-0.374756,-0.534363,0.71698,0.244812
1480510132163633,-0.374756,-0.534363,0.71698,0.244873
1480510132178673,-0.374817,-0.534119,0.717102,0.244934
1480510132201232,-0.374817,-0.534119,0.717102,0.244934
1480510132223792,-0.374878,-0.533997,0.717041,0.245178
1480510132239333,-0.375061,-0.533875,0.717041,0.245422
1480510132261393,-0.375061,-0.533813,0.717041,0.245361
1480510132284454,-0.375061,-0.533813,0.717041,0.245361
1480510132298992,-0.375061,-0.533813,0.717041,0.245422
1480510132321051,-0.375061,-0.533813,0.717041,0.245361
1480510132343610,-0.375061,-0.533813,0.717041,0.245361
1480510132358651,-0.375061,-0.533936,0.71698,0.245361
1480510132381211,-0.375,-0.533936,0.71698,0.245361
1480510132403771,-0.374939,-0.534058,0.716858,0.245483
1480510132418820,-0.374878,-0.53418,0.716797,0.245544
1480510132441371,-0.374817,-0.53418,0.716797,0.245667
1480510132463931,-0.374817,-0.53418,0.716797,0.245667
1480510132478971,-0.374878,-0.53418,0.716736,0.245667
1480510132501531,-0.374878,-0.534241,0.716736,0.245667
1480510132523590,-0.374878,-0.53418,0.716736,0.245667
1480510132538630,-0.374878,-0.53418,0.716797,0.245667
1480510132562694,-0.374878,-0.53418,0.716797,0.245667
1480510132583751,-0.375,-0.534241,0.716614,0.245728
1480510132598790,-0.375244,-0.53418,0.716553,0.245728
1480510132622854,-0.375183,-0.53418,0.716614,0.245728
1480510132643911,-0.375183,-0.53418,0.716614,0.245728
1480510132658950,-0.375183,-0.533875,0.716736,0.24585
1480510132681510,-0.375183,-0.533875,0.716736,0.24585
1480510132704070,-0.375183,-0.533875,0.716736,0.24585
1480510132726129,-0.375244,-0.533752,0.716736,0.246155
1480510132741168,-0.375366,-0.533752,0.716614,0.246277
1480510132763731,-0.375366,-0.533813,0.716553,0.246277
1480510132787793,-0.375366,-0.533813,0.716553,0.246338
1480510132801329,-0.375366,-0.533813,0.716553,0.246277
1480510132823889,-0.375427,-0.533813,0.716553,0.246277
1480510132838928,-0.375427,-0.533691,0.716736,0.245911
1480510132869008,-0.375549,-0.533691,0.716919,0.2453
1480510132884049,-0.375427,-0.533752,0.717102,0.244751
1480510132899088,-0.375305,-0.53418,0.717041,0.244324
1480510132921147,-0.375061,-0.534424,0.71698,0.244263
1480510132943708,-0.375122,-0.534607,0.716797,0.244263
1480510132958747,-0.375305,-0.534851,0.716553,0.244019
1480510132981308,-0.375061,-0.535156,0.716553,0.243896
1480510133003868,-0.374817,-0.535522,0.716431,0.243774
1480510133018907,-0.374695,-0.535461,0.716614,0.243591
1480510133041467,-0.374878,-0.535583,0.716675,0.242981
1480510133066535,-0.375,-0.535522,0.716919,0.242004
1480510133078566,-0.374939,-0.535767,0.717224,0.240723
1480510133101127,-0.374451,-0.53595,0.717651,0.239868
1480510133123685,-0.374695,-0.536194,0.717651,0.23877
1480510133146246,-0.374634,-0.536072,0.718018,0.238098
1480510133161285,-0.374573,-0.536133,0.71814,0.237732
1480510133183847,-0.374756,-0.536377,0.717957,0.237366
1480510133206406,-0.374939,-0.536133,0.718201,0.236938
1480510133221447,-0.374756,-0.535889,0.718628,0.236572
1480510133244012,-0.374634,-0.535889,0.718689,0.236389
1480510133266567,-0.374634,-0.535583,0.718994,0.236389
1480510133284113,-0.374634,-0.535217,0.71936,0.236084
1480510133303664,-0.374634,-0.535156,0.719604,0.235291
1480510133326225,-0.374146,-0.535095,0.720093,0.234802
1480510133344272,-0.373718,-0.535217,0.720276,0.234497
1480510133363825,-0.374207,-0.5354,0.720215,0.233704
1480510133386385,-0.374329,-0.535034,0.720642,0.232971
1480510133401425,-0.37439,-0.534973,0.72113,0.231506
1480510133426992,-0.373962,-0.535278,0.72168,0.229675
1480510133446545,-0.373047,-0.535522,0.722534,0.227966
1480510133462587,-0.371948,-0.535583,0.72345,0.226685
1480510133485148,-0.370239,-0.536011,0.723999,0.226868
1480510133506203,-0.370667,-0.536682,0.723206,0.227051
1480510133521243,-0.371582,-0.536194,0.722778,0.228088
1480510133543803,-0.371887,-0.535645,0.722778,0.228943
1480510133566865,-0.371399,-0.535828,0.722656,0.229553
1480510133588924,-0.370422,-0.535645,0.723083,0.230286
1480510133603965,-0.370422,-0.535706,0.723022,0.230286
1480510133626524,-0.370605,-0.535706,0.722839,0.230591
1480510133648583,-0.370422,-0.535278,0.723022,0.231201
1480510133664124,-0.370178,-0.535339,0.723083,0.231506
1480510133686183,-0.369812,-0.535522,0.723022,0.231689
1480510133701222,-0.369629,-0.535461,0.723083,0.231995
1480510133723782,-0.369507,-0.535217,0.723206,0.232422
1480510133746343,-0.369141,-0.535095,0.723267,0.233093
1480510133761382,-0.368652,-0.535034,0.723083,0.234375
1480510133783942,-0.36908,-0.535156,0.722534,0.235107
1480510133806503,-0.369141,-0.535034,0.722473,0.235657
1480510133821549,-0.368896,-0.534973,0.722473,0.236023
1480510133843601,-0.368652,-0.535339,0.722168,0.236572
1480510133866160,-0.368896,-0.5354,0.721741,0.237488
1480510133881201,-0.369568,-0.535034,0.721497,0.237793
1480510133903761,-0.369751,-0.534851,0.721741,0.237244
1480510133926320,-0.369568,-0.535278,0.721741,0.236633
1480510133941361,-0.369507,-0.535767,0.721436,0.236389
1480510133963921,-0.369568,-0.535767,0.721497,0.236328
1480510133986481,-0.369507,-0.535706,0.721497,0.23645
1480510134001520,-0.369385,-0.536072,0.721191,0.236755
1480510134023580,-0.369324,-0.536316,0.721008,0.236938
1480510134047644,-0.369385,-0.536133,0.72113,0.236877
1480510134068700,-0.369507,-0.53595,0.721252,0.236694
1480510134083741,-0.369507,-0.536194,0.72113,0.23645
1480510134106313,-0.369446,-0.536438,0.720886,0.236694
1480510134128860,-0.369446,-0.536438,0.720886,0.236694
