timestamp,emg1,emg2,emg3,emg4,emg5,emg6,emg7,emg8
1480534269875992,2,1,-2,0,0,-1,-2,-1
1480534269875992,1,-1,1,-1,-1,-1,-2,-1
1480534269877496,0,-1,-2,-2,0,0,1,0
1480534269877496,7,2,0,1,0,-2,-2,0
1480534269889529,-11,-1,0,-1,0,0,0,-1
1480534269889529,-3,-4,-1,-2,-1,-1,-2,-2
1480534269899054,-4,-1,1,0,1,0,0,0
1480534269899054,-3,-4,-1,-1,0,0,-2,1
1480534269914094,7,10,-1,0,0,-2,0,-1
1480534269914094,2,-2,-1,-1,0,0,-1,0
1480534269915598,-3,-3,-1,-3,-2,-2,0,-2
1480534269915598,-4,-7,-1,-1,-1,-1,0,-3
1480534269943672,3,10,1,1,0,-1,0,0
1480534269943672,-5,-14,-1,0,-1,-3,-1,-1
1480534269945176,3,2,-1,-1,0,0,0,1
1480534269945176,1,5,1,-2,0,0,-1,0
1480534269949688,1,-2,0,-1,0,0,1,-1
1480534269949688,3,4,0,0,-2,0,0,0
1480534269958712,-11,-8,0,1,-2,-1,-2,-2
1480534269958712,-1,0,0,1,-1,0,1,0
1480534269981272,1,-5,-1,-1,1,-1,0,0
1480534269981272,2,5,-2,-1,-1,1,0,0
1480534269982777,4,-3,-2,1,-2,-2,-1,1
1480534269982777,-1,1,0,-2,-1,-1,1,-1
1480534269995310,-5,-9,-1,-2,-1,0,0,-1
1480534269995310,0,0,-3,-1,-2,-2,-2,0
1480534270003941,1,4,-1,0,0,0,-2,-2
1480534270003941,1,-3,0,1,0,-2,1,0
1480534270018478,2,1,-1,0,-1,-1,0,2
1480534270018478,-1,7,0,-2,-1,-1,-2,-1
1480534270021488,1,-7,0,-1,0,0,1,1
1480534270021488,4,6,-2,0,-1,1,0,1
1480534270035022,-12,-17,-3,-2,-1,0,-3,-2
1480534270035022,1,1,-2,-1,0,0,0,-1
1480534270036527,3,2,0,-1,0,-2,-1,0
1480534270036527,-10,-4,0,-2,0,-3,-1,-2
1480534270056079,8,7,-1,1,0,0,0,-1
1480534270056079,1,-3,1,-1,0,0,1,-1
1480534270057583,-6,-4,-2,-1,1,0,-1,0
1480534270057583,0,7,1,0,-1,1,-2,-2
1480534270078639,-1,0,-2,-2,-1,-2,0,-1
1480534270078639,2,-1,-2,-2,0,-1,0,0
1480534270080143,-4,-1,2,-1,0,-2,-2,1
1480534270080143,-1,-2,-1,-1,-1,-1,-1,-2
1480534270093679,-1,-6,-2,-1,-1,-3,-2,-2
1480534270093679,1,5,-1,0,-1,-1,1,1
1480534270095183,5,0,-1,0,-1,0,0,-1
1480534270095183,0,-4,0,0,-1,0,0,0
1480534270115736,1,2,1,0,0,-1,-2,0
1480534270115736,1,-9,-1,0,-1,0,-1,0
1480534270122254,-11,-4,-2,-1,0,-1,-1,-1
1480534270122254,5,4,-3,-1,-2,0,-2,-1
1480534270138297,0,-1,1,1,1,3,-1,-1
1480534270138297,-1,6,0,-1,0,1,-1,0
1480534270144814,3,4,1,0,-1,-1,-1,1
1480534270144814,1,1,2,0,-1,-1,-2,1
1480534270152835,-7,-10,-2,-1,-2,-2,0,-2
1480534270152835,-1,-1,-1,0,-1,-1,-2,-1
1480534270159854,5,0,-2,0,-1,0,1,-2
1480534270159854,-2,-6,-1,0,-1,-1,-1,0
1480534270176398,8,4,-1,-1,0,0,-1,1
1480534270176398,-5,-1,-1,0,-2,0,0,0
1480534270177902,-1,-7,-2,1,0,0,-1,-1
1480534270177902,-3,-2,0,0,0,0,1,1
1480534270222521,0,1,-1,-1,0,-1,0,0
1480534270222521,3,1,0,-1,0,0,0,0
1480534270224024,2,5,-1,-2,-2,-1,-2,0
1480534270224024,2,-6,-3,-2,0,-1,0,-2
1480534270225028,-3,-1,0,0,-3,0,-2,-2
1480534270225028,-1,0,0,2,0,0,-1,0
1480534270229038,-1,0,-2,0,1,0,0,-2
1480534270229038,0,5,0,-1,-2,-1,-1,0
1480534270236057,-1,1,-2,-1,1,-1,1,0
1480534270236057,-1,-1,0,-1,0,-1,0,-1
1480534270237561,2,-4,0,-1,0,0,0,0
1480534270237561,1,-3,1,0,0,-2,-2,0
1480534270258617,-3,2,0,-3,-1,-1,0,1
1480534270258617,-3,-3,-3,-1,0,-1,-1,-1
1480534270260121,0,1,-1,-2,0,-1,1,2
1480534270260121,6,3,0,0,0,-1,0,0
1480534270273656,-4,-6,-1,0,-2,-1,0,-1
1480534270273656,-3,-3,-1,-2,-3,-1,-2,-2
1480534270279673,-1,-2,2,0,-2,-1,0,-3
1480534270279673,-13,-2,-3,0,-2,0,-1,0
1480534270296217,2,-1,-1,0,1,-1,-1,0
1480534270296217,-3,-3,-2,0,0,-1,-1,0
1480534270297721,0,5,-2,0,0,0,-1,0
1480534270297721,0,-4,-1,1,-1,-1,1,0
1480534270318777,0,2,0,1,0,-1,0,1
1480534270318777,1,2,1,1,0,2,1,-1
1480534270320285,-1,-1,-1,-1,-2,-1,0,-1
1480534270320285,-2,-4,-1,-1,0,1,-1,-2
1480534270332814,-1,-1,1,1,-2,-1,-1,0
1480534270332814,3,-1,0,-1,0,0,-1,0
1480534270339833,0,1,-1,-1,-1,0,0,1
1480534270339833,0,-1,-2,0,-1,0,2,-1
1480534270356377,-4,2,0,-2,-1,-1,0,-1
1480534270356377,-2,-5,-1,-1,-2,1,1,0
1480534270357881,3,4,-1,-1,0,-1,-2,-1
1480534270357881,-2,-2,-2,-1,0,-2,0,0
1480534270378938,7,1,0,0,-1,0,-1,-1
1480534270378938,-2,2,1,-1,0,-2,0,0
1480534270381444,-6,-3,-2,-2,-1,1,-1,-2
1480534270381444,1,1,1,1,0,-1,-2,1
1480534270392974,9,1,-1,0,0,-1,-1,0
1480534270392974,-1,2,0,-1,0,-1,0,0
1480534270399994,-4,-3,0,0,-1,-1,0,1
1480534270399994,-3,-1,-3,0,-1,-1,-1,-1
1480534270416036,-1,2,-2,0,-2,0,0,1
1480534270416036,4,1,0,-1,-1,0,0,-1
1480534270422553,-4,1,-3,0,-2,0,-1,-3
1480534270422553,0,-2,1,-2,-1,-1,-1,0
1480534270438596,-2,-1,0,0,0,0,-1,0
1480534270438596,0,-1,0,0,-1,-1,1,0
1480534270440100,2,1,0,0,0,0,0,1
1480534270440100,2,3,-2,-1,-2,1,-1,0
1480534270453134,-2,-1,0,-1,-1,0,-1,-3
1480534270453134,3,-3,0,0,-1,-3,-1,0
1480534270460153,-9,-6,-1,0,-2,0,2,-1
1480534270460153,-3,-2,-2,-1,1,1,-1,-1
1480534270476196,1,0,-1,-1,1,0,-1,1
1480534270476196,-2,-1,-1,1,0,-1,-2,0
1480534270478703,5,0,0,0,0,0,1,-1
1480534270478703,2,4,1,-3,0,-1,0,-1
1480534270498756,-9,-7,-3,0,-1,-2,-2,-1
1480534270498756,-1,0,-1,-1,0,-1,0,-1
1480534270500261,2,-1,-1,0,-1,0,-2,1
1480534270500261,1,-2,2,1,1,0,0,0
1480534270512292,-1,0,-1,-2,-1,0,-1,-1
1480534270512292,-4,-2,-4,-1,-1,0,-1,0
1480534270521316,1,-1,0,-1,0,-1,-2,-2
1480534270521316,0,-2,-3,-1,-2,0,0,0
1480534270536358,2,1,1,0,2,0,1,2
1480534270536358,1,0,1,0,0,1,-2,0
1480534270537860,-1,-2,0,0,-1,0,-1,-1
1480534270537860,-2,1,0,0,-1,-2,-3,0
1480534270557412,-2,-2,-3,1,-1,-2,0,-2
1480534270557412,2,-2,-1,1,-1,0,-1,0
1480534270566436,3,2,0,-1,0,0,1,0
1480534270566436,-5,-1,-2,0,1,-1,0,-1
1480534270572452,-4,-4,-2,-1,-1,0,-1,-1
1480534270572452,-2,-1,2,-2,1,-2,-1,-1
1480534270580974,-1,-2,-1,-2,-1,-2,-2,1
1480534270580974,5,-2,1,-2,0,-1,-1,-1
1480534270596014,4,5,0,-1,1,-1,0,2
1480534270596014,-11,-15,-5,-3,-1,-1,-2,-2
1480534270598020,-3,-2,0,-1,0,0,-1,-2
1480534270598020,1,-1,-2,0,-1,0,-1,-2
1480534270618575,5,3,1,1,-1,0,-2,1
1480534270618575,-1,-4,-1,-1,1,-3,0,-2
1480534270620080,-3,-2,0,-1,-1,0,0,0
1480534270620080,0,-1,1,0,-2,0,-1,-1
1480534270641135,4,1,0,0,0,0,0,0
1480534270641135,-7,1,0,-1,-2,-1,0,0
1480534270642639,-4,-10,-2,-2,-1,-1,-1,0
1480534270642639,0,0,1,0,1,-1,0,-1
1480534270656676,-3,-3,1,0,0,0,0,-2
1480534270656676,3,0,1,0,-1,-2,0,-1
1480534270658681,1,0,1,1,-2,-2,-2,-2
1480534270658681,1,0,0,-2,0,-2,0,1
1480534270678736,-1,-6,-2,-1,-1,1,0,0
1480534270678736,6,0,-1,-1,0,1,-1,0
1480534270680740,-2,4,1,1,1,-1,0,0
1480534270680740,-4,-5,-2,-1,-2,-1,0,0
1480534270692270,-1,-2,-1,0,0,-3,-1,0
1480534270692270,0,1,-1,0,-1,-1,-1,-1
1480534270701295,2,2,-1,-1,0,0,-1,0
1480534270701295,1,-1,1,-2,-1,1,1,0
1480534270716334,-3,2,-1,-2,-1,0,0,1
1480534270716334,-2,-2,-1,-3,-1,-1,0,-1
1480534270717838,1,-2,-2,-1,0,0,-2,-1
1480534270717838,2,0,-2,-2,-1,0,0,1
1480534270738393,4,3,1,-1,-1,0,0,-1
1480534270738393,-3,-1,0,-1,-1,-1,-1,-2
1480534270740399,-1,-8,-1,-1,-1,0,0,1
1480534270740399,-4,-4,-3,0,0,0,-2,-1
1480534270752431,1,-4,-3,0,-1,-1,0,0
1480534270752431,4,4,0,1,0,0,1,0
1480534270761455,-4,-5,0,-1,-1,-2,-1,0
1480534270761455,0,4,-1,0,0,0,-2,-1
1480534270776495,-6,-9,-2,-3,-1,-3,-2,-2
1480534270776495,-1,-3,-1,0,-2,-1,0,0
1480534270782510,3,2,-1,-1,-1,0,0,0
1480534270782510,0,-2,0,0,0,-2,-1,0
1480534270799556,-2,-1,1,0,-1,0,2,0
1480534270799556,1,-1,-2,-2,0,1,0,-1
1480534270801061,3,3,0,-1,1,1,0,0
1480534270801061,1,-2,2,-2,-1,-1,-1,-2
1480534270812090,-1,3,-1,-1,-1,-3,0,0
1480534270812090,2,3,1,0,0,-1,0,0
1480534270821113,-3,5,-1,1,-1,0,-1,0
1480534270821113,-1,-2,-1,0,-1,-2,0,0
1480534270836658,-2,-2,-1,-1,-2,0,-3,-1
1480534270836658,1,-4,0,1,1,-1,1,1
1480534270838660,0,0,-2,-1,-2,1,1,-1
1480534270838660,-2,4,0,1,0,0,0,1
1480534270858713,-4,0,-1,-1,-3,-1,1,-1
1480534270858713,-7,-6,0,-1,0,1,-1,0
1480534270860217,0,6,1,1,0,-1,-1,-2
1480534270860217,-1,-5,-2,-1,-1,1,-1,-1
1480534270872250,-1,1,1,0,1,2,-2,0
1480534270872250,1,2,-1,-1,-3,-1,-1,-1
1480534270881274,-3,-4,0,0,0,-1,-1,-1
1480534270881274,1,0,0,0,-1,-1,1,0
1480534270896814,1,2,1,-2,0,1,0,1
1480534270896814,1,2,-1,-1,0,-1,-1,0
1480534270899322,-9,-1,-1,-2,-2,0,-1,0
1480534270899322,-4,-5,-1,-1,-2,-1,0,1
1480534270918372,0,-4,-1,1,1,-1,-1,-2
1480534270918372,1,-2,0,-1,-1,0,-1,0
1480534270920378,5,1,1,-1,0,1,-2,-1
1480534270920378,0,1,0,-1,0,-1,-2,-1
1480534270940933,-1,4,-1,-2,-1,-1,0,-1
1480534270940933,2,-4,-2,-1,-2,0,-1,-1
1480534270942938,-2,-7,-3,0,-1,-1,-2,-3
1480534270942938,-1,0,0,-2,-1,0,-1,-1
1480534270956473,4,4,-1,1,-1,0,0,-1
1480534270956473,-11,-12,-3,-2,-1,-1,-1,-2
1480534270957977,2,1,-1,0,-1,-1,2,0
1480534270957977,1,1,-2,0,0,0,-1,0
1480534270979034,5,3,-1,-3,0,0,0,-1
1480534270979034,-2,-2,0,-1,-1,0,-1,1
1480534270984548,0,-1,0,-1,0,0,-1,0
1480534270984548,1,2,1,0,0,0,0,-1
1480534271000089,-11,-8,-1,-2,0,0,-1,-1
1480534271000089,1,5,0,1,0,-1,-1,-2
1480534271009615,1,-1,0,0,-1,-1,0,0
1480534271009615,0,-6,-2,-2,-1,-2,-1,-2
1480534271016132,0,-1,1,0,0,0,-1,0
1480534271016132,-1,-4,-1,-1,-1,-1,0,-1
1480534271017636,3,0,1,-1,-1,-1,0,0
1480534271017636,0,1,0,0,-1,0,0,0
1480534271054234,-2,-6,-2,0,-1,-1,0,-2
1480534271054234,0,0,0,0,0,-1,-1,0
1480534271062756,-2,0,-3,-1,-1,0,-1,-2
1480534271062756,-2,-6,-1,-1,-2,0,0,-1
1480534271063257,-1,-4,0,1,0,0,0,0
1480534271063257,-7,-3,-3,-2,0,-1,0,-1
1480534271065263,4,2,-1,-1,-1,-1,0,1
1480534271065263,1,3,2,-1,0,-2,1,0
1480534271075289,4,4,0,0,-1,-1,0,0
1480534271075289,-14,-11,-3,-3,0,-1,1,-1
1480534271082308,2,2,0,0,0,2,0,1
1480534271082308,-7,-9,-3,-2,-1,-1,0,-2
1480534271099354,3,1,1,-2,0,-2,-1,0
1480534271099354,4,7,1,-1,0,1,0,1
1480534271101861,-2,-1,0,0,0,-2,-2,-1
1480534271101861,-2,1,0,0,0,0,0,1
1480534271120914,-2,-2,-2,-1,-1,-1,-2,-2
1480534271120914,2,4,-2,0,0,-1,0,-1
1480534271122916,1,-2,0,0,0,0,-2,1
1480534271122916,3,5,-1,-2,0,0,0,-1
1480534271135450,-5,-7,-2,-1,-2,-1,-1,0
1480534271135450,7,2,1,-2,-1,0,-1,-1
1480534271142468,-4,-5,-2,-1,-2,-1,1,0
1480534271142468,-2,-1,-1,-1,-2,0,-1,1
1480534271158510,-3,-1,0,0,-1,-2,1,0
1480534271158510,3,3,1,0,-2,0,-1,1
1480534271160015,3,-2,-2,0,-1,0,0,-2
1480534271160015,-7,-3,-1,0,-1,2,-2,-2
1480534271181073,5,3,-1,0,-1,2,0,-1
1480534271181073,2,1,0,0,-1,0,1,1
1480534271182575,-6,-7,-2,-1,-1,-2,1,-2
1480534271182575,-5,-9,-2,-1,-1,-1,-1,-1
1480534271195610,1,2,-1,-2,0,-2,-1,0
1480534271195610,4,5,-1,1,1,-1,-1,-1
1480534271202127,-3,-2,0,-2,-1,-1,-1,-1
1480534271202127,4,1,0,-1,-1,-1,-1,-1
1480534271218671,0,1,1,0,0,0,-1,-1
1480534271218671,-1,-3,-1,0,0,-2,0,-1
1480534271220177,1,0,-1,0,0,-2,-2,0
1480534271220177,1,3,0,1,0,1,0,0
1480534271248751,-1,-2,-1,0,-1,0,0,0
1480534271248751,2,4,-2,0,-1,-1,0,1
1480534271251258,-5,2,0,-2,1,0,0,-1
1480534271251258,3,-4,0,0,-1,-1,-1,-2
1480534271256271,-12,-4,-2,-1,-1,-1,-1,-1
1480534271256271,-2,-4,0,-1,0,1,0,0
1480534271262287,4,3,1,0,0,-1,0,0
1480534271262287,2,4,1,1,0,-2,-1,0
1480534271277828,2,-2,-2,-2,1,-3,-1,-1
1480534271277828,-2,-4,0,0,-1,0,-1,-4
1480534271286355,-2,-1,-1,-1,2,-1,0,-1
1480534271286355,-1,-1,0,-1,2,-1,-1,-1
1480534271300889,4,-2,0,-2,-1,-1,-1,1
1480534271300889,-1,2,0,0,0,0,0,0
1480534271302899,-9,-5,-3,-1,-3,2,1,-1
1480534271302899,-2,-2,0,0,-1,0,-1,-1
1480534271315929,1,0,-1,0,0,1,-1,0
1480534271315929,4,0,1,0,-2,-1,-1,0
1480534271331471,-2,-3,-1,0,0,0,-1,0
1480534271331471,0,9,-1,-2,-1,-1,-1,0
1480534271338490,-2,-2,-1,0,0,0,-1,-2
1480534271338490,1,-3,0,-1,-1,-2,-2,0
1480534271339993,-10,-2,1,-2,0,0,0,-1
1480534271339993,1,1,-1,0,-1,-1,-2,1
1480534271361050,2,-1,-1,1,0,2,-1,0
1480534271361050,-1,1,-2,0,0,0,0,-2
1480534271362554,5,0,-1,0,1,-1,0,0
1480534271362554,-2,-3,-1,-3,0,-1,0,0
1480534271376089,-1,-1,2,-2,-2,0,-2,-2
1480534271376089,0,0,1,-2,0,0,-1,-2
1480534271383609,4,-2,-1,0,0,1,1,0
1480534271383609,-1,-4,-2,-1,-1,-1,-2,0
1480534271406169,-1,0,-1,1,-1,-1,0,0
1480534271406169,0,-1,1,-1,2,0,-2,0
1480534271407673,5,8,-1,2,-2,-1,-2,0
1480534271407673,-8,-13,0,-1,0,-1,-2,-2
1480534271421209,3,6,1,-1,0,0,-1,1
1480534271421209,-1,-4,-3,-1,0,-1,0,-1
1480534271422713,-5,-4,-1,-1,-2,0,-3,-2
1480534271422713,6,6,0,0,-1,0,1,0
1480534271434745,-3,-4,-1,-1,-2,0,0,0
1480534271434745,-5,-9,-3,-2,-1,-2,0,-2
1480534271443769,2,1,0,0,-1,-1,-1,0
1480534271443769,-1,0,0,0,0,-1,-1,0
1480534271459311,-1,0,0,0,-1,0,-1,0
1480534271459311,-2,-3,-1,0,0,0,-3,0
1480534271460815,0,-1,-1,-2,0,2,-1,-1
1480534271460815,0,3,-1,0,0,0,-1,-2
1480534271481369,2,0,-1,-1,-2,-1,0,0
1480534271481369,2,2,-2,-1,-1,-1,0,1
1480534271482874,-1,-7,-1,-3,-2,-2,0,-1
1480534271482874,-2,-5,0,0,0,-2,0,0
1480534271495908,-5,-8,-1,-1,-1,-2,-1,-3
1480534271495908,-2,-1,-2,1,-1,0,2,1
1480534271511951,3,4,0,-1,1,1,-1,0
1480534271511951,3,2,0,0,-1,1,0,1
1480534271518469,3,3,0,-1,-1,1,0,0
1480534271518469,-1,1,1,-1,0,0,-1,0
1480534271520477,-7,-8,-3,-2,1,-1,0,-1
1480534271520477,1,3,1,-1,-1,0,0,0
1480534271541532,1,4,-1,0,0,-2,-1,-1
1480534271541532,-3,-5,-1,0,-3,-3,-1,-1
1480534271543535,-3,-7,-1,-1,-2,-3,0,0
1480534271543535,-3,-2,-1,0,-1,0,-1,1
1480534271554564,0,0,0,-1,0,0,0,0
1480534271554564,5,3,1,0,-1,1,-1,1
1480534271563590,2,0,-1,1,0,-1,1,-1
1480534271563590,-4,-3,-2,0,0,0,-1,-1
1480534271578628,2,3,-2,-1,0,-1,-1,0
1480534271578628,-5,-1,0,-2,-1,-1,-1,-1
1480534271580132,3,2,1,-2,-2,-2,0,1
1480534271580132,3,-3,0,-1,0,0,0,-1
1480534271601691,-2,-4,-1,0,-1,-1,0,-1
1480534271601691,-4,-1,-1,-1,1,0,-1,-1
1480534271603193,-6,0,0,0,-1,-2,-1,0
1480534271603193,3,1,-1,0,0,0,0,0
1480534271614724,-4,-2,0,0,-1,1,0,-1
1480534271614724,3,2,-1,0,-1,0,0,-1
1480534271631271,-3,-7,-1,0,-1,3,-1,-1
1480534271631271,0,1,-1,-1,0,-1,-1,1
1480534271638792,0,-1,0,-2,0,-1,0,-1
1480534271638792,3,2,0,-1,-1,0,0,0
1480534271640293,0,-3,1,-1,1,-1,-2,-1
1480534271640293,-2,2,-2,1,-1,-1,0,1
1480534271660847,0,-6,0,-1,0,-3,-1,-1
1480534271660847,-2,-1,-2,0,-2,-1,0,0
1480534271662852,1,2,-1,-2,0,-1,0,0
1480534271662852,-1,-2,-2,0,-1,-1,0,-1
1480534271675387,0,0,-2,-1,0,-2,0,1
1480534271675387,-3,-6,-1,-1,-1,0,-1,-2
1480534271683908,0,0,-1,-2,-1,0,-1,-1
1480534271683908,4,-1,0,-2,-2,0,0,-2
1480534271698447,-5,-3,0,0,0,-1,1,0
1480534271698447,-1,-4,-1,-1,0,0,-1,-2
1480534271700453,4,3,0,0,0,-1,1,1
1480534271700453,-2,0,1,-1,1,0,-1,0
1480534271728526,0,1,0,-1,-1,2,0,0
1480534271728526,2,-2,1,0,0,0,1,2
1480534271730031,-3,-5,-2,2,-1,0,-1,-1
1480534271730031,1,3,0,-2,0,-1,0,1
1480534271734544,-2,-2,-1,-1,-1,-2,-2,0
1480534271734544,-6,-6,-2,-1,-1,-1,-1,-1
1480534271743567,4,12,0,0,0,0,2,-1
1480534271743567,-5,-8,0,1,-3,-1,0,-2
1480534271758607,2,0,0,-1,1,-2,-2,-2
1480534271758607,5,1,-1,-1,0,-1,0,-1
1480534271760111,-1,3,0,1,0,-2,-1,0
1480534271760111,-10,-10,-1,1,0,0,-1,0
1480534271780665,2,1,0,-1,0,-1,0,-1
1480534271780665,-2,-6,0,-1,0,0,1,0
1480534271787183,3,3,0,-2,0,0,-1,-1
1480534271787183,4,3,1,0,-1,0,0,-1
1480534271794703,-2,-6,0,1,-1,0,-3,-2
1480534271794703,-4,3,1,0,-1,-1,1,0
1480534271804229,0,-3,0,-1,-2,-1,-1,1
1480534271804229,0,1,-2,-1,0,-1,-1,-1
1480534271818767,-2,-2,0,-1,0,0,-1,0
1480534271818767,3,1,-1,-1,0,-2,0,1
1480534271820273,-8,-2,0,0,-2,0,-1,-1
1480534271820273,1,-1,-1,-2,-2,-1,-1,-1
1480534271848847,0,6,-2,-2,-1,0,0,1
1480534271848847,5,0,-1,1,-2,0,-2,0
1480534271856869,-5,1,-1,0,1,0,0,-1
1480534271856869,-6,0,-2,-1,-1,-2,-1,-2
1480534271857871,-8,-12,-2,-1,-1,0,-1,-1
1480534271857871,-5,0,0,-1,0,-1,-1,-2
1480534271864889,8,3,0,-1,1,-1,-1,-1
1480534271864889,1,2,1,-1,-1,-1,0,-2
1480534271886450,1,5,-3,0,-1,-2,0,1
1480534271886450,0,-1,-1,-1,0,-2,0,-2
1480534271887951,-1,-3,0,-2,-2,-1,-1,-1
1480534271887951,-1,-3,-2,0,0,-2,-2,0
1480534271900986,3,2,0,1,0,-1,-1,-1
1480534271900986,-3,2,1,0,0,-1,-1,-1
1480534271903369,1,-4,1,0,-4,0,0,-1
1480534271903369,-4,-3,0,-1,-1,0,-1,1
1480534271923546,1,0,0,-1,0,1,0,0
1480534271923546,-10,1,-4,-2,-3,-1,-2,1
1480534271926052,1,-3,-2,-1,-1,-1,-1,-1
1480534271926052,5,2,0,0,0,-1,0,0
1480534271938588,-2,1,-2,-2,-1,1,-1,-1
1480534271938588,-1,-5,-1,1,1,1,0,-3
1480534271940093,0,-1,0,0,0,-1,0,-2
1480534271940093,-4,-3,-2,-2,0,-2,0,-2
1480534271961146,-2,-2,1,-2,-1,-2,0,-1
1480534271961146,2,-4,0,-1,-1,-1,0,0
1480534271962650,-1,1,-1,0,-1,-1,-1,0
1480534271962650,5,2,-2,-2,-2,0,-1,0
1480534271982702,-1,0,1,0,1,-1,0,0
1480534271982702,-2,-1,-1,2,0,0,-1,-1
1480534271991227,1,7,1,-1,0,0,-1,0
1480534271991227,-5,-7,-2,1,-1,-1,0,0
1480534271999247,0,3,0,1,-2,-3,-1,1
1480534271999247,3,0,-1,0,0,0,-1,2
1480534272001256,-10,-1,-2,0,-2,-1,-2,0
1480534272001256,2,1,-1,0,-1,0,-1,0
1480534272021306,-2,0,-2,0,-1,-1,1,0
1480534272021306,-1,-6,-1,-1,1,0,-2,-1
1480534272023813,6,-2,0,-1,0,0,-1,-1
1480534272023813,-1,1,-1,0,1,0,0,-1
1480534272044868,-1,-5,-1,-1,0,-2,-2,-2
1480534272044868,1,3,-2,0,0,1,0,-2
1480534272046372,-4,-3,-1,-1,-1,-1,1,-2
1480534272046372,4,2,0,0,0,-1,-1,0
1480534272058905,2,-2,0,0,-1,-1,0,2
1480534272058905,-1,2,-1,-2,-1,-1,0,0
1480534272064922,1,-4,-1,1,1,0,-2,-1
1480534272064922,-6,-10,-1,0,-1,0,-2,-3
1480534272081466,-3,-2,0,1,-1,1,-1,0
1480534272081466,-1,0,0,-1,-1,-1,0,-2
1480534272083472,9,2,-1,1,0,-2,0,0
1480534272083472,-3,4,1,-1,-1,-1,-1,-1
1480534272111045,4,-4,-3,-1,-1,-1,-1,-1
1480534272111045,-10,-9,0,-2,-2,0,0,-1
1480534272113050,0,0,-3,0,-1,0,0,-1
1480534272113050,2,3,0,-1,-1,-1,1,-1
1480534272118063,3,1,0,2,1,1,-1,1
1480534272118063,5,4,0,-1,-2,-1,-1,0
1480534272124580,-6,-7,0,-2,0,0,-1,-1
1480534272124580,-1,-2,-1,-1,-2,1,-2,-3
1480534272141124,-4,-1,-1,1,0,1,0,-2
1480534272141124,2,-3,0,-1,0,-2,-1,-1
1480534272142629,-2,-2,-2,0,1,1,1,1
1480534272142629,3,2,-1,1,0,0,-1,0
1480534272164687,1,-2,1,-2,1,-1,-1,0
1480534272164687,1,1,-2,-2,0,-1,-3,-2
1480534272169703,0,-2,-1,0,-2,-1,-1,0
1480534272169703,0,-2,-3,-1,0,-2,1,0
1480534272178724,-2,1,-1,0,0,-3,-1,-2
1480534272178724,0,0,1,0,-1,0,0,0
1480534272184740,4,0,0,0,-1,0,0,0
1480534272184740,0,4,-3,-2,1,-1,-1,1
1480534272201286,-3,-3,0,-1,0,0,0,0
1480534272201286,-1,3,-1,1,0,0,0,0
1480534272202788,4,-4,-2,-2,0,0,-2,-1
1480534272202788,-1,-1,1,0,-1,1,1,-1
1480534272223844,-4,-4,-3,0,-3,1,1,-3
1480534272223844,1,1,1,1,0,-1,-3,1
1480534272225348,-1,1,2,0,-1,-1,-1,-2
1480534272225348,0,0,-1,0,1,-2,-1,-1
1480534272238383,0,-1,-2,0,-1,0,-2,-1
1480534272238383,1,-3,-2,-2,-1,0,0,-1
1480534272253925,-3,0,-2,0,-1,0,0,0
1480534272253925,-4,-5,-1,0,-1,-1,-1,0
1480534272260943,0,-1,2,-1,-2,0,0,-1
1480534272260943,1,-1,-1,0,0,-1,-1,-1
1480534272262949,2,6,-1,1,0,0,-1,0
1480534272262949,4,-2,0,-2,-2,1,0,1
1480534272284506,-18,-12,-2,-1,-1,0,-1,-3
1480534272284506,2,2,0,-1,1,-2,1,0
1480534272287017,-2,1,-1,0,-1,0,0,1
1480534272287017,2,3,0,-2,-1,0,0,1
1480534272298042,2,3,0,0,0,-2,-1,1
1480534272298042,-3,-3,-1,-1,-2,-1,-1,0
1480534272304560,-2,-5,0,-1,-1,-1,-1,-1
1480534272304560,-4,-2,-2,-1,0,0,-1,-2
1480534272321604,8,5,1,1,-1,0,-1,0
1480534272321604,0,-2,0,-1,-1,-2,-1,0
1480534272327119,2,0,0,-1,-1,-1,-2,-2
1480534272327119,-3,-2,0,-1,-2,0,-1,-3
1480534272344166,-2,-1,-3,-2,0,-1,-1,-1
1480534272344166,0,-4,-2,0,-2,0,1,-1
1480534272345668,5,5,1,0,0,0,1,1
1480534272345668,-4,1,1,-1,-1,0,1,-1
1480534272357700,-1,-7,-2,-2,-2,-1,-1,-2
1480534272357700,3,5,0,1,0,1,1,0
1480534272364720,1,-1,-1,-1,-1,0,-7,-1
1480534272364720,-3,-4,-1,-1,0,-2,7,0
1480534272381264,-1,-3,-1,-2,-2,0,-1,-1
1480534272381264,-4,4,2,-1,0,-1,-3,0
1480534272382767,0,1,-1,-3,-1,0,0,0
1480534272382767,5,-2,0,0,0,0,-3,-1
1480534272404426,1,-3,-2,-1,-2,-1,0,-1
1480534272404426,-6,3,-2,1,0,-2,0,-2
1480534272405330,-2,-1,0,-1,1,-1,0,-2
1480534272405330,4,2,1,-1,0,-2,-2,1
1480534272417359,4,5,2,-2,0,0,1,1
1480534272417359,-2,-12,-1,0,0,2,-2,-2
1480534272426386,-3,-2,0,-2,1,0,0,-3
1480534272426386,0,1,-1,1,0,0,-3,-2
1480534272441924,2,1,0,0,0,0,4,0
1480534272441924,-2,-4,0,-1,1,-2,0,2
1480534272443429,-2,2,1,1,-1,-1,1,-1
1480534272443429,-4,-7,-2,0,0,-1,-1,-1
1480534272463983,-3,4,1,-1,0,-2,-5,-1
1480534272463983,6,0,0,-1,-1,2,1,1
1480534272465487,-15,-9,-2,-2,0,0,3,1
1480534272465487,5,2,0,0,-1,-2,-6,-2
1480534272477018,4,2,0,1,0,0,2,1
1480534272477018,-3,2,-3,-1,0,0,-2,0
1480534272486556,-4,-10,-1,0,-1,0,0,-2
1480534272486556,0,4,0,0,-1,0,0,-1
1480534272501083,-2,-5,-2,-1,1,-1,-1,-2
1480534272501083,10,7,0,-2,-1,-1,-1,1
1480534272502587,-3,0,-3,-1,1,-1,0,-1
1480534272502587,-11,-12,-3,-3,-1,0,-2,-2
1480534272523642,2,1,-1,1,0,-1,0,0
1480534272523642,5,1,0,0,-1,0,0,0
1480534272525146,-14,-10,-2,-1,-2,0,-1,-1
1480534272525146,5,4,-1,0,1,-1,0,2
1480534272537178,2,2,0,-1,-1,0,0,-2
1480534272537178,-2,-6,-1,-1,-2,-1,-2,-3
1480534272552218,8,3,1,-1,0,-1,0,0
1480534272552218,2,5,-1,1,0,-1,1,1
1480534272561743,-5,-9,-1,-1,-1,0,-3,-2
1480534272561743,-3,-2,-2,0,0,0,0,0
1480534272563247,9,9,1,1,0,-1,0,0
1480534272563247,-8,-15,-1,-1,-1,-1,0,0
1480534272583301,5,9,0,1,0,-1,0,0
1480534272583301,2,1,0,-1,0,-1,1,0
1480534272589818,-19,-20,-2,-2,0,-2,-1,-3
1480534272589818,6,3,-1,-1,-1,1,-2,0
1480534272597338,-4,0,0,0,-3,-1,-1,1
1480534272597338,2,2,-1,0,0,-1,0,-1
1480534272606363,10,8,1,0,1,0,0,1
1480534272606363,-7,-4,1,-1,2,0,0,0
1480534272636444,3,-4,-2,-1,-3,0,0,0
1480534272636444,-2,4,1,-3,0,-2,0,-1
1480534272637946,5,7,-1,-1,0,-2,-1,0
1480534272637946,-4,-4,-1,-2,-2,-1,-2,0
1480534272643460,5,-2,-1,0,0,0,0,0
1480534272643460,-16,-9,-3,-2,-1,0,-1,-1
1480534272646469,7,6,0,2,0,-2,0,-2
1480534272646469,-2,3,1,0,-1,0,1,-1
1480534272656997,-2,-3,0,0,1,-2,0,0
1480534272656997,0,-2,-1,-1,-1,0,-3,0
1480534272666522,4,1,1,0,0,-1,1,0
1480534272666522,2,5,0,-1,0,-1,0,2
1480534272681074,-7,-8,-2,-1,0,-1,0,-1
1480534272681074,-1,4,1,0,0,0,0,-2
1480534272683067,-2,-6,-1,-2,-3,0,-1,0
1480534272683067,5,5,0,-2,1,-1,1,-2
1480534272703626,-2,2,-1,0,0,-1,1,1
1480534272703626,-6,-5,0,-1,1,-1,-1,0
1480534272705124,-4,-4,-4,-2,-2,0,-3,-1
1480534272705124,3,4,0,1,-2,-1,0,-1
1480534272717157,-5,-5,1,-2,0,-1,0,-2
1480534272717157,2,2,1,0,0,1,0,0
1480534272726181,-1,-2,1,-2,-1,0,1,0
1480534272726181,0,-1,-1,-1,-2,1,-1,-1
1480534272741221,1,0,-2,0,0,0,-2,1
1480534272741221,5,2,-1,2,0,-1,0,1
1480534272742726,1,1,-2,0,-1,-2,-1,-1
1480534272742726,-1,1,-2,0,0,-1,1,0
1480534272764283,0,-1,0,-1,0,1,0,0
1480534272764283,-2,2,0,-2,-1,-2,-1,-2
1480534272765786,-10,-11,-3,-1,-3,-2,-1,-1
1480534272765786,5,-1,0,-3,-3,-1,-1,0
1480534272777317,1,1,0,0,-1,-1,0,0
1480534272777317,3,3,-2,0,1,0,-1,-1
1480534272786343,0,1,1,0,0,1,0,0
1480534272786343,-1,-5,0,0,0,-2,-1,0
1480534272801883,3,3,-1,-1,0,0,-2,0
1480534272801883,2,-2,-1,-1,-3,0,0,-1
1480534272803386,3,4,1,0,0,1,0,0
1480534272803386,1,-3,-1,-1,0,1,0,-1
1480534272823439,-3,4,0,-1,-1,-2,0,-1
1480534272823439,-2,-11,0,0,-1,-2,-1,-1
1480534272825445,1,4,-1,1,-1,0,-1,1
1480534272825445,1,0,-1,-1,0,0,-1,0
1480534272845999,1,0,0,0,-2,-1,-1,-1
1480534272845999,-1,-2,-1,-1,-1,-1,1,-1
1480534272847503,-2,1,0,-1,0,0,1,1
1480534272847503,-2,-6,0,-1,-1,-3,-1,-3
1480534272869564,-11,-4,0,-1,-3,0,-2,-2
1480534272869564,5,-3,-2,-2,-1,-2,-1,0
1480534272874575,5,1,0,0,0,0,-1,1
1480534272874575,-1,2,0,-1,-1,0,0,2
1480534272883602,-2,-6,0,0,-1,-2,-2,0
1480534272883602,2,6,-2,0,0,1,-1,1
1480534272885105,-5,-3,-3,-1,-2,-2,-2,-2
1480534272885105,-2,-4,-1,0,0,0,0,0
1480534272906160,2,-1,-1,-1,0,0,0,-1
1480534272906160,-1,2,-1,0,0,0,0,0
1480534272907664,-1,-3,3,-1,-3,0,-1,0
1480534272907664,-3,-1,-1,0,-1,0,-1,0
1480534272928720,6,0,1,0,-1,-1,0,0
1480534272928720,0,-3,0,0,-2,-1,-1,-1
1480534272931226,-12,-12,-3,-2,-1,-2,0,-2
1480534272931226,0,-1,-1,1,-1,-1,-1,-2
1480534272943760,2,1,-1,-1,-1,-1,1,-1
1480534272943760,1,-2,1,0,0,-2,0,0
1480534272946266,3,-1,0,1,0,-1,1,1
1480534272946266,-2,-4,-2,-1,-1,-1,0,1
1480534272966320,7,4,-1,-2,0,0,-2,0
1480534272966320,-15,-6,-2,-1,-3,1,0,-1
1480534272967824,0,-3,-1,-2,0,0,-1,-2
1480534272967824,0,0,-1,-1,1,-2,0,-1
1480534272980357,0,-4,0,-1,1,-1,-1,-2
1480534272980357,1,3,0,0,0,0,-1,0
1480534272987375,2,1,0,1,-2,1,0,0
1480534272987375,0,1,2,1,0,0,-2,-2
1480534273003922,-3,1,-2,0,0,-1,1,-2
1480534273003922,-10,-9,-2,-2,-1,-1,-1,-2
1480534273005926,-2,1,-1,0,0,-2,-1,-1
1480534273005926,3,4,1,-2,0,0,0,0
1480534273033498,1,-1,0,0,-1,1,-1,1
1480534273033498,4,2,-2,-1,-1,-3,1,-1
1480534273035003,2,1,1,-1,0,0,0,-2
1480534273035003,-1,1,-2,0,-1,0,0,-1
1480534273040517,-2,-4,1,-1,-1,-3,-2,-1
1480534273040517,1,-1,1,1,-2,-1,0,-1
1480534273047535,-1,-3,-3,-2,0,0,-1,-3
1480534273047535,-9,-6,-1,1,-3,-1,0,-1
1480534273063578,1,-2,-3,0,-1,-2,-1,0
1480534273063578,1,0,-1,0,2,0,-1,-1
1480534273065082,2,4,0,0,-1,-1,0,0
1480534273065082,1,-2,1,-1,-2,1,0,0
1480534273086142,2,3,-1,-1,0,0,1,-1
1480534273086142,2,-2,-2,0,0,0,-1,1
1480534273087642,2,1,-2,0,-2,0,-1,0
1480534273087642,-5,-4,-1,-1,0,-2,-1,-1
1480534273100176,-5,1,2,0,-1,0,-1,1
1480534273100176,1,-2,1,0,1,-1,0,1
1480534273108698,2,-2,1,1,0,1,-1,0
1480534273108698,9,15,-1,-1,-2,-1,0,-1
1480534273123738,-15,-15,-3,-2,1,-1,-1,-2
1480534273123738,0,-1,-1,-2,0,-1,-1,0
1480534273125242,1,5,-1,0,0,-1,0,0
1480534273125242,5,4,1,0,0,0,1,1
1480534273145797,9,7,-1,-1,-2,0,-1,0
1480534273145797,-15,-10,-2,-1,-2,0,-2,-1
1480534273152314,10,5,1,-1,0,-2,-1,-1
1480534273152314,-7,-2,-1,-1,0,0,-1,-2
1480534273160336,-3,-5,-2,-2,-3,0,-1,0
1480534273160336,-3,-4,0,1,-1,-1,1,-1
1480534273175450,3,5,-1,-1,0,-1,-1,1
1480534273175450,-2,-8,-1,-1,-1,-1,0,-1
1480534273182896,6,5,1,0,2,-1,0,0
1480534273182896,0,4,0,-1,-1,0,0,1
1480534273192421,-7,-10,-2,-1,1,-1,-1,-1
1480534273192421,5,3,1,1,0,-1,0,-1
1480534273205957,-1,2,-2,1,-1,-1,0,0
1480534273205957,0,0,-1,-1,-1,-1,-1,-3
1480534273207962,1,-3,-2,-2,-2,-1,-1,-1
1480534273207962,3,-1,-2,-1,-1,1,-2,1
1480534273220495,-8,-5,-1,0,-1,-1,-1,-1
1480534273220495,6,1,-1,-2,-1,-1,0,0
1480534273227013,-9,-1,-1,-2,-1,0,0,-1
1480534273227013,0,-4,-2,-2,1,-2,-1,-1
1480534273243558,2,2,2,-1,-2,1,1,0
1480534273243558,6,-2,0,-1,1,-1,-1,0
1480534273245062,-9,-4,-2,-1,-1,1,1,0
1480534273245062,-4,-2,-3,0,-2,-3,0,-2
1480534273266116,-2,3,0,0,-1,0,-2,-1
1480534273266116,6,7,0,0,-1,1,-1,0
1480534273270139,-7,-13,-1,-1,-1,-1,1,-2
1480534273270139,-5,-6,-1,-1,-2,0,-2,0
1480534273280656,2,0,-1,0,-1,-1,0,0
1480534273280656,1,0,-2,0,0,-1,1,0
1480534273287174,8,5,1,0,-1,-1,1,1
1480534273287174,2,2,0,1,0,-1,-1,0
1480534273303721,-4,-7,-1,-1,-1,0,0,-1
1480534273303721,-2,-4,1,-1,-1,0,-1,-2
1480534273305221,-2,1,-1,0,0,0,-1,1
1480534273305221,1,1,0,0,0,0,1,-1
1480534273325274,4,3,0,1,0,-1,0,0
1480534273325274,1,-2,0,-2,-1,0,-1,0
1480534273333798,-6,1,0,-1,0,0,-1,-2
1480534273333798,-2,-9,-3,-2,-1,0,-2,0
1480534273339814,-6,-8,-2,-1,0,-1,-1,-2
1480534273339814,4,2,-1,-1,0,0,1,0
1480534273348837,5,3,1,0,-1,-1,0,1
1480534273348837,-4,-5,-1,0,-2,0,0,-1
1480534273363877,-2,0,-1,0,1,0,-1,0
1480534273363877,-1,-6,0,0,-1,-1,-2,0
1480534273365381,8,5,1,0,0,1,0,0
1480534273365381,1,3,0,0,0,-1,1,0
1480534273385938,2,1,-2,-3,-1,0,-1,-2
1480534273385938,-6,-4,0,-1,0,-1,-1,0
1480534273392453,-1,1,-3,1,-1,-1,-1,-1
1480534273392453,-3,-5,-1,-1,0,0,-1,-1
1480534273399973,5,4,-1,-1,0,1,0,2
1480534273399973,1,-1,0,0,-1,0,-1,0
1480534273408496,-2,-4,-2,0,-1,-1,0,-1
1480534273408496,-7,-4,-1,-1,0,0,-1,0
1480534273423535,2,3,2,0,0,-2,0,2
1480534273423535,-4,-1,0,0,-1,0,-1,-1
1480534273425039,1,0,-1,1,1,0,0,-1
1480534273425039,10,5,1,-1,2,-1,-1,0
1480534273453615,-8,-6,-3,1,0,0,-1,0
1480534273453615,-6,-5,-2,-1,-1,-2,1,-1
1480534273460635,0,3,0,0,-1,0,-1,1
1480534273460635,2,0,1,0,-1,0,0,-1
1480534273461637,1,-1,0,-2,-1,-2,0,0
1480534273461637,6,4,0,-1,-1,1,-1,1
1480534273468658,1,-2,-1,0,-2,0,-1,0
1480534273468658,0,3,-1,-1,-1,0,-1,-1
1480534273484699,-5,-9,-1,-2,-2,-2,-2,0
1480534273484699,0,-1,1,2,1,-1,0,-2
1480534273486705,0,-6,0,-1,-1,-1,-1,-1
1480534273486705,2,3,0,0,-1,0,-1,0
1480534273506255,4,4,-1,1,1,2,0,0
1480534273506255,-6,-8,0,-2,-1,-1,0,-1
1480534273508763,-2,0,2,-2,0,0,1,-2
1480534273508763,-4,0,1,0,-1,-1,0,-1
1480534273519795,-1,0,-1,1,-1,-3,-3,-2
1480534273519795,0,-2,0,-1,0,0,0,-1
1480534273528815,1,5,-2,-1,-1,0,-1,0
1480534273528815,-6,-10,-3,-1,-2,-1,1,-2
1480534273543355,5,3,1,1,-1,0,-1,-1
1480534273543355,-9,-3,-1,0,0,0,-1,1
1480534273545360,1,-3,0,-2,-1,0,-2,1
1480534273545360,4,8,-2,-1,0,0,-1,1
1480534273566918,-5,-20,-4,-2,0,-2,-2,-3
1480534273566918,-2,-2,-3,-1,-1,-1,0,0
1480534273568422,-2,1,-1,0,0,-1,0,0
1480534273568422,7,4,1,0,0,1,0,0
1480534273579951,2,2,1,-1,0,0,0,0
1480534273579951,-2,0,-1,-2,0,0,-1,-2
1480534273589978,-1,-5,0,-2,-2,-2,0,0
1480534273589978,3,5,0,0,-1,-1,-1,2
1480534273603519,-1,3,-2,-1,-2,1,0,0
1480534273603519,-7,-16,-3,-2,-3,-2,-1,-4
1480534273609530,3,1,0,-1,1,-1,-1,-1
1480534273609530,1,-2,-2,-1,-1,0,0,-1
1480534273626077,-8,1,2,-1,1,1,1,-1
1480534273626077,4,7,-1,0,-1,-2,0,2
1480534273627579,-4,-10,-3,-1,-1,0,0,-2
1480534273627579,6,1,-1,0,1,1,-1,1
1480534273639611,4,1,-1,-2,-1,-2,-2,-1
1480534273639611,-4,7,-2,1,0,-1,0,0
1480534273648635,-3,-1,0,-1,1,-2,-2,-1
1480534273648635,-6,-4,-1,-2,-2,-1,0,0
1480534273663674,5,2,-1,-1,0,0,-1,0
1480534273663674,-3,-4,0,0,0,-1,0,0
1480534273665179,4,4,-1,0,-2,1,0,-1
1480534273665179,-6,-8,-2,-1,-1,-2,0,-3
1480534273693754,-2,2,0,0,-1,0,-1,0
1480534273693754,7,3,0,1,0,1,-1,0
1480534273709296,0,-2,0,0,0,-1,-1,1
1480534273709296,3,6,0,-2,0,-2,0,-1
1480534273709798,-10,-6,0,-1,0,-1,0,-1
1480534273709798,-1,-4,1,-2,0,0,-1,-2
1480534273711803,2,9,-1,1,-1,-1,1,-1
1480534273711803,-7,-12,-1,0,1,0,-2,-2
1480534273730891,3,2,1,-1,-1,-2,-1,-1
1480534273730891,3,-1,0,-1,-1,1,1,0
1480534273732859,3,5,0,-1,-1,1,-1,0
1480534273732859,2,4,0,1,0,0,-1,0
1480534273745893,-6,-6,-1,2,0,-2,-2,-2
1480534273745893,5,7,0,0,-1,0,-1,-1
1480534273747898,0,-5,-1,-2,1,-1,-1,0
1480534273747898,-13,-6,0,-1,-1,0,-2,0
1480534273759931,0,-1,-2,0,-1,1,0,1
1480534273759931,1,4,-1,-1,0,-2,-1,0
1480534273768955,4,0,-2,-1,-1,-2,-1,-1
1480534273768955,-1,0,-1,1,-1,0,0,-1
1480534273783493,0,0,-1,-3,0,0,1,0
1480534273783493,3,4,-2,-2,0,0,1,1
1480534273791515,-3,-7,0,0,1,-1,0,-1
1480534273791515,-8,1,-1,-2,-1,-1,-1,-2
1480534273806053,-5,-9,-1,-2,-1,-1,-1,-1
1480534273806053,4,0,0,-1,0,0,1,1
1480534273807557,-1,0,1,-1,-1,-2,-1,1
1480534273807557,7,6,1,0,0,-2,0,1
1480534273828613,-2,-2,-3,0,0,0,-1,-2
1480534273828613,-4,-4,-1,-1,-2,0,-1,0
1480534273830117,-1,-2,0,-1,-1,0,0,0
1480534273830117,-2,-2,1,0,-1,1,0,-1
1480534273843653,6,7,2,0,0,1,-1,0
1480534273843653,2,-3,1,-1,0,0,-1,-2
1480534273845157,-11,-6,-3,1,-2,-1,-2,-5
1480534273845157,4,1,1,0,0,0,1,0
1480534273866715,2,5,0,-2,0,-2,0,1
1480534273866715,-3,-9,-2,-1,-1,-1,-1,-1
1480534273872232,6,0,1,-1,-1,0,1,1
1480534273872232,-3,1,-3,-1,0,0,0,0
1480534273888773,-8,-12,-2,0,-1,1,0,-2
1480534273888773,7,9,-1,-2,-1,0,0,1
1480534273890277,-14,-10,-3,-1,-3,0,-1,0
1480534273890277,-4,-7,-1,-1,-1,-2,-1,-2
1480534273902816,5,5,-1,1,-1,-1,0,0
1480534273902816,1,1,2,0,0,0,0,-1
1480534273909829,8,4,2,-1,1,1,1,1
1480534273909829,-14,-7,-3,-1,-1,1,-1,-1
1480534273925872,3,1,-1,0,-2,-1,-1,0
1480534273925872,-3,-5,-1,-2,0,-2,0,-1
1480534273927877,1,4,1,0,1,0,0,0
1480534273927877,-2,-1,0,-1,-1,-1,-1,0
1480534273948942,-2,3,-1,-3,-1,-1,-1,1
1480534273948942,-8,-9,-3,0,-2,1,-3,-2
1480534273950437,2,1,1,-1,-1,-1,-1,0
1480534273950437,4,0,1,-1,0,-1,0,0
1480534273963472,4,-1,1,0,1,1,-1,-1
1480534273963472,-1,6,0,1,-1,0,2,-1
1480534273979013,-6,-9,-4,-1,0,-1,0,-1
1480534273979013,2,0,-1,0,-2,-2,0,-1
1480534273986035,-1,1,0,-1,-1,-1,-1,0
1480534273986035,3,-3,0,-1,-1,1,-1,0
1480534273987536,-4,-2,0,-1,-1,-1,-2,-2
1480534273987536,2,1,-1,0,1,-1,-1,-1
1480534274009093,4,2,1,1,-2,-1,-1,-2
1480534274009093,-12,-6,-2,0,0,-1,-1,-2
1480534274010597,4,2,0,-1,0,-2,-1,1
1480534274010597,3,0,-1,-1,-2,-1,-1,0
1480534274023130,0,-2,1,0,1,-2,0,0
1480534274023130,3,1,0,0,1,-1,0,-2
1480534274029648,-7,-3,-2,-1,-1,-2,-2,-2
1480534274029648,5,3,-1,-3,0,-2,-1,0
1480534274046214,-3,2,0,-1,-1,0,0,-1
1480534274046214,-10,-13,-2,-1,-1,-1,-2,-1
1480534274047696,-4,-7,-2,-1,1,2,-1,0
1480534274047696,1,1,-2,-2,1,-1,0,-1
1480534274068753,3,0,-1,0,-2,-1,0,-1
1480534274068753,8,5,-1,0,0,0,0,0
1480534274070258,-10,0,-1,-1,-1,0,1,0
1480534274070258,5,2,0,1,0,0,1,0
1480534274082789,-3,-4,0,-1,1,1,0,0
1480534274082789,-7,1,-2,-1,-1,0,0,-1
1480534274089809,-3,-9,-1,-1,-2,-1,-1,-1
1480534274089809,-2,1,-1,-1,0,0,0,-2
1480534274105851,7,4,-1,-1,1,-2,0,0
1480534274105851,5,1,-1,-1,-1,-1,-1,0
1480534274107856,2,1,-1,-1,0,0,-1,0
1480534274107856,-5,-6,-3,2,-1,-1,-2,0
1480534274128410,-2,-1,-1,0,1,0,-1,1
1480534274128410,2,2,1,1,1,-1,0,1
1480534274130416,-1,4,0,1,-1,1,1,-1
1480534274130416,0,-2,1,-2,-1,0,-1,-1
1480534274143450,-15,-11,-1,0,0,0,0,-2
1480534274143450,4,2,1,-2,0,0,-3,0
1480534274166512,3,7,-1,1,0,0,-1,-1
1480534274166512,4,-2,-1,0,-2,-1,1,-1
1480534274167522,0,0,-2,0,-1,0,-1,0
1480534274167522,-9,-7,-2,-1,-2,-1,1,-1
1480534274169020,8,-3,-1,-1,-1,-1,0,1
1480534274169020,-9,-3,1,-1,-1,1,-1,0
1480534274189072,2,0,-1,-1,0,1,1,0
1480534274189072,3,1,1,-1,-1,-1,0,0
1480534274194586,3,6,0,-1,0,-1,0,-1
1480534274194586,-4,-4,-1,0,-1,-1,0,0
1480534274203109,1,2,-2,-1,1,0,-1,-1
1480534274203109,2,2,0,0,0,0,-1,-2
1480534274217649,-7,-11,-1,0,-1,-1,0,-3
1480534274217649,11,13,1,0,-1,0,-1,2
1480534274226171,-16,-13,-1,-2,-3,0,-2,-3
1480534274226171,1,-7,0,-1,0,1,1,1
1480534274229679,8,12,0,-1,-2,1,-2,1
1480534274229679,3,-10,1,2,1,-2,-1,1
1480534274248730,-6,1,0,-2,-1,-2,-1,-1
1480534274248730,-4,-3,-2,-1,-1,0,-1,-2
1480534274250234,-4,1,0,0,-1,0,0,-1
1480534274250234,0,0,-1,-1,-1,0,-2,-1
1480534274262768,7,4,2,-1,-1,-1,0,1
1480534274262768,-4,-1,0,-2,0,-2,-1,-1
1480534274269787,-2,-3,-1,0,-1,-2,0,-2
1480534274269787,-1,0,-2,-2,0,-2,0,-2
1480534274286335,0,-2,-1,0,-1,0,0,0
1480534274286335,2,1,1,1,1,-1,0,-1
1480534274292346,5,1,0,0,-1,0,0,-1
1480534274292346,-11,-1,-1,-1,0,-1,-1,-1
1480534274308391,-4,-13,-4,-1,-1,-2,-1,0
1480534274308391,8,8,0,2,0,0,-2,-2
1480534274310394,-10,-6,-2,-1,-1,0,-1,-1
1480534274310394,8,3,1,0,1,-1,0,1
1480534274322426,-7,1,1,-1,-2,-1,-1,-1
1480534274322426,1,0,-1,-2,-2,-2,-1,0
1480534274331450,3,2,0,1,-1,1,-1,-1
1480534274331450,-1,-2,-1,0,-1,-1,0,-1
1480534274345989,3,2,-2,-1,0,-1,1,1
1480534274345989,-3,-2,-1,-2,1,-1,-1,0
1480534274347494,-5,-1,-1,-1,0,-1,1,-1
1480534274347494,-3,-4,-1,-3,-1,0,-3,0
1480534274368550,6,4,1,1,-2,1,-2,-2
1480534274368550,-2,-4,-2,-1,-2,0,-1,-2
1480534274370554,-4,-4,0,0,0,-1,1,-1
1480534274370554,-1,4,0,1,0,-1,-1,-2
1480534274382086,-7,-13,-3,-1,0,-2,-1,-4
1480534274382086,-2,-2,1,-1,-2,-1,-2,0
1480534274391110,5,-2,-1,0,1,-1,0,0
1480534274391110,2,0,0,0,-2,0,0,0
1480534274406650,5,7,1,0,-1,-1,2,-1
1480534274406650,-2,-9,-2,0,0,0,0,-1
1480534274408155,-11,0,0,-2,1,-2,1,-1
1480534274408155,1,-2,-1,-1,0,0,0,-2
1480534274428710,-2,-3,-2,-2,0,0,-2,-1
1480534274428710,1,1,-2,-2,0,-1,0,1
1480534274430213,4,-1,0,0,-1,0,-1,0
1480534274430213,-2,-2,1,0,-1,-1,0,-1
1480534274442246,4,2,1,2,-1,-1,0,1
1480534274442246,-1,3,2,0,-2,0,-2,0
1480534274457787,3,1,-2,-2,0,0,-1,0
1480534274457787,0,4,0,-1,-1,0,2,-2
1480534274465307,-1,-4,-1,1,-1,0,-1,0
1480534274465307,-4,-1,0,0,-1,-1,0,0
1480534274466310,6,4,-2,-3,-1,-1,0,0
1480534274466310,-4,-4,2,0,-1,-1,-1,-1
1480534274487866,-4,1,-2,-2,-2,-1,-1,-2
1480534274487866,-3,-4,0,1,-1,0,-1,0
1480534274488870,5,2,1,0,-1,1,0,1
1480534274488870,-4,-3,-1,0,0,0,0,0
1480534274510929,0,-1,-1,-2,-1,-1,0,-1
1480534274510929,-2,-2,-2,-2,0,-1,1,1
1480534274512934,5,1,0,0,1,-1,-1,0
1480534274512934,1,3,-1,0,-2,0,-1,1
1480534274525466,-6,-12,-1,0,0,-2,-1,-2
1480534274525466,-4,-3,-2,-3,0,0,-1,-2
1480534274526469,0,2,-1,1,-2,-1,0,0
1480534274526469,1,-2,-1,0,-2,-2,0,-1
1480534274548026,1,10,2,-1,1,-1,-1,1
1480534274548026,-2,-5,1,1,-1,0,1,0
1480534274548528,-3,-3,0,1,-1,-2,0,0
1480534274548528,0,2,0,0,0,0,-1,-2
1480534274570587,3,3,0,0,0,0,1,0
1480534274570587,1,6,-2,-1,-1,0,1,0
1480534274571088,-6,-4,-2,-1,-1,-1,-1,-2
1480534274571088,-4,-6,0,-1,-2,-2,-2,1
1480534274593648,4,0,-1,1,-1,1,-1,1
1480534274593648,-4,-2,1,-2,-1,-1,-1,0
1480534274594651,-2,-5,0,-1,-1,-1,-1,0
1480534274594651,0,3,-1,0,-1,-1,0,1
1480534274607685,0,-1,-2,0,-1,-1,0,-1
1480534274607685,1,-2,0,-1,0,0,-3,-1
1480534274608688,4,4,1,-1,-1,0,1,0
1480534274608688,3,-2,-2,0,0,-1,-1,0
1480534274631248,3,2,1,1,-1,0,0,-1
1480534274631248,-4,1,0,1,-1,-1,0,-1
1480534274637975,-8,-5,-1,-2,-2,-1,-1,-2
1480534274637975,4,2,0,-3,0,0,0,-1
1480534274645285,3,4,-1,0,0,-1,0,0
1480534274645285,0,-1,-1,0,-1,0,-1,0
1480534274646289,-3,-2,-4,0,1,-1,-1,-1
1480534274646289,-2,4,-3,-1,-1,-1,1,-1
1480534274667847,-9,-12,0,0,0,-2,0,-2
1480534274667847,7,7,0,1,-1,-1,0,-1
1480534274668849,-1,-2,0,-2,0,0,-1,0
1480534274668849,-2,-5,-1,-2,-1,-1,0,-3
1480534274698426,0,3,-2,-2,-1,-1,-1,1
1480534274698426,1,0,0,1,-3,-1,0,-1
1480534274699430,0,-1,0,-2,-1,-1,0,-1
1480534274699430,0,1,0,-2,-2,2,-1,0
1480534274705445,12,9,2,0,0,0,0,2
1480534274705445,-16,-19,-3,-1,-2,-3,-2,-3
1480534274706448,-1,7,0,1,-1,-1,-1,0
1480534274706448,-3,-5,-2,-1,0,-2,-1,-1
1480534274743547,0,-4,-1,-2,-1,-2,0,-1
1480534274743547,8,2,0,-2,-1,0,-1,0
1480534274744050,1,4,1,-1,-1,0,-1,-1
1480534274744050,-6,-8,-1,-1,-1,-1,0,-1
1480534274752069,-1,-2,-2,-1,-1,-1,-1,-1
1480534274752069,2,4,0,0,1,-2,0,0
1480534274752573,0,-5,-3,-1,0,0,-2,-1
1480534274752573,4,1,0,0,0,-1,-1,0
1480534274773627,-5,-1,-1,1,-1,0,-1,-1
1480534274773627,-5,-2,0,-1,0,0,0,-2
1480534274774827,-1,-6,0,0,-1,-1,-2,-1
1480534274774827,-2,2,0,0,0,0,0,-1
1480534274788166,0,1,2,-1,1,1,0,-1
1480534274788166,5,2,-1,0,0,-1,-2,0
1480534274788667,-10,-2,-2,-1,-1,-1,0,-2
1480534274788667,2,6,-2,-1,-2,0,-1,-1
1480534274810224,-1,-7,0,-2,-3,-3,-1,-1
1480534274810224,-5,-7,0,0,0,-2,-1,-2
1480534274811227,-2,-8,1,-2,0,0,-2,-1
1480534274811227,1,1,-1,2,1,-2,0,0
1480534274825264,3,2,0,0,-1,0,0,1
1480534274825264,6,6,1,0,-1,0,-1,0
1480534274826267,-8,-3,0,0,-1,-1,0,-3
1480534274826267,3,-1,0,1,1,-2,-1,-1
1480534274847824,-6,-5,-2,-1,1,-1,-1,-1
1480534274847824,-1,-4,-3,0,-2,-2,-1,0
1480534274848827,7,2,2,0,0,-2,1,0
1480534274848827,-12,0,-2,-1,-2,-2,-1,-2
1480534274870384,4,2,0,-1,-1,0,-2,-2
1480534274870384,0,4,-1,-1,0,1,0,0
1480534274877904,7,3,-1,1,-1,-2,0,0
1480534274877904,5,3,1,-2,0,0,-2,-2
1480534274886429,-12,-11,-3,-1,-2,0,0,-2
1480534274886429,-2,2,0,-2,-1,0,-1,-2
1480534274900966,4,0,-1,-2,0,-1,-2,1
1480534274900966,-5,-8,-3,-1,-1,-1,0,-1
1480534274908485,0,6,0,1,1,0,-1,-1
1480534274908485,5,0,-2,1,0,0,2,-1
1480534274916005,-3,1,1,-1,-2,-1,-1,-2
1480534274916005,-3,-7,-2,-2,0,-1,-3,0
1480534274939083,2,5,1,-1,-1,-2,-1,-1
1480534274939083,-12,-4,-1,-1,-1,-2,-2,-1
1480534274939568,2,1,-1,-1,-1,0,0,1
1480534274939568,-2,-4,-2,-1,-1,-2,0,1
1480534274946085,6,3,-1,-2,0,-1,-1,0
1480534274946085,8,11,2,1,-1,2,0,0
1480534274946589,-9,-16,-2,-2,-2,0,0,-1
1480534274946589,-2,2,1,0,0,0,-1,-1
1480534274968145,-9,-9,-1,-1,0,0,-1,-2
1480534274968145,9,3,1,-1,0,-2,-1,0
1480534274968645,-6,1,0,-1,0,1,-1,2
1480534274968645,6,2,-1,-1,-2,-1,0,0
1480534274990203,8,12,-1,-1,0,-1,0,0
1480534274990203,-23,-18,-4,-2,-2,-2,-3,-4
1480534274991206,5,8,0,1,-1,-2,-1,0
1480534274991206,0,-3,2,-1,-2,1,1,0
1480534275013765,2,-1,1,0,0,0,0,0
1480534275013765,3,1,1,1,1,0,2,0
1480534275015269,4,3,-2,0,0,0,0,-1
1480534275015269,-4,2,1,-1,0,-1,-1,-2
1480534275027803,-1,-3,0,-2,0,-2,0,-1
1480534275027803,8,2,1,0,1,0,-2,0
1480534275028805,-7,-1,-2,2,0,-1,-1,-2
1480534275028805,-1,-3,-1,-1,0,0,0,-1
1480534275050363,2,-5,1,-1,-1,0,0,-1
1480534275050363,-9,5,0,-1,-2,0,1,-1
1480534275051366,0,-4,-1,-3,-2,1,-1,0
1480534275051366,4,2,-1,2,1,1,1,-1
1480534275066908,-4,-6,-1,-1,0,0,-1,0
1480534275066908,2,0,-1,0,-3,-1,0,-1
1480534275067910,2,2,-1,-1,0,1,0,1
1480534275067910,2,1,-1,1,-1,0,0,1
1480534275087964,-7,1,-1,1,0,0,-1,0
1480534275087964,5,-1,0,-2,-1,-2,-1,1
1480534275088464,3,-1,0,-1,1,0,1,0
1480534275088464,5,3,-1,-2,1,-1,-2,1
1480534275126566,-2,2,-2,-2,-1,-2,0,1
1480534275126566,-5,-13,-3,-1,1,0,0,1
1480534275127569,2,5,1,1,0,-1,0,0
1480534275127569,-1,0,1,-1,0,0,0,-1
1480534275129072,1,0,0,-1,-1,-1,0,-1
1480534275129072,3,0,0,-1,-1,-1,-1,-2
1480534275133085,-4,-4,1,0,-1,0,-2,0
1480534275133085,-1,2,0,-1,-2,-2,0,-1
1480534275147622,-5,-5,0,-1,-3,-1,-2,0
1480534275147622,1,0,0,-1,1,0,-2,-1
1480534275155644,0,1,0,1,0,-1,-1,0
1480534275155644,-2,-1,-2,1,-2,1,0,-1
1480534275171184,12,10,1,0,1,-1,1,-1
1480534275171184,-32,-20,-3,-1,-2,-1,1,-3
1480534275171686,1,-7,-4,-2,-1,-2,-1,-1
1480534275171686,1,-1,0,0,-1,-1,-2,0
1480534275186227,1,-5,1,-1,0,2,1,-1
1480534275186227,9,7,0,0,0,0,1,-1
1480534275193242,-2,1,1,1,-2,-1,0,-1
1480534275193242,-5,-6,-2,-2,-1,-1,1,0
1480534275216805,3,3,1,2,0,0,0,1
1480534275216805,-5,-2,-1,0,0,0,-1,-1
1480534275217811,-1,0,-2,-1,-1,-2,1,-1
1480534275217811,4,-2,0,0,0,-1,0,-2
1480534275231345,-3,-3,-2,-3,-2,-2,0,-1
1480534275231345,5,4,2,-2,-2,0,0,1
1480534275233351,7,3,1,-1,0,1,-1,0
1480534275233351,-7,-5,1,-2,-1,-1,0,-1
1480534275244880,-9,0,-3,-1,-1,0,-3,-1
1480534275244880,0,-9,-2,0,0,-1,-2,-2
1480534275252902,6,6,0,1,0,-2,-1,2
1480534275252902,-2,-1,-1,1,-1,0,-1,0
1480534275269446,-3,-6,0,1,-2,1,-1,-2
1480534275269446,8,7,1,0,-1,-2,1,0
1480534275270451,-2,-3,0,-3,-2,1,0,-1
1480534275270451,0,-1,-1,-1,1,0,0,0
1480534275298523,0,-1,-3,0,0,-2,0,0
1480534275298523,2,0,0,0,0,0,-3,0
1480534275299526,-7,-7,1,-2,-1,-1,1,-4
1480534275299526,-1,1,-2,0,-2,-1,2,1
1480534275304539,5,2,0,0,0,0,1,-1
1480534275304539,4,3,-3,-1,-1,0,2,1
1480534275313062,-10,-7,-1,-1,0,-1,-2,-2
1480534275313062,3,1,0,1,1,-2,-1,0
1480534275328101,-2,-4,0,-1,-2,-1,-1,0
1480534275328101,6,6,0,0,-2,-2,-1,-1
1480534275335623,0,3,-2,-2,-1,-1,0,-2
1480534275335623,-6,-7,0,-2,-1,0,-2,-1
1480534275350661,-3,-4,-2,0,-2,0,0,0
1480534275350661,5,7,0,-1,0,1,-1,-1
1480534275358181,1,4,-1,2,-1,0,1,0
1480534275358181,-4,-4,1,-1,-1,0,-2,-1
1480534275364699,0,3,0,-1,0,-1,0,-1
1480534275364699,-2,-4,1,-1,0,-1,-1,-1
1480534275372720,3,-3,0,0,1,0,-1,0
1480534275372720,3,2,-1,0,0,1,-1,0
1480534275396283,-3,1,0,1,0,-2,0,-2
1480534275396283,-3,-3,-1,-1,-1,-1,0,-1
1480534275397285,-1,-4,0,-1,-1,0,0,0
1480534275397285,-2,1,-4,0,1,-1,0,0
1480534275410320,3,0,0,-1,0,0,0,0
1480534275410320,1,1,0,-2,0,0,-1,0
1480534275411323,-4,-2,0,1,-1,-1,-1,0
1480534275411323,-1,-1,-1,-2,-1,-1,-2,-1
1480534275426363,1,0,-1,-2,-2,-2,-1,1
1480534275426363,4,2,1,1,0,-1,2,1
1480534275432881,-10,-7,-1,0,0,0,-1,-2
1480534275432881,-3,-5,-2,0,-2,0,0,-2
1480534275448422,-5,-1,1,0,-1,0,0,0
1480534275448422,2,2,1,0,-1,-1,-2,0
1480534275449424,6,3,-2,0,-1,0,0,0
1480534275449424,2,0,0,-2,0,-1,1,0
1480534275470741,-1,-1,-1,-2,-1,0,0,1
1480534275470741,-6,-5,-2,2,0,0,1,0
1480534275470982,1,0,0,-1,-1,0,0,-2
1480534275470982,-1,1,0,0,-2,-1,0,-1
1480534275484518,0,-4,0,-3,0,-1,-1,0
1480534275484518,-3,-2,0,-1,-3,0,-3,-1
1480534275493040,4,0,0,-1,-1,1,1,1
1480534275493040,4,0,1,0,0,-2,-1,0
1480534275508080,-5,1,1,0,-2,0,-1,-2
1480534275508080,-4,-4,-3,-2,1,-1,0,-2
1480534275508582,-1,0,1,0,-1,-1,-1,0
1480534275508582,4,3,-1,1,-1,0,-1,0
1480534275532144,-2,-9,-3,-1,-1,-1,-2,0
1480534275532144,-1,-3,-1,-1,-1,-1,-2,0
1480534275532646,0,2,-1,1,-1,0,0,-2
1480534275532646,0,-1,1,-1,0,0,-1,-1
1480534275544678,2,4,0,0,-2,-1,-1,-2
1480534275544678,-9,-7,-2,-1,0,0,1,-2
1480534275560219,5,1,0,-1,0,-1,-1,-1
1480534275560219,1,0,0,-1,-3,-1,0,-1
1480534275568240,-10,1,-2,-2,-1,0,0,-1
1480534275568240,3,3,-2,-1,-1,-1,-2,-1
1480534275575259,-2,-2,1,-1,-2,-2,-2,1
1480534275575259,10,8,-1,-1,0,-1,-2,1
1480534275590299,-13,-11,-2,0,2,0,-1,-2
1480534275590299,4,1,-1,0,-1,-2,-1,0
1480534275591302,-1,0,-1,-2,-2,0,-1,-1
1480534275591302,-1,-1,-1,-1,0,0,0,-2
1480534275613360,10,3,0,0,-1,1,-1,2
1480534275613360,0,8,1,-1,0,-1,-1,-1
1480534275614364,-3,-9,-1,0,-1,0,-2,-1
1480534275614364,-4,2,-1,-1,-1,-1,0,-1
1480534275628401,0,-4,0,-1,1,-2,0,0
1480534275628401,-1,-1,-2,0,-1,0,-1,1
1480534275636549,4,3,-2,-1,0,1,0,1
1480534275636549,-3,-1,-1,-2,-1,-1,1,0
1480534275650459,-4,-3,-1,0,0,0,-1,-1
1480534275650459,3,0,0,0,1,1,-1,-1
1480534275651462,-2,0,0,-1,-2,0,0,0
1480534275651462,-2,-2,-1,0,-1,-1,1,-1
1480534275673521,9,7,0,0,1,-1,-2,0
1480534275673521,1,-2,-1,-1,-2,0,0,0
1480534275674523,-8,-10,-1,0,0,-2,0,-2
1480534275674523,-7,-3,0,-1,1,-1,-2,-1
1480534275688560,0,-2,-1,0,-2,-1,-1,-1
1480534275688560,-1,-1,-1,-2,2,0,-1,-2
1480534275689563,0,3,0,1,1,-2,-1,0
1480534275689563,-1,-3,-1,-1,-2,-2,0,-1
1480534275710619,5,1,-3,0,0,-2,-1,-2
1480534275710619,-11,-3,-1,-1,0,0,-1,-1
1480534275711121,2,1,-2,-2,-1,-1,0,-2
1480534275711121,0,-2,-1,-1,0,1,-2,1
1480534275734183,-1,2,1,0,-2,0,-1,-1
1480534275734183,2,2,-2,0,-1,0,-1,1
1480534275734685,2,3,0,1,1,-1,0,0
1480534275734685,-4,-3,0,0,-2,-1,-1,-3
1480534275747718,9,2,0,1,0,1,2,1
1480534275747718,-2,-4,-1,1,-1,-1,0,-1
1480534275748722,-6,1,0,0,0,-1,-1,-2
1480534275748722,0,-6,-2,0,0,-2,-1,-1
1480534275771009,-4,-5,-1,-2,1,-2,1,1
1480534275771009,2,4,0,-1,-2,0,0,2
1480534275771280,-2,3,-1,-1,-2,-2,-1,1
1480534275771280,0,-2,0,-1,0,0,0,0
1480534275794342,-2,3,1,2,0,-1,0,-2
1480534275794342,9,-1,-2,0,0,0,0,-2
1480534275795345,-7,-1,1,-2,-2,-1,-2,0
1480534275795345,2,2,-1,1,0,1,0,0
1480534275807878,-5,-11,-1,-3,-1,-1,0,0
1480534275807878,1,2,0,0,1,-1,0,0
1480534275808880,5,0,-2,0,-2,0,2,0
1480534275808880,-2,4,0,-2,-1,-3,-1,-2
1480534275830939,-5,-7,1,-1,-1,2,1,-1
1480534275830939,-1,2,-1,-1,-1,1,-2,1
1480534275837958,6,-4,-1,1,0,0,-1,-1
1480534275837958,-13,-7,-3,0,-3,-1,-1,-1
1480534275852998,7,8,0,-1,-1,-2,-1,0
1480534275852998,-7,-1,0,0,0,-2,-3,-1
1480534275853499,3,-5,0,-1,1,-2,-1,-1
1480534275853499,10,1,0,0,1,-1,0,0
1480534275868039,-10,-3,-1,0,0,0,-1,-1
1480534275868039,-8,-9,0,0,-2,0,0,-1
1480534275869046,6,4,-1,-2,-1,0,1,0
1480534275869046,-4,-3,0,1,-1,-1,-1,-1
1480534275890598,-1,3,-1,1,-2,1,-1,1
1480534275890598,8,3,0,-1,-1,0,0,0
1480534275898118,-2,-3,-1,-2,-1,-2,0,-1
1480534275898118,-2,-7,0,-2,-2,-1,-1,0
1480534275913157,-1,5,1,0,-1,-2,-2,-1
1480534275913157,-1,-4,0,0,-1,-2,-1,-3
1480534275913659,1,2,-1,0,-1,1,-1,0
1480534275913659,-3,-6,-2,-1,-1,0,0,-2
1480534275927696,4,0,-5,1,-1,-3,0,-1
1480534275927696,5,2,0,-2,-1,-1,-1,-1
1480534275928699,-6,0,0,-3,-1,-1,-2,0
1480534275928699,2,6,0,0,0,1,-3,-1
1480534275950758,-3,-6,-3,-2,-1,-1,-3,-1
1480534275950758,-1,-1,-2,-2,1,-1,0,-2
1480534275951762,4,0,0,0,-1,0,0,0
1480534275951762,0,4,0,0,-1,1,-1,2
1480534275972819,-5,-7,1,-1,-1,-1,0,-1
1480534275972819,1,-2,-2,-1,-1,-1,-1,0
1480534275973820,-1,0,-1,-2,0,0,-2,-2
1480534275973820,3,6,-1,-1,-1,0,1,-1
1480534275995878,-3,1,0,-1,-1,0,-1,-1
1480534275995878,-10,-5,-1,-2,0,0,-2,-2
1480534275996880,-3,-4,-3,-1,-1,0,-1,-1
1480534275996880,3,2,1,0,0,-3,0,1
1480534276010416,8,1,0,1,0,-2,-1,0
1480534276010416,-9,-5,0,0,0,-1,0,-1
1480534276011420,6,4,0,0,1,-1,-2,0
1480534276011420,-4,-3,0,-1,0,-1,0,-2
1480534276040998,4,-2,-1,-2,0,-1,1,-2
1480534276040998,3,3,0,0,-1,0,-1,1
1480534276041499,-3,-1,-2,1,-3,-2,-2,-1
1480534276041499,-4,-7,-2,-2,-1,-2,-1,-1
1480534276050022,0,1,-1,1,1,-2,1,-1
1480534276050022,4,4,-1,1,0,-1,1,0
1480534276051025,1,-1,1,-2,1,1,0,0
1480534276051025,0,7,-2,-2,-1,1,0,-1
1480534276070576,-10,-7,-3,-3,-1,-1,-2,-3
1480534276070576,-1,-7,-1,-1,-1,-2,-1,0
1480534276071078,-1,1,-1,0,-1,-1,-1,0
1480534276071078,7,4,0,1,0,0,0,-1
1480534276093136,7,4,-3,-1,0,2,1,0
1480534276093136,-4,-5,-1,1,0,-2,-1,-2
1480534276093639,1,0,0,0,1,1,-1,-2
1480534276093639,-3,-2,0,-3,-1,0,-1,1
1480534276107675,1,4,1,-1,-2,-2,0,0
1480534276107675,0,-2,-2,0,-3,0,-1,1
1480534276108679,-4,-6,-3,-1,-2,-2,0,1
1480534276108679,0,-3,-2,0,-1,0,-2,-1
1480534276130235,-5,1,1,-1,-1,0,0,0
1480534276130235,4,7,0,0,-1,0,1,1
1480534276131237,-6,2,0,-1,0,-2,-1,-1
1480534276131237,-8,-2,-2,-1,-1,-1,-2,-1
1480534276152796,-1,-2,1,-1,-2,-3,-1,-1
1480534276152796,1,4,1,-1,-1,-1,0,-1
1480534276153801,5,0,1,-1,1,1,0,1
1480534276153801,5,-2,0,0,0,1,0,0
1480534276167836,-1,0,-1,-2,0,0,0,2
1480534276167836,0,-2,-1,-1,-3,-2,1,0
1480534276168839,0,-2,0,0,0,0,-1,-2
1480534276168839,4,2,0,-1,0,-1,-1,-2
1480534276190396,0,-2,-1,2,-1,1,-2,0
1480534276190396,-8,-7,-2,-1,0,0,0,0
1480534276191398,-3,-6,-1,0,-1,1,-1,-1
1480534276191398,2,2,-2,0,0,-1,0,0
1480534276212955,-7,0,0,0,0,0,-1,0
1480534276212955,1,3,0,0,0,0,0,-1
1480534276213457,-1,-1,0,-2,-1,0,0,0
1480534276213457,6,1,0,-1,0,-1,0,-1
1480534276227996,-7,-8,0,-3,-1,-1,1,-1
1480534276227996,2,3,0,-1,0,0,-1,-2
1480534276229500,-5,-9,-2,1,0,-1,-1,-1
1480534276229500,3,1,1,0,-1,2,-1,0
1480534276250555,4,2,-2,-2,0,0,0,-1
1480534276250555,3,2,0,0,0,-1,0,0
1480534276251057,3,5,-1,1,-2,0,-1,-1
1480534276251057,-1,-5,1,-1,-2,-1,-1,0
1480534276273115,-4,4,-1,0,1,-1,1,1
1480534276273115,-10,-16,-1,-2,0,-2,-1,-1
1480534276273617,7,8,2,-1,0,-2,-1,1
1480534276273617,-6,-5,0,-1,0,-1,0,-1
1480534276287153,1,6,0,0,0,2,0,0
1480534276287153,-9,-9,-3,-1,-2,1,0,-1
1480534276295675,-2,-2,-1,-1,1,-3,-1,-1
1480534276295675,0,1,1,0,1,-1,1,-1
1480534276310214,9,3,2,-2,-1,-1,0,0
1480534276310214,4,2,0,1,0,-1,-2,1
1480534276311216,-9,-6,-3,-2,-1,0,-2,-2
1480534276311216,0,1,0,0,0,0,0,1
1480534276332774,-3,-2,-1,1,0,0,0,0
1480534276332774,6,1,-2,-1,0,2,-1,0
1480534276333777,-2,-3,-1,-2,-2,0,-1,-3
1480534276333777,-8,-11,-3,-1,-1,-2,-2,-2
1480534276349821,-1,-5,-1,1,-2,1,-1,-1
1480534276349821,4,9,4,0,1,-1,1,2
1480534276355334,6,5,1,0,-1,0,1,1
1480534276355334,-10,-9,-3,0,-2,-1,1,-1
1480534276370878,4,2,1,-1,0,-1,-2,1
1480534276370878,1,3,-1,-2,0,0,-2,-2
1480534276371378,0,-6,-1,0,-1,-1,1,-2
1480534276371378,-3,5,-1,0,-1,1,2,0
1480534276402465,3,-5,0,-1,-2,-1,0,-1
1480534276402465,0,-3,-1,-1,0,-1,0,-1
1480534276408475,-3,4,-2,-1,-1,0,1,0
1480534276408475,10,9,1,0,0,-1,0,2
1480534276410481,-3,1,-1,1,2,1,1,-1
1480534276410481,3,-3,-2,-1,-1,-1,-2,1
1480534276415494,-7,-8,-3,1,-1,-1,-2,-1
1480534276415494,-2,-3,0,-1,1,0,0,1
1480534276430033,6,8,-1,-1,-2,-2,-2,-1
1480534276430033,-5,-2,3,0,-1,0,0,0
1480534276438054,3,-4,-1,0,1,-1,1,1
1480534276438054,-4,-1,1,1,-2,0,-1,-1
1480534276453098,7,3,-1,0,0,-1,0,-1
1480534276453098,-3,7,-3,-1,-1,-1,0,-1
1480534276453599,-5,-9,-2,-2,-1,-2,-2,0
1480534276453599,5,3,0,0,0,1,-1,-1
1480534276467132,-1,-1,2,1,0,0,0,-1
1480534276467132,-10,-5,-3,-3,0,-1,0,-2
1480534276482674,0,2,-1,1,0,-2,-1,0
1480534276482674,0,-1,-1,-2,-3,-1,-1,-1
1480534276490193,-3,-8,0,-2,-3,1,-2,0
1480534276490193,7,5,0,1,-2,-1,1,1
1480534276491195,0,-2,-1,0,-1,0,2,1
1480534276491195,-3,-1,-1,0,0,-2,0,-1
1480534276513254,-15,-9,-2,0,0,-1,-2,-3
1480534276513254,5,0,-1,0,1,0,1,0
1480534276514257,2,6,1,-2,0,-2,0,0
1480534276514257,6,-3,0,-1,0,0,0,1
1480534276527291,5,0,-2,1,2,-1,0,0
1480534276527291,-9,-5,-1,-1,1,0,-1,-2
1480534276535816,-1,-1,0,-1,0,0,0,-1
1480534276535816,-1,0,0,0,-1,0,-1,-2
1480534276550855,0,4,-2,-1,-1,-1,2,-1
1480534276550855,-4,-11,-1,-1,-1,1,-1,-1
1480534276557873,3,0,2,1,0,-1,1,0
1480534276557873,0,5,-1,-3,-1,-1,0,0
1480534276573474,6,0,0,0,-1,0,1,0
1480534276573474,-2,3,0,-2,0,0,-1,0
1480534276580934,-1,-8,-2,-1,0,-1,0,0
1480534276580934,2,0,0,1,-1,0,0,-2
1480534276603996,-15,-9,-2,-1,-1,-4,-1,-2
1480534276603996,6,2,0,0,-1,0,0,0
1480534276604998,4,5,0,1,-1,0,-1,1
1480534276604998,2,1,-1,-1,0,-2,0,0
1480534276610513,1,-4,1,-1,0,-1,-2,0
1480534276610513,-5,-4,1,-1,0,-1,-1,-2
1480534276611014,3,1,-1,-3,-2,1,-1,0
1480534276611014,-3,-2,-1,-2,-1,-1,-1,-1
1480534276633073,2,1,0,0,1,0,0,-1
1480534276633073,4,4,0,0,0,-2,0,1
1480534276633576,-6,-1,-2,-2,-3,-2,-2,-2
1480534276633576,-10,-14,-2,0,-2,-1,-2,-2
1480534276656134,3,-1,-4,-1,-1,-1,-1,0
1480534276656134,3,3,-1,-1,0,-1,0,0
1480534276657138,4,4,0,0,1,-1,0,-3
1480534276657138,1,-3,1,-3,0,-1,0,-1
1480534276670687,-1,3,0,0,-1,-1,-1,-2
1480534276670687,0,-4,-2,0,-3,-1,-1,-1
1480534276671675,-9,-3,1,-1,-2,1,-1,1
1480534276671675,1,-5,-2,0,1,-1,-1,1
1480534276692733,8,6,0,-1,0,1,-1,0
1480534276692733,-8,-11,-3,-1,-2,-1,-1,-1
1480534276693734,1,10,-1,0,0,-2,0,-2
1480534276693734,-3,0,-1,1,1,3,-1,1
1480534276715793,-4,-11,-3,-2,-2,0,1,0
1480534276715793,0,4,-2,-1,1,0,-1,0
1480534276716796,1,-2,0,-1,1,1,-1,-2
1480534276716796,-2,1,0,0,-1,-1,-1,-2
1480534276730331,-3,-4,-1,-1,-1,0,-1,-3
1480534276730331,0,1,-1,0,1,-1,0,0
1480534276731334,-2,-4,0,-1,0,-1,0,-1
1480534276731334,1,-3,0,0,0,-1,1,0
1480534276752892,15,2,-1,0,-1,-2,-1,0
1480534276752892,-10,3,-1,-2,-2,-1,-1,0
1480534276753894,-10,-14,-3,-1,-1,-1,0,-3
1480534276753894,-2,1,0,0,0,-3,0,-1
1480534276774951,-3,-2,-1,-2,1,-1,-1,0
1480534276774951,10,9,0,1,2,-2,0,0
1480534276782971,4,0,1,-1,-2,1,-1,-1
1480534276782971,-1,-1,-1,0,-2,0,0,1
1480534276789991,3,0,1,1,0,-1,-1,0
1480534276789991,-5,4,-1,-1,-2,1,-1,-1
1480534276798513,-4,-4,-2,0,-1,0,-2,-3
1480534276798513,-1,-2,0,-1,-1,-2,0,-1
1480534276813051,3,1,1,0,-2,0,1,1
1480534276813051,-4,7,1,0,0,-1,1,0
1480534276821072,-7,-13,-2,-3,1,-2,1,0
1480534276821072,-2,3,0,0,0,-1,0,-3
1480534276838119,-8,0,-3,-2,1,-1,-1,-1
1480534276838119,2,-6,-1,-1,-1,-1,0,0
1480534276838621,7,10,0,1,-1,-1,-1,1
1480534276838621,-1,-5,0,0,-1,0,-1,0
1480534276851153,1,1,-2,-2,-3,0,0,1
1480534276851153,2,-2,2,0,-1,-2,-1,0
1480534276852158,-1,-1,0,-1,-1,0,0,-1
1480534276852158,3,5,-2,0,0,-1,0,1
1480534276872710,-2,6,0,0,-2,0,-1,1
1480534276872710,-5,-15,-1,-2,0,1,1,2
1480534276873712,2,6,1,0,-1,0,1,1
1480534276873712,1,-1,-2,0,0,0,-3,0
1480534276896273,-3,-2,1,0,0,-2,0,-2
1480534276896273,4,4,-1,1,0,1,-1,1
1480534276896775,0,1,-1,0,0,-2,0,-1
1480534276896775,6,0,-2,-1,0,0,-1,-1
1480534276910310,-17,-14,0,-3,-1,0,-3,-2
1480534276910310,7,7,0,-1,-1,-1,-2,-1
1480534276911313,2,2,0,-1,-1,1,0,1
1480534276911313,-1,0,-3,-1,-1,-2,0,-1
1480534276932871,-10,-10,0,0,1,-2,-1,-3
1480534276932871,-2,-2,0,-2,-1,2,-1,-1
1480534276933874,5,1,0,1,-1,-1,-1,1
1480534276933874,2,5,1,-1,0,1,0,1
1480534276956432,1,-2,-2,-1,-1,1,-1,0
1480534276956432,-1,2,-1,-1,0,-2,-1,0
1480534276957436,-4,-8,-1,-1,0,-2,-3,-1
1480534276957436,-2,1,0,0,-1,-1,1,0
1480534276970470,1,1,-1,-1,-1,-2,0,0
1480534276970470,2,-2,-3,0,-1,1,2,-1
1480534276971196,0,1,-1,-2,0,0,-1,1
1480534276971196,-4,-6,-1,-2,-2,0,-1,-2
1480534277001056,3,1,1,-1,-1,-1,0,0
1480534277001056,-1,0,0,0,0,-1,-1,0
1480534277002055,-3,2,-1,-2,1,0,0,-1
1480534277002055,-3,-4,-2,1,1,1,0,-2
1480534277016092,4,3,-1,0,-1,0,0,-1
1480534277016092,0,-2,0,0,-3,-1,0,0
1480534277017094,1,-2,0,-2,-1,-1,0,0
1480534277017094,-1,-5,0,-1,-1,-1,-1,-2
1480534277030631,-1,-4,-1,-1,0,-1,-1,-1
1480534277030631,-5,-4,0,-1,0,-3,1,1
1480534277032135,8,6,-1,-1,0,1,-1,1
1480534277032135,-12,-5,0,0,-2,1,0,0
1480534277060209,0,-3,-1,-1,-1,-1,0,0
1480534277060209,3,-1,-1,0,-4,-1,-1,-1
1480534277067730,-2,1,-1,0,-1,-1,1,-1
1480534277067730,-2,6,1,0,-2,-1,-1,0
1480534277076252,-2,2,-1,1,0,0,-1,0
1480534277076252,0,-5,1,0,0,0,-1,0
1480534277076753,-4,3,-1,0,-1,-1,0,0
1480534277076753,-1,7,-1,0,1,0,0,-1
1480534277090790,3,-1,0,1,-3,-1,1,0
1480534277090790,-6,-5,-2,0,0,-1,-1,0
1480534277099817,-6,-8,-4,-1,0,-1,-2,-2
1480534277099817,12,2,0,0,-1,-1,-2,1
1480534277114353,-11,0,-1,0,3,-1,1,-1
1480534277114353,7,2,-1,-1,-1,0,-3,-1
1480534277115356,4,6,0,2,1,-1,-2,0
1480534277115356,-8,-8,-3,-3,-1,0,-1,-2
1480534277135412,6,2,-1,-1,0,0,-1,2
1480534277135412,-4,-1,0,-1,-2,0,0,0
1480534277142929,-2,-5,-1,1,-3,0,1,-1
1480534277142929,7,6,2,-1,0,-1,0,0
1480534277158470,-6,-11,-1,0,-1,-1,0,-1
1480534277158470,7,3,0,-3,0,-3,-1,-1
1480534277159473,-7,0,1,-1,-1,-1,1,0
1480534277159473,0,-4,-2,1,-1,0,-1,1
1480534277181533,3,3,-1,1,-1,1,-1,1
1480534277181533,5,4,0,1,1,-1,-1,0
1480534277182535,8,3,0,-2,-1,-1,1,1
1480534277182535,-12,1,-1,-1,1,-1,0,-3
1480534277196070,-12,-18,-5,-2,1,-2,-2,-4
1480534277196070,-2,0,-2,-2,-2,-1,-1,1
1480534277198077,4,3,-1,0,-2,0,0,-1
1480534277198077,6,3,1,0,1,0,-1,2
1480534277212113,13,15,3,-1,0,-1,0,1
1480534277212113,-20,-18,-5,-1,-2,0,-1,-1
1480534277218129,2,-3,-2,-1,0,0,-1,-1
1480534277218129,-7,-7,-2,-1,-1,-2,-1,-3
1480534277232667,2,4,-2,0,1,0,1,-1
1480534277232667,9,5,-1,-1,0,0,1,0
1480534277233670,-7,-2,0,0,1,0,0,-1
1480534277233670,-2,-9,-3,0,-3,-2,1,0
1480534277256230,3,13,0,1,-2,-2,-1,-2
1480534277256230,-6,-6,0,-1,1,2,-1,-2
1480534277256732,0,0,0,0,0,-1,-1,-1
1480534277256732,9,6,-1,-1,0,2,0,-1
1480534277269767,-6,-4,1,-1,-1,0,1,2
1480534277269767,-1,1,-2,0,0,0,0,-2
1480534277278790,-12,-15,-2,0,-2,-2,-1,-1
1480534277278790,-7,-2,-1,-1,0,-1,0,0
1480534277292828,1,-8,-2,-1,0,1,1,0
1480534277292828,1,3,0,1,0,0,0,-1
1480534277293831,4,-1,-1,0,1,-1,-1,0
1480534277293831,-7,-1,0,0,-2,0,-1,0
1480534277315388,-1,-4,-1,-2,1,1,-2,-3
1480534277315388,0,-3,2,-1,0,-2,0,-2
1480534277316391,4,8,-1,-1,-1,0,0,1
1480534277316391,2,-5,-2,-1,-1,0,-1,1
1480534277338449,3,8,1,-1,-2,-1,-2,-1
1480534277338449,2,1,1,0,2,-1,-1,0
1480534277339452,-9,-7,1,0,-1,-1,-1,-1
1480534277339452,3,2,1,1,-1,-3,-1,-2
1480534277352992,-1,0,-2,0,-2,-2,1,0
1480534277352992,5,-4,1,-1,-1,-1,0,0
1480534277353489,2,1,1,0,-1,-1,-1,-1
1480534277353489,0,-1,-1,-1,1,0,1,-2
1480534277375548,0,2,0,0,1,-1,-1,1
1480534277375548,1,5,-1,1,-2,-2,1,0
1480534277376049,0,-1,-3,-2,0,0,0,-1
1480534277376049,-4,-2,1,0,-2,-1,-1,0
1480534277389585,0,-5,-1,1,0,-2,0,-1
1480534277389585,-2,3,0,-1,-1,0,0,-1
1480534277398107,-1,1,0,-1,0,0,0,-1
1480534277398107,3,-2,-1,-1,1,0,-1,1
1480534277412646,2,-1,1,-2,0,1,-2,0
1480534277412646,0,-2,-1,-1,-1,0,0,2
1480534277413649,-9,-9,-2,-1,-1,0,-3,-1
1480534277413649,3,6,0,-1,0,0,0,-1
1480534277435712,0,-5,-1,0,-1,0,-2,-3
1480534277435712,-4,-2,-1,1,-2,1,0,-1
1480534277436211,9,6,0,0,0,0,-2,2
1480534277436211,0,0,0,0,0,0,1,0
1480534277458268,3,-1,0,1,-1,-1,0,0
1480534277458268,-7,-4,-1,0,0,0,-2,-1
1480534277465287,-1,-3,-1,-1,-1,-1,-1,-2
1480534277465287,-3,-4,-1,0,0,-1,-2,0
1480534277474310,-3,-3,0,0,-2,-2,-1,-2
1480534277474310,5,3,-1,0,-1,0,-1,2
1480534277475313,-4,-1,-2,1,-1,-1,0,0
1480534277475313,3,-1,1,0,-1,-3,-2,0
1480534277495367,6,9,1,1,0,2,0,2
1480534277495367,-9,-10,0,0,-2,-2,0,-2
1480534277496870,-1,0,-1,-2,1,0,-1,-1
1480534277496870,-7,0,-1,-1,0,1,-1,-2
1480534277518931,-3,1,0,-2,-1,1,3,1
1480534277518931,3,8,-1,0,-1,-1,-1,1
1480534277519932,10,5,1,0,0,0,-1,-1
1480534277519932,-3,1,-2,-1,-1,-2,1,0
1480534277532966,-9,-13,-3,-2,-1,-2,-2,-1
1480534277532966,1,3,0,-1,1,-1,0,0
1480534277534473,0,-5,-2,1,-1,-1,-1,-2
1480534277534473,5,3,1,-1,-2,-1,1,1
1480534277555528,-1,-4,0,0,-1,-1,1,0
1480534277555528,2,0,-1,-2,-1,-1,-1,-1
1480534277556028,-5,-2,0,-2,-1,-1,-1,-1
1480534277556028,2,-6,0,0,1,0,0,0
1480534277577585,5,7,1,-1,0,0,0,-1
1480534277577585,-16,-10,-3,-2,-2,-1,-2,-1
1480534277586110,-2,4,-1,-1,-1,0,0,0
1480534277586110,-1,-4,-1,-1,-2,0,-1,-2
1480534277594631,-6,-2,0,-1,0,0,0,-1
1480534277594631,8,4,-1,1,0,1,0,2
1480534277595132,-3,-8,-2,-2,-1,0,0,1
1480534277595132,2,4,0,-1,-1,-1,0,-1
1480534277618697,-3,-4,0,-1,0,0,1,-1
1480534277618697,1,-5,1,-1,0,-1,-1,-2
1480534277620198,1,4,0,0,-1,-1,0,-1
1480534277620198,-6,-11,-3,-1,-1,-1,-2,0
1480534277646268,2,-3,-3,0,0,1,1,0
1480534277646268,0,4,1,-1,0,-1,-1,-2
1480534277647272,8,-1,1,0,0,-2,0,1
1480534277647272,-3,0,-1,0,-2,0,-1,-1
1480534277661308,5,11,1,0,-2,-1,1,0
1480534277661308,-5,-13,-1,-1,-1,-2,0,0
1480534277661810,-10,-3,-1,1,0,0,0,-1
1480534277661810,2,3,-1,1,1,-2,-2,-2
1480534277675345,-2,-4,-2,-1,0,-2,-1,1
1480534277675345,11,9,1,0,-1,1,1,0
1480534277676349,-6,-2,-1,0,-1,-1,0,0
1480534277676349,4,0,0,-1,0,1,1,0
1480534277697905,-5,-9,-2,0,-1,0,-1,-2
1480534277697905,2,5,-1,0,-1,0,0,-1
1480534277705426,-1,7,0,-1,-1,-1,-1,-1
1480534277705426,1,-4,-1,0,0,0,-1,0
1480534277712945,-7,-3,0,-1,-1,-2,-3,-1
1480534277712945,6,5,0,2,0,-1,1,1
1480534277713948,-7,-9,-2,-1,-1,0,0,-4
1480534277713948,4,1,0,0,-1,-2,-2,-1
1480534277736509,-1,6,0,0,1,0,-1,-1
1480534277736509,-4,-6,-3,-1,-2,-1,-1,-4
1480534277743026,1,2,1,0,-1,-1,1,2
1480534277743026,-1,-6,-1,-1,-1,-2,0,0
1480534277758566,5,6,1,0,0,-1,-1,1
1480534277758566,-6,-8,0,-1,-1,-2,-3,0
1480534277759569,5,1,0,-1,0,-1,-1,0
1480534277759569,-1,0,-1,-1,0,1,0,-1
1480534277773105,3,-4,-3,-2,0,1,0,1
1480534277773105,-13,-7,1,-1,-1,1,-2,-2
1480534277780626,3,0,-1,1,0,0,-1,0
1480534277780626,1,2,0,-1,0,1,-2,0
1480534277795164,6,8,1,0,0,-2,-2,-2
1480534277795164,-12,-9,-4,-3,-1,-3,-2,-2
1480534277796167,-4,-5,-3,-2,0,-1,-1,-1
1480534277796167,0,2,0,0,-2,0,0,0
1480534277818729,3,-4,-1,0,-1,0,0,0
1480534277818729,8,11,2,0,0,0,0,0
1480534277819231,-3,-3,-1,0,0,-1,-1,-1
1480534277819231,-1,-7,-3,-1,-2,-1,-2,0
1480534277833767,-2,-3,0,-1,1,2,0,-1
1480534277833767,-3,1,0,1,0,-3,-1,-1
1480534277834770,4,1,2,-1,-1,-1,1,-1
1480534277834770,-2,0,-1,-1,1,-1,0,-1
1480534277855826,-4,1,-2,-2,0,0,0,-1
1480534277855826,4,-3,-1,-1,0,1,1,0
1480534277856828,1,2,-1,2,0,-1,-3,0
1480534277856828,-1,1,0,-1,0,0,0,1
1480534277878385,-2,0,-1,1,0,-1,0,-1
1480534277878385,-8,-2,-2,0,-2,0,2,-1
1480534277879391,1,0,0,0,-2,-1,0,-1
1480534277879391,8,7,0,0,-2,-2,-1,0
1480534277893425,-11,-6,0,-2,-2,-3,-1,-1
1480534277893425,6,2,-1,-1,-1,-2,0,2
1480534277900445,-1,-1,-1,0,0,0,-1,-1
1480534277900445,-1,2,0,-1,2,0,0,0
1480534277915484,5,7,1,0,1,0,0,1
1480534277915484,1,-5,-2,-1,0,0,-1,-1
1480534277915985,-4,-6,-2,-1,-2,-2,0,-1
1480534277915985,0,0,0,-1,1,-1,0,1
1480534277937543,-10,-4,0,-3,0,0,-1,-2
1480534277937543,7,9,1,0,-2,-1,0,0
1480534277945564,-2,-6,-1,-2,0,0,-1,-1
1480534277945564,-6,-2,-2,1,0,0,-1,-2
1480534277953086,5,7,0,1,-1,0,-1,-1
1480534277953086,-11,-15,-3,-3,-1,0,-1,-1
1480534277953586,2,6,0,0,-1,0,0,1
1480534277953586,2,-1,1,-1,-2,0,0,1
1480534277985172,2,0,1,2,1,1,-1,0
1480534277985172,-1,0,-1,-1,0,0,-1,-3
1480534277986175,3,2,0,1,0,-1,1,0
1480534277986175,-2,0,-2,-1,-1,1,1,-2
1480534277998706,-3,-16,-2,-2,-1,-1,-1,0
1480534277998706,12,7,3,0,0,-1,-1,2
1480534277999208,-12,-1,0,-1,0,1,-1,-2
1480534277999208,2,-2,-1,-1,0,-1,0,-1
1480534278012743,4,7,-1,-1,-3,-2,0,-2
1480534278012743,-7,-9,-2,-1,0,1,1,-2
1480534278020262,3,-3,0,-1,0,-1,0,1
1480534278020262,-2,5,0,-1,-1,0,-2,-1
1480534278035303,-4,-3,-3,0,0,-1,-2,-1
1480534278035303,3,2,1,0,0,0,0,1
1480534278036308,6,1,-1,-1,-1,0,1,1
1480534278036308,-5,-5,-1,-1,-1,-1,0,-1
1480534278058364,0,0,0,1,0,-2,1,-1
1480534278058364,4,4,-1,0,-1,0,0,0
1480534278059367,-7,-9,-2,0,-1,0,-2,-1
1480534278059367,0,1,0,0,0,1,0,1
1480534278072902,-3,-2,-1,-2,1,-1,0,3
1480534278072902,4,1,-2,-1,0,-2,2,-1
1480534278074908,8,2,1,-1,-1,-2,1,0
1480534278074908,0,2,-1,-1,-1,-1,0,19
1480534278103484,-3,-2,0,-1,0,-1,-5,-18
1480534278103484,-7,-3,0,0,0,-1,-1,-2
1480534278104487,3,3,0,-1,-1,-1,-1,-3
1480534278104487,0,-5,0,-1,-3,0,0,1
1480534278118539,5,4,1,-1,0,0,1,5
1480534278118539,6,9,0,-1,0,-1,0,0
1480534278119527,-16,-9,-2,-1,0,0,0,-1
1480534278119527,-6,-11,-1,0,-1,0,-1,-5
1480534278133063,-14,-9,-1,-1,-1,-1,0,0
1480534278133063,4,1,-1,-1,-1,0,-1,-3
1480534278133565,10,9,2,0,0,0,1,5
1480534278133565,2,10,-1,0,0,0,0,-4
1480534278155623,-7,-16,-2,-2,-1,-1,0,-3
1480534278155623,-1,0,0,0,-1,-2,-1,2
1480534278156124,-5,-3,0,-1,-2,1,-1,-2
1480534278156124,-4,-1,-3,0,0,-3,-1,-4
1480534278177681,13,7,1,0,0,1,-1,3
1480534278177681,-15,-8,-1,0,0,-1,0,1
1480534278185707,8,9,0,0,-1,-2,0,-1
1480534278185707,-11,-5,-1,0,-1,-1,-1,-5
1480534278200242,-2,-5,-2,-1,-1,-2,0,0
1480534278200242,4,4,0,-1,-2,1,-1,-1
1480534278208263,3,5,0,-3,0,0,-1,-2
1480534278208263,6,3,1,-2,0,-3,-1,-2
1480534278217287,-4,-1,0,-1,0,3,0,3
1480534278217287,-3,-6,-2,0,-1,-1,-1,-2
1480534278218293,3,1,-1,0,-1,0,-1,-1
1480534278218293,0,-4,0,0,-3,-1,-1,-1
1480534278238343,3,4,1,1,-2,0,1,2
1480534278238343,-5,-8,0,-1,-1,-1,-1,-2
1480534278239345,1,2,-1,-2,0,1,-1,1
1480534278239345,6,4,0,0,1,-1,-1,-1
1480534278260903,-11,-6,-2,-1,0,-2,-2,-2
1480534278260903,-5,-9,-1,-3,-2,-1,1,0
1480534278261404,-6,-1,0,0,0,-1,0,-1
1480534278261404,5,6,1,-2,-2,0,1,0
1480534278275441,3,5,1,-1,0,-2,0,0
1480534278275441,7,2,0,1,0,0,-1,-1
1480534278275943,1,-4,-1,-2,-2,0,0,-1
1480534278275943,-8,-15,-3,-3,-1,1,-1,-4
1480534278297500,2,4,0,-1,-1,0,0,1
1480534278297500,2,-1,-2,-1,-2,0,0,1
1480534278305522,0,-2,0,1,2,-1,-1,0
1480534278305522,-9,-2,0,-1,0,1,-1,-2
1480534278312540,-1,2,-4,-1,-1,0,-2,-1
1480534278312540,-6,-6,-1,0,-1,0,0,2
1480534278320562,3,5,0,-2,-1,-3,0,1
1480534278320562,7,-3,0,0,0,0,0,0
1480534278344124,-5,-7,-1,1,0,-1,-2,0
1480534278344124,4,5,-1,0,0,-1,-1,-2
1480534278344625,-3,-4,-2,1,-1,0,-2,0
1480534278344625,-1,2,2,-1,-1,-1,0,-1
1480534278358663,7,6,0,0,-1,0,0,0
1480534278358663,1,3,0,-2,-1,0,1,-1
1480534278359168,-2,-7,-2,-2,-1,-2,-1,-3
1480534278359168,1,2,0,-3,2,0,-2,-1
1480534278372700,-4,-4,0,0,0,0,-1,-1
1480534278372700,1,7,-2,-1,-1,0,0,-2
1480534278380220,-11,-15,-5,0,-3,-2,-1,-3
1480534278380220,-2,2,0,0,-2,0,-3,-1
1480534278395260,5,-5,0,-2,-2,-1,0,0
1480534278395260,5,5,3,-1,1,1,-1,2
1480534278397266,0,1,-1,-1,-2,-1,-1,-1
1480534278397266,-3,-2,-2,-1,-2,1,-1,-3
1480534278418824,1,-5,0,0,-1,-1,0,0
1480534278418824,-5,0,0,-1,1,-2,-1,0
1480534278419324,6,1,-1,-2,-1,0,1,-1
1480534278419324,-10,-1,0,1,-1,0,1,0
1480534278432358,-7,-2,-1,-2,-1,0,-1,-2
1480534278432358,0,3,0,-1,-1,-1,0,-1
1480534278447900,-9,-11,-1,-1,-1,2,0,-1
1480534278447900,5,-1,1,1,-2,-2,0,1
1480534278455420,8,11,-1,0,0,2,1,0
1480534278455420,-1,-4,0,-1,-1,1,1,-1
1480534278462940,-5,0,0,-1,1,0,-1,1
1480534278462940,4,0,-2,-1,-1,-1,0,-1
1480534278486160,2,-1,-1,0,-1,0,0,1
1480534278486160,2,0,0,0,-1,1,-1,1
1480534278486662,0,4,0,-1,0,0,-1,0
1480534278486662,-2,-2,-2,0,0,-1,0,1
1480534278492177,9,1,1,0,-1,-1,0,0
1480534278492177,-3,8,-1,-1,-1,2,0,-1
1480534278500198,-4,-10,-1,-1,-2,0,-1,-2
1480534278500198,-4,-4,-1,2,1,1,0,0
1480534278515238,0,2,0,0,-1,0,-1,-2
1480534278515238,14,3,2,1,-1,-2,0,1
1480534278516240,-15,-5,-3,0,0,-1,-1,-1
1480534278516240,7,5,-1,-1,-1,-1,0,-1
1480534278538299,1,4,1,-2,2,-1,1,1
1480534278538299,-8,-10,-2,0,-2,0,-4,-3
1480534278539302,5,4,3,1,0,-2,1,-1
1480534278539302,2,2,-1,-1,0,-1,0,-1
1480534278560859,1,-5,0,-1,-2,-2,-1,1
1480534278560859,2,2,-1,1,1,-2,-2,0
1480534278561862,5,6,1,1,-1,-2,-2,0
1480534278561862,-10,-12,-1,0,-1,-1,-2,-1
1480534278575899,6,5,-1,0,-2,0,-1,0
1480534278575899,-2,-8,-2,0,1,-1,2,-1
1480534278576902,-4,-6,-2,-1,-1,-1,-2,-1
1480534278576902,-2,4,1,-3,0,1,1,0
1480534278598460,-8,-1,-1,-1,-2,-1,-1,-1
1480534278598460,-2,-11,-1,0,-1,-3,-2,-1
1480534278599463,6,9,0,0,0,1,-1,1
1480534278599463,1,-6,1,-1,1,-2,-1,0
1480534278621019,2,0,-1,0,2,0,-2,0
1480534278621019,-5,5,-1,-2,0,0,1,1
1480534278622023,3,1,-1,-1,-1,0,-1,-2
1480534278622023,-1,-6,-2,0,-1,1,-2,2
1480534278635561,9,2,-1,0,-1,0,-2,0
1480534278635561,-9,-2,-1,-1,0,0,0,0
1480534278636061,1,-6,-1,-2,-2,-1,-1,-1
1480534278636061,-3,0,-1,-1,-1,-1,-2,-1
1480534278666139,-7,-4,-1,0,0,-1,1,0
1480534278666139,5,5,-1,0,-1,1,0,0
1480534278667142,1,0,0,-2,-1,1,0,-2
1480534278667142,5,1,-1,0,-3,0,0,0
1480534278681179,2,6,0,0,1,-1,-2,-1
1480534278681179,-9,-19,-1,-1,-1,0,-2,-2
1480534278681681,3,6,1,0,0,-3,1,0
1480534278681681,-7,-2,0,-1,-1,-2,0,-1
1480534278695216,-8,-6,-2,-1,-3,-2,-3,-1
1480534278695216,7,11,2,0,-2,-2,0,-1
1480534278702736,-7,-14,-2,-1,-1,0,-1,-1
1480534278702736,4,1,-1,-1,1,1,0,-1
1480534278718285,3,5,2,1,1,0,0,0
1480534278718285,-7,-1,-1,-1,1,0,-1,-2
1480534278719281,1,-4,-2,0,-1,0,1,-1
1480534278719281,-1,-3,0,-1,-1,-2,-1,-1
1480534278740838,-1,-5,-1,-1,0,0,-1,-2
1480534278740838,7,14,-1,0,-1,-2,0,-2
1480534278741841,-3,-7,-1,0,-1,0,-1,-2
1480534278741841,2,0,0,-2,0,0,1,-1
1480534278755377,-2,-3,-1,0,-2,0,1,0
1480534278755377,7,-3,0,-1,-1,0,0,1
1480534278756380,-7,0,1,1,-2,0,-2,-2
1480534278756380,-5,-3,-1,-1,-1,-2,-3,-2
1480534278778438,-2,-3,0,-2,-1,-1,-1,-1
1480534278778438,5,0,1,0,1,-1,0,0
1480534278779440,10,10,-1,0,0,0,1,1
1480534278779440,-5,-2,-2,-1,-2,-2,-1,0
1480534278801504,-5,-4,1,-1,0,-1,0,-1
1480534278801504,0,0,0,-2,-1,0,-2,0
1480534278802504,-2,2,0,0,0,0,-1,-1
1480534278802504,-4,-6,-3,-1,-2,2,2,-2
1480534278825064,-3,-1,-1,-1,-1,-2,0,-2
1480534278825064,-3,-3,0,0,0,0,-1,1
1480534278826065,4,4,0,-3,0,0,1,0
1480534278826065,4,8,-1,0,-2,0,0,0
1480534278838097,-10,-3,-2,-1,-1,-2,0,-1
1480534278838097,-6,-10,-3,-1,-1,-2,-2,-1
1480534278838598,5,4,0,1,0,0,0,0
1480534278838598,8,12,0,0,-1,0,0,1
1480534278861158,-8,-15,-3,-1,-1,0,-1,-1
1480534278861158,-5,-8,-1,-2,-1,0,0,0
1480534278862161,-3,5,-3,0,0,-1,0,-1
1480534278862161,4,0,1,-1,0,-1,0,0
1480534278875195,4,4,1,-3,-1,-2,-2,0
1480534278875195,2,2,0,-1,-2,1,1,1
1480534278876199,-2,-2,1,-1,0,-2,-1,-2
1480534278876199,7,1,0,0,0,0,-1,-1
1480534278897755,-5,1,-3,0,1,0,2,-1
1480534278897755,-9,-10,-3,0,-1,-2,0,-2
1480534278898760,1,4,1,-1,-2,-1,-2,-1
1480534278898760,0,1,1,-1,-1,-1,-1,-1
1480534278920817,6,1,-1,0,0,1,0,1
1480534278920817,-9,1,1,-1,0,0,0,-1
1480534278921820,-1,-1,0,1,2,-1,0,0
1480534278921820,-1,-3,-1,0,0,-1,-1,-1
1480534278935357,11,9,0,-2,-1,-1,0,1
1480534278935357,-5,4,0,-2,-1,-1,-1,-2
1480534278936362,-7,-17,-4,0,-2,-1,-2,-4
1480534278936362,-4,2,-1,1,1,-1,-2,-1
1480534278957915,-3,-7,0,0,-1,-2,-1,-1
1480534278957915,8,7,-2,-1,-1,-1,1,-1
1480534278958918,0,3,0,0,0,2,0,1
1480534278958918,4,0,1,0,0,0,2,2
1480534278981980,-4,-1,0,-1,0,1,-1,-3
1480534278981980,9,7,0,2,-1,-1,-1,0
1480534278982481,-13,-10,-3,-1,-1,-1,1,0
1480534278982481,-4,-6,-2,-2,-1,-1,-1,-2
1480534279003537,0,5,0,-1,0,1,0,0
1480534279003537,1,-1,1,1,0,-1,0,0
1480534279005041,8,8,1,-1,-2,1,0,0
1480534279005041,0,-3,-2,0,-3,1,0,-1
1480534279018078,-3,-2,0,-1,0,-1,1,0
1480534279018078,3,5,-3,-3,1,0,-2,-1
1480534279018581,3,-1,1,-3,1,-2,0,0
1480534279018581,-4,-4,-1,-1,-1,-1,0,-2
1480534279041137,-3,-2,0,1,-2,-1,-1,-2
1480534279041137,0,-7,1,1,-2,1,0,1
1480534279041638,1,6,-1,-2,-2,-1,-1,2
1480534279041638,3,4,0,-2,0,0,1,-1
1480534279055174,-15,-23,-4,-2,-2,0,-1,-2
1480534279055174,-3,2,0,1,0,-2,-1,-2
1480534279056177,6,3,0,0,-1,1,0,1
1480534279056177,9,10,1,0,1,1,-1,0
1480534279077734,-5,-5,0,-2,0,0,0,-1
1480534279077734,-7,-3,-1,0,1,0,0,-1
1480534279078738,-3,-4,0,0,0,-1,0,-1
1480534279078738,-2,-1,-1,0,1,-2,0,0
1480534279101298,6,5,-1,-3,-2,-1,0,0
1480534279101298,0,-8,-2,-1,-1,0,-2,-2
1480534279101798,1,6,0,-1,0,-1,-1,-1
1480534279101798,-4,-6,-1,0,0,0,0,-2
1480534279115335,4,5,0,-1,0,-1,0,-1
1480534279115335,-8,-4,-1,-2,0,1,-1,0
1480534279116342,0,-1,2,-1,-2,0,-2,0
1480534279116342,-1,3,0,1,-1,-2,-1,1
1480534279137896,-3,0,-1,0,-2,-1,-3,0
1480534279137896,3,1,1,-2,-2,-2,-1,-1
1480534279138899,11,2,-2,-1,-1,1,0,1
1480534279138899,-15,-7,-2,-1,-1,-1,2,-2
1480534279160957,-3,-8,-2,0,-1,0,-1,-1
1480534279160957,-1,-2,0,-1,-1,-2,0,1
1480534279161958,-1,-1,1,0,0,-1,-1,1
1480534279161958,9,8,2,-1,-2,-1,-1,-1
1480534279174997,-4,-9,-2,1,-1,1,-2,-1
1480534279174997,4,1,-1,0,-1,1,1,2
1480534279183516,3,9,-1,0,0,-1,0,-1
1480534279183516,-17,-19,-3,-3,-1,-1,-3,-3
1480534279198054,4,9,3,0,1,0,-1,0
1480534279198054,3,-1,1,1,0,-1,-1,-1
1480534279198556,-1,0,1,-1,-2,-1,1,-1
1480534279198556,3,5,-1,0,-1,0,0,1
1480534279222621,-3,0,-1,-1,0,-1,-2,-1
1480534279222621,9,4,1,-1,0,0,0,1
1480534279223623,-18,-8,0,-3,-1,0,0,-2
1480534279223623,-1,2,-1,-2,0,-2,-1,0
1480534279234652,-3,-8,0,0,-1,0,0,-1
1480534279234652,3,-2,-4,-1,0,0,1,-2
1480534279242673,0,0,-3,0,0,0,0,-1
1480534279242673,2,-1,-1,1,-1,0,1,-1
1480534279257713,5,9,0,-1,1,1,-2,0
1480534279257713,-1,1,0,0,-1,0,-1,-1
1480534279258716,1,-9,-1,-1,-1,-1,0,-1
1480534279258716,5,10,-2,0,-1,1,-1,2
1480534279281777,-12,-22,-2,-2,-2,-3,-1,-2
1480534279281777,-7,-1,-1,0,-1,-2,0,-2
1480534279282278,-1,-6,-3,-1,0,0,0,0
1480534279282278,5,2,0,-1,0,2,0,0
1480534279294812,6,11,1,-1,0,-1,0,2
1480534279294812,-2,-1,-1,-1,-1,-2,2,-1
1480534279302833,3,3,-1,2,-1,-2,-1,0
1480534279302833,-14,-12,-1,-2,-1,-2,-2,-1
1480534279317873,7,6,-1,1,-1,-3,0,0
1480534279317873,-2,-2,0,-1,-2,0,-1,1
1480534279318876,-4,-3,-4,-1,-1,-2,-2,-2
1480534279318876,-6,-14,-1,-1,0,0,-2,-4
1480534279341937,1,2,0,-1,-2,0,1,1
1480534279341937,6,3,2,1,0,0,-1,0
1480534279343441,-8,-5,1,-1,-1,-1,0,-1
1480534279343441,5,2,0,0,0,0,0,3
1480534279354974,1,1,-1,-1,-1,0,0,1
1480534279354974,-4,-4,-3,-1,0,-1,-1,-1
1480534279371016,4,1,1,-2,-2,1,0,-1
1480534279371016,-9,-3,-1,-1,0,-1,0,-1
1480534279378033,3,3,0,0,-1,-1,-1,0
1480534279378033,1,3,0,-1,0,0,0,-1
1480534279378535,3,3,0,0,0,0,0,-1
1480534279378535,-2,-5,-2,-2,-2,0,-1,-1
1480534279401096,0,-1,0,0,0,0,0,-2
1480534279401096,-9,-7,-2,0,0,1,-1,-2
1480534279402099,0,-1,0,1,-1,-1,-1,0
1480534279402099,8,2,-1,-1,-1,-1,0,0
1480534279414630,5,6,1,1,0,-1,0,0
1480534279414630,3,5,0,0,-1,0,-1,-2
1480534279423156,-6,-13,0,0,0,-2,-1,0
1480534279423156,-6,-1,1,-2,0,-1,-1,-2
1480534279446214,0,2,0,-1,-2,0,1,0
1480534279446214,4,5,0,0,0,-2,0,1
1480534279446716,-2,-9,-2,-2,1,-1,-3,-2
1480534279446716,1,6,1,-1,-1,0,0,0
1480534279461756,6,-2,-3,0,1,-1,-1,1
1480534279461756,-4,1,0,-1,-1,-2,0,1
1480534279462257,-4,3,-1,0,-2,0,-1,0
1480534279462257,1,-4,0,0,-2,-2,-2,0
1480534279483814,4,2,-1,-2,0,0,1,-2
1480534279483814,7,6,0,-1,1,-1,-2,1
1480534279484316,-17,-8,-2,0,0,-2,0,-3
1480534279484316,2,4,-1,0,0,0,0,0
1480534279498353,-5,-6,-1,-2,1,0,0,0
1480534279498353,-3,-7,-1,-1,1,-3,1,-1
1480534279499356,7,6,0,0,0,1,2,1
1480534279499356,13,4,2,2,0,-1,0,0
1480534279520915,-16,-6,-3,0,0,1,-1,-2
1480534279520915,0,1,-1,-1,-1,0,-3,-2
1480534279521921,1,-1,0,-3,-1,0,0,0
1480534279521921,0,4,-1,1,1,-2,1,0
1480534279543473,4,2,-1,0,0,1,-1,1
1480534279543473,0,-6,0,0,0,0,0,0
1480534279544490,-12,1,-1,-1,-2,-1,-1,-1
1480534279544490,6,2,0,-1,-1,0,-2,1
1480534279558013,1,1,2,-1,0,-2,-1,-2
1480534279558013,-3,1,-1,-2,-1,1,1,0
1480534279558513,-1,-10,-3,0,0,-1,0,0
1480534279558513,-6,-1,-1,0,1,0,1,-1
1480534279581074,-2,-5,-2,-1,-2,-1,-1,-2
1480534279581074,3,-1,0,-1,-1,1,0,-1
1480534279582081,5,3,1,0,0,0,-1,0
1480534279582081,2,-3,-2,-1,-1,0,0,0
1480534279603634,-3,6,-1,1,1,-1,0,0
1480534279603634,-4,-5,-3,-2,-1,-2,1,-1
1480534279604349,6,3,1,1,-1,0,-1,1
1480534279604349,4,-3,-1,0,-1,0,0,0
1480534279618172,-6,-5,-1,-2,-1,-2,-2,0
1480534279618172,-4,-6,-1,0,-2,1,-1,-2
1480534279625190,4,1,-2,-1,-1,1,-1,0
1480534279625190,4,2,1,1,0,1,0,1
1480534279641234,4,1,1,0,0,1,1,1
1480534279641234,3,8,1,-1,1,-2,0,-1
1480534279641735,-8,-12,-2,0,-1,-1,0,-3
1480534279641735,-9,-6,-1,-1,-2,-2,-2,-2
1480534279663793,0,4,-1,-1,0,-2,1,0
1480534279663793,-1,-10,0,0,-1,-1,0,-1
1480534279664295,9,13,2,0,-2,0,1,0
1480534279664295,-5,-3,-2,-1,1,-2,-1,0
1480534279678331,1,-5,1,0,-1,-3,-2,-1
1480534279678331,4,4,0,1,0,1,-1,-1
1480534279679335,-11,-1,-3,-2,-2,-1,-1,0
1480534279679335,-1,-6,-1,-1,-2,1,0,0
1480534279701394,8,7,-1,-2,0,-1,-1,0
1480534279701394,-12,-11,-2,-2,-2,0,-1,0
1480534279702897,-3,-11,-3,-2,0,-1,-1,0
1480534279702897,0,2,0,1,-1,0,0,-1
1480534279723953,6,6,-2,-1,1,2,-1,0
1480534279723953,-4,-5,-1,0,0,-2,0,-1
1480534279724956,-1,1,0,-1,1,0,-1,-1
1480534279724956,4,4,0,-1,1,1,-1,-2
1480534279737992,-4,-6,-2,0,-2,0,-1,-1
1480534279737992,-5,0,-1,-1,-2,-1,0,-1
1480534279738493,4,-3,0,0,-1,1,0,0
1480534279738493,-2,-6,-1,-1,-2,1,0,-3
1480534279761051,-1,-2,1,-1,-1,-1,0,1
1480534279761051,0,-1,-2,0,-1,0,-1,-1
1480534279762054,5,4,0,2,-2,0,0,1
1480534279762054,5,2,-1,-2,-1,-1,-1,1
1480534279783612,-18,-10,-3,0,0,-2,-1,-2
1480534279783612,-2,2,-1,0,0,-1,-1,-1
1480534279784113,7,9,1,1,2,0,0,0
1480534279784113,-2,-6,-3,0,-1,0,1,-1
1480534279797649,-2,-3,-1,0,0,-1,-1,-1
1480534279797649,5,2,0,1,-1,0,-1,-1
1480534279798652,0,1,-1,0,0,-1,1,0
1480534279798652,-7,-9,-1,0,-1,-1,-2,0
1480534279821214,2,6,1,-1,0,1,1,-1
1480534279821214,-3,-7,-1,-1,0,0,-1,-1
1480534279821714,-5,2,0,-1,0,0,-2,-1
1480534279821714,7,5,-1,0,-2,-2,-1,0
1480534279843772,5,-2,0,-1,-2,-2,1,2
1480534279843772,-2,1,0,0,-1,-1,0,2
1480534279844273,2,5,0,-1,-1,1,-1,1
1480534279844273,-6,-3,-1,-1,-1,-1,-1,0
1480534279857809,-3,-7,-1,0,-2,-1,-1,-2
1480534279857809,7,5,0,0,0,0,-1,0
1480534279858811,0,-1,-1,1,-1,-2,1,1
1480534279858811,0,6,0,-1,0,-1,1,-1
1480534279880871,-1,-4,-1,-2,1,1,0,-1
1480534279880871,-2,-2,1,0,-1,-3,-1,-1
1480534279881874,3,2,-1,-1,0,0,-4,-3
1480534279881874,-2,3,-1,-1,2,-1,-3,-2
1480534279902430,-4,-3,-1,-2,-1,2,4,0
1480534279902430,-2,0,-1,-2,-1,-1,-1,1
1480534279910450,-5,-3,-3,-1,-2,-1,0,-3
1480534279910450,9,6,1,1,-1,0,0,0
1480534279917969,3,2,0,-1,0,-2,-2,0
1480534279917969,-5,-5,-1,0,-1,-1,-3,-1
1480534279918972,11,8,0,1,1,-1,1,2
1480534279918972,-6,-4,-1,-1,-1,-1,0,0
1480534279941031,2,1,-2,1,-1,1,-1,0
1480534279941031,2,-7,0,-1,0,-1,0,0
1480534279942033,-4,9,-1,-2,-1,0,-2,-2
1480534279942033,-11,-17,0,-1,1,-1,-1,-3
1480534279962588,1,1,1,0,-2,0,0,1
1480534279962588,3,6,-3,-1,0,-1,-1,0
1480534279970610,7,0,2,0,0,-1,1,1
1480534279970610,1,2,0,-1,0,2,0,-1
1480534279978129,-11,-17,0,-2,-1,-2,-4,-4
1480534279978129,-1,6,0,1,0,0,0,0
1480534279978632,-1,-7,0,0,-2,0,-1,-2
1480534279978632,4,1,-2,-1,-1,-1,2,1
1480534280001694,4,2,-1,1,0,-1,0,1
1480534280001694,1,0,-1,-1,-2,1,-1,0
1480534280002910,-6,-11,-2,-2,-2,-1,-1,-1
1480534280002910,-3,9,-1,0,-1,0,1,-1
1480534280023750,-1,-3,2,0,0,-1,-2,-2
1480534280023750,4,2,-2,-3,-1,0,0,-1
1480534280024254,-6,-3,-1,-2,-2,1,-1,-1
1480534280024254,-4,-8,-2,-1,1,-1,-1,-2
1480534280037792,6,8,0,0,0,0,0,1
1480534280037792,-1,-4,2,-2,-2,-2,-1,-2
1480534280038791,-6,3,-1,0,0,-2,-1,1
1480534280038791,-1,-5,1,0,0,0,0,-1
1480534280060849,0,3,-1,-2,-1,-3,0,-1
1480534280060849,5,1,-2,-1,-1,-1,-1,0
1480534280061852,-8,-14,-1,-2,-2,0,0,-1
1480534280061852,0,0,1,0,-2,-2,-1,0
1480534280083410,4,3,-1,0,-2,1,0,1
1480534280083410,10,7,0,0,0,-1,0,0
1480534280084414,-8,-7,-1,-1,-1,-2,-1,-3
1480534280084414,-7,-8,-2,-2,-1,-2,-2,-2
1480534280097447,-4,-12,0,-1,-1,0,-2,-3
1480534280097447,-1,6,-1,0,0,0,1,0
1480534280105472,4,-8,-3,-1,1,0,0,0
1480534280105472,8,6,1,0,0,1,-1,2
1480534280121011,3,6,0,1,-1,-1,1,0
1480534280121011,-10,-10,0,1,-1,-1,0,-2
1480534280122019,9,4,0,0,1,-1,0,0
1480534280122019,1,2,-1,-1,-2,1,1,-1
1480534280143569,-8,-1,-3,0,-1,-1,0,-1
1480534280143569,2,2,0,-1,0,-2,-1,-2
1480534280144572,-9,-11,-3,-2,-2,-1,-1,-2
1480534280144572,0,1,-2,-3,0,-1,-2,-1
1480534280157106,8,5,1,1,1,1,0,2
1480534280157106,3,10,0,-2,0,1,-2,0
1480534280165628,-10,-18,-2,-1,0,-1,0,-2
1480534280165628,1,1,0,-1,-1,0,0,-1
1480534280181671,-4,-4,-1,-1,0,0,0,-2
1480534280181671,-1,0,-1,1,-1,0,-1,0
1480534280182673,10,14,3,1,-1,-1,0,0
1480534280182673,0,-2,-1,-1,-2,1,0,2
1480534280203730,-9,-1,-2,-2,0,0,-1,-2
1480534280203730,-4,-4,-1,1,-1,-1,-1,1
1480534280204231,1,2,2,-1,0,0,-1,1
1480534280204231,1,-1,0,0,0,-1,-1,-1
1480534280217265,-3,4,-2,0,0,-1,0,-1
1480534280217265,-1,-11,-1,0,0,0,0,0
1480534280225788,-4,-3,-1,-2,0,1,-1,-1
1480534280225788,2,5,-2,1,0,-1,0,-1
1480534280242332,-4,-4,0,0,1,-1,0,-1
1480534280242332,-6,-9,-1,0,-1,-1,0,0
1480534280243335,4,9,1,0,0,-1,0,1
1480534280243335,8,2,1,1,1,0,0,1
1480534280263388,-7,0,-1,-1,0,1,-1,-1
1480534280263388,-4,-6,0,-2,0,-3,-2,-1
1480534280264391,9,8,1,-1,-1,0,1,0
1480534280264391,-17,-8,0,-1,0,0,-1,-2
1480534280277426,1,-1,0,-2,-2,-1,-1,-2
1480534280277426,4,2,-1,0,1,0,0,1
1480534280285447,8,11,-1,0,-1,-2,0,0
1480534280285447,-12,-19,-2,-2,0,-1,-2,0
1480534280300988,-3,-1,-3,-1,-1,-1,-1,-1
1480534280300988,-6,-2,-1,-1,-1,0,3,-2
1480534280301991,4,-1,1,0,-2,-1,0,0
1480534280301991,1,-1,0,-1,-1,0,-1,-1
1480534280323548,6,1,-1,-1,1,-1,0,3
1480534280323548,2,-2,-2,-1,-1,-1,-1,-2
1480534280324551,-14,-11,-2,-1,0,-1,-3,-3
1480534280324551,4,8,0,-1,-1,-3,0,0
1480534280337585,1,-5,-1,-1,0,-2,1,-1
1480534280337585,1,2,1,0,2,0,-1,0
1480534280345607,2,2,-2,-1,1,-1,0,1
1480534280345607,-11,-2,1,1,0,-1,-2,-1
1480534280360145,6,5,0,-1,-2,-1,-1,-1
1480534280360145,5,6,0,-2,-1,0,0,2
1480534280361148,-18,-19,-4,-1,-2,-1,-2,-2
1480534280361148,3,3,-1,-1,-2,-1,0,-1
1480534280382705,4,-1,1,-1,-1,0,1,0
1480534280382705,-6,-4,-1,-1,0,-1,-1,-1
1480534280390226,1,7,-1,-2,0,-1,0,0
1480534280390226,-2,-6,-3,1,-3,1,-1,-2
1480534280406271,11,5,2,1,2,0,0,-1
1480534280406271,-14,-3,0,-2,0,-2,0,-3
1480534280406771,-1,-7,-2,-1,0,-1,0,-2
1480534280406771,2,0,-1,0,-1,-1,1,-1
1480534280428326,1,0,0,1,-1,0,0,-2
1480534280428326,5,1,0,0,-1,-1,0,1
1480534280429329,-1,1,0,2,-1,-1,-2,-1
1480534280429329,2,0,0,0,-1,-2,-1,1
1480534280443368,-3,-5,-2,-2,-1,-1,-1,-1
1480534280443368,5,-1,-2,0,-3,0,-1,-2
1480534280444369,-8,1,2,-1,-1,-2,-1,1
1480534280444369,5,2,-1,-1,0,0,1,1
1480534280465926,-1,4,0,-1,-1,-1,-2,0
1480534280465926,-8,-13,-3,-2,-1,-1,-1,-2
1480534280466931,-3,-2,0,-1,-1,0,0,1
1480534280466931,3,4,-1,-1,0,-1,-1,-1
1480534280488991,1,1,0,0,0,0,0,0
1480534280488991,1,5,1,2,-1,0,0,-1
1480534280490494,-4,0,-2,-2,-3,-1,2,-1
1480534280490494,1,-4,2,0,-1,0,-1,0
1480534280503531,0,-2,-2,-1,-1,-1,-2,0
1480534280503531,6,-2,0,0,-1,-1,-1,1
1480534280504533,0,5,0,1,0,0,0,1
1480534280504533,-1,7,-1,0,-1,-1,0,0
1480534280526087,-5,-5,-1,0,0,-2,0,-2
1480534280526087,-4,-4,0,0,0,0,-1,0
1480534280527089,7,2,-1,0,0,0,-1,0
1480534280527089,-1,0,0,-1,-1,0,-1,1
1480534280549148,-3,-5,-1,-1,-2,-1,0,-1
1480534280549148,8,4,-1,-1,-1,-1,-2,0
1480534280550151,-6,-2,1,0,0,-1,-1,-1
1480534280550151,-2,-5,-2,-3,1,0,-1,1
1480534280564188,-6,-4,-3,-2,0,0,-1,0
1480534280564188,0,0,-1,-1,-1,-1,0,-1
1480534280564689,12,8,0,-1,0,1,0,0
1480534280564689,-12,-13,-3,-2,-1,0,-1,-3
1480534280586248,-4,-8,-1,-1,0,0,-1,0
1480534280586248,2,2,1,-2,-1,-1,1,2
1480534280587753,10,12,0,0,-1,-1,0,1
1480534280587753,-4,-10,0,1,0,-1,-1,-1
1480534280601287,-2,2,-1,-1,0,-2,-3,-2
1480534280601287,0,-2,-2,-1,1,0,-1,0
1480534280601789,6,-5,-1,-1,-1,-1,-1,0
1480534280601789,-6,2,-1,0,0,-2,-1,2
1480534280623847,3,3,0,0,-2,0,-1,-1
1480534280623847,-2,1,-1,0,-2,-1,0,0
1480534280624349,1,3,-1,-1,0,-1,0,-1
1480534280624349,-12,-18,-2,-2,-1,-1,0,-1
1480534280645906,7,4,1,0,0,0,0,-2
1480534280645906,-18,-7,-3,-1,-3,-1,-1,-5
1480534280646908,0,-5,1,0,-2,1,-1,-2
1480534280646908,8,12,1,1,0,0,0,-1
1480534280668968,2,-4,0,0,-1,-1,0,1
1480534280668968,10,5,-1,-1,1,0,0,0
1480534280669469,-10,-1,0,-2,0,-3,-2,-1
1480534280669469,-1,1,-2,-2,-1,-2,-1,-1
1480534280682503,0,1,-2,-1,-2,0,0,1
1480534280682503,-2,-2,-1,-1,0,-1,0,-1
1480534280690524,-1,-4,0,-1,0,-3,-1,2
1480534280690524,10,7,1,0,-1,0,-1,1
1480534280706067,-8,-6,0,-1,0,1,-1,-1
1480534280706067,7,0,0,0,1,1,-1,-1
1480534280707071,-9,-3,-4,-2,-1,1,0,-1
1480534280707071,1,2,1,-2,0,-1,-1,-3
1480534280720605,2,-1,-2,-2,0,-1,0,0
1480534280720605,-3,-9,1,0,0,-1,-2,0
1480534280721108,4,-4,1,0,0,1,0,-1
1480534280721108,-2,4,1,1,2,-2,0,-2
1480534280743666,5,8,-2,0,-1,-3,0,-1
1480534280743666,-13,-16,-3,-1,-1,-2,-1,-2
1480534280744167,3,0,-1,0,-1,0,0,-1
1480534280744167,2,-2,-1,-1,-1,-1,2,0
1480534280766727,5,2,0,1,0,0,-1,1
1480534280766727,-8,1,-2,1,1,-1,0,-1
1480534280767229,5,1,-2,-2,-1,-2,-2,0
1480534280767229,0,-10,0,0,-1,0,1,1
1480534280788788,-15,-8,-3,-2,-2,0,-2,-1
1480534280788788,8,11,0,-2,-1,0,1,0
1480534280789290,-13,-9,0,-2,-2,-2,-2,-5
1480534280789290,3,-2,-1,-1,-1,0,-1,1
1480534280804328,5,5,1,2,-1,-1,-1,1
1480534280804328,1,1,-1,1,-1,-1,-1,-1
1480534280804829,0,-11,-2,-1,-1,0,-1,-1
1480534280804829,2,8,0,0,-2,0,-1,-2
1480534280825884,-2,-6,-1,-1,-3,-1,1,-1
1480534280825884,6,5,0,1,1,0,-1,0
1480534280826888,3,4,0,-1,-1,-1,0,0
1480534280826888,1,-2,-2,-1,-2,-2,0,-2
1480534280839925,-15,-2,-2,-2,-1,1,-1,-1
1480534280839925,3,2,0,-3,0,-1,-2,-1
1480534280848946,1,1,-2,-1,2,0,1,1
1480534280848946,5,7,-1,0,0,0,0,0
1480534280863985,-4,-9,-1,-1,-2,-2,-1,0
1480534280863985,-4,-4,1,-1,-3,-2,-1,-1
1480534280864988,1,1,-1,3,-1,-2,-2,0
1480534280864988,5,4,0,0,1,0,-1,0
1480534280886046,3,0,-2,-2,0,2,1,0
1480534280886046,2,-1,-1,-1,0,0,1,0
1480534280887049,11,3,2,-2,-1,0,1,1
1480534280887049,-16,-9,-1,-1,-1,-1,-2,-3
1480534280900583,-4,-5,-3,-2,1,-2,-1,-3
1480534280900583,-13,-4,0,-2,-1,-1,-2,-2
1480534280901086,6,5,-2,0,-1,-1,0,0
1480534280901086,1,5,1,0,0,0,-1,0
1480534280923644,8,1,2,0,2,0,0,1
1480534280923644,3,5,-1,-1,0,0,1,-1
1480534280924146,-15,-19,-4,-1,-1,-2,-1,0
1480534280924146,1,5,-1,0,-1,-1,0,1
1480534280946705,2,-5,1,2,-1,0,0,-1
1480534280946705,8,10,0,0,-2,0,-1,-1
1480534280948210,2,2,1,1,-2,0,0,-2
1480534280948210,-11,-10,-2,0,0,-1,0,-1
1480534280960241,3,3,0,1,-1,-1,0,1
1480534280960241,6,-4,-2,0,-1,0,0,-2
1480534280961244,-6,4,0,-2,-1,-1,-1,-1
1480534280961244,6,-2,-1,0,-1,-1,-1,0
1480534280983805,-1,0,-2,-1,1,-1,-3,-1
1480534280983805,-6,-10,-1,-1,-2,-2,0,0
1480534280984307,-7,-7,-1,-1,-1,-2,1,-1
1480534280984307,2,-1,1,-1,-1,0,0,0
1480534281006867,-3,-3,0,0,1,-2,1,0
1480534281006867,3,1,0,0,0,0,-1,1
1480534281007368,5,4,-1,1,2,0,-2,0
1480534281007368,-3,-2,0,-2,-1,0,0,-1
1480534281020907,-1,1,-1,-2,-1,-2,-2,-2
1480534281020907,-1,-2,-1,-1,-1,1,10,3
1480534281027420,1,3,1,0,2,4,6,0
1480534281027420,7,2,0,1,0,-2,-8,0
1480534281043964,4,2,0,1,-1,-2,7,-1
1480534281043964,-18,-8,-2,-3,-1,-8,-22,-5
1480534281044465,3,3,0,-2,-1,-2,3,-1
1480534281044465,2,-5,-2,-2,1,1,4,1
1480534281072540,-5,1,1,1,0,3,3,-1
1480534281072540,2,-1,-1,2,0,-1,3,1
1480534281081063,1,-2,-1,1,-2,1,2,2
1480534281081063,0,3,-1,-2,-1,-2,-2,-1
1480534281082567,-1,0,0,-1,-2,0,-4,0
1480534281082567,-2,1,0,-2,1,2,1,0
1480534281088083,-5,-3,0,-1,-2,-2,-7,-4
1480534281088083,0,-1,-1,-1,-2,0,3,-2
1480534281103623,5,0,1,-1,-1,0,-3,0
1480534281103623,-1,-4,-1,1,-1,1,1,1
1480534281105127,4,-1,-1,-1,0,0,0,0
1480534281105127,-1,4,0,-1,0,-1,-3,-2
1480534281126684,0,-5,0,1,-2,0,-1,-1
1480534281126684,-2,0,-1,1,-3,0,-1,-1
1480534281129692,-5,-8,-2,0,-1,-1,-2,-1
1480534281129692,-2,-6,0,1,-1,-1,0,0
1480534281156263,-3,-3,-1,-1,-1,1,-2,-1
1480534281156263,9,6,2,-2,1,0,4,2
1480534281157767,14,14,-1,1,0,-1,3,1
1480534281157767,-26,-25,-3,-1,-1,0,-1,-4
1480534281171304,5,1,0,1,-1,-2,0,1
1480534281171304,1,2,-1,0,0,1,-3,-1
1480534281172807,-9,-3,-1,-1,0,1,0,-2
1480534281172807,6,1,0,0,0,0,7,2
1480534281185343,3,1,-2,-1,0,-1,-9,-2
1480534281185343,-3,-3,-1,-1,-1,0,10,0
1480534281194866,-2,-4,0,-1,0,1,-4,-1
1480534281194866,0,10,0,1,-2,-1,-2,-1
1480534281199879,-7,-10,-3,-1,-2,-1,0,-1
1480534281199879,6,12,-1,0,1,0,-1,-1
1480534281208905,-4,-12,-3,-1,-1,-1,-1,0
1480534281208905,1,-1,2,-1,-1,-1,-2,-1
1480534281223943,0,2,1,-1,0,-1,1,0
1480534281223943,0,0,1,0,0,0,-2,0
1480534281225447,7,3,2,0,0,-2,-1,1
1480534281225447,0,2,-1,0,0,0,-3,0
1480534281246001,-5,-11,-2,-3,0,-1,-1,-2
1480534281246001,-1,0,-2,-2,0,1,-2,-1
1480534281247506,-5,-8,-1,-1,-1,-1,-1,-1
1480534281247506,16,13,-1,0,0,-1,0,-1
1480534281259543,-18,-12,-2,-2,0,-1,-1,-2
1480534281259543,-3,3,-3,-1,-2,0,0,-2
1480534281277084,-13,-15,-3,-2,-3,0,-4,-3
1480534281277084,3,-5,-1,-1,0,0,0,1
1480534281283603,10,13,0,0,1,0,1,1
1480534281283603,19,2,-1,2,1,-1,1,5
1480534281285107,18,21,6,1,0,1,0,5
1480534281285107,-38,26,-5,-4,-3,-2,-5,-10
1480534281305159,-18,-48,-3,-2,-2,-2,-2,-4
1480534281305159,-2,-3,0,-1,-1,-2,-1,-1
1480534281321202,5,-2,-1,-1,0,1,-2,1
1480534281321202,29,16,4,1,2,2,4,8
1480534281321704,-1,9,1,0,0,0,0,1
1480534281321704,-2,-2,-1,-2,-1,-1,-3,-4
1480534281328722,-17,-12,-4,0,-2,0,-2,-3
1480534281328722,3,-7,-1,1,-3,-1,-1,0
1480534281342257,4,13,-1,1,1,-1,-1,-1
1480534281342257,4,-8,2,0,-2,0,1,0
1480534281359804,-5,27,-3,-2,0,0,-1,-3
1480534281359804,-10,-37,-2,-1,0,0,-2,-1
1480534281366323,9,10,1,1,0,0,0,2
1480534281366323,-12,-13,0,0,0,-1,-2,-2
1480534281367827,10,13,2,-1,-1,-1,0,1
1480534281367827,-5,-4,-1,-1,0,0,-1,-1
1480534281388380,5,6,0,0,-2,0,1,2
1480534281388380,14,12,0,1,0,1,1,1
1480534281390887,-22,-21,-4,-1,0,-1,-1,-3
1480534281390887,6,-8,-2,-2,-1,-1,-2,-3
1480534281403569,3,-1,0,0,0,0,-1,0
1480534281403569,-2,9,0,-1,-1,0,-2,0
1480534281411441,-8,-17,-3,-1,-1,-2,0,-2
1480534281411441,1,5,3,1,0,-3,-1,0
1480534281425980,-1,5,1,1,-1,-1,1,0
1480534281425980,-6,-8,-2,-2,-1,0,1,-1
1480534281427484,15,13,0,-1,-1,-1,0,0
1480534281427484,0,-2,-1,-1,0,0,1,-1
1480534281448540,6,1,-2,-1,-1,0,1,-1
1480534281448540,-7,-2,1,-2,-2,-2,-2,-1
1480534281450045,-2,3,-2,-1,-1,-1,0,-3
1480534281450045,-3,-7,-3,-1,-1,0,0,0
1480534281463080,2,-1,0,-1,-2,-1,0,-1
1480534281463080,0,0,-1,-1,1,-1,0,0
1480534281469600,5,1,2,2,2,0,0,0
1480534281469600,-2,-5,-2,0,-3,0,-1,0
1480534281486141,2,10,-1,-1,-3,-1,0,-2
1480534281486141,-9,-9,-1,-1,0,-1,0,-1
1480534281487645,-2,-12,1,1,0,-1,0,1
1480534281487645,14,6,1,0,2,-1,1,1
1480534281516220,-9,1,-2,-1,-1,0,-1,0
1480534281516220,-5,0,-2,-1,-1,-2,-2,-1
1480534281517728,0,-1,-1,-2,-3,-1,-2,0
1480534281517728,-1,0,1,-1,-3,1,-1,0
1480534281522737,5,4,1,-2,0,-1,1,-1
1480534281522737,-2,-15,-2,-1,-2,-3,-2,-4
1480534281529757,1,4,0,0,0,-1,0,0
1480534281529757,5,8,1,-1,-1,1,0,-1
1480534281553318,-16,-27,-5,-3,0,-2,-2,-4
1480534281553318,1,4,-1,2,0,1,-3,-1
1480534281555324,3,1,1,1,-1,-1,-1,-1
1480534281555324,-1,0,-1,-2,-2,0,1,1
1480534281568864,13,7,0,-1,1,1,-1,-1
1480534281568864,-14,-9,-2,-1,0,0,0,-1
1480534281571869,3,-3,-2,-1,-1,-1,-2,-1
1480534281571869,-3,-3,0,0,-1,-1,-1,0
1480534281582397,2,3,0,2,0,0,-2,1
1480534281582397,3,1,-1,-1,-1,0,-1,-1
1480534281598940,1,0,0,0,-1,-1,0,-1
1480534281598940,-5,-7,1,1,1,0,-1,-1
1480534281606962,2,4,1,1,0,1,0,-1
1480534281606962,6,14,0,-1,0,-1,0,1
1480534281608466,-12,-11,-2,0,-1,-1,-2,-2
1480534281608466,4,5,-1,0,-1,-1,0,-1
1480534281628519,-12,-16,-3,-2,-2,-1,0,1
1480534281628519,3,5,3,1,0,2,-1,-1
1480534281630023,-5,7,0,-1,0,-1,0,0
1480534281630023,0,-2,-1,-1,1,-1,-1,0
1480534281643060,6,11,1,-1,-3,-2,-1,-1
1480534281643060,-4,-8,-1,0,-2,-1,1,0
1480534281666621,5,-1,0,-1,-2,0,1,0
1480534281666621,-2,0,-1,0,-1,0,-2,0
1480534281667624,-12,-7,-2,-2,0,-1,-1,-2
1480534281667624,-5,-5,-3,-2,-1,-1,-1,-2
1480534281671133,4,-4,-1,0,1,-1,0,1
1480534281671133,8,16,0,0,1,-1,0,1
1480534281689181,-16,-25,-3,1,-1,-2,-1,-1
1480534281689181,0,3,0,2,-2,-1,0,1
1480534281692188,7,2,-1,0,-1,-2,-1,-1
1480534281692188,-12,-4,-3,-1,0,-1,0,-1
1480534281703220,7,9,0,-1,0,-2,1,0
1480534281703220,-1,-8,-3,-2,-1,0,0,-1
1480534281709735,-2,1,0,-1,0,1,0,0
1480534281709735,5,0,0,-1,-1,0,0,-1
1480534281726279,-3,-2,-1,-2,0,-1,-1,-1
1480534281726279,-3,-8,-3,-2,-2,-1,-2,1
1480534281727783,3,9,3,-2,0,0,-2,0
1480534281727783,-6,-1,-2,0,-2,-3,-1,-3
1480534281748339,10,7,2,0,-1,-1,0,0
1480534281748339,-9,-7,-1,0,-2,-1,-2,-1
1480534281750344,0,5,1,0,0,-2,0,0
1480534281750344,-5,-7,0,0,1,-1,0,-1
1480534281762876,2,1,-2,-1,-2,1,-3,2
1480534281762876,8,9,1,0,1,-2,2,-1
1480534281769896,-9,-3,-5,-2,-1,0,1,-2
1480534281769896,-12,-11,0,-1,-1,-3,0,-2
1480534281792456,8,9,-1,1,1,-1,-1,-2
1480534281792456,-2,-2,-1,-1,-2,-1,-1,-1
1480534281801480,4,1,-1,0,-2,0,0,0
1480534281801480,3,-3,-1,-1,0,2,-1,1
1480534281808498,-7,7,-2,0,-1,-1,-1,-1
1480534281808498,-2,-16,-1,-2,-1,-2,-2,-4
1480534281814514,-6,-7,-1,-3,0,-2,-1,-2
1480534281814514,3,-4,0,2,-1,1,-1,-2
1480534281831058,-1,-1,0,-2,-1,-1,0,-1
1480534281831058,7,8,1,1,0,0,0,0
1480534281847602,5,9,1,1,-1,2,-1,1
1480534281847602,-4,-11,-1,-1,-1,-1,-2,0
1480534281848103,-10,-1,2,-1,-2,-2,0,-1
1480534281848103,-4,-3,-1,-1,0,0,-1,0
1480534281852114,-5,-10,-2,-1,-2,-1,0,-3
1480534281852114,1,6,1,1,-2,-3,-1,0
1480534281868659,3,-1,0,0,0,0,0,0
1480534281868659,13,8,1,1,0,-1,1,1
1480534281870164,-14,-1,-2,-1,0,-1,1,-1
1480534281870164,-6,-5,-2,0,-3,0,-1,-3
1480534281882194,1,-6,-1,0,0,1,-1,-3
1480534281882194,1,1,2,1,-1,-2,-1,1
1480534281891218,2,1,0,0,1,0,-1,0
1480534281891218,2,-5,1,-2,-1,-3,-1,-2
1480534281906258,3,1,0,-1,0,-1,1,1
1480534281906258,6,16,0,-1,-2,-2,1,0
1480534281907762,-20,-24,-4,-3,0,0,-2,-2
1480534281907762,0,0,-1,0,0,0,1,1
1480534281927815,1,-1,-1,-2,-1,0,-1,-1
1480534281927815,2,-2,1,-1,0,2,1,1
1480534281936840,13,14,4,2,-1,-1,-1,0
1480534281936840,-4,-9,-3,-3,0,-1,-1,-2
1480534281942354,-12,-17,-3,-1,-2,0,-2,-1
1480534281942354,-11,-6,-3,-1,-1,-1,-1,-3
1480534281951397,6,-1,1,-1,0,0,1,1
1480534281951397,7,9,3,0,0,0,0,0
1480534281965916,2,4,-2,0,-1,0,0,1
1480534281965916,1,-4,-2,-1,0,-2,-1,-1
1480534281967922,0,-2,0,-1,-1,-1,-1,-1
1480534281967922,2,3,0,-1,0,1,-1,-1
1480534281988477,12,4,1,-1,1,-1,0,1
1480534281988477,-14,-10,-1,-1,-1,-1,-3,-1
1480534281989981,4,8,-2,1,0,-1,1,-1
1480534281989981,-7,-4,-2,-1,-2,-1,-2,-2
1480534282002017,1,-2,0,0,-1,1,1,-1
1480534282002017,4,3,1,-1,0,1,1,0
1480534282011037,5,5,-2,0,-1,-2,1,0
1480534282011037,7,6,1,-1,1,2,-1,0
1480534282025074,-18,-12,-1,0,-1,0,-3,-3
1480534282025074,-1,-6,-2,-3,0,-3,-1,-2
1480534282034600,0,6,0,0,-2,-1,-1,-2
1480534282034600,-3,-4,-2,-1,-1,-1,1,-1
1480534282056157,3,0,-2,0,0,0,0,0
1480534282056157,5,7,1,-1,0,0,-1,-1
1480534282059666,-18,-20,-1,-2,-3,-3,-1,-1
1480534282059666,2,7,1,0,-2,-1,0,-1
1480534282071197,2,0,-1,-2,-1,-1,-1,0
1480534282071197,1,-1,-1,1,-1,1,-1,1
1480534282072701,10,7,-2,0,0,1,-1,2
1480534282072701,-10,-11,-1,0,-1,0,-1,-1
1480534282085237,-3,9,-1,0,-2,-2,-1,-2
1480534282085237,-1,-5,-1,-2,0,0,0,0
1480534282093757,3,-2,0,-2,1,-1,-1,-1
1480534282093757,-1,3,-1,0,1,-1,-2,0
1480534282108798,3,3,-1,1,-1,-1,0,0
1480534282108798,-1,-2,0,1,-3,-1,0,0
1480534282110301,-4,0,-1,-1,-2,-2,-2,0
1480534282110301,5,2,1,1,1,0,-1,0
1480534282122333,-7,-14,-3,-1,-1,0,0,-1
1480534282122333,-8,-8,-2,-2,0,-2,0,-2
1480534282148403,2,0,1,-1,-1,1,0,-1
1480534282148403,6,7,-1,0,0,-2,1,1
1480534282148905,9,4,3,2,0,1,0,1
1480534282148905,-4,0,-2,-2,0,-1,-2,-3
1480534282152413,-12,-20,-2,-3,-1,-1,-1,-2
1480534282152413,3,3,0,0,0,-1,1,0
1480534282175975,5,11,0,-1,-2,-2,0,1
1480534282175975,-4,-6,-1,-1,-1,2,0,-1
1480534282177480,6,6,-1,0,0,-2,-1,-2
1480534282177480,-3,-5,-1,-2,-2,0,-1,-1
1480534282181991,-8,-7,-1,-1,1,-2,-1,-1
1480534282181991,5,5,-1,0,0,0,-1,0
1480534282193021,1,-9,-1,0,-1,1,-2,1
1480534282193021,-11,-5,0,-1,1,-2,0,-1
1480534282205554,1,2,1,-2,-2,-1,-1,-1
1480534282205554,2,5,1,0,-1,0,0,-2
1480534282212072,-3,3,1,1,2,0,1,0
1480534282212072,1,1,-3,0,-1,0,-1,-2
1480534282228616,2,-4,0,-1,0,-1,-1,-1
1480534282228616,2,1,0,1,-1,-1,1,0
1480534282230119,-2,1,-1,-2,-3,-1,0,-2
1480534282230119,-3,-6,1,0,0,0,0,0
1480534282242152,4,0,-2,0,0,-2,1,-1
1480534282242152,3,3,1,-1,0,1,0,2
1480534282251181,4,8,-2,1,0,0,0,1
1480534282251181,-7,-12,0,-1,-1,-2,-2,-2
1480534282266215,5,1,0,-1,2,1,0,-2
1480534282266215,-1,-2,0,-2,-1,-2,0,0
1480534282267722,-14,-6,-1,-1,-1,-2,0,-3
1480534282267722,0,0,-2,-1,0,0,1,0
1480534282288775,1,4,0,-2,-1,0,-1,-2
1480534282288775,-13,-6,-3,-2,-1,0,-2,-1
1480534282290279,4,0,1,0,-1,-1,-1,0
1480534282290279,-1,3,0,-1,-1,0,-2,1
1480534282311336,-3,-5,0,2,-2,-1,-1,0
1480534282311336,10,3,1,0,-1,-1,0,-1
1480534282313341,1,-1,-1,-1,-1,-1,-1,0
1480534282313341,-5,-3,-3,-1,-3,0,-1,-2
1480534282325373,-1,0,0,0,0,0,-1,0
1480534282325373,6,0,0,2,-1,-1,-1,0
1480534282339911,-5,-8,-2,1,0,0,-1,0
1480534282339911,0,2,-2,-1,0,-3,1,-2
1480534282348435,-2,0,-1,0,-1,-1,0,-2
1480534282348435,5,-3,0,0,0,0,-1,-1
1480534282350440,2,9,2,-1,-2,-2,0,-1
1480534282350440,7,0,-1,-2,-1,0,-1,-1
1480534282370994,-8,-8,-2,0,-3,0,-1,-1
1480534282370994,-3,0,0,-2,-1,-1,0,0
1480534282372498,7,8,0,-1,1,0,-1,0
1480534282372498,-2,-3,-1,-1,0,0,-2,-1
1480534282386036,2,5,0,-1,0,1,-2,-1
1480534282386036,4,0,0,-1,-1,0,-3,2
1480534282387539,-13,-11,-1,-2,-1,0,0,-2
1480534282387539,-9,-11,-1,-2,0,-2,-1,0
1480534282409095,1,1,-1,-1,0,0,0,0
1480534282409095,-3,-3,-2,0,-1,-1,-1,-1
1480534282410600,4,2,-2,-1,0,-1,1,1
1480534282410600,5,7,1,1,-1,1,0,0
1480534282431655,-1,-2,-1,-1,-2,-1,0,-1
1480534282431655,5,-1,-1,1,1,0,1,0
1480534282437170,-20,-3,-2,-2,0,0,-1,-3
1480534282437170,-7,-15,-2,-3,-2,-2,-2,0
1480534282446697,-1,1,0,-1,0,-3,0,-1
1480534282446697,-5,-5,0,0,-1,0,-1,-1
1480534282452213,10,-1,1,-1,-1,1,-1,1
1480534282452213,0,3,-2,1,-1,-2,-2,-1
1480534282468754,-2,0,0,0,1,-1,1,0
1480534282468754,-1,-1,-1,-2,-1,1,0,-1
1480534282470258,6,3,-1,0,0,1,0,0
1480534282470258,-6,-6,-1,0,-3,1,-1,-1
1480534282490813,-3,-3,-2,-2,0,-1,0,-1
1480534282490813,-4,-6,-1,0,-1,-2,-1,0
1480534282492818,-3,-1,1,-1,-1,-1,-1,-1
1480534282492818,7,5,0,-2,-1,-1,1,0
1480534282505767,7,5,0,0,-1,0,0,1
1480534282505767,-19,-2,-1,-2,0,-1,0,-4
1480534282512370,-3,-8,-2,-1,1,0,0,-3
1480534282512370,5,8,-1,0,1,-1,0,-1
1480534282528413,-5,-10,-1,-1,-1,-1,1,-1
1480534282528413,8,7,2,-1,0,0,0,2
1480534282530419,10,5,0,-1,0,0,0,2
1480534282530419,-7,-5,-2,-2,0,0,-1,-1
1480534282550974,-3,3,1,0,0,2,-1,1
1480534282550974,1,-2,-1,-1,-1,-2,0,0
1480534282552477,1,-4,2,-1,0,-2,0,1
1480534282552477,8,8,1,0,0,0,0,1
1480534282565512,-1,-3,0,1,-3,0,-3,-2
1480534282565512,6,-3,-1,0,-1,0,-1,1
1480534282590579,-13,-2,0,-1,0,-1,-2,-3
1480534282590579,-5,-9,-2,-1,-1,-1,-1,-2
1480534282591581,-1,-1,0,-1,1,-2,-1,-2
1480534282591581,1,-1,-1,-1,-1,0,-1,0
1480534282593085,10,2,-1,-2,-2,-1,0,1
1480534282593085,0,6,3,0,-1,0,0,-1
1480534282611133,0,-7,0,-1,0,1,0,-3
1480534282611133,-2,4,-1,0,-1,-1,-2,-1
1480534282612637,3,4,-2,0,0,0,2,-2
1480534282612637,-12,-9,-1,-3,-2,-1,0,-2
1480534282633693,3,-2,-1,0,0,0,-1,1
1480534282633693,0,1,-3,-1,0,-2,-1,-2
1480534282635197,7,-1,-2,-1,-1,-1,-1,2
1480534282635197,4,4,1,1,0,1,-1,0
1480534282648733,-1,-1,-1,-1,-2,-2,1,-2
1480534282648733,-2,-3,1,0,-1,0,0,-1
1480534282650238,-7,1,-1,-2,0,0,-1,-2
1480534282650238,9,-3,-1,1,0,-2,-1,0
1480534282670792,-9,2,0,-1,0,0,-2,1
1480534282670792,-5,-8,-2,-2,0,0,1,0
1480534282678813,5,2,-1,0,-2,0,-1,-1
1480534282678813,-2,3,-1,-2,0,0,0,0
1480534282685336,5,-1,1,-1,-2,-1,0,-1
1480534282685336,1,3,-1,0,-2,-1,-1,-1
1480534282699869,-9,-15,-1,-2,-1,-1,0,-2
1480534282699869,-3,-8,-3,0,-1,0,-1,-2
1480534282708391,-2,2,-2,-1,0,0,1,1
1480534282708391,3,0,1,-2,0,-1,2,0
1480534282710397,-4,-1,-1,-1,0,-2,0,-1
1480534282710397,9,7,1,1,1,0,0,1
1480534282731954,-3,-1,0,-2,-1,-2,0,-1
1480534282731954,-11,-6,-2,1,-1,1,-1,-2
1480534282733461,7,1,-1,0,-1,-1,-1,-1
1480534282733461,4,1,-1,0,0,0,-1,-1
1480534282745490,-3,0,0,-1,-2,-1,-1,0
1480534282745490,4,6,0,0,-1,0,0,-1
1480534282752008,-8,-13,-2,0,-1,-1,-1,-1
1480534282752008,0,4,0,0,-1,0,1,0
1480534282768554,1,1,-1,-1,1,-1,0,0
1480534282768554,5,0,-2,-1,0,1,-1,1
1480534282770056,-2,-1,-1,0,-1,0,0,1
1480534282770056,-6,1,0,-1,-1,0,0,0
1480534282791112,-5,7,-4,0,-1,-1,0,0
1480534282791112,-4,-8,0,0,-1,-2,1,-2
1480534282792616,10,15,1,-1,0,0,-1,-2
1480534282792616,-6,-4,1,-1,-1,0,-1,1
1480534282805652,4,2,-2,0,-1,0,1,-2
1480534282805652,0,-2,0,-1,0,0,-2,-2
1480534282812670,1,3,0,0,1,1,1,1
1480534282812670,-4,-6,-1,-2,-1,-2,-1,-1
1480534282828712,3,2,-2,-1,-1,-1,-1,0
1480534282828712,-17,-11,-1,-1,0,-2,-1,-3
1480534282830216,2,4,0,0,-2,-1,-1,0
1480534282830216,2,-2,0,-1,1,-2,0,0
1480534282851276,2,1,-2,-1,1,-1,-3,0
1480534282851276,5,-3,0,0,-2,0,0,1
1480534282866814,7,6,2,0,-1,0,1,1
1480534282866814,-7,-1,-1,0,-2,1,-2,0
1480534282867816,-6,-4,-2,0,0,1,1,-3
1480534282867816,-11,-11,-1,-1,-1,-2,0,0
1480534282874333,1,2,1,1,-1,-1,0,0
1480534282874333,7,2,0,0,0,-2,0,0
1480534282903410,5,0,2,0,0,2,0,0
1480534282903410,1,1,-1,0,1,1,-1,0
1480534282905415,-2,-3,-1,-1,-1,0,0,2
1480534282905415,3,8,0,1,0,0,2,1
1480534282911685,-5,-6,-2,0,0,-1,-2,-2
1480534282911685,-3,-5,-2,-1,-1,-1,0,-1
1480534282913437,-3,0,1,-2,0,2,-1,0
1480534282913437,3,4,-1,-2,-2,-1,0,0
1480534282924968,-4,-10,-1,1,0,0,-2,1
1480534282924968,4,6,1,0,1,-2,-2,0
1480534282933993,-2,-6,-2,1,0,-1,-1,-2
1480534282933993,7,2,0,0,-1,-1,0,-2
1480534282956050,-6,0,-1,-2,-2,0,0,0
1480534282956050,-13,-16,-3,-3,-2,-2,-3,-3
1480534282957554,-3,-3,0,-1,-1,-1,-2,0
1480534282957554,-1,0,-1,-1,0,0,0,0
1480534282971092,5,-1,1,0,1,-1,0,-2
1480534282971092,12,13,0,0,-1,1,0,1
1480534282972594,-4,-7,-2,0,1,-1,0,-3
1480534282972594,-3,-6,0,-2,0,-3,-3,-3
1480534282993661,-4,-6,-1,-2,0,-1,0,1
1480534282993661,3,6,0,0,-2,-1,0,0
1480534282997160,4,-2,-2,0,-1,-2,0,1
1480534282997160,5,5,0,0,-1,0,0,0
1480534283008690,-14,-23,-2,-3,-1,-1,-2,-3
1480534283008690,3,4,-1,-3,-1,0,0,2
1480534283010195,-1,-2,0,0,0,0,1,-1
1480534283010195,4,4,0,1,-2,1,0,1
1480534283031250,3,6,-1,-1,0,1,-1,1
1480534283031250,-2,-9,-4,-2,-2,-1,-2,-3
1480534283032756,-4,-3,-2,-1,-2,-1,0,-1
1480534283032756,-18,-17,-3,-1,1,-1,0,-3
1480534283044786,6,3,2,-1,-3,-2,0,0
1480534283044786,3,6,0,0,1,0,1,1
1480534283061330,6,5,-1,0,0,-1,-1,0
1480534283061330,-10,-10,-3,2,-1,0,-1,-2
1480534283075870,10,5,2,-1,-1,0,0,1
1480534283075870,-3,0,-1,0,-2,0,0,-5
1480534283077874,-11,-10,0,-1,-2,-2,-2,-1
1480534283077874,3,3,-2,1,-2,0,0,0
1480534283090915,0,2,-1,-2,0,-1,-1,-1
1480534283090915,9,4,2,-1,1,0,0,0
1480534283113970,-1,0,-1,0,2,-1,1,0
1480534283113970,2,3,2,-2,0,1,-1,-1
1480534283114973,-7,-2,-2,-1,0,-1,-1,-2
1480534283114973,-1,-4,-2,-1,-1,-1,-1,1
1480534283116481,1,2,-1,-1,-2,0,0,-1
1480534283116481,4,6,1,0,-1,-1,0,0
1480534283128509,3,-5,-1,-1,-2,0,-1,-1
1480534283128509,-15,-6,-2,0,1,1,-1,0
1480534283130013,4,6,-1,0,-2,0,0,0
1480534283130013,-6,-6,-2,-2,0,-3,-1,0
1480534283154077,3,4,1,0,-1,1,0,2
1480534283154077,-2,-5,-1,0,0,0,-1,0
1480534283154077,2,1,-1,-1,-1,0,1,0
1480534283154077,6,5,0,-1,-1,0,0,0
1480534283172628,-1,2,-2,-1,0,-1,1,-1
1480534283172628,-10,2,0,-1,0,-2,1,-2
1480534283181149,-5,-10,-1,-2,0,-1,-1,-2
1480534283181149,-3,-4,0,-1,2,0,-1,-1
1480534283203709,2,-2,-1,1,-1,0,0,1
1480534283203709,8,11,1,0,0,1,0,2
1480534283205213,2,-5,-1,-1,-1,0,-2,1
1480534283205213,-6,-5,-2,-1,0,0,0,-1
1480534283211230,-5,-6,2,-1,-2,-2,-2,-2
1480534283211230,-7,1,-3,0,-1,-2,-1,0
1480534283212734,-2,-9,-4,-1,-1,-2,-3,-3
1480534283212734,5,5,-2,-1,-1,-1,-1,1
1480534283233288,7,7,0,-1,1,1,0,0
1480534283233288,-5,-9,0,0,-1,0,0,-1
1480534283236296,-2,4,0,0,0,0,0,-1
1480534283236296,-2,-1,-1,-1,-1,0,-1,-2
1480534283248328,-1,-1,-1,0,-1,-2,0,-1
1480534283248328,5,1,1,-1,0,0,1,0
1480534283250333,1,1,-2,-1,1,0,1,0
1480534283250333,-7,-8,-3,-2,-1,1,-2,-3
1480534283270889,-5,-3,0,1,-1,-1,-1,-2
1480534283270889,8,2,1,1,0,0,-1,-1
1480534283272894,2,7,0,-2,-2,-1,-1,1
1480534283272894,-3,-5,-1,0,-1,-1,1,-1
1480534283293447,-3,3,-2,0,-1,1,-1,-2
1480534283293447,2,-9,-3,0,0,-2,-2,0
1480534283299464,1,8,0,-1,-1,0,1,0
1480534283299464,1,0,2,-1,-1,0,0,0
1480534283323528,-17,-14,-2,-2,-1,-2,0,-3
1480534283323528,3,-1,1,0,-2,0,1,-2
1480534283325032,-1,1,-1,0,1,-1,-1,0
1480534283325032,6,4,-2,1,0,-1,0,1
1480534283331048,6,4,-1,1,-1,0,1,3
1480534283331048,-7,-5,-4,-3,-1,-1,-2,-1
1480534283332552,0,-4,-1,-1,-1,0,0,0
1480534283332552,1,1,1,-1,-1,0,-1,0
1480534283362130,-4,-5,-1,0,2,-1,-1,-1
1480534283362130,-3,0,-1,-1,-1,0,0,-3
1480534283363634,-4,-2,2,0,-2,0,-3,-1
1480534283363634,6,1,1,1,0,0,-2,1
1480534283375165,-3,-2,-1,0,-1,-1,0,0
1480534283375165,3,-1,1,-1,-1,-1,-1,-1
1480534283395218,-12,-8,-1,-1,-2,-1,1,-3
1480534283395218,0,1,0,-1,0,0,0,-1
1480534283397224,5,4,-1,0,1,-1,0,1
1480534283397224,5,4,1,0,1,1,0,1
1480534283398728,-11,-11,0,0,-1,-2,-2,-1
1480534283398728,-4,-3,-3,-2,0,0,-1,0
1480534283421288,-1,-4,-1,-1,-3,-2,1,1
1480534283421288,0,-8,0,0,-2,0,1,1
1480534283429309,5,3,-3,0,0,-1,0,-1
1480534283429309,-2,-10,-1,1,-1,0,1,-1
1480534283429811,1,1,0,-1,-1,1,-1,0
1480534283429811,0,2,0,0,0,0,-2,0
1480534283442344,8,6,1,0,1,1,0,-1
1480534283442344,-2,2,-1,-1,-1,-1,-2,0
1480534283450867,-6,-8,-1,-1,-1,0,1,-2
1480534283450867,3,5,-1,-2,-2,-2,-2,-1
1480534283452872,3,0,0,1,1,0,-1,0
1480534283452872,-7,-10,-1,-1,-2,0,0,-1
1480534283474429,2,2,-1,-2,0,-1,-1,-2
1480534283474429,-1,-1,-1,-2,-1,-3,-1,1
1480534283480947,6,1,0,0,0,0,0,0
1480534283480947,6,7,0,2,1,-1,1,1
1480534283487965,0,13,1,0,0,0,-2,-1
1480534283487965,-15,-17,-5,-3,-3,-1,-2,-3
1480534283494483,1,0,2,0,0,-1,0,0
1480534283494483,0,-1,1,-1,-2,-2,-2,-1
1480534283511026,2,1,0,0,0,0,-1,0
1480534283511026,2,5,0,1,0,0,0,1
1480534283512531,5,7,0,-1,-3,-1,0,2
1480534283512531,7,3,-2,-1,1,-2,-1,-1
1480534283533588,-26,-19,-2,-1,-1,-1,-2,-4
1480534283533588,2,5,0,1,0,0,-1,-3
1480534283535091,-5,-5,-2,-2,-1,0,-1,-1
1480534283535091,10,8,1,0,0,-2,0,1
1480534283548126,6,4,1,1,0,0,1,0
1480534283548126,-3,-1,0,0,0,-1,-1,0
1480534283554643,-5,1,-1,0,0,-1,-1,1
1480534283554643,-6,-6,-2,0,1,-1,0,-1
1480534283571581,4,11,-2,0,-3,-2,-1,0
1480534283571581,-4,-8,-2,0,-2,1,0,-1
1480534283572692,-1,-8,-2,-2,-1,-2,-1,-1
1480534283572692,-2,0,0,0,0,0,-1,0
1480534283617313,4,-2,-2,1,1,0,1,2
1480534283617313,13,12,3,2,1,1,1,1
1480534283618813,-2,-1,-4,-1,0,0,0,-2
1480534283618813,-16,-7,-1,-2,-2,-2,-1,-3
1480534283619816,6,0,2,-2,-1,-1,-1,1
1480534283619816,3,2,-1,-3,1,0,1,-1
1480534283633352,10,4,1,0,0,0,0,1
1480534283633352,-5,-8,-3,-2,0,-1,-1,0
1480534283634357,-3,-5,-1,-2,-2,-1,-1,-1
1480534283634357,4,3,-1,0,-1,-1,-1,1
1480534283637363,-6,-4,-1,-2,0,0,0,-1
1480534283637363,2,15,0,0,0,1,0,1
1480534283653405,3,-8,-2,-2,0,-4,1,-1
1480534283653405,-3,0,0,1,-1,-1,-1,0
1480534283659923,-5,-4,0,0,-1,-3,-1,-2
1480534283659923,-8,-6,1,0,0,0,0,-1
1480534283667944,12,8,-2,1,1,0,1,0
1480534283667944,-5,-6,0,-1,-1,-1,-1,-2
1480534283674964,-11,-1,-1,0,-1,-1,0,-2
1480534283674964,2,-1,-1,-3,0,0,-2,-2
1480534283690003,-2,0,-1,0,0,0,-2,1
1480534283690003,6,4,2,1,-1,0,1,1
1480534283699529,0,-4,-1,0,0,0,-2,0
1480534283699529,-4,0,-1,0,1,-1,0,-1
1480534283715069,1,2,1,-2,0,0,-1,-1
1480534283715069,-14,-25,-4,-3,0,-2,0,-4
1480534283717578,6,7,0,1,0,-1,0,1
1480534283717578,8,-1,1,1,-2,0,0,-1
1480534283728104,-12,-5,-2,0,-2,-1,-2,-1
1480534283728104,5,10,-2,0,0,0,0,3
1480534283736125,-7,0,-1,-2,-1,0,-2,-1
1480534283736125,0,-7,-1,1,0,-1,-2,0
1480534283750667,-1,1,1,0,1,-2,-2,-1
1480534283750667,-6,-5,-2,0,-1,-1,-2,-1
1480534283757182,6,3,0,0,0,-1,-1,0
1480534283757182,2,4,-1,-1,-2,0,0,2
1480534283774227,3,-2,0,0,0,-1,0,-3
1480534283774227,0,1,2,-2,-1,-1,1,0
1480534283775731,2,3,0,-1,1,0,0,-2
1480534283775731,-12,-20,-1,-1,-1,-1,0,-1
1480534283787263,-4,0,-2,-1,0,1,0,1
1480534283787263,1,-7,-3,-1,-2,1,0,-2
1480534283796285,6,2,0,0,-1,1,-1,0
1480534283796285,4,6,-1,1,-1,-1,-1,-1
1480534283810824,4,1,1,0,1,0,-1,0
1480534283810824,2,-1,0,-1,-2,1,-1,-1
1480534283812829,-21,-16,-4,-2,-2,0,-1,-2
1480534283812829,4,0,0,-1,-2,-2,-3,1
1480534283833384,0,-2,-2,0,0,-1,1,0
1480534283833384,2,5,-1,0,1,0,0,1
1480534283835390,3,-1,0,-1,0,1,0,2
1480534283835390,0,0,-1,0,-1,-1,0,-1
1480534283847421,0,-1,0,-2,-3,-1,1,-2
1480534283847421,-2,-1,-1,-1,-2,-2,0,0
1480534283856445,7,6,-2,0,0,-1,1,0
1480534283856445,-18,-8,-2,-1,0,0,0,1
1480534283870984,-1,-2,-1,-1,0,-2,-1,-2
1480534283870984,-6,-6,2,0,0,-1,-1,0
1480534283872490,8,5,0,-1,-2,-1,-1,1
1480534283872490,5,6,-1,-1,0,0,-1,-1
1480534283893544,-1,-6,-1,-1,-1,-2,0,-2
1480534283893544,1,-4,-1,0,-1,-2,-1,0
1480534283895049,-1,0,2,1,0,-2,-1,1
1480534283895049,0,9,-1,0,0,-1,0,0
1480534283907081,-13,-14,-2,0,-3,0,0,-1
1480534283907081,5,11,-1,-2,-1,-2,-2,-1
1480534283916606,-3,-11,-2,0,-2,-1,-1,1
1480534283916606,7,3,1,-1,-1,-1,0,0
1480534283931145,-6,-9,-3,-1,-1,-2,-1,0
1480534283931145,-1,9,0,1,1,0,1,-1
1480534283932648,2,-6,0,0,-2,0,0,0
1480534283932648,2,1,1,0,0,-2,-2,0
1480534283960722,2,1,0,-1,1,0,-1,-2
1480534283960722,-2,-2,-2,0,-1,-1,0,0
1480534283967741,-4,-4,-1,-1,-1,-1,-1,-1
1480534283967741,3,0,-1,1,0,0,1,0
1480534283976264,3,1,-1,1,-2,1,0,2
1480534283976264,-4,-5,1,-1,0,0,-2,-2
1480534283977768,2,5,0,0,2,0,0,-1
1480534283977768,0,-3,-1,-2,-2,0,1,0
1480534283991304,3,4,-1,0,1,0,-1,0
1480534283991304,-2,-4,0,-1,0,0,0,-1
1480534283992809,-3,-4,-2,-1,-1,-2,1,-3
1480534283992809,-4,-1,0,0,-1,-1,0,0
1480534284013362,0,0,0,0,-1,-2,-1,-2
1480534284013362,2,-2,-2,-1,-2,0,-1,0
1480534284015369,-4,2,0,-1,0,0,0,0
1480534284015369,-2,-2,-2,-1,-2,0,0,-2
1480534284027400,4,-2,0,0,-1,-1,0,2
1480534284027400,-1,2,0,0,-1,0,0,0
1480534284035932,-3,-2,-1,0,1,0,-2,1
1480534284035932,7,4,1,-2,0,0,-2,1
1480534284051464,-8,0,0,-1,-1,0,0,-2
1480534284051464,-8,0,-1,0,-2,-2,0,-3
1480534284056990,0,-9,-1,-1,-1,0,0,-1
1480534284056990,5,0,-2,0,0,-1,-1,0
1480534284073522,3,8,1,0,-1,0,-1,-1
1480534284073522,1,-4,1,-1,-2,0,-1,-1
1480534284075028,-1,0,-3,-1,0,0,2,-1
1480534284075028,4,2,-1,0,-1,0,-1,1
1480534284087058,2,-1,-2,-1,-2,-3,0,0
1480534284087058,-5,0,0,0,0,-1,-1,0
1480534284096083,-3,-2,0,0,-3,-3,-1,0
1480534284096083,-3,-2,0,-1,-1,0,-1,-1
1480534284111122,4,-2,-1,-2,0,0,-1,0
1480534284111122,1,8,0,0,0,-1,0,-1
1480534284112627,-9,-12,-1,-1,-3,-1,-2,-2
1480534284112627,0,0,-1,1,-1,-1,-1,-2
1480534284133687,0,0,-1,1,1,0,0,3
1480534284133687,-4,-8,-1,1,1,0,0,0
1480534284135190,6,8,0,-1,0,-1,0,-1
1480534284135190,-7,-6,0,-2,0,-1,0,-3
1480534284147720,2,-1,0,-1,-2,0,0,-1
1480534284147720,10,3,-1,0,1,-1,0,0
1480534284156243,-11,-4,-1,-3,0,1,-2,-2
1480534284156243,0,-2,-2,0,-1,0,1,-2
1480534284170281,0,1,0,0,1,0,-2,-2
1480534284170281,1,-5,0,1,0,-1,-1,1
1480534284177299,1,1,0,-1,0,-2,-3,-1
1480534284177299,0,4,1,1,0,-1,-1,1
1480534284193342,0,-1,1,-3,0,-1,-1,-1
1480534284193342,-3,-2,-1,-1,-1,1,1,-1
1480534284195347,11,7,0,1,-1,0,-1,1
1480534284195347,-5,6,-1,0,-1,0,0,1
1480534284214899,-9,-12,-4,-1,-1,-1,-2,-5
1480534284214899,-4,0,-2,-1,-1,0,-2,0
1480534284224425,-4,-4,-1,0,0,-1,0,-2
1480534284224425,5,-1,-1,1,-2,-1,-1,1
1480534284245982,5,6,1,0,-1,0,0,0
1480534284245982,6,6,0,0,-1,-1,0,0
1480534284247486,-10,-2,0,-3,-1,-2,-2,-1
1480534284247486,-2,-4,0,-1,-1,1,-1,-1
1480534284253501,3,6,0,1,-1,-1,0,1
1480534284253501,-1,-1,-1,-3,-2,0,1,-1
1480534284255006,-7,-7,-2,0,0,-1,-1,-2
1480534284255006,-3,0,-1,-1,1,0,0,-2
1480534284276061,9,7,0,-1,0,-2,-1,1
1480534284276061,-8,1,-1,0,-1,0,0,-1
1480534284277565,3,-1,-2,0,-3,-1,0,-2
1480534284277565,-11,-12,-1,-3,0,-1,0,-3
1480534284291102,3,-1,0,1,-1,0,0,-1
1480534284291102,2,-2,0,0,0,-1,-1,-1
1480534284292606,1,1,-1,1,0,0,1,1
1480534284292606,2,-1,0,0,-1,0,1,-1
1480534284313661,1,3,-1,-2,-1,0,-1,0
1480534284313661,-7,-15,-2,-1,-2,0,-1,-2
1480534284317171,2,5,1,1,1,1,1,-1
1480534284317171,1,2,-3,0,-1,0,0,0
1480534284343742,-6,-6,0,-2,1,-2,-1,-1
1480534284343742,3,2,-2,-2,1,1,-1,1
1480534284345246,2,9,1,0,0,0,-1,1
1480534284345246,-11,-19,-2,-3,-2,-2,-1,-3
1480534284351770,-17,0,0,-1,-1,-1,0,-2
1480534284351770,-2,0,0,0,-1,0,-2,0
1480534284353267,4,-2,0,-1,-1,0,0,0
1480534284353267,7,11,0,0,2,1,-1,1
1480534284373320,1,3,0,0,1,0,1,0
1480534284373320,-5,-11,0,-2,-1,-1,-1,-1
1480534284375342,1,4,-2,-1,0,-1,2,0
1480534284375342,-2,-1,0,1,0,0,-1,-1
1480534284395880,-1,-8,-4,0,0,0,-1,0
1480534284395880,4,6,-1,0,-1,-1,-1,-1
1480534284397886,-3,-4,1,-1,-1,-1,-2,-1
1480534284397886,1,-7,-1,-2,-1,-1,0,2
1480534284410420,5,9,1,0,1,-1,0,-1
1480534284410420,-11,-17,-3,0,0,-1,-1,-2
1480534284433982,3,-3,-1,0,-1,0,-1,-1
1480534284433982,4,0,1,0,0,0,0,-1
1480534284434984,1,6,-3,0,0,2,0,-1
1480534284434984,5,1,0,-1,-1,-2,-1,0
1480534284436493,-13,-20,-4,-2,-1,0,-1,-3
1480534284436493,4,9,1,0,-1,-1,-1,0
1480534284456040,3,-5,0,-1,0,1,-2,1
1480534284456040,-1,3,-1,1,0,0,0,-2
1480534284457545,-1,-4,0,0,-2,-1,-1,2
1480534284457545,1,1,-1,0,0,-1,-1,-1
1480534284471086,1,-2,0,-2,-1,-1,-1,-2
1480534284471086,-11,-4,-2,-2,-2,-1,0,0
1480534284484620,9,10,0,1,0,-1,0,-1
1480534284484620,0,3,-2,-2,-1,-1,1,-1
1480534284493640,-6,-12,-1,0,-1,-3,-2,-1
1480534284493640,9,9,0,1,-1,-1,0,1
1480534284495144,1,-5,0,0,0,1,3,-1
1480534284495144,-4,3,0,0,1,0,0,0
1480534284515699,-5,-1,-1,-2,-1,1,-2,-2
1480534284515699,-2,-4,-2,-2,-2,0,0,-2
1480534284522216,2,6,-1,1,0,-3,-2,1
1480534284522216,2,-2,-1,2,0,0,-1,-1
1480534284530238,2,1,2,-1,-1,0,0,1
1480534284530238,1,1,-1,0,-1,1,-1,-1
1480534284537256,1,0,-1,-2,0,0,-1,-2
1480534284537256,-1,-1,-1,0,-2,-2,-1,-3
1480534284554302,0,4,-3,2,0,-2,-1,1
1480534284554302,3,-5,-1,0,0,0,0,1
1480534284555806,-2,-2,1,0,0,-2,0,2
1480534284555806,0,3,-1,-2,1,-1,-1,-1
1480534284575859,-7,-4,-4,0,-2,-1,-1,0
1480534284575859,-6,-3,0,0,-1,-1,1,0
1480534284577864,3,1,0,-2,-1,0,-2,-1
1480534284577864,4,-1,0,1,-2,1,-1,1
1480534284590899,7,5,0,-2,0,-1,1,0
1480534284590899,-21,-24,-4,-3,-1,-1,-2,-3
1480534284598920,-2,10,-1,1,0,-2,0,-3
1480534284598920,-5,-7,-3,-2,1,-1,-2,1
1480534284613459,9,11,0,-1,-1,1,1,1
1480534284613459,5,-1,0,-2,-1,-2,-1,1
1480534284614963,-2,-3,-1,-1,0,1,1,1
1480534284614963,1,-3,-1,1,-1,-1,-1,0
1480534284636019,0,-5,2,1,-2,0,1,0
1480534284636019,3,7,-1,0,1,0,0,1
1480534284637523,-6,-7,-3,0,-2,0,-2,0
1480534284637523,1,2,-1,0,1,0,-1,-3
1480534284650558,-4,-12,0,1,-1,-1,1,0
1480534284650558,12,15,1,1,0,-1,1,1
1480534284657076,-4,-13,-2,-3,-2,-2,-1,-2
1480534284657076,-5,2,0,-1,0,0,-1,0
1480534284673619,-2,-2,-2,0,-2,0,-1,-2
1480534284673619,6,3,1,2,-1,-1,-1,-1
1480534284676126,11,10,1,0,1,1,1,2
1480534284676126,2,4,0,1,-1,0,2,2
1480534284696180,-8,-2,0,0,-1,0,-1,-2
1480534284696180,-1,0,-1,-2,-2,-1,-1,-2
1480534284697683,-8,-11,-1,-1,-1,-2,-1,-2
1480534284697683,-1,-4,0,-2,0,1,0,-1
1480534284709715,7,11,-1,1,1,0,1,0
1480534284709715,-2,-8,0,-1,-2,0,-2,-1
1480534284724755,0,-1,0,1,0,-1,0,-1
1480534284724755,3,0,1,0,-1,-1,0,-1
1480534284733780,4,4,-2,0,0,-1,0,-1
1480534284733780,-11,-9,-1,-1,-1,-1,-1,-2
1480534284739795,0,1,-1,1,-1,2,-1,0
1480534284739795,2,-1,-3,-1,-1,-2,0,-1
1480534284755837,-4,-3,-2,-2,-2,0,-2,-2
1480534284755837,-2,-6,-2,-1,0,0,-1,0
1480534284757843,10,10,2,-1,-1,-2,0,1
1480534284757843,-5,1,1,-1,-1,-1,-1,0
1480534284769876,-3,-2,-1,0,-2,-2,0,0
1480534284769876,-6,-7,-2,-2,-2,-2,0,-1
1480534284778900,4,7,0,0,0,-1,-1,0
1480534284778900,-8,-15,-2,-1,0,-1,-1,-3
1480534284794441,1,-7,1,-1,2,-1,-2,0
1480534284794441,-1,8,0,1,0,0,0,0
1480534284795944,1,0,-1,0,0,-1,0,-1
1480534284795944,2,5,0,-1,-1,-1,1,0
1480534284815998,-2,-4,-1,-2,-2,-1,-1,-2
1480534284815998,1,6,1,1,2,0,0,2
1480534284817512,-4,-2,1,0,1,0,-2,-2
1480534284817512,1,0,1,-1,1,-1,-2,2
1480534284830035,2,-5,-1,0,-1,1,1,1
1480534284830035,-3,0,-2,-2,-2,1,0,-2
1480534284838559,-4,-1,0,-2,-2,-1,0,-1
1480534284838559,3,1,0,-1,-2,-1,-1,0
1480534284853598,-2,-7,0,-1,0,-1,-1,1
1480534284853598,4,8,0,0,1,-1,-1,-1
1480534284855102,-4,-13,-3,-2,-2,-2,-1,-1
1480534284855102,-3,-1,-1,-2,-1,0,-2,-1
1480534284876159,3,3,0,-1,-1,-1,0,-2
1480534284876159,3,2,0,0,0,-1,1,1
1480534284877662,-6,0,-1,-1,-2,-1,-3,-1
1480534284877662,0,0,-1,0,-2,1,-1,-1
1480534284889694,0,-3,-2,-1,-1,-1,1,0
1480534284889694,1,6,1,0,1,1,0,0
1480534284898717,5,3,0,-1,1,-1,2,0
1480534284898717,-9,-10,-2,-1,0,-1,0,-2
1480534284913758,-1,4,1,0,-1,-2,-2,-2
1480534284913758,1,-9,-1,-1,-3,0,0,-1
1480534284915263,-2,2,-1,-2,0,0,0,-1
1480534284915263,-2,-3,-1,0,-1,0,0,-2
1480534284936321,4,3,-2,-2,-1,0,0,0
1480534284936321,-4,-9,-1,1,0,-1,-2,0
1480534284937821,-1,6,-2,-1,-2,-2,-1,-1
1480534284937821,-6,-16,-3,0,-1,-2,-1,-1
1480534284949855,-1,-3,1,0,0,-2,1,-1
1480534284949855,-6,-1,0,-2,-1,-2,1,-1
1480534284966901,7,4,0,1,-1,0,0,0
1480534284966901,3,9,-3,1,-1,1,1,0
1480534284973918,-13,-17,-2,-1,-2,-2,-2,-2
1480534284973918,5,4,0,0,-2,-1,-2,0
1480534284975421,5,2,0,0,1,-1,0,0
1480534284975421,-10,-2,-2,-2,0,0,0,-1
1480534284994974,0,-2,-1,-1,0,0,0,-1
1480534284994974,8,1,0,1,-2,-2,0,1
1480534285004013,3,4,-2,0,-2,-1,-2,-1
1480534285004013,-2,-5,-1,-2,-1,-1,-1,0
1480534285019038,-3,0,1,1,-1,0,1,0
1480534285019038,-1,-3,-1,-2,1,0,0,-2
1480534285021043,5,2,-1,2,0,2,0,0
1480534285021043,2,-1,1,1,0,0,0,0
1480534285033579,-4,0,-1,-1,0,-1,-1,-1
1480534285033579,7,11,0,-1,1,1,-1,0
1480534285035081,-7,-12,0,-2,-2,1,0,-1
1480534285035081,-3,-2,1,-2,1,-2,-2,-2
1480534285056137,2,-6,-1,0,0,0,-2,-1
1480534285056137,1,9,2,0,0,0,0,1
1480534285057641,-16,-21,-3,-2,-1,-1,-2,-1
1480534285057641,3,7,-2,1,-1,-2,0,0
1480534285078696,0,7,0,0,2,-1,1,0
1480534285078696,3,0,-1,0,-2,0,0,0
1480534285080201,8,6,1,0,0,-3,0,1
1480534285080201,-4,0,-2,0,0,-2,0,-1
1480534285093739,-4,-6,-2,-1,-1,0,0,0
1480534285093739,0,0,-2,-1,-2,-2,-1,0
1480534285095241,-3,-1,0,-1,1,1,-1,-1
1480534285095241,6,-2,2,-1,-3,-2,0,1
1480534285115796,3,3,0,-1,-1,1,-2,-1
1480534285115796,-5,-9,-1,-2,-1,-2,0,-3
1480534285130334,-7,-3,-1,0,-1,-1,0,0
1480534285130334,3,0,-1,-1,-2,-1,0,-1
1480534285131337,3,5,1,1,-2,1,-1,1
1480534285131337,9,4,2,0,-2,1,-1,1
1480534285144872,-8,5,-1,-2,-1,-2,1,0
1480534285144872,5,-6,-2,-1,0,0,0,-3
1480534285153396,-12,0,-1,0,-2,-2,0,-1
1480534285153396,4,0,0,1,1,0,-1,-1
1480534285176458,8,8,0,0,-1,1,0,0
1480534285176458,4,3,1,-2,-1,1,-1,0
1480534285177459,2,1,-2,-1,0,-1,0,-1
1480534285177459,-7,-13,-2,0,-1,-3,1,-1
1480534285178964,-2,-2,1,-1,-2,-2,0,1
1480534285178964,-1,2,-1,0,0,-1,1,-1
1480534285198517,3,-1,-3,0,-1,0,-1,0
1480534285198517,-2,1,-2,0,0,-1,0,0
1480534285200020,-1,-6,-1,-1,-1,1,-1,-1
1480534285200020,3,1,-1,0,-1,-2,-1,0
1480534285214056,2,0,-1,-1,-1,-1,-1,0
1480534285214056,-15,-11,-3,-3,-1,-1,-1,-2
1480534285215561,3,-1,-1,2,-1,0,-2,0
1480534285215561,1,5,-1,2,0,1,-1,-2
1480534285243635,-4,-8,0,-1,-1,0,-1,0
1480534285243635,3,-1,-1,0,-1,0,0,0
1480534285245139,4,5,0,0,1,0,1,-1
1480534285245139,-8,-10,-2,0,-1,-1,0,-1
1480534285258675,6,8,3,-1,0,-2,0,-1
1480534285258675,-2,-5,0,-2,-1,-1,-1,0
1480534285260180,1,-1,-2,-2,-1,-1,0,-1
1480534285260180,5,2,0,0,1,2,-2,1
1480534285272712,-2,-3,-1,-1,1,-1,-1,1
1480534285272712,-6,-5,-1,-2,-1,-1,-2,-3
1480534285282238,-2,3,-1,0,0,-1,1,1
1480534285282238,1,2,0,0,1,-1,0,1
1480534285296275,2,2,-1,-1,0,-1,0,0
1480534285296275,-6,1,0,-1,-1,-1,0,1
1480534285297779,2,0,-1,1,2,0,-1,-1
1480534285297779,3,1,-3,-2,-1,-1,-2,-4
1480534285326355,-9,-6,-1,0,0,0,-1,0
1480534285326355,3,0,0,1,0,-2,-2,0
1480534285333376,-4,-9,-2,-1,-2,0,-2,-2
1480534285333376,1,4,1,-2,-1,-1,0,2
1480534285334377,3,-3,-2,1,-1,-1,0,-2
1480534285334377,4,4,-2,-1,-1,-1,0,0
1480534285339891,2,2,0,0,-1,0,-3,-1
1480534285339891,-12,-15,1,0,-1,-1,-2,1
1480534285355934,1,4,0,0,-1,-1,-1,1
1480534285355934,-3,-4,0,0,0,0,-2,-2
1480534285357438,0,0,-2,-1,-1,-1,0,-1
1480534285357438,-1,3,0,-1,-1,1,1,1
1480534285386014,-2,-6,-1,-2,-2,-3,-1,-1
1480534285386014,5,0,-2,0,2,0,-1,2
1480534285387518,0,-1,-1,0,1,0,-2,1
1480534285387518,-2,4,-1,-1,-2,0,0,0
1480534285393032,1,-1,-2,-2,0,-2,-1,-2
1480534285393032,-12,1,-1,-1,-2,0,-2,-2
1480534285399551,-6,-7,-2,-2,0,-1,-3,-3
1480534285399551,-2,0,-1,0,0,-2,-1,-1
1480534285423614,1,2,0,0,1,1,0,0
1480534285423614,12,8,1,-1,0,1,0,1
1480534285425118,-3,-3,0,-2,0,-1,0,-1
1480534285425118,-3,-8,-1,0,-2,1,-1,-1
1480534285438656,4,4,-3,-1,-1,-1,0,0
1480534285438656,-3,-3,0,-1,-2,0,1,-1
1480534285440158,-4,-6,-2,-1,-1,0,0,-2
1480534285440158,3,3,1,0,-1,-2,-1,0
1480534285453694,-1,0,2,1,1,1,-3,-2
1480534285453694,-2,-9,-1,-1,-1,0,-1,1
1480534285461214,2,5,2,-1,-1,-1,-1,0
1480534285461214,1,-4,-1,-2,0,-2,0,0
1480534285475753,1,-5,-2,-2,-1,2,1,-1
1480534285475753,-6,-3,-1,-1,-2,0,-1,-2
1480534285482270,3,-4,0,0,0,0,1,-1
1480534285482270,-4,-2,-1,0,-1,-1,-1,-2
1480534285500319,3,4,0,1,-2,-1,-1,2
1480534285500319,8,5,0,-1,0,0,1,1
1480534285504332,-9,-9,-1,0,-2,-1,0,0
1480534285504332,-3,-2,-1,0,0,0,0,-2
1480534285512851,-5,-7,0,-1,-2,-2,0,-1
1480534285512851,7,15,0,1,0,0,0,1
1480534285519870,-7,-15,-1,1,1,0,1,-1
1480534285519870,4,9,0,-1,0,-1,-1,-1
1480534285535916,-6,-4,1,-2,0,0,1,0
1480534285535916,15,4,1,0,-1,-1,-3,-1
1480534285537417,-16,-6,-1,-2,-1,-1,0,0
1480534285537417,-6,-6,-2,1,0,-1,0,0
1480534285558472,8,14,2,-1,-1,0,0,2
1480534285558472,-12,-17,-3,-2,0,0,0,0
1480534285559977,7,9,-2,-1,-3,-2,-2,1
1480534285559977,0,1,0,1,-2,0,1,0
1480534285573512,-7,-11,-1,0,-1,-1,1,0
1480534285573512,6,4,1,0,-1,-1,2,1
1480534285579529,8,4,0,0,0,2,1,0
1480534285579529,6,3,-1,-1,0,0,-2,2
1480534285596075,-11,-4,-1,-1,-2,1,-1,-4
1480534285596075,-10,-1,-1,0,0,-1,0,-4
1480534285597577,-5,-7,-2,-1,-1,-1,0,-1
1480534285597577,3,10,1,-1,-2,-1,0,2
1480534285618633,7,-4,0,0,-1,-1,-1,1
1480534285618633,-1,2,-2,1,1,-3,-1,0
1480534285620137,2,1,0,0,0,0,0,1
1480534285620137,-3,-4,0,-1,0,0,1,0
1480534285632670,-2,4,-2,0,0,-2,-3,-3
1480534285632670,-16,-17,-3,-2,-1,0,-1,0
1480534285640191,11,12,1,2,-1,-1,0,0
1480534285640191,2,-2,2,-1,-1,-1,-1,-1
1480534285655230,11,14,1,-1,0,0,1,2
1480534285655230,-15,-16,-3,-4,-2,0,-1,-3
1480534285663753,0,-5,-2,-1,0,-1,0,-1
1480534285663753,-9,-4,-1,0,0,0,-1,-1
1480534285678291,0,-11,0,0,-1,-1,-1,0
1480534285678291,8,4,-1,0,-1,-1,0,2
1480534285680296,1,4,0,0,0,0,1,0
1480534285680296,-9,-6,-1,0,-2,0,-1,-2
1480534285692330,-4,-1,0,-2,1,-1,0,0
1480534285692330,6,5,1,-1,-2,-2,-1,0
1480534285701353,3,5,2,0,-2,0,0,-1
1480534285701353,5,-1,-1,-2,-1,0,0,-1
1480534285715892,0,3,-3,0,0,1,-1,-1
1480534285715892,-6,-13,0,-1,0,-1,-1,-1
1480534285717399,-4,-1,-3,-2,-1,-1,-2,-3
1480534285717399,3,1,-1,0,-1,0,0,0
1480534285738452,2,0,-1,1,-1,-2,0,1
1480534285738452,8,11,1,0,0,-1,1,0
1480534285739956,-1,-10,1,-1,-2,0,-1,0
1480534285739956,-2,1,-1,-2,0,-1,0,-1
1480534285751991,-1,-1,-1,0,-1,-1,0,-1
1480534285751991,6,3,-1,1,2,2,-1,0
1480534285761012,-1,1,-1,-1,-1,-2,-1,1
1480534285761012,-1,3,-1,-2,-1,-2,-2,-3
1480534285777055,-8,-8,-1,-2,-2,0,-1,-1
1480534285777055,-1,2,-1,-1,-1,0,0,-1
1480534285779562,2,5,1,0,-1,1,-1,-1
1480534285779562,-2,-3,-1,0,0,0,-1,0
1480534285799615,-2,-2,0,-3,-1,-1,0,-2
1480534285799615,5,-2,-2,0,-1,-1,-2,-1
1480534285802122,-5,1,-1,1,0,1,0,-1
1480534285802122,4,-6,0,-2,-2,-3,-2,0
1480534285812147,-8,3,-2,-1,-2,0,-1,-2
1480534285812147,-4,-5,0,-1,-3,-1,-2,-1
1480534285821171,7,3,0,-1,-1,-1,0,-1
1480534285821171,2,1,-1,0,0,0,0,1
1480534285836344,-4,-5,-1,1,0,1,0,-1
1480534285836344,6,4,2,-1,-1,-1,-1,-1
1480534285837716,-1,-1,-1,0,-1,-1,1,0
1480534285837716,-7,-3,-3,-1,-1,0,-1,0
1480534285858771,3,1,0,-2,0,1,-1,-1
1480534285858771,2,4,-1,1,0,-2,1,2
1480534285860276,-6,-12,-2,-3,-1,-1,-1,0
1480534285860276,-5,-5,0,-1,-1,-1,0,-1
1480534285872307,2,4,0,-1,0,-2,0,0
1480534285872307,-4,-13,-1,0,-1,2,0,2
1480534285882336,-6,3,-1,-1,-1,-1,-1,-2
1480534285882336,0,-2,-2,-1,-1,-1,-2,-1
1480534285896873,2,-6,0,0,-1,-4,0,0
1480534285896873,8,9,1,-2,1,0,-1,0
1480534285899380,-4,-7,-2,0,-1,1,0,-1
1480534285899380,-4,-8,-1,-1,-1,0,0,-1
1480534285918432,1,3,0,-2,-1,1,0,-2
1480534285918432,-4,1,-2,-1,-1,-2,0,0
1480534285919935,1,-1,-1,0,-2,-2,-1,-1
1480534285919935,1,4,-2,0,1,0,0,0
1480534285941493,3,-6,-1,-1,-1,-2,0,0
1480534285941493,-8,-4,-1,-1,-1,1,1,-2
1480534285942996,-2,-1,1,0,-1,1,-1,-1
1480534285942996,-1,3,0,0,0,-1,-2,0
1480534285956030,2,5,0,0,-3,-1,-1,1
1480534285956030,-6,-8,-2,-1,-1,-1,-1,-1
1480534285958537,7,9,0,1,0,-1,1,0
1480534285958537,-6,-10,-1,-1,-2,1,1,-1
1480534285978590,0,-2,-1,0,0,0,-1,0
1480534285978590,5,-3,-2,1,-1,0,-1,-2
1480534285980096,3,1,0,-1,0,-1,-1,0
1480534285980096,1,3,0,0,0,1,-1,0
1480534285992127,-11,-13,-3,-2,-1,-2,-1,-2
1480534285992127,2,4,0,-2,0,0,0,0
1480534286002155,0,1,-1,0,0,0,-1,0
