timestamp,x,y,z
1480534269837891,0.375,-0.0625,-0.1875
1480534269854435,1.0625,0.125,0
1480534269876995,0.4375,0.125,-0.3125
1480534269898051,0.3125,-0.25,-0.625
1480534269915096,0.4375,-0.4375,-0.6875
1480534269944675,0.3125,-0.625,-0.5625
1480534269958211,0.1875,-0.75,-0.5
1480534269981774,0.5625,-0.75,-0.5625
1480534270002937,0.8125,-0.6875,-0.25
1480534270019482,0.8125,-0.75,-0.1875
1480534270036026,0.6875,-0.625,-0.3125
1480534270057091,0.3125,-0.5625,-0.125
1480534270079641,-0.0625,-0.625,-0.4375
1480534270094682,0.9375,-0.5625,-0.5
1480534270116740,1.3125,-0.5625,-0.1875
1480534270139299,0.375,-0.6875,-0.3125
1480534270153841,0.125,-0.9375,-0.3125
1480534270176899,0.5625,-0.75,-0.125
1480534270223022,0.6875,-0.625,-0.1875
1480534270228036,0.25,-0.625,-0.1875
1480534270237063,0.1875,-0.4375,-0.25
1480534270259620,0.25,-0.0625,-0.1875
1480534270274660,0.1875,0.125,-0.3125
1480534270296718,0.3125,0.1875,-0.25
1480534270319783,0.1875,0.0625,-0.1875
1480534270333817,0.25,0,-0.0625
1480534270356878,0.0625,-0.125,0
1480534270380441,0.0625,-0.375,0
1480534270393977,0.25,-0.6875,0.125
1480534270416537,0.4375,-0.8125,-0.0625
1480534270439599,0.4375,-0.875,-0.1875
1480534270453637,0.6875,-0.75,0
1480534270477198,0.5625,-0.875,0.0625
1480534270499264,0.3125,-0.6875,0.125
1480534270520817,0.375,-0.4375,0.0625
1480534270537527,-0.375,-0.25,0.25
1480534270565433,0.125,-0.0625,-0.0625
1480534270580473,0.9375,0.4375,0.4375
1480534270597017,0.0625,0.5625,0.25
1480534270619579,-0.25,0.1875,0.0625
1480534270642137,-0.3125,0.25,-0.25
1480534270657678,-0.375,0.375,-0.4375
1480534270679737,-0.6875,0.5,-0.375
1480534270700292,0.0625,0.4375,-0.25
1480534270716836,0.125,0.4375,0
1480534270739396,-0.125,0.25,0
1480534270760452,-0.25,0.3125,0.3125
1480534270777497,-0.8125,0.1875,0.3125
1480534270800058,-0.5,0.1875,-0.0625
1480534270820612,0.5625,0.25,0.125
1480534270837657,0.375,0.25,0.125
1480534270859716,-0.25,-0.125,0.125
1480534270880270,-0.625,-0.25,0.25
1480534270897817,-0.0625,-0.1875,0.1875
1480534270919376,-0.25,-0.125,0.4375
1480534270941934,-0.6875,-0.125,0.1875
1480534270957477,-0.5,-0.0625,0.3125
1480534270980037,-0.8125,0.125,0
1480534271008110,-0.375,0.3125,0.3125
1480534271017135,-0.5625,0.4375,0.125
1480534271054735,-0.625,0.375,0.3125
1480534271064260,-0.75,0.25,0.125
1480534271076293,-0.4375,0.3125,0.4375
1480534271100857,-0.875,0,0.4375
1480534271121914,-1.0625,-0.1875,0.25
1480534271136455,-0.5,-0.0625,0.375
1480534271159514,-0.125,0.125,0.4375
1480534271182074,-0.625,-0.125,0.5625
1480534271196111,-1,-0.125,0.625
1480534271219677,-1,0.1875,0.6875
1480534271250255,-0.8125,0.0625,0.4375
1480534271256772,0.1875,0.5,0.5
1480534271285348,0,0.5625,0.625
1480534271301892,-0.75,0.25,0.3125
1480534271330468,-0.6875,0.125,0.1875
1480534271339492,-0.75,0.125,0.125
1480534271362052,-1.3125,0.125,0
1480534271383108,-0.9375,0,0.125
1480534271407172,-0.0625,0,0.0625
1480534271421710,0.1875,0.0625,0.25
1480534271442768,-0.25,0.1875,0.3125
1480534271460314,-0.25,0.125,0.125
1480534271481871,-0.375,0,0.1875
1480534271510447,0.3125,-0.0625,-0.125
1480534271519473,1.0625,-0.0625,-0.0625
1480534271542532,0.3125,-0.3125,-0.0625
1480534271563087,-0.0625,-0.625,-0.25
1480534271579631,0.5625,-0.75,-0.25
1480534271602191,1.125,-0.4375,-0.125
1480534271630766,0.875,-0.25,-0.3125
1480534271639792,-0.0625,-0.25,-0.1875
1480534271661849,0,-0.0625,-0.1875
1480534271682905,0.625,0.1875,-0.3125
1480534271699450,0.8125,0.375,-0.4375
1480534271729529,0.6875,0.4375,-0.3125
1480534271743065,0.3125,0.1875,-0.375
1480534271759622,0.1875,0,-0.1875
1480534271781669,0.25,-0.125,-0.125
1480534271803227,0.25,-0.3125,-0.0625
1480534271819269,0,-0.6875,-0.0625
1480534271856368,0.1875,-0.625,-0.3125
1480534271862885,0.3125,-0.625,-0.1875
1480534271886952,0.375,-0.5,0.125
1480534271901988,-0.5,-0.75,0.1875
1480534271924548,-0.5,-0.875,-0.0625
1480534271939591,1.125,-0.6875,0.3125
1480534271962149,0.5,-0.8125,-0.125
1480534271990725,0.25,-1.25,-0.8125
1480534272000250,0.6875,-1.4375,-1.25
1480534272022810,0.6875,-1.6875,-1.6875
1480534272045871,0.875,-2,-2
1480534272060410,1.4375,-2.0625,-2.0625
1480534272082468,2.1875,-2.125,-1.9375
1480534272112048,2.125,-2.3125,-2
1480534272119066,2.0625,-2.1875,-2.125
1480534272142127,1.9375,-1.875,-1.875
1480534272165691,1.25,-1.75,-2.0625
1480534272179226,1.625,-1.4375,-2.25
1480534272201786,2.4375,-0.8125,-1.9375
1480534272224346,1.6875,-0.5625,-1.9375
1480534272252925,1.125,-0.5,-1.875
1480534272261946,0.875,-0.25,-1.875
1480534272285007,1,-0.1875,-1.875
1480534272299547,1.3125,-0.125,-1.8125
1480534272322106,1,-0.375,-1.75
1480534272345167,1.0625,-0.5625,-1.875
1480534272358703,1.3125,-0.625,-1.6875
1480534272381765,1.5,-0.8125,-1.75
1480534272404426,1.875,-0.875,-1.75
1480534272425380,2.1875,-1.125,-1.625
1480534272442426,2.125,-1.25,-1.4375
1480534272464485,1.9375,-1.5,-1.25
1480534272485540,1.625,-1.5,-1.3125
1480534272502087,1.4375,-1.4375,-1.3125
1480534272524645,1.8125,-1.375,-1.1875
1480534272545200,2.25,-1.4375,-1.0625
1480534272562746,2.125,-1.4375,-0.6875
1480534272584305,1.125,-1.5625,-0.8125
1480534272605360,1.875,-1.0625,-1.0625
1480534272636946,2.1875,-0.625,-0.375
1480534272644464,1.3125,-0.625,-0.6875
1480534272665520,1.4375,-0.875,-0.9375
1480534272682064,1.25,-0.5,-0.75
1480534272704623,0.6875,-0.0625,-0.875
1480534272725680,0.25,-0.125,-0.75
1480534272741722,0.8125,0.25,-0.4375
1480534272765285,1.25,0.5,-0.25
1480534272785339,0.5,0.4375,-0.1875
1480534272802889,0.125,0.3125,0.0625
1480534272824443,-0.8125,0.125,-0.25
1480534272847002,0.125,-0.0625,-0.5
1480534272870066,1.5625,-0.0625,-0.25
1480534272884602,0.875,-0.25,-0.25
1480534272907162,0.3125,-0.75,-0.25
1480534272930223,0.5,-0.625,-0.1875
1480534272944261,0.6875,-0.4375,-0.125
1480534272966821,0.3125,-0.3125,-0.25
1480534272981360,-0.0625,-0.3125,-0.1875
1480534273004922,0.125,-0.125,-0.1875
1480534273034501,0.4375,0,0
1480534273041520,0.4375,0.25,-0.0625
1480534273064581,-0.0625,0.1875,-0.125
1480534273087141,0.0625,-0.0625,0.0625
1480534273108197,0.25,-0.0625,-0.25
1480534273124741,0.4375,0.1875,0
1480534273146799,-0.3125,0.1875,0.25
1480534273161338,-0.6875,0.0625,-0.125
1480534273190415,-0.1875,0.125,0.5
1480534273206959,0.0625,0.25,0.3125
1480534273220997,-0.375,0.1875,0.5625
1480534273244561,-0.1875,0.375,0.125
1480534273268123,0.6875,0.375,0.6875
1480534273281157,-0.4375,0.25,0
1480534273304723,0.125,-0.125,0
1480534273332794,0,-0.1875,-0.625
1480534273347834,0.0625,-0.1875,-0.25
1480534273364378,-0.25,-0.4375,-0.625
1480534273386938,-0.0625,-0.3125,-0.125
1480534273407994,0.4375,-0.25,0
1480534273424538,0.1875,-0.0625,0
1480534273454118,0.0625,0,0.0625
1480534273468155,-0.4375,0.1875,0.1875
1480534273485702,-0.4375,0.125,-0.125
1480534273507759,0.375,0.3125,0
1480534273527812,0.0625,0.1875,0.1875
1480534273544358,-0.375,0.1875,-0.0625
1480534273567420,-0.25,0.0625,0.0625
1480534273587973,0,0.0625,-0.125
1480534273604016,0.1875,0.0625,0
1480534273627077,-0.25,0.25,-0.1875
1480534273648134,-0.3125,0.25,0.125
1480534273664176,-0.25,0.625,0.0625
1480534273694757,-0.4375,0.8125,0.125
1480534273710800,-0.75,1,0.3125
1480534273731857,-0.5625,1.125,0.5
1480534273746896,-0.75,1.25,0.75
1480534273767953,-1.3125,1.4375,0.6875
1480534273790512,-1.5625,1.625,0.6875
1480534273807056,-1.8125,1.625,0.8125
1480534273829616,-1.6875,1.375,0.8125
1480534273844154,-1.1875,1.0625,0.9375
1480534273867216,-1.0625,1,1.1875
1480534273889274,-1.1875,0.625,1.125
1480534273903818,-1.8125,0.625,1.5
1480534273926874,-1.25,0.5,1
1480534273949436,-0.125,0.625,1.125
1480534273978010,-0.75,0.5625,1.125
1480534273987037,-1.125,0.375,0.6875
1480534274010096,-0.9375,0.1875,0.4375
1480534274024635,-1.125,0,0.1875
1480534274047195,-1.3125,-0.3125,-0.3125
1480534274069257,-0.5,-0.625,-0.75
1480534274083792,0.5,-1.375,-1.1875
1480534274106868,0.9375,-2.125,-1.5
1480534274129414,0.5625,-3,-2.125
1480534274150970,1.3125,-3.4375,-2.4375
1480534274168518,1.5625,-4.0625,-2
1480534274189573,1.875,-4.25,-2.25
1480534274203611,2.8125,-4,-2.0625
1480534274227674,2.5,-3.375,-1.875
1480534274249733,1.9375,-2.6875,-1.75
1480534274263771,1.8125,-1.9375,-1.375
1480534274287333,1.5625,-1.125,-1.375
1480534274309392,1.375,-0.5625,-1.375
1480534274330448,0.875,0.125,-1.125
1480534274346991,0.625,0.625,-1.125
1480534274369552,0.3125,0.6875,-1.25
1480534274390610,0.5,0.75,-1.25
1480534274407653,1.3125,0.8125,-1.25
1480534274429211,1.5625,0.5,-1.3125
1480534274450267,1.625,0.3125,-1.3125
1480534274459792,1.5,0.0625,-1.3125
1480534274472325,1.8125,-0.125,-1.125
1480534274494886,1.9375,-0.125,-1
1480534274517446,1.9375,-0.1875,-0.8125
1480534274532987,2.0625,-0.1875,-0.6875
1480534274562064,2.0625,-0.125,-0.4375
1480534274577104,1.4375,0.125,-0.1875
1480534274595152,1.125,0.4375,0.1875
1480534274622224,0.75,0.4375,0.5
1480534274638768,0.875,0.6875,0.75
1480534274652306,0.5,0.9375,1.25
1480534274674864,0.4375,1.125,0.8125
1480534274700434,0.625,1.125,1.0625
1480534274712464,-0.125,1.0625,0.75
1480534274751067,0.3125,0.75,0.25
1480534274757083,0.5625,0.3125,0
1480534274775131,0.4375,0.0625,-0.125
1480534274794683,0.25,-0.25,-0.3125
1480534274817243,0.5625,-0.4375,-0.0625
1480534274839805,1.0625,-0.625,0.0625
1480534274854843,1.125,-0.5625,0.25
1480534274878907,1.1875,-0.375,0.0625
1480534274903474,0.875,-0.3125,0.1875
1480534274931045,0.25,-0.1875,0.125
1480534274940070,1.0625,-0.0625,0.0625
1480534274952607,1.25,-0.0625,0.125
1480534274974662,0.25,0.0625,0.125
1480534274997221,0.1875,-0.125,0.0625
1480534275017275,0.6875,-0.25,0.125
1480534275034823,0.75,-0.375,0.0625
1480534275065904,0.25,-0.375,-0.1875
1480534275079941,0.4375,-0.4375,0
1480534275095483,0.875,-0.375,-0.0625
1480534275128571,0.9375,-0.4375,0
1480534275134086,1.0625,-0.375,-0.125
1480534275162160,0.875,-0.4375,-0.125
1480534275185729,0.8125,-0.375,-0.1875
1480534275200262,1.125,-0.4375,-0.1875
1480534275218309,0.9375,-0.4375,-0.4375
1480534275237360,0.75,-0.5,-0.375
1480534275254906,0.4375,-0.5625,-0.375
1480534275274961,0.6875,-0.8125,-0.375
1480534275300028,0.8125,-1,-0.5
1480534275313563,0.9375,-0.9375,-0.5625
1480534275336124,1.1875,-0.9375,-0.375
1480534275358683,0.8125,-1,-0.4375
1480534275373723,0.9375,-0.75,-0.375
1480534275402300,0.625,-0.75,-0.375
1480534275425361,1.125,-0.375,-0.625
1480534275433884,1.4375,-0.0625,0
1480534275454939,0.5,0,-0.1875
1480534275477499,0.375,-0.125,-0.5625
1480534275493541,0.375,-0.125,-0.6875
1480534275531142,0.1875,0,-0.75
1480534275537160,0.125,0.0625,-0.5
1480534275561222,0.25,0.1875,-0.25
1480534275576262,0.4375,0.125,0
1480534275597318,0.375,0.375,-0.1875
1480534275615366,0.3125,0.375,0.125
1480534275636923,-0.375,0.0625,0.0625
1480534275657478,0.375,0.1875,-0.25
1480534275675024,0.8125,0.3125,0.1875
1480534275694577,0.125,0.0625,0.125
1480534275717136,-0.125,0,0.0625
1480534275739699,0.3125,0,0.0625
1480534275754736,0.5625,0.1875,0.0625
1480534275777296,0,0,0.0625
1480534275796347,-0.1875,0.125,0.125
1480534275814896,-0.25,0.3125,0.0625
1480534275838961,-0.1875,0.375,0.125
1480534275860016,-0.0625,0.5,0
1480534275882075,0.25,0.5625,0.125
1480534275898619,0.125,0.5,0.3125
1480534275919675,0,0.4375,0.3125
1480534275934716,-0.1875,0.375,0.125
1480534275957275,-0.375,0.25,0.0625
1480534275980336,0,0.1875,-0.125
1480534275997883,0.25,-0.0625,-0.25
1480534276032475,0.0625,-0.1875,-0.1875
1480534276049520,-0.1875,-0.4375,-0.125
1480534276055536,-0.4375,-0.375,0
1480534276077094,-0.3125,-0.3125,0.1875
1480534276099654,-0.875,0,0.3125
1480534276114694,-0.25,0.375,0.1875
1480534276137256,0.1875,0.625,0.5625
1480534276159813,-0.9375,0.625,0.3125
1480534276174854,-1.25,0.5,0
1480534276204934,-1.125,0.5,-0.25
1480534276219974,-1.1875,0.3125,-0.375
1480534276242534,-1.5625,-0.0625,-0.5625
1480534276257072,-1.25,-0.375,-0.75
1480534276279633,-1.1875,-0.5,-1
1480534276296176,-1.0625,-0.75,-1.0625
1480534276317233,-0.75,-0.875,-1.4375
1480534276347814,-1.375,-0.875,-0.5625
1480534276362352,-2.1875,-0.875,-0.3125
1480534276401965,-1.625,-0.5625,0
1480534276409478,-1.25,-0.1875,0.375
1480534276417500,-1.4375,0.0625,0.375
1480534276438556,-1.6875,0.125,0.1875
1480534276459612,-0.875,0.1875,0.0625
1480534276483675,-1,-0.0625,-0.125
1480534276497214,-1.0625,-0.375,0.375
1480534276519771,-1.125,-0.9375,0
1480534276536319,-1.125,-1.25,0.625
1480534276564891,-1,-1.3125,0.1875
1480534276587953,-0.8125,-0.875,0.125
1480534276605499,-0.6875,-0.625,0
1480534276617532,0.3125,-0.25,0.125
1480534276639590,-0.125,0.125,0
1480534276657638,-0.5625,0.3125,0.375
1480534276677190,-0.8125,0.4375,0.125
1480534276699750,-0.3125,0.3125,0.125
1480534276722311,0.8125,0.4375,0.125
1480534276737662,0.75,0.125,-0.375
1480534276759910,-0.0625,-0.25,-0.125
1480534276783473,0.3125,-0.5,0.0625
1480534276799516,0.625,-0.6875,-0.0625
1480534276837115,0.625,-0.625,0.375
1480534276842631,0.3125,-0.5625,0.375
1480534276857170,0.625,-0.3125,0.0625
1480534276879729,1.3125,-0.0625,0.5625
1480534276897777,0.6875,0.0625,-0.125
1480534276917329,0.6875,-0.0625,-0.5
1480534276939890,1.1875,-0.0625,-0.75
1480534276962449,0.8125,-0.1875,-0.8125
1480534276985009,0.3125,-0.5,-0.9375
1480534277002556,0.75,-0.875,-0.5625
1480534277017596,1.3125,-0.9375,-0.625
1480534277037148,2.0625,-0.9375,-0.125
1480534277068732,1.5,-0.75,-0.375
1480534277077756,0.5625,-0.75,-0.3125
1480534277113351,0.1875,-0.625,-0.375
1480534277119872,1.8125,-0.4375,-0.8125
1480534277143932,2,-0.25,-0.75
1480534277159975,1.125,-0.1875,-0.875
1480534277187047,0.6875,-0.5,-1.1875
1480534277199580,1.375,-0.625,-1.1875
1480534277219132,1.9375,-0.75,-1
1480534277239777,1.75,-1,-1.1875
1480534277257734,1.5625,-1.25,-1.125
1480534277279292,2.0625,-1.125,-1
1480534277299846,1.875,-1.125,-1
1480534277322407,1.625,-1.125,-1
1480534277339953,1.6875,-0.875,-0.875
1480534277360006,1.8125,-0.8125,-1
1480534277382067,1.9375,-0.6875,-0.75
1480534277398609,1.625,-0.625,-0.75
1480534277419665,1.4375,-0.75,-0.625
1480534277442225,1.25,-0.875,-0.625
1480534277473809,1.3125,-0.9375,-0.75
1480534277479826,1.6875,-0.75,-0.625
1480534277502386,1.9375,-0.9375,-0.6875
1480534277520433,1.875,-0.875,-0.625
1480534277539985,1.375,-0.8125,-0.5
1480534277562545,1.125,-0.875,-0.8125
1480534277593628,2.375,-0.5,-0.8125
1480534277616689,1.9375,-0.25,-0.5
1480534277622204,0.8125,-0.1875,-0.5
1480534277653288,0.625,-0.0625,-0.8125
1480534277662812,0.625,0.0625,-0.75
1480534277682364,0.5625,0.3125,-0.6875
1480534277706428,0.5,0.4375,-0.75
1480534277719963,0.9375,0.5,-0.3125
1480534277743527,0.8125,0.5,-0.125
1480534277760070,0.4375,0.4375,-0.0625
1480534277781127,0.25,0.1875,0
1480534277802200,0,0.25,-0.0625
1480534277820231,0.875,0.125,-0.375
1480534277839783,0.8125,0.125,-0.125
1480534277862343,0.125,0,-0.1875
1480534277880390,0.125,-0.25,-0.1875
1480534277901447,0.5,-0.1875,-0.125
1480534277922503,0.5,-0.25,-0.3125
1480534277946066,-0.0625,-0.3125,-0.4375
1480534277984167,-0.0625,-0.375,-0.375
1480534277986674,0.375,-0.25,-0.375
1480534278000210,0.375,0.0625,-0.25
1480534278021265,0.125,0.0625,-0.4375
1480534278042326,0.1875,0.1875,-0.375
1480534278060369,0.5,0.25,-0.3125
1480534278079922,0.4375,0.125,-0.4375
1480534278104988,0.125,0.25,-0.625
1480534278120029,-0.1875,0.0625,-0.5625
1480534278139580,0,0.0625,-0.375
1480534278169664,0.5,0,-0.1875
1480534278193223,0.4375,0,-0.25
1480534278216284,0.3125,0,0.1875
1480534278222300,-0.125,0.0625,0.0625
1480534278240349,0.6875,0.3125,-0.125
1480534278267422,0.9375,0.5625,0.3125
1480534278289980,0.25,0.5,-0.1875
1480534278306023,0.125,0.0625,-0.375
1480534278321063,0.3125,0.0625,-0.375
1480534278349639,0.25,-0.125,-0.375
1480534278360167,-0.125,-0.125,-0.25
1480534278381222,0,-0.25,0
1480534278402284,0.25,-0.375,0.1875
1480534278420329,0.4375,-0.0625,0.0625
1480534278448904,0.25,0.25,0.3125
1480534278463943,-0.6875,0.1875,0.3125
1480534278487665,-0.3125,0.25,-0.0625
1480534278501201,0.4375,0.4375,0.1875
1480534278522258,-0.125,0.375,0.3125
1480534278540305,-0.4375,0.125,0.25
1480534278562865,-0.125,0.0625,0.25
1480534278582416,0.25,0,0.0625
1480534278600466,0.4375,-0.25,0.125
1480534278622523,0.3125,-0.25,0.1875
1480534278642075,0.3125,-0.1875,0
1480534278667645,0.625,-0.125,0.25
1480534278682685,0.6875,-0.0625,0.375
1480534278703739,0.5625,0,0.5625
1480534278724795,0.6875,0.125,0.6875
1480534278742843,0.875,0.3125,0.75
1480534278762395,0.4375,0.1875,0.5625
1480534278779946,0.0625,0.1875,0.25
1480534278824059,0,0.25,-0.1875
1480534278826566,0.375,0.125,0.0625
1480534278844614,0.5,0.0625,0.0625
1480534278863665,0.3125,0,0.125
1480534278882214,-0.625,0.1875,0.375
1480534278904775,-0.5,0.125,0.125
1480534278922822,0.875,0.375,0.125
1480534278942374,0.8125,0.5,0.125
1480534278964935,-0.1875,0.3125,-0.1875
1480534278983484,-0.5625,-0.0625,-0.5625
1480534279006044,-0.625,-0.0625,-0.4375
1480534279024592,-0.5625,-0.1875,-0.3125
1480534279042642,-0.3125,-0.4375,0.125
1480534279062193,-0.375,-0.625,0.4375
1480534279084756,-0.4375,-0.5,0.375
1480534279102801,-0.5625,-0.375,0.1875
1480534279122353,-0.0625,-0.25,0.125
1480534279144913,-0.125,-0.375,0
1480534279162961,0.1875,-0.125,-0.25
1480534279184520,0.5,-0.125,0
1480534279221618,-0.1875,-0.25,0
1480534279224125,0,-0.375,-0.3125
1480534279243676,0.5625,-0.375,-0.1875
1480534279264736,1,-0.25,-0.1875
1480534279283281,0.375,-0.25,-0.3125
1480534279303838,-0.1875,-0.3125,-0.375
1480534279324891,0.25,0,-0.5
1480534279345446,0.4375,0.1875,-0.5625
1480534279372019,0.5,0.0625,-0.4375
1480534279384550,0.8125,0.125,-0.4375
1480534279402601,1.0625,0.125,-0.3125
1480534279423656,1.125,0.0625,-0.3125
1480534279447718,0.9375,0,-0.4375
1480534279467271,0.875,-0.3125,-0.625
1480534279485821,1.125,-0.4375,-0.625
1480534279504871,1.0625,-0.375,-0.3125
1480534279522918,0.875,-0.5625,-0.5
1480534279544977,0.1875,-0.6875,-0.3125
1480534279572051,0.5,-0.625,-0.6875
1480534279582577,1.5625,-0.25,-0.125
1480534279605139,1,-0.3125,-0.3125
1480534279626193,0.9375,-0.5625,-0.5625
1480534279642738,1.0625,-0.5625,-0.625
1480534279665297,0.8125,-0.4375,-0.5625
1480534279684850,0.875,-1.125,-0.4375
1480534279704403,1.625,-1.4375,-0.125
1480534279725457,1.8125,-1.4375,0.125
1480534279745009,0.4375,-1.5625,-0.125
1480534279762556,-0.4375,-1.5625,-0.375
1480534279785116,-0.25,-1.375,-0.5625
1480534279804670,0.125,-1.25,-1.25
1480534279822721,1.125,-1,-1.5
1480534279845276,0.375,-0.6875,-1.5
1480534279864827,-0.875,-0.75,-1.5
1480534279882875,-1,-1,-1.0625
1480534279911454,-0.75,-0.625,-0.75
1480534279924987,-0.375,-0.5,-0.5625
1480534279942535,-0.875,-0.3125,-0.8125
1480534279971112,-1.1875,0.25,-0.75
1480534279984647,-1,0.375,-0.75
1480534280003196,-1.0625,0.4375,-0.75
1480534280025255,-0.875,0.5,-1
1480534280052328,-0.625,0.1875,-0.875
1480534280062855,-0.4375,0.0625,-1.125
1480534280085415,-0.6875,0,-1.1875
1480534280112488,-0.5,-0.125,-1.125
1480534280122517,-0.25,-0.25,-1.125
1480534280145074,-0.1875,-0.375,-0.75
1480534280166130,0.125,-0.625,-0.4375
1480534280183676,0.9375,-0.375,-0.4375
1480534280205237,0.875,-0.375,-0.3125
1480534280241831,0.4375,-0.5,-0.5625
1480534280244338,0.9375,-0.5625,-0.5
1480534280265393,0.8125,-0.5,-0.5625
1480534280286451,0.25,-0.375,-0.75
1480534280302493,0,-0.4375,-0.75
1480534280325052,0.375,-0.25,-0.5625
1480534280346108,0.6875,-0.1875,-0.4375
1480534280367165,0.4375,0,-0.75
1480534280391228,0.0625,0,-0.375
1480534280407772,-0.75,0,-0.4375
1480534280430332,0.0625,0.0625,-0.4375
1480534280445372,0.375,0.1875,-0.0625
1480534280467933,-0.0625,0.375,-0.125
1480534280490994,-0.375,0.375,0.1875
1480534280505551,-0.8125,0.25,0.4375
1480534280527590,-0.9375,0.3125,0.5
1480534280550653,-1.0625,0.25,0.5
1480534280569706,-1.125,0.4375,0.6875
1480534280586749,-0.9375,0.25,0.6875
1480534280607303,-1,0.1875,0.6875
1480534280625351,-0.8125,0,0.625
1480534280647910,-0.3125,-0.0625,0.8125
1480534280670472,-0.125,0,0.9375
1480534280691026,-0.4375,-0.125,0.625
1480534280707573,-0.625,-0.0625,0.75
1480534280727121,-0.3125,0.0625,0.9375
1480534280745170,-0.1875,0.25,1.125
1480534280768232,-0.5,0,0.8125
1480534280790290,0,0.3125,0.6875
1480534280805832,-0.0625,0.1875,0.6875
1480534280827891,-0.5,-0.25,0.375
1480534280847948,0.25,-0.625,0
1480534280865991,0.3125,-0.5625,0.1875
1480534280887548,-0.5,-0.75,0
1480534280907100,-0.875,-0.875,0
1480534280926151,0.25,-0.6875,0.375
1480534280950215,0.8125,-0.5,0.5625
1480534280967261,0,-0.0625,0.4375
1480534280985309,-0.625,0,0.6875
1480534281008371,-0.75,-0.0625,0.5
1480534281034942,0.375,-0.0625,0.5625
1480534281044967,0.6875,0.125,0.5
1480534281082066,1.1875,0.8125,0.5
1480534281088583,0.3125,-0.0625,-0.5
1480534281104625,0.375,-0.75,0.25
1480534281128690,0.6875,-1.1875,-0.25
1480534281156764,0.8125,-1.5625,-0.0625
1480534281171805,0.875,-2,-0.1875
1480534281193362,1.3125,-1.875,-0.125
1480534281207900,1.375,-1.1875,-0.3125
1480534281224946,1.25,-0.6875,-0.4375
1480534281247004,1,-0.375,-0.5
1480534281275580,1.0625,-0.0625,-0.1875
1480534281284608,1.1875,-0.0625,-0.3125
1480534281312679,0.75,0.125,0.3125
1480534281328223,0.9375,-0.0625,0.6875
1480534281357799,1.125,-0.125,0.6875
1480534281366825,0.6875,-0.3125,1.125
1480534281389383,1.75,-0.125,0.5625
1480534281410439,2.3125,0.125,0.75
1480534281426983,1.125,-0.125,0.9375
1480534281449543,0.9375,-0.4375,0.625
1480534281464083,0.6875,-0.5,0.4375
1480534281487144,0.375,-0.375,0
1480534281516723,-0.0625,-0.1875,-0.3125
1480534281523740,0.5625,0.125,-0.1875
1480534281554322,1,0.125,-0.1875
1480534281569363,0.6875,0.25,-0.375
1480534281597937,-0.0625,0.25,0.125
1480534281607464,-0.9375,0.0625,0.1875
1480534281629522,0.125,0.1875,-0.0625
1480534281643560,0.75,0.375,0
1480534281669130,0.5625,0.3125,0.0625
1480534281691186,0,0.375,0.3125
1480534281703722,-0.375,0.625,-0.1875
1480534281726781,-0.4375,0.6875,-0.1875
1480534281749341,-0.25,0.625,-0.1875
1480534281763881,0.125,0.625,-0.125
1480534281800478,-0.0625,0.5625,-0.125
1480534281809000,-0.375,0.375,-0.3125
1480534281832060,-0.625,0.375,-0.5625
1480534281849106,0.1875,0.3125,-1
1480534281869680,1.1875,-0.25,-0.8125
1480534281890215,1.25,-0.4375,-0.875
1480534281906759,0.875,-0.6875,-0.6875
1480534281936340,0.4375,-0.875,-0.5625
1480534281950375,0.25,-0.75,-0.3125
1480534281966920,0.4375,-0.5625,-0.125
1480534281989479,0.5625,-0.3125,-0.25
1480534282010535,1.375,0.0625,-0.0625
1480534282033096,1.0625,0.25,0.25
1480534282057661,0.125,0.25,-0.25
1480534282071699,0.375,0,-0.5
1480534282092754,0.75,0.1875,-0.5625
1480534282109298,0.5625,0.0625,-0.6875
1480534282147399,0.0625,-0.1875,-0.75
1480534282149908,0.5625,-0.25,-0.3125
1480534282176979,1,-0.375,-0.3125
1480534282191015,1,-0.375,-0.5
1480534282206557,0.625,-0.0625,-0.25
1480534282229619,0,-0.1875,-0.4375
1480534282250174,0.8125,-0.1875,-0.375
1480534282266717,1,0,-0.375
1480534282289277,0.5,-0.125,-0.3125
1480534282312339,0.3125,-0.375,-0.375
1480534282332892,0.625,-0.4375,-0.25
1480534282349438,1,-0.5,-0.3125
1480534282371996,0.5,-0.4375,-0.25
1480534282387037,0.375,-0.4375,-0.1875
1480534282410098,0.5,-0.5,-0.25
1480534282432157,0.5625,-0.0625,-0.25
1480534282447198,0.375,0.0625,-0.25
1480534282469257,0.4375,0,-0.25
1480534282491815,0.625,0.125,-0.25
1480534282506354,0.375,0.125,-0.4375
1480534282529416,0.25,0,-0.1875
1480534282551976,0.125,-0.25,-0.125
1480534282566013,0.125,-0.1875,-0.1875
1480534282592082,0.4375,-0.1875,0
1480534282611635,0.3125,-0.375,-0.125
1480534282634198,0.1875,-0.25,0.125
1480534282649235,-0.125,-0.125,0.1875
1480534282677810,0.5625,0.0625,-0.1875
1480534282686334,1.1875,0.0625,0.1875
1480534282709397,0.5,0.0625,0.0625
1480534282732456,0.125,0,-0.3125
1480534282745992,0.125,-0.0625,-0.375
1480534282769554,-0.5,0,-0.5
1480534282791613,0,-0.1875,-0.25
1480534282806152,0.4375,-0.1875,0.0625
1480534282829213,0.375,0,0.125
1480534282866313,-0.125,0.1875,0.0625
1480534282873330,0.25,0.1875,0.25
1480534282904416,-0.3125,0.1875,0.375
1480534282912937,-0.125,0.0625,-0.125
1480534282932991,0.75,0.0625,0
1480534282957053,0.5,-0.0625,0.125
1480534282972093,0.125,-0.4375,0.0625
1480534282995156,0.6875,-0.5625,0.1875
1480534283009214,0.875,-0.5,0
1480534283031752,0.3125,-0.3125,0.0625
1480534283060327,0,-0.0625,-0.0625
1480534283076872,-0.25,0.0625,-0.1875
1480534283097428,0.4375,0.125,-0.1875
1480534283115976,0.625,0.25,-0.0625
1480534283129513,0.75,0.25,0.125
1480534283154077,0.1875,0.3125,0
1480534283180650,-0.125,0.1875,-0.125
1480534283204211,0.0625,0.0625,-0.25
1480534283211731,0.4375,-0.125,-0.125
1480534283234794,0.5,-0.25,-0.0625
1480534283249331,0.1875,-0.375,-0.1875
1480534283271892,0.4375,-0.5,-0.1875
1480534283293949,0.9375,-0.5625,-0.1875
1480534283324530,0.75,-0.5,-0.5
1480534283332051,0.5625,-0.4375,-0.5
1480534283363133,0.625,-0.375,-0.375
1480534283393213,0.375,-0.375,-0.125
1480534283398227,0.375,-0.25,-0.1875
1480534283422290,-0.25,-0.0625,0.0625
1480534283430814,0.1875,0,-0.3125
1480534283451871,1.25,0.3125,0
1480534283480446,0.5,0.5,0
1480534283488968,0.375,-0.125,-0.5625
1480534283512030,0.25,-0.25,-0.5
1480534283534590,0.0625,-0.3125,-0.625
1480534283548627,0.1875,-0.5,-0.5625
1480534283571688,0.5,-0.8125,-0.25
1480534283618313,0.5625,-0.75,-0.125
1480534283632352,0.25,-0.75,-0.25
1480534283634856,0.3125,-0.75,-0.625
1480534283654410,0.25,-0.875,-0.8125
1480534283668948,0.1875,-1.0625,-1.0625
1480534283698525,0.75,-1.125,-1.25
1480534283717076,0.5625,-1.1875,-1.125
1480534283735624,0.3125,-1.625,-0.875
1480534283751667,0.5,-1.5625,-0.625
1480534283774729,0.375,-1.3125,-0.5
1480534283795283,0.125,-1.0625,-0.4375
1480534283811826,-0.3125,-0.6875,-0.375
1480534283834391,-0.125,-0.1875,-0.5
1480534283855463,-0.0625,0.1875,-0.625
1480534283871987,-0.375,0.5,-0.625
1480534283894547,-0.3125,0.5625,-0.625
1480534283916104,-0.5625,0.4375,-0.875
1480534283932147,-0.5625,0.25,-0.8125
1480534283961725,-0.375,-0.125,-0.8125
1480534283976766,-0.3125,-0.125,-0.875
1480534283991806,-0.25,-0.1875,-1.0625
1480534284014366,0,-0.0625,-1.3125
1480534284035425,0.125,-0.3125,-0.9375
1480534284052468,0.375,-0.625,-0.8125
1480534284074526,0.375,-0.6875,-0.8125
1480534284095582,0.125,-0.6875,-0.5625
1480534284111624,-0.375,-0.625,-0.4375
1480534284134185,-0.0625,-0.4375,-0.4375
1480534284155240,0.375,-0.1875,-0.375
1480534284171283,0.1875,-0.1875,-0.375
1480534284194345,-0.5625,-0.125,-0.1875
1480534284222920,-0.6875,0,0.125
1480534284246985,-0.4375,-0.0625,0.1875
1480534284254505,0.625,0.1875,0
1480534284277064,-0.3125,0.0625,0.5
1480534284292105,-1.1875,-0.4375,0.375
1480534284315166,-0.4375,-0.625,-0.0625
1480534284344243,-0.1875,-0.5625,-0.375
1480534284352766,-0.5,-0.625,-0.1875
1480534284374323,-1.4375,-0.8125,-0.1875
1480534284396884,-1.625,-0.6875,-0.5625
1480534284411422,-2.25,-0.375,-0.625
1480534284435989,-2.375,-0.1875,-0.9375
1480534284457043,-2.875,-0.5625,-0.625
1480534284477597,-3.25,-1,-0.5
1480534284494141,-1.875,-0.5625,-0.3125
1480534284516702,-1.9375,-0.375,0.375
1480534284531241,-2.5625,-0.375,0.4375
1480534284554808,-3.125,-0.25,0.4375
1480534284576862,-2.6875,0.1875,0.375
1480534284597918,-2.5625,0.5,0.4375
1480534284614462,-2.625,0.625,0.6875
1480534284637022,-2.4375,0.625,0.625
1480534284651061,-2,0.5,0.75
1480534284674623,-1.875,0.1875,0.9375
1480534284696681,-2,-0.3125,0.8125
1480534284718741,-1.4375,-0.5625,1
1480534284734782,-1.25,-0.8125,0.75
1480534284756840,-1.3125,-0.875,0.75
1480534284777896,-1.25,-0.5625,0.5
1480534284795443,-1.0625,-0.375,0.75
1480534284817003,-0.875,-0.1875,0.375
1480534284838060,-0.25,0.1875,0.625
1480534284854600,-0.4375,0.5,0.6875
1480534284876659,-0.3125,0.625,0.5625
1480534284897715,-0.5,0.875,0.75
1480534284914260,-0.1875,1.125,0.375
1480534284937320,0.5625,1.3125,0.5
1480534284965897,0,1.3125,0.8125
1480534284974419,0.5625,1.375,0.6875
1480534285002996,0.5625,1.25,0.4375
1480534285020040,-0.4375,1.25,0.375
1480534285034580,-0.625,0.75,0
1480534285056639,0.75,0.625,0.125
1480534285079198,1.25,0.4375,0.375
1480534285094238,0.9375,0,0.1875
1480534285116799,0.6875,-0.375,0.25
1480534285138355,0,-0.4375,0.3125
1480534285153897,1.1875,-0.5,0.1875
1480534285178462,1.4375,-0.625,0.0625
1480534285199519,1.375,-0.625,0.1875
1480534285215060,1.0625,-0.75,0.375
1480534285244137,0.75,-0.6875,0.25
1480534285259177,0.9375,-0.5625,0.25
1480534285281235,0.5625,-0.5625,0.0625
1480534285296777,0.875,-0.5,0
1480534285327358,1.25,-0.1875,0.3125
1480534285335381,1,-0.125,0.125
1480534285356937,0.8125,-0.1875,0.125
1480534285387017,0.625,0,0.1875
1480534285393534,0.9375,0,-0.125
1480534285424115,1.25,-0.1875,-0.25
1480534285439155,1.25,-0.4375,-0.6875
1480534285460211,1.4375,-0.375,-0.75
1480534285476756,1.625,-0.6875,-0.6875
1480534285502327,1.6875,-0.9375,-0.75
1480534285513854,2.0625,-1.25,-0.875
1480534285536916,2.125,-1.625,-0.6875
1480534285559475,2.875,-1.5625,-0.875
1480534285574515,3.6875,-1.375,-0.4375
1480534285597075,2.625,-1.4375,-0.6875
1480534285619135,2.125,-1.375,-1.1875
1480534285633677,2.25,-1.125,-1.25
1480534285662750,2.1875,-0.875,-1.375
1480534285679294,1.625,-0.5625,-1.4375
1480534285700354,1.5625,-0.375,-1.3125
1480534285716898,1.9375,-0.0625,-1
1480534285739455,1.75,0.0625,-0.9375
1480534285760511,1.6875,0.125,-1.0625
1480534285778558,1.375,0.0625,-0.8125
1480534285801119,1.3125,-0.125,-1
1480534285820168,1.8125,-0.0625,-1.0625
1480534285836713,1.4375,0,-1.125
1480534285859273,1.4375,-0.3125,-1.1875
1480534285880329,1.875,-0.5,-1.1875
1480534285898878,2.0625,-0.8125,-1.375
1480534285919433,2.125,-0.875,-1.375
1480534285941993,2,-1.0625,-1.375
1480534285957534,1.875,-1.0625,-1.25
1480534285979593,1.8125,-1.0625,-1.25
1480534286000650,1.8125,-0.9375,-1.1875
1480534286016692,1.9375,-0.875,-1.1875
1480534286039251,1.8125,-0.6875,-1
1480534286061812,1.8125,-0.5625,-1.0625
1480534286076853,1.4375,-0.5625,-1
1480534286099412,1.125,-0.4375,-0.6875
1480534286129492,1.1875,-0.4375,-0.5625
1480534286137012,1,-0.25,-0.625
1480534286160575,0.625,0,-0.25
1480534286181630,0.25,-0.0625,-0.25
1480534286197172,1.0625,0.3125,-0.5
1480534286219244,1.3125,0.5,-0.125
1480534286241804,0.3125,0.375,-0.4375
1480534286256844,0.875,-0.1875,-0.6875
1480534286279404,1,-0.1875,-0.8125
1480534286301463,0.8125,-0.1875,-0.9375
1480534286323020,1,-0.5625,-0.875
1480534286341068,1.1875,-0.625,-0.5
1480534286361622,1.375,-0.5625,-0.125
1480534286376162,0.875,-0.4375,-0.25
1480534286407745,0.5625,-0.1875,-0.375
1480534286422284,0.125,0,0.0625
1480534286436322,0.125,0.1875,-0.25
1480534286472919,0.6875,0.375,0
1480534286481943,0.1875,0.4375,-0.1875
1480534286511020,-0.375,0.3125,-0.1875
1480534286519543,-0.1875,0.125,-0.125
1480534286542102,-0.1875,0.1875,-0.25
1480534286557143,-0.5,-0.1875,-0.5
1480534286579201,-0.4375,-0.6875,-0.5
1480534286602263,0.875,-1.0625,-0.625
1480534286624321,1.125,-1.6875,-0.375
1480534286639362,1.125,-2.125,-0.25
1480534286661921,1.875,-2.4375,-0.625
1480534286685985,2.5625,-2.375,-0.75
1480534286699521,2.8125,-2.3125,-0.8125
1480534286728599,2.5625,-2.1875,-0.8125
1480534286745644,1.75,-1.75,-0.75
1480534286759180,1.125,-1.4375,-0.5625
1480534286805805,1.125,-0.875,-0.4375
1480534286812321,1.625,-0.3125,-0.375
1480534286826861,1.8125,-0.25,0.125
1480534286848920,1.25,-0.4375,0.25
1480534286862956,1.5,-0.25,0.4375
1480534286879506,1.4375,0,0.6875
1480534286902562,0.9375,0.0625,0.375
1480534286930636,0.875,-0.125,-0.125
1480534286946679,0.5625,-0.25,-0.375
1480534286969241,0.9375,-0.5625,-0.375
1480534286982775,1,-0.625,-0.3125
1480534286999320,1.125,-0.6875,-0.6875
1480534287027894,1.5625,-0.625,0
1480534287050454,1.375,-0.75,0
1480534287060482,0.875,-0.6875,-0.0625
1480534287083041,0.6875,-0.5625,0.3125
1480534287110614,0.3125,-0.375,0.3125
1480534287127159,0.75,-0.3125,0.1875
1480534287143202,0.125,0,0.25
1480534287165260,-0.1875,0.1875,0.125
1480534287179298,-0.375,0.25,0.25
1480534287207876,-0.5625,0.3125,0.3125
1480534287224418,-0.375,0.25,0.125
1480534287238961,-0.6875,0.1875,0.125
1480534287270042,-0.5625,0.125,0.0625
1480534287284076,-0.25,0.1875,-0.0625
1480534287298615,-0.1875,0.0625,-0.25
1480534287330199,-0.125,-0.25,-0.0625
1480534287344236,0.0625,-0.375,-0.0625
1480534287366295,0.0625,-0.625,-0.1875
1480534287389357,-0.25,-0.6875,-0.25
1480534287404399,-0.4375,-0.6875,-0.5625
1480534287418937,-0.0625,-0.5625,-0.25
1480534287441997,0.1875,-0.4375,0.0625
1480534287465058,0.0625,0,0.25
1480534287479596,-0.25,0.375,0.3125
1480534287516695,-1,0.625,0.5625
1480534287525218,0,0.8125,0.4375
1480534287538754,0.5625,1.25,0.875
1480534287562316,-0.75,1.25,0.9375
1480534287584377,-1.5625,1,0.625
1480534287606935,-1.0625,0.875,0.1875
1480534287623479,-0.625,0.875,0.125
1480534287644538,-0.5,0.625,-0.1875
1480534287665591,-0.3125,0.5625,-0.1875
1480534287687654,-0.0625,0.125,0.0625
1480534287705198,-0.0625,-0.125,0.0625
1480534287725249,0.1875,-0.25,0.0625
1480534287741795,-0.6875,-0.5625,0.1875
1480534287764354,0.1875,-0.4375,-0.1875
1480534287792929,1.25,-0.4375,-0.25
1480534287809475,1,-0.3125,-0.3125
1480534287824514,0.6875,-0.375,-0.3125
1480534287845570,0.625,-0.3125,-0.5
1480534287864119,0.625,-0.0625,-0.4375
1480534287885188,0.1875,0,-0.1875
1480534287905231,-0.3125,0,-0.3125
1480534287922274,-0.5,0.1875,-0.1875
1480534287944333,-0.375,0.4375,0.25
1480534287965389,-0.8125,0.5625,0.125
1480534287981933,-0.875,0.6875,0.1875
1480534288004497,-0.25,0.625,0.4375
1480534288027053,0.125,0.625,0.375
1480534288043096,-0.4375,0.3125,0.1875
1480534288064653,-0.8125,0,0.3125
1480534288088215,-0.3125,-0.1875,0.25
1480534288101752,0,-0.375,0.1875
1480534288130327,0,-0.4375,0.0625
1480534288146871,0.4375,-0.5625,0.25
1480534288161911,-0.0625,-0.5,0.5625
1480534288184973,0.0625,-0.3125,0.0625
1480534288207033,0.875,-0.1875,0.1875
1480534288229591,0.375,0,0.25
1480534288245634,-0.0625,-0.0625,-0.1875
1480534288266690,0.125,0,-0.1875
1480534288289250,0.1875,0.125,-0.25
1480534288304291,-0.125,0.0625,-0.4375
1480534288341891,-0.125,-0.0625,-0.125
1480534288350422,0.5,-0.0625,0
1480534288370470,0.6875,0.1875,0.375
1480534288387016,0.5625,0.125,0.3125
1480534288408567,1.1875,0.125,0.8125
1480534288424109,0.75,-0.125,0.8125
1480534288447671,0.5,0,0.8125
1480534288461208,0.875,0.3125,0.5
1480534288484269,-0.1875,0.75,0.375
1480534288507330,-0.8125,1.1875,0.125
1480534288529388,0,1.5625,0.25
1480534288544429,-0.75,1.6875,0.1875
1480534288566990,-1.375,2,0.125
1480534288588046,-2.4375,1.9375,0
1480534288606094,-2.3125,1.6875,0
1480534288628153,-1.25,1.5625,-0.125
1480534288647704,-1,1.25,0
1480534288664248,-1.1875,0.625,0.4375
1480534288686808,-0.875,0.25,0.4375
1480534288707865,-0.6875,-0.5,0.3125
1480534288724407,-0.0625,-1,0.125
1480534288746967,0.6875,-1.375,0.125
1480534288776045,0.6875,-1.625,-0.1875
1480534288786575,0.75,-1.9375,-0.4375
1480534288814146,1,-1.9375,-0.5625
1480534288828184,1.3125,-1.5625,-0.5
1480534288844227,0.875,-1.375,-0.875
1480534288866786,0.5625,-1.125,-0.8125
1480534288889346,0.9375,-0.5,-0.5625
1480534288911906,0,-0.0625,-0.5
1480534288926946,0.25,0.5,-0.5625
1480534288948504,0.5625,1.125,-0.125
1480534288971565,-0.375,1.4375,-0.4375
1480534289001646,-0.8125,1.3125,-1
1480534289015181,-0.9375,1.5,-0.9375
1480534289024205,-1.125,1.5,-0.75
1480534289047768,-1.25,1.4375,-0.75
1480534289069326,-2.0625,1.25,-0.5
1480534289092386,-1.625,1.0625,-0.1875
1480534289106925,-1.1875,0.875,-0.125
1480534289129490,-0.875,0.75,0.25
1480534289152045,-0.6875,0.5625,0.8125
1480534289167085,-0.6875,0.3125,0.75
1480534289189144,0.5625,0.1875,0.625
1480534289203683,1.125,0.25,0.4375
1480534289227746,1,-0.0625,0.25
1480534289249304,1,-0.4375,0.25
1480534289270362,1,-0.75,-0.0625
1480534289292925,0.9375,-1.1875,-0.4375
1480534289315480,0.875,-1.5,-0.8125
1480534289323501,1.1875,-1.5,-1
1480534289347064,1.4375,-1.5625,-1.1875
1480534289369625,1.4375,-1.3125,-1.125
1480534289385165,1.0625,-1.1875,-0.9375
1480534289406724,0.9375,-0.6875,-0.9375
1480534289429784,1,-0.125,-0.8125
1480534289443821,0.5625,0.1875,-0.9375
1480534289472898,1.0625,0.375,-0.875
1480534289489442,1.4375,0.5,-0.75
1480534289510499,1.1875,0.125,-0.625
1480534289526541,1.1875,-0.4375,-0.5625
1480534289555619,1.6875,-1.0625,-0.75
1480534289570658,2,-1.625,-0.875
1480534289592717,2.375,-2.0625,-1.1875
1480534289609762,2.5,-2.3125,-1.25
1480534289647362,2.75,-2.3125,-1.1875
1480534289649870,2.375,-2.25,-1.0625
1480534289669423,2,-2,-1.0625
1480534289690477,2.375,-1.4375,-0.75
1480534289707031,1.5625,-0.9375,-0.5625
1480534289737602,1.3125,-0.5,-0.9375
1480534289757655,1.75,0,-0.5625
1480534289766679,1,0,-0.375
1480534289789240,1.125,-0.1875,-0.75
1480534289810296,1.125,-0.5,-0.875
1480534289827341,1.0625,-0.75,-0.875
1480534289849400,0.875,-1.0625,-1
1480534289870458,1.4375,-1.75,-0.625
1480534289886498,2.5625,-2,-0.3125
1480534289924099,3.0625,-2.25,-0.125
1480534289931620,1.9375,-2.5625,-0.5
1480534289946658,1.4375,-2.5,-0.375
1480534289969220,1.3125,-2,-0.5625
1480534289991779,2.25,-1.25,-0.6875
1480534290007860,1.75,-0.4375,-0.625
1480534290029417,0.3125,-0.3125,-0.625
1480534290051977,0.3125,-0.125,-0.4375
1480534290066016,0.4375,0.5,-0.4375
1480534290089577,0.125,0.625,-0.375
1480534290119156,-0.125,0.75,-0.3125
1480534290127179,-0.3125,0.875,-0.25
1480534290150241,0.1875,0.8125,0
1480534290171797,0.0625,0.8125,-0.125
1480534290194358,0.1875,0.6875,0
1480534290210400,0.25,0.6875,-0.0625
1480534290231957,0.4375,0.4375,0
1480534290245994,0.5625,0.25,-0.125
1480534290276575,0.4375,0.1875,0
1480534290291615,0.3125,0,-0.0625
1480534290307157,0.5625,-0.1875,-0.125
1480534290330217,0.5625,-0.25,-0.25
1480534290351775,0.625,-0.4375,-0.25
1480534290366316,0.75,-0.625,-0.1875
1480534290397397,0.4375,-0.6875,-0.1875
1480534290412938,-1.25,-1.875,-0.6875
1480534290432991,-4.9375,-2.8125,-1.1875
1480534290449539,-5.125,-1.875,-0.1875
1480534290471594,-2.75,-0.9375,0.375
1480534290492650,-0.1875,-0.0625,-0.0625
1480534290517215,1.4375,0.4375,-0.25
1480534290531755,1.4375,0.5625,-0.375
1480534290552809,0.4375,0.625,-0.5
1480534290569900,0.625,0.625,-0.5
1480534290593919,2.0625,0.6875,-0.25
1480534290612970,2.5,0.625,-0.125
1480534290635533,2.125,0.5,-0.1875
1480534290651573,1.3125,0.375,-0.1875
1480534290673130,0.3125,0,-0.125
1480534290689172,1.375,0,-0.3125
1480534290712735,1.75,0.125,-0.125
1480534290732791,1.125,-0.0625,-0.375
1480534290749332,0.6875,-0.25,-0.5
1480534290777407,1,-0.1875,-0.4375
1480534290795957,1.125,-0.25,-0.5625
1480534290815509,0.625,-0.25,-0.4375
1480534290832054,0.125,-0.4375,-0.625
1480534290853108,0,-0.5625,-1
1480534290870154,0.4375,-0.5,-1.1875
1480534290891711,0.875,-0.375,-1.3125
1480534290914275,0.625,-0.6875,-1.25
1480534290936831,0.5625,-0.75,-0.9375
1480534290952874,0.375,-0.75,-0.8125
1480534290974432,0,-0.8125,-0.8125
1480534290989471,0,-0.6875,-0.5625
1480534291012031,0.125,-0.25,-0.375
1480534291034592,-0.0625,-0.1875,-0.4375
1480534291062666,-0.125,0,-0.375
1480534291071690,-0.4375,-0.1875,-0.5
1480534291094249,-0.125,-0.4375,-0.8125
1480534291108789,0.25,-0.625,-1.0625
1480534291137866,0.625,-1,-0.75
1480534291154419,1,-0.5625,-0.5625
1480534291168448,-0.0625,-0.5,-0.125
1480534291192010,-1.1875,-0.8125,-0.25
1480534291215073,0.5625,-0.375,-0.4375
1480534291228608,1.8125,0.0625,-0.0625
1480534291251669,1,0,-0.375
1480534291274730,0.5625,-0.125,-0.4375
1480534291288768,0.1875,0.25,-0.5625
1480534291313333,-0.3125,0.0625,-0.1875
1480534291342410,-0.0625,0,-0.5
1480534291348426,1.125,0.25,-0.1875
1480534291371988,0.8125,0.375,0.375
1480534291400565,-0.25,0.1875,0.4375
1480534291415605,-0.125,0.3125,0.125
1480534291432149,0.375,0.6875,0.0625
1480534291454207,-0.6875,0.5,-0.0625
1480534291475263,0.0625,0.25,-0.8125
1480534291505343,2.1875,0.8125,-0.25
1480534291528405,-0.8125,0.75,1.5625
1480534291543445,-1.8125,0.6875,2.5
1480534291551968,0.4375,0.9375,2.875
1480534291581547,-0.5,1.6875,3
1480534291595584,-1.6875,2.1875,1.4375
1480534291618143,-1.5,2.1875,0
1480534291634689,0.75,2.1875,-1.0625
1480534291655242,-0.4375,1.125,-0.625
1480534291679306,-2.0625,-0.1875,-0.1875
1480534291694346,-2,-1.3125,0.25
1480534291715402,-1.3125,-1.5625,0.125
1480534291731946,-0.5625,-1.625,0.125
1480534291754506,0.5625,-1.75,0.125
1480534291775061,1.375,-1.8125,-0.0625
1480534291799128,1.25,-2.375,-1.1875
1480534291821685,0.0625,-2.125,-1.4375
1480534291836725,1.0625,-2.375,-2.625
1480534291852768,0.625,-3.4375,-2.8125
1480534291874325,1.3125,-3.3125,-2.875
1480534291896885,2.3125,-4,-3.3125
1480534291912426,2.6875,-4.5625,-4.1875
1480534291934486,4.5625,-4.125,-3.8125
1480534291957045,4.3125,-4,-3.5
1480534291971082,3.875,-3.8125,-3.3125
1480534291994143,3.5,-3.25,-2.8125
1480534292018207,3.5,-2.25,-2.375
1480534292031242,2.875,-1.3125,-1.6875
1480534292061824,1.75,-0.0625,-1.1875
1480534292076865,1.75,0.9375,-0.8125
1480534292099435,1.1875,1.5,-0.6875
1480534292114966,1.3125,1.75,-0.3125
1480534292136811,1,1.6875,0.3125
1480534292151060,-1.5,1.75,-0.8125
1480534292174624,1.25,1.625,-0.375
1480534292205205,0.1875,1.0625,-0.9375
1480534292211221,1.375,0.1875,-0.5625
1480534292234283,1.5625,-1.25,-0.75
1480534292256843,3.1875,-1.875,-1.3125
1480534292277899,3.6875,-2,-1.375
1480534292300459,2.875,-2.375,-1.4375
1480534292324522,2.8125,-2.1875,-1.3125
1480534292339563,3,-1.625,-1.1875
1480534292355605,2.375,-0.875,-1.0625
1480534292384181,1.4375,-0.0625,-0.5625
1480534292397718,0.625,0.3125,-0.125
1480534292414261,0.25,0.875,-0.1875
1480534292436821,-0.0625,1.3125,-0.375
1480534292457877,0,1.375,-0.3125
1480534292474421,0.25,1.4375,0
1480534292496981,-0.375,1.1875,0.3125
1480534292518037,-1.0625,1,0.625
1480534292534080,-0.875,0.625,0.6875
1480534292556640,-0.1875,0.0625,0.6875
1480534292577696,2.125,0,0.1875
1480534292602762,3.4375,0.25,0.25
1480534292616802,2.375,-0.375,-0.3125
1480534292646880,2.0625,-1.0625,-0.6875
1480534292654404,2.3125,-1.3125,-1.5625
1480534292682981,2.5625,-1.3125,-1.5625
1480534292698016,2.375,-2.375,-0.25
1480534292714561,-0.1875,-2.875,0.9375
1480534292736619,0.9375,-1.8125,0.6875
1480534292757674,-1.1875,-0.8125,1.75
1480534292774220,-2.5,0.625,3.125
1480534292796778,-5.6875,4.375,4.125
1480534292819338,-5.375,6.4375,1.9375
1480534292834380,-2.0625,5.0625,1.5
1480534292857440,-2.375,2.625,0.6875
1480534292878997,-1.625,0.0625,1.5
1480534292900555,0.5625,-1.125,1.4375
1480534292917099,0.125,-1.375,0.9375
1480534292939158,-1.4375,-1.3125,0.5625
1480534292953696,-1.1875,-1.1875,1.1875
1480534292977259,1.0625,-1.375,1.125
1480534292999321,1.8125,-1.3125,0.125
1480534293014859,2.6875,-0.4375,-0.6875
1480534293044438,3.6875,0.3125,-0.625
1480534293059478,9.25,0.375,0.375
1480534293073515,14.4375,0.0625,-1.3125
1480534293096576,18,-0.25,-0.875
1480534293134678,12.125,0.875,0.125
1480534293137184,8.0625,2.25,-1.375
1480534293170272,0.4375,3.5,-3.0625
1480534293179297,-0.5,4.625,-3.75
1480534293193835,-1.125,6.6875,-4
1480534293216896,-1.5,6.6875,-3.125
1480534293239456,1.0625,5.5625,-2
1480534293260512,1.5625,2.75,-1.125
1480534293276555,6.5625,2.3125,-2.4375
1480534293300117,4.0625,3.1875,-3.25
1480534293320171,-0.4375,2.3125,-5.9375
1480534293336715,0.125,1.1875,-6.25
1480534293365292,2.125,0.625,-5.625
1480534293380832,0.9375,-0.125,-3.8125
1480534293396875,-2.3125,-2,-2.625
1480534293419435,-1.0625,-2.25,-2.4375
1480534293440493,0.375,-1.5625,-0.875
1480534293456533,1.375,-1.8125,0
1480534293479093,1,-2.125,0.5625
1480534293507670,-0.3125,-2.125,1.625
1480534293516694,-0.4375,-2.6875,1.6875
1480534293539253,1,-3.5625,2.625
1480534293560812,0.25,-3.8125,3.4375
1480534293576853,-0.0625,-2.625,3.3125
1480534293598915,-0.4375,-2,3.875
1480534293620469,-2.5625,-0.5625,4.4375
1480534293637013,-3.1875,2.6875,2.25
1480534293659072,-4.8125,3.8125,3.4375
1480534293687648,-8.625,0.625,3.3125
1480534293696673,-7.125,-1.5625,3.9375
1480534293719232,-5.75,-1.5625,4.625
1480534293742294,-4.75,-1.3125,3.5
1480534293758336,-5.25,-0.4375,3.125
1480534293779894,-6.5,0.1875,2.8125
1480534293801953,-8.75,-0.1875,2.3125
1480534293816993,-7.3125,0.375,2.375
1480534293839051,-4.625,0.125,3.125
1480534293861611,-4.6875,-1.625,3.3125
1480534293882669,-3.3125,-1.75,4.5625
1480534293900215,-2.25,-1.0625,4.375
1480534293921771,-5.8125,1.0625,3.5625
1480534293936310,-8.625,8.0625,4.75
1480534293958870,-13.0625,9.6875,3.75
1480534293989451,-15.125,6.25,4.6875
1480534294003020,-15.9375,7.375,1.5625
1480534294019030,-14.5,9,-0.3125
1480534294041590,-7.5,5.25,2.3125
1480534294057131,-3.5,-1,2.6875
1480534294079190,1.25,-4.9375,3.125
1480534294101750,9.25,-6.9375,3.5625
1480534294122806,12.125,-9.25,5.5
1480534294139350,16,-11.8125,6.9375
1480534294162411,13.6875,-11.3125,3.25
1480534294182970,10.125,-8.25,2
1480534294199511,5.0625,-6.625,-0.3125
1480534294223574,3.8125,-3.9375,-0.875
1480534294243627,2.0625,-4.25,-2.875
1480534294266690,1.9375,-3.75,-2.6875
1480534294281729,3.6875,-2.25,-2.9375
1480534294302785,3.375,-2.1875,-3.75
1480534294319328,-0.125,-2.625,-2.9375
1480534294349414,2.3125,-3,-3.4375
1480534294362945,3.3125,-2.1875,-3.9375
1480534294385505,3.6875,-2.0625,-4.3125
1480534294402050,3.375,-2.375,-4.125
1480534294422603,3.8125,-2.75,-2.9375
1480534294439147,6.25,-2.75,-2.625
1480534294461708,6.625,-2.8125,-2.3125
1480534294484268,6.5625,-3.3125,-2.125
1480534294499310,5.5,-3.0625,-2.25
1480534294521867,5.3125,-2.875,-2.6875
1480534294544429,6,-2.8125,-3.3125
1480534294560972,6.0625,-2.75,-3.5
1480534294583532,6.9375,-3.75,-3.625
1480534294603084,6.6875,-3.5,-3.875
1480534294619126,6.625,-3,-4.1875
1480534294641686,5,-2,-4.4375
1480534294664748,3.375,-2.4375,-4.125
1480534294679286,-4.625,-7.5,-9.1875
1480534294702852,-19.625,-16.5,-13.0625
1480534294724406,-34.9375,-21.0625,-12.125
1480534294744961,-30.375,-14.4375,-4.1875
1480534294762006,-12.625,-8.25,-1.4375
1480534294784065,4.3125,-5.125,-1.6875
1480534294800610,9.875,-3.25,-3
1480534294823168,4.1875,-2.3125,-3.5625
1480534294853249,-5.0625,-3.0625,-4.625
1480534294858764,-10.8125,-4.125,-4.25
1480534294882329,-11.0625,-8,-5.9375
1480534294904886,-9,-7.8125,-4.625
1480534294918422,-4.375,-5.6875,-1.8125
1480534294943489,-7.875,-6.875,-5.375
1480534294964044,-20.1875,-8.625,-7.5
1480534294969558,-31.0625,-8.3125,-7.5
1480534294990113,-35.3125,-7.625,-9.8125
1480534295007158,-39.125,-8.5,-20.125
1480534295040246,-47.5625,-4.5,-23.1875
1480534295052278,-49.125,-3.4375,-12.8125
1480534295068822,-44.5,-1.6875,-4.125
1480534295089878,-28.875,3.3125,0.6875
1480534295114947,-13.8125,4.9375,0.3125
1480534295126977,-4.8125,3.6875,1.125
1480534295152046,-4.8125,1.6875,2.5
1480534295172097,-9,1.25,4.375
1480534295188641,-11.75,5.75,3.375
1480534295209697,-7.6875,13.6875,4.625
1480534295232260,-1.125,11,5.6875
1480534295247297,4.25,-2.6875,5.375
1480534295277377,5.375,-14.125,4.5
1480534295292417,11.875,-17,-1.3125
1480534295306959,18.4375,-20.1875,-2.0625
1480534295346060,13.625,-25.0625,-2.3125
1480534295352075,10.3125,-27.625,-4.3125
1480534295392183,9.625,-25.6875,-8.9375
1480534295397195,7.3125,-24,-14.4375
1480534295412737,4.25,-23.8125,-19.25
1480534295427275,3.75,-25.3125,-24.625
1480534295457356,2.5,-29.625,-27.6875
1480534295472396,-0.375,-29.6875,-27.4375
1480534295487435,-2.5,-27.25,-27.9375
1480534295509494,-5.1875,-19.375,-21.125
1480534295533559,-2.25,-13.125,-14.875
1480534295550604,-4.375,-7.0625,-7.875
1480534295577175,-3.75,-3.375,-1.125
1480534295592215,-1.8125,-4,1.5625
1480534295607254,-2.9375,-8.125,1.9375
1480534295629814,-5,-13.3125,1.875
1480534295660897,-3.5,-16.4375,0.5
1480534295667416,-0.125,-17.5625,-3.6875
1480534295697996,2.5625,-18.3125,-7.125
1480534295712034,6.375,-15.0625,-7.875
1480534295727073,10.4375,-10.5625,-6.4375
1480534295749633,13.5625,-7.9375,-4.375
1480534295772193,11.6875,-2.25,-0.8125
1480534295787233,12.1875,1.25,0.375
1480534295812801,13.9375,1.8125,0.8125
1480534295834860,17.375,-0.0625,1.75
1480534295854913,20.25,0.9375,5.25
1480534295869452,19.6875,1.5625,10.125
1480534295900535,13.75,1.5,10.8125
1480534295908556,6.5625,0.5,8.4375
1480534295938636,2.25,-0.5,7.1875
1480534295952172,1.5,1.0625,8.0625
1480534295968717,-1.9375,3.75,8.8125
1480534295989788,-4.875,6.625,9.1875
1480534296015843,-3.1875,6.625,6.4375
1480534296027372,-4,5.875,8.9375
1480534296049432,-6.0625,4.4375,7.875
1480534296081016,-5.9375,3.625,5.75
1480534296087030,-4.375,1,5.5625
1480534296111096,-4.75,-2.375,5.9375
1480534296135159,-6.75,-2.8125,5.875
1480534296148697,-6.3125,-3.6875,6.5625
1480534296185794,-3.125,-4.8125,6.1875
1480534296192311,-0.9375,-7,6.0625
1480534296210860,-0.375,-6.3125,5.5625
1480534296229913,2.875,-2.6875,3.5625
1480534296251970,7.0625,-2.4375,2.4375
1480534296268513,5.5625,-3.75,2.9375
1480534296291073,4.1875,-2,3.375
1480534296328673,2.3125,2.375,2.8125
1480534296343713,1.25,4.125,1.5625
1480534296351233,0.75,2.5625,1.25
1480534296383319,-0.375,2.5,1.5
1480534296388834,2.5,3.625,1.5
1480534296412399,2.1875,5.8125,0.8125
1480534296432449,0.625,6.75,-0.125
1480534296451508,3.1875,6.4375,-0.3125
1480534296469557,4.125,5.9375,0.6875
1480534296492108,1.8125,4.875,1.8125
1480534296508653,-0.875,3.8125,1.375
1480534296529708,-1.6875,3.625,1.75
1480534296552769,-0.0625,3.5,2.3125
1480534296570316,2.625,1.625,3.125
1480534296589868,1.1875,2,3.25
1480534296620449,1.4375,4.1875,4.75
1480534296629975,1.75,6,5.5625
1480534296649526,2,7.125,5.3125
1480534296672087,2.3125,7.8125,5.1875
1480534296704172,1.375,8.25,5.9375
1480534296709686,-0.4375,7.625,4.4375
1480534296732748,-1.5,7.0625,3.3125
1480534296765336,0,7.125,3.25
1480534296785890,1.9375,6.375,2
1480534296791906,2,5.1875,0.8125
1480534296810956,1.6875,3.625,0.625
1480534296829506,1.3125,2.4375,1.0625
1480534296852068,3.0625,1.25,1.125
1480534296870113,3.6875,-0.1875,0.9375
1480534296889667,3.75,-1.3125,1.25
1480534296921250,4.0625,-1.5625,1.6875
1480534296934786,5.75,-1.625,1.8125
1480534296949825,6.3125,-0.3125,1.375
1480534296981410,5.5625,1.8125,0.75
1480534296994444,3.875,4.1875,0.6875
1480534297010988,3.6875,5.375,0.8125
1480534297042572,4.0625,5.5,0.25
1480534297054604,3.8125,5.875,-0.5
1480534297069644,3.0625,6.1875,-0.5625
1480534297092204,1.9375,6.25,-0.3125
1480534297139831,2.25,5.4375,-0.3125
1480534297142337,4.0625,4.6875,-0.875
1480534297159884,5.75,3.9375,-0.25
1480534297174925,4.125,3.25,0.4375
1480534297197485,2.0625,2.375,-0.3125
1480534297216035,0.125,2.0625,-0.375
1480534297242605,0.625,2.0625,-0.3125
1480534297251127,-0.125,2.25,-0.3125
1480534297272183,-0.6875,2.9375,-0.625
1480534297294743,-1,3.8125,-1.5
1480534297318807,-2.3125,3.625,-2.125
1480534297332343,-3.6875,4.6875,-2.25
1480534297358412,-3.6875,5.5625,-3.4375
1480534297370946,-3.875,4.1875,-2.9375
1480534297392002,-1.1875,1.875,-2.9375
1480534297414563,2.3125,-0.375,-2.875
1480534297431108,3.75,-2.875,-2.25
1480534297452162,4.0625,-4.9375,-1.8125
1480534297474722,3.5,-6.4375,-0.75
1480534297492770,3.5,-5.5625,-0.75
1480534297512324,2.0625,-4.0625,-0.25
1480534297534882,0.125,-2.5625,0.6875
1480534297552930,0.8125,-1.8125,0.8125
1480534297571980,1.375,-0.5625,0.8125
1480534297611586,0.4375,0.1875,2.5625
1480534297614093,-0.5625,1.5,3.125
1480534297632143,-0.6875,2.8125,3.0625
1480534297654700,0.375,4.1875,2.9375
1480534297672749,1.1875,4.9375,2.375
1480534297692301,0.75,4.9375,2.8125
1480534297714864,-0.75,5.25,2.8125
1480534297732407,-1.0625,5.5625,2.1875
1480534297754967,-0.25,5.125,2.125
1480534297776024,-0.5625,4.75,2.4375
1480534297797080,-0.625,4.1875,1.75
1480534297812120,1,3.1875,1.3125
1480534297834679,0.75,1.625,1.625
1480534297855735,2.4375,-0.1875,1.75
1480534297879800,2.375,-1.0625,2.125
1480534297902360,2.375,-1.8125,2.1875
1480534297912386,3.625,-2.625,2
1480534297931938,4.0625,-3.3125,2.25
1480534297954497,3.3125,-3.125,1.6875
1480534297972546,3.5,-2.375,1.25
1480534297994105,1.875,-1.875,0.375
1480534298031203,0.6875,-0.875,0
1480534298040226,0.375,-0.9375,0
1480534298069303,0.5625,-0.3125,-1
1480534298074818,1.8125,0,-1.5
1480534298092365,2.25,0.125,-1.6875
1480534298111916,0.875,0.1875,-1.5
1480534298141997,1,0.125,-0.75
1480534298152525,0.75,-0.4375,-0.5
1480534298179597,0.125,-1.25,-0.5
1480534298194637,0.375,-0.8125,-0.9375
1480534298212685,0.6875,-0.875,-0.875
1480534298233741,0.4375,-0.4375,-0.75
1480534298271842,0.1875,0.125,-0.875
1480534298273848,-1.5625,-0.9375,-0.75
1480534298294403,-1.8125,-0.875,-1.9375
1480534298322477,-3.5625,1.625,-2.1875
1480534298333005,-3.9375,4.4375,-3.5625
1480534298361080,-3.5,2.75,-3.3125
1480534298390658,-2.5,-0.875,-1.6875
1480534298398680,3.8125,-2,-1.1875
1480534298415226,9.1875,-2.625,-1.5625
1480534298444301,7.3125,-4.5,-1.125
1480534298457337,5.6875,-6.3125,-1.25
1480534298474883,5,-5.625,-1.25
1480534298494434,4.3125,-3.5,-1.875
1480534298524514,2.5,-1.5,-1.875
1480534298539554,0.3125,-0.9375,-1.125
1480534298554595,-1.25,-1.4375,-0.75
1480534298594199,0,-0.4375,-0.875
1480534298596706,0.8125,0.5625,-0.4375
1480534298614762,1.3125,1.3125,-0.5625
1480534298639822,1.0625,2.125,-0.125
1480534298655863,-0.0625,2.4375,0.375
1480534298683437,-0.8125,1.875,0.75
1480534298705997,-0.625,1.5625,0.5
1480534298737079,0.625,1.6875,0.625
1480534298742093,1.3125,1.4375,0.75
1480534298757132,1.5625,0.5625,0.625
1480534298775188,1.5625,-0.25,0.4375
1480534298803757,1.375,-0.75,0.6875
1480534298817293,1.1875,-1.3125,0.875
1480534298843362,0.6875,-1.9375,1.0625
1480534298857400,-0.125,-2,0.5625
1480534298884471,0.8125,-1.8125,0.4375
1480534298895004,1.3125,-1.5,-0.125
1480534298914559,0.9375,-1.125,-0.25
1480534298937117,0.9375,-1.1875,-0.5
1480534298962684,-0.1875,-1.0625,-1
1480534298985746,-0.5,-0.9375,-0.625
1480534299004796,-0.6875,-0.3125,-0.4375
1480534299015325,0.125,0.125,-0.3125
1480534299034875,0,0.625,0.375
1480534299057436,0.4375,0.625,0.4375
1480534299079494,0.125,0.9375,0.5
1480534299103558,0.125,1.5625,0.3125
1480534299118598,0.75,1.5625,0.25
1480534299136149,0.75,1.4375,0.0625
1480534299156198,2,1.1875,-0.0625
1480534299177254,1.8125,1.0625,-0.4375
1480534299195302,1.25,1,-0.5
1480534299216359,1.5625,0.6875,-0.875
1480534299237415,1.375,0.5625,-0.4375
1480534299284038,0.875,0.25,-1.25
1480534299292060,0.8125,-1,-0.5
1480534299304593,1.125,-1.9375,-0.4375
1480534299315624,1.1875,-2.8125,-0.5
1480534299336221,1.5625,-2.1875,-0.3125
1480534299357234,2.6875,-1.4375,-0.75
1480534299397845,1.625,-1.1875,-0.75
1480534299402353,-0.625,-0.5,-0.1875
1480534299417393,-0.75,-0.375,-0.875
1480534299434940,-0.375,-1.25,-0.625
1480534299457500,0.5,-1.3125,-0.6875
1480534299478556,0.9375,-2.0625,-0.6875
1480534299495100,0.625,-2.1875,-0.875
1480534299517660,1.875,-2,-0.125
1480534299540220,1.5625,-0.9375,-0.6875
1480534299555260,-0.0625,-0.8125,0
1480534299577820,-0.25,-1.875,-1
1480534299597372,2.125,-2.875,-0.8125
1480534299614920,3.4375,-2.8125,-1.25
1480534299637479,2.25,-2.75,-1.0625
1480534299673073,2,-2.6875,-1.25
1480534299688614,2.125,-3,-1.0625
1480534299697644,0.9375,-2.875,-0.5625
1480534299734738,2.125,-1.9375,-0.875
1480534299738246,2.125,-1.25,-0.5625
1480534299757798,1.875,-1.875,-0.5
1480534299777351,1.5625,-1.5,-0.3125
1480534299796903,2.5625,-0.375,-0.875
1480534299817958,2.8125,0.6875,-1.3125
1480534299837009,2.5625,0.375,-1.25
1480534299855058,1.9375,0,-0.875
1480534299877618,1.5625,0.4375,-0.5
1480534299898177,1.125,1.9375,-0.375
1480534299919729,2.625,1.6875,-1
1480534299953820,1.9375,0.8125,-0.5625
1480534299960337,-0.875,1.875,0
1480534299987409,-0.6875,2.75,-1
1480534299998438,1.3125,3.4375,-1.6875
1480534300019996,1.25,4.5625,-1.6875
1480534300039548,1.4375,4.25,-1.875
1480534300057597,1.4375,3.9375,-1
1480534300110738,0.5625,4.6875,-0.5625
1480534300117255,0.5,4.0625,-1.1875
1480534300122268,0.375,3.375,-0.0625
1480534300138812,2,3.75,-0.6875
1480534300160370,1.125,3.6875,-1.125
1480534300178417,0.0625,2.125,-0.625
1480534300213511,0.25,1.1875,-0.625
1480534300227047,0.4375,1.25,-0.8125
1480534300267655,1.0625,0.4375,-1.25
1480534300270162,0.125,-0.5,-0.8125
1480534300287207,-0.5,-0.9375,-0.5
1480534300302247,-0.9375,-0.875,-0.25
1480534300320295,-0.3125,-0.9375,-0.625
1480534300340348,1.0625,-0.6875,-0.25
1480534300370930,1.875,0,-0.25
1480534300379956,1.0625,0.3125,-0.125
1480534300407026,-0.3125,0.4375,0.1875
1480534300423569,-1.1875,0.125,0.5
1480534300441116,0.9375,0.75,0.5625
1480534300467186,1.5,0.8125,0.75
1480534300477713,0.5,0.5,0.8125
1480534300507794,0,0.625,-0.125
1480534300524338,0.5,1.1875,-0.1875
1480534300542385,1.125,1.5625,-0.75
1480534300559932,1.1875,0.625,-0.625
1480534300579484,0.0625,0.3125,-0.1875
1480534300609565,-0.3125,0.4375,-0.25
1480534300620092,0.125,0.5,0.3125
1480534300647165,0.5,0.625,-0.125
1480534300657692,0.4375,0.375,0
1480534300680759,0.4375,0.0625,0.125
1480534300701309,1.0625,0.0625,0.25
1480534300717350,1.375,0.125,-0.3125
1480534300739911,0.375,0.3125,-0.125
1480534300759462,-0.0625,0.6875,-0.1875
1480534300785031,0,0.75,0
1480534300810599,1.4375,0.4375,-0.125
1480534300819623,2.25,0.3125,-0.125
1480534300849703,0.625,0.4375,-0.25
1480534300860231,0.6875,-0.1875,0.125
1480534300879783,0.8125,0.25,-0.0625
1480534300899341,0.875,1.75,-0.25
1480534300943954,0.5,2.1875,-0.375
1480534300956488,-0.25,1.8125,0.3125
1480534300958994,0.125,3.1875,-0.1875
1480534300980050,1.375,2.4375,-0.375
1480534301016647,0.25,0.0625,0.6875
1480534301019154,-1.375,1,0.3125
1480534301046226,-0.6875,2.0625,-0.8125
1480534301064276,0.9375,1,-0.375
1480534301085330,0.6875,1.5,-0.8125
1480534301109895,0.25,0.25,-0.5625
1480534301137970,-1.8125,-1.75,-0.1875
1480534301141981,0.25,-1.25,0.1875
1480534301160028,1.75,-1.6875,0
1480534301181088,-0.0625,-2.8125,-0.5
1480534301205149,-0.8125,-2.4375,0.25
1480534301221191,0.5,-1.9375,-0.5625
1480534301241244,-1.125,-0.5,-0.6875
1480534301259292,0.4375,-0.3125,-0.9375
1480534301279848,1.1875,-0.6875,-0.125
1480534301302711,0.8125,0.125,-0.0625
1480534301332487,2.25,0.25,-0.25
1480534301341010,2.25,-0.6875,-0.625
1480534301363575,0.1875,-1.25,-0.0625
1480534301383122,-0.6875,-1.0625,0.0625
1480534301404679,-0.25,-1.0625,-0.5625
1480534301423730,0.9375,-0.9375,-1.25
1480534301442279,1.3125,-1,-0.8125
1480534301459826,0.6875,-1,-0.3125
1480534301482887,-0.1875,-1.3125,0.125
1480534301509458,-0.375,-1,-0.5
1480534301520487,-0.3125,-0.375,-0.625
1480534301542546,0.625,-0.1875,-0.375
1480534301578141,0.8125,-0.1875,-0.3125
1480534301593682,0.5,0.1875,-0.3125
1480534301603207,0.125,0.4375,-0.125
1480534301639805,0.1875,0.0625,0.0625
1480534301645320,0.9375,-0.375,-0.1875
1480534301661863,0.25,-0.125,0.0625
1480534301684925,0.125,-0.3125,0.25
1480534301699965,-0.125,-0.8125,-0.125
1480534301727538,0.1875,-0.5625,0
1480534301743581,1.25,0,0.375
1480534301759624,0,-0.625,-0.125
1480534301795719,-0.875,-1.5,0.5
1480534301810258,-0.625,-1.375,0.5625
1480534301819282,0.375,-0.875,0.5
1480534301849362,0.0625,-0.3125,0.5625
1480534301863902,-0.875,-0.0625,0.125
1480534301881450,-2.5,2.125,0.125
1480534301917544,-1.6875,3.625,-0.8125
1480534301923560,-9.6875,7.5625,1.3125
1480534301940606,-13.5,9.3125,2.375
1480534301961661,-17.0625,4.125,5.3125
1480534301983219,-7.375,-0.0625,3.625
1480534302000766,1.125,1.3125,1.1875
1480534302022322,-1.0625,4.4375,0.25
1480534302042877,-0.125,2.625,-0.25
1480534302058920,1.5,-0.8125,0.625
1480534302087996,2.0625,-3.5,0.75
1480534302110056,1.4375,-4.75,0.8125
1480534302120082,2.25,-5.9375,0.5
1480534302141641,2.5625,-7.0625,1
1480534302162695,4.4375,-6.6875,0.3125
1480534302194280,5.0625,-5.8125,0.1875
1480534302201801,4.4375,-4,0.1875
1480534302222855,1.4375,-1.875,0.6875
1480534302239400,-2.375,-1,0.5
1480534302261458,-2.75,-0.25,0.1875
1480534302290034,-1.625,-0.125,0.6875
1480534302315101,0.0625,-1.25,0.4375
1480534302329140,1.25,-1.9375,0.1875
1480534302351698,1.1875,-1.75,0.3125
1480534302374760,0.4375,-1.6875,0.6875
1480534302381780,0.8125,-1.9375,0.5
1480534302404339,-0.5625,-0.9375,0.25
1480534302419378,0.6875,-1.0625,0.3125
1480534302441938,0.625,-1.3125,-0.25
1480534302472018,0.25,-1.25,0.6875
1480534302478536,-0.1875,-1.875,0.6875
1480534302501598,1.625,-1.875,0.8125
1480534302524157,2.875,-1.875,1.125
1480534302538698,1.25,-2.3125,1.4375
1480534302567775,0.25,-2.875,1.125
1480534302591837,-0.5625,-2.625,1.1875
1480534302598354,0.375,-1.75,0.6875
1480534302645480,-0.25,-0.4375,0.25
1480534302650493,-0.75,0.4375,0.3125
1480534302667540,-1.6875,1.75,0.6875
1480534302690098,-1.75,2.6875,1
1480534302704136,-2.4375,2.5625,0.6875
1480534302725192,-1.25,1.25,0.6875
1480534302749757,-0.3125,0.4375,0.5
1480534302765299,0.9375,1.0625,0.5625
1480534302792872,1,1.25,0.6875
1480534302801898,-1.125,2,0.3125
1480534302824456,-0.625,1.875,-0.5625
1480534302847018,1.1875,-0.4375,-0.125
1480534302862056,2.3125,-0.375,-0.3125
1480534302884114,1.4375,0.3125,-0.4375
1480534302907176,1.75,0.1875,-0.625
1480534302921715,2.3125,0.5,-0.9375
1480534302944275,4.0625,-0.5,-1.0625
1480534302966835,3.6875,-0.25,-1.875
1480534302981876,1.875,1,-1.375
1480534303004434,-0.75,1.5,-0.9375
1480534303026994,0.0625,-0.1875,-1.25
1480534303042537,3.375,-0.25,-2.3125
1480534303064096,5.875,0.4375,-2.375
1480534303085149,4,-0.3125,-1.4375
1480534303102695,0.1875,0.875,-1.3125
1480534303125758,-1.1875,1.9375,-0.25
1480534303145309,-0.5,0.625,-1.4375
1480534303184915,2,0,-0.375
1480534303190429,3.4375,-0.625,-0.5625
1480534303205469,2.1875,-1.1875,-0.875
1480534303228029,0.625,-0.875,-1
1480534303244072,1.4375,-0.0625,-0.875
1480534303272648,1.0625,0.25,-1.125
1480534303281673,-0.3125,-0.0625,-1.1875
1480534303311753,0.1875,-0.125,-0.5
1480534303327294,0.75,-0.8125,-0.3125
1480534303349353,0.25,-0.5625,-0.25
1480534303364393,0.8125,-0.5,0.0625
1480534303401491,0.6875,-0.8125,-0.0625
1480534303406504,0.75,-0.875,-0.1875
1480534303424552,0.375,-1.125,-0.125
1480534303463157,0,-0.625,0
1480534303475186,-0.75,-0.0625,0.3125
1480534303492233,1.0625,-1.0625,-0.1875
1480534303506771,0.875,-0.625,-0.3125
1480534303520810,0.5625,0.625,-0.6875
1480534303545373,-1.1875,0.1875,-0.375
1480534303584979,-1.8125,-0.875,-0.6875
1480534303589491,-2.125,0.4375,-1.625
1480534303611554,-3.25,0.0625,-1.8125
1480534303634110,-2.9375,-1.4375,-0.625
1480534303641128,-1.8125,1,0.8125
1480534303679231,-2.125,4.9375,-0.25
1480534303694270,-11.625,10.375,0.3125
1480534303715326,-21.1875,10.375,5.0625
1480534303739390,-13,0.5,3.5
1480534303746913,-0.4375,-3.5625,1.125
1480534303767966,13.75,-1.0625,-0.375
1480534303784008,5.8125,2.3125,2.4375
1480534303807069,0.8125,1.5625,1.625
1480534303835145,-3.6875,0.9375,2.625
1480534303859209,-3.75,0,2.1875
1480534303874248,0.25,-0.75,0.1875
1480534303919869,-0.125,0.0625,0.5
1480534303922380,-0.0625,-0.125,0.125
1480534303935411,-0.125,-0.8125,0.25
1480534303957970,2.5625,-2.625,0.0625
1480534303994569,5.4375,-4.5625,0.1875
1480534303999582,7,-6.5625,-0.125
1480534304018131,7,-5.75,-0.6875
1480534304024147,3.625,-3.375,-0.4375
1480534304048716,1.4375,-1.125,-0.5625
1480534304067762,1.1875,0.125,-0.6875
1480534304084306,0.9375,0.5,-0.625
1480534304106867,4.8125,-1.375,-1.25
1480534304137448,3.375,-1.0625,-0.6875
1480534304144467,2.75,-0.9375,-0.4375
1480534304168029,1.5,-2.4375,-0.1875
1480534304189086,1.6875,-2,-1.1875
1480534304210643,2.75,-0.4375,0.0625
1480534304226686,1.4375,0.3125,-0.8125
1480534304256766,0.1875,-0.1875,-0.75
1480534304264285,1.25,-0.5,-1.0625
1480534304294867,2.625,0.1875,-1.1875
1480534304309406,2,-0.0625,-0.9375
1480534304323443,0.875,-0.1875,-1.1875
1480534304347008,1.875,-0.25,-1.4375
1480534304369066,1.4375,-0.5,-1.5
1480534304383608,1.9375,-1.0625,-1.4375
1480534304416190,1.375,-0.5,-1.25
1480534304429225,1.125,-0.6875,-1
1480534304443764,0.9375,-0.5,-0.875
1480534304474846,1.4375,-0.625,0.0625
1480534304489384,1.8125,-0.5625,-0.5
1480534304511944,1.125,-0.1875,-0.375
1480534304528488,2.1875,-0.375,-0.5625
1480534304549044,1.1875,-0.1875,-0.5625
1480534304571603,1.3125,-1,-0.625
1480534304586643,0.5625,-1.3125,-0.875
1480534304609203,0.625,-0.5625,-1
1480534304630762,1.4375,-0.5,-0.875
1480534304646806,0.4375,-0.75,-0.4375
1480534304670867,1,-0.625,-0.25
1480534304692425,-0.3125,-0.3125,-0.1875
1480534304707465,0.5625,-0.3125,0
1480534304729023,0.1875,-0.25,0.0625
1480534304751581,0.625,0.3125,0
1480534304766622,1.5625,0.625,0
1480534304795199,1.625,0.6875,-0.375
1480534304811745,0.25,2,-1.0625
1480534304826782,1.75,3.25,-1
1480534304849844,1.125,1.625,-0.8125
1480534304870399,0.25,0.3125,-0.3125
1480534304887443,-0.4375,0.3125,-0.625
1480534304910003,-1.0625,-0.6875,-0.1875
1480534304930059,0.5625,-2.5,-0.5
1480534304947107,3.6875,-0.875,-1.25
1480534304970163,2.125,1.9375,0.3125
1480534304997741,-0.9375,0.6875,-1.5625
1480534305006763,-1.5625,-0.25,-0.75
1480534305028820,0.125,0.0625,-0.4375
1480534305059401,0.6875,0.25,-0.3125
1480534305066921,0.3125,0.25,-0.375
1480534305088979,1.3125,0.5,0
1480534305128084,0.5,0.625,-0.3125
1480534305141118,0.1875,0.625,-0.25
1480534305155155,-0.0625,0.8125,-0.25
1480534305171714,-0.6875,0.6875,-0.1875
1480534305186741,0.125,0.25,-0.0625
1480534305210803,1.25,-0.0625,0.375
1480534305247403,1.75,0.3125,0.1875
1480534305255924,0.875,1,-0.25
1480534305282494,0.3125,0.6875,-0.3125
1480534305297534,0.1875,0.5,-0.4375
1480534305306057,-0.1875,0.3125,-0.5
1480534305330123,0.625,0.5625,-0.8125
1480534305351687,0.9375,0.5,-0.4375
1480534305367219,0.9375,0.0625,-0.25
1480534305404318,1.125,0.375,-0.3125
1480534305411839,0.625,0.1875,0
1480534305425875,-0.5,0.25,0
1480534305449438,-0.25,-0.1875,0.1875
1480534305471497,0.0625,-0.4375,0.1875
1480534305486036,1.4375,-0.5625,0.375
1480534305539678,0.0625,-0.25,0.75
1480534305543187,-0.875,1.125,0.75
1480534305577278,-1.875,0.8125,1.1875
1480534305583294,-1.1875,-0.8125,0.625
1480534305599337,0,0,-0.125
1480534305615380,0.125,1,0.1875
1480534305636438,-1.375,0.875,-0.0625
1480534305658995,-2.4375,1.3125,0.125
1480534305682060,0.0625,1.4375,-0.125
1480534305690580,3.0625,-0.375,0.625
1480534305712137,-2.625,-0.75,-0.9375
1480534305734197,-7.25,4.0625,1.3125
1480534305749737,-17.0625,10.3125,5.9375
1480534305771796,-20.375,9.625,1.375
1480534305801876,-11.625,4.1875,0.25
1480534305808895,6.1875,-1,-0.5
1480534305838975,7.0625,-1.5,-0.125
1480534305852511,-6.25,0.1875,0.875
1480534305869056,-9,-0.8125,1.875
1480534305891614,-5.25,-0.6875,1
1480534305912671,-1.5625,-0.5,0
1480534305936734,-3.125,-0.8125,-0.0625
1480534305959296,-1.6875,-1.125,0.125
1480534305972830,1.5,-2.625,1.6875
1480534305996896,1.1875,-2.3125,2.25
1480534306019454,1.4375,-1.75,1.4375
1480534306041513,0.1875,-2.125,1.1875
1480534306050037,1,-4.5,2.3125
1480534306094654,-0.25,-4.1875,1.25
1480534306097163,0,0.3125,1.0625
1480534306124233,-3.0625,2.1875,1.0625
1480534306131753,-2.8125,0.8125,0.25
1480534306156319,-0.9375,-1.125,1.4375
1480534306169353,1.625,-2.4375,2.5
1480534306197929,0.375,-1.6875,2
1480534306213972,-1.25,-0.4375,2.6875
1480534306244553,-3.625,-0.5625,3.4375
1480534306251572,-2.75,-1.3125,2.8125
1480534306274633,-0.9375,-2.375,3.0625
1480534306288670,0.9375,-0.6875,2.0625
1480534306326772,1.4375,1.1875,1.3125
1480534306334293,1.0625,0.5625,2.375
1480534306372394,-1.25,-1.125,2.5625
1480534306374398,-2.25,-1.375,1.9375
1480534306399466,-4.3125,-0.125,0.9375
1480534306408489,-5.5625,0.625,0.375
1480534306431551,-2.4375,0.25,-0.125
1480534306455113,-0.6875,-0.0625,-0.0625
1480534306476670,-0.0625,0.5,-0.125
1480534306493216,-1.25,0.5,0.0625
1480534306514772,-2.5625,-0.0625,0.0625
1480534306528810,-2.9375,1.0625,0.125
1480534306553374,-1.1875,0.8125,0
1480534306574431,-0.9375,1.0625,-0.4375
1480534306595487,-0.1875,1.1875,-0.625
1480534306612036,-1.1875,1.375,0.0625
1480534306634090,-1.5,1,0.1875
1480534306672192,1.0625,0.375,-0.0625
1480534306675700,1,0.75,0.0625
1480534306694249,-0.6875,1.4375,1.0625
1480534306715305,-1.1875,0.875,0.6875
1480534306731850,-1.125,0.9375,0.8125
1480534306754911,1.4375,0.8125,0.8125
1480534306793513,1.0625,0.25,1
1480534306805044,1.875,-0.625,0.6875
1480534306823593,4.9375,-2.3125,0.4375
1480534306835126,7.0625,-4.375,0.4375
1480534306851668,7.4375,-5.5625,0.0625
1480534306881748,6.5,-4.8125,-0.3125
1480534306895285,3.6875,-2.5625,-1.5625
1480534306917846,-0.0625,-3.25,-0.6875
1480534306950431,1.9375,-4.875,0.5625
1480534306980011,3.1875,-3.75,-0.375
1480534306986025,2.5625,-2,0
1480534306994047,0.1875,-2.125,0
1480534307033151,1.5625,-0.5625,-1.0625
1480534307037663,1.4375,5,-1.625
1480534307069957,-0.8125,7.6875,-2.625
1480534307076767,-8.1875,8.75,-3
1480534307098825,-9.25,9.875,-2.5
1480534307115872,-7.3125,11.0625,-3
1480534307136927,-6.375,7.25,-2.9375
1480534307151465,-2.375,3.3125,-2.3125
1480534307174025,1.6875,2.25,-2
1480534307196588,1.5625,1.75,-2
1480534307219646,0.6875,0.125,-2.375
1480534307234187,-0.9375,-0.125,-1.4375
1480534307257247,1.5,0.4375,-2.375
1480534307271285,2.25,0.6875,-1.8125
1480534307294346,1.6875,-0.3125,-1.9375
1480534307324927,2.375,-2.125,-0.8125
1480534307347487,2.375,-3.125,-0.4375
1480534307362532,2.875,-1.0625,-1.125
1480534307377066,1.625,2,-1.125
1480534307391103,0.625,1.875,-0.8125
1480534307414164,-1,0.625,-0.875
1480534307436724,-0.6875,1.375,-1.1875
1480534307459292,-0.75,3.0625,-1.1875
1480534307480341,-1.3125,3.25,-0.9375
1480534307502901,-3,2.625,-0.4375
1480534307518943,-1.5625,0.625,-0.3125
1480534307534485,0.5625,-0.75,-0.125
1480534307556543,0.4375,-1.6875,0.625
1480534307585119,1.8125,-2.375,0.3125
1480534307601664,4.1875,-3.25,0.125
1480534307624724,7.625,-5.4375,1.5625
1480534307641771,8.125,-8.0625,1.625
1480534307654804,7.25,-8.6875,1.375
1480534307684885,5.125,-8.1875,1
1480534307697919,4.375,-6.6875,0.4375
1480534307713966,3.4375,-4.75,0
1480534307737024,1.9375,-3,0.5625
1480534307757578,1.625,-2.3125,0.25
1480534307789163,-0.4375,-1.5,0.8125
1480534307796683,0.3125,-1.4375,0.875
1480534307817738,2.5,-1.5625,0.25
1480534307834284,2.5,-1.125,0.4375
1480534307862357,0.75,0.3125,0.375
1480534307895445,1.1875,0.8125,-0.3125
1480534307901460,2.125,-1.3125,-1.25
1480534307932544,1.4375,-0.125,-0.625
1480534307937557,1.125,1.375,-0.875
1480534307961621,0.25,0.75,-0.875
1480534307976661,0.1875,0.25,-1.3125
1480534307999222,2.1875,0.3125,-1
1480534308020276,1.375,0.5625,-0.75
1480534308036821,0.6875,-0.4375,-0.5625
1480534308066901,-0.125,-0.6875,-0.4375
1480534308074421,1.1875,-0.9375,-0.125
1480534308096479,0.8125,-0.8125,-0.3125
1480534308119040,1.4375,-1,-0.5
1480534308140095,0.625,-0.375,-0.5625
1480534308187220,0.5,0.3125,-0.5625
1480534308196746,0.625,0.1875,-0.1875
1480534308208778,0.5,0.25,0.25
1480534308218304,0.8125,0.1875,0.4375
1480534308246879,0.25,-0.1875,0.1875
1480534308254400,0.375,0.0625,-0.375
1480534308277962,1,0.1875,-0.4375
1480534308299018,0.9375,-0.1875,-0.625
1480534308314058,-0.125,0,-0.75
1480534308345648,0.3125,0.125,-0.4375
1480534308367200,0.625,-0.375,-0.125
1480534308373718,1.1875,-0.375,-0.0625
1480534308404800,1.0625,0.5625,-0.4375
1480534308419839,-0.0625,0.5,-0.25
1480534308433376,0.75,0.375,-0.5
1480534308458943,1.6875,0.6875,-0.4375
1480534308495541,1.5,0.875,-0.875
1480534308500054,0.0625,0.125,-0.875
1480534308524116,0.375,0.125,-0.75
1480534308546177,1.1875,-0.375,-0.3125
1480534308560213,0.8125,-0.9375,-0.25
1480534308577259,0.1875,-0.5625,-0.25
1480534308630402,0.25,-0.375,-0.4375
1480534308652458,1.875,0.0625,-0.875
1480534308654465,2.6875,0.1875,-1.0625
1480534308666496,1.3125,0.5625,-1.4375
1480534308680533,0.25,0.8125,-1.0625
1480534308705098,0,0.5,-0.5625
1480534308743701,1.4375,0,-0.8125
1480534308749216,1.5625,-0.25,-0.5
1480534308770773,1.5,-0.0625,-0.625
1480534308779297,1.4375,0,-0.6875
1480534308800855,1.3125,0.1875,-0.8125
1480534308816895,1.1875,0,-0.875
1480534308845476,1.1875,-0.375,-0.75
1480534308860010,0.875,-0.125,-0.625
1480534308892096,0.625,0,-0.3125
1480534308906635,0.5625,0.1875,0.0625
1480534308922176,0.125,0.1875,-0.5
1480534308936714,0.0625,0.125,0.25
1480534308959275,-1,-1.25,-0.375
1480534309012923,-2,-2.375,-0.0625
1480534309019936,1.5625,-2.4375,-0.875
1480534309022445,-0.0625,-0.125,-0.8125
1480534309041493,-2,0.5625,0.75
1480534309056032,-5.4375,-2.875,-0.375
1480534309080095,-6.5,-5.1875,-0.0625
1480534309101654,-11.5625,-6.25,-0.0625
1480534309122710,-7.875,-7.9375,1.5625
1480534309139252,-1.1875,-8.1875,-0.0625
1480534309178358,2.5625,-10.125,0.25
1480534309182872,0.5625,-12.0625,0
1480534309199413,-3,-9.6875,0.875
1480534309221472,-3.75,-3.8125,0.5
1480534309236193,-4.125,-2,1.3125
1480534309265088,-5.25,-1.8125,0.875
1480534309298176,-2.4375,0.625,-0.6875
1480534309303189,-3.25,4.5,0.125
1480534309320736,-4.9375,5.8125,0.625
1480534309342293,-9.625,5.9375,0.75
1480534309355829,-7.375,5.75,1.75
1480534309385408,-4.25,5.1875,1.5625
1480534309408970,0.125,1.1875,1.625
1480534309424011,2.75,-3.6875,2.0625
1480534309461111,2.0625,-6.5,1.25
1480534309484672,0.1875,-5,0.5
1480534309487178,-0.1875,2.625,0.6875
1480534309499211,-4.1875,2.625,1.125
1480534309529292,-3.75,0.9375,0.5
1480534309542826,-1.25,2.5,0.75
1480534309566892,-2.4375,1.4375,1.25
1480534309582432,-2.0625,-0.375,1.625
1480534309613018,1.125,-1.1875,1.8125
1480534309619029,5.5625,-1.6875,1.5625
1480534309643093,7.375,-3.125,1.375
1480534309670165,7.5625,-5.5,1.375
1480534309679195,6.25,-6,1.4375
1480534309703093,3.4375,-4.4375,1.6875
1480534309739850,1.875,-2.6875,1.8125
1480534309742360,1.875,-2.0625,1.4375
1480534309761910,4.5,-0.5625,1.875
1480534309791490,4.625,1.125,0.6875
1480534309822570,2,3.625,-0.375
1480534309825077,2.875,2.0625,-0.625
1480534309844128,4.5,2.0625,-0.5625
1480534309859669,2.5,4.1875,-0.625
1480534309881731,-0.1875,5.875,-0.25
1480534309905291,-0.5,5.25,-1.0625
1480534309919328,1.0625,3.9375,-1.875
1480534309943894,2.1875,3.125,-1.6875
1480534309963947,3,1.9375,-1.9375
1480534309979491,2.625,-0.375,-1.25
1480534310008064,2.5625,-0.625,-1.6875
1480534310030123,1.3125,0.3125,-0.375
1480534310038646,-1.0625,-1.6875,-0.875
1480534310062211,-0.8125,-4.1875,-1
1480534310084266,2.8125,-6.125,-1.875
1480534310098805,5.625,-4.375,-2.875
1480534310123371,2.1875,0.0625,0.8125
1480534310152448,-2.4375,-1,-1.1875
1480534310158965,-1.5,-2.4375,-1.3125
1480534310182529,4.0625,-0.625,-1.25
1480534310234668,2.125,-0.6875,-0.5
1480534310237174,-2,-1.5,-0.125
1480534310255222,-2.1875,-1.625,0.3125
1480534310296334,1.875,-0.9375,-0.125
1480534310309867,2.25,-0.75,0.3125
1480534310312875,0.75,0.25,-0.0625
1480534310326412,-1.875,4.1875,0.25
1480534310345462,-4.5,9.25,-0.375
1480534310362007,-11,12.9375,0.5625
1480534310400107,-14.9375,10.5,-1.6875
1480534310405120,-14.5625,1.4375,0.375
1480534310429188,-3.3125,-1.3125,-0.4375
1480534310444224,2.5625,3.5625,-1.625
1480534310465280,-1,6.3125,-2.9375
1480534310481824,-2.75,5.5,-1.9375
1480534310504886,-0.1875,2.4375,-0.75
1480534310532960,-1.4375,-1.0625,0.0625
1480534310556523,-1.9375,-2.4375,0.625
1480534310572065,1.375,-3.0625,-0.8125
1480534310586604,2.6875,-2.625,0
1480534310601644,2.625,-1.875,-0.375
1480534310624204,3.4375,-1.9375,0
1480534310645261,3.75,-2.9375,0.375
1480534310675339,3.25,-4.25,0.5625
1480534310684363,2.625,-4.75,0.5
1480534310713941,3.0625,-4.625,0.6875
1480534310721462,2.875,-4.375,0.5625
1480534310744022,4,-4.3125,0.0625
1480534310773601,3.8125,-2.75,-0.8125
1480534310795161,3.1875,-1.8125,-0.375
1480534310804182,2.1875,-2,-0.1875
1480534310834764,1.0625,-2.4375,-0.3125
1480534310849302,2.125,-2.75,-0.5
1480534310864342,3.8125,-3.625,-1
1480534310886902,3.75,-3.5,-0.6875
1480534310901942,3.625,-3.75,-0.75
1480534310924502,3.375,-3.375,0.125
1480534310954080,1.875,-1.25,-0.8125
1480534310961099,1.3125,0,-1.375
1480534310984661,1.3125,-0.4375,-0.625
1480534311013239,1.75,-1.1875,-0.5
1480534311021259,1.25,-0.375,-0.5
1480534311052342,-0.125,0.625,-0.0625
1480534311068886,-0.4375,1.5,-0.25
1480534311087936,1,0.75,-0.0625
1480534311112002,0.875,1,0.0625
1480534311126541,1.4375,1,-0.375
1480534311142582,-0.6875,0.625,0.3125
1480534311164139,-0.75,0.125,0
1480534311203243,-1.3125,0.3125,-0.5
1480534311207755,0.625,0.5,-1.5625
1480534311224800,1.5625,-0.25,-0.8125
1480534311246859,1.125,-0.5625,-0.25
1480534311260897,-0.3125,-0.625,-0.0625
1480534311283958,-0.3125,-0.25,0.0625
1480534311307520,0.75,1.625,0.0625
1480534311327574,-0.8125,3.5625,-0.25
1480534311344619,-5.3125,4.3125,-1.25
1480534311367186,-14.8125,5.4375,2.875
1480534311389739,-11.625,5.1875,3.5
1480534311404279,-7.0625,4.625,0.6875
1480534311426838,-0.9375,3.0625,-0.9375
1480534311447894,0.0625,1.1875,-0.0625
1480534311471456,-1.0625,0.6875,0.1875
1480534311486496,-5.0625,0.5,0.9375
1480534311511062,-4.1875,-0.5,0
1480534311525600,-2.5,-1.375,-0.125
1480534311546656,-1.25,-0.625,0.1875
1480534311567713,-3.125,-0.25,0.6875
1480534311584256,-4.0625,-0.3125,0.5625
1480534311606817,-2.9375,0,0
1480534311627873,-1.1875,1.8125,0.3125
1480534311644918,-1.875,1.75,1.125
1480534311672491,-4.0625,0.125,0.9375
1480534311689036,-3,-0.1875,1.0625
1480534311704075,-3.1875,0.875,1.3125
1480534311726635,-2.375,0.4375,1.125
1480534311747691,-2.6875,0.625,1.25
1480534311765239,-0.8125,0.5,1.125
1480534311786797,-0.6875,-1.1875,1.4375
1480534311816875,1.3125,-1.3125,1
1480534311824395,2,-0.8125,1.6875
1480534311848961,1.1875,-2.0625,2
1480534311885558,1.5625,-3.9375,2.375
1480534311890070,5.625,-5.5625,2
1480534311908620,8.625,-7.1875,2.125
1480534311953740,11.25,-7.6875,1.5625
1480534311959254,10.5625,-4.375,2.6875
1480534311974295,10.375,-2.375,1.5
1480534311989334,5.9375,-2,1.375
1480534312003372,4.0625,-0.75,2.6875
1480534312026432,5.25,0.375,1.6875
1480534312067543,0.4375,3.4375,0.75
1480534312077569,0.25,3.0625,-0.6875
1480534312094615,0.5,2.875,-0.3125
1480534312118177,-0.25,4.1875,-1.125
1480534312132214,-2.875,4.4375,-0.875
1480534312152769,-1.1875,4.0625,-1.3125
1480534312169317,2.1875,3.6875,-2.125
1480534312183350,2.625,3.1875,-2.4375
1480534312221451,2,3.25,-2
1480534312229474,1.3125,2.5,-1.8125
1480534312251532,0.8125,2.125,-2.375
1480534312266573,3,3.0625,-3.375
1480534312289131,3.6875,3.5625,-3.375
1480534312310187,4.0625,0.8125,-1.5
1480534312341771,3.75,-0.5625,-1.625
1480534312356812,2.9375,-0.1875,-2.1875
1480534312379873,2.375,-0.5,-2.375
1480534312386892,0.125,-1.5,-2.0625
1480534312409952,-3.3125,-1.75,-2.25
1480534312430509,-4.25,-1.3125,-3.375
1480534312452584,-3.25,0.3125,-3.1875
1480534312470614,-4.375,-5.0625,-0.9375
1480534312492172,-1.6875,-8.125,-1.125
1480534312506716,-1.1875,-0.25,2.625
1480534312529271,-3.875,0.8125,-1.8125
1480534312557846,-3.875,0.8125,-2.375
1480534312567373,0.9375,1.875,-1.875
1480534312596449,1.1875,1.1875,-1.375
1480534312617505,-2.625,-0.375,0
1480534312649089,-6.125,-1,0.375
1480534312659116,-3.3125,0.4375,-0.375
1480534312670147,-0.375,1.125,-0.3125
1480534312686689,-0.75,1,-0.1875
1480534312710754,-2.0625,0.5,0.375
1480534312731809,-4.3125,-0.4375,0.5625
1480534312747853,-2.3125,-1,0.6875
1480534312778936,-1.5625,0.1875,0.1875
1480534312791468,-1.25,1.125,0.6875
1480534312814028,-3.1875,0.6875,0.9375
1480534312835084,-3.8125,0.4375,1.1875
1480534312851628,-4,1.0625,0.75
1480534312872684,-1.875,0.875,0.8125
1480534312896748,-2.5,1.375,1.0625
1480534312911791,-3.25,1.4375,1.5
1480534312932844,-4.3125,1.125,1.75
1480534312949890,-4.5625,1.125,1.5625
1480534312977463,-2.375,1,1.4375
1480534312985985,-1.4375,-1.4375,1.5625
1480534313009046,-1.4375,-3.3125,1.9375
1480534313034114,-0.625,-3,1.75
1480534313054166,0.375,-1.375,1.5
1480534313069207,-1.375,-1.9375,1.5
1480534313091766,-2.8125,-1.5,2.625
1480534313105804,-4.375,0,2.75
1480534313129367,-5.0625,0.875,2.0625
1480534313151926,-4,1.125,1.5625
1480534313176994,-2.0625,0.5625,1.75
1480534313189527,-1.1875,-0.6875,1.625
1480534313213089,0.625,-2.4375,2
1480534313240162,1.1875,-4.5625,2.5
1480534313255202,2.9375,-6.6875,2.625
1480534313271746,3.8125,-7,3.3125
1480534313292802,5.75,-6,3.25
1480534313309346,5.75,-5.0625,2.8125
1480534313331905,7.25,-4.9375,3.125
1480534313360482,10,-3.875,2
1480534313369530,10.25,-2,0.125
1480534313397579,5.875,-0.8125,0.625
1480534313412623,6,-2.1875,-1
1480534313430167,5.125,-1.375,-0.5
1480534313451726,6.3125,1,-0.1875
1480534313480300,2,3.1875,-0.6875
1480534313489324,0.5625,3.375,-1.6875
1480534313517900,2.375,2.25,-3.125
1480534313532439,2.4375,2.5625,-1.0625
1480534313548983,1.6875,3.3125,-2.375
1480534313572044,0.75,3.1875,-3.125
1480534313596108,2.4375,3.375,-3.6875
1480534313609143,4.3125,2.8125,-3.1875
1480534313639223,4.0625,0.9375,-2.8125
1480534313660280,1.6875,-0.1875,-2.375
1480534313669304,1.8125,-0.9375,-2.3125
1480534313693368,2.875,-1.6875,-2.25
1480534313713921,3.75,-1.375,-2.75
1480534313729463,4.8125,-1.1875,-3
1480534313759041,4.25,-1.3125,-2.9375
1480534313774083,3.0625,-0.75,-3.125
1480534313788620,2.375,-0.4375,-2.625
1480534313811684,1.9375,-1.125,-2.125
1480534313834745,2.125,-1.375,-2.125
1480534313848780,1.4375,-0.1875,-1.375
1480534313886380,3.125,0.625,-1.25
1480534313917463,2.625,0.5,-0.8125
1480534313920470,2.5625,0.375,-0.3125
1480534313931500,0,0.75,-0.1875
1480534313970604,-0.1875,1.25,-0.375
1480534313976620,-0.1875,0.625,-0.5625
1480534314005198,-0.5,-0.5,-0.0625
1480534314021238,-1.625,-0.75,-0.1875
1480534314038285,-2.75,-0.25,0.1875
1480534314051319,-4.5,-0.5625,1.125
1480534314074381,-5.1875,-1.3125,1.5
1480534314088417,-4.4375,-0.375,1.3125
1480534314111982,-2.4375,-0.25,1.3125
1480534314141568,-4,-0.5,1.5
1480534314157100,-1.5,-1.4375,0.5
1480534314179159,0.0625,-2,0.25
1480534314195705,0.4375,-1.625,-0.6875
1480534314222776,-0.5625,-0.375,-0.1875
1480534314231799,-2.125,-0.3125,-0.125
1480534314254359,-1.1875,-1.125,-0.9375
1480534314283937,-0.5,-0.25,-1.125
1480534314291960,1.3125,2,-1.125
1480534314315023,2.8125,1.4375,-1.75
1480534314345603,3.4375,0.5,-1.625
1480534314358135,2.1875,0.5625,-1.1875
1480534314375682,3.8125,-0.5625,-0.6875
1480534314395237,5.9375,-1.0625,-0.875
1480534314419297,2.25,-1.5,-1.75
1480534314440354,1.0625,-1.1875,-0.6875
1480534314456898,4.4375,-2.0625,-1.1875
1480534314471938,5.875,-3.375,-2.1875
1480534314494502,6.75,-3.3125,-2.25
1480534314522572,3.0625,-2.0625,-1.9375
1480534314539116,1.625,-1.6875,-2.1875
1480534314561680,0.5625,-2.0625,-2.9375
1480534314577222,1.75,-2.8125,-2.5625
1480534314593260,3.5,-3.75,-2
1480534314614317,3.625,-2.9375,-1.375
1480534314636876,1.6875,-2.3125,-0.8125
1480534314652920,1.75,-1.9375,-0.4375
1480534314673975,2.6875,-1.5,-1.0625
1480534314696535,3.25,-1.125,-0.875
1480534314711578,3.0625,-0.875,-0.6875
1480534314734137,2.0625,-0.0625,-1.0625
1480534314764215,-1.4375,1.5,-0.5625
1480534314779256,0.625,1.9375,-1.125
1480534314793795,1.375,2.5,-1.25
1480534314816856,2.3125,2.375,-1.375
1480534314839416,1.9375,2.0625,-0.8125
1480534314853954,2.375,1.875,-0.4375
1480534314876514,2.6875,2.5,-0.25
1480534314892056,-0.125,3.25,0.125
1480534314929154,1.125,3.375,0.6875
1480534314938178,1.375,3.125,-0.0625
1480534314959234,1.5625,3.5,-0.125
1480534314974776,1.125,4.5,0.5
1480534314996834,1.6875,4.1875,-0.0625
1480534315010871,1.5,3.875,0.5625
1480534315034435,1.625,5.375,0.5625
1480534315056493,-0.4375,5.8125,0.1875
1480534315077549,-0.3125,5.5,-0.25
1480534315103117,1.25,5.4375,0.6875
1480534315116654,0.5625,3.9375,0.0625
1480534315146733,1.1875,3.0625,-0.25
1480534315154754,0.9375,3.1875,-0.375
1480534315184334,1.875,2.3125,-0.3125
1480534315198370,2.3125,0.625,-1.25
1480534315213911,2.9375,0,-0.5625
1480534315236472,2.6875,0.875,-0.375
1480534315274071,1.5,0.6875,-0.0625
1480534315281592,0.5,0.0625,-0.75
1480534315305154,1.4375,0.1875,-1.1875
1480534315317689,2.6875,-0.125,-0.5625
1480534315334734,2.3125,-0.3125,-0.75
1480534315356792,0.125,0.125,-0.75
1480534315379352,-0.875,-0.4375,-1.1875
1480534315395395,1.3125,-0.4375,-1.125
1480534315424972,2.0625,-0.3125,-1.5625
1480534315462071,1.6875,-0.625,-2
1480534315464578,0,-1.375,-1.6875
1480534315476610,2.125,-2.1875,-1.875
1480534315497666,2.5625,-1.5625,-2.0625
1480534315516716,2.9375,-0.9375,-2.125
1480534315567352,3.125,-1.75,-1.125
1480534315569859,2.375,-2.625,-1.0625
1480534315582893,2.0625,-2.375,-1
1480534315586903,1,-2.0625,-1.125
1480534315612473,-0.25,-2.25,-0.6875
1480534315624503,1.625,-1.625,-1.3125
1480534315639543,2.6875,-1.375,-1.375
1480534315671127,1.4375,-1.125,-0.625
1480534315684663,-0.3125,-1.125,-0.0625
1480534315702712,0.1875,-0.75,0
1480534315722263,-0.125,-0.5,0.5625
1480534315755351,-0.3125,-0.5625,0.6875
1480534315759362,0,-0.375,0.9375
1480534315789442,-0.375,-0.25,0.875
1480534315804485,-0.5625,-0.25,0.375
1480534315827045,-0.375,0.25,0.5
1480534315842082,-0.5,0.3125,0.1875
1480534315865144,-1.375,-0.375,0.0625
1480534315887202,-0.1875,-0.25,-0.125
1480534315902243,-0.4375,-0.5,0.3125
1480534315924302,-0.8125,-0.8125,0.3125
1480534315949870,-0.375,-0.875,-0.125
1480534315964910,0.25,-0.875,-0.1875
1480534315984462,0.375,-0.5625,-0.125
1480534316009528,-0.8125,-0.6875,0
1480534316029581,-0.25,-0.5625,-0.375
1480534316044626,0.4375,-0.5,-0.375
1480534316061167,-0.25,0.3125,-0.75
1480534316082221,0.75,0.125,-0.375
1480534316104781,-0.75,-0.5,-0.3125
1480534316120824,-0.1875,-0.8125,-0.625
1480534316141880,0.3125,-0.8125,-0.5
1480534316167524,0.1875,-1.0625,-0.8125
1480534316187000,1.125,-1,-1.0625
1480534316202434,1,-1.125,-0.875
1480534316232621,0.1875,-1.625,-0.8125
1480534316242648,1.25,-1.5,-1.0625
1480534316262200,1.0625,-1.1875,-1
1480534316287266,1.4375,-1.5,-0.8125
1480534316300803,0.6875,-1.0625,-0.6875
1480534316323362,0.0625,-0.75,-0.625
1480534316345922,-0.5625,-1.0625,-0.625
1480534316362469,0.5,-1.1875,-0.375
1480534316391043,0.625,-0.8125,-0.5625
1480534316415609,0.9375,-0.6875,-0.625
1480534316423128,-0.25,-1.0625,-0.0625
1480534316443682,-0.625,-1.5625,0
1480534316464740,0,-1.3125,-0.0625
1480534316486797,-0.0625,-0.75,0
1480534316509358,-0.1875,-0.8125,-0.0625
1480534316531918,-0.375,-1,0.25
1480534316548963,-0.875,-0.8125,0.625
1480534316578541,-0.1875,-0.75,0.8125
1480534316584557,-1,-0.4375,1.25
1480534316607117,-0.4375,0,1.4375
1480534316639704,-0.375,0.625,1.0625
1480534316652238,-0.875,0.375,0.6875
1480534316667278,-1.3125,0.6875,1
1480534316681817,-1.1875,1.25,0.9375
1480534316711905,-1.3125,1.9375,1
1480534316726936,-1.1875,1.375,-0.3125
1480534316749496,-3.6875,2.3125,1.0625
1480534316781079,-5.25,2.75,1.375
1480534316812162,-7.3125,3.6875,1.5
1480534316814670,-6.1875,3.375,-0.1875
1480534316832216,-7,4.5,2.8125
1480534316847256,-7.5,4.0625,1.1875
1480534316862296,-7.3125,4.375,1.125
1480534316885859,-3.1875,3.25,0.4375
1480534316906916,-3.75,1.375,1.25
1480534316939000,-3.875,0.625,0.9375
1480534316944517,-4.0625,0.875,1.75
1480534316970083,-6,1,1.25
1480534316982617,-3.875,2.5,0.875
1480534317004675,-3.125,2.25,1.875
1480534317027238,-4,1.75,1.6875
1480534317041774,-5.0625,1.625,1.4375
1480534317071853,-6.25,2.375,1.625
1480534317089902,-3.75,2.1875,1.75
1480534317119981,-3.9375,1.6875,1.5
1480534317124493,-3.6875,0.5625,1.6875
1480534317147053,-4.375,0.5,2
1480534317163597,-4.3125,0.5625,2.1875
1480534317184654,-3.8125,0.375,2.0625
1480534317216238,-3.75,0.5625,2.1875
1480534317223757,-3.4375,0.625,1.875
1480534317247320,-1.75,-0.125,1.8125
1480534317266873,-1.625,-0.5625,1.9375
1480534317283917,-1.1875,0.3125,1.4375
1480534317308984,-1.875,0.4375,1.5
1480534317335054,-0.375,-0.5625,1.3125
1480534317367140,-0.8125,-0.8125,1.25
1480534317372152,-0.625,-0.375,1.125
1480534317387192,-1.1875,-0.1875,1.25
1480534317404739,-0.25,-0.6875,1.1875
1480534317426296,0.625,-2.125,1.4375
1480534317446852,4.0625,-3.8125,1
1480534317464900,5.375,-4.5,0.8125
1480534317487459,4.0625,-4.625,1.125
1480534317525560,2.8125,-4.1875,0.1875
1480534317529571,4,-3.75,0
1480534317552130,4.625,-2.625,-0.4375
1480534317567171,4.0625,-1.4375,-0.5
1480534317585219,2.625,-1,-0.5625
1480534317611790,2.875,-1.625,-0.5
1480534317627333,1.8125,-0.875,-0.5
1480534317645381,2.5,-0.875,-1.125
1480534317667439,3.8125,-0.5,-1.375
1480534317694515,2,-1.3125,-1.1875
1480534317705038,5.375,-1.875,-1.75
1480534317732110,4.5625,-1.9375,-2.0625
1480534317763694,4.4375,-2,-1.125
1480534317769710,4.5625,-3.875,-0.25
1480534317803801,5.875,-7.375,0.25
1480534317809315,3,-9.0625,1.0625
1480534317830872,1.625,-8.375,-0.875
1480534317851928,-2.5625,-3.8125,-1.3125
1480534317874488,-0.375,4.375,0.25
1480534317885016,1.5625,6.3125,0.1875
1480534317904569,-2,-0.9375,0.0625
1480534317927129,-1.25,-4,-1.625
1480534317958211,9.125,-1.6875,-1.5
1480534317965230,10.75,-3.6875,-1.8125
1480534317986787,1.1875,-7.875,-2.125
1480534318009347,-1,-9.25,-1.9375
1480534318024387,6.5625,-7.1875,-0.75
1480534318046947,10.6875,-5.75,-2.25
1480534318077532,7.4375,-4.3125,-1.1875
1480534318086051,1.5625,-7.0625,-1.4375
1480534318110115,-0.6875,-5.125,-0.4375
1480534318129667,-3.375,0.5625,2.6875
1480534318146211,-6.5,3.25,3.375
1480534318168772,-7.6875,1.375,2.375
1480534318206372,-1.4375,-2.1875,2.1875
1480534318208878,4.6875,-5.25,2.875
1480534318229934,2.3125,-7.9375,3.6875
1480534318249487,1.3125,-10.0625,2.875
1480534318266030,3.875,-6.6875,1.5625
1480534318287085,5.5625,-1.5625,-0.5
1480534318326191,4.25,0,-3.8125
1480534318342233,1.875,0.5625,-3.4375
1480534318354765,-3.375,0.375,-1.75
1480534318369805,-10.0625,1.4375,-1.1875
1480534318385849,-11.5,6.3125,-1.875
1480534318407907,-7.125,9.5,-3.6875
1480534318429966,-3.1875,10.0625,-2.6875
1480534318452025,1.0625,7,-3.625
1480534318474585,-1,4.8125,-2.3125
1480534318489624,-1.25,2,-1.5
1480534318512186,-0.9375,1.9375,-1.75
1480534318543268,0,3.9375,-3
1480534318556803,0.9375,3.6875,-3.4375
1480534318568336,3.8125,2.1875,-2.5625
1480534318594405,4.0625,1.0625,-2.125
1480534318609443,3.3125,-0.375,-2.6875
1480534318635513,2.5,-0.8125,-1.625
1480534318654564,2.125,0.625,-1.625
1480534318677124,1.5625,0.1875,-1.4375
1480534318692166,1.25,-2.25,-0.5
1480534318707203,-0.125,-2.9375,-0.75
1480534318737284,1.125,-1.1875,-0.6875
1480534318756334,1.25,-2.625,-0.5625
1480534318766863,1.3125,-3.3125,-0.5
1480534318789422,2.5625,-1.8125,-0.1875
1480534318808473,2,-0.9375,-0.75
1480534318828526,1.4375,-1.5625,0.25
1480534318849582,-0.0625,-1.25,0.625
1480534318875150,-2.125,-1.1875,0.375
1480534318888686,0.3125,-1.6875,0.0625
1480534318912256,1.375,-1.75,0.125
1480534318934810,0.75,-1.125,0
1480534318946845,-0.8125,-0.375,0.3125
1480534318970905,-0.1875,-1.1875,0.5625
1480534319001487,-1.125,-0.6875,0.6875
1480534319008506,-0.625,0.375,0.5625
1480534319033070,-0.875,1.125,0.625
1480534319047609,0.9375,1.6875,-0.1875
1480534319074681,-0.0625,0.875,0.25
1480534319107770,-0.875,-0.0625,0.8125
1480534319112280,1.25,0.1875,2.375
1480534319129829,1.0625,2.8125,0.4375
1480534319152888,0.6875,0.8125,-0.8125
1480534319168932,-0.6875,-2.25,0.625
1480534319190055,1,-1.125,-0.75
1480534319209540,0.0625,-0.5625,0.125
1480534319227589,-1.6875,-1.4375,0.125
1480534319250148,0.1875,-0.375,-0.75
1480534319277223,1.8125,0.375,-1.4375
1480534319309807,1.5,-0.0625,-1
1480534319312313,0,0.4375,-0.625
1480534319329358,-0.6875,0.4375,0
1480534319347406,1,-0.6875,-0.9375
1480534319377501,1.375,0,-0.875
1480534319389518,1.5,0.9375,-1
1480534319415086,1.1875,-0.0625,-1.25
1480534319434639,-0.4375,-1.5,-0.3125
1480534319451697,0.6875,-0.6875,-0.5625
1480534319473241,1.3125,1.75,-1
1480534319489785,3.75,0.75,-1.3125
1480534319516857,0.6875,-0.6875,-1.3125
1480534319531897,-0.625,-0.75,-0.5625
1480534319554457,-1.375,-0.125,0.125
1480534319572505,1.8125,0.9375,-1.25
1480534319595567,1.625,-0.25,-1.5625
1480534319610106,1.5,0.1875,-0.75
1480534319630158,3.125,1.375,0
1480534319653723,0.25,2.3125,-1.125
1480534319675780,1.0625,0.5,-0.875
1480534319689315,1.375,-1.1875,-1.125
1480534319715385,0.9375,-0.5625,-0.875
1480534319729924,0.8125,0.6875,-0.6875
1480534319749476,0.5625,1.1875,-0.625
1480534319772036,0.9375,2.75,-1.125
1480534319797605,4.4375,1.5625,-1.5625
1480534319809637,0.9375,-1.0625,-0.0625
1480534319832197,0.8125,-2.1875,-0.0625
1480534319849743,0.5625,-2.6875,-0.1875
1480534319870799,1.25,-1.4375,-1.25
1480534319916922,2.3125,0.0625,-0.875
1480534319920431,0.4375,-0.9375,-0.5625
1480534319938478,-2.9375,-0.3125,-0.1875
1480534319953519,-2.3125,1.5,-0.375
1480534319970063,-1.5,1.6875,0.25
1480534320006158,-0.75,2.125,-0.1875
1480534320019694,0.375,4.3125,-0.6875
1480534320029722,3.9375,5.25,-2
1480534320058799,0.4375,0.625,-0.5
1480534320074341,-3.4375,0.0625,1.1875
1480534320089881,-1.1875,2.5,0.125
1480534320110941,-0.4375,2.3125,-0.1875
1480534320131993,3,2.375,-1.375
1480534320150042,1.75,2.8125,-0.4375
1480534320171098,-1,2.5625,-0.1875
1480534320199674,-2.5,4.1875,0.5
1480534320210203,-1.3125,8.125,-0.5
1480534320248809,-0.625,10.125,-1.75
1480534320268858,-1.125,8,-1
1480534320271366,-3.3125,6.125,0.375
1480534320292422,-4.9375,8.5625,-1.0625
1480534320313476,-6.125,11.75,-2.25
1480534320330020,-9.5625,11.5,-0.625
1480534320353081,-5.75,11.375,-1.5625
1480534320372132,-3.75,9.0625,-1.0625
1480534320397700,-1.375,6.3125,-0.625
1480534320427289,-3,9.0625,-1.5625
1480534320432292,-1.75,6.0625,0.625
1480534320457359,-0.875,0.875,0.6875
1480534320488441,4.4375,-2.0625,0.1875
1480534320499471,8.5,-5.25,0.4375
1480534320510003,9.1875,-8.6875,0.875
1480534320545593,5.5625,-8.0625,0.0625
1480534320559631,2.25,-1.25,-2.125
1480534320577680,1.625,1.8125,-0.75
1480534320594225,-1.1875,-2.25,0.125
1480534320619289,-3.8125,-5.625,0.6875
1480534320630820,-1.125,-4.5,0.375
1480534320668922,1,-2.3125,-0.0625
1480534320673433,1.9375,-1.5,-0.5625
1480534320702256,2.625,-1.5,-0.375
1480534320712537,1,-1,-0.5
1480534320732090,-3.125,2.625,-0.6875
1480534320754649,-4.375,5.625,-1.8125
1480534320772697,-7.625,3.875,-0.875
1480534320794757,-7,3.1875,-1.625
1480534320821828,-0.9375,3,-2.25
1480534320833861,1.0625,-1.625,-0.4375
1480534320855418,-0.625,-0.5625,-1.375
1480534320870458,-1.3125,4.75,-2.375
1480534320892517,0.4375,2.5,-0.5
1480534320913572,-0.4375,-2.8125,-0.0625
1480534320942149,0.8125,-4,0.875
1480534320952676,2,-3.75,1.1875
1480534320975738,2.8125,-4.125,1
1480534320994788,3.75,-2.75,0.5
1480534321018351,3.25,-1.375,-0.3125
1480534321040911,0.8125,-1,0.25
1480534321057455,0.5625,-2.6875,0.25
1480534321072495,2.625,-3.9375,0.4375
1480534321103578,4.75,-4.6875,0.3125
1480534321131652,2.8125,-3.125,0.75
1480534321134160,1.1875,-0.5,0.3125
1480534321153711,-0.375,0.3125,0.6875
1480534321174768,0.9375,-0.0625,0.125
1480534321192314,2.8125,-1.4375,-0.125
1480534321214874,1.125,-2.125,0.75
1480534321252975,0.5,-2.4375,0.1875
1480534321258490,1.0625,-2.375,-0.0625
1480534321283055,0.75,-0.625,-0.4375
1480534321294586,2.125,1.75,-1.125
1480534321312634,0.3125,0.625,-0.3125
1480534321348228,0.75,-1.1875,-0.375
1480534321354745,-1.125,-2,0.25
1480534321380815,-2.375,0.4375,-0.375
1480534321408390,-5.9375,7.4375,-1
1480534321414404,-9.75,11.375,-3.625
1480534321433456,-11.375,9.3125,-1.75
1480534321463035,-8.125,2.125,0.875
1480534321474564,-3.3125,-2.9375,0.3125
1480534321493115,1.0625,1.375,-1.875
1480534321515172,3.375,4.375,0.25
1480534321534725,-2.6875,4.3125,0.6875
1480534321561295,-5.3125,4.125,-0.1875
1480534321591877,-3.1875,0.625,1.1875
1480534321595888,4.0625,-3,0.375
1480534321614436,6.5,-2.6875,0.6875
1480534321634994,5.875,-4.125,1.9375
1480534321655044,5,-6.625,2.3125
1480534321672591,4.0625,-4.625,0
1480534321695151,4.125,-2.25,0.0625
1480534321714703,3.0625,-1.5625,1.0625
1480534321739771,0.5,-2,1.625
1480534321754810,1.1875,-2.375,0.1875
1480534321774363,1.0625,-1.625,1.1875
1480534321792912,2.3125,0.0625,-0.1875
1480534321819481,2.125,-0.9375,-0.6875
1480534321834523,1.1875,-1.125,-0.3125
1480534321858586,-0.4375,0.25,-0.4375
1480534321875130,0.75,0.0625,-0.6875
1480534321899196,-0.125,-0.1875,-0.25
1480534321912229,1.125,0.125,-0.375
1480534321936046,1.5,0.0625,-0.125
1480534321957349,1.625,0.0625,0
1480534321972388,0.75,0.0625,-0.0625
1480534321995451,0.9375,-0.375,-0.625
1480534322016005,1.5625,1.0625,-0.5625
1480534322033051,0.4375,0.625,-0.6875
1480534322055109,0.25,-1.375,-1.1875
1480534322091706,1.5625,-2.3125,0
1480534322094213,4.0625,-4.9375,0
1480534322116773,6.25,-6.25,-0.125
1480534322135824,2.125,-1.75,1.125
1480534322152368,-2,-1.8125,0.1875
1480534322173925,-2.6875,-2.75,-1.25
1480534322204506,0.25,-1.0625,-0.25
1480534322217540,2.5,-0.4375,-0.6875
1480534322248122,1.125,-1.125,-0.125
1480534322257146,0.6875,-1.125,-0.1875
1480534322277700,1,0.1875,0
1480534322294246,1.1875,1.1875,0.0625
1480534322323823,-1.4375,0.4375,-0.625
1480534322345381,-0.375,0.0625,-1.0625
1480534322368444,0.4375,0.0625,-0.4375
1480534322391002,-0.1875,0.625,-0.4375
1480534322398021,0.75,0.625,-0.0625
1480534322414566,-0.25,2.75,-1.75
1480534322436624,-9.9375,13.625,-4.0625
1480534322457178,-15.125,12.0625,-2.0625
1480534322482245,-18.3125,2,1.25
1480534322503802,-4.4375,-1.0625,-0.6875
1480534322521349,3.625,5.4375,-0.6875
1480534322534384,7.375,5.0625,-0.5625
1480534322557445,3,-0.6875,1.3125
1480534322578000,1.5,-2.25,0.75
1480534322603067,6.625,-1.5,-1.125
1480534322624122,5.5,-3,-0.0625
1480534322647689,2.5625,-3.875,1.0625
1480534322654203,5.3125,-2.625,0.125
1480534322678768,5.4375,-1.875,-0.875
1480534322697819,5.5625,-1.4375,-1.1875
1480534322713861,4.875,-0.3125,-0.25
1480534322736421,2.1875,-0.125,0.3125
1480534322758981,-0.375,-1.9375,0
1480534322781541,-1.8125,-2,0.375
1480534322797082,2.75,-1.875,-0.3125
1480534322825158,2.6875,-2.625,-1.0625
1480534322834182,1.25,-1.5625,-0.875
1480534322856742,1.375,-1.125,-1.125
1480534322877797,0,0,-1.3125
1480534322917903,0.1875,-0.3125,-0.8125
1480534322922416,0.625,-1,-0.6875
1480534322938960,0.75,-0.875,-1.0625
1480534322954000,-0.1875,-1.1875,-0.125
1480534322976560,0.4375,-1,-0.75
1480534323006640,1.0625,-0.8125,-0.875
1480534323013658,2.375,-1,-1.0625
1480534323045744,1.125,-0.875,-0.9375
1480534323057775,-0.1875,-1.1875,-0.3125
1480534323074320,-1.0625,-2.0625,-0.625
1480534323103898,0.25,-2.625,-0.0625
1480534323126459,2.875,-2.875,-0.5
1480534323141498,2.9375,-4,-1.0625
1480534323157040,1.9375,-1.5,0.5625
1480534323179100,-0.3125,-2.5625,0.3125
1480534323193641,-1.25,-3.0625,-1.0625
1480534323216699,1.6875,-2.625,-0.25
1480534323239258,2.4375,-1.75,-0.5625
1480534323254298,0.125,-2.75,0.0625
1480534323278362,0.75,-2.375,0.25
1480534323299921,0.5,-1.6875,0.0625
1480534323313455,0.5625,-1.125,0.375
1480534323336517,-0.9375,-0.625,0.6875
1480534323359078,-0.4375,-0.25,0.1875
1480534323381637,-0.5625,-1.8125,0.3125
1480534323396677,0.0625,-2.3125,0.0625
1480534323419237,0.875,-1,0.1875
1480534323441799,0.75,-0.875,-0.25
1480534323457339,0.25,-0.375,-0.5
1480534323478896,0,-0.125,-0.5
1480534323493436,-0.125,-0.8125,0
1480534323516495,-1.8125,-0.3125,-0.3125
1480534323539056,-0.5,1,-0.375
1480534323555099,0.5625,1.5625,0.125
1480534323577160,0.8125,0.875,-0.125
1480534323599216,-0.5625,1.0625,-0.4375
1480534323620272,-0.75,0.25,0.1875
1480534323636315,-0.1875,-0.6875,-0.625
1480534323659880,0.625,-0.125,-0.5
1480534323679931,1.1875,0,-0.3125
1480534323719537,-1.1875,1.0625,-0.125
1480534323722043,0.125,0.625,-0.1875
1480534323750117,1.4375,-0.1875,-0.4375
1480534323758138,1.9375,0.5,-0.625
1480534323780699,-0.3125,0.625,-0.0625
1480534323800251,-0.1875,0.1875,-0.6875
1480534323816796,0.5625,0,-0.75
1480534323839355,2.125,-0.3125,-0.375
1480534323867931,1.4375,-0.875,-0.5
1480534323877957,0.375,-0.75,-0.1875
1480534323907536,-0.75,-0.8125,-0.25
1480534323937115,1,-0.75,-0.0625
1480534323939621,2.125,-1.125,-0.6875
1480534323959174,-0.4375,-0.3125,-0.4375
1480534323997274,1.0625,0.0625,-0.375
1480534323999782,2.375,-0.5625,-0.375
1480534324026857,2.3125,-1.25,-0.75
1480534324040389,-0.375,-0.5,-0.25
1480534324056432,0.3125,-0.3125,-0.9375
1480534324078992,0.0625,-0.4375,0
1480534324102054,0.1875,0.0625,0.125
1480534324116593,2.4375,0.25,0.0625
1480534324152689,1.1875,-0.0625,0.25
1480534324162714,-0.6875,-0.25,0.0625
1480534324184272,-0.1875,0.375,0
1480534324199312,1,0.25,-0.625
1480534324221873,-0.8125,0.625,-0.25
1480534324236411,1.4375,0.4375,-0.5625
1480534324274011,0.9375,0,-0.0625
1480534324281531,0.1875,-0.4375,0.125
1480534324304091,0.3125,0.4375,-0.125
1480534324319131,0.9375,0.3125,-0.25
1480534324349211,0.8125,-0.375,-0.25
1480534324355729,0.5,-0.125,-0.625
1480534324380294,1.0625,-0.0625,-0.3125
1480534324401852,0.1875,0.375,-0.25
1480534324424411,-1.125,0.8125,-0.1875
1480534324438950,0.5625,0.5,-0.3125
1480534324469532,0.625,0.3125,-0.3125
1480534324493599,-0.3125,0.25,-0.1875
1480534324499110,-0.3125,0.25,0.25
1480534324529189,0,0.375,-0.5
1480534324544230,0.4375,0.25,-0.5625
1480534324559270,0.1875,0.1875,-0.375
1480534324589350,0.6875,0.1875,-0.3125
1480534324603387,0.5,-0.1875,-0.5625
1480534324618929,0.1875,-0.1875,-0.5
1480534324641489,0.25,-0.5,-0.375
1480534324670065,0.375,-0.6875,-0.1875
1480534324686608,0.4375,-0.5625,-0.375
1480534324702661,0.375,-0.4375,-0.25
1480534324722704,0.4375,-0.125,-0.3125
1480534324745266,0.25,-0.25,-0.4375
1480534324769329,0.625,-0.4375,-0.125
1480534324783867,0.625,-0.625,-0.25
1480534324804923,0.5,-0.5,-0.1875
1480534324828992,0.375,-0.25,-0.25
1480534324842524,-0.4375,0,0.0625
1480534324859572,0.4375,-0.375,-0.3125
1480534324882630,-0.25,0.0625,-0.25
1480534324903184,-0.0625,0.3125,-0.1875
1480534324925243,-0.125,-0.0625,0.1875
1480534324941788,0.6875,0,-0.0625
1480534324962844,0.5625,0.125,0
1480534324986907,-0.1875,0.4375,-0.25
1480534325001446,0.0625,0.3125,-0.1875
1480534325025025,0,2.125,-0.3125
1480534325039063,-1.5,4.3125,-1.5
1480534325067640,-9.5,8.0625,-2.5
1480534325084182,-8.75,6,0.125
1480534325098721,-4.8125,0.625,0.625
1480534325122785,-1,2.3125,-0.5
1480534325160385,-3,7.0625,-0.875
1480534325164897,-4.9375,8.1875,0
1480534325181441,-5.125,3.75,0.0625
1480534325204001,-3.6875,-0.125,0.125
1480534325218539,2.75,-2.5,-0.0625
1480534325242103,6.375,-3.5,0.3125
1480534325270177,5.25,-5.0625,2.125
1480534325281207,3.4375,-7.125,1.5625
1480534325303265,6.625,-8.375,0.25
1480534325324321,8.0625,-8.875,-0.75
1480534325345378,5.375,-5.625,0.4375
1480534325361420,2,-0.1875,-1.9375
1480534325383980,-2.5625,0.5625,-0.625
1480534325398520,-1.1875,-2.4375,0.125
1480534325421581,4.4375,-1.8125,-0.9375
1480534325444140,3.25,-1.1875,0.1875
1480534325458679,-1.1875,-2.9375,0
1480534325481740,-1.0625,-3.1875,-0.3125
1480534325504300,1.3125,-1.8125,-0.125
1480534325532374,2.25,-0.5625,-0.5
1480534325571980,0.5625,-0.6875,-0.5
1480534325574487,-1.375,-1.5,0.25
1480534325603063,-0.5,-1.5,-0.3125
1480534325607584,0.5,-0.6875,-0.5
1480534325624620,0.25,-0.25,-0.25
1480534325652694,-0.25,0.125,0.125
1480534325668237,-0.8125,-0.625,0.25
1480534325699820,0.9375,-1.8125,-0.375
1480534325705335,1.25,-1.6875,0.6875
1480534325722881,0.0625,-0.5,0.5
1480534325743937,1.125,0.0625,0
1480534325764994,-0.125,0.9375,0.6875
1480534325783543,0.875,1.1875,0.4375
1480534325820642,-0.0625,0.8125,-0.3125
1480534325825154,-1.8125,0.375,0.125
1480534325849217,-1.125,0.75,0.625
1480534325864257,-0.125,1.625,-0.5
1480534325885313,0.0625,1.125,-0.1875
1480534325909380,1.5,-0.8125,-0.375
1480534325938956,2.3125,-0.75,0.6875
1480534325946476,0.8125,-0.8125,0.875
1480534325976556,-1.4375,-0.375,0.4375
1480534325985580,0.625,0.6875,-0.4375
1480534326008641,1.5625,1.3125,-0.9375
1480534326014659,-1.8125,0.375,0.125
1480534326022177,1.75,0.5,-0.125
1480534326044737,-0.0625,0,0.4375
1480534326066797,0.25,0.4375,0.3125
1480534326089356,1.6875,1.375,-0.25
1480534326112918,2.1875,0.5625,-0.25
1480534326149515,1.3125,0.6875,-0.6875
1480534326152022,0.1875,2,-0.9375
1480534326164055,-1.1875,3.0625,-0.75
1480534326186615,-9.8125,8.75,-1.6875
1480534326209178,-14.625,8.625,1.1875
1480534326231735,-13.8125,6,0.25
1480534326247778,-1.5,3.5625,-2.3125
1480534326267831,5.625,2.375,-2.5625
1480534326283873,6.3125,1.5,-0.1875
1480534326306434,2.5,-0.8125,0.375
1480534326320972,0.25,-2.375,0.6875
1480534326345539,2.625,-2.4375,0.5625
1480534326367597,2.875,-2.875,-0.8125
1480534326388151,2.3125,-3.8125,-0.1875
1480534326404193,2.875,-5.6875,0.5625
1480534326426753,2.5625,-6.9375,0.0625
1480534326441292,3.4375,-6.5,0.125
1480534326471874,4.125,-3.6875,-0.25
1480534326486914,2.1875,0,0.25
1480534326508974,0.625,-0.6875,-1.5625
1480534326525016,-2.125,-1.5,-0.1875
1480534326546572,-0.125,-0.0625,-0.625
1480534326567629,0.6875,1.4375,-0.25
1480534326592195,1.5,1.4375,-0.125
1480534326606733,3,0.0625,-0.875
1480534326627788,2.25,0,-0.375
1480534326650348,0,-0.1875,0
1480534326666391,-1.4375,-0.25,0.3125
1480534326687447,-1.0625,1,0.25
1480534326703991,1.6875,0.5625,-0.875
1480534326734074,2.1875,-0.3125,0
1480534326764653,1.875,-0.1875,-0.5625
1480534326767160,-0.625,0,-0.0625
1480534326786711,0.8125,-0.625,-0.4375
1480534326809273,2.6875,-1.1875,-1
1480534326824311,0.9375,-1.75,-0.3125
1480534326847372,-0.4375,-3.0625,-0.375
1480534326868930,-0.9375,-3.1875,-1.125
1480534326883969,0.3125,-2.3125,0.1875
1480534326906530,1.25,-3.8125,-0.3125
1480534326930092,2.5625,-5.0625,-0.9375
1480534326946135,4.25,-3.625,0.75
1480534326967192,1.4375,-2.125,0.5625
1480534326989250,-2.5,-1,0.125
1480534327004289,-1.75,-0.1875,-0.4375
1480534327026851,-0.5625,0.0625,-1
1480534327049911,0.25,0.75,-1
1480534327064450,-0.75,1,-0.6875
1480534327087009,1.3125,-0.5,-0.375
1480534327109072,1.75,-0.1875,-0.125
1480534327131628,1,-0.1875,0
1480534327146668,-1.1875,0.125,-0.125
1480534327169229,0,-0.375,0.1875
1480534327183767,0.0625,-0.1875,0.1875
1480534327207330,-1.1875,0.375,0
1480534327229890,-3.5,2,0.4375
1480534327243426,-5.5625,3.1875,-1
1480534327266488,-1.6875,4.125,-0.0625
1480534327291554,-2.8125,4.375,-0.25
1480534327303586,-4.9375,6.125,-2.6875
1480534327326647,-7.75,8.5625,-1.3125
1480534327356727,-7.4375,5,-0.5
1480534327364248,-6.3125,0.6875,0.8125
1480534327386807,-3.3125,0.8125,1.875
1480534327409370,3,1.5,-0.125
1480534327423405,5.125,-1.6875,-0.0625
1480534327446467,3.375,-2.625,0.6875
1480534327483063,3.5,-3.25,0.4375
1480534327490082,1.9375,-2.9375,1
1480534327528184,1.3125,-1.1875,0.125
1480534327537208,1.375,-0.5,0.4375
1480534327567287,2.75,-1.6875,0.6875
1480534327569794,3.375,-2.875,0.1875
1480534327596365,4.375,-3.625,0.3125
1480534327613410,4,-2.4375,0.6875
1480534327640984,1.8125,0.125,-1.3125
1480534327650008,1.0625,-0.375,0.4375
1480534327670562,-0.1875,-2.4375,0.25
1480534327692625,-0.5625,-2.125,-0.0625
1480534327709667,0.25,-2.0625,-0.5
1480534327730221,0.5,-2.125,-0.5
1480534327754284,0.9375,-2.1875,-0.5625
1480534327769325,1.5625,-1.375,-0.6875
1480534327792390,1.875,-0.875,-1
1480534327812439,0.6875,-1.5625,-1
1480534327829986,0.3125,-2,-0.375
1480534327853048,1.375,-2.3125,-0.3125
1480534327874606,1.875,-2.25,-0.0625
1480534327913208,0.625,-2.5,0
1480534327917719,-0.5625,-2.625,-0.3125
1480534327926743,2.1875,-2.6875,-0.625
1480534327956322,3,-2.625,-0.125
1480534327979885,0.125,-2.625,-0.125
1480534328001443,0.3125,-2.875,-0.4375
1480534328014978,0.4375,-2.6875,0.375
1480534328054584,1.4375,-2.4375,0.75
1480534328058093,1.9375,-2.25,0.375
1480534328069623,0.375,1.3125,1
1480534328091683,-0.8125,0.625,0.4375
1480534328112237,-1,-0.4375,0.625
1480534328129282,1.25,-0.8125,0.8125
1480534328159365,1,-0.375,0.3125
1480534328172899,-1.1875,-0.1875,1
1480534328189944,-0.8125,-0.25,0.75
1480534328212504,0.6875,-0.6875,0.625
1480534328226040,1.125,0.0625,0.5
1480534328249101,0.9375,0.75,-0.3125
1480534328287703,-1.4375,0.5,0.4375
1480534328292718,-0.125,-0.0625,-0.0625
1480534328309762,1.3125,0.625,-0.1875
1480534328331821,1.125,0.9375,-0.125
1480534328352375,0.1875,1.0625,-0.125
1480534328368919,-1.25,1.8125,0.125
1480534328400002,-0.875,2.625,0.125
1480534328413041,-0.8125,3.8125,-0.5625
1480534328429079,1,1.4375,-0.5
1480534328452642,-0.1875,-1.4375,-0.375
1480534328474200,-0.5625,0.3125,-0.9375
1480534328488738,-2.375,1.0625,-0.125
1480534328511299,-6.125,4.625,-0.6875
1480534328533859,-6.875,8.5,-1.8125
1480534328555416,-8.75,9.0625,-1.625
1480534328571473,-8,7.25,-2.1875
1480534328594018,-1.5625,4.75,-1.25
1480534328617080,-2.5,2,-0.125
1480534328631619,-4.75,5.1875,-0.6875
1480534328655683,-1.375,6.0625,-0.375
1480534328676739,2.375,-0.125,0.0625
1480534328692782,5.625,-3.875,0.3125
1480534328713838,7.625,-3.8125,0.9375
1480534328728880,5.25,-4.375,2.0625
1480534328751938,0.6875,-4.6875,1.375
1480534328772995,2.9375,-1.375,0.4375
1480534328792049,6.4375,0.625,-0.125
1480534328812099,4.8125,-1.125,-0.875
1480534328833155,4.0625,-2.375,-0.75
1480534328849197,3.1875,-2.75,-1.25
1480534328871757,2.5,-0.9375,0.3125
1480534328902340,1.25,0.8125,-0.4375
1480534328915373,-0.875,0.5625,-1.375
1480534328931917,0,0.75,-0.875
1480534328954477,3.4375,0.6875,-1.0625
1480534328969019,1.1875,0.5625,-0.4375
1480534328991583,0.5,1.25,-0.625
1480534329022158,1.625,1.1875,-0.25
1480534329035192,2.375,1,-0.8125
1480534329051736,1.5625,1,-1.1875
1480534329083320,1.3125,0.8125,-1.375
1480534329089837,0.6875,0.3125,-1.25
1480534329111395,-0.5625,0.0625,-0.625
1480534329142481,1.125,0.0625,-1.3125
1480534329149997,1.75,0,-1.3125
1480534329177570,1.5,-0.4375,-1.0625
1480534329210157,0.0625,-0.25,-1.5
1480534329215672,-1.375,-0.0625,-0.875
1480534329232216,-0.25,-0.5,-1.125
1480534329261795,1.4375,-0.6875,-0.375
1480534329268727,2.3125,-0.4375,-0.5625
1480534329298893,1.6875,-0.5625,-0.4375
1480534329315438,0.75,-2.25,-1.125
1480534329352034,1.25,-1.25,-0.75
1480534329354541,-0.4375,-2.5,0.1875
1480534329374596,-0.4375,-3.8125,-2
1480534329403310,2,-2,-0.9375
1480534329419715,3.875,-0.3125,-1
1480534329434255,1,-1.125,-0.375
1480534329463331,-0.375,-1.8125,-0.0625
1480534329471353,0.4375,-1.5625,-0.375
1480534329493912,0.1875,-0.6875,-0.5
1480534329514970,-0.8125,0,-0.3125
1480534329539534,0.0625,-1,-0.125
1480534329554072,0.6875,-1.25,0
1480534329583652,1.125,-0.75,-0.375
1480534329591674,-0.25,-0.25,0.375
1480534329614735,-0.375,-0.4375,0.125
1480534329642812,-0.8125,-0.4375,-0.25
1480534329658857,-1.1875,-0.9375,0.5625
1480534329682414,-0.625,-0.375,0.125
1480534329703971,0.5,-0.4375,0.125
1480534329734552,1.0625,-0.625,-0.1875
1480534329737059,0.8125,-0.375,-0.3125
1480534329755106,0.125,-0.625,0.1875
1480534329772654,-1.375,-0.9375,0.3125
1480534329795715,0.3125,-1.0625,0
1480534329824793,-0.0625,-0.5,-0.125
1480534329831811,0.3125,-1.0625,-0.0625
1480534329854872,-0.0625,-1.25,0
1480534329876430,0.6875,-0.9375,-0.1875
1480534329891974,0.5,-1.125,-0.0625
1480534329923555,-0.3125,-1.25,-0.125
1480534329942607,0.3125,-1.375,-0.1875
1480534329959152,1.125,-0.6875,-0.125
1480534329982211,0.5,-1.3125,0.125
1480534329997753,-0.1875,-1.5,0.125
1480534330019310,1,-0.75,0.375
1480534330034352,0.1875,-0.3125,-0.125
1480534330063928,-0.625,-0.375,-0.375
1480534330070947,0.625,-0.3125,-0.5
1480534330094510,0.875,-0.25,-0.6875
1480534330118073,0.375,-0.0625,-0.5625
1480534330137625,0.0625,-0.1875,-0.25
1480534330154670,0.9375,-0.1875,-0.375
1480534330176728,1.0625,0.1875,-0.4375
1480534330190767,0.75,-0.0625,-0.75
1480534330227363,0.8125,-0.125,-0.4375
1480534330238894,0,0.25,-0.5
1480534330258948,1.0625,-0.1875,-0.5625
1480534330281508,1.0625,-0.3125,-0.375
1480534330312088,1.0625,-0.5625,-0.1875
1480534330317603,0.3125,-0.5,-0.375
1480534330334649,-0.0625,-0.0625,-0.5625
1480534330356707,1.3125,-0.25,-0.6875
1480534330379768,0.75,0.4375,-0.5625
1480534330394308,1.3125,0.25,-0.6875
1480534330417368,0.625,0.5,-0.9375
1480534330437421,1,0.4375,-0.875
1480534330453966,0.3125,0.25,-0.6875
1480534330476526,1.1875,0.5,-0.6875
1480534330497583,0.625,0.5,-0.5625
1480534330514126,0.4375,0.625,-0.375
1480534330537187,0.625,0.625,-0.25
1480534330560249,0.3125,-0.125,-0.625
1480534330574299,0.9375,-0.25,-0.5625
1480534330596344,1.0625,0.125,-0.5625
1480534330621411,0.375,-0.125,-0.375
1480534330633945,1.0625,-0.1875,-0.5625
1480534330664025,0.5,-0.1875,-0.4375
1480534330685581,0.375,-0.1875,-0.8125
1480534330694105,0.25,-0.375,0
1480534330716670,-0.0625,-0.1875,-0.1875
1480534330739726,1.1875,0.0625,0.125
1480534330754265,0.5625,1.625,0.125
1480534330776825,0.0625,3.25,-0.25
1480534330814926,-5,7.375,-2.6875
1480534330819438,-11.8125,9,-2.4375
1480534330836485,-13.5625,3.8125,1.625
1480534330859043,-4.9375,-0.5625,0.375
1480534330874085,4.4375,1.4375,-0.625
1480534330897647,0.25,5,0.0625
1480534330926723,-5.375,7,0.0625
1480534330934245,-4.4375,5.9375,-0.25
1480534330972346,-1.5625,0.0625,0.25
1480534330993903,0.6875,0.1875,-0.125
1480534330996409,-0.125,1.1875,0.9375
1480534331018468,-1.5,-1.6875,1.5625
1480534331045038,3.625,-3.75,0.9375
1480534331060079,8.25,-5.1875,0.9375
1480534331090158,7.8125,-6.625,0.6875
1480534331099183,6.5625,-6.25,-0.0625
1480534331120237,4.25,-6.4375,0.1875
1480534331137058,3.9375,-1.6875,0.75
1480534331159843,4.4375,2.0625,-2.5
1480534331173379,-0.4375,-0.9375,0.625
1480534331203961,0.9375,-3.125,-0.0625
1480534331219001,2.5,-0.6875,-1.25
1480534331241564,1.3125,-0.0625,-0.0625
1480534331256099,-0.375,-0.5625,-0.625
1480534331279161,1.3125,-0.75,-1
1480534331308741,3,-1,-1.3125
1480534331317764,1.4375,-0.6875,-0.4375
1480534331346340,-0.1875,-0.8125,-0.4375
1480534331367396,-0.4375,-1.5,-0.5625
1480534331376420,0.5625,-0.625,-0.875
1480534331408006,1.8125,-0.25,-0.8125
1480534331420035,0.3125,-0.5,-0.625
1480534331436579,1.0625,-0.4375,-0.4375
1480534331466661,0.6875,-0.25,-0.5
1480534331481700,1.375,-0.5625,-0.4375
1480534331504260,0.75,-0.875,0
1480534331519801,0.0625,-1.3125,-0.9375
1480534331539854,0.6875,-1,-0.8125
1480534331556900,0.3125,-0.25,0.25
1480534331586479,-1.4375,-0.8125,-1.625
1480534331602522,-0.25,-0.875,-0.1875
1480534331623577,1.8125,-0.875,-0.8125
1480534331640122,0.9375,-1.0625,-0.625
1480534331660174,0.0625,-0.75,-0.1875
1480534331676726,0.5,-0.5625,-0.6875
1480534331699279,0.25,-0.75,-0.5
1480534331721838,-0.125,-1.3125,-0.125
1480534331736377,1.0625,-1.1875,-0.375
1480534331766468,0.375,-1.1875,-0.1875
1480534331781497,-0.3125,-1.0625,0.1875
1480534331796538,0.4375,-1.0625,0.0625
1480534331826617,0.6875,-1.25,0.0625
1480534331849177,0.125,-1.125,-0.0625
1480534331864718,-0.375,-0.9375,-0.1875
1480534331885274,-0.5625,-0.75,-0.375
1480534331902319,0.0625,-0.8125,-0.125
1480534331922374,0.6875,-0.25,-0.3125
1480534331938916,0.6875,-0.4375,-0.1875
1480534331961475,-0.875,-0.5625,-0.1875
1480534331976014,0.5,-0.875,-0.0625
1480534332006596,1.25,-0.75,0
1480534332021636,-0.125,-0.5625,0.125
1480534332044195,-0.625,-0.5625,0
1480534332059236,-0.1875,-0.4375,0.1875
1480534332081295,0.625,-0.25,0.0625
1480534332095834,0.125,0,0.0625
1480534332119396,0.375,-0.125,0.1875
1480534332141459,-0.4375,-0.0625,0.3125
1480534332156495,0,0.5,0.6875
1480534332179058,0.875,-0.1875,0.4375
1480534332202116,-0.375,-0.125,0.6875
1480534332222670,-0.0625,0.625,0.625
1480534332239215,-0.375,1.125,0.8125
1480534332264782,-2.375,2.125,0.75
1480534332282330,-0.4375,1.125,0.4375
1480534332298873,1.1875,1,0.75
1480534332321433,-0.125,0.4375,1.125
1480534332350510,-0.8125,0.125,-0.625
1480534332362041,1.3125,0.875,0.6875
1480534332381594,0.25,0.25,-0.5625
1480534332404154,-0.4375,-0.75,0.125
1480534332419193,1.625,-1.3125,0
1480534332441758,1.5,-1.4375,-0.5625
1480534332479353,1.5625,-1.3125,-0.6875
1480534332481860,0.4375,-2.75,-0.4375
1480534332509435,1.4375,-3.0625,-0.375
1480534332525476,1.375,0,-0.8125
1480534332539012,-0.5,2.4375,-0.625
1480534332561572,0.875,1.25,-0.5625
1480534332594660,0.875,-0.75,0.125
1480534332599172,1.6875,-0.9375,-0.1875
1480534332627748,1.4375,0.3125,0.0625
1480534332642788,0.5625,1.5625,-0.3125
1480534332665350,0.5,1.625,-1.0625
1480534332681391,1.5,0.625,-1.1875
1480534332711476,2.25,-0.8125,-0.8125
1480534332718991,1.4375,-0.875,-1.0625
1480534332755086,2.125,-0.25,-0.625
1480534332764111,0.1875,0.125,-0.5
1480534332786672,0.3125,1.3125,-1.4375
1480534332802714,2.25,1.1875,-1.5
1480534332824772,2.5,0.5,-1.75
1480534332838309,1.625,0.5,-0.6875
1480534332869391,1.125,0.875,-1.0625
1480534332889946,1.3125,0.9375,-0.625
1480534332915519,2.0625,-0.375,-0.5
1480534332921529,3.4375,-0.9375,-0.125
1480534332944591,1.9375,-0.0625,-0.625
1480534332958629,-0.3125,-0.5625,-0.9375
1480534332995226,-0.4375,-0.6875,-1.1875
1480534333004250,1.25,0.4375,-1.375
1480534333034330,2.0625,-0.1875,-1.75
1480534333048868,0.1875,-0.875,-1.375
1480534333064410,-0.125,-0.625,-1
1480534333093988,-0.1875,-0.4375,-1.125
1480534333102512,0.8125,-0.4375,-1.25
1480534333131588,0.875,-0.3125,-0.75
1480534333152643,0.8125,0,-0.625
1480534333169191,-0.3125,0.0625,-0.4375
1480534333200773,0.1875,-0.1875,-0.4375
1480534333206287,0.5,0.5,-1.0625
1480534333221327,0.9375,0.625,-0.5
1480534333245391,0.5625,-0.125,-0.125
1480534333266447,-0.1875,-0.25,-0.5
1480534333282489,0.125,-0.0625,-0.3125
1480534333311567,0.625,-0.125,-0.3125
1480534333325103,-0.5,-0.5625,0.0625
1480534333342151,-0.0625,-0.9375,-0.0625
1480534333371727,-0.0625,-0.9375,-0.375
1480534333392281,0.3125,-0.875,-0.75
1480534333408829,-0.125,-0.75,0.125
1480534333431386,0,-1.375,-0.375
1480534333445423,-0.5625,-1.1875,-0.375
1480534333463471,0.75,-1.1875,-0.5
1480534333485530,0.625,-1.375,-0.25
1480534333505082,0.5,-1.6875,0.0625
1480534333521626,0.375,-1.25,0.0625
1480534333544186,0.0625,-0.8125,0.25
1480534333565241,0.1875,-0.5625,-0.125
1480534333589808,1.6875,-0.4375,0
1480534333604346,1.1875,0.0625,0.1875
1480534333627407,-0.5,0.3125,0.1875
1480534333648970,-0.3125,0,0.1875
1480534333671524,0.125,-0.125,-0.6875
1480534333686564,0,0,-0.6875
1480534333707623,-0.4375,0.5625,-1
1480534333738202,-0.25,0.6875,-0.5
1480534333748731,1.125,0.375,-1.0625
1480534333760763,0.75,0.6875,-0.25
1480534333783823,0.9375,0.625,-0.1875
1480534333807386,0.5625,0,-0.125
1480534333820921,0,0.3125,0
1480534333843984,-0.6875,1.0625,-0.125
1480534333867045,-0.625,2.1875,-0.75
1480534333881083,-1.1875,3.1875,-1.125
1480534333904143,-6.3125,6.875,-1.8125
1480534333926703,-8.625,8.75,-0.6875
1480534333964805,-10.4375,8.8125,-1.3125
1480534333966810,-6.75,5.25,-0.25
1480534333987866,-5.0625,0.5,1.0625
1480534334000901,-8.8125,2,0.3125
1480534334023964,-2.1875,4.5,-2.625
1480534334047024,2.0625,2.5,-0.6875
1480534334061061,2.9375,-0.0625,-1.1875
1480534334084122,-3,1.75,-1.0625
1480534334106683,-5.4375,2.3125,0.5
1480534334144784,-1.75,1.3125,0.6875
1480534334150298,1.5,1.9375,-0.1875
1480534334167845,3.625,1.5,0.875
1480534334187397,4.4375,-1.4375,1.1875
1480534334203940,4.75,-3.5625,1.9375
1480534334226501,7.1875,-6.1875,2.5
1480534334255077,5.75,-4.9375,1.1875
1480534334264100,4.75,-1.9375,1.1875
1480534334300701,3.6875,-2.125,0.625
1480534334307215,2,-3.875,0.8125
1480534334324261,2.1875,-4.4375,1.375
1480534334346320,1.75,-2.625,0.5
1480534334367876,0.5625,-0.5,0.125
1480534334385423,1.0625,-0.6875,-0.0625
1480534334422522,1.25,-1.375,-0.1875
1480534334435055,2,-1.1875,-0.125
1480534334453103,2.1875,-0.625,0.1875
1480534334466138,0.6875,1.0625,0.1875
1480534334487695,0.4375,1.3125,0.4375
1480534334511765,0.25,0.3125,0.5625
1480534334540341,0.4375,-0.125,0.25
1480534334548863,0.6875,-0.4375,0.1875
1480534334578943,1.1875,-0.125,-0.5
1480534334586464,0.3125,0,0
1480534334610026,0.25,0.5625,-0.5
1480534334624571,2.1875,0.125,-1
1480534334647125,1.625,-0.75,-0.8125
1480534334677204,1,-0.5,-1.125
1480534334700769,-0.3125,-0.375,-0.8125
1480534334713802,0.3125,-0.75,-1.25
1480534334734859,1.1875,-1.0625,-1.625
1480534334751903,2.5,-1,-0.6875
1480534334767446,1.3125,-1.3125,-0.5625
1480534334789002,0.125,-1.875,-1.3125
1480534334812565,0.5,-1.5,0.125
1480534334832619,0.8125,-1.9375,-1.6875
1480534334858186,2,-2.5625,-0.6875
1480534334863199,1.8125,-2,-0.5625
1480534334893780,0.875,-1.9375,-0.5
1480534334912333,1.4375,-2.375,0.25
1480534334939903,0.375,-2.4375,0.1875
1480534334946421,-0.3125,-1.6875,0.75
1480534334978005,1.3125,-1.125,0.5
1480534334983519,1.25,-0.8125,0.4375
1480534335014101,-0.125,-0.125,0.6875
1480534335036661,-1,0.375,0.375
1480534335074765,-0.25,0.5625,0.5
1480534335076767,0,0.875,0.6875
1480534335090810,-0.0625,1.1875,0.6875
1480534335110360,-0.75,0.625,0.4375
1480534335135424,-1,0.1875,0.875
1480534335148960,-0.3125,0,0.9375
1480534335171019,-0.625,0,0.8125
1480534335186560,-1.125,-0.75,0.75
1480534335209120,-0.75,-1.25,0.8125
1480534335231680,-1.5,-0.625,0.5
1480534335254239,-1.0625,-0.1875,0.4375
1480534335292341,0,-0.5625,0.3125
1480534335294849,-0.4375,0.1875,0.625
1480534335306379,0.0625,0,0.75
1480534335343978,-1.8125,-0.25,1.0625
1480534335349997,-1.4375,0.25,0.5625
1480534335367040,-0.8125,0.4375,0.75
1480534335389098,0.1875,1,0.4375
1480534335411160,-0.5,1.375,0.75
1480534335426197,-1.1875,1.8125,0.6875
1480534335450262,-0.3125,2.0625,0.125
1480534335470318,-2.1875,3.25,-0.1875
1480534335486358,-3.1875,3.875,0.4375
1480534335508917,-1.25,2.125,0.6875
1480534335531477,2.125,0.3125,-0.4375
1480534335546517,1.875,-0.0625,0.0625
1480534335569209,1.4375,0.1875,-0.125
1480534335591637,2.4375,-0.75,-0.1875
1480534335612693,1.1875,0.625,0.25
1480534335629739,0.5625,-0.0625,-1.25
