timestamp,x,y,z,w
1480534269837891,-0.498779,-0.138062,0.391296,0.760925
1480534269854435,-0.498596,-0.137939,0.391357,0.761047
1480534269876995,-0.498657,-0.137939,0.391357,0.761047
1480534269898051,-0.498657,-0.137878,0.391357,0.760986
1480534269915096,-0.498657,-0.137878,0.391357,0.760986
1480534269944675,-0.498657,-0.137817,0.391357,0.760986
1480534269958211,-0.498657,-0.137817,0.391357,0.760986
1480534269981774,-0.498718,-0.137817,0.391357,0.760986
1480534270002937,-0.498718,-0.137817,0.391418,0.760986
1480534270019482,-0.498718,-0.137817,0.391418,0.760986
1480534270036026,-0.498718,-0.137817,0.391418,0.760986
1480534270057091,-0.498718,-0.137817,0.391418,0.760986
1480534270079641,-0.498718,-0.137756,0.391418,0.760925
1480534270094682,-0.498718,-0.137817,0.391418,0.760986
1480534270116740,-0.498474,-0.137756,0.391479,0.761108
1480534270139299,-0.498535,-0.137756,0.391479,0.761047
1480534270153841,-0.498535,-0.137756,0.391479,0.761047
1480534270176899,-0.498474,-0.137756,0.391479,0.761047
1480534270223022,-0.498474,-0.137756,0.391479,0.761047
1480534270228036,-0.498535,-0.137756,0.391479,0.761047
1480534270237063,-0.498535,-0.137756,0.391479,0.761047
1480534270259620,-0.498535,-0.137756,0.391479,0.761047
1480534270274660,-0.498535,-0.137756,0.391479,0.761047
1480534270296718,-0.498535,-0.137756,0.391479,0.761047
1480534270319783,-0.498535,-0.137756,0.391479,0.761047
1480534270333817,-0.498535,-0.137756,0.391479,0.761047
1480534270356878,-0.498535,-0.137695,0.391479,0.761047
1480534270380441,-0.498535,-0.137695,0.391479,0.761047
1480534270393977,-0.498535,-0.137695,0.391479,0.761047
1480534270416537,-0.498474,-0.137695,0.391541,0.761047
1480534270439599,-0.498474,-0.137695,0.391541,0.761047
1480534270453637,-0.498535,-0.137695,0.391541,0.761047
1480534270477198,-0.498474,-0.137695,0.391541,0.761047
1480534270499264,-0.498474,-0.137695,0.391541,0.761047
1480534270520817,-0.498474,-0.137695,0.391541,0.761047
1480534270537527,-0.498535,-0.137695,0.391541,0.761047
1480534270565433,-0.498535,-0.137695,0.391479,0.761047
1480534270580473,-0.498474,-0.137695,0.391479,0.761047
1480534270597017,-0.498474,-0.137695,0.391479,0.761047
1480534270619579,-0.498535,-0.137695,0.391479,0.761047
1480534270642137,-0.498535,-0.137695,0.391541,0.761047
1480534270657678,-0.498474,-0.137695,0.391541,0.761047
1480534270679737,-0.498535,-0.137695,0.391479,0.761047
1480534270700292,-0.498535,-0.137695,0.391479,0.761047
1480534270716836,-0.498535,-0.137695,0.391479,0.761047
1480534270739396,-0.498474,-0.137695,0.391541,0.761047
1480534270760452,-0.498474,-0.137695,0.391541,0.761047
1480534270777497,-0.498474,-0.137634,0.391541,0.761047
1480534270800058,-0.498474,-0.137634,0.391541,0.761047
1480534270820612,-0.498474,-0.137695,0.391541,0.761108
1480534270837657,-0.498474,-0.137695,0.391541,0.761108
1480534270859716,-0.498474,-0.137634,0.391541,0.761108
1480534270880270,-0.498413,-0.137634,0.391541,0.761108
1480534270897817,-0.498413,-0.137634,0.391541,0.761108
1480534270919376,-0.498474,-0.137634,0.391541,0.761108
1480534270941934,-0.498474,-0.137634,0.391541,0.761047
1480534270957477,-0.498474,-0.137634,0.391541,0.761108
1480534270980037,-0.498474,-0.137634,0.391541,0.761108
1480534271008110,-0.498474,-0.137634,0.391541,0.761047
1480534271017135,-0.498474,-0.137634,0.391541,0.761047
1480534271054735,-0.498474,-0.137634,0.391541,0.761047
1480534271064260,-0.498413,-0.137634,0.391602,0.761108
1480534271076293,-0.498474,-0.137573,0.391602,0.761108
1480534271100857,-0.498474,-0.137573,0.391602,0.761047
1480534271121914,-0.498596,-0.137634,0.391602,0.760986
1480534271136455,-0.498596,-0.137634,0.391602,0.760986
1480534271159514,-0.498596,-0.137634,0.391663,0.760986
1480534271182074,-0.498596,-0.137573,0.391663,0.760925
1480534271196111,-0.498596,-0.137573,0.391663,0.760986
1480534271219677,-0.498596,-0.137573,0.391663,0.760986
1480534271250255,-0.498596,-0.137573,0.391663,0.760925
1480534271256772,-0.498596,-0.137573,0.391663,0.760925
1480534271285348,-0.498596,-0.137573,0.391663,0.760925
1480534271301892,-0.498596,-0.137573,0.391663,0.760925
1480534271330468,-0.498657,-0.137573,0.391663,0.760925
1480534271339492,-0.498657,-0.137512,0.391663,0.760925
1480534271362052,-0.498779,-0.137573,0.391663,0.760803
1480534271383108,-0.498779,-0.137573,0.391663,0.760803
1480534271407172,-0.49884,-0.137573,0.391663,0.760803
1480534271421710,-0.49884,-0.137573,0.391663,0.760803
1480534271442768,-0.49884,-0.137573,0.391663,0.760803
1480534271460314,-0.49884,-0.137512,0.391663,0.760803
1480534271481871,-0.49884,-0.137512,0.391663,0.760803
1480534271510447,-0.498901,-0.137512,0.391663,0.760803
1480534271519473,-0.498657,-0.137451,0.391724,0.760925
1480534271542532,-0.498657,-0.137451,0.391724,0.760925
1480534271563087,-0.498718,-0.137451,0.391724,0.760864
1480534271579631,-0.498718,-0.13739,0.391724,0.760864
1480534271602191,-0.498535,-0.13739,0.391785,0.760925
1480534271630766,-0.498535,-0.13739,0.391785,0.760925
1480534271639792,-0.498596,-0.13739,0.391785,0.760925
1480534271661849,-0.498596,-0.13739,0.391785,0.760925
1480534271682905,-0.498596,-0.13739,0.391785,0.760925
1480534271699450,-0.498657,-0.13739,0.391785,0.760925
1480534271729529,-0.498657,-0.137329,0.391785,0.760864
1480534271743065,-0.498657,-0.137329,0.391785,0.760864
1480534271759622,-0.498596,-0.137329,0.391785,0.760925
1480534271781669,-0.498596,-0.137329,0.391785,0.760925
1480534271803227,-0.498657,-0.137329,0.391846,0.760864
1480534271819269,-0.498657,-0.137268,0.391846,0.760864
1480534271856368,-0.498657,-0.137268,0.391846,0.760864
1480534271862885,-0.498657,-0.137268,0.391846,0.760864
1480534271886952,-0.498718,-0.137268,0.391846,0.760864
1480534271901988,-0.498718,-0.137268,0.391846,0.760864
1480534271924548,-0.498718,-0.137268,0.391846,0.760864
1480534271939591,-0.498596,-0.137268,0.391968,0.760864
1480534271962149,-0.498596,-0.137207,0.391968,0.760864
1480534271990725,-0.498474,-0.13739,0.392029,0.760925
1480534272000250,-0.49823,-0.137573,0.392029,0.761047
1480534272022810,-0.498047,-0.137878,0.391968,0.761108
1480534272045871,-0.497803,-0.138245,0.391907,0.76123
1480534272060410,-0.497437,-0.13855,0.391846,0.761414
1480534272082468,-0.496948,-0.138855,0.391846,0.761719
1480534272112048,-0.496643,-0.139099,0.391846,0.761902
1480534272119066,-0.496277,-0.139404,0.391785,0.762024
1480534272142127,-0.495972,-0.139587,0.391785,0.762268
1480534272165691,-0.495728,-0.139954,0.391663,0.76239
1480534272179226,-0.495544,-0.140259,0.391479,0.762573
1480534272201786,-0.4953,-0.140381,0.391296,0.762756
1480534272224346,-0.495056,-0.140442,0.391174,0.763
1480534272252925,-0.494934,-0.140625,0.39093,0.763184
1480534272261946,-0.494873,-0.140747,0.390747,0.763306
1480534272285007,-0.494751,-0.140808,0.390564,0.763428
1480534272299547,-0.494507,-0.140869,0.390381,0.763672
1480534272322106,-0.494263,-0.140991,0.390198,0.763916
1480534272345167,-0.49408,-0.141113,0.390015,0.764038
1480534272358703,-0.493958,-0.141174,0.389893,0.764221
1480534272381765,-0.493591,-0.141296,0.389832,0.764465
1480534272404426,-0.493286,-0.141357,0.389771,0.764709
1480534272425380,-0.492859,-0.141479,0.389709,0.764954
1480534272442426,-0.492493,-0.141541,0.389709,0.765198
1480534272464485,-0.492065,-0.141663,0.389771,0.765442
1480534272485540,-0.491699,-0.141846,0.389771,0.765625
1480534272502087,-0.491455,-0.142029,0.389709,0.765747
1480534272524645,-0.491211,-0.142151,0.389771,0.765869
1480534272545200,-0.490784,-0.142151,0.389832,0.766113
1480534272562746,-0.490417,-0.142212,0.389954,0.766235
1480534272584305,-0.490295,-0.142456,0.389954,0.766296
1480534272605360,-0.490051,-0.142517,0.389954,0.766418
1480534272636946,-0.489746,-0.142456,0.390015,0.766602
1480534272644464,-0.489624,-0.142456,0.390015,0.766724
1480534272665520,-0.489502,-0.142517,0.390015,0.766785
1480534272682064,-0.48938,-0.142578,0.390015,0.766846
1480534272704623,-0.48938,-0.142578,0.390015,0.766846
1480534272725680,-0.48938,-0.142578,0.389954,0.766846
1480534272741722,-0.489441,-0.142578,0.389954,0.766846
1480534272765285,-0.489319,-0.142395,0.389954,0.766907
1480534272785339,-0.489319,-0.142395,0.389954,0.766907
1480534272802889,-0.489319,-0.142395,0.389954,0.766907
1480534272824443,-0.48938,-0.142395,0.389954,0.766907
1480534272847002,-0.48938,-0.142395,0.389954,0.766907
1480534272870066,-0.489136,-0.142334,0.389954,0.76709
1480534272884602,-0.489136,-0.142273,0.389954,0.767029
1480534272907162,-0.489197,-0.142273,0.389954,0.767029
1480534272930223,-0.489197,-0.142273,0.390015,0.767029
1480534272944261,-0.489197,-0.142273,0.390015,0.767029
1480534272966821,-0.489258,-0.142273,0.390015,0.767029
1480534272981360,-0.489258,-0.142273,0.390015,0.766968
1480534273004922,-0.489319,-0.142273,0.389954,0.766968
1480534273034501,-0.489319,-0.142273,0.389954,0.766968
1480534273041520,-0.489319,-0.142273,0.389954,0.766968
1480534273064581,-0.48938,-0.142273,0.389954,0.766907
1480534273087141,-0.48938,-0.142273,0.389954,0.766907
1480534273108197,-0.48938,-0.142273,0.389954,0.766907
1480534273124741,-0.48938,-0.142273,0.389954,0.766907
1480534273146799,-0.48938,-0.142212,0.390015,0.766907
1480534273161338,-0.489441,-0.142212,0.390015,0.766907
1480534273190415,-0.489441,-0.142212,0.390015,0.766846
1480534273206959,-0.489502,-0.142212,0.390015,0.766846
1480534273220997,-0.489502,-0.142151,0.390015,0.766846
1480534273244561,-0.489502,-0.142151,0.390015,0.766846
1480534273268123,-0.489502,-0.142151,0.390015,0.766846
1480534273281157,-0.489563,-0.142151,0.390015,0.766785
1480534273304723,-0.489563,-0.142151,0.390015,0.766785
1480534273332794,-0.489624,-0.14209,0.390015,0.766785
1480534273347834,-0.489624,-0.14209,0.390015,0.766785
1480534273364378,-0.489624,-0.14209,0.390015,0.766785
1480534273386938,-0.489685,-0.14209,0.390015,0.766724
1480534273407994,-0.489685,-0.14209,0.390015,0.766724
1480534273424538,-0.489746,-0.14209,0.390015,0.766724
1480534273454118,-0.489746,-0.14209,0.390015,0.766663
1480534273468155,-0.489807,-0.142029,0.390015,0.766663
1480534273485702,-0.489807,-0.142029,0.390015,0.766663
1480534273507759,-0.489868,-0.142029,0.390015,0.766602
1480534273527812,-0.489929,-0.14209,0.390015,0.766602
1480534273544358,-0.489929,-0.142029,0.390015,0.766602
1480534273567420,-0.489929,-0.142029,0.390015,0.766541
1480534273587973,-0.489929,-0.142029,0.390015,0.766541
1480534273604016,-0.48999,-0.142029,0.390015,0.766541
1480534273627077,-0.490051,-0.141968,0.390076,0.766479
1480534273648134,-0.490051,-0.141968,0.390076,0.766479
1480534273664176,-0.490112,-0.141968,0.390076,0.766479
1480534273694757,-0.490173,-0.141968,0.390076,0.766418
1480534273710800,-0.490479,-0.141785,0.390015,0.766296
1480534273731857,-0.490723,-0.141602,0.389954,0.766174
1480534273746896,-0.491028,-0.141357,0.389954,0.766052
1480534273767953,-0.491516,-0.141235,0.389832,0.765808
1480534273790512,-0.492004,-0.140991,0.389771,0.765564
1480534273807056,-0.492432,-0.140747,0.389709,0.76532
1480534273829616,-0.492798,-0.140564,0.389709,0.765198
1480534273844154,-0.493164,-0.14032,0.389771,0.764954
1480534273867216,-0.493408,-0.140076,0.389832,0.764771
1480534273889274,-0.493591,-0.139832,0.390015,0.764648
1480534273903818,-0.493958,-0.139709,0.390137,0.764404
1480534273926874,-0.494385,-0.139648,0.390137,0.764099
1480534273949436,-0.494568,-0.139465,0.390259,0.763977
1480534273978010,-0.494751,-0.139221,0.390381,0.763794
1480534273987037,-0.494995,-0.13916,0.390442,0.763611
1480534274010096,-0.495056,-0.13916,0.390442,0.763611
1480534274024635,-0.4953,-0.13916,0.390442,0.763428
1480534274047195,-0.495483,-0.139282,0.390442,0.763306
1480534274069257,-0.495483,-0.139282,0.390442,0.763306
1480534274083792,-0.495361,-0.139526,0.390381,0.763367
1480534274106868,-0.495056,-0.139771,0.390442,0.763489
1480534274129414,-0.494751,-0.14032,0.390442,0.763611
1480534274150970,-0.494202,-0.140747,0.390503,0.763794
1480534274168518,-0.493774,-0.141296,0.390686,0.763916
1480534274189573,-0.493347,-0.141846,0.390808,0.764038
1480534274203611,-0.492798,-0.142395,0.39093,0.764221
1480534274227674,-0.492371,-0.142761,0.390991,0.764343
1480534274249733,-0.492188,-0.143188,0.390991,0.764404
1480534274263771,-0.492004,-0.143433,0.390991,0.764465
1480534274287333,-0.491882,-0.143616,0.39093,0.764587
1480534274309392,-0.491821,-0.143799,0.390747,0.764709
1480534274330448,-0.491882,-0.14386,0.390564,0.764709
1480534274346991,-0.492004,-0.143799,0.390381,0.764709
1480534274369552,-0.492065,-0.143738,0.390198,0.764832
1480534274390610,-0.492126,-0.143677,0.389954,0.764893
1480534274407653,-0.492126,-0.143555,0.389771,0.765015
1480534274429211,-0.492004,-0.143433,0.389587,0.765198
1480534274450267,-0.49176,-0.14325,0.389526,0.765442
1480534274459792,-0.491577,-0.143188,0.389404,0.765625
1480534274472325,-0.491394,-0.143127,0.389343,0.765808
1480534274494886,-0.49115,-0.143005,0.389282,0.765991
1480534274517446,-0.490906,-0.142883,0.389282,0.766174
1480534274532987,-0.490723,-0.142822,0.389282,0.766296
1480534274562064,-0.490601,-0.142761,0.389221,0.766418
1480534274577104,-0.49054,-0.142578,0.389282,0.766479
1480534274595152,-0.490417,-0.142395,0.389282,0.766541
1480534274622224,-0.490479,-0.142395,0.389282,0.766541
1480534274638768,-0.490479,-0.142395,0.389282,0.766541
1480534274652306,-0.490662,-0.14209,0.389404,0.766418
1480534274674864,-0.490723,-0.141846,0.389404,0.766418
1480534274700434,-0.490845,-0.141541,0.389465,0.766357
1480534274712464,-0.491089,-0.141296,0.389465,0.766235
1480534274751067,-0.49115,-0.141296,0.389465,0.766235
1480534274757083,-0.49115,-0.141235,0.389526,0.766235
1480534274775131,-0.49115,-0.141235,0.389526,0.766235
1480534274794683,-0.49115,-0.141235,0.389526,0.766235
1480534274817243,-0.49115,-0.141235,0.389526,0.766174
1480534274839805,-0.490967,-0.141174,0.389587,0.766296
1480534274854843,-0.490967,-0.141113,0.389709,0.766235
1480534274878907,-0.490906,-0.141052,0.389832,0.766235
1480534274903474,-0.490967,-0.140991,0.389832,0.766235
1480534274931045,-0.490967,-0.140991,0.389832,0.766235
1480534274940070,-0.490906,-0.14093,0.389893,0.766235
1480534274952607,-0.490906,-0.140808,0.389893,0.766235
1480534274974662,-0.490906,-0.140808,0.389954,0.766235
1480534274997221,-0.490906,-0.140808,0.389954,0.766235
1480534275017275,-0.490967,-0.140747,0.389954,0.766235
1480534275034823,-0.490967,-0.140747,0.389954,0.766174
1480534275065904,-0.490967,-0.140747,0.389954,0.766174
1480534275079941,-0.490967,-0.140747,0.389954,0.766174
1480534275095483,-0.491028,-0.140747,0.389954,0.766174
1480534275128571,-0.491028,-0.140747,0.389954,0.766113
1480534275134086,-0.490906,-0.140625,0.390015,0.766235
1480534275162160,-0.490906,-0.140625,0.390015,0.766174
1480534275185729,-0.490906,-0.140625,0.390015,0.766174
1480534275200262,-0.490845,-0.140564,0.390076,0.766235
1480534275218309,-0.490845,-0.140564,0.390076,0.766235
1480534275237360,-0.490845,-0.140503,0.390137,0.766235
1480534275254906,-0.490906,-0.140503,0.390137,0.766174
1480534275274961,-0.490906,-0.140503,0.390137,0.766174
1480534275300028,-0.490906,-0.140503,0.390137,0.766174
1480534275313563,-0.490906,-0.140503,0.390137,0.766174
1480534275336124,-0.490784,-0.140503,0.390198,0.766235
1480534275358683,-0.490845,-0.140503,0.390198,0.766174
1480534275373723,-0.490845,-0.140503,0.390198,0.766174
1480534275402300,-0.490845,-0.140503,0.390198,0.766174
1480534275425361,-0.490784,-0.140625,0.390137,0.766235
1480534275433884,-0.490662,-0.140442,0.390198,0.766296
1480534275454939,-0.490662,-0.140442,0.390198,0.766296
1480534275477499,-0.490662,-0.140442,0.390198,0.766296
1480534275493541,-0.490723,-0.140442,0.390198,0.766296
1480534275531142,-0.490723,-0.140381,0.390198,0.766296
1480534275537160,-0.490723,-0.140381,0.390198,0.766296
1480534275561222,-0.490723,-0.140381,0.390198,0.766296
1480534275576262,-0.490784,-0.140381,0.390198,0.766235
1480534275597318,-0.490784,-0.140381,0.390198,0.766235
1480534275615366,-0.490784,-0.140381,0.390259,0.766235
1480534275636923,-0.490784,-0.14032,0.390259,0.766235
1480534275657478,-0.490784,-0.140381,0.390259,0.766235
1480534275675024,-0.490784,-0.14032,0.390259,0.766235
1480534275694577,-0.490784,-0.14032,0.390259,0.766235
1480534275717136,-0.490845,-0.14032,0.390259,0.766235
1480534275739699,-0.490845,-0.14032,0.390259,0.766174
1480534275754736,-0.490845,-0.14032,0.390259,0.766174
1480534275777296,-0.490845,-0.140259,0.390259,0.766174
1480534275796347,-0.490906,-0.140259,0.390259,0.766174
1480534275814896,-0.490906,-0.140259,0.390259,0.766174
1480534275838961,-0.490967,-0.140259,0.390259,0.766113
1480534275860016,-0.490967,-0.140259,0.390259,0.766113
1480534275882075,-0.490967,-0.140259,0.390259,0.766113
1480534275898619,-0.490967,-0.140259,0.390259,0.766113
1480534275919675,-0.491028,-0.140198,0.390259,0.766113
1480534275934716,-0.490967,-0.140198,0.39032,0.766113
1480534275957275,-0.491028,-0.140198,0.39032,0.766113
1480534275980336,-0.491089,-0.140198,0.39032,0.766052
1480534275997883,-0.491089,-0.140198,0.39032,0.766052
1480534276032475,-0.491089,-0.140137,0.39032,0.766052
1480534276049520,-0.491089,-0.140137,0.39032,0.766052
1480534276055536,-0.491089,-0.140137,0.39032,0.765991
1480534276077094,-0.49115,-0.140137,0.39032,0.765991
1480534276099654,-0.49115,-0.140137,0.39032,0.765991
1480534276114694,-0.49115,-0.140137,0.39032,0.765991
1480534276137256,-0.491211,-0.140137,0.39032,0.765991
1480534276159813,-0.491211,-0.140137,0.39032,0.76593
1480534276174854,-0.491455,-0.140015,0.39032,0.765808
1480534276204934,-0.49176,-0.140015,0.390198,0.765686
1480534276219974,-0.492126,-0.140015,0.390137,0.765503
1480534276242534,-0.492371,-0.140137,0.390015,0.765381
1480534276257072,-0.492493,-0.140381,0.389893,0.76532
1480534276279633,-0.492615,-0.140625,0.389771,0.765259
1480534276296176,-0.492798,-0.140747,0.389709,0.765137
1480534276317233,-0.492859,-0.14093,0.389648,0.765076
1480534276347814,-0.49292,-0.141052,0.389709,0.765015
1480534276362352,-0.493286,-0.141296,0.389709,0.764709
1480534276401965,-0.493652,-0.141541,0.389648,0.764465
1480534276409478,-0.493896,-0.141602,0.389709,0.764282
1480534276417500,-0.494141,-0.141602,0.389709,0.764099
1480534276438556,-0.494507,-0.141663,0.389709,0.763855
1480534276459612,-0.494568,-0.141602,0.389709,0.763855
1480534276483675,-0.494568,-0.141602,0.389709,0.763855
1480534276497214,-0.49469,-0.141602,0.389832,0.763672
1480534276519771,-0.494873,-0.141724,0.389893,0.76355
1480534276536319,-0.495117,-0.141785,0.390076,0.763245
1480534276564891,-0.4953,-0.141968,0.390259,0.763062
1480534276587953,-0.4953,-0.141968,0.390259,0.763062
1480534276605499,-0.4953,-0.141968,0.390198,0.763
1480534276617532,-0.495361,-0.141968,0.390198,0.763
1480534276639590,-0.495361,-0.141968,0.390198,0.763
1480534276657638,-0.495422,-0.141968,0.390259,0.762939
1480534276677190,-0.495422,-0.141968,0.390198,0.762939
1480534276699750,-0.495483,-0.141968,0.390198,0.762939
1480534276722311,-0.495483,-0.141907,0.390259,0.762878
1480534276737662,-0.495483,-0.141907,0.390259,0.762878
1480534276759910,-0.495544,-0.141907,0.390259,0.762878
1480534276783473,-0.495605,-0.141907,0.390259,0.762878
1480534276799516,-0.495605,-0.141846,0.390259,0.762817
1480534276837115,-0.495605,-0.141846,0.390259,0.762817
1480534276842631,-0.495667,-0.141846,0.390259,0.762817
1480534276857170,-0.495667,-0.141846,0.390259,0.762756
1480534276879729,-0.495605,-0.141663,0.390381,0.762817
1480534276897777,-0.495605,-0.141663,0.390381,0.762817
1480534276917329,-0.495667,-0.141663,0.390381,0.762756
1480534276939890,-0.495544,-0.141602,0.390381,0.762878
1480534276962449,-0.495544,-0.141541,0.390381,0.762878
1480534276985009,-0.495544,-0.141541,0.390381,0.762878
1480534277002556,-0.495605,-0.141541,0.390381,0.762817
1480534277017596,-0.495544,-0.141602,0.390381,0.762878
1480534277037148,-0.495239,-0.141541,0.390503,0.763
1480534277068732,-0.495178,-0.141541,0.390564,0.763
1480534277077756,-0.495178,-0.141479,0.390564,0.763
1480534277113351,-0.495239,-0.141479,0.390564,0.763
1480534277119872,-0.495056,-0.141541,0.390503,0.763123
1480534277143932,-0.494751,-0.141541,0.390442,0.763306
1480534277159975,-0.494751,-0.141541,0.390381,0.763367
1480534277187047,-0.494629,-0.141541,0.39032,0.763489
1480534277199580,-0.494324,-0.141602,0.39032,0.763672
1480534277219132,-0.494019,-0.141602,0.39032,0.763855
1480534277239777,-0.493835,-0.141602,0.39032,0.763977
1480534277257734,-0.493591,-0.141724,0.390381,0.764099
1480534277279292,-0.493225,-0.141724,0.390381,0.764343
1480534277299846,-0.492981,-0.141785,0.390442,0.764465
1480534277322407,-0.492859,-0.141907,0.390442,0.764526
1480534277339953,-0.492676,-0.141846,0.390442,0.764648
1480534277360006,-0.492432,-0.141968,0.390381,0.764771
1480534277382067,-0.492188,-0.142029,0.390381,0.764954
1480534277398609,-0.492065,-0.142029,0.390381,0.765015
1480534277419665,-0.49176,-0.142029,0.390442,0.765198
1480534277442225,-0.491577,-0.14209,0.390442,0.76532
1480534277473809,-0.491394,-0.142151,0.390503,0.765381
1480534277479826,-0.49115,-0.142151,0.390503,0.765503
1480534277502386,-0.490906,-0.142151,0.390564,0.765686
1480534277520433,-0.49054,-0.14209,0.390625,0.765869
1480534277539985,-0.490356,-0.142151,0.390686,0.76593
1480534277562545,-0.490356,-0.142273,0.390686,0.76593
1480534277593628,-0.490051,-0.142273,0.390625,0.766174
1480534277616689,-0.489807,-0.142151,0.390625,0.766357
1480534277622204,-0.489868,-0.142151,0.390625,0.766296
1480534277653288,-0.489868,-0.142151,0.390625,0.766296
1480534277662812,-0.489929,-0.142151,0.390625,0.766235
1480534277682364,-0.489929,-0.142151,0.390625,0.766235
1480534277706428,-0.489929,-0.142151,0.390625,0.766235
1480534277719963,-0.48999,-0.142151,0.390625,0.766235
1480534277743527,-0.48999,-0.142151,0.390625,0.766235
1480534277760070,-0.48999,-0.142151,0.390625,0.766174
1480534277781127,-0.490051,-0.142151,0.390625,0.766174
1480534277802200,-0.490051,-0.14209,0.390625,0.766174
1480534277820231,-0.490051,-0.14209,0.390625,0.766174
1480534277839783,-0.490112,-0.14209,0.390625,0.766174
1480534277862343,-0.490112,-0.14209,0.390625,0.766113
1480534277880390,-0.490112,-0.14209,0.390625,0.766113
1480534277901447,-0.490173,-0.14209,0.390686,0.766113
1480534277922503,-0.490173,-0.142029,0.390686,0.766113
1480534277946066,-0.490173,-0.142029,0.390686,0.766052
1480534277984167,-0.490234,-0.142029,0.390686,0.766052
1480534277986674,-0.490234,-0.142029,0.390686,0.766052
1480534278000210,-0.490234,-0.14209,0.390625,0.766052
1480534278021265,-0.490295,-0.142029,0.390625,0.766052
1480534278042326,-0.490295,-0.142029,0.390686,0.765991
1480534278060369,-0.490295,-0.142029,0.390686,0.765991
1480534278079922,-0.490356,-0.142029,0.390686,0.765991
1480534278104988,-0.490356,-0.142029,0.390686,0.765991
1480534278120029,-0.490417,-0.141968,0.390686,0.76593
1480534278139580,-0.490417,-0.141968,0.390686,0.76593
1480534278169664,-0.490417,-0.141968,0.390686,0.76593
1480534278193223,-0.490479,-0.141968,0.390686,0.76593
1480534278216284,-0.490479,-0.141968,0.390686,0.765869
1480534278222300,-0.49054,-0.141968,0.390686,0.765869
1480534278240349,-0.49054,-0.141968,0.390686,0.765869
1480534278267422,-0.490601,-0.141968,0.390686,0.765869
1480534278289980,-0.490601,-0.141968,0.390686,0.765808
1480534278306023,-0.490601,-0.141907,0.390686,0.765808
1480534278321063,-0.490601,-0.141907,0.390686,0.765808
1480534278349639,-0.490662,-0.141907,0.390686,0.765808
1480534278360167,-0.490662,-0.141907,0.390686,0.765808
1480534278381222,-0.490662,-0.141907,0.390686,0.765808
1480534278402284,-0.490662,-0.141907,0.390686,0.765808
1480534278420329,-0.490723,-0.141907,0.390686,0.765747
1480534278448904,-0.490723,-0.141846,0.390747,0.765747
1480534278463943,-0.490784,-0.141846,0.390747,0.765747
1480534278487665,-0.490784,-0.141846,0.390747,0.765686
1480534278501201,-0.490845,-0.141846,0.390747,0.765686
1480534278522258,-0.490845,-0.141846,0.390747,0.765686
1480534278540305,-0.490845,-0.141785,0.390747,0.765686
1480534278562865,-0.490845,-0.141785,0.390747,0.765686
1480534278582416,-0.490906,-0.141785,0.390747,0.765625
1480534278600466,-0.490967,-0.141785,0.390747,0.765625
1480534278622523,-0.490967,-0.141724,0.390747,0.765625
1480534278642075,-0.490967,-0.141724,0.390747,0.765564
1480534278667645,-0.491028,-0.141724,0.390747,0.765564
1480534278682685,-0.491028,-0.141724,0.390747,0.765564
1480534278703739,-0.491028,-0.141663,0.390808,0.765564
1480534278724795,-0.491089,-0.141663,0.390808,0.765564
1480534278742843,-0.491089,-0.141663,0.390808,0.765503
1480534278762395,-0.49115,-0.141663,0.390808,0.765503
1480534278779946,-0.49115,-0.141602,0.390808,0.765503
1480534278824059,-0.49115,-0.141602,0.390808,0.765442
1480534278826566,-0.491211,-0.141602,0.390808,0.765442
1480534278844614,-0.491211,-0.141541,0.390808,0.765442
1480534278863665,-0.491211,-0.141541,0.390869,0.765442
1480534278882214,-0.491272,-0.141541,0.390869,0.765381
1480534278904775,-0.491333,-0.141479,0.390869,0.765381
1480534278922822,-0.491333,-0.141479,0.390869,0.765381
1480534278942374,-0.491333,-0.141479,0.390869,0.765381
1480534278964935,-0.491333,-0.141479,0.390869,0.76532
1480534278983484,-0.491394,-0.141418,0.390869,0.76532
1480534279006044,-0.491394,-0.141418,0.39093,0.76532
1480534279024592,-0.491394,-0.141418,0.39093,0.76532
1480534279042642,-0.491394,-0.141357,0.39093,0.76532
1480534279062193,-0.491455,-0.141357,0.39093,0.765259
1480534279084756,-0.491516,-0.141357,0.39093,0.765259
1480534279102801,-0.491516,-0.141357,0.39093,0.765259
1480534279122353,-0.491577,-0.141296,0.39093,0.765198
1480534279144913,-0.491577,-0.141296,0.39093,0.765198
1480534279162961,-0.491638,-0.141296,0.39093,0.765137
1480534279184520,-0.491638,-0.141296,0.39093,0.765137
1480534279221618,-0.491699,-0.141296,0.39093,0.765137
1480534279224125,-0.491699,-0.141235,0.390991,0.765076
1480534279243676,-0.49176,-0.141235,0.390991,0.765076
1480534279264736,-0.491699,-0.141113,0.391052,0.765137
1480534279283281,-0.49176,-0.141113,0.390991,0.765076
1480534279303838,-0.49176,-0.141113,0.390991,0.765076
1480534279324891,-0.491821,-0.141113,0.390991,0.765015
1480534279345446,-0.491821,-0.141113,0.390991,0.765015
1480534279372019,-0.491882,-0.141113,0.391052,0.765015
1480534279384550,-0.491882,-0.141052,0.391052,0.764954
1480534279402601,-0.491882,-0.14093,0.391052,0.765015
1480534279423656,-0.49176,-0.140808,0.391052,0.765076
1480534279447718,-0.491821,-0.140808,0.391052,0.765076
1480534279467271,-0.491882,-0.140747,0.391052,0.765076
1480534279485821,-0.491699,-0.140747,0.391113,0.765137
1480534279504871,-0.491577,-0.140686,0.391113,0.765198
1480534279522918,-0.491638,-0.140686,0.391113,0.765198
1480534279544977,-0.491638,-0.140686,0.391113,0.765137
1480534279572051,-0.491699,-0.140686,0.391113,0.765137
1480534279582577,-0.491516,-0.140564,0.391174,0.765259
1480534279605139,-0.491516,-0.140564,0.391174,0.765259
1480534279626193,-0.491577,-0.140503,0.391174,0.765198
1480534279642738,-0.491394,-0.140442,0.391235,0.76532
1480534279665297,-0.491394,-0.140442,0.391235,0.76532
1480534279684850,-0.491272,-0.140564,0.391296,0.76532
1480534279704403,-0.491089,-0.140686,0.391418,0.765381
1480534279725457,-0.490662,-0.140564,0.391663,0.765503
1480534279745009,-0.490601,-0.140686,0.391846,0.765442
1480534279762556,-0.490723,-0.14093,0.391907,0.76532
1480534279785116,-0.490784,-0.141174,0.391907,0.765198
1480534279804670,-0.490723,-0.141357,0.391907,0.765259
1480534279822721,-0.49054,-0.141602,0.391785,0.765381
1480534279845276,-0.49054,-0.141724,0.391663,0.765381
1480534279864827,-0.490662,-0.141846,0.391602,0.765381
1480534279882875,-0.490723,-0.142151,0.391541,0.76532
1480534279911454,-0.490723,-0.14209,0.391541,0.76532
1480534279924987,-0.490784,-0.14209,0.391541,0.765259
1480534279942535,-0.490845,-0.14209,0.391541,0.765198
1480534279971112,-0.491089,-0.142212,0.391357,0.765137
1480534279984647,-0.49115,-0.142212,0.391357,0.765076
1480534280003196,-0.491516,-0.142334,0.391113,0.764954
1480534280025255,-0.491577,-0.142334,0.391113,0.764893
1480534280052328,-0.491577,-0.142334,0.391113,0.764893
1480534280062855,-0.491699,-0.142456,0.39093,0.764893
1480534280085415,-0.491882,-0.142517,0.390808,0.764832
1480534280112488,-0.492004,-0.142639,0.390686,0.764832
1480534280122517,-0.492065,-0.1427,0.390564,0.764832
1480534280145074,-0.492065,-0.1427,0.390564,0.764832
1480534280166130,-0.492126,-0.1427,0.390564,0.764771
1480534280183676,-0.492188,-0.1427,0.390564,0.764771
1480534280205237,-0.492188,-0.1427,0.390564,0.764771
1480534280241831,-0.492188,-0.1427,0.390564,0.764709
1480534280244338,-0.492249,-0.1427,0.390564,0.764709
1480534280265393,-0.492249,-0.142639,0.390564,0.764709
1480534280286451,-0.49231,-0.142639,0.390564,0.764648
1480534280302493,-0.49231,-0.1427,0.390564,0.764648
1480534280325052,-0.492371,-0.1427,0.390564,0.764648
1480534280346108,-0.492371,-0.1427,0.390564,0.764648
1480534280367165,-0.492371,-0.1427,0.390564,0.764587
1480534280391228,-0.492432,-0.142639,0.390564,0.764587
1480534280407772,-0.492432,-0.142639,0.390564,0.764587
1480534280430332,-0.492493,-0.142639,0.390564,0.764587
1480534280445372,-0.492493,-0.142639,0.390503,0.764526
1480534280467933,-0.492493,-0.142639,0.390564,0.764526
1480534280490994,-0.492554,-0.142639,0.390564,0.764526
1480534280505551,-0.492554,-0.142639,0.390564,0.764526
1480534280527590,-0.492554,-0.142639,0.390564,0.764526
1480534280550653,-0.49292,-0.142639,0.390564,0.764282
1480534280569706,-0.493286,-0.142578,0.390564,0.764038
1480534280586749,-0.493286,-0.142578,0.390564,0.764038
1480534280607303,-0.493347,-0.142578,0.390564,0.764038
1480534280625351,-0.493347,-0.142578,0.390564,0.764038
1480534280647910,-0.493347,-0.142578,0.390564,0.763977
1480534280670472,-0.493408,-0.142578,0.390564,0.763977
1480534280691026,-0.493408,-0.142578,0.390564,0.763977
1480534280707573,-0.493469,-0.142578,0.390564,0.763916
1480534280727121,-0.49353,-0.142578,0.390503,0.763916
1480534280745170,-0.493774,-0.142395,0.390686,0.763733
1480534280768232,-0.493774,-0.142395,0.390686,0.763733
1480534280790290,-0.493835,-0.142395,0.390625,0.763672
1480534280805832,-0.493835,-0.142395,0.390625,0.763672
1480534280827891,-0.493896,-0.142395,0.390686,0.763672
1480534280847948,-0.493896,-0.142395,0.390686,0.763672
1480534280865991,-0.493896,-0.142334,0.390686,0.763611
1480534280887548,-0.493958,-0.142334,0.390686,0.763611
1480534280907100,-0.493958,-0.142334,0.390686,0.763611
1480534280926151,-0.494019,-0.142334,0.390686,0.76355
1480534280950215,-0.49408,-0.142334,0.390686,0.76355
1480534280967261,-0.494141,-0.142334,0.390686,0.763489
1480534280985309,-0.494141,-0.142273,0.390686,0.763489
1480534281008371,-0.494202,-0.142273,0.390686,0.763428
1480534281034942,-0.494263,-0.142273,0.390686,0.763428
1480534281044967,-0.494263,-0.142273,0.390686,0.763367
1480534281082066,-0.494263,-0.141968,0.390747,0.763428
1480534281088583,-0.494324,-0.141968,0.390747,0.763428
1480534281104625,-0.494324,-0.141907,0.390747,0.763428
1480534281128690,-0.494385,-0.141968,0.390869,0.763306
1480534281156764,-0.494202,-0.142029,0.391052,0.763306
1480534281171805,-0.494019,-0.142212,0.391235,0.763306
1480534281193362,-0.493896,-0.142334,0.391418,0.763245
1480534281207900,-0.493835,-0.142334,0.391541,0.763245
1480534281224946,-0.493713,-0.142334,0.391541,0.763306
1480534281247004,-0.493652,-0.142334,0.391541,0.763367
1480534281275580,-0.493713,-0.142273,0.391541,0.763306
1480534281284608,-0.493713,-0.142151,0.391541,0.763367
1480534281312679,-0.493713,-0.142151,0.391602,0.763306
1480534281328223,-0.493713,-0.142151,0.391602,0.763306
1480534281357799,-0.493713,-0.141907,0.391785,0.763245
1480534281366825,-0.493835,-0.141785,0.391968,0.763123
1480534281389383,-0.493713,-0.141602,0.392029,0.763184
1480534281410439,-0.49353,-0.141357,0.392212,0.763245
1480534281426983,-0.49353,-0.141174,0.392395,0.763184
1480534281449543,-0.49353,-0.141113,0.392395,0.763184
1480534281464083,-0.493591,-0.141113,0.392395,0.763184
1480534281487144,-0.493591,-0.141113,0.392395,0.763184
1480534281516723,-0.493652,-0.141113,0.392395,0.763123
1480534281523740,-0.493713,-0.141113,0.392395,0.763123
1480534281554322,-0.493652,-0.14093,0.392456,0.763184
1480534281569363,-0.493652,-0.14093,0.392456,0.763123
1480534281597937,-0.493713,-0.14093,0.392456,0.763123
1480534281607464,-0.493774,-0.14093,0.392456,0.763062
1480534281629522,-0.493774,-0.14093,0.392456,0.763062
1480534281643560,-0.493835,-0.14093,0.392456,0.763062
1480534281669130,-0.493835,-0.14093,0.392456,0.763062
1480534281691186,-0.493896,-0.140869,0.392456,0.763
1480534281703722,-0.493896,-0.140869,0.392456,0.763
1480534281726781,-0.493958,-0.140869,0.392456,0.763
1480534281749341,-0.494019,-0.140869,0.392456,0.762939
1480534281763881,-0.494019,-0.140869,0.392456,0.762939
1480534281800478,-0.49408,-0.140869,0.392456,0.762878
1480534281809000,-0.49408,-0.140869,0.392456,0.762878
1480534281832060,-0.494141,-0.140808,0.392456,0.762878
1480534281849106,-0.494141,-0.140808,0.392456,0.762817
1480534281869680,-0.493958,-0.140747,0.392456,0.763
1480534281890215,-0.493835,-0.140747,0.392456,0.763123
1480534281906759,-0.493835,-0.140747,0.392456,0.763062
1480534281936340,-0.493896,-0.140686,0.392456,0.763062
1480534281950375,-0.493896,-0.140686,0.392456,0.763
1480534281966920,-0.493958,-0.140686,0.392456,0.763
1480534281989479,-0.494019,-0.140686,0.392456,0.762939
1480534282010535,-0.494019,-0.140625,0.392456,0.763
1480534282033096,-0.494019,-0.140442,0.392456,0.763
1480534282057661,-0.49408,-0.140381,0.392517,0.762939
1480534282071699,-0.49408,-0.140381,0.392517,0.762939
1480534282092754,-0.494141,-0.140381,0.392517,0.762939
1480534282109298,-0.494141,-0.14032,0.392517,0.762939
1480534282147399,-0.494141,-0.14032,0.392517,0.762878
1480534282149908,-0.494202,-0.14032,0.392517,0.762878
1480534282176979,-0.494202,-0.14032,0.392517,0.762878
1480534282191015,-0.494019,-0.140259,0.392517,0.762939
1480534282206557,-0.49408,-0.140259,0.392517,0.762939
1480534282229619,-0.494141,-0.140259,0.392517,0.762939
1480534282250174,-0.494141,-0.140259,0.392517,0.762878
1480534282266717,-0.49408,-0.140198,0.392517,0.763
1480534282289277,-0.49408,-0.140198,0.392517,0.763
1480534282312339,-0.49408,-0.140137,0.392517,0.762939
1480534282332892,-0.494141,-0.140137,0.392517,0.762939
1480534282349438,-0.494019,-0.140076,0.392639,0.763
1480534282371996,-0.494019,-0.140076,0.392639,0.763
1480534282387037,-0.49408,-0.140076,0.392639,0.762939
1480534282410098,-0.49408,-0.140076,0.392639,0.762939
1480534282432157,-0.494141,-0.140076,0.392639,0.762939
1480534282447198,-0.494141,-0.140076,0.392639,0.762878
1480534282469257,-0.494202,-0.140076,0.392639,0.762878
1480534282491815,-0.494202,-0.140015,0.392639,0.762878
1480534282506354,-0.494263,-0.140015,0.392639,0.762878
1480534282529416,-0.494263,-0.140015,0.392639,0.762817
1480534282551976,-0.494263,-0.140015,0.392639,0.762817
1480534282566013,-0.494324,-0.139954,0.392639,0.762817
1480534282592082,-0.494324,-0.139954,0.392639,0.762817
1480534282611635,-0.494385,-0.139954,0.392639,0.762756
1480534282634198,-0.494385,-0.139954,0.392639,0.762756
1480534282649235,-0.494385,-0.139954,0.392639,0.762756
1480534282677810,-0.494446,-0.139954,0.392639,0.762756
1480534282686334,-0.494385,-0.139893,0.392639,0.762756
1480534282709397,-0.494446,-0.139832,0.392639,0.762756
1480534282732456,-0.494446,-0.139832,0.3927,0.762695
1480534282745992,-0.494446,-0.139832,0.3927,0.762695
1480534282769554,-0.494507,-0.139832,0.3927,0.762695
1480534282791613,-0.494507,-0.139832,0.3927,0.762695
1480534282806152,-0.494568,-0.139771,0.3927,0.762634
1480534282829213,-0.494568,-0.139771,0.3927,0.762634
1480534282866313,-0.494568,-0.139771,0.3927,0.762634
1480534282873330,-0.494629,-0.139771,0.3927,0.762573
1480534282904416,-0.494629,-0.139709,0.3927,0.762573
1480534282912937,-0.49469,-0.139709,0.3927,0.762573
1480534282932991,-0.49469,-0.139709,0.3927,0.762573
1480534282957053,-0.494751,-0.139709,0.3927,0.762512
1480534282972093,-0.494751,-0.139709,0.3927,0.762512
1480534282995156,-0.494751,-0.139709,0.3927,0.762512
1480534283009214,-0.494812,-0.139648,0.3927,0.762512
1480534283031752,-0.494873,-0.139648,0.3927,0.762451
1480534283060327,-0.494873,-0.139648,0.3927,0.762451
1480534283076872,-0.494934,-0.139648,0.3927,0.762451
1480534283097428,-0.494934,-0.139648,0.3927,0.76239
1480534283115976,-0.494995,-0.139648,0.3927,0.76239
1480534283129513,-0.494995,-0.139648,0.3927,0.76239
1480534283154077,-0.494995,-0.139648,0.3927,0.76239
1480534283180650,-0.495056,-0.139587,0.392761,0.762329
1480534283204211,-0.495056,-0.139587,0.392761,0.762329
1480534283211731,-0.495056,-0.139587,0.392761,0.762329
1480534283234794,-0.495117,-0.139587,0.392761,0.762329
1480534283249331,-0.495117,-0.139587,0.392761,0.762268
1480534283271892,-0.495178,-0.139526,0.392761,0.762268
1480534283293949,-0.495178,-0.139526,0.392761,0.762268
1480534283324530,-0.495239,-0.139526,0.392761,0.762207
1480534283332051,-0.495239,-0.139526,0.392761,0.762207
1480534283363133,-0.4953,-0.139526,0.392761,0.762207
1480534283393213,-0.4953,-0.139465,0.392761,0.762207
1480534283398227,-0.4953,-0.139465,0.392761,0.762146
1480534283422290,-0.495361,-0.139465,0.392761,0.762146
1480534283430814,-0.495422,-0.139465,0.392761,0.762085
1480534283451871,-0.4953,-0.139343,0.392761,0.762207
1480534283480446,-0.495361,-0.139282,0.392822,0.762207
1480534283488968,-0.495361,-0.139282,0.392822,0.762146
1480534283512030,-0.495361,-0.139221,0.392822,0.762146
1480534283534590,-0.495422,-0.139221,0.392822,0.762146
1480534283548627,-0.495422,-0.139221,0.392822,0.762146
1480534283571688,-0.495422,-0.139221,0.392822,0.762085
1480534283618313,-0.495483,-0.139221,0.392822,0.762085
1480534283632352,-0.495483,-0.13916,0.392822,0.762085
1480534283634856,-0.495483,-0.13916,0.392822,0.762085
1480534283654410,-0.495544,-0.13916,0.392822,0.762085
1480534283668948,-0.495422,-0.139343,0.392822,0.762085
1480534283698525,-0.495239,-0.139526,0.392822,0.762207
1480534283717076,-0.495117,-0.139709,0.392761,0.762268
1480534283735624,-0.495056,-0.139893,0.392822,0.762207
1480534283751667,-0.495056,-0.140015,0.392944,0.762207
1480534283774729,-0.494995,-0.140137,0.393005,0.762146
1480534283795283,-0.495056,-0.14032,0.393005,0.762085
1480534283811826,-0.495117,-0.14032,0.393005,0.762024
1480534283834391,-0.495178,-0.14032,0.393005,0.762024
1480534283855463,-0.495178,-0.14032,0.393005,0.762024
1480534283871987,-0.495239,-0.14032,0.392944,0.761963
1480534283894547,-0.495239,-0.14032,0.392944,0.761963
1480534283916104,-0.495239,-0.14032,0.393005,0.761963
1480534283932147,-0.495239,-0.14032,0.393005,0.761963
1480534283961725,-0.495239,-0.14032,0.393005,0.761963
1480534283976766,-0.4953,-0.140259,0.393005,0.761902
1480534283991806,-0.495361,-0.140381,0.392883,0.761902
1480534284014366,-0.495361,-0.140442,0.392761,0.761963
1480534284035425,-0.495361,-0.140442,0.392761,0.761963
1480534284052468,-0.495422,-0.140442,0.392761,0.761963
1480534284074526,-0.495422,-0.140442,0.392761,0.761963
1480534284095582,-0.495422,-0.140442,0.392761,0.761963
1480534284111624,-0.495483,-0.140442,0.3927,0.761902
1480534284134185,-0.495544,-0.140442,0.3927,0.761902
1480534284155240,-0.495544,-0.140442,0.3927,0.761902
1480534284171283,-0.495544,-0.140442,0.3927,0.761841
1480534284194345,-0.495605,-0.140442,0.3927,0.761841
1480534284222920,-0.495667,-0.140442,0.3927,0.761841
1480534284246985,-0.495667,-0.140442,0.3927,0.76178
1480534284254505,-0.495667,-0.140503,0.3927,0.76178
1480534284277064,-0.495667,-0.140442,0.3927,0.76178
1480534284292105,-0.495911,-0.140442,0.392822,0.761597
1480534284315166,-0.495911,-0.140381,0.392822,0.761597
1480534284344243,-0.495911,-0.140442,0.392822,0.761597
1480534284352766,-0.495972,-0.140442,0.392822,0.761536
1480534284374323,-0.496399,-0.140686,0.392761,0.761292
1480534284396884,-0.496643,-0.140991,0.392639,0.761047
1480534284411422,-0.496948,-0.141235,0.392517,0.760864
1480534284435989,-0.497437,-0.141479,0.392395,0.76062
1480534284457043,-0.497864,-0.141724,0.392334,0.760315
1480534284477597,-0.49823,-0.142151,0.392212,0.760071
1480534284494141,-0.498413,-0.142395,0.392151,0.759888
1480534284516702,-0.49884,-0.142578,0.392151,0.759583
1480534284531241,-0.499268,-0.1427,0.392212,0.759277
1480534284554808,-0.499817,-0.142822,0.392212,0.75885
1480534284576862,-0.500305,-0.142944,0.392212,0.758545
1480534284597918,-0.500916,-0.143066,0.39209,0.758179
1480534284614462,-0.501526,-0.143127,0.392029,0.757813
1480534284637022,-0.501892,-0.143188,0.391968,0.757568
1480534284651061,-0.502258,-0.143188,0.391968,0.757324
1480534284674623,-0.502686,-0.143127,0.392029,0.757019
1480534284696681,-0.502991,-0.143188,0.392212,0.756714
1480534284718741,-0.503174,-0.143188,0.392395,0.756531
1480534284734782,-0.503418,-0.14325,0.392517,0.756287
1480534284756840,-0.503723,-0.143372,0.392639,0.755981
1480534284777896,-0.503967,-0.143555,0.3927,0.755737
1480534284795443,-0.50415,-0.143555,0.392822,0.755554
1480534284817003,-0.50415,-0.143616,0.392822,0.755554
1480534284838060,-0.504211,-0.143555,0.392822,0.755554
1480534284854600,-0.504272,-0.143555,0.392822,0.755493
1480534284876659,-0.504272,-0.143555,0.392822,0.755493
1480534284897715,-0.504272,-0.143616,0.392761,0.755493
1480534284914260,-0.504578,-0.143494,0.392639,0.755371
1480534284937320,-0.504822,-0.14325,0.392578,0.75531
1480534284965897,-0.504944,-0.142944,0.392578,0.755249
1480534284974419,-0.505066,-0.142578,0.392639,0.755249
1480534285002996,-0.505188,-0.142273,0.392639,0.755249
1480534285020040,-0.505371,-0.142029,0.392578,0.755127
1480534285034580,-0.505432,-0.142029,0.392578,0.755127
1480534285056639,-0.505432,-0.142029,0.392517,0.755127
1480534285079198,-0.505432,-0.141907,0.392578,0.755127
1480534285094238,-0.505493,-0.141846,0.392578,0.755127
1480534285116799,-0.505432,-0.141846,0.392578,0.755127
1480534285138355,-0.505493,-0.141846,0.392578,0.755127
1480534285153897,-0.505432,-0.141785,0.3927,0.755127
1480534285178462,-0.50531,-0.141724,0.392761,0.755188
1480534285199519,-0.505127,-0.141663,0.392883,0.755249
1480534285215060,-0.505005,-0.141663,0.393066,0.755249
1480534285244137,-0.505066,-0.141663,0.393066,0.755249
1480534285259177,-0.505066,-0.141602,0.393066,0.755188
1480534285281235,-0.505066,-0.141602,0.393066,0.755188
1480534285296777,-0.505066,-0.141602,0.393066,0.755188
1480534285327358,-0.505127,-0.141541,0.393066,0.755127
1480534285335381,-0.505127,-0.141479,0.393127,0.755127
1480534285356937,-0.505127,-0.141479,0.393127,0.755127
1480534285387017,-0.505188,-0.141418,0.393127,0.755127
1480534285393534,-0.505188,-0.141418,0.393127,0.755127
1480534285424115,-0.505127,-0.141357,0.393188,0.755127
1480534285439155,-0.504944,-0.141418,0.393127,0.75531
1480534285460211,-0.504761,-0.141357,0.393127,0.755371
1480534285476756,-0.504639,-0.141357,0.393127,0.755493
1480534285502327,-0.504333,-0.141418,0.393188,0.755676
1480534285513854,-0.503967,-0.141418,0.393311,0.755859
1480534285536916,-0.503662,-0.141479,0.393372,0.755981
1480534285559475,-0.503296,-0.141541,0.393494,0.756165
1480534285574515,-0.502808,-0.141479,0.393616,0.756409
1480534285597075,-0.502441,-0.141541,0.393738,0.756653
1480534285619135,-0.502075,-0.141663,0.393738,0.756836
1480534285633677,-0.501831,-0.141724,0.393738,0.756958
1480534285662750,-0.501587,-0.141785,0.393677,0.757141
1480534285679294,-0.501404,-0.141846,0.393555,0.757324
1480534285700354,-0.501282,-0.141907,0.393433,0.757446
1480534285716898,-0.50116,-0.141907,0.393372,0.757629
1480534285739455,-0.500916,-0.141785,0.39325,0.757813
1480534285760511,-0.500732,-0.141785,0.393188,0.757996
1480534285778558,-0.500671,-0.141663,0.393127,0.758118
1480534285801119,-0.500549,-0.141602,0.393066,0.758179
1480534285820168,-0.500366,-0.141479,0.393005,0.758362
1480534285836713,-0.500183,-0.141541,0.392883,0.758606
1480534285859273,-0.499939,-0.141541,0.392822,0.758728
1480534285880329,-0.499756,-0.141479,0.392761,0.758911
1480534285898878,-0.49939,-0.141479,0.392761,0.759155
1480534285919433,-0.499023,-0.141541,0.3927,0.759399
1480534285941993,-0.49884,-0.141602,0.3927,0.759521
1480534285957534,-0.498657,-0.141602,0.3927,0.759644
1480534285979593,-0.498413,-0.141724,0.392639,0.759766
1480534286000650,-0.498169,-0.141785,0.392639,0.759949
1480534286016692,-0.497925,-0.141846,0.392578,0.760132
1480534286039251,-0.497742,-0.141846,0.392578,0.760254
1480534286061812,-0.497498,-0.141846,0.392578,0.760437
1480534286076853,-0.497253,-0.141846,0.392517,0.760559
1480534286099412,-0.497253,-0.141907,0.392456,0.76062
1480534286129492,-0.497192,-0.141907,0.392456,0.760681
1480534286137012,-0.49707,-0.141846,0.392456,0.760742
1480534286160575,-0.49707,-0.141846,0.392456,0.760742
1480534286181630,-0.497131,-0.141846,0.392456,0.760742
1480534286197172,-0.49707,-0.141846,0.392334,0.760803
1480534286219244,-0.496887,-0.141602,0.392395,0.760925
1480534286241804,-0.496887,-0.141602,0.392395,0.760925
1480534286256844,-0.496948,-0.141541,0.392395,0.760925
1480534286279404,-0.496826,-0.141479,0.392395,0.761047
1480534286301463,-0.496826,-0.141479,0.392395,0.761047
1480534286323020,-0.496643,-0.141602,0.392334,0.761169
1480534286341068,-0.496521,-0.141663,0.392334,0.76123
1480534286361622,-0.49646,-0.141663,0.392395,0.76123
1480534286376162,-0.49646,-0.141602,0.392395,0.76123
1480534286407745,-0.49646,-0.141602,0.392395,0.76123
1480534286422284,-0.496521,-0.141602,0.392395,0.761169
1480534286436322,-0.496582,-0.141602,0.392395,0.761169
1480534286472919,-0.496582,-0.141602,0.392395,0.761169
1480534286481943,-0.496582,-0.141602,0.392395,0.761169
1480534286511020,-0.496643,-0.141602,0.392395,0.761108
1480534286519543,-0.496643,-0.141602,0.392395,0.761108
1480534286542102,-0.496643,-0.141541,0.392395,0.761108
1480534286557143,-0.496643,-0.141541,0.392395,0.761108
1480534286579201,-0.496704,-0.141541,0.392395,0.761108
1480534286602263,-0.496399,-0.141602,0.392517,0.76123
1480534286624321,-0.496033,-0.141663,0.3927,0.761353
1480534286639362,-0.495728,-0.141785,0.392944,0.761414
1480534286661921,-0.495422,-0.142029,0.393066,0.761475
1480534286685985,-0.495056,-0.142212,0.39325,0.761597
1480534286699521,-0.494568,-0.142456,0.393372,0.76178
1480534286728599,-0.494202,-0.1427,0.393433,0.761963
1480534286745644,-0.49408,-0.142944,0.393494,0.761963
1480534286759180,-0.493958,-0.143066,0.393555,0.761963
1480534286805805,-0.493835,-0.143066,0.393616,0.762024
1480534286812321,-0.493591,-0.142944,0.393677,0.762146
1480534286826861,-0.49353,-0.142761,0.393799,0.762207
1480534286848920,-0.493347,-0.1427,0.393921,0.762268
1480534286862956,-0.493164,-0.142639,0.393982,0.762329
1480534286879506,-0.493103,-0.142517,0.394104,0.76239
1480534286902562,-0.493164,-0.142517,0.394104,0.762329
1480534286930636,-0.493164,-0.142517,0.394104,0.762329
1480534286946679,-0.493164,-0.142456,0.394104,0.762329
1480534286969241,-0.493164,-0.142456,0.394104,0.762329
1480534286982775,-0.493103,-0.142456,0.394165,0.762329
1480534286999320,-0.492859,-0.142456,0.394165,0.762451
1480534287027894,-0.492615,-0.142456,0.394287,0.762634
1480534287050454,-0.492493,-0.142395,0.394409,0.762634
1480534287060482,-0.492554,-0.142395,0.394409,0.762573
1480534287083041,-0.492554,-0.142334,0.394409,0.762573
1480534287110614,-0.492554,-0.142334,0.394409,0.762573
1480534287127159,-0.492615,-0.142334,0.394409,0.762573
1480534287143202,-0.492615,-0.142334,0.394409,0.762573
1480534287165260,-0.492615,-0.142334,0.394409,0.762512
1480534287179298,-0.492615,-0.142334,0.394409,0.762573
1480534287207876,-0.492676,-0.142334,0.394409,0.762512
1480534287224418,-0.492676,-0.142334,0.394409,0.762512
1480534287238961,-0.492676,-0.142273,0.394409,0.762512
1480534287270042,-0.492737,-0.142273,0.394409,0.762512
1480534287284076,-0.492737,-0.142273,0.394409,0.762451
1480534287298615,-0.492798,-0.142273,0.394409,0.762451
1480534287330199,-0.492798,-0.142273,0.394409,0.762451
1480534287344236,-0.492798,-0.142212,0.39447,0.762451
1480534287366295,-0.492859,-0.142212,0.394409,0.76239
1480534287389357,-0.492859,-0.142212,0.39447,0.76239
1480534287404399,-0.49292,-0.142212,0.39447,0.76239
1480534287418937,-0.49292,-0.142212,0.39447,0.762329
1480534287441997,-0.492981,-0.142212,0.39447,0.762329
1480534287465058,-0.493042,-0.142212,0.39447,0.762268
1480534287479596,-0.493042,-0.142151,0.39447,0.762268
1480534287516695,-0.493042,-0.142151,0.39447,0.762268
1480534287525218,-0.493103,-0.142212,0.394409,0.762207
1480534287538754,-0.493347,-0.141907,0.39447,0.762146
1480534287562316,-0.493652,-0.141541,0.394531,0.761963
1480534287584377,-0.494019,-0.141418,0.39447,0.76178
1480534287606935,-0.494385,-0.141357,0.394409,0.761597
1480534287623479,-0.494446,-0.141357,0.394409,0.761597
1480534287644538,-0.494446,-0.141296,0.394409,0.761536
1480534287665591,-0.494446,-0.141296,0.394409,0.761536
1480534287687654,-0.494446,-0.141296,0.394409,0.761536
1480534287705198,-0.494507,-0.141296,0.394409,0.761536
1480534287725249,-0.494507,-0.141235,0.394409,0.761536
1480534287741795,-0.494507,-0.141235,0.394409,0.761536
1480534287764354,-0.494568,-0.141235,0.394409,0.761475
1480534287792929,-0.494507,-0.141235,0.39447,0.761536
1480534287809475,-0.494446,-0.141174,0.39447,0.761536
1480534287824514,-0.494507,-0.141174,0.39447,0.761536
1480534287845570,-0.494568,-0.141174,0.39447,0.761475
1480534287864119,-0.494568,-0.141174,0.39447,0.761475
1480534287885188,-0.494629,-0.141174,0.39447,0.761475
1480534287905231,-0.494629,-0.141174,0.39447,0.761414
1480534287922274,-0.49469,-0.141174,0.39447,0.761414
1480534287944333,-0.49469,-0.141174,0.39447,0.761414
1480534287965389,-0.494751,-0.141113,0.39447,0.761353
1480534287981933,-0.494751,-0.141113,0.39447,0.761353
1480534288004497,-0.494812,-0.141113,0.39447,0.761292
1480534288027053,-0.494873,-0.141113,0.39447,0.761292
1480534288043096,-0.494873,-0.141113,0.39447,0.761292
1480534288064653,-0.494873,-0.141113,0.39447,0.761292
1480534288088215,-0.494934,-0.141113,0.39447,0.76123
1480534288101752,-0.494934,-0.141052,0.39447,0.76123
1480534288130327,-0.494995,-0.141052,0.39447,0.76123
1480534288146871,-0.494995,-0.141052,0.39447,0.761169
1480534288161911,-0.495056,-0.141052,0.39447,0.761169
1480534288184973,-0.495117,-0.141052,0.39447,0.761169
1480534288207033,-0.495117,-0.141052,0.39447,0.761108
1480534288229591,-0.495178,-0.141052,0.39447,0.761108
1480534288245634,-0.495239,-0.140991,0.39447,0.761047
1480534288266690,-0.495239,-0.140991,0.39447,0.761047
1480534288289250,-0.495239,-0.140991,0.39447,0.761047
1480534288304291,-0.4953,-0.140991,0.39447,0.761047
1480534288341891,-0.495361,-0.14093,0.39447,0.760986
1480534288350422,-0.495361,-0.14093,0.39447,0.760986
1480534288370470,-0.495422,-0.14093,0.394531,0.760925
1480534288387016,-0.495422,-0.14093,0.394531,0.760925
1480534288408567,-0.495422,-0.140686,0.394653,0.760925
1480534288424109,-0.495483,-0.140625,0.394714,0.760864
1480534288447671,-0.495483,-0.140625,0.394714,0.760864
1480534288461208,-0.495544,-0.140625,0.394653,0.760803
1480534288484269,-0.495605,-0.140625,0.394653,0.760803
1480534288507330,-0.496094,-0.140503,0.394531,0.760559
1480534288529388,-0.496277,-0.140198,0.39447,0.760559
1480534288544429,-0.496704,-0.139954,0.394287,0.760376
1480534288566990,-0.497253,-0.139709,0.394104,0.760132
1480534288588046,-0.497803,-0.139526,0.393921,0.759949
1480534288606094,-0.498291,-0.139404,0.393738,0.759766
1480534288628153,-0.498596,-0.139221,0.393616,0.759644
1480534288647704,-0.498901,-0.139038,0.393494,0.759521
1480534288664248,-0.499146,-0.138916,0.393555,0.759399
1480534288686808,-0.499146,-0.138855,0.393555,0.759399
1480534288707865,-0.499146,-0.138855,0.393555,0.759399
1480534288724407,-0.499146,-0.138794,0.393555,0.759338
1480534288746967,-0.499023,-0.138855,0.393738,0.759338
1480534288776045,-0.498901,-0.139038,0.393921,0.759338
1480534288786575,-0.498901,-0.139282,0.393982,0.759277
1480534288814146,-0.498779,-0.139404,0.394104,0.759216
1480534288828184,-0.498657,-0.139526,0.394226,0.759216
1480534288844227,-0.498535,-0.139709,0.394287,0.759277
1480534288866786,-0.498657,-0.139893,0.394226,0.759155
1480534288889346,-0.498718,-0.139893,0.394226,0.759155
1480534288911906,-0.498779,-0.139893,0.394226,0.759094
1480534288926946,-0.498779,-0.139893,0.394165,0.759094
1480534288948504,-0.499023,-0.139771,0.394043,0.759033
1480534288971565,-0.499451,-0.139526,0.39386,0.758911
1480534289001646,-0.499756,-0.139404,0.393616,0.75885
1480534289015181,-0.499939,-0.139282,0.393372,0.75885
1480534289024205,-0.500427,-0.139221,0.393066,0.758728
1480534289047768,-0.500793,-0.139099,0.392883,0.758606
1480534289069326,-0.50116,-0.139099,0.392639,0.758484
1480534289092386,-0.501465,-0.138977,0.392578,0.758362
1480534289106925,-0.501831,-0.138916,0.392456,0.758179
1480534289129490,-0.501831,-0.138855,0.392456,0.758179
1480534289152045,-0.501831,-0.138794,0.392456,0.758179
1480534289167085,-0.501831,-0.138794,0.392517,0.758179
1480534289189144,-0.501892,-0.138794,0.392517,0.758118
1480534289203683,-0.501892,-0.138611,0.392578,0.758118
1480534289227746,-0.501831,-0.138489,0.392639,0.758179
1480534289249304,-0.501709,-0.138489,0.3927,0.758179
1480534289270362,-0.501709,-0.13855,0.392761,0.758179
1480534289292925,-0.501587,-0.138611,0.392822,0.758179
1480534289315480,-0.501465,-0.138733,0.392883,0.75824
1480534289323501,-0.501282,-0.138916,0.392944,0.758301
1480534289347064,-0.501221,-0.13916,0.392883,0.758301
1480534289369625,-0.501038,-0.139282,0.392883,0.758362
1480534289385165,-0.500916,-0.139343,0.392944,0.758423
1480534289406724,-0.500977,-0.139343,0.392944,0.758423
1480534289429784,-0.501038,-0.139343,0.392883,0.758423
1480534289443821,-0.501099,-0.139343,0.392883,0.758362
1480534289472898,-0.500916,-0.139221,0.392761,0.758545
1480534289489442,-0.500854,-0.139099,0.392639,0.758667
1480534289510499,-0.500732,-0.139038,0.392639,0.758789
1480534289526541,-0.500549,-0.138977,0.392639,0.758911
1480534289555619,-0.500244,-0.138977,0.392761,0.759094
1480534289570658,-0.499817,-0.139099,0.392822,0.759277
1480534289592717,-0.49939,-0.139221,0.392944,0.75946
1480534289609762,-0.498962,-0.139404,0.393066,0.759644
1480534289647362,-0.498474,-0.139526,0.39325,0.759888
1480534289649870,-0.498047,-0.139709,0.393372,0.76001
1480534289669423,-0.497864,-0.139893,0.393433,0.760071
1480534289690477,-0.497559,-0.139893,0.393555,0.760193
1480534289707031,-0.497375,-0.139954,0.393616,0.760315
1480534289737602,-0.497375,-0.140076,0.393494,0.760376
1480534289757655,-0.497314,-0.140015,0.393433,0.760437
1480534289766679,-0.497314,-0.139893,0.393433,0.760437
1480534289789240,-0.497192,-0.139771,0.393433,0.760559
1480534289810296,-0.497009,-0.139832,0.393372,0.760681
1480534289827341,-0.496948,-0.139832,0.393433,0.760742
1480534289849400,-0.496765,-0.139954,0.393433,0.760803
1480534289870458,-0.49646,-0.140137,0.393494,0.760925
1480534289886498,-0.495972,-0.140259,0.393677,0.761108
1480534289924099,-0.495544,-0.140259,0.393982,0.76123
1480534289931620,-0.495178,-0.14032,0.394287,0.761292
1480534289946658,-0.494873,-0.140503,0.394531,0.761353
1480534289969220,-0.494812,-0.140747,0.394592,0.761292
1480534289991779,-0.49469,-0.140869,0.394592,0.761353
1480534290007860,-0.494629,-0.140869,0.394592,0.761414
1480534290029417,-0.494629,-0.140869,0.394592,0.761414
1480534290051977,-0.49469,-0.140869,0.394592,0.761414
1480534290066016,-0.49469,-0.140869,0.394592,0.761353
1480534290089577,-0.494751,-0.140869,0.394592,0.761353
1480534290119156,-0.494751,-0.140808,0.394592,0.761353
1480534290127179,-0.494751,-0.140808,0.394592,0.761353
1480534290150241,-0.494751,-0.140808,0.394592,0.761353
1480534290171797,-0.494812,-0.140808,0.394592,0.761292
1480534290194358,-0.494812,-0.140808,0.394592,0.761292
1480534290210400,-0.494812,-0.140808,0.394592,0.761292
1480534290231957,-0.494873,-0.140808,0.394592,0.761292
1480534290245994,-0.494873,-0.140747,0.394592,0.76123
1480534290276575,-0.494934,-0.140747,0.394653,0.76123
1480534290291615,-0.494934,-0.140747,0.394653,0.76123
1480534290307157,-0.494934,-0.140747,0.394653,0.76123
1480534290330217,-0.494934,-0.140686,0.394653,0.76123
1480534290351775,-0.494995,-0.140686,0.394653,0.76123
1480534290366316,-0.494995,-0.140686,0.394653,0.761169
1480534290397397,-0.495056,-0.140686,0.394653,0.761169
1480534290412938,-0.495117,-0.14093,0.394775,0.760986
1480534290432991,-0.495605,-0.141724,0.394775,0.760559
1480534290449539,-0.496277,-0.142395,0.394653,0.76001
1480534290471594,-0.496826,-0.1427,0.394714,0.759583
1480534290492650,-0.496826,-0.1427,0.394714,0.759583
1480534290517215,-0.496765,-0.142517,0.394714,0.759705
1480534290531755,-0.496765,-0.142334,0.394653,0.759705
1480534290552809,-0.496826,-0.142334,0.394653,0.759705
1480534290569900,-0.496826,-0.142334,0.394653,0.759705
1480534290593919,-0.496582,-0.14209,0.394592,0.759888
1480534290612970,-0.49646,-0.141785,0.394592,0.760071
1480534290635533,-0.496277,-0.141541,0.394592,0.760193
1480534290651573,-0.496155,-0.141235,0.394653,0.760315
1480534290673130,-0.496155,-0.141235,0.394653,0.760315
1480534290689172,-0.496094,-0.141235,0.394592,0.760376
1480534290712735,-0.495972,-0.141052,0.394653,0.760498
1480534290732791,-0.495911,-0.14093,0.394653,0.760559
1480534290749332,-0.495911,-0.14093,0.394653,0.760559
1480534290777407,-0.49585,-0.14093,0.394653,0.76062
1480534290795957,-0.495789,-0.14093,0.394592,0.76062
1480534290815509,-0.495789,-0.140869,0.394592,0.76062
1480534290832054,-0.49585,-0.140869,0.394592,0.76062
1480534290853108,-0.49585,-0.14093,0.394592,0.76062
1480534290870154,-0.49585,-0.140991,0.394531,0.76062
1480534290891711,-0.495667,-0.140991,0.39447,0.760803
1480534290914275,-0.495544,-0.141113,0.394348,0.760925
1480534290936831,-0.495544,-0.141113,0.394409,0.760864
1480534290952874,-0.495605,-0.141113,0.394409,0.760864
1480534290974432,-0.495544,-0.141052,0.394409,0.760864
1480534290989471,-0.495605,-0.141113,0.394409,0.760864
1480534291012031,-0.495667,-0.141113,0.394348,0.760864
1480534291034592,-0.495667,-0.141113,0.394348,0.760803
1480534291062666,-0.495667,-0.141113,0.394348,0.760803
1480534291071690,-0.495667,-0.141113,0.394348,0.760803
1480534291094249,-0.495728,-0.141113,0.394348,0.760803
1480534291108789,-0.495667,-0.141174,0.394287,0.760864
1480534291137866,-0.495667,-0.141174,0.394287,0.760864
1480534291154419,-0.495422,-0.141235,0.394348,0.760986
1480534291168448,-0.495483,-0.141174,0.394348,0.760925
1480534291192010,-0.495728,-0.141357,0.394348,0.760742
1480534291215073,-0.495728,-0.141357,0.394348,0.760742
1480534291228608,-0.495667,-0.141296,0.394348,0.760803
1480534291251669,-0.495728,-0.141235,0.394287,0.760803
1480534291274730,-0.495789,-0.141235,0.394287,0.760803
1480534291288768,-0.495789,-0.141235,0.394287,0.760803
1480534291313333,-0.495789,-0.141235,0.394287,0.760742
1480534291342410,-0.49585,-0.141235,0.394287,0.760742
1480534291348426,-0.495728,-0.141174,0.394226,0.760803
1480534291371988,-0.495728,-0.141113,0.394226,0.760803
1480534291400565,-0.495789,-0.141113,0.394226,0.760803
1480534291415605,-0.49585,-0.141174,0.394226,0.760803
1480534291432149,-0.49585,-0.141113,0.394226,0.760742
1480534291454207,-0.49585,-0.141113,0.394226,0.760742
1480534291475263,-0.49585,-0.141174,0.394226,0.760742
1480534291505343,-0.495667,-0.140808,0.394226,0.760925
1480534291528405,-0.49585,-0.140442,0.39447,0.760742
1480534291543445,-0.496399,-0.140137,0.394714,0.760315
1480534291551968,-0.496582,-0.139709,0.39502,0.760132
1480534291581547,-0.497192,-0.139282,0.395203,0.759766
1480534291595584,-0.497742,-0.138977,0.395142,0.75946
1480534291618143,-0.49823,-0.138916,0.394836,0.759338
1480534291634689,-0.498291,-0.138672,0.394531,0.759521
1480534291655242,-0.498413,-0.138611,0.394287,0.759521
1480534291679306,-0.498535,-0.138733,0.394287,0.759399
1480534291694346,-0.498596,-0.138977,0.394409,0.759277
1480534291715402,-0.498718,-0.139221,0.394592,0.759094
1480534291731946,-0.498718,-0.139343,0.394775,0.758911
1480534291754506,-0.498596,-0.139404,0.39502,0.75885
1480534291775061,-0.498474,-0.139526,0.395142,0.75885
1480534291799128,-0.498169,-0.140015,0.395142,0.758972
1480534291821685,-0.498169,-0.140442,0.395142,0.758911
1480534291836725,-0.497803,-0.140869,0.39502,0.759094
1480534291852768,-0.497314,-0.141541,0.394958,0.759338
1480534291874325,-0.496948,-0.14209,0.394897,0.759521
1480534291896885,-0.49646,-0.1427,0.394897,0.759766
1480534291912426,-0.495728,-0.143494,0.394775,0.760132
1480534291934486,-0.494751,-0.144043,0.394775,0.760681
1480534291957045,-0.493896,-0.14447,0.394775,0.761108
1480534291971082,-0.493286,-0.144958,0.394775,0.761475
1480534291994143,-0.492676,-0.145386,0.394714,0.76178
1480534292018207,-0.492188,-0.14563,0.394714,0.762024
1480534292031242,-0.491943,-0.145752,0.394592,0.762207
1480534292061824,-0.492004,-0.145813,0.394409,0.762268
1480534292076865,-0.492004,-0.145691,0.394226,0.76239
1480534292099435,-0.492065,-0.145447,0.394043,0.762512
1480534292114966,-0.492188,-0.145142,0.39386,0.762573
1480534292136811,-0.492188,-0.144775,0.393799,0.762695
1480534292151060,-0.492554,-0.144653,0.393494,0.762634
1480534292174624,-0.492432,-0.144287,0.393372,0.762817
1480534292205205,-0.492493,-0.144226,0.393188,0.762878
1480534292211221,-0.492249,-0.144043,0.393188,0.763062
1480534292234283,-0.491821,-0.144104,0.393311,0.763306
1480534292256843,-0.49115,-0.144165,0.393433,0.763672
1480534292277899,-0.490601,-0.144226,0.393494,0.763916
1480534292300459,-0.490173,-0.144409,0.393616,0.76416
1480534292324522,-0.489746,-0.144592,0.393738,0.764343
1480534292339563,-0.48938,-0.144714,0.393738,0.764526
1480534292355605,-0.489197,-0.144836,0.393677,0.764648
1480534292384181,-0.489197,-0.144775,0.393616,0.764709
1480534292397718,-0.489197,-0.144775,0.393616,0.764709
1480534292414261,-0.489258,-0.144775,0.393616,0.764648
1480534292436821,-0.489502,-0.144653,0.393433,0.764648
1480534292457877,-0.489685,-0.14447,0.39325,0.764648
1480534292474421,-0.489746,-0.144226,0.393127,0.764709
1480534292496981,-0.489807,-0.144043,0.393066,0.764709
1480534292518037,-0.490112,-0.143799,0.393127,0.764526
1480534292534080,-0.490112,-0.143799,0.393127,0.764526
1480534292556640,-0.490173,-0.143799,0.393127,0.764526
1480534292577696,-0.48999,-0.143677,0.393188,0.764648
1480534292602762,-0.489624,-0.143311,0.393311,0.764893
1480534292616802,-0.48938,-0.143066,0.393433,0.765015
1480534292646880,-0.489136,-0.143005,0.393494,0.765137
1480534292654404,-0.48877,-0.143188,0.393433,0.76532
1480534292682981,-0.488464,-0.143311,0.393433,0.765564
1480534292698016,-0.488098,-0.143494,0.393616,0.765625
1480534292714561,-0.488037,-0.143921,0.393921,0.765442
1480534292736619,-0.487732,-0.144104,0.394104,0.765503
1480534292757674,-0.488098,-0.144165,0.394409,0.765137
1480534292774220,-0.488586,-0.143921,0.394714,0.764648
1480534292796778,-0.489685,-0.143311,0.394775,0.764038
1480534292819338,-0.490906,-0.142578,0.394409,0.763611
1480534292834380,-0.491516,-0.141724,0.394226,0.763489
1480534292857440,-0.492126,-0.141357,0.394104,0.763184
1480534292878997,-0.492432,-0.141296,0.394287,0.762939
1480534292900555,-0.492493,-0.141235,0.394592,0.762756
1480534292917099,-0.492615,-0.141235,0.394836,0.762512
1480534292939158,-0.49292,-0.141479,0.394958,0.762207
1480534292953696,-0.493225,-0.141602,0.395142,0.761902
1480534292977259,-0.493225,-0.141602,0.395447,0.76178
1480534292999321,-0.493042,-0.141602,0.395569,0.76178
1480534293014859,-0.492493,-0.141602,0.395569,0.762146
1480534293044438,-0.491821,-0.141418,0.395569,0.762634
1480534293059478,-0.490784,-0.140564,0.395874,0.763306
1480534293073515,-0.489197,-0.139648,0.395996,0.764404
1480534293096576,-0.487,-0.138428,0.396362,0.765869
1480534293134678,-0.485657,-0.137451,0.396606,0.766785
1480534293137184,-0.484924,-0.136719,0.396362,0.767456
1480534293170272,-0.485168,-0.136536,0.39563,0.767761
1480534293179297,-0.485535,-0.136353,0.394653,0.768066
1480534293193835,-0.486023,-0.136108,0.393372,0.768433
1480534293216896,-0.486633,-0.135742,0.392273,0.768677
1480534293239456,-0.487122,-0.135376,0.391357,0.76886
1480534293260512,-0.487427,-0.135376,0.390747,0.769043
1480534293276555,-0.486755,-0.134949,0.390259,0.769775
1480534293300117,-0.486328,-0.134277,0.389832,0.770386
1480534293320171,-0.486389,-0.133972,0.389099,0.770752
1480534293336715,-0.486145,-0.134033,0.388367,0.771301
1480534293365292,-0.485474,-0.134094,0.387756,0.771973
1480534293380832,-0.485046,-0.134216,0.38739,0.7724
1480534293396875,-0.485107,-0.134644,0.387207,0.7724
1480534293419435,-0.484924,-0.135254,0.387085,0.772461
1480534293440493,-0.48468,-0.135437,0.387146,0.772522
1480534293456533,-0.484375,-0.135376,0.387451,0.772583
1480534293479093,-0.484253,-0.135376,0.387817,0.772522
1480534293507670,-0.484253,-0.135437,0.388245,0.772278
1480534293516694,-0.484375,-0.13562,0.388733,0.771912
1480534293539253,-0.484314,-0.135742,0.389404,0.771606
1480534293560812,-0.484375,-0.135986,0.390137,0.771118
1480534293576853,-0.484436,-0.136108,0.390747,0.770752
1480534293598915,-0.484497,-0.136108,0.391418,0.770386
1480534293620469,-0.485107,-0.136047,0.391968,0.769775
1480534293637013,-0.48584,-0.135803,0.391846,0.769348
1480534293659072,-0.486877,-0.135132,0.391968,0.768738
1480534293687648,-0.48822,-0.135193,0.392273,0.767761
1480534293696673,-0.489319,-0.13562,0.3927,0.766785
1480534293719232,-0.490234,-0.135864,0.39325,0.765869
1480534293742294,-0.490784,-0.136047,0.393738,0.765198
1480534293758336,-0.491455,-0.136169,0.394104,0.764587
1480534293779894,-0.492432,-0.136292,0.394348,0.763794
1480534293801953,-0.493652,-0.136658,0.39447,0.762878
1480534293816993,-0.494629,-0.136963,0.394531,0.762146
1480534293839051,-0.495239,-0.136963,0.394897,0.761597
1480534293861611,-0.49585,-0.137146,0.395386,0.760864
1480534293882669,-0.496399,-0.137146,0.396057,0.760193
1480534293900215,-0.496704,-0.136902,0.39679,0.759644
1480534293921771,-0.497559,-0.136902,0.397034,0.758972
1480534293936310,-0.499268,-0.136108,0.396729,0.758179
1480534293958870,-0.501892,-0.135315,0.396057,0.756897
1480534293989451,-0.504578,-0.134949,0.395874,0.755249
1480534294003020,-0.507141,-0.13501,0.39502,0.753967
1480534294019030,-0.509827,-0.134949,0.393738,0.752869
1480534294041590,-0.511475,-0.134399,0.393433,0.752014
1480534294057131,-0.512146,-0.134338,0.393921,0.751282
1480534294079190,-0.511902,-0.134705,0.394714,0.750977
1480534294101750,-0.510437,-0.134827,0.395874,0.751343
1480534294122806,-0.508545,-0.134766,0.397644,0.751709
1480534294139350,-0.50592,-0.134521,0.400024,0.752258
1480534294162411,-0.503418,-0.134827,0.401672,0.752991
1480534294182970,-0.501587,-0.13501,0.402893,0.75354
1480534294199511,-0.500549,-0.13562,0.403503,0.753784
1480534294223574,-0.499695,-0.135925,0.403809,0.754089
1480534294243627,-0.499084,-0.136658,0.403809,0.754395
1480534294266690,-0.498657,-0.137329,0.403809,0.754578
1480534294281729,-0.498108,-0.137573,0.403687,0.754944
1480534294302785,-0.497437,-0.137878,0.403503,0.755432
1480534294319328,-0.497314,-0.138489,0.40332,0.755493
1480534294349414,-0.496948,-0.139038,0.403137,0.755737
1480534294362945,-0.496399,-0.139465,0.402893,0.756165
1480534294385505,-0.495667,-0.139771,0.402588,0.756714
1480534294402050,-0.494934,-0.140259,0.402344,0.757263
1480534294422603,-0.494202,-0.140625,0.402283,0.757751
1480534294439147,-0.493042,-0.140686,0.402344,0.758423
1480534294461708,-0.491882,-0.140625,0.402527,0.759094
1480534294484268,-0.490845,-0.140625,0.402771,0.759644
1480534294499310,-0.490051,-0.140747,0.402954,0.760071
1480534294521867,-0.489197,-0.140869,0.402954,0.760498
1480534294544429,-0.48822,-0.141052,0.402954,0.761108
1480534294560972,-0.487244,-0.141235,0.402893,0.76178
1480534294583532,-0.486145,-0.141479,0.402893,0.76239
1480534294603084,-0.484924,-0.141785,0.402893,0.763184
1480534294619126,-0.483643,-0.142151,0.40271,0.763977
1480534294641686,-0.482666,-0.142456,0.402405,0.764709
1480534294664748,-0.481995,-0.142761,0.402222,0.765198
1480534294679286,-0.482056,-0.144409,0.401733,0.765076
1480534294702852,-0.483215,-0.148438,0.401245,0.763855
1480534294724406,-0.48584,-0.154541,0.400574,0.761292
1480534294744961,-0.488647,-0.159302,0.400208,0.758728
1480534294762006,-0.489929,-0.161621,0.400269,0.757385
1480534294784065,-0.489258,-0.162109,0.400574,0.757568
1480534294800610,-0.488037,-0.16217,0.400635,0.758301
1480534294823168,-0.487488,-0.162537,0.400452,0.758667
1480534294853249,-0.487915,-0.163635,0.399963,0.758362
1480534294858764,-0.489014,-0.165283,0.399414,0.757629
1480534294882329,-0.490051,-0.167542,0.399048,0.756653
1480534294904886,-0.490784,-0.169617,0.398804,0.755859
1480534294918422,-0.490967,-0.170715,0.398926,0.755371
1480534294943489,-0.491516,-0.172241,0.398804,0.754761
1480534294964044,-0.493408,-0.175171,0.398071,0.753235
1480534294969558,-0.49707,-0.179016,0.396851,0.750549
1480534294990113,-0.501587,-0.183228,0.395142,0.747437
1480534295007158,-0.506653,-0.188782,0.391907,0.744324
1480534295040246,-0.512634,-0.194641,0.387573,0.740967
1480534295052278,-0.518494,-0.199585,0.384521,0.737183
1480534295068822,-0.523621,-0.202942,0.382751,0.733582
1480534295089878,-0.527039,-0.204041,0.381775,0.731323
1480534295114947,-0.528625,-0.203857,0.381226,0.73053
1480534295126977,-0.52887,-0.203125,0.381226,0.73053
1480534295152046,-0.52887,-0.202454,0.381653,0.73053
1480534295172097,-0.529358,-0.202148,0.38208,0.730042
1480534295188641,-0.530457,-0.201538,0.381836,0.729492
1480534295209697,-0.532227,-0.19989,0.38092,0.729126
1480534295232260,-0.533386,-0.197571,0.380859,0.728943
1480534295247297,-0.533203,-0.196411,0.382446,0.728577
1480534295277377,-0.532227,-0.197083,0.384644,0.727905
1480534295292417,-0.529846,-0.198669,0.386414,0.728333
1480534295306959,-0.526245,-0.200195,0.388611,0.72937
1480534295346060,-0.522888,-0.20282,0.390991,0.729736
1480534295352075,-0.519775,-0.206482,0.392944,0.729919
1480534295392183,-0.516541,-0.21051,0.394104,0.730469
1480534295397195,-0.513367,-0.214966,0.394287,0.731262
1480534295412737,-0.510498,-0.219971,0.393738,0.732056
1480534295427275,-0.507568,-0.225586,0.392639,0.732971
1480534295457356,-0.504456,-0.232056,0.391541,0.733704
1480534295472396,-0.501709,-0.238647,0.390381,0.734131
1480534295487435,-0.499329,-0.245056,0.388855,0.734436
1480534295509494,-0.497986,-0.249817,0.387573,0.734436
1480534295533559,-0.497131,-0.252625,0.386841,0.734375
1480534295550604,-0.497192,-0.25415,0.386536,0.734009
1480534295577175,-0.497803,-0.254517,0.38678,0.733337
1480534295592215,-0.498169,-0.254578,0.387512,0.732666
1480534295607254,-0.498352,-0.255371,0.38855,0.73175
1480534295629814,-0.49823,-0.257385,0.389648,0.73053
1480534295660897,-0.497375,-0.260254,0.390564,0.729614
1480534295667416,-0.495728,-0.26355,0.391113,0.729248
1480534295697996,-0.49292,-0.26709,0.391357,0.729736
1480534295712034,-0.489624,-0.269897,0.391541,0.730835
1480534295727073,-0.486328,-0.271362,0.391907,0.7323
1480534295749633,-0.483093,-0.271729,0.392639,0.733826
1480534295772193,-0.480957,-0.270996,0.393494,0.735107
1480534295787233,-0.47937,-0.269531,0.394287,0.736206
1480534295812801,-0.478027,-0.267944,0.395142,0.737244
1480534295834860,-0.476379,-0.266541,0.39624,0.73822
1480534295854913,-0.474609,-0.264526,0.397766,0.739258
1480534295869452,-0.473145,-0.262024,0.399963,0.739929
1480534295900535,-0.472534,-0.259888,0.401917,0.740051
1480534295908556,-0.472656,-0.258667,0.403198,0.739624
1480534295938636,-0.473083,-0.258118,0.404236,0.739014
1480534295952172,-0.473572,-0.257385,0.40509,0.738464
1480534295968717,-0.474792,-0.256409,0.405762,0.737671
1480534295989788,-0.476501,-0.255127,0.406189,0.736755
1480534296015843,-0.477844,-0.253784,0.406433,0.736206
1480534296027372,-0.479248,-0.252197,0.407166,0.735474
1480534296049432,-0.480652,-0.25116,0.407715,0.734619
1480534296081016,-0.481812,-0.250366,0.40802,0.733948
1480534296087030,-0.482544,-0.249695,0.408691,0.733337
1480534296111096,-0.482849,-0.249512,0.409668,0.732605
1480534296135159,-0.483521,-0.249512,0.410583,0.731689
1480534296148697,-0.484253,-0.249573,0.411621,0.73053
1480534296185794,-0.484619,-0.249695,0.412842,0.729614
1480534296192311,-0.484741,-0.249878,0.414307,0.728638
1480534296210860,-0.484863,-0.250305,0.415466,0.727722
1480534296229913,-0.484741,-0.250671,0.415955,0.727417
1480534296251970,-0.484131,-0.250732,0.416443,0.727539
1480534296268513,-0.483582,-0.250793,0.417236,0.727417
1480534296291073,-0.483398,-0.250488,0.417969,0.727234
1480534296328673,-0.483704,-0.249817,0.418213,0.727112
1480534296343713,-0.484131,-0.248962,0.418152,0.727173
1480534296351233,-0.484436,-0.248474,0.418091,0.727112
1480534296383319,-0.484863,-0.248047,0.418091,0.72699
1480534296388834,-0.485046,-0.247192,0.418152,0.727173
1480534296412399,-0.485229,-0.246216,0.417847,0.727539
1480534296432449,-0.485596,-0.245361,0.417236,0.727905
1480534296451508,-0.485657,-0.244263,0.416809,0.728455
1480534296469557,-0.485657,-0.243042,0.416626,0.729004
1480534296492108,-0.485901,-0.242004,0.416626,0.729187
1480534296508653,-0.486389,-0.241455,0.416443,0.729126
1480534296529708,-0.487061,-0.240906,0.416321,0.728943
1480534296552769,-0.48761,-0.240051,0.416443,0.728821
1480534296570316,-0.48761,-0.239258,0.416931,0.728821
1480534296589868,-0.487793,-0.238647,0.417175,0.728699
1480534296620449,-0.488159,-0.237671,0.417419,0.728638
1480534296629975,-0.48877,-0.236389,0.417664,0.728516
1480534296649526,-0.489319,-0.234985,0.417664,0.728577
1480534296672087,-0.489929,-0.233459,0.417725,0.728638
1480534296704172,-0.490784,-0.23175,0.417847,0.728577
1480534296709686,-0.49176,-0.230408,0.417786,0.728394
1480534296732748,-0.492676,-0.22937,0.41748,0.72821
1480534296765336,-0.493347,-0.22821,0.417236,0.728271
1480534296785890,-0.493713,-0.22699,0.417114,0.728516
1480534296791906,-0.493835,-0.225952,0.416931,0.728821
1480534296810956,-0.493713,-0.225098,0.416931,0.729187
1480534296829506,-0.49353,-0.224487,0.416992,0.729492
1480534296852068,-0.493042,-0.223999,0.417175,0.729858
1480534296870113,-0.492371,-0.223511,0.417542,0.730225
1480534296889667,-0.491821,-0.223206,0.417969,0.730469
1480534296921250,-0.491272,-0.222961,0.418518,0.730591
1480534296934786,-0.490601,-0.222656,0.419067,0.730835
1480534296949825,-0.490051,-0.222229,0.419434,0.73114
1480534296981410,-0.489502,-0.22168,0.419495,0.731628
1480534296994444,-0.489502,-0.220886,0.41925,0.731995
1480534297010988,-0.489746,-0.219971,0.418945,0.732239
1480534297042572,-0.489929,-0.218994,0.41864,0.732605
1480534297054604,-0.490112,-0.218018,0.418213,0.733032
1480534297069644,-0.490295,-0.217041,0.417725,0.733521
1480534297092204,-0.490662,-0.216003,0.417236,0.733826
1480534297139831,-0.490967,-0.215027,0.416931,0.73407
1480534297142337,-0.490723,-0.214111,0.416626,0.73468
1480534297159884,-0.490234,-0.213074,0.416565,0.735352
1480534297174925,-0.48999,-0.212219,0.416565,0.735718
1480534297197485,-0.489868,-0.211731,0.416382,0.736023
1480534297216035,-0.489929,-0.211609,0.416138,0.736206
1480534297242605,-0.48999,-0.211304,0.415955,0.736389
1480534297251127,-0.490173,-0.210999,0.41571,0.73645
1480534297272183,-0.49054,-0.210754,0.415344,0.736511
1480534297294743,-0.490906,-0.21051,0.414734,0.736633
1480534297318807,-0.491516,-0.210327,0.414124,0.736694
1480534297332343,-0.49231,-0.210205,0.413269,0.736633
1480534297358412,-0.493225,-0.210022,0.412231,0.736694
1480534297370946,-0.493958,-0.209839,0.411438,0.736633
1480534297392002,-0.494202,-0.2099,0.410828,0.736755
1480534297414563,-0.493958,-0.209961,0.410645,0.737061
1480534297431108,-0.493286,-0.210022,0.410889,0.737366
1480534297452162,-0.492249,-0.210388,0.411316,0.737671
1480534297474722,-0.491272,-0.210938,0.411987,0.737854
1480534297492770,-0.490479,-0.211487,0.412476,0.737976
1480534297512324,-0.48999,-0.211853,0.412842,0.737915
1480534297534882,-0.489929,-0.212097,0.413147,0.737732
1480534297552930,-0.489868,-0.212341,0.41333,0.73761
1480534297571980,-0.48999,-0.212341,0.413452,0.737488
1480534297611586,-0.490295,-0.212097,0.413757,0.737183
1480534297614093,-0.490784,-0.211731,0.41394,0.736816
1480534297632143,-0.491394,-0.211243,0.414001,0.736511
1480534297654700,-0.492065,-0.21051,0.41394,0.736328
1480534297672749,-0.492554,-0.209595,0.413879,0.736328
1480534297692301,-0.492981,-0.208618,0.413879,0.736328
1480534297714864,-0.493591,-0.207764,0.413757,0.736206
1480534297732407,-0.494263,-0.206909,0.413513,0.736145
1480534297754967,-0.49469,-0.205994,0.413391,0.736145
1480534297776024,-0.495178,-0.205078,0.41333,0.736145
1480534297797080,-0.495544,-0.204407,0.413208,0.736145
1480534297812120,-0.495667,-0.203674,0.413208,0.736206
1480534297834679,-0.495605,-0.203125,0.413452,0.736328
1480534297855735,-0.495178,-0.202637,0.413879,0.73645
1480534297879800,-0.494812,-0.202271,0.414429,0.736511
1480534297902360,-0.494507,-0.202026,0.414978,0.736511
1480534297912386,-0.493958,-0.201904,0.415588,0.736511
1480534297931938,-0.493225,-0.201904,0.416321,0.736633
1480534297954497,-0.492737,-0.202148,0.416748,0.736633
1480534297972546,-0.492371,-0.202271,0.417114,0.736633
1480534297994105,-0.492188,-0.202576,0.417236,0.736633
1480534298031203,-0.492249,-0.202576,0.417236,0.736572
1480534298040226,-0.49231,-0.202576,0.417236,0.736572
1480534298069303,-0.49231,-0.202576,0.417236,0.736511
1480534298074818,-0.492126,-0.202454,0.417114,0.736755
1480534298092365,-0.491821,-0.202393,0.416992,0.737061
1480534298111916,-0.491638,-0.202515,0.416809,0.737244
1480534298141997,-0.491577,-0.202515,0.416687,0.737366
1480534298152525,-0.491577,-0.202454,0.416748,0.737366
1480534298179597,-0.491394,-0.202637,0.416809,0.737366
1480534298194637,-0.491394,-0.202637,0.416809,0.737366
1480534298212685,-0.491455,-0.202637,0.416809,0.737366
1480534298233741,-0.491455,-0.202637,0.416748,0.737366
1480534298271842,-0.491455,-0.202637,0.416748,0.737366
1480534298273848,-0.491699,-0.202881,0.416748,0.737183
1480534298294403,-0.491882,-0.203308,0.416443,0.737061
1480534298322477,-0.492371,-0.203735,0.415833,0.737
1480534298333005,-0.49292,-0.203735,0.414856,0.737122
1480534298361080,-0.493591,-0.203735,0.414124,0.737061
1480534298390658,-0.494141,-0.204163,0.41394,0.736755
1480534298398680,-0.49353,-0.204285,0.414063,0.737061
1480534298415226,-0.492126,-0.203979,0.414429,0.737793
1480534298444301,-0.491028,-0.203979,0.415039,0.73822
1480534298457337,-0.48999,-0.204407,0.415649,0.738464
1480534298474883,-0.488953,-0.204895,0.416138,0.73877
1480534298494434,-0.488098,-0.205322,0.41626,0.739136
1480534298524514,-0.487732,-0.205627,0.416138,0.739319
1480534298539554,-0.487854,-0.205811,0.416077,0.739258
1480534298554595,-0.488037,-0.206177,0.416016,0.739075
1480534298594199,-0.488037,-0.206177,0.415955,0.739075
1480534298596706,-0.488098,-0.206238,0.415955,0.739014
1480534298614762,-0.488098,-0.205994,0.415833,0.739197
1480534298639822,-0.488159,-0.205566,0.41571,0.739319
1480534298655863,-0.488403,-0.205261,0.415527,0.739319
1480534298683437,-0.488831,-0.204956,0.415405,0.739197
1480534298705997,-0.489136,-0.204773,0.415344,0.739136
1480534298737079,-0.489075,-0.204468,0.415283,0.739258
1480534298742093,-0.488953,-0.204102,0.415283,0.739441
1480534298757132,-0.488831,-0.203857,0.415405,0.739502
1480534298775188,-0.488586,-0.203674,0.415588,0.739624
1480534298803757,-0.488342,-0.203491,0.415833,0.739685
1480534298817293,-0.488098,-0.20343,0.416199,0.739685
1480534298843362,-0.488098,-0.20343,0.416565,0.739502
1480534298857400,-0.488037,-0.203674,0.416748,0.739319
1480534298884471,-0.487854,-0.203857,0.416992,0.739258
1480534298895004,-0.487671,-0.203979,0.417114,0.739319
1480534298914559,-0.48761,-0.204102,0.417175,0.739258
1480534298937117,-0.48761,-0.204224,0.417236,0.739197
1480534298962684,-0.487488,-0.204407,0.417175,0.739258
1480534298985746,-0.487549,-0.204407,0.417175,0.739197
1480534299004796,-0.487549,-0.204407,0.417175,0.739197
1480534299015325,-0.48761,-0.204407,0.417175,0.739197
1480534299034875,-0.48761,-0.204468,0.417175,0.739136
1480534299057436,-0.487671,-0.204468,0.417175,0.739136
1480534299079494,-0.487732,-0.204468,0.417114,0.739136
1480534299103558,-0.487976,-0.204224,0.417053,0.739075
1480534299118598,-0.487976,-0.203857,0.417053,0.739197
1480534299136149,-0.487976,-0.203552,0.416931,0.739319
1480534299156198,-0.487854,-0.203247,0.416931,0.739502
1480534299177254,-0.487793,-0.202942,0.41687,0.739624
1480534299195302,-0.487671,-0.202698,0.416809,0.739807
1480534299216359,-0.487427,-0.202515,0.416748,0.740112
1480534299237415,-0.487366,-0.202332,0.416687,0.740173
1480534299284038,-0.487366,-0.202271,0.416565,0.740295
1480534299292060,-0.487366,-0.202271,0.416565,0.740295
1480534299304593,-0.487183,-0.202454,0.416748,0.740234
1480534299315624,-0.487,-0.202759,0.416931,0.740173
1480534299336221,-0.486816,-0.203003,0.417053,0.740173
1480534299357234,-0.486328,-0.203064,0.417175,0.740417
1480534299397845,-0.486084,-0.203125,0.417236,0.740479
1480534299402353,-0.486145,-0.203125,0.417236,0.740479
1480534299417393,-0.486145,-0.203125,0.417236,0.740417
1480534299434940,-0.486145,-0.203308,0.417297,0.740356
1480534299457500,-0.486023,-0.203491,0.417358,0.740356
1480534299478556,-0.48584,-0.203796,0.417419,0.740356
1480534299495100,-0.485779,-0.204102,0.41748,0.740295
1480534299517660,-0.485352,-0.204285,0.417664,0.740417
1480534299540220,-0.485046,-0.204346,0.417725,0.740601
1480534299555260,-0.485046,-0.204285,0.417725,0.74054
1480534299577820,-0.485046,-0.20459,0.417786,0.740479
1480534299597372,-0.484558,-0.204834,0.41803,0.740601
1480534299614920,-0.483887,-0.205139,0.418152,0.740845
1480534299637479,-0.483459,-0.205444,0.418335,0.740967
1480534299673073,-0.482971,-0.20575,0.418457,0.741089
1480534299688614,-0.482422,-0.205994,0.418701,0.741272
1480534299697644,-0.482178,-0.206299,0.418945,0.741211
1480534299734738,-0.481873,-0.206482,0.419006,0.741333
1480534299738246,-0.481567,-0.206543,0.419128,0.741394
1480534299757798,-0.481262,-0.206726,0.41925,0.741516
1480534299777351,-0.48114,-0.206848,0.419373,0.741516
1480534299796903,-0.480896,-0.206848,0.419312,0.741699
1480534299817958,-0.480713,-0.206665,0.419189,0.741943
1480534299837009,-0.480408,-0.206482,0.419067,0.742188
1480534299855058,-0.480347,-0.206482,0.419006,0.74231
1480534299877618,-0.480286,-0.20636,0.418945,0.742432
1480534299898177,-0.480347,-0.206055,0.418762,0.742554
1480534299919729,-0.480103,-0.20575,0.418579,0.74292
1480534299953820,-0.47998,-0.205566,0.418457,0.743103
1480534299960337,-0.480469,-0.205322,0.418335,0.74292
1480534299987409,-0.480896,-0.205139,0.417908,0.742981
1480534299998438,-0.480957,-0.204773,0.417419,0.743286
1480534300019996,-0.481201,-0.204285,0.416809,0.743652
1480534300039548,-0.481384,-0.203796,0.41626,0.743958
1480534300057597,-0.481445,-0.203186,0.415894,0.744263
1480534300110738,-0.481628,-0.202515,0.415466,0.744568
1480534300117255,-0.481873,-0.201965,0.415039,0.744812
1480534300122268,-0.482239,-0.201477,0.414734,0.744873
1480534300138812,-0.482239,-0.200928,0.414429,0.745178
1480534300160370,-0.482239,-0.200378,0.414063,0.745544
1480534300178417,-0.482483,-0.200073,0.413818,0.745605
1480534300213511,-0.482666,-0.199951,0.413635,0.745605
1480534300227047,-0.482605,-0.199707,0.413513,0.745789
1480534300267655,-0.482422,-0.199646,0.413391,0.745972
1480534300270162,-0.482422,-0.199646,0.413391,0.745972
1480534300287207,-0.482422,-0.199585,0.413391,0.745972
1480534300302247,-0.482422,-0.199585,0.413391,0.745972
1480534300320295,-0.482483,-0.199585,0.413391,0.745972
1480534300340348,-0.482422,-0.199707,0.413391,0.745972
1480534300370930,-0.482361,-0.199585,0.413391,0.746033
1480534300379956,-0.4823,-0.199524,0.413391,0.746094
1480534300407026,-0.4823,-0.199463,0.413391,0.746094
1480534300423569,-0.482666,-0.199585,0.413391,0.74585
1480534300441116,-0.482727,-0.199585,0.41333,0.74585
1480534300467186,-0.482666,-0.19928,0.413452,0.745911
1480534300477713,-0.482666,-0.19928,0.413452,0.745911
1480534300507794,-0.482727,-0.19928,0.413452,0.74585
1480534300524338,-0.482849,-0.199097,0.41333,0.745911
1480534300542385,-0.482788,-0.198792,0.413147,0.746094
1480534300559932,-0.482727,-0.198608,0.413086,0.746216
1480534300579484,-0.482727,-0.198608,0.413086,0.746216
1480534300609565,-0.482788,-0.198608,0.413086,0.746216
1480534300620092,-0.482727,-0.198608,0.413086,0.746216
1480534300647165,-0.482788,-0.198608,0.413086,0.746155
1480534300657692,-0.482788,-0.198608,0.413086,0.746155
1480534300680759,-0.482849,-0.198608,0.413086,0.746155
1480534300701309,-0.482788,-0.198486,0.413208,0.746155
1480534300717350,-0.482605,-0.198303,0.413208,0.746338
1480534300739911,-0.482605,-0.198303,0.413208,0.746277
1480534300759462,-0.482666,-0.198303,0.413208,0.746277
1480534300785031,-0.482666,-0.198303,0.413208,0.746277
1480534300810599,-0.482544,-0.19812,0.413208,0.746399
1480534300819623,-0.482422,-0.197876,0.413269,0.746521
1480534300849703,-0.482483,-0.197876,0.413269,0.74646
1480534300860231,-0.482544,-0.197876,0.413269,0.74646
1480534300879783,-0.482544,-0.197937,0.413269,0.74646
1480534300899341,-0.482605,-0.197632,0.413086,0.746521
1480534300943954,-0.482849,-0.197327,0.412903,0.746582
1480534300956488,-0.483093,-0.197083,0.412781,0.746582
1480534300958994,-0.483398,-0.196777,0.412415,0.746643
1480534300980050,-0.483582,-0.196411,0.41217,0.746765
1480534301016647,-0.483643,-0.196411,0.41217,0.746765
1480534301019154,-0.483887,-0.196289,0.412109,0.746643
1480534301046226,-0.484131,-0.196106,0.411804,0.746704
1480534301064276,-0.484192,-0.19574,0.411804,0.746765
1480534301085330,-0.484192,-0.195496,0.411621,0.746887
1480534301109895,-0.484192,-0.195496,0.411621,0.746887
1480534301137970,-0.484436,-0.195862,0.411682,0.746643
1480534301141981,-0.484314,-0.195984,0.411804,0.746582
1480534301160028,-0.48407,-0.195984,0.412109,0.746582
1480534301181088,-0.483887,-0.19635,0.412292,0.746521
1480534301205149,-0.483948,-0.196655,0.412476,0.746277
1480534301221191,-0.483826,-0.196838,0.412659,0.746216
1480534301241244,-0.48407,-0.197083,0.412537,0.746094
1480534301259292,-0.484131,-0.197083,0.412537,0.746033
1480534301279848,-0.484009,-0.197144,0.412537,0.746094
1480534301302711,-0.48407,-0.197144,0.412537,0.746033
1480534301332487,-0.483887,-0.19696,0.412598,0.746155
1480534301341010,-0.483582,-0.196838,0.412659,0.746338
1480534301363575,-0.483521,-0.197021,0.412781,0.746338
1480534301383122,-0.483704,-0.197083,0.412903,0.746094
1480534301404679,-0.483704,-0.197144,0.412964,0.746033
1480534301423730,-0.483398,-0.197327,0.412903,0.746216
1480534301442279,-0.483154,-0.197388,0.412964,0.746338
1480534301459826,-0.483215,-0.197388,0.412964,0.746277
1480534301482887,-0.483276,-0.19751,0.413086,0.746155
1480534301509458,-0.483276,-0.19751,0.413086,0.746155
1480534301520487,-0.483337,-0.19751,0.413086,0.746155
1480534301542546,-0.483398,-0.19751,0.413086,0.746094
1480534301578141,-0.483398,-0.19751,0.413086,0.746094
1480534301593682,-0.483398,-0.197571,0.413086,0.746094
1480534301603207,-0.483398,-0.19751,0.413086,0.746094
1480534301639805,-0.483459,-0.19751,0.413086,0.746033
1480534301645320,-0.483459,-0.19751,0.413086,0.746033
1480534301661863,-0.483459,-0.19751,0.413086,0.746033
1480534301684925,-0.483521,-0.19751,0.413086,0.746033
1480534301699965,-0.483521,-0.19751,0.413086,0.746033
1480534301727538,-0.483521,-0.19751,0.413086,0.746033
1480534301743581,-0.483398,-0.197327,0.413208,0.746094
1480534301759624,-0.483398,-0.197327,0.413208,0.746033
1480534301795719,-0.483582,-0.19751,0.413391,0.745789
1480534301810258,-0.483704,-0.197571,0.413574,0.745605
1480534301819282,-0.483704,-0.197571,0.413574,0.745605
1480534301849362,-0.483704,-0.197571,0.413574,0.745605
1480534301863902,-0.483765,-0.197571,0.413574,0.745544
1480534301881450,-0.484436,-0.197632,0.413208,0.7453
1480534301917544,-0.484619,-0.197571,0.412598,0.745544
1480534301923560,-0.486572,-0.19751,0.41156,0.744873
1480534301940606,-0.489136,-0.19696,0.410706,0.743835
1480534301961661,-0.492065,-0.196777,0.410706,0.741943
1480534301983219,-0.493286,-0.197021,0.410889,0.740906
1480534302000766,-0.493225,-0.196899,0.410828,0.741028
1480534302022322,-0.493591,-0.196411,0.4104,0.74115
1480534302042877,-0.493652,-0.195984,0.410217,0.741333
1480534302058920,-0.49353,-0.19574,0.410522,0.741333
1480534302087996,-0.493164,-0.19574,0.411133,0.741211
1480534302110056,-0.492798,-0.195984,0.411804,0.741028
1480534302120082,-0.49231,-0.196228,0.412659,0.740845
1480534302141641,-0.491638,-0.196716,0.413574,0.740601
1480534302162695,-0.490784,-0.197144,0.414368,0.740601
1480534302194280,-0.489929,-0.197632,0.414917,0.740723
1480534302201801,-0.489075,-0.197937,0.415405,0.740967
1480534302222855,-0.48877,-0.197998,0.415649,0.741028
1480534302239400,-0.489136,-0.198242,0.415771,0.740662
1480534302261458,-0.489624,-0.198425,0.41571,0.740295
1480534302290034,-0.489929,-0.198486,0.415771,0.740051
1480534302315101,-0.489929,-0.198608,0.415894,0.739929
1480534302329140,-0.489746,-0.198792,0.416077,0.739929
1480534302351698,-0.489502,-0.198853,0.416321,0.739929
1480534302374760,-0.48938,-0.199036,0.416565,0.739807
1480534302381780,-0.489075,-0.199219,0.416809,0.739868
1480534302404339,-0.489136,-0.199219,0.416748,0.739807
1480534302419378,-0.489136,-0.199219,0.416931,0.739746
1480534302441938,-0.489014,-0.19928,0.417114,0.739685
1480534302472018,-0.488953,-0.19928,0.417358,0.739624
1480534302478536,-0.489014,-0.199463,0.417603,0.73938
1480534302501598,-0.48877,-0.199524,0.417847,0.73938
1480534302524157,-0.488281,-0.199402,0.418274,0.739441
1480534302538698,-0.488037,-0.199463,0.418762,0.73938
1480534302567775,-0.487976,-0.199585,0.41925,0.739136
1480534302591837,-0.488037,-0.199829,0.419617,0.73877
1480534302598354,-0.487976,-0.19989,0.419861,0.738647
1480534302645480,-0.487976,-0.19989,0.419861,0.738647
1480534302650493,-0.487976,-0.19989,0.419861,0.738647
1480534302667540,-0.488525,-0.199768,0.419739,0.738403
1480534302690098,-0.489014,-0.199402,0.419617,0.73822
1480534302704136,-0.489624,-0.199158,0.419373,0.738037
1480534302725192,-0.490051,-0.199097,0.419312,0.737793
1480534302749757,-0.490051,-0.199097,0.41925,0.737793
1480534302765299,-0.490112,-0.198914,0.41925,0.737854
1480534302792872,-0.490173,-0.198547,0.419312,0.737854
1480534302801898,-0.490601,-0.198303,0.419128,0.737793
1480534302824456,-0.490967,-0.197998,0.418945,0.737671
1480534302847018,-0.490906,-0.197876,0.419067,0.737732
1480534302862056,-0.490601,-0.197876,0.419067,0.737915
1480534302884114,-0.49054,-0.197754,0.419067,0.738037
1480534302907176,-0.490417,-0.197632,0.419006,0.738159
1480534302921715,-0.490112,-0.197449,0.418945,0.738403
1480534302944275,-0.489624,-0.197266,0.419006,0.73877
1480534302966835,-0.489136,-0.197266,0.418884,0.739197
1480534302981876,-0.488953,-0.197083,0.418701,0.739441
1480534303004434,-0.489258,-0.196777,0.418518,0.73938
1480534303026994,-0.489258,-0.196899,0.418396,0.739441
1480534303042537,-0.488892,-0.197083,0.418091,0.739807
1480534303064096,-0.488098,-0.196777,0.417969,0.740479
1480534303085149,-0.487488,-0.196655,0.417969,0.740906
1480534303102695,-0.487488,-0.196655,0.417664,0.741089
1480534303125758,-0.487976,-0.19635,0.417542,0.740906
1480534303145309,-0.488159,-0.196411,0.417236,0.740906
1480534303184915,-0.488037,-0.19635,0.417236,0.741089
1480534303190429,-0.487671,-0.196228,0.417358,0.741272
1480534303205469,-0.487305,-0.196228,0.417419,0.741455
1480534303228029,-0.487305,-0.196228,0.417419,0.741455
1480534303244072,-0.487061,-0.196106,0.417419,0.741638
1480534303272648,-0.487,-0.196045,0.417297,0.74176
1480534303281673,-0.487122,-0.196106,0.417175,0.74176
1480534303311753,-0.487122,-0.196106,0.417175,0.74176
1480534303327294,-0.487183,-0.196106,0.417175,0.741699
1480534303349353,-0.487183,-0.196167,0.417175,0.741699
1480534303364393,-0.487183,-0.196106,0.417175,0.741699
1480534303401491,-0.487244,-0.196106,0.417175,0.741699
1480534303406504,-0.487244,-0.196106,0.417175,0.741638
1480534303424552,-0.487122,-0.196228,0.417297,0.741638
1480534303463157,-0.487183,-0.196228,0.417236,0.741638
1480534303475186,-0.487183,-0.196228,0.417297,0.741638
1480534303492233,-0.487,-0.196289,0.417358,0.741638
1480534303506771,-0.487,-0.19635,0.417358,0.741638
1480534303520810,-0.487061,-0.19635,0.417358,0.741638
1480534303545373,-0.487305,-0.196289,0.417297,0.741516
1480534303584979,-0.487488,-0.196533,0.417236,0.741394
1480534303589491,-0.487732,-0.196716,0.416931,0.741272
1480534303611554,-0.488281,-0.19696,0.416687,0.741028
1480534303634110,-0.488525,-0.197449,0.416565,0.740784
1480534303641128,-0.488892,-0.197632,0.416443,0.740601
1480534303679231,-0.489197,-0.19751,0.41571,0.740845
1480534303694270,-0.491272,-0.197083,0.414429,0.740295
1480534303715326,-0.4953,-0.196289,0.413757,0.73822
1480534303739390,-0.49762,-0.19635,0.414001,0.73645
1480534303746913,-0.49762,-0.197021,0.414246,0.736145
1480534303767966,-0.495667,-0.196472,0.414551,0.737427
1480534303784008,-0.495056,-0.195557,0.414917,0.737915
1480534303807069,-0.494934,-0.195068,0.415039,0.738037
1480534303835145,-0.495667,-0.194824,0.415283,0.737488
1480534303859209,-0.496582,-0.194702,0.415527,0.736755
1480534303874248,-0.496582,-0.194702,0.415527,0.736755
1480534303919869,-0.496582,-0.194702,0.415527,0.736755
1480534303922380,-0.496643,-0.194702,0.415527,0.736755
1480534303935411,-0.496704,-0.194702,0.415527,0.736694
1480534303957970,-0.496399,-0.194641,0.415955,0.736694
1480534303994569,-0.495544,-0.194702,0.416565,0.736877
1480534303999582,-0.494324,-0.195129,0.417297,0.737122
1480534304018131,-0.493042,-0.195557,0.417847,0.73761
1480534304024147,-0.492249,-0.195801,0.418152,0.737854
1480534304048716,-0.491821,-0.196045,0.418213,0.738098
1480534304067762,-0.491638,-0.195923,0.418152,0.73822
1480534304084306,-0.491699,-0.195923,0.418152,0.73822
1480534304106867,-0.491028,-0.195801,0.418274,0.738647
1480534304137448,-0.490417,-0.19574,0.418396,0.738953
1480534304144467,-0.490112,-0.195679,0.418579,0.739136
1480534304168029,-0.489868,-0.19574,0.418884,0.739075
1480534304189086,-0.489502,-0.196106,0.418884,0.739197
1480534304210643,-0.489197,-0.195923,0.419006,0.73938
1480534304226686,-0.489136,-0.195679,0.419006,0.739502
1480534304256766,-0.489197,-0.195679,0.419006,0.739441
1480534304264285,-0.489014,-0.195862,0.418884,0.739624
1480534304294867,-0.488647,-0.19574,0.418823,0.739929
1480534304309406,-0.488403,-0.195618,0.418762,0.740112
1480534304323443,-0.488403,-0.195679,0.418701,0.740173
1480534304347008,-0.488037,-0.195557,0.41864,0.740417
1480534304369066,-0.487793,-0.195679,0.418579,0.740601
1480534304383608,-0.487488,-0.19574,0.418518,0.740845
1480534304416190,-0.487305,-0.19574,0.418518,0.740967
1480534304429225,-0.487122,-0.195801,0.418457,0.741089
1480534304443764,-0.487122,-0.195801,0.418457,0.741089
1480534304474846,-0.487,-0.19574,0.418579,0.74115
1480534304489384,-0.486938,-0.19574,0.41864,0.74115
1480534304511944,-0.486755,-0.195679,0.41864,0.741272
1480534304528488,-0.48645,-0.195618,0.41864,0.741455
1480534304549044,-0.48645,-0.195557,0.41864,0.741516
1480534304571603,-0.486328,-0.195496,0.418762,0.741516
1480534304586643,-0.486145,-0.19574,0.418762,0.741577
1480534304609203,-0.486145,-0.19574,0.418762,0.741577
1480534304630762,-0.485901,-0.195801,0.418762,0.74176
1480534304646806,-0.485962,-0.195801,0.418762,0.741699
1480534304670867,-0.485718,-0.195801,0.418823,0.741821
1480534304692425,-0.485718,-0.195801,0.418823,0.741821
1480534304707465,-0.485779,-0.195801,0.418823,0.74176
1480534304729023,-0.48584,-0.195801,0.418823,0.74176
1480534304751581,-0.48584,-0.195801,0.418762,0.74176
1480534304766622,-0.485718,-0.195679,0.418762,0.741882
1480534304795199,-0.485718,-0.195496,0.41864,0.742004
1480534304811745,-0.48584,-0.195435,0.418335,0.742126
1480534304826782,-0.48584,-0.194946,0.417969,0.742432
1480534304849844,-0.485779,-0.194519,0.417908,0.742676
1480534304870399,-0.485779,-0.194519,0.417908,0.742676
1480534304887443,-0.485779,-0.194458,0.417908,0.742615
1480534304910003,-0.485962,-0.19458,0.417969,0.742432
1480534304930059,-0.48584,-0.195007,0.41803,0.742432
1480534304947107,-0.485291,-0.19519,0.417908,0.742737
1480534304970163,-0.485413,-0.19458,0.417969,0.742859
1480534304997741,-0.485596,-0.19458,0.417725,0.742859
1480534305006763,-0.485901,-0.194885,0.417542,0.742676
1480534305028820,-0.485962,-0.194824,0.417542,0.742676
1480534305059401,-0.485962,-0.194824,0.417542,0.742615
1480534305066921,-0.485962,-0.194824,0.417542,0.742615
1480534305088979,-0.485901,-0.194641,0.417603,0.742737
1480534305128084,-0.485901,-0.194641,0.417603,0.742676
1480534305141118,-0.485962,-0.194641,0.417603,0.742676
1480534305155155,-0.485962,-0.194641,0.417603,0.742676
1480534305171714,-0.485962,-0.194641,0.417603,0.742676
1480534305186741,-0.486023,-0.194641,0.417542,0.742615
1480534305210803,-0.486023,-0.194519,0.417603,0.742615
1480534305247403,-0.48584,-0.194336,0.417664,0.742798
1480534305255924,-0.48584,-0.194092,0.417603,0.742859
1480534305282494,-0.485901,-0.194092,0.417664,0.742859
1480534305297534,-0.485901,-0.194092,0.417664,0.742798
1480534305306057,-0.485901,-0.194031,0.417664,0.742798
1480534305330123,-0.485901,-0.194031,0.417664,0.742798
1480534305351687,-0.485962,-0.194031,0.417664,0.742798
1480534305367219,-0.486023,-0.194031,0.417664,0.742737
1480534305404318,-0.485901,-0.194031,0.417603,0.742859
1480534305411839,-0.485901,-0.194031,0.417603,0.742859
1480534305425875,-0.485962,-0.19397,0.417603,0.742859
1480534305449438,-0.485962,-0.19397,0.417603,0.742859
1480534305471497,-0.485962,-0.19397,0.417603,0.742859
1480534305486036,-0.48584,-0.19397,0.417725,0.742859
1480534305539678,-0.48584,-0.19397,0.417725,0.742859
1480534305543187,-0.486145,-0.193787,0.417664,0.742737
1480534305577278,-0.486572,-0.193542,0.417786,0.742432
1480534305583294,-0.486816,-0.193665,0.417908,0.742188
1480534305599337,-0.486816,-0.193726,0.417847,0.742188
1480534305615380,-0.486938,-0.19342,0.417908,0.742188
1480534305636438,-0.487183,-0.193237,0.417847,0.742065
1480534305658995,-0.487732,-0.193298,0.417603,0.741821
1480534305682060,-0.487915,-0.193237,0.417419,0.741821
1480534305690580,-0.487488,-0.192871,0.417664,0.742065
1480534305712137,-0.487488,-0.19342,0.417419,0.742065
1480534305734197,-0.488647,-0.193359,0.416992,0.741577
1480534305749737,-0.492126,-0.192566,0.416382,0.739807
1480534305771796,-0.495544,-0.192383,0.415283,0.73822
1480534305801876,-0.497681,-0.192505,0.414612,0.737122
1480534305808895,-0.496887,-0.192383,0.414673,0.73761
1480534305838975,-0.495728,-0.192383,0.414917,0.738281
1480534305852511,-0.49646,-0.192749,0.414795,0.737793
1480534305869056,-0.49762,-0.193237,0.414856,0.736816
1480534305891614,-0.498474,-0.193481,0.414917,0.736145
1480534305912671,-0.49884,-0.19342,0.415039,0.73584
1480534305936734,-0.499268,-0.193726,0.414978,0.735474
1480534305959296,-0.499451,-0.194031,0.414978,0.735291
1480534305972830,-0.499207,-0.194153,0.415466,0.735168
1480534305996896,-0.499084,-0.194275,0.415955,0.734924
1480534306019454,-0.498901,-0.194153,0.416382,0.734802
1480534306041513,-0.498901,-0.194214,0.416809,0.734619
1480534306050037,-0.498779,-0.194397,0.417542,0.734192
1480534306094654,-0.498657,-0.194946,0.417969,0.733887
1480534306097163,-0.498718,-0.194702,0.418152,0.733826
1480534306124233,-0.499329,-0.194336,0.418091,0.733521
1480534306131753,-0.5,-0.19458,0.417847,0.733154
1480534306156319,-0.500305,-0.194702,0.41803,0.732788
1480534306169353,-0.500183,-0.194763,0.418579,0.732605
1480534306197929,-0.500122,-0.194824,0.418945,0.732361
1480534306213972,-0.500366,-0.194641,0.419373,0.732056
1480534306244553,-0.500916,-0.194397,0.419861,0.731384
1480534306251572,-0.501282,-0.194336,0.42041,0.730896
1480534306274633,-0.501343,-0.194336,0.421021,0.73053
1480534306288670,-0.50116,-0.194275,0.421326,0.730469
1480534306326772,-0.500916,-0.19397,0.421387,0.730652
1480534306334293,-0.500732,-0.193542,0.421692,0.730713
1480534306372394,-0.500916,-0.193604,0.422058,0.730347
1480534306374398,-0.501404,-0.193665,0.422424,0.729858
1480534306399466,-0.502197,-0.194031,0.422302,0.729248
1480534306408489,-0.503174,-0.194397,0.422058,0.728638
1480534306431551,-0.503601,-0.19458,0.421875,0.728333
1480534306455113,-0.503662,-0.19458,0.421875,0.728333
1480534306476670,-0.503662,-0.19458,0.421875,0.728333
1480534306493216,-0.503967,-0.19458,0.421814,0.728149
1480534306514772,-0.504395,-0.194824,0.421692,0.727844
1480534306528810,-0.505066,-0.194946,0.421448,0.727478
1480534306553374,-0.505371,-0.194885,0.421387,0.727356
1480534306574431,-0.505493,-0.194763,0.421204,0.727417
1480534306595487,-0.505493,-0.194641,0.421082,0.727478
1480534306612036,-0.505859,-0.194397,0.420959,0.727356
1480534306634090,-0.506226,-0.194336,0.420898,0.727173
1480534306672192,-0.506104,-0.194153,0.420898,0.727356
1480534306675700,-0.505981,-0.19397,0.420898,0.727478
1480534306694249,-0.506348,-0.193604,0.420959,0.727234
1480534306715305,-0.506714,-0.193481,0.420959,0.727051
1480534306731850,-0.506958,-0.193359,0.420898,0.726929
1480534306754911,-0.506958,-0.192993,0.421021,0.726929
1480534306793513,-0.507202,-0.19281,0.421143,0.726807
1480534306805044,-0.50708,-0.192566,0.421387,0.726746
1480534306823593,-0.506409,-0.192261,0.421936,0.727051
1480534306835126,-0.505249,-0.1922,0.422668,0.727417
1480534306851668,-0.504028,-0.192261,0.423401,0.727783
1480534306881748,-0.502747,-0.192383,0.424072,0.728271
1480534306895285,-0.501892,-0.192688,0.424133,0.72876
1480534306917846,-0.501648,-0.193298,0.424255,0.728699
1480534306950431,-0.501221,-0.193909,0.424683,0.728577
1480534306980011,-0.500488,-0.194336,0.424927,0.72876
1480534306986025,-0.500122,-0.194336,0.425232,0.728882
1480534306994047,-0.500122,-0.194641,0.425415,0.728699
1480534307033151,-0.5,-0.194885,0.425232,0.728821
1480534307037663,-0.500122,-0.194458,0.4245,0.729248
1480534307069957,-0.500793,-0.193848,0.423401,0.729614
1480534307076767,-0.50238,-0.193665,0.421936,0.729431
1480534307098825,-0.504333,-0.193359,0.42041,0.729004
1480534307115872,-0.506226,-0.192627,0.418884,0.728821
1480534307136927,-0.507568,-0.192261,0.417725,0.728638
1480534307151465,-0.50824,-0.1922,0.417053,0.728577
1480534307174025,-0.508179,-0.191833,0.416687,0.728882
1480534307196588,-0.507996,-0.191467,0.416504,0.729248
1480534307219646,-0.507874,-0.191467,0.416321,0.729431
1480534307234187,-0.507996,-0.19165,0.416077,0.729431
1480534307257247,-0.507813,-0.191711,0.415771,0.729675
1480534307271285,-0.507629,-0.191528,0.415649,0.72998
1480534307294346,-0.507385,-0.191406,0.415527,0.730225
1480534307324927,-0.507141,-0.191528,0.41571,0.730225
1480534307347487,-0.506897,-0.191833,0.415955,0.730164
1480534307362532,-0.50647,-0.192017,0.415894,0.730469
1480534307377066,-0.506409,-0.191895,0.415527,0.730774
1480534307391103,-0.506531,-0.191711,0.415283,0.730896
1480534307414164,-0.506592,-0.191711,0.415283,0.730835
1480534307436724,-0.506714,-0.191711,0.414978,0.730957
1480534307459292,-0.506897,-0.191467,0.41449,0.73114
1480534307480341,-0.507202,-0.191223,0.414063,0.731201
1480534307502901,-0.507874,-0.19104,0.413757,0.730957
1480534307518943,-0.508118,-0.190918,0.413696,0.730896
1480534307534485,-0.508118,-0.190857,0.413696,0.730896
1480534307556543,-0.508179,-0.190796,0.414063,0.730713
1480534307585119,-0.507874,-0.190857,0.414429,0.730652
1480534307601664,-0.507202,-0.190979,0.414856,0.730835
1480534307624724,-0.506042,-0.190918,0.415771,0.73114
1480534307641771,-0.504639,-0.191162,0.416992,0.731384
1480534307654804,-0.503296,-0.19165,0.418152,0.731506
1480534307684885,-0.502136,-0.1922,0.419189,0.731567
1480534307697919,-0.501038,-0.192688,0.419922,0.73175
1480534307713966,-0.500305,-0.193115,0.420471,0.731873
1480534307737024,-0.499939,-0.193176,0.420898,0.731812
1480534307757578,-0.499512,-0.193298,0.421265,0.731934
1480534307789163,-0.499512,-0.19342,0.421448,0.73175
1480534307796683,-0.499512,-0.193604,0.421631,0.731567
1480534307817738,-0.499146,-0.193726,0.421814,0.731689
1480534307834284,-0.498779,-0.193665,0.421997,0.731812
1480534307862357,-0.498779,-0.193726,0.421997,0.731812
1480534307895445,-0.498962,-0.193481,0.421936,0.731812
1480534307901460,-0.498718,-0.193604,0.421875,0.731934
1480534307932544,-0.498535,-0.193604,0.421875,0.732117
1480534307937557,-0.498535,-0.193298,0.421753,0.7323
1480534307961621,-0.498535,-0.193298,0.421753,0.732239
1480534307976661,-0.498596,-0.193298,0.42157,0.7323
1480534307999222,-0.498291,-0.193054,0.42157,0.732605
1480534308020276,-0.498047,-0.192871,0.42157,0.732788
1480534308036821,-0.498108,-0.192871,0.42157,0.732788
1480534308066901,-0.498108,-0.192871,0.42157,0.732788
1480534308074421,-0.497925,-0.192871,0.421631,0.732849
1480534308096479,-0.497925,-0.192871,0.421631,0.732788
1480534308119040,-0.497864,-0.192993,0.421692,0.732849
1480534308140095,-0.497925,-0.192993,0.421692,0.732788
1480534308187220,-0.497925,-0.192993,0.421692,0.732788
1480534308196746,-0.497986,-0.192993,0.421692,0.732788
1480534308208778,-0.497986,-0.192993,0.421631,0.732727
1480534308218304,-0.497986,-0.192993,0.421631,0.732727
1480534308246879,-0.498047,-0.192993,0.421692,0.732727
1480534308254400,-0.497986,-0.192993,0.421692,0.732727
1480534308277962,-0.497925,-0.19281,0.421692,0.732788
1480534308299018,-0.497986,-0.19281,0.421692,0.732788
1480534308314058,-0.497986,-0.19281,0.421692,0.732788
1480534308345648,-0.497986,-0.19281,0.421692,0.732788
1480534308367200,-0.498047,-0.19281,0.421692,0.732788
1480534308373718,-0.497925,-0.19281,0.421753,0.732788
1480534308404800,-0.497803,-0.192627,0.421692,0.732971
1480534308419839,-0.497803,-0.192627,0.421692,0.73291
1480534308433376,-0.497864,-0.192627,0.421692,0.73291
1480534308458943,-0.497742,-0.192383,0.421631,0.733093
1480534308495541,-0.497498,-0.192139,0.421631,0.733337
1480534308500054,-0.497498,-0.192139,0.42157,0.733337
1480534308524116,-0.497498,-0.192139,0.42157,0.733337
1480534308546177,-0.497437,-0.192017,0.421692,0.733398
1480534308560213,-0.497437,-0.192017,0.421692,0.733398
1480534308577259,-0.497437,-0.192017,0.421692,0.733337
1480534308630402,-0.497498,-0.192017,0.421692,0.733337
1480534308652458,-0.497314,-0.191956,0.421631,0.733521
1480534308654465,-0.497009,-0.191772,0.42157,0.733826
1480534308666496,-0.496948,-0.191833,0.421326,0.734009
1480534308680533,-0.497009,-0.191772,0.421143,0.73407
1480534308705098,-0.49707,-0.191772,0.421143,0.734009
1480534308743701,-0.496887,-0.19165,0.421082,0.734192
1480534308749216,-0.496643,-0.19165,0.421082,0.734314
1480534308770773,-0.496521,-0.191528,0.421082,0.734436
1480534308779297,-0.496399,-0.191467,0.421021,0.734558
1480534308800855,-0.496155,-0.191345,0.421021,0.734802
1480534308816895,-0.496094,-0.191284,0.420959,0.734863
1480534308845476,-0.496033,-0.191284,0.420959,0.734924
1480534308860010,-0.496033,-0.191284,0.420959,0.734924
1480534308892096,-0.496033,-0.191284,0.420959,0.734924
1480534308906635,-0.496094,-0.191284,0.420959,0.734924
1480534308922176,-0.496094,-0.191284,0.420959,0.734924
1480534308936714,-0.496094,-0.191284,0.420959,0.734863
1480534308959275,-0.496155,-0.191406,0.421082,0.734741
1480534309012923,-0.496277,-0.191956,0.421143,0.734497
1480534309019936,-0.495972,-0.192322,0.421204,0.734558
1480534309022445,-0.495972,-0.192322,0.421204,0.734558
1480534309041493,-0.496399,-0.191956,0.421448,0.734253
1480534309056032,-0.497009,-0.192749,0.421448,0.733582
1480534309080095,-0.497559,-0.194031,0.42157,0.732849
1480534309101654,-0.498718,-0.195679,0.421631,0.731567
1480534309122710,-0.499084,-0.197083,0.422363,0.73053
1480534309139252,-0.498657,-0.198242,0.422974,0.730164
1480534309178358,-0.49762,-0.199341,0.42395,0.72998
1480534309182872,-0.496643,-0.200989,0.424927,0.729614
1480534309199413,-0.496155,-0.202698,0.425598,0.729126
1480534309221472,-0.496399,-0.203308,0.425903,0.728577
1480534309236193,-0.497314,-0.203308,0.426331,0.727722
1480534309265088,-0.498047,-0.203552,0.426575,0.72699
1480534309298176,-0.498657,-0.203735,0.426331,0.726685
1480534309303189,-0.499512,-0.203491,0.42572,0.726501
1480534309320736,-0.500671,-0.203247,0.425049,0.726196
1480534309342293,-0.502502,-0.203186,0.424194,0.725464
1480534309355829,-0.503845,-0.202881,0.423645,0.724854
1480534309385408,-0.504883,-0.202271,0.42334,0.724548
1480534309408970,-0.505188,-0.201599,0.423645,0.724304
1480534309424011,-0.5047,-0.201294,0.424561,0.724243
1480534309461111,-0.503967,-0.20166,0.425476,0.724121
1480534309484672,-0.503357,-0.202698,0.42572,0.72406
1480534309487178,-0.503235,-0.202576,0.425415,0.724365
1480534309499211,-0.504089,-0.202271,0.425293,0.723938
1480534309529292,-0.504822,-0.202576,0.424988,0.723511
1480534309542826,-0.505371,-0.202393,0.424744,0.723328
1480534309566892,-0.506042,-0.202209,0.424744,0.7229
1480534309582432,-0.506592,-0.202148,0.424927,0.722473
1480534309613018,-0.506531,-0.201965,0.425354,0.72229
1480534309619029,-0.505981,-0.201538,0.425903,0.722473
1480534309643093,-0.505066,-0.20105,0.426758,0.722717
1480534309670165,-0.503845,-0.200928,0.427734,0.723022
1480534309679195,-0.502625,-0.201172,0.428589,0.723267
1480534309703093,-0.501953,-0.201416,0.42926,0.723328
1480534309739850,-0.501648,-0.201599,0.429688,0.723206
1480534309742360,-0.501465,-0.201782,0.429993,0.723083
1480534309761910,-0.501099,-0.201477,0.430359,0.723267
1480534309791490,-0.500671,-0.200928,0.430481,0.723633
1480534309822570,-0.500854,-0.200317,0.430176,0.723877
1480534309825077,-0.500671,-0.200012,0.429932,0.724182
1480534309844128,-0.500244,-0.199585,0.429749,0.724731
1480534309859669,-0.500244,-0.199036,0.429321,0.725098
1480534309881731,-0.500854,-0.198181,0.428833,0.72522
1480534309905291,-0.501404,-0.197571,0.428223,0.725342
1480534309919328,-0.501587,-0.197144,0.427734,0.725647
1480534309943894,-0.501587,-0.196777,0.427246,0.726013
1480534309963947,-0.501282,-0.19635,0.427002,0.726501
1480534309979491,-0.500671,-0.196228,0.427063,0.726929
1480534310008064,-0.500061,-0.196228,0.427002,0.727356
1480534310030123,-0.499939,-0.195801,0.427185,0.727478
1480534310038646,-0.5,-0.19574,0.427429,0.727295
1480534310062211,-0.499939,-0.19635,0.427673,0.727051
1480534310084266,-0.499146,-0.197327,0.427917,0.727173
1480534310098805,-0.498108,-0.19812,0.427856,0.727661
1480534310123371,-0.498047,-0.197754,0.428101,0.727661
1480534310152448,-0.498413,-0.197998,0.42804,0.727417
1480534310158965,-0.498535,-0.198669,0.427917,0.727234
1480534310182529,-0.498047,-0.198547,0.427979,0.7276
1480534310234668,-0.497742,-0.198364,0.428101,0.727722
1480534310237174,-0.497803,-0.198547,0.428284,0.727539
1480534310255222,-0.497925,-0.198792,0.428406,0.727356
1480534310296334,-0.497681,-0.198792,0.428528,0.727417
1480534310309867,-0.497375,-0.198547,0.428772,0.727539
1480534310312875,-0.497314,-0.198608,0.428772,0.727539
1480534310326412,-0.497742,-0.198425,0.428223,0.727661
1480534310345462,-0.499023,-0.197754,0.427124,0.7276
1480534310362007,-0.501831,-0.197083,0.425537,0.726807
1480534310400107,-0.504883,-0.196899,0.423889,0.725708
1480534310405120,-0.507446,-0.19751,0.423401,0.723999
1480534310429188,-0.507996,-0.198059,0.423279,0.723572
1480534310444224,-0.50769,-0.197632,0.422791,0.724121
1480534310465280,-0.507874,-0.197266,0.421814,0.724731
1480534310481824,-0.50824,-0.196838,0.421082,0.725037
1480534310504886,-0.508301,-0.196289,0.420959,0.725159
1480534310532960,-0.508423,-0.196167,0.421204,0.724976
1480534310556523,-0.508362,-0.19635,0.421631,0.724731
1480534310572065,-0.507935,-0.196594,0.421875,0.724792
1480534310586604,-0.507507,-0.196777,0.42218,0.724854
1480534310601644,-0.507141,-0.196899,0.422302,0.725037
1480534310624204,-0.506775,-0.196899,0.422607,0.725159
1480534310645261,-0.506287,-0.196838,0.423096,0.725159
1480534310675339,-0.50592,-0.197021,0.423645,0.725098
1480534310684363,-0.505432,-0.197388,0.424194,0.724976
1480534310713941,-0.504822,-0.197693,0.424805,0.724976
1480534310721462,-0.504211,-0.197998,0.425293,0.725037
1480534310744022,-0.503479,-0.198303,0.425781,0.725159
1480534310773601,-0.502747,-0.198547,0.425964,0.725464
1480534310795161,-0.502197,-0.198608,0.426147,0.725769
1480534310804182,-0.501648,-0.19873,0.426392,0.725952
1480534310834764,-0.501343,-0.198853,0.426697,0.725952
1480534310849302,-0.500977,-0.198975,0.427002,0.726013
1480534310864342,-0.500183,-0.19928,0.427307,0.726257
1480534310886902,-0.499451,-0.199524,0.427612,0.726563
1480534310901942,-0.498718,-0.199768,0.427979,0.726746
1480534310924502,-0.49823,-0.200012,0.428345,0.726807
1480534310954080,-0.497864,-0.200073,0.428467,0.72699
1480534310961099,-0.497742,-0.200012,0.428345,0.727173
1480534310984661,-0.497803,-0.200012,0.428345,0.727112
1480534311013239,-0.497559,-0.200012,0.428467,0.727234
1480534311021259,-0.497375,-0.199951,0.428467,0.727295
1480534311052342,-0.497375,-0.199951,0.428528,0.727295
1480534311068886,-0.497742,-0.199707,0.428345,0.727234
1480534311087936,-0.497681,-0.199524,0.428345,0.727295
1480534311112002,-0.497681,-0.199341,0.428223,0.727417
1480534311126541,-0.497559,-0.199158,0.428162,0.7276
1480534311142582,-0.49762,-0.199097,0.428162,0.7276
1480534311164139,-0.49762,-0.199097,0.428162,0.727539
1480534311203243,-0.497864,-0.199158,0.428101,0.727478
1480534311207755,-0.497803,-0.199158,0.427856,0.7276
1480534311224800,-0.497681,-0.199158,0.427795,0.727722
1480534311246859,-0.497498,-0.199097,0.427917,0.727783
1480534311260897,-0.497559,-0.199097,0.427917,0.727783
1480534311283958,-0.497559,-0.199158,0.427917,0.727783
1480534311307520,-0.497681,-0.198914,0.427734,0.727844
1480534311327574,-0.498047,-0.198425,0.427429,0.727905
1480534311344619,-0.498779,-0.198486,0.426636,0.727844
1480534311367186,-0.501282,-0.198792,0.425903,0.72644
1480534311389739,-0.50354,-0.198486,0.425598,0.725159
1480534311404279,-0.504944,-0.198303,0.42511,0.724548
1480534311426838,-0.50531,-0.19812,0.424622,0.724609
1480534311447894,-0.505432,-0.197998,0.4245,0.72467
1480534311471456,-0.505737,-0.197876,0.424438,0.724487
1480534311486496,-0.50647,-0.197998,0.424438,0.723938
1480534311511062,-0.50708,-0.198242,0.424377,0.723511
1480534311525600,-0.507385,-0.19873,0.424316,0.723206
1480534311546656,-0.507568,-0.198914,0.424316,0.723022
1480534311567713,-0.507996,-0.198914,0.424438,0.722595
1480534311584256,-0.508667,-0.199158,0.424438,0.722107
1480534311606817,-0.509155,-0.199463,0.424255,0.721741
1480534311627873,-0.509521,-0.199341,0.424011,0.72168
1480534311644918,-0.510071,-0.199036,0.424011,0.721375
1480534311672491,-0.510742,-0.19928,0.42395,0.720886
1480534311689036,-0.511292,-0.199524,0.423889,0.720459
1480534311704075,-0.511902,-0.199524,0.423889,0.720032
1480534311726635,-0.512268,-0.199463,0.42395,0.719727
1480534311747691,-0.512756,-0.199402,0.42395,0.71936
1480534311765239,-0.513062,-0.199219,0.424133,0.719177
1480534311786797,-0.513184,-0.199219,0.424377,0.718872
1480534311816875,-0.512939,-0.19928,0.424622,0.718933
1480534311824395,-0.512573,-0.199097,0.424988,0.718994
1480534311848961,-0.512512,-0.198914,0.425537,0.718811
1480534311885558,-0.512268,-0.198975,0.426331,0.718506
1480534311890070,-0.511353,-0.198914,0.427307,0.718567
1480534311908620,-0.509949,-0.198975,0.428528,0.718811
1480534311953740,-0.508179,-0.198975,0.429749,0.71936
1480534311959254,-0.506592,-0.198547,0.430786,0.71991
1480534311974295,-0.504944,-0.197876,0.431641,0.720764
1480534311989334,-0.504211,-0.197815,0.432007,0.72113
1480534312003372,-0.503906,-0.197632,0.432373,0.72113
1480534312026432,-0.503418,-0.197144,0.432617,0.721497
1480534312067543,-0.503662,-0.196716,0.432373,0.721558
1480534312077569,-0.503845,-0.196411,0.432007,0.721741
1480534312094615,-0.504211,-0.195984,0.431702,0.721741
1480534312118177,-0.504639,-0.195496,0.431274,0.721863
1480534312132214,-0.505432,-0.19519,0.430664,0.721741
1480534312152769,-0.505859,-0.194885,0.430115,0.721863
1480534312169317,-0.505981,-0.194397,0.429565,0.722229
1480534312183350,-0.505859,-0.19397,0.429077,0.722717
1480534312221451,-0.505798,-0.193481,0.428711,0.723145
1480534312229474,-0.505859,-0.193115,0.428345,0.723389
1480534312251532,-0.505981,-0.192993,0.427856,0.723633
1480534312266573,-0.505798,-0.192688,0.427246,0.724182
1480534312289131,-0.505432,-0.1922,0.426697,0.724915
1480534312310187,-0.505066,-0.191772,0.426636,0.725342
1480534312341771,-0.504578,-0.191711,0.426575,0.725708
1480534312356812,-0.50415,-0.191711,0.426392,0.726135
1480534312379873,-0.503784,-0.191711,0.426331,0.72644
1480534312386892,-0.503601,-0.191772,0.426331,0.726501
1480534312409952,-0.503967,-0.192383,0.426147,0.726257
1480534312430509,-0.504272,-0.193115,0.425659,0.726074
1480534312452584,-0.504517,-0.193665,0.42511,0.726074
1480534312470614,-0.504761,-0.194763,0.425232,0.725525
1480534312492172,-0.504456,-0.196472,0.425415,0.725159
1480534312506716,-0.504761,-0.196167,0.425903,0.724792
1480534312529271,-0.50531,-0.19635,0.425537,0.724548
1480534312557846,-0.505859,-0.196838,0.424927,0.724426
1480534312567373,-0.50592,-0.196716,0.424561,0.724609
1480534312596449,-0.50592,-0.196472,0.424377,0.724792
1480534312617505,-0.506226,-0.196594,0.424438,0.724548
1480534312649089,-0.507019,-0.197083,0.424316,0.723877
1480534312659116,-0.507568,-0.197388,0.424072,0.723572
1480534312670147,-0.507751,-0.197266,0.42395,0.723511
1480534312686689,-0.508057,-0.197144,0.423828,0.72345
1480534312710754,-0.508484,-0.197205,0.423767,0.723145
1480534312731809,-0.509216,-0.197571,0.423645,0.722595
1480534312747853,-0.509521,-0.197754,0.423767,0.72229
1480534312778936,-0.509705,-0.197998,0.423584,0.722168
1480534312791468,-0.510071,-0.197876,0.423584,0.721985
1480534312814028,-0.510681,-0.197754,0.423584,0.721558
1480534312835084,-0.511353,-0.197876,0.423584,0.721069
1480534312851628,-0.512024,-0.197937,0.423462,0.720642
1480534312872684,-0.512329,-0.197937,0.42334,0.720459
1480534312896748,-0.512817,-0.197876,0.423279,0.720154
1480534312911791,-0.513306,-0.197693,0.423279,0.71991
1480534312932844,-0.514038,-0.197571,0.42334,0.71936
1480534312949890,-0.514771,-0.197571,0.423279,0.718872
1480534312977463,-0.515381,-0.197449,0.42334,0.718445
1480534312985985,-0.515686,-0.197388,0.423706,0.718018
1480534313009046,-0.515686,-0.197754,0.424194,0.717651
1480534313034114,-0.515747,-0.198059,0.424622,0.717285
1480534313054166,-0.515625,-0.197998,0.424927,0.717163
1480534313069207,-0.515808,-0.198303,0.425232,0.716797
1480534313091766,-0.516113,-0.198547,0.425537,0.716309
1480534313105804,-0.516785,-0.198547,0.42572,0.715698
1480534313129367,-0.5177,-0.198486,0.425842,0.715027
1480534313151926,-0.518372,-0.198364,0.425842,0.714539
1480534313176994,-0.518738,-0.198181,0.426025,0.714233
1480534313189527,-0.51886,-0.19812,0.42627,0.713989
1480534313213089,-0.518738,-0.198181,0.426819,0.713745
1480534313240162,-0.518311,-0.198303,0.427612,0.713501
1480534313255202,-0.517517,-0.198669,0.428711,0.713379
1480534313271746,-0.516602,-0.198914,0.429871,0.713257
1480534313292802,-0.515625,-0.199036,0.430969,0.713318
1480534313309346,-0.514648,-0.198975,0.431946,0.713379
1480534313331905,-0.51355,-0.198792,0.432983,0.713562
1480534313360482,-0.512146,-0.198242,0.434021,0.714172
1480534313369530,-0.510803,-0.197693,0.434509,0.714966
1480534313397579,-0.510071,-0.197205,0.434937,0.715332
1480534313412623,-0.509216,-0.197266,0.43512,0.715881
1480534313430167,-0.508545,-0.197449,0.43512,0.716309
1480534313451726,-0.507996,-0.197021,0.435059,0.716797
1480534313480300,-0.508118,-0.196655,0.434692,0.717041
1480534313489324,-0.508484,-0.19635,0.434143,0.717224
1480534313517900,-0.508362,-0.196289,0.433533,0.717651
1480534313532439,-0.508484,-0.19574,0.433289,0.717896
1480534313548983,-0.508606,-0.195251,0.432861,0.718201
1480534313572044,-0.508728,-0.195068,0.43219,0.718567
1480534313596108,-0.508545,-0.194702,0.431519,0.719177
1480534313609143,-0.508118,-0.194214,0.431152,0.719849
1480534313639223,-0.507507,-0.193848,0.430969,0.720459
1480534313660280,-0.507263,-0.193848,0.430786,0.720764
1480534313669304,-0.506958,-0.194092,0.430603,0.721008
1480534313693368,-0.506531,-0.194275,0.430542,0.721313
1480534313713921,-0.50592,-0.194397,0.43042,0.721802
1480534313729463,-0.505188,-0.194458,0.430298,0.722351
1480534313759041,-0.504639,-0.194641,0.430115,0.722778
1480534313774083,-0.504211,-0.194763,0.429871,0.723206
1480534313788620,-0.503845,-0.194824,0.429688,0.723572
1480534313811684,-0.50354,-0.194946,0.429626,0.723755
1480534313834745,-0.503235,-0.195129,0.429504,0.723999
1480534313848780,-0.503174,-0.195129,0.429382,0.724121
1480534313886380,-0.502808,-0.194824,0.429321,0.724487
1480534313917463,-0.502563,-0.194641,0.429321,0.724731
