timestamp,x,y,z
1480697712426134,-0.152344,-0.916992,0.443848
1480697712447190,-0.14209,-0.910645,0.442871
1480697712465739,-0.148926,-0.906738,0.447754
1480697712494816,-0.149902,-0.904785,0.443359
1480697712510358,-0.151367,-0.915527,0.448242
1480697712540437,-0.152344,-0.92334,0.441895
1480697712562496,-0.150879,-0.935059,0.444824
1480697712574527,-0.152832,-0.929688,0.440918
1480697712585059,-0.14502,-0.930176,0.445313
1480697712606112,-0.15332,-0.930664,0.448242
1480697712645719,-0.158691,-0.918945,0.450195
1480697712649728,-0.151855,-0.922363,0.449707
1480697712672288,-0.148926,-0.916992,0.453125
1480697712686827,-0.149902,-0.915039,0.44873
1480697712704876,-0.150391,-0.905273,0.443359
1480697712725930,-0.142578,-0.903809,0.439941
1480697712747990,-0.147461,-0.907227,0.441895
1480697712771052,-0.146484,-0.913574,0.445313
1480697712818180,-0.14502,-0.914063,0.444336
1480697712839733,-0.145508,-0.913574,0.446289
1480697712842242,-0.146973,-0.918457,0.445313
1480697712863296,-0.149902,-0.920898,0.449707
1480697712886357,-0.150879,-0.931152,0.451172
1480697712906411,-0.158691,-0.929688,0.450195
1480697712908919,-0.154297,-0.930664,0.445801
1480697712926967,-0.154297,-0.922363,0.445313
1480697712949525,-0.15625,-0.917969,0.443848
1480697712967573,-0.149902,-0.918457,0.445313
1480697712988128,-0.145508,-0.918945,0.445313
1480697713005173,-0.143066,-0.910156,0.44043
1480697713027232,-0.145996,-0.904297,0.449219
1480697713047787,-0.143066,-0.908203,0.447266
1480697713075862,-0.148926,-0.904297,0.442383
1480697713094912,-0.144531,-0.911133,0.442871
1480697713117472,-0.141113,-0.910156,0.435547
1480697713132512,-0.142578,-0.911133,0.446289
1480697713148053,-0.143555,-0.931641,0.442383
1480697713170112,-0.147949,-0.935547,0.449707
1480697713185655,-0.156738,-0.930176,0.453125
1480697713210720,-0.157227,-0.916016,0.453125
1480697713227264,-0.153809,-0.921387,0.450195
1480697713244810,-0.143066,-0.91748,0.451172
1480697713267371,-0.145508,-0.919434,0.440918
1480697713304470,-0.157227,-0.916992,0.442871
1480697713317003,-0.15332,-0.916992,0.445801
1480697713327530,-0.141602,-0.914063,0.443359
1480697713347082,-0.143066,-0.907227,0.451172
1480697713372650,-0.144531,-0.902832,0.453613
1480697713395211,-0.150391,-0.907715,0.452148
1480697713417272,-0.15332,-0.913086,0.447266
1480697713429301,-0.147461,-0.918945,0.444336
1480697713454869,-0.145996,-0.928223,0.445801
1480697713491467,-0.143066,-0.946289,0.448242
1480697713493973,-0.138184,-0.952148,0.449707
1480697713513024,-0.146973,-0.935547,0.443848
1480697713536085,-0.160645,-0.912598,0.439941
1480697713545109,-0.163086,-0.916504,0.441895
1480697713568186,-0.171875,-0.929688,0.446777
1480697713588725,-0.161133,-0.915527,0.444336
1480697713604769,-0.149414,-0.907715,0.437988
1480697713628330,-0.137695,-0.902344,0.440918
1480697713671445,-0.132813,-0.900391,0.439941
1480697713673952,-0.147461,-0.904297,0.436523
1480697713692000,-0.154297,-0.918457,0.442383
1480697713717570,-0.155762,-0.92627,0.44043
1480697713737621,-0.143066,-0.919922,0.441406
1480697713754672,-0.137695,-0.919922,0.450684
1480697713769706,-0.150391,-0.922363,0.438477
1480697713792266,-0.150879,-0.92627,0.439941
1480697713813824,-0.15332,-0.936523,0.440918
1480697713829867,-0.153809,-0.931641,0.439453
1480697713844906,-0.154297,-0.916504,0.445313
1480697713871978,-0.149414,-0.928223,0.44873
1480697713890026,-0.154785,-0.927246,0.444824
1480697713915093,-0.146973,-0.923828,0.447266
1480697713927626,-0.150879,-0.90918,0.449219
1480697713963221,-0.151855,-0.901367,0.443359
1480697713971744,-0.143066,-0.907227,0.450195
1480697713994805,-0.13916,-0.905273,0.441406
1480697714024384,-0.148438,-0.905762,0.437988
1480697714030400,-0.149414,-0.913574,0.438477
1480697714048448,-0.149414,-0.929199,0.442383
1480697714070507,-0.151367,-0.930664,0.444336
1480697714097579,-0.152344,-0.919922,0.445313
1480697714107105,-0.149902,-0.923828,0.438477
1480697714129162,-0.151367,-0.926758,0.437012
1480697714150219,-0.158203,-0.933105,0.440918
1480697714166763,-0.157227,-0.928223,0.430664
1480697714195840,-0.15625,-0.922852,0.442383
1480697714249482,-0.152832,-0.912109,0.439941
1480697714251989,-0.149902,-0.911133,0.442383
1480697714258005,-0.143066,-0.910156,0.442383
1480697714278559,-0.154785,-0.915039,0.438965
1480697714300117,-0.152832,-0.912598,0.442871
1480697714323178,-0.14502,-0.912109,0.444824
1480697714330196,-0.151367,-0.913574,0.44043
1480697714347242,-0.151367,-0.917969,0.437012
1480697714384842,-0.15625,-0.931641,0.441895
1480697714390356,-0.155762,-0.939453,0.450684
1480697714406400,-0.149902,-0.929199,0.454102
1480697714430964,-0.153809,-0.918457,0.445313
1480697714451021,-0.156738,-0.919922,0.442871
1480697714466559,-0.15918,-0.932617,0.441406
1480697714504661,-0.154297,-0.926758,0.436035
1480697714534243,-0.152344,-0.919434,0.436523
1480697714557301,-0.143555,-0.909668,0.437012
1480697714559807,-0.14502,-0.904785,0.440918
1480697714579862,-0.148438,-0.912598,0.442871
1480697714586879,-0.154785,-0.911133,0.447266
1480697714614954,-0.143066,-0.911133,0.444824
1480697714637514,-0.141113,-0.915527,0.447266
1480697714656566,-0.149414,-0.928223,0.443359
1480697714669098,-0.161621,-0.929199,0.446289
1480697714690154,-0.167969,-0.922363,0.449219
1480697714706698,-0.154785,-0.919434,0.448242
1480697714729258,-0.155762,-0.927246,0.443359
1480697714751319,-0.155762,-0.928223,0.444824
1480697714781898,-0.154785,-0.922852,0.439941
1480697714813984,-0.153809,-0.92041,0.4375
1480697714817997,-0.149902,-0.92334,0.445313
1480697714834038,-0.145508,-0.914551,0.441895
1480697714856596,-0.146973,-0.90625,0.443359
1480697714887178,-0.146484,-0.907227,0.449707
1480697714889685,-0.145508,-0.906738,0.44043
1480697714922772,-0.144043,-0.906738,0.441406
1480697714939318,-0.149902,-0.913086,0.444824
1480697714945834,-0.150391,-0.918457,0.448242
1480697714968898,-0.155273,-0.922852,0.444824
1480697714991455,-0.151855,-0.923828,0.439941
1480697715006996,-0.151367,-0.928223,0.439453
1480697715036575,-0.152832,-0.928711,0.447266
1480697715081695,-0.158203,-0.935547,0.446777
1480697715091220,-0.156738,-0.937988,0.446289
1480697715103252,-0.152832,-0.925293,0.439941
1480697715111775,-0.150391,-0.914551,0.438477
1480697715157399,-0.152344,-0.908203,0.441895
1480697715159903,-0.158691,-0.920898,0.439453
1480697715173942,-0.147949,-0.910156,0.441406
1480697715192489,-0.14209,-0.911133,0.459961
1480697715209035,-0.152832,-0.907227,0.47168
1480697715231594,-0.153809,-0.911621,0.463379
1480697715246133,-0.152832,-0.912109,0.451172
1480697715269193,-0.148438,-0.919434,0.443359
1480697715291754,-0.141602,-0.926758,0.425293
1480697715312810,-0.148926,-0.919434,0.420898
1480697715336874,-0.150391,-0.921387,0.427734
1480697715366453,-0.155762,-0.923828,0.432129
1480697715373972,-0.153809,-0.92041,0.442871
1480697715389012,-0.152832,-0.9375,0.447266
1480697715426612,-0.152832,-0.946289,0.45752
1480697715434134,-0.15625,-0.936523,0.466797
1480697715456694,-0.147461,-0.920898,0.467773
1480697715471732,-0.151855,-0.900879,0.458984
1480697715493791,-0.148926,-0.895508,0.452148
1480697715516854,-0.146973,-0.896484,0.444824
1480697715531391,-0.13916,-0.900391,0.435059
1480697715553951,-0.13916,-0.905273,0.429199
1480697715568991,-0.144043,-0.911621,0.433105
1480697715591551,-0.149414,-0.922852,0.439941
1480697715620628,-0.148926,-0.926758,0.450684
1480697715665748,-0.148926,-0.925293,0.452148
1480697715683797,-0.148926,-0.931152,0.44873
1480697715689812,-0.148926,-0.922852,0.449707
1480697715692320,-0.148926,-0.924805,0.453613
1480697715712873,-0.147949,-0.920898,0.449707
1480697715734933,-0.146973,-0.913574,0.445801
1480697715756489,-0.148438,-0.909668,0.447266
1480697715780052,-0.15332,-0.907715,0.44043
1480697715794089,-0.155273,-0.90625,0.448242
1480697715815145,-0.14502,-0.910156,0.445313
1480697715832191,-0.141113,-0.909668,0.449707
1480697715853748,-0.145508,-0.909668,0.444824
1480697715922431,-0.145996,-0.920898,0.445313
1480697715944490,-0.155273,-0.923828,0.44043
1480697715946997,-0.138184,-0.926758,0.443848
1480697715960532,-0.137207,-0.92334,0.439453
1480697715980084,-0.148926,-0.931641,0.441895
1480697715988608,-0.147461,-0.932129,0.442383
1480697716019188,-0.149414,-0.925293,0.449219
1480697716034228,-0.150879,-0.917969,0.451172
1480697716048265,-0.153809,-0.92041,0.443359
1480697716071828,-0.142578,-0.911621,0.440918
1480697716093887,-0.139648,-0.906738,0.445313
1480697716110932,-0.140625,-0.900879,0.438965
1480697716133996,-0.144531,-0.90918,0.443848
1480697716200671,-0.143555,-0.907227,0.447754
1480697716206185,-0.145508,-0.922852,0.447266
1480697716223231,-0.140625,-0.927734,0.440918
1480697716244287,-0.144531,-0.926758,0.452148
1480697716251812,-0.152344,-0.918457,0.449707
1480697716280383,-0.154297,-0.927246,0.45166
1480697716295422,-0.148438,-0.932129,0.445313
1480697716311465,-0.149414,-0.916992,0.442383
1480697716334028,-0.145996,-0.910645,0.439453
1480697716355081,-0.145508,-0.92627,0.450195
1480697716371627,-0.145508,-0.924316,0.453125
1480697716394185,-0.145996,-0.905273,0.449707
1480697716416746,-0.138672,-0.895508,0.452637
1480697716469887,-0.138184,-0.904785,0.44043
1480697716471892,-0.145996,-0.914551,0.45166
1480697716478911,-0.154297,-0.919922,0.440918
1480697716498964,-0.141602,-0.918945,0.436523
1480697716520020,-0.140625,-0.915527,0.441895
1480697716535062,-0.145508,-0.92627,0.445801
1480697716551604,-0.148438,-0.937012,0.45166
1480697716574164,-0.154297,-0.937988,0.444336
1480697716602740,-0.149902,-0.930176,0.44873
1480697716611764,-0.144043,-0.922852,0.446289
1480697716634328,-0.145996,-0.920898,0.453125
1480697716655384,-0.151855,-0.915527,0.445801
1480697716671423,-0.151367,-0.917969,0.453125
1480697716693983,-0.14209,-0.910645,0.45166
1480697716755145,-0.140625,-0.907227,0.447754
1480697716757652,-0.13916,-0.909668,0.446289
1480697716776202,-0.144043,-0.90918,0.44873
1480697716791742,-0.144043,-0.914063,0.447266
1480697716821823,-0.147461,-0.924316,0.440918
1480697716845887,-0.140137,-0.925293,0.449219
1480697716857919,-0.141602,-0.933105,0.447266
1480697716873962,-0.143066,-0.933594,0.450684
1480697716896521,-0.144531,-0.922363,0.450684
1480697716911060,-0.149902,-0.927734,0.447266
1480697716934122,-0.144043,-0.935547,0.444336
1480697716963700,-0.13916,-0.916504,0.444336
1480697716972222,-0.149902,-0.907715,0.447754
1480697717001301,-0.15332,-0.900879,0.452637
1480697717024361,-0.14502,-0.902832,0.447754
1480697717030878,-0.141113,-0.911621,0.442383
1480697717053940,-0.141602,-0.909668,0.442871
1480697717076500,-0.140625,-0.907715,0.446289
1480697717091038,-0.146973,-0.921875,0.444336
1480697717114099,-0.141113,-0.928711,0.443359
1480697717137662,-0.146484,-0.918457,0.446777
1480697717151198,-0.152832,-0.92334,0.453613
1480697717180275,-0.156738,-0.930664,0.445801
1480697717196819,-0.157227,-0.935059,0.443359
1480697717217879,-0.145508,-0.924805,0.442383
1480697717247454,-0.147949,-0.916016,0.445313
1480697717257982,-0.150391,-0.919434,0.447266
1480697717279039,-0.143555,-0.921387,0.446289
1480697717301598,-0.14209,-0.913086,0.442383
1480697717324158,-0.140625,-0.905762,0.443848
1480697717345214,-0.148438,-0.909668,0.4375
1480697717354238,-0.139648,-0.911621,0.443359
1480697717376799,-0.142578,-0.912598,0.438965
1480697717397855,-0.143555,-0.916504,0.444824
1480697717414900,-0.148438,-0.91748,0.45166
1480697717439966,-0.147949,-0.924316,0.453613
1480697717465534,-0.155762,-0.933594,0.44873
1480697717474057,-0.14502,-0.928711,0.451172
1480697717496617,-0.151367,-0.928711,0.442871
1480697717518174,-0.146484,-0.935059,0.44043
1480697717534720,-0.151367,-0.928223,0.444824
1480697717556778,-0.15625,-0.921387,0.437012
1480697717585353,-0.14502,-0.914551,0.442871
1480697717600396,-0.14502,-0.90918,0.443359
1480697717631476,-0.147949,-0.910645,0.448242
1480697717654538,-0.153809,-0.905273,0.444336
1480697717657045,-0.144043,-0.902344,0.446289
1480697717677599,-0.138672,-0.911621,0.435547
1480697717699657,-0.13623,-0.923828,0.432129
1480697717715199,-0.144043,-0.927246,0.442871
1480697717737256,-0.157715,-0.924316,0.447266
1480697717759316,-0.149902,-0.920898,0.44043
1480697717773352,-0.154785,-0.927246,0.446289
1480697717805439,-0.155762,-0.932129,0.44043
1480697717826995,-0.149414,-0.935059,0.447754
1480697717865598,-0.162598,-0.932129,0.443848
1480697717870611,-0.150879,-0.929199,0.440918
1480697717887657,-0.143555,-0.914551,0.443359
1480697717893673,-0.151367,-0.910645,0.444336
1480697717924254,-0.156738,-0.913574,0.449707
1480697717938800,-0.146484,-0.916504,0.441895
1480697717954334,-0.143555,-0.910156,0.444336
1480697717976393,-0.148926,-0.912109,0.444336
1480697718000960,-0.137695,-0.904297,0.439941
1480697718015497,-0.146484,-0.913574,0.4375
1480697718036554,-0.154785,-0.925781,0.4375
1480697718060115,-0.150879,-0.928711,0.43457
1480697718073652,-0.151367,-0.932129,0.437012
1480697718110251,-0.144531,-0.933594,0.439453
1480697718137321,-0.150879,-0.930176,0.447266
1480697718166398,-0.145508,-0.936523,0.443359
1480697718171411,-0.139648,-0.928223,0.442871
1480697718185449,-0.133301,-0.902344,0.443848
1480697718200491,-0.142578,-0.915039,0.446289
1480697718223050,-0.15918,-0.920898,0.44043
1480697718255635,-0.166504,-0.916992,0.439941
1480697718261651,-0.148438,-0.912598,0.43457
1480697718276693,-0.140137,-0.90625,0.443848
1480697718299753,-0.140625,-0.910156,0.44043
1480697718320307,-0.150879,-0.922852,0.445801
1480697718337352,-0.154785,-0.92627,0.44043
1480697718358910,-0.15332,-0.925781,0.444336
1480697718380467,-0.154297,-0.923828,0.448242
1480697718425587,-0.149414,-0.931152,0.438965
1480697718434613,-0.158691,-0.935059,0.44043
1480697718440628,-0.15625,-0.921875,0.44043
1480697718462686,-0.150879,-0.926758,0.450195
1480697718479230,-0.151367,-0.922363,0.446289
1480697718501790,-0.144531,-0.919434,0.446289
1480697718517331,-0.148926,-0.910156,0.443848
1480697718538888,-0.151855,-0.902832,0.441406
1480697718559944,-0.162598,-0.903809,0.443359
1480697718577993,-0.150879,-0.914551,0.442383
1480697718599551,-0.144531,-0.908203,0.44043
1480697718621609,-0.14209,-0.905762,0.444824
1480697718637149,-0.152832,-0.925781,0.446777
1480697718659209,-0.151855,-0.931641,0.445801
1480697718690290,-0.156738,-0.924805,0.443848
1480697718710344,-0.15625,-0.921875,0.449219
1480697718719870,-0.152832,-0.938965,0.444824
1480697718741427,-0.158691,-0.933105,0.442383
1480697718756467,-0.152832,-0.923828,0.445313
1480697718780030,-0.150879,-0.917969,0.442871
1480697718801587,-0.151367,-0.916016,0.437988
1480697718817630,-0.154297,-0.913574,0.447754
1480697718845203,-0.148438,-0.90625,0.441895
1480697718862248,-0.151367,-0.900391,0.437988
1480697718875785,-0.154785,-0.904785,0.439941
1480697718899349,-0.151855,-0.909668,0.443848
1480697718943966,-0.151367,-0.914063,0.441895
1480697718974547,-0.14502,-0.916016,0.442383
1480697718977055,-0.146973,-0.921387,0.444336
1480697718990591,-0.15332,-0.926758,0.450195
1480697718998109,-0.157715,-0.936035,0.446289
1480697719019166,-0.153809,-0.928223,0.434082
1480697719041726,-0.152344,-0.926758,0.442383
1480697719055763,-0.152344,-0.927734,0.437988
1480697719086845,-0.162109,-0.925293,0.443359
1480697719116928,-0.156738,-0.915527,0.44043
1480697719123443,-0.157227,-0.912109,0.439941
1480697719139987,-0.150391,-0.90625,0.444336
1480697719170067,-0.143555,-0.915039,0.436035
1480697719191624,-0.146484,-0.91748,0.44043
1480697719199646,-0.147949,-0.916016,0.449707
1480697719267329,-0.153809,-0.908203,0.439453
1480697719269832,-0.151367,-0.921875,0.438965
1480697719277352,-0.145996,-0.927734,0.438965
1480697719287880,-0.154297,-0.922852,0.433594
1480697719309939,-0.158203,-0.924316,0.437012
1480697719318963,-0.160645,-0.933594,0.441895
1480697719343028,-0.153809,-0.945801,0.436035
1480697719370098,-0.149414,-0.935547,0.443848
1480697719387646,-0.162109,-0.919922,0.445313
1480697719401683,-0.151855,-0.916992,0.445801
1480697719424243,-0.150391,-0.914551,0.445801
1480697719439284,-0.149414,-0.912598,0.449219
1480697719467358,-0.146973,-0.906738,0.438965
1480697719499444,-0.151367,-0.90625,0.446289
1480697719501963,-0.161621,-0.914551,0.431152
1480697719529021,-0.148926,-0.915039,0.4375
1480697719553086,-0.148926,-0.907227,0.439453
1480697719566622,-0.146484,-0.912109,0.44873
1480697719596701,-0.151367,-0.93457,0.445313
1480697719604722,-0.162109,-0.935059,0.440918
1480697719619763,-0.155273,-0.931152,0.441406
1480697719655859,-0.151367,-0.921875,0.445801
1480697719680424,-0.151855,-0.920898,0.442383
1480697719685438,-0.157227,-0.928223,0.445801
1480697719701481,-0.171875,-0.931641,0.442383
1480697719730055,-0.154785,-0.923828,0.436523
1480697719777181,-0.143066,-0.916016,0.437012
1480697719779688,-0.13916,-0.907715,0.438477
1480697719830322,-0.146973,-0.90918,0.439941
1480697719852382,-0.148438,-0.918457,0.437988
1480697719854890,-0.145996,-0.910645,0.436035
1480697719866920,-0.150879,-0.91748,0.436523
1480697719881960,-0.15332,-0.926758,0.439453
1480697719904021,-0.158691,-0.932617,0.442383
1480697719918561,-0.162109,-0.933594,0.445313
1480697719948136,-0.150879,-0.932129,0.445801
1480697719964680,-0.15918,-0.929688,0.442871
1480697719978216,-0.152344,-0.927246,0.439941
1480697720002280,-0.151855,-0.925293,0.433105
1480697720023838,-0.155762,-0.916016,0.437012
1480697720054920,-0.150879,-0.916504,0.443848
1480697720076478,-0.158691,-0.90625,0.442383
1480697720107059,-0.146484,-0.903809,0.440918
1480697720120597,-0.140137,-0.91748,0.440918
1480697720144659,-0.139648,-0.921875,0.438477
1480697720167220,-0.150879,-0.919434,0.444336
1480697720174238,-0.161133,-0.912598,0.450195
1480697720181757,-0.149902,-0.916992,0.443848
1480697720204819,-0.147949,-0.92627,0.443359
1480697720225875,-0.148438,-0.934082,0.436035
1480697720247432,-0.148438,-0.927246,0.441406
1480697720263975,-0.155762,-0.932617,0.444824
1480697720285033,-0.153809,-0.931641,0.446777
1480697720301576,-0.149902,-0.924316,0.446777
1480697720331656,-0.15625,-0.913574,0.444824
1480697720353715,-0.150879,-0.915039,0.448242
1480697720375774,-0.150879,-0.914551,0.44873
1480697720385801,-0.149902,-0.907227,0.441406
1480697720405353,-0.144043,-0.905273,0.44043
1480697720430919,-0.144043,-0.90918,0.437988
1480697720443956,-0.145508,-0.910645,0.439941
1480697720472530,-0.145508,-0.914551,0.443359
1480697720483562,-0.145508,-0.916992,0.446777
1480697720504114,-0.152344,-0.92627,0.446777
1480697720532692,-0.152344,-0.926758,0.447754
1480697720542216,-0.147461,-0.926758,0.447266
1480697720566282,-0.148926,-0.928711,0.451172
1480697720586834,-0.154297,-0.934082,0.447754
1480697720609394,-0.15918,-0.926758,0.443848
1480697720631453,-0.148438,-0.919434,0.441895
1480697720652509,-0.137695,-0.913086,0.443848
1480697720675069,-0.139648,-0.911621,0.441895
1480697720684093,-0.148926,-0.911133,0.448242
1480697720706653,-0.147949,-0.915527,0.444336
1480697720731220,-0.13916,-0.912109,0.448242
1480697720745757,-0.139648,-0.90625,0.445313
1480697720774334,-0.141113,-0.908691,0.446289
1480697720787869,-0.151855,-0.920898,0.443848
1480697720803912,-0.163086,-0.917969,0.444824
1480697720826471,-0.150879,-0.929199,0.438477
1480697720842015,-0.147949,-0.944336,0.442871
1480697720874099,-0.147461,-0.931152,0.447266
1480697720901671,-0.156738,-0.924805,0.442871
1480697720904178,-0.160645,-0.921875,0.450684
1480697720925735,-0.15332,-0.921387,0.440918
1480697720961331,-0.14502,-0.922363,0.448242
1480697720975869,-0.146484,-0.911133,0.441895
1480697720984392,-0.153809,-0.904785,0.442383
1480697721006450,-0.150879,-0.913574,0.442383
1480697721028510,-0.143066,-0.910645,0.440918
1480697721046056,-0.145996,-0.900879,0.44043
1480697721067112,-0.149902,-0.909668,0.440918
1480697721087668,-0.147461,-0.922852,0.439453
1480697721105714,-0.148438,-0.927734,0.444336
1480697721127272,-0.157715,-0.928223,0.438477
1480697721147826,-0.150879,-0.926758,0.439453
1480697721172391,-0.152832,-0.928223,0.439941
1480697721192444,-0.155762,-0.924316,0.444824
1480697721209491,-0.157715,-0.93457,0.442871
1480697721237565,-0.153809,-0.931641,0.442383
1480697721254109,-0.150391,-0.918945,0.447266
1480697721267645,-0.144531,-0.912598,0.446777
1480697721284189,-0.146484,-0.907715,0.445801
1480697721312765,-0.151367,-0.913574,0.447266
1480697721329809,-0.147461,-0.91748,0.442383
1480697721344850,-0.141113,-0.907227,0.435059
1480697721366909,-0.13916,-0.907227,0.4375
1480697721387966,-0.140137,-0.916504,0.438965
1480697721404008,-0.144043,-0.921875,0.437988
1480697721427570,-0.152832,-0.929688,0.447266
1480697721465671,-0.155762,-0.931152,0.44043
1480697721470184,-0.152344,-0.936035,0.439941
1480697721510290,-0.157227,-0.927734,0.447754
1480697721515304,-0.17041,-0.932617,0.444824
1480697721524327,-0.163574,-0.919434,0.4375
1480697721546386,-0.153809,-0.924316,0.437012
1480697721568946,-0.146973,-0.919434,0.439453
1480697721583986,-0.148438,-0.910156,0.441406
1480697721606546,-0.151855,-0.909668,0.44873
1480697721630109,-0.158691,-0.902832,0.436035
1480697721644649,-0.144043,-0.905273,0.439941
1480697721681746,-0.153809,-0.907227,0.439453
1480697721689768,-0.155762,-0.91748,0.44043
1480697721703304,-0.151855,-0.912109,0.437012
1480697721726364,-0.154785,-0.924316,0.439941
1480697721756445,-0.149414,-0.935547,0.436035
1480697721763464,-0.14502,-0.926758,0.445313
1480697721787026,-0.158691,-0.924805,0.448242
1480697721817106,-0.162109,-0.933594,0.445801
1480697721837661,-0.163086,-0.936035,0.445801
1480697721846684,-0.150391,-0.933594,0.44873
1480697721869746,-0.143066,-0.918457,0.445313
1480697721883283,-0.135254,-0.907227,0.436523
1480697721906845,-0.145508,-0.907715,0.447754
1480697721929905,-0.155273,-0.90918,0.4375
1480697721950961,-0.148926,-0.914551,0.439941
1480697721966505,-0.145996,-0.912598,0.434082
1480697722005607,-0.146973,-0.916016,0.440918
1480697722011122,-0.145508,-0.919922,0.438965
1480697722026164,-0.152344,-0.922363,0.444336
1480697722050227,-0.159668,-0.93457,0.445313
1480697722070281,-0.161133,-0.936035,0.438965
1480697722088828,-0.151367,-0.929199,0.447754
1480697722109384,-0.158203,-0.92041,0.441406
1480697722129937,-0.157715,-0.932129,0.450684
1480697722146482,-0.161621,-0.924805,0.438477
1480697722171047,-0.15625,-0.916016,0.445313
1480697722190097,-0.149902,-0.905762,0.450684
1480697722213159,-0.151367,-0.914063,0.439941
1480697722237223,-0.144531,-0.91748,0.441406
1480697722250261,-0.144531,-0.911133,0.439941
1480697722266801,-0.150391,-0.90332,0.444824
1480697722298386,-0.154785,-0.913086,0.438965
1480697722311420,-0.152344,-0.925293,0.437988
1480697722326460,-0.137207,-0.919922,0.432617
1480697722350025,-0.146973,-0.918457,0.430176
1480697722372081,-0.152344,-0.929688,0.441406
1480697722386621,-0.158691,-0.939941,0.446289
1480697722415197,-0.164551,-0.942383,0.441406
1480697722432242,-0.162109,-0.916504,0.449219
1480697722448285,-0.158203,-0.911621,0.446777
1480697722469340,-0.157227,-0.920898,0.4375
1480697722504935,-0.140625,-0.925781,0.443359
1480697722516470,-0.146973,-0.919434,0.435547
1480697722528999,-0.147461,-0.907227,0.435059
1480697722566599,-0.149414,-0.899902,0.428711
1480697722569105,-0.138672,-0.911133,0.433594
1480697722590664,-0.155273,-0.915527,0.436035
1480697722619740,-0.149902,-0.932129,0.43457
1480697722625756,-0.145996,-0.921387,0.44043
1480697722649321,-0.144043,-0.922363,0.435059
1480697722672381,-0.151855,-0.927734,0.444824
1480697722694943,-0.162109,-0.931152,0.439453
1480697722717500,-0.155273,-0.942383,0.432617
1480697722732545,-0.155273,-0.933594,0.43457
1480697722752593,-0.146973,-0.931641,0.436035
1480697722769138,-0.154297,-0.924316,0.43457
1480697722793702,-0.158203,-0.919434,0.438965
1480697722805734,-0.15918,-0.907715,0.441406
1480697722829298,-0.14209,-0.913086,0.432617
1480697722851857,-0.150879,-0.916992,0.436035
1480697722872914,-0.145508,-0.922363,0.4375
1480697722896476,-0.154297,-0.914063,0.445313
1480697722912018,-0.150391,-0.922363,0.441406
1480697722932575,-0.166504,-0.911133,0.433594
1480697722949117,-0.145508,-0.918457,0.439941
1480697722972679,-0.15332,-0.927246,0.426758
1480697722992732,-0.13623,-0.942383,0.42627
1480697723009276,-0.148438,-0.956543,0.430664
1480697723032843,-0.17041,-0.931641,0.429688
1480697723069937,-0.160645,-0.915039,0.437988
1480697723071943,-0.144531,-0.928223,0.443359
1480697723091494,-0.141602,-0.930664,0.446289
1480697723120073,-0.144043,-0.92627,0.444336
1480697723129094,-0.155762,-0.900879,0.448242
1480697723151655,-0.147949,-0.894531,0.432617
1480697723172209,-0.139648,-0.900391,0.430176
1480697723189255,-0.144043,-0.915039,0.433594
1480697723211313,-0.150391,-0.922852,0.437988
1480697723232870,-0.159668,-0.915527,0.440918
1480697723248913,-0.155762,-0.916504,0.443359
1480697723272977,-0.152344,-0.928223,0.44043
1480697723292529,-0.148926,-0.932617,0.438477
1480697723309073,-0.151855,-0.932129,0.44043
1480697723332135,-0.158691,-0.931152,0.448242
1480697723370236,-0.158691,-0.92041,0.452637
1480697723375250,-0.146973,-0.908203,0.433594
1480697723391793,-0.141113,-0.936523,0.439941
1480697723427889,-0.15332,-0.934082,0.435059
1480697723452455,-0.140625,-0.921875,0.443359
1480697723457970,-0.154785,-0.903809,0.437012
1480697723481533,-0.15625,-0.892578,0.4375
1480697723488551,-0.146484,-0.905273,0.440918
1480697723511612,-0.145508,-0.911133,0.437988
1480697723534172,-0.148926,-0.930664,0.441406
1480697723548209,-0.147461,-0.926758,0.432129
1480697723571772,-0.147949,-0.925781,0.433105
1480697723593830,-0.151367,-0.928711,0.44043
1480697723608370,-0.157227,-0.939941,0.442383
1480697723631431,-0.149902,-0.936035,0.435547
1480697723653991,-0.150879,-0.938965,0.439453
1480697723677054,-0.147461,-0.928711,0.432129
1480697723703121,-0.144531,-0.914551,0.435059
1480697723728188,-0.147461,-0.915039,0.439941
1480697723743229,-0.150391,-0.911621,0.435059
1480697723757766,-0.145996,-0.910645,0.429688
1480697723781330,-0.146973,-0.911621,0.430176
1480697723788348,-0.151855,-0.91748,0.434082
1480697723819932,-0.143555,-0.917969,0.4375
1480697723848509,-0.150879,-0.921875,0.439941
1480697723855025,-0.149414,-0.92627,0.433594
1480697723877585,-0.150879,-0.924805,0.436035
1480697723895633,-0.150391,-0.930664,0.439453
1480697723915185,-0.143066,-0.933594,0.442871
1480697723931729,-0.144043,-0.945801,0.439453
1480697723961809,-0.15625,-0.949707,0.42334
1480697723976849,-0.163086,-0.950195,0.428223
1480697723997905,-0.138672,-0.922363,0.459473
1480697724014951,-0.139648,-0.895508,0.449219
1480697724036507,-0.162109,-0.918945,0.453125
1480697724058567,-0.133789,-0.937012,0.438965
1480697724081628,-0.152344,-0.893555,0.435059
1480697724102684,-0.151367,-0.866699,0.445313
1480697724111207,-0.151855,-0.902344,0.424316
1480697724136273,-0.150879,-0.921387,0.435059
1480697724155324,-0.144043,-0.936523,0.418945
1480697724171367,-0.144043,-0.928223,0.438477
1480697724193926,-0.155762,-0.916992,0.441895
1480697724214983,-0.150879,-0.915527,0.450684
1480697724232532,-0.153809,-0.935547,0.45459
1480697724254086,-0.154785,-0.944336,0.445313
1480697724293190,-0.156738,-0.947754,0.452148
1480697724297702,-0.153809,-0.921387,0.446289
1480697724314246,-0.146484,-0.90625,0.445313
1480697724337307,-0.14502,-0.904297,0.435547
1480697724359867,-0.144531,-0.916016,0.440918
1480697724374406,-0.150879,-0.918945,0.437988
1480697724396465,-0.140137,-0.90918,0.436523
1480697724411505,-0.142578,-0.914551,0.443848
1480697724434065,-0.13916,-0.908691,0.4375
1480697724456625,-0.147461,-0.916992,0.449219
1480697724471164,-0.145508,-0.928223,0.439453
1480697724494225,-0.14209,-0.937988,0.443359
1480697724555889,-0.14502,-0.931641,0.437988
1480697724558897,-0.14502,-0.943848,0.444824
1480697724578449,-0.149902,-0.945313,0.436523
1480697724582463,-0.146973,-0.922852,0.44043
1480697724592486,-0.145508,-0.916504,0.436035
1480697724614043,-0.14502,-0.927246,0.438477
1480697724644625,-0.144531,-0.925293,0.4375
1480697724652645,-0.137695,-0.912109,0.445313
1480697724676711,-0.143066,-0.895508,0.444824
1480697724697265,-0.136719,-0.904785,0.445801
1480697724711803,-0.13916,-0.912598,0.442871
1480697724733863,-0.142578,-0.915039,0.441895
1480697724756422,-0.142578,-0.912598,0.435547
1480697724784998,-0.13916,-0.925293,0.438477
1480697724809063,-0.144531,-0.925293,0.439941
1480697724847163,-0.144531,-0.921875,0.439941
1480697724849670,-0.148438,-0.925781,0.45166
1480697724859696,-0.140625,-0.928711,0.44043
1480697724882764,-0.148926,-0.940918,0.425293
1480697724897296,-0.147949,-0.950684,0.437012
1480697724914342,-0.149414,-0.915039,0.442383
1480697724936401,-0.129883,-0.868164,0.45166
1480697724957958,-0.146484,-0.901367,0.448242
1480697724975505,-0.141113,-0.940918,0.444336
1480697724997061,-0.139648,-0.918457,0.453613
1480697725025137,-0.145996,-0.89502,0.443359
1480697725035163,-0.140625,-0.896484,0.444336
1480697725064241,-0.140625,-0.90918,0.435059
1480697725084795,-0.140625,-0.926758,0.444336
1480697725115881,-0.14209,-0.927246,0.438965
1480697725124400,-0.150879,-0.931641,0.451172
1480697725163003,-0.150391,-0.918945,0.444824
1480697725168517,-0.144531,-0.924316,0.441406
1480697725176539,-0.149902,-0.936523,0.445801
1480697725197596,-0.152344,-0.927734,0.445313
1480697725214139,-0.154785,-0.920898,0.453125
1480697725236699,-0.148438,-0.917969,0.446777
1480697725259258,-0.139648,-0.919922,0.447266
1480697725274299,-0.143555,-0.918945,0.442383
1480697725302374,-0.148926,-0.911621,0.450684
1480697725326438,-0.142578,-0.906738,0.442383
1480697725341479,-0.130859,-0.911133,0.445313
1480697725364046,-0.133301,-0.904297,0.441895
1480697725408657,-0.143555,-0.915039,0.443848
1480697725425201,-0.147949,-0.932129,0.439453
1480697725440742,-0.144531,-0.933105,0.442871
1480697725443302,-0.152832,-0.924316,0.444824
1480697725461797,-0.154297,-0.930664,0.442871
1480697725476838,-0.151855,-0.933594,0.444336
1480697725499401,-0.144531,-0.937012,0.444336
1480697725514448,-0.147461,-0.922363,0.440918
1480697725536496,-0.141602,-0.921387,0.441895
1480697725559060,-0.148926,-0.911621,0.445313
1480697725604678,-0.145996,-0.903809,0.442871
1480697725620219,-0.143066,-0.909668,0.437988
1480697725626737,-0.141113,-0.907715,0.441895
1480697725641776,-0.145996,-0.915039,0.435059
1480697725665846,-0.149902,-0.921387,0.441895
1480697725693916,-0.139648,-0.92334,0.440918
1480697725696422,-0.143066,-0.918457,0.445313
1480697725716475,-0.141602,-0.921875,0.441406
1480697725746557,-0.146973,-0.924805,0.445801
1480697725760091,-0.151367,-0.935547,0.440918
1480697725778139,-0.148926,-0.935547,0.4375
1480697725799696,-0.150391,-0.92627,0.441895
1480697725820251,-0.146484,-0.92334,0.441406
1480697725836795,-0.150391,-0.924316,0.440918
1480697725866373,-0.148926,-0.916992,0.446777
1480697725887931,-0.145996,-0.90918,0.456543
1480697725899462,-0.15332,-0.916992,0.419922
1480697725920517,-0.156738,-0.927246,0.409668
1480697725957117,-0.147461,-0.918457,0.441406
1480697725959622,-0.131348,-0.878906,0.454102
1480697725979174,-0.152832,-0.905762,0.45459
1480697726002736,-0.136719,-0.95166,0.458008
1480697726017275,-0.151367,-0.931152,0.446777
1480697726038835,-0.151367,-0.934082,0.453125
1480697726067407,-0.15625,-0.907227,0.439453
1480697726077435,-0.154297,-0.912598,0.439941
1480697726098995,-0.158203,-0.931641,0.4375
1480697726120550,-0.141113,-0.936523,0.433105
1480697726144614,-0.150879,-0.924805,0.4375
1480697726159151,-0.148438,-0.907227,0.4375
1480697726197755,-0.15332,-0.910156,0.45166
1480697726202768,-0.158203,-0.918457,0.455078
1480697726225333,-0.141602,-0.900391,0.455078
1480697726242879,-0.144043,-0.908691,0.452148
1480697726262426,-0.147949,-0.913574,0.444336
1480697726279973,-0.150391,-0.919922,0.445313
1480697726301531,-0.149902,-0.915527,0.436523
1480697726317573,-0.158203,-0.91748,0.415527
1480697726339132,-0.154785,-0.949219,0.428711
1480697726370213,-0.117676,-0.925781,0.456543
1480697726376731,-0.149414,-0.927734,0.448242
1480697726399290,-0.145996,-0.946777,0.458984
1480697726421349,-0.163086,-0.919922,0.460449
1480697726460453,-0.159668,-0.911621,0.448242
1480697726462959,-0.165527,-0.923828,0.446289
1480697726483013,-0.148926,-0.90918,0.434082
1480697726508581,-0.127441,-0.918945,0.435547
1480697726520112,-0.14502,-0.915039,0.433105
1480697726549195,-0.143066,-0.89502,0.441895
1480697726556710,-0.149902,-0.883789,0.453613
1480697726579269,-0.153809,-0.901855,0.456543
1480697726601829,-0.14502,-0.930176,0.454102
1480697726615869,-0.150391,-0.929199,0.458984
1480697726638929,-0.15332,-0.92627,0.450195
1480697726661488,-0.156738,-0.926758,0.446289
1480697726697585,-0.15625,-0.92334,0.439941
1480697726708614,-0.144531,-0.922852,0.433594
1480697726731173,-0.152344,-0.921387,0.439453
1480697726749722,-0.146973,-0.934082,0.439453
1480697726760752,-0.156738,-0.929199,0.437988
1480697726804869,-0.146973,-0.922363,0.445801
1480697726810384,-0.150391,-0.905762,0.450684
1480697726820414,-0.151367,-0.893066,0.447754
1480697726841968,-0.14209,-0.901855,0.446777
1480697726862522,-0.143066,-0.916504,0.44043
1480697726879067,-0.14502,-0.914551,0.437012
1480697726901627,-0.144043,-0.923828,0.436523
1480697726922683,-0.148926,-0.923828,0.44043
1480697726940229,-0.146484,-0.926758,0.447754
1480697726961285,-0.154297,-0.929199,0.446289
1480697726982843,-0.146973,-0.925293,0.443848
1480697727001391,-0.151367,-0.934082,0.444824
1480697727035983,-0.152344,-0.930664,0.442871
1480697727050022,-0.148926,-0.931152,0.443359
1480697727059046,-0.158203,-0.92041,0.445313
1480697727081607,-0.154785,-0.916992,0.442383
1480697727102661,-0.14209,-0.90625,0.441895
1480697727119707,-0.142578,-0.908691,0.44043
1480697727141765,-0.158203,-0.921875,0.4375
1480697727163824,-0.144043,-0.921387,0.438965
1480697727178865,-0.154785,-0.904297,0.441406
1480697727202426,-0.14502,-0.907715,0.436035
1480697727247046,-0.13623,-0.921387,0.439941
1480697727249553,-0.145996,-0.928711,0.44043
1480697727292165,-0.157227,-0.933105,0.441895
1480697727294672,-0.15625,-0.932617,0.442871
1480697727307706,-0.154297,-0.935059,0.442383
1480697727335280,-0.152832,-0.923828,0.443848
1480697727351322,-0.154785,-0.962891,0.430664
1480697727373888,-0.143066,-0.921875,0.449219
1480697727396949,-0.147949,-0.90332,0.438477
1480697727434549,-0.145508,-0.918945,0.44873
1480697727437056,-0.160156,-0.910645,0.436035
1480697727442571,-0.141113,-0.91748,0.452637
1480697727465631,-0.142578,-0.899414,0.437012
1480697727485183,-0.14502,-0.902832,0.443848
1480697727501728,-0.147949,-0.913574,0.442871
1480697727524788,-0.143066,-0.919434,0.444336
1480697727538325,-0.144043,-0.931152,0.446777
1480697727583947,-0.13623,-0.928711,0.439453
1480697727589962,-0.146973,-0.938477,0.447754
1480697727612522,-0.153809,-0.925293,0.449707
1480697727623050,-0.155273,-0.918945,0.444336
1480697727644608,-0.147461,-0.922852,0.446777
1480697727665164,-0.147949,-0.933594,0.444336
1480697727682209,-0.154785,-0.927734,0.441406
1480697727710282,-0.151367,-0.918457,0.444824
1480697727742368,-0.141602,-0.913574,0.450195
1480697727744373,-0.143555,-0.900879,0.445313
1480697727764928,-0.144531,-0.898926,0.44873
1480697727787487,-0.143555,-0.910156,0.442871
1480697727809547,-0.140137,-0.916992,0.443848
1480697727839626,-0.142578,-0.913574,0.446777
1480697727868202,-0.146484,-0.911133,0.444824
1480697727899786,-0.150391,-0.921387,0.437012
1480697727902295,-0.147461,-0.938477,0.445801
1480697727922346,-0.147461,-0.936523,0.4375
1480697727924351,-0.144531,-0.923828,0.43457
1480697727944906,-0.144043,-0.928223,0.443848
1480697727967466,-0.145996,-0.925293,0.441895
1480697727981504,-0.148926,-0.92334,0.442383
1480697728004565,-0.144531,-0.92041,0.451172
1480697728025119,-0.147461,-0.915527,0.441406
1480697728042165,-0.139648,-0.90332,0.447266
1480697728071743,-0.13623,-0.904785,0.441895
1480697728092799,-0.142578,-0.909668,0.445801
1480697728139423,-0.145508,-0.913086,0.448242
1480697728141930,-0.143066,-0.922363,0.446289
1480697728147946,-0.144531,-0.912109,0.446777
1480697728178528,-0.138672,-0.921387,0.450684
1480697728197578,-0.143555,-0.922363,0.446289
1480697728206101,-0.146973,-0.929199,0.440918
1480697728220639,-0.148438,-0.928223,0.439453
1480697728250217,-0.145996,-0.931152,0.443848
1480697728266762,-0.148926,-0.925781,0.446777
1480697728290826,-0.147949,-0.924316,0.441895
1480697728306367,-0.141113,-0.925781,0.442383
1480697728329428,-0.145508,-0.918457,0.441406
1480697728347980,-0.14502,-0.91748,0.447266
1480697728371039,-0.145996,-0.901367,0.443848
1480697728377057,-0.143555,-0.900391,0.441895
1480697728395604,-0.135742,-0.912598,0.440918
1480697728416660,-0.13916,-0.911133,0.438477
1480697728447243,-0.146484,-0.915039,0.44043
1480697728468799,-0.150391,-0.924316,0.447266
1480697728498883,-0.146484,-0.934082,0.441406
1480697728501386,-0.148926,-0.928223,0.440918
1480697728513421,-0.14502,-0.924316,0.441895
1480697728528458,-0.148438,-0.927734,0.445801
1480697728557035,-0.150879,-0.933594,0.438965
1480697728581099,-0.146973,-0.924805,0.437012
1480697728589621,-0.152344,-0.928711,0.441895
1480697728609674,-0.146973,-0.916992,0.442871
1480697728634239,-0.150391,-0.913574,0.438477
1480697728675349,-0.149902,-0.912109,0.445801
1480697728694901,-0.144043,-0.909668,0.442871
1480697728697407,-0.144531,-0.906738,0.439453
1480697728762079,-0.138672,-0.908691,0.439941
1480697728768095,-0.139648,-0.916992,0.44873
1480697728778623,-0.149414,-0.924316,0.438965
1480697728784639,-0.149902,-0.927734,0.445313
1480697728790655,-0.15625,-0.929199,0.4375
1480697728819231,-0.152344,-0.931152,0.436035
1480697728834271,-0.151367,-0.931641,0.436523
1480697728849311,-0.152344,-0.932129,0.441406
1480697728872374,-0.15625,-0.929688,0.442383
1480697728903455,-0.15625,-0.923828,0.439941
1480697728909471,-0.142578,-0.916016,0.44043
1480697728935039,-0.147461,-0.916992,0.442383
1480697728973140,-0.149414,-0.911133,0.438965
1480697729001725,-0.149902,-0.910645,0.437988
1480697729004724,-0.140137,-0.905762,0.431641
1480697729032799,-0.143555,-0.899414,0.443359
1480697729045331,-0.143066,-0.913086,0.439941
1480697729068394,-0.14502,-0.928223,0.438965
1480697729083447,-0.145996,-0.935059,0.439453
1480697729089450,-0.158691,-0.931641,0.447266
1480697729112010,-0.15332,-0.917969,0.441895
1480697729134569,-0.149414,-0.924316,0.441406
1480697729149610,-0.145996,-0.934082,0.438965
1480697729197236,-0.154297,-0.933105,0.438965
1480697729199743,-0.160156,-0.925293,0.437012
1480697729209773,-0.150391,-0.92041,0.44043
1480697729231832,-0.143066,-0.921387,0.443848
1480697729257396,-0.14502,-0.911621,0.443359
1480697729279956,-0.153809,-0.900391,0.442383
1480697729291987,-0.149902,-0.908691,0.436035
1480697729314550,-0.144043,-0.914551,0.436523
1480697729332596,-0.14502,-0.91748,0.4375
1480697729353151,-0.144531,-0.917969,0.435547
1480697729375711,-0.148438,-0.929199,0.438965
1480697729389749,-0.14502,-0.930664,0.443359
1480697729411807,-0.150879,-0.93457,0.436523
1480697729434367,-0.152832,-0.933105,0.441406
1480697729449407,-0.15332,-0.932617,0.43457
1480697729471966,-0.151367,-0.926758,0.43457
1480697729504054,-0.150879,-0.932129,0.446289
1480697729526111,-0.161621,-0.943359,0.447266
1480697729535135,-0.169434,-0.946289,0.408691
1480697729557193,-0.15625,-0.931152,0.441406
1480697729587775,-0.115234,-0.852539,0.449219
1480697729599305,-0.141602,-0.864258,0.459961
1480697729614347,-0.168457,-0.908203,0.443848
1480697729632393,-0.15625,-0.942871,0.430664
1480697729651945,-0.155273,-0.936523,0.447266
1480697729674506,-0.156738,-0.912598,0.448242
1480697729691049,-0.155762,-0.904297,0.455566
1480697729728147,-0.166504,-0.92627,0.4375
1480697729743188,-0.161621,-0.932129,0.430664
1480697729750708,-0.150879,-0.935059,0.438965
1480697729815383,-0.152344,-0.928711,0.425781
1480697729841451,-0.155762,-0.930176,0.426758
1480697729855987,-0.15918,-0.90918,0.438477
1480697729870026,-0.144043,-0.917969,0.446777
1480697729880053,-0.148926,-0.921875,0.45166
1480697729892083,-0.161621,-0.938477,0.45752
1480697729916148,-0.166992,-0.936035,0.44873
1480697729931189,-0.175293,-0.901855,0.442383
1480697729953246,-0.149902,-0.878418,0.431152
1480697729974305,-0.133301,-0.886719,0.428711
1480697729992351,-0.138672,-0.899414,0.433105
1480697730019422,-0.157715,-0.943848,0.432129
1480697730034462,-0.158691,-0.943848,0.430176
1480697730053012,-0.162109,-0.941406,0.441406
1480697730072063,-0.165527,-0.913574,0.446777
1480697730110666,-0.168945,-0.916992,0.460449
1480697730133228,-0.17334,-0.917969,0.455078
1480697730148269,-0.165039,-0.925293,0.450195
1480697730154281,-0.158203,-0.918945,0.441895
1480697730173332,-0.148438,-0.911621,0.443848
1480697730191881,-0.152832,-0.901367,0.44043
1480697730221961,-0.145508,-0.904297,0.436523
1480697730232489,-0.155762,-0.910645,0.4375
1480697730255049,-0.148926,-0.913086,0.439453
1480697730291646,-0.157227,-0.925293,0.441895
1480697730299166,-0.158203,-0.933105,0.446289
1480697730319220,-0.156738,-0.933594,0.437988
1480697730334259,-0.152832,-0.92334,0.438965
1480697730360329,-0.157715,-0.924316,0.4375
1480697730389907,-0.163086,-0.929688,0.444824
1480697730401939,-0.161621,-0.925781,0.435059
1480697730426004,-0.156738,-0.921387,0.439941
1480697730448565,-0.160645,-0.92334,0.438477
1480697730456585,-0.154785,-0.92041,0.441895
1480697730478143,-0.150391,-0.919434,0.445801
1480697730492179,-0.147461,-0.911621,0.443359
1480697730521758,-0.148926,-0.905273,0.433105
1480697730539305,-0.150391,-0.912109,0.441895
1480697730551838,-0.153809,-0.920898,0.438477
1480697730590942,-0.153809,-0.921875,0.43457
1480697730596958,-0.149414,-0.917969,0.432129
1480697730613503,-0.137695,-0.927246,0.441406
1480697730637567,-0.151367,-0.927734,0.43457
1480697730665139,-0.161621,-0.934082,0.43457
1480697730682185,-0.15332,-0.937988,0.444824
1480697730694216,-0.147949,-0.935059,0.443848
1480697730716776,-0.152832,-0.931152,0.443848
1480697730740841,-0.161621,-0.917969,0.448242
1480697730761896,-0.160156,-0.911133,0.44873
1480697730776937,-0.15332,-0.905273,0.438477
1480697730793481,-0.145996,-0.912109,0.44043
1480697730814538,-0.140137,-0.90625,0.432617
1480697730839603,-0.143066,-0.908203,0.438477
1480697730853641,-0.145508,-0.921387,0.439453
1480697730874698,-0.149902,-0.928223,0.443848
1480697730898260,-0.147461,-0.909668,0.446289
1480697730922323,-0.158691,-0.915039,0.45166
1480697730964944,-0.150879,-0.92334,0.443359
1480697730989502,-0.152344,-0.936523,0.446777
1480697730998025,-0.157227,-0.932129,0.437012
1480697731011562,-0.155762,-0.916016,0.439941
1480697731033118,-0.165039,-0.919922,0.433594
1480697731041140,-0.145996,-0.921875,0.43457
1480697731054174,-0.147461,-0.923828,0.441406
1480697731076734,-0.148926,-0.915039,0.441895
1480697731094782,-0.134277,-0.886719,0.434082
1480697731114338,-0.15332,-0.911621,0.445313
1480697731136894,-0.146973,-0.949707,0.445313
1480697731169982,-0.150879,-0.915039,0.438477
1480697731174494,-0.154785,-0.893555,0.443848
1480697731197054,-0.149414,-0.898926,0.43457
1480697731222120,-0.151367,-0.930176,0.444824
1480697731237161,-0.145996,-0.937988,0.44873
1480697731256714,-0.171875,-0.931152,0.441406
1480697731276265,-0.162109,-0.933594,0.450684
1480697731294313,-0.152832,-0.919434,0.442871
1480697731316872,-0.147949,-0.912109,0.447266
1480697731334921,-0.149902,-0.915527,0.458984
1480697731354976,-0.162598,-0.92627,0.448242
1480697731377033,-0.166016,-0.909668,0.4375
1480697731400094,-0.14502,-0.903809,0.432129
1480697731419145,-0.138672,-0.909668,0.434082
1480697731439699,-0.147461,-0.903809,0.437012
1480697731454739,-0.160645,-0.90332,0.449707
1480697731523422,-0.166992,-0.899902,0.455078
1480697731544477,-0.15332,-0.915527,0.452148
1480697731559518,-0.149414,-0.925293,0.442383
1480697731562025,-0.160645,-0.927734,0.447754
1480697731575060,-0.164063,-0.928223,0.446777
1480697731596115,-0.166016,-0.929688,0.445313
1480697731634216,-0.159668,-0.928223,0.447754
1480697731636222,-0.147949,-0.918945,0.443848
1480697731670313,-0.15625,-0.913086,0.44873
1480697731684350,-0.161133,-0.915527,0.442383
1480697731694878,-0.151367,-0.911133,0.445801
1480697731721950,-0.159668,-0.909668,0.441895
1480697731744510,-0.148438,-0.908691,0.44043
1480697731790132,-0.141602,-0.90625,0.441895
1480697731822216,-0.147461,-0.907715,0.441895
1480697731824723,-0.157715,-0.918457,0.449707
1480697731831240,-0.166504,-0.931152,0.438477
1480697731843273,-0.135742,-0.93457,0.453125
1480697731856808,-0.130371,-0.922852,0.444824
1480697731879369,-0.17334,-0.91748,0.44873
1480697731897418,-0.171387,-0.938965,0.452148
1480697731916985,-0.180664,-0.952148,0.431152
1480697731947048,-0.164551,-0.932129,0.45166
1480697731962088,-0.140137,-0.902832,0.442871
1480697731977129,-0.143066,-0.908691,0.474609
1480697732002195,-0.154785,-0.905762,0.414063
1480697732024756,-0.15625,-0.904297,0.429688
1480697732044308,-0.152344,-0.890137,0.4375
1480697732068371,-0.171387,-0.921387,0.424805
1480697732077395,-0.14209,-0.940918,0.413086
1480697732096947,-0.135254,-0.916016,0.413086
1480697732127027,-0.162109,-0.935059,0.419922
1480697732142068,-0.17627,-0.924805,0.442871
1480697732157107,-0.18457,-0.924805,0.435059
1480697732179667,-0.162109,-0.945313,0.428223
1480697732197717,-0.152832,-0.937988,0.414551
1480697732224286,-0.162598,-0.958008,0.426758
1480697732240836,-0.154785,-0.930664,0.431152
1480697732258878,-0.150391,-0.925293,0.424316
1480697732276927,-0.151855,-0.910156,0.432129
1480697732308510,-0.15625,-0.920898,0.43457
1480697732332072,-0.15918,-0.921875,0.439941
1480697732337085,-0.15918,-0.912598,0.429688
1480697732359646,-0.15625,-0.916016,0.424805
1480697732377193,-0.150391,-0.911133,0.423828
1480697732404265,-0.15625,-0.905273,0.429199
1480697732426825,-0.154297,-0.91748,0.419922
1480697732437853,-0.164551,-0.937012,0.424805
1480697732456904,-0.166504,-0.953613,0.431152
1480697732479464,-0.171875,-0.927246,0.432129
1480697732499517,-0.159668,-0.932617,0.450684
1480697732518569,-0.147949,-0.978516,0.467285
1480697732556669,-0.15918,-0.951172,0.450195
1480697732558678,-0.161133,-0.914551,0.414063
1480697732580737,-0.176758,-0.86377,0.414551
1480697732606803,-0.186523,-0.878418,0.408691
1480697732617331,-0.168945,-0.925293,0.425293
1480697732639891,-0.181152,-0.924805,0.436035
1480697732659442,-0.169922,-0.883301,0.463379
1480697732677492,-0.136719,-0.935547,0.436035
1480697732698547,-0.180664,-0.922363,0.437012
1480697732720104,-0.171387,-0.917969,0.445313
1480697732737149,-0.125977,-0.922852,0.431641
1480697732764725,-0.106934,-0.904297,0.421875
1480697732789790,-0.123535,-0.931641,0.409668
1480697732797312,-0.125977,-0.928711,0.422852
1480697732820371,-0.143066,-0.958984,0.437988
1480697732839422,-0.151367,-0.927246,0.446289
1480697732857469,-0.179688,-0.92334,0.441895
1480697732886045,-0.162109,-0.930664,0.436523
1480697732899581,-0.154297,-0.928223,0.434082
1480697732924650,-0.15918,-0.916992,0.43457
1480697732939688,-0.146484,-0.902344,0.445801
1480697732962750,-0.144531,-0.903809,0.448242
1480697732977288,-0.158691,-0.91748,0.446289
1480697732999848,-0.160156,-0.915039,0.435059
1480697733019400,-0.147949,-0.908691,0.446777
1480697733119666,-0.147949,-0.92334,0.44043
1480697733121672,-0.152344,-0.945313,0.446289
1480697733156264,-0.160645,-0.938477,0.42334
1480697733163786,-0.153809,-0.931641,0.432617
1480697733193869,-0.149414,-0.918457,0.437988
1480697733199379,-0.145508,-0.909668,0.442383
1480697733217427,-0.147461,-0.902832,0.436523
1480697733239986,-0.140137,-0.902344,0.449707
1480697733259538,-0.152344,-0.908203,0.446777
1480697733282099,-0.147949,-0.90332,0.45166
1480697733299645,-0.142578,-0.911133,0.454102
1480697733327218,-0.152832,-0.921875,0.438477
1480697733367827,-0.162109,-0.933105,0.435059
1480697733373343,-0.156738,-0.955566,0.429688
1480697733386887,-0.147461,-0.946777,0.442383
1480697733409938,-0.128906,-0.898438,0.471191
1480697733427485,-0.162598,-0.848633,0.461426
1480697733444530,-0.168457,-0.922852,0.453125
1480697733462076,-0.166992,-0.946777,0.442383
1480697733479624,-0.149414,-0.964355,0.458496
1480697733500680,-0.164063,-0.933105,0.44873
1480697733529256,-0.163574,-0.888184,0.439941
1480697733539783,-0.155273,-0.897949,0.435059
1480697733562344,-0.144043,-0.909668,0.441406
1480697733581896,-0.151367,-0.912598,0.470703
1480697733599943,-0.150391,-0.954102,0.461426
1480697733622004,-0.166992,-0.915039,0.440918
1480697733651080,-0.149414,-0.892578,0.441895
1480697733675144,-0.154297,-0.883301,0.442871
1480697733688178,-0.141113,-0.903809,0.437012
1480697733721266,-0.15332,-0.948242,0.443359
1480697733726279,-0.156738,-0.950684,0.447754
1480697733741320,-0.165527,-0.932617,0.442871
1480697733769395,-0.164551,-0.902832,0.452148
1480697733779922,-0.168945,-0.902344,0.449219
1480697733802484,-0.160645,-0.925293,0.44873
1480697733829554,-0.152344,-0.919434,0.45166
1480697733846099,-0.154297,-0.899414,0.455078
1480697733863144,-0.149414,-0.893066,0.45459
1480697733881693,-0.155273,-0.897949,0.457031
1480697733899743,-0.154297,-0.915527,0.449219
1480697733922301,-0.146484,-0.930664,0.447266
1480697733945363,-0.135742,-0.922363,0.437988
1480697733973437,-0.140137,-0.907227,0.453613
1480697733982461,-0.150391,-0.895508,0.44873
1480697734005523,-0.163086,-0.935059,0.439941
1480697734027581,-0.173828,-0.970703,0.448242
1480697734052650,-0.16748,-0.95752,0.443848
1480697734072200,-0.145996,-0.908203,0.459473
1480697734100776,-0.155273,-0.906738,0.45752
1480697734110803,-0.174316,-0.913086,0.441406
1480697734129853,-0.140625,-0.902832,0.443848
1480697734139880,-0.128418,-0.891602,0.442383
1480697734162440,-0.137695,-0.878906,0.442383
1480697734189512,-0.158691,-0.916504,0.429688
1480697734200040,-0.154297,-0.958984,0.441895
1480697734228616,-0.183105,-0.922363,0.437988
1480697734246162,-0.151855,-0.895996,0.441406
1480697734288775,-0.144531,-0.914063,0.435547
1480697734309832,-0.151367,-0.934082,0.429688
1480697734327880,-0.145996,-0.925293,0.436035
1480697734331891,-0.158691,-0.921875,0.441406
1480697734357458,-0.149414,-0.930664,0.436523
1480697734361970,-0.145996,-0.933105,0.437012
1480697734380019,-0.160645,-0.915039,0.443848
1480697734402578,-0.179688,-0.92334,0.443359
1480697734423634,-0.171387,-0.932617,0.43457
1480697734440679,-0.156738,-0.92334,0.435059
1480697734462237,-0.154297,-0.902832,0.44043
1480697734499336,-0.130859,-0.89209,0.426758
1480697734504349,-0.125977,-0.919922,0.442871
1480697734522397,-0.159668,-0.918945,0.428223
1480697734544957,-0.136719,-0.920898,0.436035
1480697734583573,-0.149414,-0.921387,0.447266
1480697734588573,-0.15625,-0.929688,0.434082
1480697734603613,-0.160156,-0.942383,0.421387
1480697734640712,-0.159668,-0.947754,0.433594
1480697734649737,-0.160156,-0.947754,0.438965
1480697734663271,-0.162598,-0.929199,0.442871
1480697734684327,-0.171387,-0.92627,0.435547
1480697734702375,-0.166992,-0.913086,0.439941
1480697734725436,-0.149902,-0.907227,0.44043
1480697734744488,-0.158203,-0.914063,0.444824
1480697734762536,-0.157227,-0.926758,0.44043
1480697734801138,-0.160156,-0.922852,0.435059
1480697734827207,-0.160645,-0.900879,0.421875
1480697734842750,-0.128418,-0.915039,0.428223
1480697734859794,-0.139648,-0.909668,0.421875
1480697734864307,-0.150391,-0.92334,0.430664
1480697734882354,-0.166016,-0.931152,0.43457
1480697734909427,-0.16748,-0.933105,0.425781
1480697734927473,-0.151855,-0.9375,0.435547
1480697734942514,-0.156738,-0.93457,0.434082
1480697734966077,-0.154785,-0.931641,0.447754
1480697734984625,-0.164551,-0.928223,0.445313
1480697735002176,-0.172852,-0.92627,0.441406
1480697735032252,-0.159668,-0.921387,0.443848
1480697735052807,-0.156738,-0.914551,0.436523
1480697735062333,-0.150391,-0.915039,0.44043
1480697735114471,-0.14502,-0.90918,0.44043
1480697735121490,-0.157715,-0.892578,0.432617
1480697735126003,-0.161621,-0.901367,0.425781
1480697735147563,-0.166016,-0.945313,0.419434
1480697735164605,-0.147461,-0.931641,0.438965
1480697735181650,-0.154297,-0.893555,0.45166
1480697735204209,-0.151367,-0.91748,0.45166
1480697735225267,-0.158203,-0.94043,0.443848
1480697735241309,-0.181152,-0.958008,0.43457
1480697735264372,-0.188477,-0.969727,0.426758
1480697735286428,-0.138184,-0.918945,0.460938
1480697735301472,-0.140137,-0.831055,0.479492
1480697735324030,-0.154297,-0.886719,0.445801
1480697735346087,-0.176758,-0.913086,0.410156
1480697735370652,-0.154297,-0.942383,0.430176
1480697735392711,-0.155762,-0.949219,0.433594
1480697735414770,-0.162109,-0.905762,0.442383
1480697735422791,-0.161133,-0.90332,0.439453
1480697735444850,-0.165039,-0.915527,0.434082
1480697735464902,-0.157715,-0.927246,0.439453
1480697735481447,-0.15918,-0.939453,0.436035
1480697735504508,-0.161133,-0.941895,0.42334
1480697735525063,-0.171875,-0.927246,0.42334
1480697735547625,-0.163574,-0.930664,0.426758
1480697735564668,-0.157227,-0.956055,0.428223
1480697735587228,-0.17041,-0.94873,0.425293
1480697735601767,-0.168945,-0.910156,0.439941
1480697735631346,-0.163086,-0.916504,0.445801
1480697735670450,-0.161133,-0.911621,0.442383
1480697735674962,-0.150391,-0.931641,0.45166
1480697735683985,-0.165527,-0.90918,0.449219
1480697735714567,-0.154297,-0.884277,0.437988
1480697735727601,-0.149414,-0.875977,0.4375
1480697735744146,-0.153809,-0.880371,0.436523
1480697735766706,-0.147461,-0.924805,0.433105
1480697735780744,-0.145508,-0.943359,0.447754
1480697735809820,-0.164063,-0.924316,0.447754
1480697735826364,-0.171387,-0.913086,0.45752
1480697735841906,-0.178711,-0.92627,0.461426
1480697735865969,-0.174316,-0.9375,0.452637
1480697735887026,-0.159668,-0.93457,0.451172
1480697735907581,-0.146973,-0.92334,0.449219
1480697735924125,-0.148438,-0.910645,0.445801
1480697735947189,-0.15918,-0.915527,0.444336
1480697735969245,-0.177246,-0.907227,0.441895
1480697735984285,-0.153809,-0.902832,0.445801
1480697736012359,-0.147949,-0.904297,0.443848
1480697736027399,-0.149414,-0.900879,0.4375
1480697736043943,-0.154297,-0.915039,0.450195
1480697736074024,-0.164551,-0.925781,0.452148
1480697736081042,-0.164551,-0.933594,0.455078
1480697736104103,-0.174805,-0.922852,0.45166
1480697736134183,-0.155273,-0.92041,0.438477
1480697736140701,-0.156738,-0.92041,0.445313
1480697736164262,-0.15625,-0.929688,0.439941
1480697736224423,-0.15625,-0.921875,0.439941
1480697736230941,-0.164063,-0.918457,0.441895
1480697736247486,-0.162109,-0.918457,0.444336
1480697736267537,-0.161621,-0.900879,0.452637
1480697736293106,-0.15332,-0.905762,0.446289
1480697736307644,-0.145508,-0.904297,0.441895
1480697736337223,-0.146484,-0.915039,0.443359
1480697736344242,-0.150879,-0.916504,0.440918
1480697736366300,-0.162109,-0.910645,0.445801
1480697736390364,-0.160645,-0.916016,0.441895
1480697736403901,-0.162598,-0.918945,0.449707
1480697736426460,-0.164551,-0.932129,0.439941
1480697736463562,-0.156738,-0.943359,0.442871
1480697736489628,-0.163574,-0.928711,0.442383
1480697736494140,-0.162598,-0.921875,0.446777
1480697736507676,-0.162109,-0.916992,0.442871
1480697736524220,-0.15625,-0.919434,0.447266
1480697736547785,-0.158203,-0.916992,0.444824
1480697736567836,-0.15625,-0.912598,0.447266
1480697736583879,-0.15332,-0.914063,0.440918
1480697736606941,-0.15332,-0.903809,0.444824
1480697736630003,-0.152344,-0.907227,0.442871
1480697736644039,-0.156738,-0.911133,0.446289
1480697736666598,-0.155762,-0.914063,0.444336
1480697736690162,-0.149902,-0.91748,0.449707
1480697736728262,-0.15625,-0.919434,0.442383
1480697736751324,-0.151367,-0.925293,0.450684
1480697736779398,-0.160156,-0.930664,0.448242
1480697736781906,-0.163086,-0.930664,0.446777
1480697736795942,-0.160645,-0.918457,0.44043
1480697736808978,-0.15625,-0.923828,0.438965
1480697736823516,-0.148438,-0.935059,0.44043
1480697736846583,-0.147461,-0.932617,0.439453
1480697736869138,-0.151855,-0.911133,0.450684
1480697736883174,-0.160645,-0.896973,0.446777
1480697736906737,-0.155273,-0.894531,0.450684
1480697736929300,-0.147949,-0.905762,0.443359
1480697736966897,-0.149414,-0.91748,0.442383
1480697736970406,-0.151367,-0.925781,0.438965
1480697737018535,-0.155273,-0.923828,0.437012
1480697737028062,-0.154785,-0.916992,0.444336
1480697737049116,-0.158691,-0.909668,0.459961
1480697737051622,-0.157715,-0.911133,0.46875
1480697737063654,-0.165039,-0.93457,0.432617
1480697737092731,-0.150391,-0.94873,0.44043
1480697737115292,-0.144531,-0.929199,0.444824
1480697737131334,-0.17041,-0.914551,0.442383
1480697737146877,-0.172852,-0.915039,0.450195
1480697737169938,-0.160645,-0.905762,0.442383
1480697737189990,-0.154785,-0.908203,0.43457
1480697737206537,-0.154297,-0.920898,0.437012
1480697737229094,-0.148926,-0.943848,0.457031
1480697737250150,-0.168945,-0.935547,0.425293
1480697737274214,-0.161621,-0.904297,0.445313
1480697737296778,-0.15332,-0.876953,0.442871
1480697737317329,-0.157715,-0.890137,0.443848
1480697737326352,-0.144043,-0.91748,0.455078
1480697737349916,-0.150879,-0.932129,0.439453
1480697737369974,-0.178223,-0.943359,0.438965
1480697737397044,-0.166016,-0.930176,0.446289
1480697737416593,-0.163086,-0.924805,0.443359
1480697737438651,-0.161133,-0.907227,0.445313
1480697737447676,-0.165527,-0.918457,0.452637
1480697737469233,-0.164551,-0.917969,0.449219
1480697737490289,-0.163086,-0.914063,0.452637
1480697737507837,-0.166504,-0.904297,0.445801
1480697737530397,-0.158203,-0.902344,0.434082
1480697737558972,-0.150391,-0.914063,0.441895
1480697737574514,-0.154785,-0.913574,0.446777
1480697737613618,-0.15625,-0.906738,0.446777
1480697737628155,-0.159668,-0.915039,0.45166
1480697737632670,-0.168457,-0.920898,0.441406
1480697737649713,-0.167969,-0.931152,0.437988
1480697737673778,-0.161133,-0.938965,0.438477
1480697737686812,-0.160156,-0.936523,0.441406
1480697737708871,-0.168457,-0.924805,0.452637
1480697737732432,-0.149414,-0.908691,0.450684
1480697737752486,-0.140625,-0.918457,0.449219
1480697737770034,-0.163574,-0.92041,0.446289
1480697737792593,-0.154785,-0.876465,0.478027
1480697737806632,-0.188965,-0.894043,0.427734
1480697737829190,-0.1875,-0.947754,0.432129
1480697737857766,-0.160156,-0.915039,0.432129
1480697737905393,-0.155762,-0.907227,0.436523
1480697737918428,-0.166016,-0.904297,0.441895
1480697737934470,-0.162109,-0.912109,0.442871
1480697737936977,-0.14502,-0.920898,0.437988
1480697737957030,-0.162598,-0.938965,0.437988
1480697737971569,-0.157227,-0.937988,0.439941
1480697737994128,-0.15332,-0.915527,0.438965
1480697738017191,-0.160645,-0.92041,0.447754
1480697738060304,-0.159668,-0.921875,0.441406
1480697738069329,-0.180664,-0.945801,0.42041
1480697738083868,-0.177246,-0.966309,0.431152
1480697738114449,-0.13916,-0.881836,0.470703
1480697738116955,-0.180176,-0.843262,0.444824
1480697738135003,-0.196777,-0.943848,0.449707
1480697738167590,-0.162109,-0.945313,0.431641
1480697738172604,-0.154297,-0.933594,0.449707
1480697738189148,-0.154297,-0.888184,0.453125
1480697738213211,-0.150391,-0.87793,0.456543
1480697738249308,-0.162598,-0.899414,0.433105
1480697738256326,-0.152832,-0.928711,0.432129
1480697738271867,-0.163574,-0.950684,0.438965
1480697738293928,-0.165039,-0.949707,0.438965
1480697738308967,-0.170898,-0.925293,0.447266
1480697738331525,-0.175293,-0.897461,0.444824
1480697738352582,-0.161133,-0.901855,0.445313
1480697738392689,-0.172363,-0.920898,0.454102
1480697738413747,-0.167969,-0.924316,0.445313
1480697738446331,-0.161621,-0.912598,0.439453
1480697738451846,-0.163086,-0.897461,0.447266
1480697738454352,-0.165527,-0.910645,0.437988
1480697738472902,-0.149414,-0.913574,0.44043
1480697738489948,-0.154297,-0.902344,0.450684
1480697738511504,-0.158203,-0.912109,0.435547
1480697738534064,-0.151367,-0.914063,0.443848
1480697738556624,-0.16748,-0.921387,0.428711
1480697738586704,-0.166504,-0.939941,0.441406
1480697738596234,-0.183105,-0.939941,0.433594
1480697738616283,-0.183105,-0.949707,0.439453
1480697738638843,-0.171387,-0.922852,0.437012
1480697738668922,-0.15918,-0.911133,0.437988
1480697738671430,-0.149414,-0.912109,0.435547
1480697738691484,-0.146973,-0.918945,0.445313
1480697738730587,-0.155273,-0.917969,0.44043
1480697738743120,-0.177734,-0.910645,0.446289
1480697738753147,-0.176758,-0.907715,0.445313
1480697738781723,-0.157715,-0.90918,0.443359
1480697738788240,-0.155273,-0.915039,0.435547
1480697738811302,-0.152832,-0.917969,0.435059
1480697738833862,-0.160645,-0.921875,0.444824
1480697738849403,-0.16748,-0.925781,0.431152
1480697738872966,-0.174805,-0.933594,0.436523
1480697738895025,-0.170898,-0.936523,0.432129
1480697738915077,-0.160156,-0.9375,0.428711
1480697738939643,-0.157715,-0.928711,0.442871
1480697739007324,-0.171875,-0.919922,0.438965
1480697739016347,-0.175293,-0.915527,0.435059
1480697739030384,-0.155273,-0.927246,0.425781
1480697739034897,-0.146484,-0.916016,0.435547
1480697739052443,-0.166016,-0.902344,0.437012
1480697739074000,-0.171387,-0.894531,0.436523
1480697739095057,-0.164551,-0.905273,0.436035
1480697739118118,-0.164551,-0.92041,0.430664
1480697739141681,-0.160156,-0.922363,0.433594
1480697739162740,-0.163086,-0.933594,0.444336
1480697739177777,-0.167969,-0.942871,0.430664
1480697739199834,-0.16748,-0.929199,0.429688
1480697739216381,-0.169434,-0.918457,0.428711
1480697739238939,-0.17334,-0.931641,0.438965
1480697739268016,-0.163574,-0.938477,0.460938
1480697739297093,-0.183105,-0.931152,0.413086
1480697739308125,-0.149414,-0.918945,0.412598
1480697739314642,-0.160156,-0.877441,0.42041
1480697739334693,-0.179688,-0.916992,0.441406
1480697739351237,-0.151855,-0.954102,0.419922
1480697739374299,-0.15918,-0.916992,0.410156
1480697739394855,-0.17041,-0.898438,0.429688
1480697739411397,-0.163574,-0.911621,0.429199
1480697739433958,-0.17334,-0.950684,0.431152
1480697739455514,-0.183594,-0.949707,0.428711
1480697739471557,-0.166016,-0.935059,0.425781
1480697739496626,-0.153809,-0.910645,0.424316
1480697739517680,-0.166992,-0.94043,0.436035
1480697739554277,-0.182129,-0.951172,0.433594
1480697739557787,-0.168457,-0.938965,0.427734
1480697739609426,-0.14502,-0.9375,0.437012
1480697739613440,-0.157715,-0.949707,0.436523
1480697739628976,-0.175293,-0.900879,0.42627
1480697739636496,-0.172852,-0.859375,0.445801
1480697739651536,-0.183594,-0.865723,0.444336
1480697739674096,-0.159668,-0.90918,0.42627
1480697739696657,-0.147461,-0.936523,0.428711
1480697739710693,-0.150391,-0.936523,0.434082
1480697739747792,-0.16748,-0.915039,0.42627
1480697739756315,-0.164063,-0.902344,0.428223
1480697739800432,-0.15918,-0.908691,0.432129
1480697739824495,-0.175293,-0.937012,0.436035
1480697739827003,-0.180664,-0.953613,0.439941
1480697739840539,-0.172363,-0.927246,0.442871
1480697739860090,-0.166992,-0.923828,0.444824
1480697739884656,-0.164063,-0.924316,0.441895
1480697739897691,-0.147949,-0.913086,0.439941
1480697739921755,-0.145508,-0.909668,0.448242
1480697739937797,-0.160645,-0.912109,0.435059
1480697739951390,-0.17041,-0.919922,0.431641
1480697739979913,-0.171875,-0.913086,0.420898
1480697740020518,-0.161133,-0.906738,0.431152
1480697740025029,-0.156738,-0.907715,0.42627
1480697740034053,-0.161133,-0.910645,0.435547
1480697740071653,-0.152832,-0.92627,0.440918
1480697740077168,-0.165039,-0.930664,0.437012
1480697740102235,-0.171387,-0.937012,0.440918
1480697740122288,-0.174316,-0.935547,0.438477
1480697740145349,-0.177246,-0.933105,0.435547
1480697740161393,-0.178223,-0.936523,0.443848
1480697740176432,-0.170898,-0.935059,0.433105
1480697740197989,-0.170898,-0.918945,0.439453
1480697740224559,-0.152344,-0.911133,0.43457
1480697740236591,-0.150391,-0.907715,0.434082
1480697740260154,-0.154785,-0.910645,0.430664
1480697740305274,-0.15332,-0.907227,0.439453
1480697740309786,-0.158203,-0.914551,0.437988
1480697740321317,-0.157227,-0.912109,0.430664
1480697740347386,-0.161133,-0.912598,0.432129
1480697740356410,-0.155762,-0.919922,0.435059
1480697740394511,-0.149902,-0.937012,0.430664
1480697740400027,-0.162598,-0.937012,0.430176
1480697740417573,-0.162598,-0.930176,0.435547
1480697740440635,-0.1875,-0.933105,0.439453
1480697740453168,-0.193359,-0.929688,0.438965
1480697740476733,-0.177734,-0.928711,0.432129
1480697740499791,-0.157715,-0.915527,0.432129
1480697740513829,-0.154297,-0.911621,0.432129
1480697740549925,-0.153809,-0.914551,0.442871
1480697740564965,-0.157715,-0.905273,0.434082
1480697740581007,-0.158691,-0.912109,0.43457
1480697740602566,-0.152344,-0.911621,0.431641
1480697740626629,-0.154297,-0.907227,0.431641
1480697740633147,-0.157227,-0.911133,0.431152
1480697740662728,-0.161133,-0.92041,0.436523
1480697740679271,-0.162598,-0.929688,0.441895
1480697740693306,-0.169434,-0.9375,0.439453
1480697740716368,-0.160156,-0.926758,0.437012
1480697740740432,-0.157227,-0.92627,0.437988
1480697740761989,-0.161621,-0.933105,0.438965
1480697740776531,-0.163574,-0.922363,0.432617
1480697740799088,-0.167969,-0.922363,0.438965
1480697740813128,-0.164063,-0.92041,0.437988
1480697740836688,-0.158691,-0.916992,0.431152
1480697740865264,-0.154785,-0.908203,0.435059
1480697740880304,-0.15625,-0.908203,0.439941
1480697740902864,-0.160156,-0.912109,0.431641
1480697740918907,-0.163086,-0.90918,0.435547
1480697740941475,-0.163574,-0.914551,0.436523
1480697740972558,-0.160156,-0.924316,0.43457
1480697740980579,-0.162598,-0.936035,0.443848
1480697741000131,-0.173828,-0.935547,0.44043
1480697741017177,-0.162598,-0.935547,0.430176
1480697741039235,-0.154297,-0.930176,0.434082
1480697741060290,-0.174805,-0.935547,0.435059
1480697741076334,-0.178711,-0.937988,0.448242
1480697741098893,-0.169434,-0.919434,0.445313
1480697741122458,-0.164063,-0.900879,0.441895
1480697741136494,-0.156738,-0.903809,0.436035
1480697741161060,-0.154297,-0.912109,0.433105
1480697741182115,-0.158691,-0.910645,0.44043
1480697741196153,-0.172852,-0.92334,0.430176
1480697741219213,-0.159668,-0.913086,0.430664
1480697741240270,-0.15332,-0.912598,0.435547
1480697741263833,-0.17334,-0.929688,0.420898
1480697741286392,-0.169434,-0.939941,0.428711
1480697741307448,-0.161621,-0.921387,0.436035
1480697741317976,-0.154785,-0.92627,0.446777
1480697741339032,-0.176758,-0.914063,0.442871
1480697741360590,-0.187012,-0.931641,0.446777
1480697741378638,-0.181152,-0.934082,0.445801
1480697741399192,-0.168945,-0.922852,0.473633
1480697741436293,-0.176758,-0.908203,0.46875
1480697741445315,-0.16748,-0.89502,0.45752
1480697741460354,-0.164551,-0.899902,0.46582
1480697741490936,-0.171875,-0.896973,0.452637
1480697741496952,-0.15625,-0.910645,0.459473
1480697741534051,-0.165527,-0.901367,0.447754
1480697741541070,-0.178223,-0.891113,0.445801
1480697741557113,-0.188477,-0.90332,0.437988
1480697741580675,-0.166016,-0.916992,0.446777
1480697741610254,-0.166992,-0.934082,0.455078
1480697741615768,-0.170898,-0.915039,0.460938
1480697741638830,-0.15625,-0.905762,0.466797
1480697741661389,-0.175293,-0.916016,0.473633
1480697741675929,-0.185059,-0.929688,0.463379
1480697741712528,-0.177246,-0.919434,0.439453
1480697741723555,-0.181641,-0.901855,0.441895
1480697741744110,-0.174316,-0.90332,0.447754
1480697741772685,-0.165039,-0.919434,0.44043
1480697741787224,-0.161133,-0.908691,0.441895
1480697741826829,-0.170898,-0.884277,0.458008
1480697741829336,-0.174805,-0.891113,0.463867
1480697741841369,-0.162598,-0.90332,0.463379
1480697741862925,-0.158691,-0.913086,0.458496
1480697741887490,-0.164063,-0.905762,0.450195
1480697741901527,-0.176758,-0.91748,0.455566
1480697741923085,-0.171387,-0.92627,0.451172
1480697741952664,-0.168457,-0.928711,0.450195
1480697741994777,-0.172852,-0.920898,0.447754
1480697741999790,-0.180176,-0.919434,0.444824
1480697742001794,-0.174805,-0.929199,0.444336
1480697742029370,-0.172852,-0.927734,0.451172
1480697742042403,-0.161621,-0.899414,0.45752
1480697742059949,-0.164551,-0.896484,0.451172
1480697742082008,-0.172363,-0.898926,0.459473
1480697742102563,-0.172852,-0.902832,0.453125
1480697742120612,-0.15625,-0.895996,0.448242
1480697742141667,-0.166016,-0.901855,0.449707
1480697742162726,-0.171387,-0.923828,0.441406
1480697742188291,-0.174316,-0.928711,0.429688
1480697742208845,-0.160156,-0.936523,0.438477
1480697742222463,-0.175781,-0.900879,0.442871
1480697742252542,-0.182129,-0.907715,0.440918
1480697742267582,-0.182617,-0.933105,0.441406
1480697742299669,-0.17627,-0.958008,0.442871
1480697742302175,-0.182617,-0.942383,0.409668
1480697742321727,-0.144043,-0.921387,0.447266
1480697742344788,-0.160645,-0.883301,0.439941
1480697742359327,-0.188477,-0.929199,0.446777
1480697742381387,-0.165039,-0.974121,0.431152
1480697742403947,-0.17041,-0.950684,0.404297
1480697742426506,-0.191895,-0.915039,0.422852
1480697742441546,-0.191406,-0.867676,0.410156
1480697742470122,-0.145996,-0.884766,0.415039
1480697742478143,-0.174805,-0.896484,0.415039
1480697742509226,-0.15918,-0.94043,0.40918
1480697742524265,-0.169922,-0.943359,0.410156
1480697742544820,-0.165039,-0.934082,0.410645
1480697742568884,-0.160156,-0.936523,0.418457
1480697742598963,-0.164063,-0.935059,0.428711
1480697742601471,-0.165039,-0.935059,0.432129
1480697742621524,-0.173828,-0.931152,0.427734
1480697742652105,-0.172852,-0.921387,0.424805
1480697742658122,-0.175293,-0.924805,0.419922
1480697742689204,-0.180176,-0.92334,0.413574
1480697742718782,-0.171387,-0.923828,0.414551
1480697742721289,-0.15918,-0.914063,0.425293
1480697742749364,-0.15918,-0.909668,0.413086
1480697742769918,-0.158691,-0.916992,0.421875
1480697742792478,-0.155273,-0.908203,0.415527
1480697742809023,-0.165039,-0.91748,0.418457
1480697742824063,-0.175781,-0.952148,0.42334
1480697742845119,-0.190918,-0.946777,0.420898
1480697742876702,-0.193848,-0.951172,0.413574
1480697742891743,-0.185547,-0.943848,0.401855
1480697742904777,-0.159668,-0.925293,0.424805
1480697742921321,-0.174316,-0.922363,0.427734
1480697742943881,-0.172363,-0.918945,0.422363
1480697742964938,-0.169434,-0.93457,0.424805
1480697742981482,-0.180176,-0.936035,0.428711
1480697743004041,-0.163574,-0.927246,0.416504
1480697743026601,-0.151855,-0.910645,0.410156
1480697743047657,-0.162598,-0.897949,0.413086
1480697743070718,-0.164063,-0.912109,0.418945
1480697743085758,-0.167969,-0.929688,0.428223
1480697743102302,-0.181641,-0.944824,0.425781
1480697743123860,-0.177734,-0.941406,0.424316
1480697743146922,-0.169922,-0.930176,0.422852
1480697743176499,-0.154297,-0.933105,0.420898
1480697743191539,-0.154785,-0.933594,0.41748
1480697743204574,-0.169434,-0.938965,0.416016
1480697743221620,-0.191895,-0.939453,0.411621
1480697743244180,-0.185059,-0.927734,0.415039
1480697743266238,-0.164063,-0.926758,0.416504
1480697743295318,-0.156738,-0.927734,0.429199
1480697743303838,-0.165527,-0.913086,0.416504
1480697743333918,-0.162109,-0.904785,0.4375
1480697743342442,-0.186523,-0.923828,0.402344
1480697743372022,-0.187988,-0.942383,0.401855
1480697743386559,-0.15918,-0.918945,0.42041
1480697743401096,-0.154785,-0.892578,0.430664
1480697743444713,-0.164551,-0.914551,0.425293
1480697743463264,-0.171387,-0.921875,0.418457
1480697743472788,-0.166504,-0.935547,0.42627
1480697743483817,-0.171875,-0.946777,0.437012
1480697743506377,-0.17041,-0.954102,0.447266
1480697743527935,-0.180664,-0.902344,0.449707
1480697743544505,-0.187012,-0.889648,0.45166
1480697743566537,-0.191895,-0.907227,0.435059
1480697743588596,-0.17334,-0.919922,0.435059
1480697743609151,-0.17627,-0.924805,0.429688
1480697743627199,-0.175781,-0.915527,0.425293
1480697743656275,-0.172852,-0.907715,0.428711
1480697743663795,-0.168457,-0.912598,0.430664
1480697743686356,-0.162109,-0.911621,0.431641
1480697743702398,-0.160156,-0.916016,0.435547
1480697743724456,-0.166016,-0.924805,0.433105
1480697743747017,-0.181152,-0.937012,0.443848
1480697743769076,-0.184082,-0.939453,0.438477
1480697743785620,-0.173828,-0.930176,0.426758
1480697743806677,-0.17627,-0.922852,0.432129
1480697743827733,-0.164551,-0.923828,0.432617
1480697743843774,-0.162598,-0.931641,0.442383
1480697743866334,-0.172852,-0.930664,0.421875
1480697743887891,-0.17627,-0.920898,0.427734
1480697743904435,-0.175781,-0.912598,0.418945
1480697743926493,-0.163574,-0.913086,0.438477
1480697743955070,-0.178223,-0.909668,0.440918
1480697743979138,-0.183594,-0.92041,0.438965
1480697743986654,-0.188477,-0.912109,0.419922
1480697744015231,-0.182129,-0.91748,0.416016
1480697744024254,-0.169434,-0.916992,0.432129
1480697744046313,-0.160645,-0.92041,0.43457
1480697744067368,-0.166016,-0.922363,0.437988
1480697744083913,-0.172363,-0.933105,0.443848
1480697744106974,-0.190918,-0.929688,0.428223
1480697744127529,-0.174805,-0.919922,0.43457
1480697744144574,-0.179688,-0.94043,0.419434
1480697744166633,-0.172852,-0.933105,0.427734
1480697744187688,-0.175781,-0.913086,0.432617
1480697744211756,-0.169922,-0.912598,0.439941
1480697744241332,-0.171387,-0.912109,0.431641
1480697744262387,-0.173828,-0.88916,0.445801
1480697744277427,-0.180664,-0.884277,0.44873
1480697744299987,-0.17041,-0.920898,0.45166
1480697744309012,-0.182129,-0.943359,0.43457
1480697744325053,-0.183105,-0.931152,0.45166
1480697744347614,-0.197266,-0.934082,0.4375
1480697744371678,-0.186523,-0.94873,0.448242
1480697744383710,-0.226074,-0.958008,0.4375
1480697744407775,-0.239258,-0.922852,0.383789
1480697744429331,-0.19043,-0.939453,0.400879
1480697744443368,-0.106934,-0.914063,0.47168
1480697744466931,-0.104004,-0.855957,0.506348
1480697744488990,-0.126953,-0.811035,0.510742
1480697744511550,-0.151855,-0.806152,0.515137
1480697744526590,-0.123535,-0.839355,0.523438
1480697744549651,-0.144531,-0.896484,0.494141
1480697744572212,-0.153809,-0.919922,0.504395
1480697744587252,-0.188965,-0.913086,0.469727
1480697744625352,-0.210938,-0.93457,0.440918
1480697744632873,-0.213867,-0.907715,0.416504
1480697744646411,-0.18457,-0.895996,0.425781
1480697744668969,-0.17334,-0.882813,0.433105
1480697744685011,-0.158203,-0.933105,0.469238
1480697744721608,-0.183594,-0.963379,0.424316
1480697744729128,-0.20166,-0.933105,0.433105
1480697744750184,-0.191895,-0.927734,0.442871
1480697744766228,-0.193359,-0.924805,0.445313
1480697744835410,-0.155273,-0.920898,0.475586
1480697744855464,-0.157715,-0.917969,0.44873
1480697744895574,-0.178711,-0.89502,0.427246
1480697744901587,-0.181641,-0.900391,0.434082
1480697744909107,-0.157715,-0.934082,0.443848
1480697744930163,-0.19043,-0.907715,0.418457
1480697744946707,-0.191406,-0.943359,0.41748
1480697744971273,-0.147949,-0.920898,0.469727
1480697744989821,-0.182617,-0.902344,0.442383
1480697745006365,-0.18457,-0.926758,0.470703
1480697745028925,-0.179199,-0.986816,0.405762
1480697745066024,-0.177734,-0.933105,0.449219
1480697745074046,-0.200684,-0.845215,0.447754
1480697745112149,-0.182617,-0.847656,0.460449
1480697745118664,-0.175293,-0.916016,0.432617
1480697745150249,-0.148926,-0.966309,0.41748
1480697745155262,-0.174805,-0.928223,0.414551
1480697745171806,-0.175781,-0.928711,0.42334
1480697745187347,-0.131836,-0.881348,0.478516
1480697745208904,-0.143555,-0.812988,0.447266
1480697745231465,-0.183594,-0.941895,0.453613
1480697745246504,-0.17041,-0.964844,0.435547
1480697745270067,-0.209473,-0.934082,0.453125
1480697745291626,-0.218262,-0.914063,0.438477
1480697745305661,-0.178711,-0.922363,0.4375
1480697745345773,-0.152832,-0.916504,0.432129
1480697745388883,-0.145996,-0.932617,0.442871
1480697745403421,-0.181641,-0.9375,0.437988
1480697745426985,-0.191895,-0.90625,0.444336
1480697745428490,-0.184082,-0.939453,0.418457
1480697745434505,-0.168945,-0.940918,0.425293
1480697745449043,-0.110352,-0.880371,0.469238
1480697745471604,-0.122559,-0.80127,0.486328
1480697745485640,-0.184082,-0.841309,0.455078
1480697745510707,-0.210449,-0.952148,0.449219
1480697745532264,-0.174316,-0.996582,0.440918
1480697745553822,-0.160645,-0.939941,0.453125
1480697745568862,-0.174316,-0.894043,0.452637
1480697745598941,-0.162109,-0.913574,0.441406
1480697745629021,-0.184082,-0.949219,0.421875
1480697745665117,-0.179199,-0.943359,0.429199
1480697745679657,-0.170898,-0.906738,0.435059
1480697745689683,-0.169434,-0.924316,0.439453
1480697745692189,-0.166016,-0.913086,0.429199
1480697745712246,-0.169434,-0.898926,0.437988
1480697745732295,-0.174805,-0.910156,0.455566
1480697745748840,-0.177734,-0.922363,0.459473
1480697745771400,-0.175781,-0.910645,0.451172
1480697745792455,-0.175781,-0.893066,0.442871
1480697745809502,-0.181152,-0.896973,0.438965
1480697745831560,-0.173828,-0.90918,0.434082
1480697745854120,-0.172363,-0.928223,0.435059
1480697745876680,-0.163574,-0.921387,0.441406
1480697745898738,-0.169922,-0.910645,0.442871
1480697745921300,-0.164551,-0.923828,0.449219
1480697745942355,-0.183105,-0.931152,0.437988
1480697745951379,-0.1875,-0.935547,0.439453
1480697745979955,-0.178711,-0.922363,0.44873
1480697745988979,-0.177246,-0.917969,0.446289
1480697746011541,-0.17627,-0.922852,0.43457
1480697746032595,-0.177734,-0.911133,0.437988
1480697746049139,-0.167969,-0.89502,0.439453
1480697746073203,-0.166504,-0.899902,0.441406
1480697746092755,-0.179199,-0.912109,0.422852
1480697746108297,-0.173828,-0.919434,0.432617
1480697746131357,-0.184082,-0.918457,0.42627
1480697746154427,-0.172852,-0.92627,0.439453
1480697746199037,-0.185059,-0.914063,0.430176
1480697746208062,-0.179688,-0.913086,0.43457
1480697746214077,-0.169922,-0.939941,0.443848
1480697746229118,-0.183594,-0.929688,0.424316
1480697746251677,-0.179688,-0.944336,0.438965
1480697746274238,-0.177734,-0.945801,0.454102
1480697746288275,-0.194824,-0.92041,0.42627
1480697746311336,-0.17334,-0.900391,0.428711
1480697746333896,-0.181641,-0.893066,0.444824
1480697746348937,-0.168945,-0.900879,0.442383
1480697746371997,-0.163574,-0.902344,0.441895
1480697746409096,-0.180176,-0.898438,0.442871
1480697746411605,-0.17334,-0.900391,0.441895
1480697746431656,-0.159668,-0.915039,0.459961
1480697746453715,-0.173828,-0.919922,0.456543
1480697746491314,-0.185059,-0.913086,0.458496
1480697746500338,-0.186523,-0.92334,0.439453
1480697746513874,-0.201172,-0.926758,0.422363
1480697746528414,-0.183594,-0.928711,0.425293
1480697746559496,-0.17041,-0.924316,0.439941
1480697746575039,-0.169922,-0.927246,0.448242
1480697746588573,-0.195313,-0.931641,0.45166
1480697746611639,-0.202148,-0.905762,0.441895
1480697746634195,-0.179688,-0.89209,0.441406
1480697746656254,-0.162598,-0.908203,0.446289
1480697746686333,-0.172363,-0.907715,0.44873
1480697746709897,-0.174805,-0.899414,0.437012
1480697746729948,-0.190918,-0.921387,0.440918
1480697746739975,-0.186523,-0.916992,0.441406
1480697746761532,-0.185059,-0.913574,0.435547
1480697746775069,-0.174805,-0.917969,0.436523
1480697746791613,-0.183105,-0.913574,0.430176
1480697746814173,-0.178711,-0.927246,0.449707
1480697746836231,-0.178711,-0.904297,0.453125
1480697746851271,-0.188965,-0.929688,0.464355
1480697746873832,-0.211914,-0.935059,0.469727
1480697746898397,-0.205566,-0.910156,0.44873
1480697746911432,-0.183105,-0.90625,0.439941
1480697746934994,-0.182617,-0.917969,0.448242
1480697746964071,-0.193848,-0.895508,0.442383
1480697747002172,-0.165527,-0.875,0.45166
1480697747004680,-0.156738,-0.881348,0.461426
1480697747024232,-0.180664,-0.899414,0.461914
1480697747046290,-0.181152,-0.884277,0.460938
1480697747061332,-0.168457,-0.89209,0.476563
1480697747076371,-0.183594,-0.899414,0.459961
1480697747092412,-0.181152,-0.920898,0.462891
1480697747113971,-0.192383,-0.914063,0.455566
1480697747136530,-0.185059,-0.92627,0.45459
1480697747152074,-0.189453,-0.915039,0.460938
1480697747174131,-0.19043,-0.899902,0.451172
1480697747196690,-0.177734,-0.908691,0.452637
1480697747217747,-0.183594,-0.916992,0.447754
1480697747242312,-0.179199,-0.920898,0.458496
1480697747278908,-0.175293,-0.898926,0.463379
1480697747295452,-0.183594,-0.896484,0.460449
1480697747299965,-0.19043,-0.888672,0.458984
1480697747317010,-0.180176,-0.889648,0.463379
1480697747331047,-0.17041,-0.903809,0.458984
1480697747354610,-0.168945,-0.911133,0.462402
1480697747376668,-0.189453,-0.907227,0.452148
1480697747405245,-0.191406,-0.901367,0.463379
1480697747414770,-0.185547,-0.893555,0.465332
1480697747443847,-0.177734,-0.898926,0.462891
1480697747450866,-0.181641,-0.893555,0.462402
1480697747474931,-0.201172,-0.899902,0.457031
1480697747496988,-0.155273,-0.900391,0.474121
1480697747519047,-0.200195,-0.900879,0.449219
1480697747534588,-0.213379,-0.936523,0.458496
1480697747572190,-0.199707,-0.961914,0.435547
1480697747602268,-0.188477,-0.921387,0.437012
1480697747604274,-0.193359,-0.908691,0.409668
1480697747630844,-0.179688,-0.914551,0.407715
1480697747646386,-0.171875,-0.94043,0.399902
1480697747653906,-0.174316,-0.937012,0.391602
1480697747692007,-0.177246,-0.912109,0.412109
1480697747698023,-0.188477,-0.912598,0.427246
1480697747715570,-0.20166,-0.921387,0.438477
1480697747737127,-0.193848,-0.942383,0.440918
1480697747765201,-0.171387,-0.937988,0.447754
1480697747791271,-0.182617,-0.924316,0.453613
1480697747796284,-0.19043,-0.915039,0.427734
1480697747818845,-0.182617,-0.934082,0.433594
1480697747850429,-0.192383,-0.936035,0.421875
1480697747865468,-0.178711,-0.906738,0.42041
1480697747894551,-0.174805,-0.899414,0.42627
1480697747897053,-0.179688,-0.916016,0.418945
1480697747925628,-0.17627,-0.90625,0.418945
1480697747938663,-0.155762,-0.910156,0.439453
1480697747971249,-0.172852,-0.914063,0.447266
1480697747977768,-0.188477,-0.909668,0.445313
1480697747997319,-0.183105,-0.933105,0.42627
1480697748014866,-0.178711,-0.938965,0.432617
1480697748036924,-0.186523,-0.923828,0.438965
1480697748058983,-0.178223,-0.923828,0.440918
1480697748074524,-0.178711,-0.926758,0.437988
1480697748097085,-0.173828,-0.902832,0.458496
1480697748120146,-0.186523,-0.914551,0.44873
1480697748164262,-0.181641,-0.926758,0.442871
1480697748166769,-0.191895,-0.915039,0.440918
1480697748195345,-0.19043,-0.913086,0.438965
1480697748203870,-0.185547,-0.89209,0.4375
1480697748216903,-0.174805,-0.89502,0.437012
1480697748238961,-0.16748,-0.90332,0.436523
1480697748260018,-0.175293,-0.906738,0.430664
1480697748276561,-0.171875,-0.916504,0.441895
1480697748300124,-0.171875,-0.899902,0.440918
1480697748313159,-0.17627,-0.899414,0.444824
1480697748350259,-0.171875,-0.92041,0.449707
1480697748360285,-0.177734,-0.936035,0.446289
1480697748379836,-0.180664,-0.934082,0.4375
1480697748397383,-0.16748,-0.941895,0.461914
1480697748425965,-0.191406,-0.893555,0.455566
1480697748433485,-0.186523,-0.900391,0.45166
1480697748463063,-0.178711,-0.927246,0.461426
1480697748479608,-0.178711,-0.90625,0.463867
1480697748493146,-0.180176,-0.896973,0.455566
1480697748522722,-0.181641,-0.910156,0.458984
1480697748541272,-0.184082,-0.899902,0.445313
1480697748559821,-0.182129,-0.910156,0.446289
1480697748576365,-0.174805,-0.893555,0.439453
1480697748598924,-0.166016,-0.904297,0.452148
1480697748620482,-0.175781,-0.912598,0.461426
1480697748636024,-0.174805,-0.921387,0.461914
1480697748676632,-0.189453,-0.919922,0.458008
1480697748680141,-0.180664,-0.912598,0.452148
1480697748702200,-0.175781,-0.911133,0.456543
1480697748726263,-0.187988,-0.926758,0.447754
1480697748739799,-0.1875,-0.91748,0.456055
1480697748758349,-0.188477,-0.906738,0.446289
1480697748779406,-0.179199,-0.895508,0.452148
1480697748799959,-0.170898,-0.893555,0.455566
1480697748817005,-0.169434,-0.897949,0.461426
1480697748839064,-0.170898,-0.895996,0.466797
1480697748860621,-0.17334,-0.904297,0.464844
1480697748876163,-0.17041,-0.895996,0.476563
1480697748905239,-0.175293,-0.895996,0.46875
1480697748919778,-0.158691,-0.896973,0.468262
1480697748936322,-0.180176,-0.924316,0.452637
1480697748973923,-0.183105,-0.926758,0.43457
1480697748990967,-0.166016,-0.919922,0.442871
1480697749004002,-0.18457,-0.910645,0.45459
1480697749019043,-0.197266,-0.901367,0.444824
1480697749043108,-0.189941,-0.95752,0.437988
1480697749065667,-0.201172,-0.938965,0.436523
1480697749079704,-0.184082,-0.910645,0.441895
1480697749101261,-0.172363,-0.894531,0.45166
1480697749115799,-0.174805,-0.890625,0.450684
1480697749140866,-0.17334,-0.906738,0.446289
1480697749161922,-0.178223,-0.914063,0.445801
1480697749182476,-0.164551,-0.918945,0.456055
1480697749199021,-0.176758,-0.911133,0.449219
1480697749237623,-0.181641,-0.911621,0.45166
1480697749260184,-0.189453,-0.916016,0.458008
1480697749266199,-0.188477,-0.902344,0.449707
1480697749287757,-0.175293,-0.924805,0.429688
1480697749296280,-0.183105,-0.948242,0.435059
1480697749319842,-0.193359,-0.933594,0.43457
1480697749341400,-0.180176,-0.915039,0.436035
1480697749355938,-0.178223,-0.902832,0.446289
1480697749381006,-0.169434,-0.916504,0.4375
1480697749402061,-0.166016,-0.923828,0.439941
1480697749422615,-0.192871,-0.907227,0.438477
1480697749439160,-0.188965,-0.879883,0.452637
1480697749461719,-0.186523,-0.912109,0.432617
1480697749483276,-0.189453,-0.914551,0.442383
1480697749484781,-0.199707,-0.918945,0.434082
1480697749508846,-0.182617,-0.924316,0.438477
1480697749538424,-0.169434,-0.907227,0.441895
1480697749557975,-0.153809,-0.896484,0.44873
1480697749566000,-0.162598,-0.917969,0.441895
1480697749587052,-0.178223,-0.952637,0.443359
1480697749618136,-0.193359,-0.950684,0.440918
1480697749624654,-0.194824,-0.913574,0.44043
1480697749655745,-0.180176,-0.914551,0.443359
1480697749669271,-0.180664,-0.904785,0.439453
1480697749691831,-0.177734,-0.908691,0.443848
1480697749718402,-0.179199,-0.918457,0.439941
1480697749729433,-0.17627,-0.909668,0.441895
1480697749744473,-0.174316,-0.898438,0.442383
1480697749783074,-0.185547,-0.896973,0.436523
1480697749789591,-0.166504,-0.918945,0.443359
1480697749811649,-0.180176,-0.922852,0.431152
1480697749828194,-0.17627,-0.919922,0.433594
1480697749849249,-0.179199,-0.921387,0.444824
1480697749864289,-0.181641,-0.935547,0.4375
1480697749886851,-0.174316,-0.935059,0.441895
1480697749912920,-0.187012,-0.930664,0.447754
1480697749927462,-0.194336,-0.914063,0.44043
1480697749947010,-0.184082,-0.90918,0.445313
1480697749978096,-0.177246,-0.914063,0.441406
1480697749984610,-0.183105,-0.916016,0.435059
1480697750017698,-0.184082,-0.904297,0.436523
1480697750038252,-0.181641,-0.898438,0.437012
1480697750044772,-0.168457,-0.907227,0.443359
1480697750070338,-0.172852,-0.913086,0.441406
1480697750113453,-0.174316,-0.904297,0.448242
1480697750121975,-0.183594,-0.915527,0.444824
1480697750134508,-0.18457,-0.919434,0.445313
1480697750149550,-0.188965,-0.917969,0.437988
1480697750167095,-0.176758,-0.925293,0.442871
1480697750186647,-0.183105,-0.932129,0.441406
1480697750215223,-0.183594,-0.938477,0.432617
1480697750224247,-0.179199,-0.929688,0.439453
1480697750249815,-0.166992,-0.92041,0.435547
1480697750272374,-0.172363,-0.924316,0.443359
1480697750287415,-0.19043,-0.913574,0.430664
1480697750369634,-0.199219,-0.90625,0.444824
1480697750372140,-0.188965,-0.886719,0.433105
1480697750384173,-0.185547,-0.888184,0.437012
1480697750390689,-0.159668,-0.916016,0.4375
1480697750407233,-0.168457,-0.918457,0.439941
1480697750426785,-0.169434,-0.918457,0.439941
1480697750449345,-0.166504,-0.928223,0.446289
1480697750465891,-0.177734,-0.92627,0.449219
1480697750486946,-0.191406,-0.925293,0.444824
1480697750517526,-0.188965,-0.933105,0.447754
1480697750541090,-0.192383,-0.928711,0.445313
1480697750548109,-0.194824,-0.915039,0.442871
1480697750577187,-0.171387,-0.913086,0.438477
1480697750587213,-0.163574,-0.918457,0.434082
1480697750614284,-0.179199,-0.914551,0.440918
1480697750647874,-0.187012,-0.905762,0.435059
1480697750652386,-0.17041,-0.901855,0.453613
1480697750674445,-0.166016,-0.907227,0.45459
1480697750690988,-0.166016,-0.918945,0.434082
1480697750707031,-0.174316,-0.898438,0.438477
1480697750729591,-0.189941,-0.901367,0.431641
1480697750749143,-0.198242,-0.905762,0.428223
1480697750765687,-0.181152,-0.946289,0.428711
1480697750787246,-0.168457,-0.941406,0.442871
1480697750809832,-0.181152,-0.912598,0.449219
1480697750825847,-0.198242,-0.895508,0.436523
1480697750846903,-0.193359,-0.908203,0.444336
1480697750878489,-0.155273,-0.885742,0.484863
1480697750897538,-0.150879,-0.879883,0.470215
1480697750914082,-0.165527,-0.922363,0.467285
1480697750929121,-0.181152,-0.944336,0.454102
1480697750947169,-0.173828,-0.933105,0.444824
1480697750974242,-0.180664,-0.888672,0.452148
1480697750998305,-0.194336,-0.885742,0.445313
1480697751011343,-0.179199,-0.899414,0.447754
1480697751027386,-0.17334,-0.916992,0.431641
1480697751049442,-0.164063,-0.934082,0.435059
1480697751073506,-0.185059,-0.915039,0.425293
1480697751087045,-0.17041,-0.915039,0.454102
1480697751110103,-0.184082,-0.935059,0.457031
1480697751149207,-0.1875,-0.939453,0.455566
1480697751172269,-0.177734,-0.92334,0.454102
1480697751209367,-0.182617,-0.91748,0.444824
1480697751217388,-0.193848,-0.92334,0.441406
1480697751224407,-0.200195,-0.904297,0.438477
1480697751229420,-0.183594,-0.896973,0.430664
1480697751254988,-0.15918,-0.908203,0.432617
1480697751267020,-0.16748,-0.910645,0.44873
1480697751289580,-0.182617,-0.910645,0.446777
1480697751320662,-0.189941,-0.900879,0.444336
1480697751326679,-0.178711,-0.898926,0.451172
1480697751349238,-0.167969,-0.925293,0.447266
1480697751376312,-0.163574,-0.910156,0.438477
1480697751403382,-0.191895,-0.933594,0.431641
1480697751409399,-0.186523,-0.946777,0.438477
1480697751431962,-0.182129,-0.929199,0.437012
1480697751471564,-0.191406,-0.914551,0.438477
1480697751473569,-0.186523,-0.911133,0.443359
1480697751494625,-0.191406,-0.92627,0.437012
1480697751522699,-0.179688,-0.921387,0.44043
1480697751536737,-0.172852,-0.903809,0.434082
1480697751551785,-0.170898,-0.892578,0.437012
1480697751570327,-0.18457,-0.904297,0.439941
1480697751589377,-0.182129,-0.911133,0.433105
1480697751614945,-0.172363,-0.914551,0.436523
1480697751644527,-0.176758,-0.92041,0.426758
1480697751649537,-0.175781,-0.921875,0.439453
1480697751680118,-0.179199,-0.926758,0.442871
1480697751696663,-0.19043,-0.931152,0.4375
1480697751709197,-0.189453,-0.920898,0.437012
1480697751733259,-0.19873,-0.921875,0.442871
1480697751754315,-0.169922,-0.928711,0.441406
1480697751788406,-0.174805,-0.916016,0.439941
1480697751799435,-0.174805,-0.919922,0.428711
1480697751810971,-0.179688,-0.918457,0.439453
1480697751829516,-0.189941,-0.915039,0.437988
1480697751852075,-0.187988,-0.87793,0.460449
1480697751869622,-0.19043,-0.885254,0.425781
1480697751889174,-0.178711,-0.931152,0.430176
1480697751911734,-0.187988,-0.915039,0.423828
1480697751929783,-0.179688,-0.912598,0.43457
1480697751952343,-0.177246,-0.910645,0.430176
1480697751971894,-0.164063,-0.933105,0.430176
1480697751989945,-0.168457,-0.938965,0.433594
1480697752009495,-0.185547,-0.925781,0.442871
1480697752032054,-0.191895,-0.932129,0.427734
1480697752050102,-0.168945,-0.919922,0.439453
1480697752069153,-0.180664,-0.90918,0.432129
1480697752091713,-0.201172,-0.916504,0.428223
1480697752110767,-0.190918,-0.922363,0.442383
1480697752129312,-0.178223,-0.908203,0.437988
1480697752151873,-0.180176,-0.910645,0.440918
1480697752172929,-0.183105,-0.912109,0.430176
1480697752192482,-0.183594,-0.914551,0.424805
1480697752212033,-0.178223,-0.921387,0.422363
1480697752251137,-0.175781,-0.913574,0.433594
1480697752253644,-0.181641,-0.90332,0.427246
1480697752279211,-0.174316,-0.91748,0.42627
1480697752291243,-0.174316,-0.928711,0.429688
1480697752312801,-0.180664,-0.936523,0.425293
1480697752331851,-0.188477,-0.9375,0.423828
1480697752349899,-0.197754,-0.938477,0.427246
1480697752373462,-0.192383,-0.930176,0.426758
1480697752392011,-0.18457,-0.92041,0.431641
1480697752410061,-0.174805,-0.916504,0.429199
1480697752436630,-0.168945,-0.913574,0.428711
1480697752459190,-0.17041,-0.915527,0.433105
1480697752469718,-0.173828,-0.914063,0.429688
1480697752490774,-0.178711,-0.913086,0.425293
1480697752512331,-0.183594,-0.912109,0.416016
1480697752534390,-0.182129,-0.918457,0.427246
1480697752551435,-0.18457,-0.920898,0.434082
1480697752604576,-0.199219,-0.925781,0.430176
1480697752607084,-0.192383,-0.930176,0.428223
1480697752612097,-0.183105,-0.932617,0.431641
1480697752650200,-0.170898,-0.916016,0.422852
1480697752655713,-0.15625,-0.921875,0.428711
1480697752670753,-0.168457,-0.939941,0.427246
1480697752691810,-0.1875,-0.945313,0.428223
1480697752714369,-0.197754,-0.941406,0.437012
1480697752732417,-0.199219,-0.900879,0.445313
1480697752757985,-0.182129,-0.871094,0.441895
1480697752779042,-0.162598,-0.907227,0.433105
1480697752794081,-0.163574,-0.922852,0.438965
1480697752811628,-0.163574,-0.926758,0.443359
1480697752837196,-0.165039,-0.893066,0.455566
1480697752865772,-0.191895,-0.893066,0.441406
1480697752871789,-0.199707,-0.922852,0.425293
1480697752897356,-0.182129,-0.923828,0.430176
1480697752916907,-0.170898,-0.937988,0.449707
1480697752931946,-0.182617,-0.930664,0.443359
1480697752954507,-0.197754,-0.902832,0.429688
1480697752972054,-0.200684,-0.925781,0.431641
1480697752992108,-0.182617,-0.935059,0.432129
1480697753017174,-0.174805,-0.929688,0.44043
1480697753040736,-0.164063,-0.92041,0.431641
1480697753098390,-0.178711,-0.90332,0.439941
1480697753114433,-0.187988,-0.891602,0.431641
1480697753136992,-0.165039,-0.898438,0.458496
1480697753164567,-0.183594,-0.918457,0.445801
1480697753177101,-0.188965,-0.918457,0.436523
1480697753196149,-0.189941,-0.908691,0.441406
1480697753198656,-0.17041,-0.908691,0.448242
1480697753212193,-0.175293,-0.938965,0.429199
1480697753231746,-0.172363,-0.939453,0.424805
1480697753254304,-0.169434,-0.932617,0.420898
1480697753272854,-0.169922,-0.922363,0.444336
1480697753299425,-0.176758,-0.910645,0.462402
1480697753318483,-0.166016,-0.912109,0.488281
1480697753340533,-0.166992,-0.871094,0.48584
1480697753359083,-0.185059,-0.874512,0.500977
1480697753392172,-0.202148,-0.92041,0.475586
1480697753394678,-0.180176,-0.922852,0.466309
1480697753419243,-0.177734,-0.901855,0.45166
1480697753452832,-0.177246,-0.878418,0.442871
1480697753456844,-0.170898,-0.887695,0.427246
1480697753473387,-0.186523,-0.914551,0.442383
1480697753497451,-0.180664,-0.904785,0.418457
1480697753512497,-0.157227,-0.946289,0.444824
1480697753540566,-0.17627,-0.92041,0.452148
1480697753554101,-0.175781,-0.907715,0.458984
1480697753602731,-0.191895,-0.914063,0.470215
1480697753607745,-0.195801,-0.914551,0.456543
1480697753615766,-0.199219,-0.917969,0.447266
1480697753632311,-0.189453,-0.923828,0.44873
1480697753669408,-0.176758,-0.895996,0.452148
1480697753674422,-0.175781,-0.892578,0.450195
1480697753721547,-0.175293,-0.887695,0.442871
1480697753724054,-0.181152,-0.898438,0.442383
1480697753736587,-0.182617,-0.921875,0.443848
1480697753752631,-0.178711,-0.922363,0.440918
1480697753776193,-0.17627,-0.916504,0.437988
1480697753794240,-0.176758,-0.907715,0.443359
1480697753812288,-0.1875,-0.903809,0.442383
1480697753842369,-0.186035,-0.918457,0.4375
1480697753854400,-0.187012,-0.940918,0.426758
1480697753873952,-0.196777,-0.946289,0.422852
1480697753900522,-0.199219,-0.933105,0.430664
1480697753915563,-0.181641,-0.928223,0.432617
1480697753944144,-0.161133,-0.897461,0.427246
1480697753978731,-0.164063,-0.911133,0.439453
1480697753992770,-0.164063,-0.936523,0.447266
1480697753996778,-0.189453,-0.911621,0.437988
1480697754014827,-0.209961,-0.916016,0.432617
1480697754050421,-0.20459,-0.90332,0.429199
1480697754056939,-0.180176,-0.891602,0.429199
1480697754074988,-0.161133,-0.912109,0.433105
1480697754102059,-0.164063,-0.922852,0.427734
1480697754125621,-0.184082,-0.924805,0.430664
1480697754135147,-0.18457,-0.941895,0.439941
1480697754155701,-0.186035,-0.930176,0.428223
1480697754176758,-0.181641,-0.931641,0.440918
1480697754195307,-0.197754,-0.918945,0.42334
1480697754221877,-0.190918,-0.930176,0.429199
1480697754255467,-0.190918,-0.921387,0.430664
1480697754268000,-0.185059,-0.914063,0.427734
1480697754274518,-0.174316,-0.910645,0.435059
1480697754297077,-0.179199,-0.904785,0.436035
1480697754314624,-0.172363,-0.900391,0.436523
1480697754335680,-0.187012,-0.918945,0.435059
1480697754358246,-0.199707,-0.917969,0.430176
1480697754379296,-0.185547,-0.92041,0.431152
1480697754395839,-0.17334,-0.907227,0.433594
1480697754416896,-0.169922,-0.92041,0.431152
1480697754437952,-0.177246,-0.924805,0.422852
1480697754457004,-0.187988,-0.933105,0.429688
1480697754484074,-0.191406,-0.927246,0.435059
1480697754502124,-0.196289,-0.923828,0.443359
1480697754532202,-0.19043,-0.941406,0.424805
1480697754544240,-0.177246,-0.928711,0.433105
1480697754554763,-0.183105,-0.905762,0.437988
1480697754592363,-0.178711,-0.90918,0.42627
1480697754604395,-0.183594,-0.922363,0.418945
1480697754614923,-0.174805,-0.930176,0.433594
1480697754651019,-0.189453,-0.903809,0.425293
1480697754659542,-0.179688,-0.896484,0.426758
1480697754679094,-0.178711,-0.896973,0.426758
1480697754703157,-0.181641,-0.917969,0.427246
1480697754716693,-0.185547,-0.928711,0.427734
1480697754734742,-0.176758,-0.930664,0.424316
1480697754757302,-0.180176,-0.936523,0.429688
1480697754779861,-0.18457,-0.932129,0.433594
1480697754810444,-0.194336,-0.925293,0.431152
1480697754824981,-0.198242,-0.929199,0.429199
1480697754844534,-0.185547,-0.919922,0.435059
1480697754866591,-0.187988,-0.917969,0.44043
1480697754896170,-0.185059,-0.918945,0.428223
1480697754904193,-0.177734,-0.921875,0.431641
1480697754915224,-0.19043,-0.907715,0.424805
1480697754937279,-0.180664,-0.898926,0.42334
1480697754956832,-0.178711,-0.908203,0.420898
1480697754974880,-0.180176,-0.916504,0.416016
1480697754997440,-0.183594,-0.927734,0.408691
1480697755016992,-0.184082,-0.935547,0.42041
1480697755035040,-0.184082,-0.910156,0.41748
1480697755057600,-0.185059,-0.922852,0.423828
1480697755101216,-0.189453,-0.936035,0.419922
1480697755103723,-0.193848,-0.94043,0.421875
1480697755137312,-0.184082,-0.934082,0.42041
1480697755147338,-0.179688,-0.935059,0.431152
1480697755160375,-0.195313,-0.930176,0.42334
1480697755179925,-0.186523,-0.927246,0.418457
1480697755196969,-0.1875,-0.913086,0.423828
1480697755215019,-0.182617,-0.913086,0.42041
1480697755238080,-0.180176,-0.914063,0.418457
1480697755258133,-0.180664,-0.905273,0.423828
1480697755279189,-0.184082,-0.925293,0.420898
1480697755297237,-0.171387,-0.928223,0.410645
1480697755318292,-0.178711,-0.926758,0.42041
1480697755380959,-0.194824,-0.926758,0.419922
1480697755402016,-0.188477,-0.927246,0.416016
1480697755416554,-0.182129,-0.932129,0.424805
1480697755419061,-0.183594,-0.925293,0.428711
1480697755444131,-0.206543,-0.883301,0.435059
1480697755460671,-0.166992,-0.943359,0.416992
1480697755481727,-0.188477,-0.930176,0.424805
1480697755498272,-0.181641,-0.922852,0.409668
1480697755519328,-0.164063,-0.925293,0.408203
1480697755537376,-0.149414,-0.908203,0.424805
1480697755561440,-0.170898,-0.896484,0.446777
1480697755579487,-0.20166,-0.896973,0.436035
1480697755617087,-0.199219,-0.92041,0.443848
1480697755659704,-0.192383,-0.922852,0.43457
1480697755664213,-0.195801,-0.918457,0.430176
1480697755695295,-0.191406,-0.937012,0.446777
1480697755699306,-0.19043,-0.910156,0.456055
1480697755717355,-0.179688,-0.885742,0.453125
1480697755742925,-0.17627,-0.916016,0.443359
1480697755759972,-0.206543,-0.936523,0.433105
1480697755778518,-0.199707,-0.946777,0.414063
1480697755804084,-0.176758,-0.943848,0.439453
1480697755822132,-0.185547,-0.945313,0.441406
1480697755837174,-0.205566,-0.878906,0.43457
1480697755874773,-0.14502,-0.838867,0.46582
1480697755886804,-0.0957031,-0.843262,0.507813
1480697755926911,-0.132813,-0.864746,0.497559
1480697755929418,-0.136719,-0.875977,0.501465
1480697755955989,-0.117188,-0.884766,0.523438
1480697755962005,-0.184082,-0.894531,0.466309
1480697755980053,-0.178711,-0.907227,0.472656
1480697755999605,-0.172363,-0.90918,0.473633
1480697756017151,-0.184082,-0.930664,0.456055
1480697756039711,-0.189453,-0.94873,0.449707
1480697756059264,-0.205566,-0.925293,0.434082
1480697756082325,-0.211426,-0.911133,0.439453
1480697756101376,-0.203613,-0.90332,0.443848
1480697756122431,-0.201172,-0.924805,0.438965
1480697756137472,-0.19043,-0.924316,0.427246
1480697756162036,-0.175781,-0.893555,0.447266
1480697756234229,-0.191406,-0.894043,0.453125
1480697756236735,-0.197266,-0.906738,0.442383
1480697756257791,-0.160645,-0.914551,0.45166
1480697756261801,-0.177734,-0.916992,0.447266
1480697756279349,-0.165527,-0.919434,0.443848
1480697756300905,-0.166504,-0.918945,0.455566
1480697756316948,-0.17334,-0.921387,0.460449
1480697756346527,-0.192383,-0.94043,0.456543
1480697756360067,-0.203125,-0.925293,0.455078
1480697756385631,-0.19873,-0.919922,0.44043
1480697756399167,-0.185059,-0.901855,0.445313
1480697756422730,-0.17334,-0.89209,0.446289
1480697756436266,-0.17041,-0.896973,0.453125
1480697756474368,-0.168457,-0.898438,0.452148
1480697756511967,-0.175293,-0.898438,0.459961
1480697756513973,-0.181152,-0.898926,0.458984
1480697756533023,-0.179688,-0.90332,0.457031
1480697756547562,-0.173828,-0.90332,0.458984
1480697756555583,-0.17334,-0.905762,0.462402
1480697756579146,-0.169922,-0.930176,0.45166
1480697756601204,-0.175781,-0.920898,0.457031
1480697756615743,-0.182129,-0.911133,0.45752
1480697756638805,-0.1875,-0.904297,0.449219
1480697756667380,-0.177734,-0.914551,0.458008
1480697756689941,-0.175781,-0.920898,0.456543
1480697756698964,-0.172852,-0.912598,0.453125
1480697756721029,-0.177734,-0.90625,0.451172
1480697756751604,-0.178711,-0.900879,0.451172
1480697756766645,-0.177734,-0.905762,0.457031
1480697756797727,-0.171387,-0.89209,0.452637
1480697756810262,-0.17334,-0.89502,0.452148
1480697756824801,-0.176758,-0.899414,0.455566
1480697756848863,-0.174316,-0.90625,0.448242
1480697756855882,-0.173828,-0.911133,0.455566
1480697756879445,-0.179688,-0.918945,0.452637
1480697756901503,-0.185547,-0.915039,0.456543
1480697756922559,-0.179688,-0.928711,0.462891
1480697756947626,-0.17627,-0.929688,0.451172
1480697756969183,-0.177246,-0.914551,0.449219
1480697756982218,-0.182617,-0.90625,0.459473
1480697757022324,-0.186523,-0.918945,0.457031
1480697757027839,-0.174316,-0.916992,0.455566
1480697757043884,-0.17041,-0.904297,0.45166
1480697757066942,-0.175293,-0.879395,0.453125
1480697757089002,-0.174316,-0.893555,0.453613
1480697757102538,-0.170898,-0.901855,0.45459
1480697757125098,-0.17334,-0.896973,0.445801
1480697757141643,-0.171875,-0.910645,0.449219
1480697757162697,-0.175781,-0.908203,0.449707
1480697757178742,-0.164551,-0.916016,0.45166
1480697757201301,-0.17627,-0.916016,0.452637
1480697757222357,-0.179688,-0.912109,0.452148
1480697757244916,-0.17627,-0.925781,0.459473
1480697757274997,-0.183105,-0.935059,0.45459
1480697757310092,-0.186035,-0.922852,0.451172
1480697757322623,-0.19043,-0.917969,0.459473
1480697757327636,-0.188965,-0.896973,0.453613
1480697757343679,-0.171875,-0.897949,0.459961
1480697757366239,-0.155273,-0.901367,0.45166
1480697757381279,-0.156738,-0.902344,0.458008
1480697757403839,-0.176758,-0.889648,0.448242
1480697757426902,-0.178223,-0.904297,0.449707
1480697757448960,-0.171875,-0.912598,0.44873
1480697757462995,-0.172363,-0.905273,0.44873
1480697757479040,-0.1875,-0.90918,0.449219
1480697757501599,-0.191895,-0.915039,0.448242
1480697757525162,-0.19043,-0.927246,0.457031
1480697757559756,-0.185059,-0.928223,0.45166
1480697757606879,-0.187988,-0.921387,0.462891
1480697757609888,-0.192871,-0.916992,0.48291
1480697757634953,-0.219238,-0.89502,0.403809
1480697757644479,-0.184082,-0.987793,0.449219
1480697757659520,-0.118164,-0.841797,0.468262
1480697757683583,-0.197266,-0.805176,0.464844
1480697757704137,-0.158203,-0.919434,0.455078
1480697757718175,-0.169922,-0.920898,0.402344
1480697757741236,-0.166992,-0.935059,0.44043
1480697757765300,-0.187012,-0.916016,0.438477
1480697757778335,-0.174316,-0.91748,0.449219
1480697757803402,-0.178223,-0.924316,0.437012
1480697757824457,-0.188965,-0.929688,0.435547
1480697757862057,-0.193848,-0.935059,0.437012
1480697757866569,-0.189941,-0.93457,0.443359
1480697757898654,-0.177246,-0.935059,0.449707
1480697757901161,-0.176758,-0.937988,0.44873
1480697757936254,-0.177734,-0.932129,0.457031
1480697757943778,-0.191895,-0.935547,0.439453
1480697757958314,-0.187012,-0.879883,0.454102
1480697757982879,-0.169434,-0.85498,0.44873
1480697758011455,-0.155762,-0.863281,0.462891
1480697758025492,-0.169922,-0.87207,0.448242
1480697758041534,-0.174805,-0.918945,0.425781
1480697758070612,-0.155762,-0.92334,0.421875
1480697758088158,-0.163574,-0.919434,0.44043
1480697758107711,-0.182129,-0.901367,0.45166
1480697758160350,-0.212402,-0.89502,0.44873
1480697758176897,-0.197266,-0.918457,0.464844
1480697758179403,-0.154785,-0.923828,0.466797
1480697758197952,-0.148926,-0.929199,0.456543
1480697758212990,-0.180664,-0.90625,0.459473
1480697758223518,-0.192383,-0.926758,0.449707
1480697758244074,-0.212402,-0.918457,0.461426
1480697758266633,-0.204102,-0.920898,0.452637
1480697758281172,-0.17041,-0.913086,0.44043
1480697758310751,-0.157715,-0.891602,0.440918
1480697758326793,-0.160156,-0.895996,0.435059
1480697758341332,-0.168457,-0.907227,0.435059
1480697758364125,-0.177246,-0.899902,0.4375
1480697758386185,-0.177734,-0.907715,0.428711
1480697758414760,-0.181152,-0.923828,0.437988
1480697758433310,-0.178711,-0.936523,0.433594
1480697758452862,-0.174316,-0.931641,0.445801
1480697758462386,-0.186035,-0.932129,0.447754
1480697758497982,-0.182617,-0.925293,0.450195
1480697758516030,-0.171387,-0.918945,0.45459
1480697758523048,-0.179688,-0.904785,0.455566
1480697758544108,-0.186523,-0.911621,0.45166
1480697758566163,-0.187988,-0.916016,0.447754
1480697758581705,-0.181152,-0.915039,0.446777
1480697758610781,-0.193359,-0.908691,0.443359
1480697758632338,-0.14209,-0.89209,0.45752
1480697758641363,-0.166992,-0.910645,0.450684
1480697758665427,-0.206055,-0.918945,0.431641
1480697758711049,-0.15625,-0.904297,0.431641
1480697758730599,-0.146973,-0.904297,0.445801
1480697758740627,-0.17041,-0.91748,0.439453
1480697758754664,-0.18457,-0.930176,0.451172
1480697758767698,-0.201172,-0.924316,0.459961
1480697758783741,-0.212891,-0.909668,0.442383
1480697758808308,-0.192383,-0.925293,0.460449
1480697758820840,-0.200684,-0.910156,0.446289
1480697758843903,-0.171387,-0.898926,0.45459
1480697758866462,-0.167969,-0.908203,0.435059
1480697758888520,-0.162598,-0.923828,0.43457
1480697758913085,-0.172852,-0.910156,0.429688
1480697758932638,-0.15918,-0.902832,0.442383
1480697758947176,-0.172852,-0.882324,0.438477
1480697758988787,-0.182129,-0.900391,0.442871
1480697758993800,-0.168945,-0.924316,0.44043
1480697759009845,-0.179199,-0.931152,0.456543
1480697759046941,-0.191406,-0.925781,0.449707
1480697759049448,-0.195313,-0.922363,0.441895
1480697759066996,-0.196777,-0.944824,0.428223
1480697759085042,-0.161133,-0.904297,0.459473
1480697759106600,-0.175293,-0.865234,0.458984
1480697759127656,-0.19043,-0.888184,0.447754
1480697759145705,-0.181641,-0.937988,0.423828
1480697759172274,-0.165527,-0.946777,0.437012
1480697759188819,-0.165527,-0.921387,0.446777
1480697759219902,-0.16748,-0.899414,0.454102
1480697759241459,-0.181152,-0.879883,0.45166
1480697759286078,-0.181152,-0.900391,0.4375
1480697759293597,-0.181152,-0.921387,0.438477
1480697759302120,-0.187988,-0.931641,0.441895
1480697759307635,-0.193848,-0.924805,0.452148
1480697759325181,-0.185059,-0.928711,0.437012
1480697759347240,-0.187988,-0.928711,0.433105
1480697759377321,-0.165039,-0.914063,0.449219
1480697759384338,-0.177734,-0.900391,0.453613
1480697759406397,-0.182129,-0.893066,0.450684
1480697759429458,-0.198242,-0.904297,0.441895
1480697759443497,-0.177734,-0.926758,0.439453
1480697759473576,-0.185059,-0.911621,0.432129
1480697759490121,-0.16748,-0.906738,0.438477
1480697759503656,-0.189453,-0.885742,0.450684
1480697759566323,-0.192871,-0.89209,0.462891
1480697759580361,-0.1875,-0.915039,0.449707
1480697759591891,-0.180176,-0.907715,0.445801
1480697759614953,-0.166992,-0.896973,0.453125
1480697759623474,-0.173828,-0.90918,0.44043
1480697759654557,-0.17627,-0.923828,0.438477
1480697759676617,-0.182129,-0.928223,0.440918
1480697759689650,-0.188477,-0.920898,0.445801
1480697759713715,-0.191895,-0.919434,0.445801
1480697759729757,-0.191406,-0.921875,0.458008
1480697759743297,-0.189941,-0.919434,0.447754
1480697759775379,-0.181152,-0.914063,0.446777
1480697759819496,-0.180176,-0.907227,0.458008
1480697759822002,-0.178711,-0.913574,0.441406
1480697759828018,-0.179199,-0.901855,0.449219
1480697759850578,-0.182617,-0.902832,0.445313
1480697759864114,-0.172852,-0.897461,0.450195
1480697759909739,-0.175293,-0.904785,0.447754
1480697759911741,-0.171875,-0.910645,0.449219
1480697759929789,-0.167969,-0.90918,0.442383
1480697759954856,-0.184082,-0.91748,0.440918
1480697759968893,-0.189453,-0.923828,0.444824
1480697759990451,-0.189941,-0.933105,0.444824
1480697760006494,-0.181152,-0.923828,0.45459
1480697760043594,-0.187012,-0.913086,0.445801
1480697760058634,-0.183105,-0.927246,0.447754
1480697760074175,-0.18457,-0.92334,0.443359
1480697760096232,-0.180664,-0.920898,0.449707
1480697760117288,-0.181641,-0.900879,0.451172
1480697760141854,-0.186035,-0.896973,0.447754
1480697760163409,-0.176758,-0.905762,0.440918
1480697760177950,-0.174316,-0.903809,0.442383
1480697760187475,-0.174316,-0.90332,0.44873
1480697760209033,-0.183105,-0.911133,0.444824
1480697760230087,-0.18457,-0.920898,0.445801
1480697760246631,-0.183594,-0.918945,0.444824
1480697760274707,-0.184082,-0.907227,0.445313
1480697760297767,-0.183105,-0.914551,0.449219
1480697760308296,-0.184082,-0.937988,0.452637
1480697760329351,-0.178711,-0.93457,0.446777
1480697760352413,-0.182129,-0.916504,0.445313
1480697760381491,-0.188965,-0.911133,0.446289
1480697760396530,-0.186035,-0.907227,0.441895
1480697760419593,-0.178711,-0.911621,0.44873
1480697760443161,-0.179199,-0.910156,0.444824
1480697760462714,-0.175781,-0.907715,0.443848
1480697760472231,-0.177246,-0.899902,0.448242
1480697760486770,-0.170898,-0.898926,0.444336
1480697760511336,-0.174316,-0.899414,0.45166
1480697760531389,-0.179688,-0.910156,0.449219
1480697760552946,-0.186035,-0.928711,0.451172
1480697760582525,-0.184082,-0.924805,0.437012
1480697760604583,-0.178711,-0.918945,0.446289
1480697760628647,-0.182129,-0.91748,0.444336
1480697760673768,-0.183594,-0.922363,0.452637
1480697760725404,-0.183594,-0.928223,0.45166
1480697760735431,-0.183594,-0.922852,0.45166
1480697760741448,-0.165039,-0.90332,0.44873
1480697760748967,-0.184082,-0.899414,0.441406
1480697760771527,-0.171387,-0.896484,0.450684
1480697760785565,-0.17334,-0.91748,0.448242
1480697760811133,-0.168945,-0.920898,0.443848
1480697760831186,-0.173828,-0.915527,0.439941
1480697760854750,-0.19043,-0.905762,0.459961
1480697760868786,-0.194824,-0.891113,0.441406
1480697760891848,-0.182129,-0.90918,0.446777
1480697760913404,-0.168945,-0.936035,0.44873
1480697760953009,-0.170898,-0.93457,0.442871
1480697760958526,-0.162109,-0.930664,0.444336
1480697760973063,-0.167969,-0.921875,0.447754
1480697760992116,-0.185059,-0.904785,0.452637
1480697761011166,-0.187988,-0.905762,0.450195
1480697761035229,-0.179199,-0.912598,0.440918
1480697761049266,-0.175781,-0.90918,0.444824
1480697761071325,-0.172852,-0.898438,0.4375
1480697761092383,-0.164063,-0.898438,0.447754
1480697761108927,-0.181152,-0.90625,0.441895
1480697761131985,-0.185059,-0.921387,0.437988
1480697761155047,-0.172852,-0.92041,0.437012
1480697761206183,-0.184082,-0.91748,0.437988
1480697761253308,-0.179199,-0.924805,0.443359
1480697761266343,-0.175781,-0.923828,0.447754
1480697761274365,-0.177734,-0.92627,0.439941
1480697761294919,-0.189453,-0.916504,0.443359
1480697761318985,-0.186035,-0.90918,0.441406
1480697761334023,-0.174805,-0.905273,0.447266
1480697761355081,-0.175293,-0.900879,0.440918
1480697761371623,-0.183594,-0.908203,0.452637
1480697761409224,-0.185059,-0.905762,0.450195
1480697761411730,-0.179199,-0.90332,0.44873
1480697761431783,-0.168457,-0.911621,0.441406
1480697761467378,-0.174805,-0.919434,0.446777
1480697761485425,-0.182129,-0.923828,0.44873
1480697761530044,-0.175781,-0.92627,0.445801
1480697761535559,-0.180176,-0.907715,0.452637
1480697761551602,-0.194336,-0.93457,0.438477
1480697761574162,-0.174316,-0.925781,0.448242
1480697761594717,-0.186035,-0.910645,0.44873
1480697761618780,-0.194824,-0.916992,0.446777
1480697761642343,-0.188477,-0.900879,0.455078
1480697761648360,-0.164551,-0.881348,0.454102
1480697761677438,-0.185059,-0.943359,0.442871
1480697761693981,-0.175293,-0.938965,0.408203
1480697761708018,-0.166504,-0.875488,0.456055
1480697761734087,-0.195801,-0.813477,0.458496
1480697761767676,-0.207031,-0.87793,0.431152
1480697761789734,-0.1875,-0.959961,0.42041
1480697761821820,-0.181152,-0.98291,0.42334
1480697761824328,-0.166504,-0.95459,0.437988
1480697761834855,-0.169434,-0.878418,0.427246
1480697761851399,-0.187988,-0.886719,0.438965
1480697761873960,-0.203613,-0.936035,0.428711
1480697761895015,-0.185547,-0.95752,0.426758
1480697761917575,-0.175293,-0.937012,0.439941
1480697761943647,-0.201172,-0.911133,0.433594
1480697761955175,-0.168945,-0.896973,0.433105
1480697761977734,-0.166504,-0.88916,0.446777
1480697761993777,-0.175781,-0.905273,0.450684
1480697762022354,-0.160645,-0.936523,0.436035
1480697762038922,-0.172363,-0.921387,0.429199
1480697762053937,-0.15918,-0.929688,0.45752
1480697762074996,-0.185059,-0.920898,0.450195
1480697762100060,-0.205078,-0.915527,0.401367
1480697762114098,-0.184082,-0.965332,0.383789
1480697762134653,-0.210938,-0.984375,0.42041
1480697762151196,-0.224609,-0.991699,0.412598
1480697762175765,-0.188965,-0.951172,0.464355
1480697762196316,-0.188477,-0.882324,0.437012
1480697762220380,-0.106445,-0.744141,0.456055
1480697762233916,-0.145508,-0.752441,0.425293
1480697762262493,-0.185059,-0.906738,0.416504
1480697762271015,-0.141602,-1.02881,0.413086
1480697762301596,-0.177734,-0.973633,0.425293
1480697762325159,-0.188477,-0.905273,0.42334
1480697762332177,-0.170898,-0.884277,0.425293
1480697762353735,-0.176758,-0.929688,0.442871
1480697762376296,-0.212891,-0.969238,0.410156
1480697762391335,-0.217773,-1.00098,0.444824
1480697762414897,-0.186523,-1.00928,0.421387
1480697762444977,-0.20459,-0.962891,0.425293
1480697762450492,-0.177246,-0.872559,0.427246
1480697762475058,-0.17627,-0.854004,0.44873
1480697762497617,-0.20752,-0.867188,0.431152
1480697762519175,-0.200195,-0.92627,0.421387
1480697762533714,-0.141602,-0.947266,0.398438
1480697762557778,-0.162109,-0.947754,0.379395
1480697762581340,-0.160156,-0.981445,0.40625
1480697762607912,-0.124023,-0.806152,0.47998
1480697762616935,-0.186523,-0.760254,0.450684
1480697762637490,-0.171387,-0.908203,0.461426
1480697762655537,-0.146484,-0.980469,0.469238
1480697762676598,-0.167969,-0.962891,0.452637
1480697762705169,-0.181641,-0.920898,0.460449
1480697762721211,-0.178223,-0.895508,0.45752
1480697762750790,-0.181152,-0.904297,0.433594
1480697762757309,-0.187012,-0.940918,0.431152
1480697762774354,-0.205078,-0.949219,0.405762
1480697762796412,-0.175293,-0.954102,0.415039
1480697762818971,-0.158691,-0.915527,0.422363
1480697762834012,-0.162109,-0.916504,0.427734
1480697762862587,-0.171875,-0.910156,0.439941
1480697762877131,-0.160156,-0.924805,0.462402
1480697762899686,-0.164551,-0.925293,0.455566
1480697762916230,-0.162598,-0.915527,0.455566
1480697762937286,-0.161133,-0.90918,0.446289
1480697762955836,-0.162598,-0.921387,0.441406
1480697762983912,-0.159668,-0.919922,0.434082
1480697762997446,-0.162598,-0.932617,0.437988
1480697763013990,-0.163574,-0.939941,0.435059
1480697763036551,-0.166504,-0.943359,0.444824
1480697763083175,-0.171875,-0.936035,0.459473
1480697763089191,-0.180664,-0.916992,0.456543
1480697763104230,-0.162109,-0.920898,0.449219
1480697763117266,-0.148926,-0.92334,0.451172
1480697763140830,-0.142578,-0.913574,0.450195
1480697763157375,-0.144531,-0.896973,0.454102
1480697763178929,-0.132324,-0.893555,0.46875
1480697763193969,-0.142578,-0.899902,0.469238
1480697763216530,-0.146484,-0.90918,0.465332
1480697763239089,-0.149902,-0.890625,0.449219
1480697763254631,-0.162598,-0.874023,0.444824
1480697763276189,-0.169434,-0.887695,0.439453
1480697763307271,-0.158691,-0.912598,0.435059
1480697763315292,-0.14209,-0.927734,0.43457
1480697763337350,-0.119141,-0.904785,0.447754
1480697763359910,-0.0996094,-0.909668,0.460449
1480697763379964,-0.0957031,-0.904297,0.458984
1480697763396508,-0.104004,-0.90332,0.465332
1480697763419068,-0.116699,-0.911621,0.470215
1480697763440124,-0.122559,-0.935547,0.471191
1480697763456667,-0.146973,-0.913574,0.469238
1480697763486748,-0.155273,-0.919922,0.466797
1480697763493265,-0.170898,-0.911621,0.482422
1480697763517328,-0.182617,-0.884277,0.477539
1480697763540892,-0.145508,-0.851563,0.46875
1480697763559942,-0.120605,-0.890137,0.466797
1480697763590023,-0.132324,-0.930176,0.458984
1480697763599046,-0.127441,-0.927246,0.458496
1480697763613084,-0.138184,-0.912109,0.470215
1480697763637147,-0.139648,-0.906738,0.459961
1480697763659707,-0.138672,-0.910156,0.467285
1480697763687281,-0.146973,-0.92627,0.472656
1480697763697308,-0.13916,-0.930664,0.46582
1480697763718866,-0.135254,-0.910156,0.461426
1480697763739921,-0.148438,-0.894531,0.460938
1480697763763486,-0.155273,-0.895508,0.454102
1480697763779024,-0.140137,-0.911133,0.463867
1480697763800581,-0.146484,-0.920898,0.452637
1480697763816625,-0.148438,-0.918945,0.45166
1480697763838683,-0.140137,-0.905273,0.45459
1480697763859739,-0.146973,-0.90625,0.458008
1480697763876286,-0.142578,-0.916016,0.460449
1480697763898845,-0.141602,-0.932617,0.464844
1480697763919900,-0.144531,-0.926758,0.458008
1480697763936443,-0.146973,-0.913574,0.462402
1480697763974549,-0.15625,-0.918457,0.462891
1480697763981566,-0.157715,-0.931152,0.465332
1480697763996603,-0.156738,-0.922363,0.455078
1480697764019163,-0.155762,-0.918457,0.455566
1480697764044230,-0.148438,-0.916016,0.45459
1480697764057265,-0.135742,-0.905762,0.452148
1480697764078822,-0.141602,-0.913086,0.459961
1480697764100881,-0.143555,-0.910645,0.458008
1480697764116422,-0.144043,-0.905273,0.456543
1480697764140487,-0.147949,-0.900391,0.452637
1480697764170566,-0.143066,-0.89502,0.455078
1480697764178086,-0.146484,-0.903809,0.45459
1480697764207666,-0.152832,-0.918457,0.457031
1480697764230224,-0.14209,-0.922852,0.450684
1480697764242257,-0.150391,-0.924805,0.450684
1480697764258804,-0.151367,-0.927734,0.447754
1480697764281360,-0.149902,-0.931641,0.448242
1480697764297404,-0.15918,-0.926758,0.454102
1480697764318961,-0.151367,-0.921387,0.455566
1480697764341521,-0.149414,-0.90918,0.450195
1480697764356059,-0.152344,-0.910645,0.452148
1480697764380123,-0.152344,-0.909668,0.445801
1480697764403184,-0.149902,-0.905273,0.459961
1480697764415718,-0.142578,-0.895996,0.45459
1480697764439281,-0.137695,-0.899414,0.459961
1480697764484400,-0.147949,-0.912109,0.473145
1480697764486908,-0.154297,-0.9375,0.442383
1480697764500444,-0.186035,-0.9375,0.424805
1480697764522000,-0.133301,-0.962891,0.432617
1480697764535537,-0.124023,-0.847656,0.467285
1480697764559600,-0.15625,-0.838867,0.455078
1480697764581158,-0.153809,-0.955078,0.453613
1480697764596197,-0.154297,-0.958984,0.435059
1480697764620262,-0.150391,-0.955078,0.446289
1480697764642822,-0.15918,-0.935547,0.445801
1480697764662375,-0.151855,-0.911133,0.450195
1480697764678918,-0.163086,-0.915039,0.450684
1480697764702982,-0.153809,-0.896973,0.45166
1480697764724038,-0.146973,-0.913086,0.453125
1480697764739078,-0.150391,-0.937012,0.470215
1480697764762139,-0.162598,-0.933105,0.445801
1480697764782693,-0.173828,-0.904297,0.461914
1480697764804752,-0.156738,-0.867188,0.46875
1480697764827312,-0.149414,-0.870605,0.481445
1480697764849872,-0.15918,-0.886719,0.457031
1480697764859399,-0.146973,-0.928223,0.463379
1480697764881958,-0.170898,-0.908203,0.453613
1480697764910537,-0.171387,-0.917969,0.45166
1480697764928081,-0.155273,-0.901855,0.458984
1480697764947632,-0.158691,-0.902344,0.464355
1480697764962672,-0.158691,-0.893066,0.473633
1480697764979718,-0.154785,-0.923828,0.474609
1480697765001275,-0.162109,-0.934082,0.473633
1480697765025343,-0.165527,-0.902344,0.473145
1480697765062939,-0.163574,-0.883789,0.476563
1480697765067451,-0.163574,-0.893555,0.472168
1480697765082492,-0.166504,-0.899414,0.462402
1480697765098032,-0.160645,-0.898926,0.462891
1480697765128613,-0.151367,-0.908691,0.44873
1480697765160698,-0.145996,-0.922852,0.458008
1480697765174236,-0.158203,-0.921875,0.453613
1480697765186267,-0.151367,-0.925293,0.446777
1480697765203815,-0.154297,-0.921875,0.450195
1480697765219355,-0.159668,-0.917969,0.456055
1480697765241915,-0.161133,-0.921875,0.464844
1480697765263974,-0.171387,-0.908691,0.464355
1480697765279014,-0.17041,-0.901367,0.46582
1480697765302075,-0.166992,-0.905762,0.462402
1480697765323634,-0.15332,-0.903809,0.462402
1480697765340678,-0.152344,-0.901855,0.44873
1480697765361232,-0.149902,-0.899414,0.454102
1480697765384794,-0.155273,-0.910156,0.456543
1480697765407355,-0.159668,-0.924316,0.463867
1480697765428912,-0.159668,-0.916992,0.458008
1480697765444454,-0.160645,-0.898438,0.455078
1480697765458495,-0.157227,-0.915039,0.462402
1480697765481553,-0.15918,-0.928711,0.456543
1480697765504615,-0.162109,-0.929688,0.455566
1480697765525169,-0.156738,-0.924805,0.459961
1480697765542214,-0.161621,-0.910156,0.444824
1480697765563771,-0.17041,-0.907715,0.45166
