timestamp,emg1,emg2,emg3,emg4,emg5,emg6,emg7,emg8
1480697712440171,-10,-3,-18,-5,-2,2,-1,-1
1480697712440171,-3,0,4,1,0,-3,-1,0
1480697712441677,-4,3,1,-1,0,-1,0,-2
1480697712441677,-3,-3,4,1,0,-1,0,-1
1480697712463828,1,1,23,1,1,0,-1,1
1480697712463828,-5,-5,1,3,-1,1,1,-3
1480697712464736,-10,-1,-33,-2,-1,0,1,14
1480697712464736,17,4,-7,1,-1,-1,-2,-13
1480697712493312,-6,8,1,-1,-2,1,0,3
1480697712493312,-1,4,-16,-4,-1,1,0,1
1480697712494315,7,10,33,1,1,0,-2,1
1480697712494315,-13,-10,-1,-1,-1,-2,-4,-17
1480697712509355,-8,-1,3,-1,-2,-3,-1,-1
1480697712509355,5,-2,1,-1,-2,-1,0,-4
1480697712509856,-4,4,-2,-1,0,-1,1,-2
1480697712509856,2,2,7,-1,-1,0,-1,3
1480697712538933,0,-6,-11,-2,0,-2,-1,-3
1480697712538933,-6,-3,10,-1,-2,1,0,-3
1480697712539936,0,-5,-10,0,0,-2,-1,4
1480697712539936,-1,0,6,-2,1,-1,2,-1
1480697712541443,-1,0,-7,0,1,1,-2,0
1480697712541443,7,1,12,3,0,-2,1,2
1480697712561494,-2,2,15,3,1,2,-1,-4
1480697712561494,-9,-13,-53,-7,-4,-3,-2,-10
1480697712562997,-5,-3,-12,1,0,0,0,2
1480697712562997,4,2,19,0,-1,-1,-1,5
1480697712564001,-1,-2,-6,0,-2,-1,0,-9
1480697712564001,1,9,8,2,-1,0,2,17
1480697712583553,-8,-8,1,-3,1,1,-2,-11
1480697712583553,0,2,-11,1,0,-3,1,-1
1480697712584055,6,2,3,0,-1,0,2,9
1480697712584055,-18,10,-28,-3,-2,-2,-2,-26
1480697712597088,-26,-2,13,1,-2,-1,-2,-9
1480697712597088,-6,3,-16,1,1,-1,1,5
1480697712605110,-4,-2,5,-5,-1,0,-3,-5
1480697712605110,12,1,12,2,0,1,-1,7
1480697712620149,13,-3,-1,-1,-3,-1,-3,1
1480697712620149,-5,1,4,0,1,1,-1,-5
1480697712644729,-6,-5,-23,-1,0,-1,0,-3
1480697712644729,3,-5,10,-1,-1,0,0,5
1480697712646219,5,1,-1,-2,1,-1,-6,-4
1480697712646219,3,-3,1,-2,0,4,16,11
1480697712647221,-3,-4,-5,1,-2,1,-3,-4
1480697712647221,0,-1,17,0,0,2,11,8
1480697712665770,7,0,-9,2,1,0,3,5
1480697712665770,-1,-2,9,-2,-1,-3,-5,0
1480697712666273,-3,-4,-24,-4,-1,-1,1,-22
1480697712666273,-11,2,-4,0,1,-1,1,6
1480697712680309,0,-3,10,-3,-4,-3,0,-5
1480697712680309,3,-11,13,1,2,-1,-5,-7
1480697712680811,0,-1,-20,1,0,-3,-4,3
1480697712680811,-5,-10,10,4,2,2,-5,1
1480697712703370,7,-1,5,0,-1,1,3,-7
1480697712703370,-1,1,-17,-1,-2,-2,-4,4
1480697712704373,0,-3,30,-2,-1,-1,-1,9
1480697712704373,7,2,-64,-6,-2,0,-2,1
1480697712716907,1,2,9,-1,1,-2,2,4
1480697712716907,-6,-3,-24,-1,-2,1,-2,-14
1480697712724928,12,-1,17,3,-1,1,-1,4
1480697712724928,-18,-1,14,1,0,-2,-1,-3
1480697712739968,8,-2,-5,0,-2,-1,0,6
1480697712739968,-23,3,3,-1,-1,-2,-1,-4
1480697712740970,1,5,-5,0,1,0,2,3
1480697712740970,17,3,30,1,-1,2,-1,15
1480697712762528,1,-6,-37,-3,-1,0,3,-10
1480697712762528,-8,0,15,-2,-2,-3,-5,-5
1480697712770048,-6,1,-4,-1,-3,-1,1,-5
1480697712770048,-5,-6,29,2,1,-1,2,9
1480697712801633,-2,-1,-1,0,1,1,1,6
1480697712801633,13,4,-17,-1,1,1,0,-2
1480697712817175,-5,-1,13,0,-1,-2,0,-1
1480697712817175,4,1,-5,-2,-3,-3,-2,-8
1480697712818677,0,3,-4,3,1,0,-3,5
1480697712818677,0,-2,7,-2,-2,-1,-4,4
1480697712819680,4,3,-5,0,-1,-1,1,0
1480697712819680,-8,-2,9,-3,-2,-1,0,-2
1480697712840234,1,0,2,-1,0,-1,-4,-5
1480697712840234,6,12,6,-1,-1,1,0,5
1480697712841239,0,-3,4,2,0,1,-2,0
1480697712841239,3,-1,8,0,1,0,-1,-5
1480697712861792,14,-2,-6,-1,0,-3,-1,1
1480697712861792,2,-2,-23,-1,0,-1,-1,4
1480697712862794,-1,2,6,-3,-2,0,0,-8
1480697712862794,-3,-1,19,1,-2,-1,-1,6
1480697712884856,11,-5,-33,0,0,2,3,14
1480697712884856,-22,-3,28,-1,-1,0,1,-6
1480697712885355,-6,-3,-34,-2,-1,0,-2,2
1480697712885355,-3,-8,6,0,0,0,-2,-3
1480697712886859,0,1,11,-2,-2,-1,0,-3
1480697712886859,10,0,5,1,-3,-1,-1,1
1480697712897386,-8,4,21,1,2,1,0,3
1480697712897386,7,0,-36,-3,-3,0,-1,-1
1480697712907414,-7,-1,23,1,-2,-1,-3,-1
1480697712907414,4,-1,-22,0,-1,0,1,7
1480697712908416,-4,-4,8,-1,-2,-3,1,-13
1480697712908416,10,2,-18,1,2,-1,-1,-4
1480697712919946,-6,-1,13,-1,-2,-1,0,1
1480697712919946,1,2,8,0,1,-2,-1,-7
1480697712921952,-1,0,4,2,0,-1,0,17
1480697712921952,11,1,-10,-2,0,-1,-1,-5
1480697712943009,-1,0,-3,-1,0,0,0,-5
1480697712943009,3,2,5,-2,0,1,0,8
1480697712944010,0,-2,-9,-2,1,0,-2,-2
1480697712944010,-4,1,21,0,-1,0,0,-1
1480697712966069,-3,-1,5,0,-2,-1,1,10
1480697712966069,5,-4,-30,-3,-2,-2,-2,-20
1480697712966570,-10,-10,-3,0,0,-2,-4,-8
1480697712966570,22,8,13,-1,-4,-1,-1,8
1480697712980106,-30,-1,7,-1,0,1,-2,-2
1480697712980106,3,-4,14,3,-1,1,-1,4
1480697712981113,5,-5,-6,2,1,1,-1,-1
1480697712981113,-4,-2,-7,-4,-2,-3,-2,-5
1480697713003167,2,2,-4,0,1,0,-1,-5
1480697713003167,-1,0,-2,-1,-3,-2,0,-3
1480697713004171,4,5,7,0,-3,0,-1,8
1480697713004171,3,-2,12,2,1,0,-1,-2
1480697713025728,-6,-6,-38,-1,-2,0,1,2
1480697713025728,-1,-3,23,0,1,-1,0,-4
1480697713026730,2,1,-33,-3,0,0,0,5
1480697713026730,2,5,18,0,-2,-1,-1,2
1480697713040768,-3,0,-6,1,-1,-2,0,-1
1480697713040768,1,0,10,-1,0,-1,0,0
1480697713041772,8,-4,10,-1,-1,0,1,-1
1480697713041772,-25,-7,-29,-2,0,2,1,-4
1480697713072353,3,1,2,-1,1,1,-1,1
1480697713072353,-9,-2,1,-2,-1,0,1,-12
1480697713073856,11,5,4,0,-1,-1,-4,-21
1480697713073856,11,-3,6,1,0,1,4,5
1480697713093408,-20,0,12,0,0,1,1,-10
1480697713093408,1,-6,-30,-4,-1,1,0,11
1480697713093909,7,-13,15,-1,0,1,2,-7
1480697713093909,-24,-3,6,1,1,0,-2,6
1480697713115968,-3,-5,-1,-4,-2,-2,-2,-5
1480697713115968,3,7,6,3,2,1,1,3
1480697713116469,-4,3,-4,-2,-2,-3,-1,0
1480697713116469,5,-5,-4,-1,-1,-2,-1,-2
1480697713131008,10,2,19,1,-1,1,1,4
1480697713131008,0,-3,-21,-2,0,-1,-4,3
1480697713131509,-1,5,9,1,1,0,0,5
1480697713131509,-6,-3,0,-2,0,1,-1,-5
1480697713146549,2,0,7,1,0,-1,-2,-3
1480697713146549,0,-3,-24,-1,-1,-2,1,-5
1480697713147050,-15,-12,2,2,-1,2,1,2
1480697713147050,0,2,1,0,0,-1,-1,-5
1480697713168608,-1,-1,1,-1,2,-3,1,-5
1480697713168608,-1,2,37,1,0,0,-2,6
1480697713169111,11,3,-45,-3,-1,-1,1,4
1480697713169111,-4,-2,2,0,-2,-2,0,-6
1480697713184150,5,-3,-4,-1,-2,1,0,3
1480697713184150,-6,1,6,1,-1,0,0,-8
1480697713185154,-3,3,13,0,0,-1,2,14
1480697713185154,3,-3,-18,-2,1,-1,-3,-4
1480697713207211,11,4,-11,-2,0,-4,-1,1
1480697713207211,4,-2,1,0,-1,0,0,1
1480697713208715,1,15,22,0,-2,0,1,-3
1480697713208715,1,-2,-30,-1,0,0,-2,-1
1480697713220245,6,-1,13,-2,-2,-2,-2,7
1480697713220245,-4,-7,-12,-2,-1,1,-1,-2
1480697713220746,1,-1,1,-3,0,-3,-1,0
1480697713220746,-16,-7,11,0,0,-2,-3,-6
1480697713243307,6,3,-6,1,1,0,-1,7
1480697713243307,-3,3,5,0,-1,-1,-1,0
1480697713244309,-2,-1,-12,0,-2,-1,-2,1
1480697713244309,-8,0,5,-1,-3,-2,-3,-10
1480697713265867,-8,0,-14,-2,-3,1,1,-3
1480697713265867,6,-1,12,0,0,-2,-1,3
1480697713266869,-4,-1,-11,0,1,-2,0,-10
1480697713266869,3,8,15,0,0,2,1,9
1480697713280405,-14,-11,-23,0,-1,-1,0,3
1480697713280405,14,0,44,1,0,1,0,-2
1480697713280907,-4,-4,-68,-4,-3,-1,-3,-1
1480697713280907,17,6,6,1,-1,1,0,-4
1480697713305473,5,3,16,2,-2,-1,-2,2
1480697713305473,6,3,-17,-2,0,1,-1,0
1480697713305973,-3,-1,20,1,0,0,-1,1
1480697713305973,28,-8,23,-3,-2,-1,0,0
1480697713326026,5,1,-27,-1,1,0,1,-2
1480697713326026,-9,-4,2,-2,-1,-1,0,-3
1480697713326528,7,3,24,1,1,0,-1,2
1480697713326528,-17,7,0,1,1,0,1,2
1480697713340064,-5,-10,-25,-5,-2,-1,-4,-18
1480697713340064,2,1,-7,0,1,1,-1,6
1480697713341066,2,0,16,1,0,1,1,-1
1480697713341066,-4,-16,-2,-1,-1,-2,2,3
1480697713365130,-6,-1,5,0,-1,-1,-1,-13
1480697713365130,-6,0,-6,-1,-1,-2,0,-2
1480697713371146,-2,0,-7,-3,0,-1,0,-1
1480697713371146,-5,-4,-5,2,1,1,-3,-3
1480697713393204,2,2,12,1,0,2,0,9
1480697713393204,5,-1,-15,-3,-1,-2,1,-2
1480697713394207,-6,-4,16,3,2,3,2,-4
1480697713394207,1,5,-16,-3,-1,-1,-2,8
1480697713415765,-1,4,4,0,-2,-2,-2,-3
1480697713415765,-6,3,3,2,1,0,-1,-5
1480697713416769,7,-2,1,-1,-2,-1,-2,11
1480697713416769,-39,-2,-8,0,0,-2,-1,-8
1480697713424289,9,-3,-18,-6,-1,-1,-2,-2
1480697713424289,-7,0,-7,0,0,-1,1,2
1480697713425290,5,-1,1,-1,-2,-2,-4,-7
1480697713425290,7,-3,-46,-4,-2,-1,-2,1
1480697713453366,-2,3,20,3,1,2,0,2
1480697713453366,-10,0,-3,-1,-2,-2,-4,6
1480697713453866,2,0,7,0,1,0,0,-4
1480697713453866,7,5,6,2,-1,0,0,3
1480697713460384,-3,-5,4,0,0,0,-1,2
1480697713460384,5,0,-11,0,0,0,-3,-2
1480697713460885,-8,-3,7,2,2,0,1,1
1480697713460885,4,0,15,-2,-1,-2,-1,1
1480697713492469,-1,-1,-8,1,1,2,0,0
1480697713492469,1,1,12,1,-3,2,1,1
1480697713492970,2,3,-13,-4,-1,-1,-2,-1
1480697713492970,-5,-14,-28,-2,1,-2,1,-14
1480697713505505,3,3,11,2,2,0,0,1
1480697713505505,-1,0,-17,-4,0,-2,-1,7
1480697713507510,-5,-9,-3,1,-1,1,0,-7
1480697713507510,-1,-8,6,1,0,2,1,5
1480697713519542,1,4,25,1,-1,-3,0,-1
1480697713519542,2,-1,-14,-3,-1,-2,-2,-1
1480697713535082,-1,-1,-2,-1,-2,-1,1,4
1480697713535082,-16,-3,11,-4,-1,-1,-2,1
1480697713543104,-4,-2,-17,-5,-1,-1,-1,-4
1480697713543104,-5,-3,13,0,0,-1,-1,-3
1480697713544107,-33,-2,-2,2,-1,0,-1,5
1480697713544107,12,5,21,0,-1,1,-1,-5
1480697713566165,5,1,13,0,0,1,-1,-5
1480697713566165,-12,-3,-13,-2,-1,-1,3,4
1480697713567168,16,4,11,-1,-1,0,0,-3
1480697713567168,-5,-7,5,2,1,1,2,4
1480697713579701,-7,-4,0,-1,0,1,0,2
1480697713579701,3,10,18,2,-2,1,-1,-1
1480697713587722,-1,0,-17,0,-1,-3,-1,-3
1480697713587722,4,7,-35,-3,-2,-1,-2,6
1480697713603265,4,-3,20,-7,-1,-3,-1,1
1480697713603265,-1,-8,-19,-1,0,1,-2,-4
1480697713604267,-4,1,16,0,-1,2,0,-2
1480697713604267,13,7,13,2,0,0,0,1
1480697713626325,-1,1,9,3,0,-2,1,4
1480697713626325,0,-5,-30,-2,0,-1,1,-3
1480697713627328,-1,-2,10,0,-2,-3,-3,-3
1480697713627328,-8,0,-1,1,2,1,3,-8
1480697713647882,12,0,-3,-1,-2,-2,-4,9
1480697713647882,6,-4,10,-2,3,0,0,1
1480697713648885,6,-1,-16,1,1,0,1,1
1480697713648885,-2,0,-1,-5,-3,-2,-2,-1
1480697713672448,-1,1,9,1,0,-2,1,1
1480697713672448,-21,3,16,1,-1,1,1,-5
1480697713672956,-26,-8,-30,-4,-2,-2,-1,-8
1480697713672956,4,6,36,1,-1,0,0,6
1480697713687488,-4,-8,-34,-2,1,1,0,0
1480697713687488,9,2,8,2,0,0,0,0
1480697713687989,7,0,7,-4,-1,-1,0,1
1480697713687989,-6,2,-31,0,0,-2,-2,-9
1480697713716064,4,-17,-5,-3,-2,0,-2,0
1480697713716064,9,7,15,0,1,-1,-3,-3
1480697713716565,-4,-7,6,0,-1,1,1,1
1480697713716565,3,1,4,-1,0,1,1,1
1480697713723584,5,2,4,0,-1,-2,-2,-7
1480697713723584,4,3,0,0,-2,-2,-1,5
1480697713724586,10,7,7,1,0,1,2,5
1480697713724586,3,-4,-20,-6,-1,-2,-2,2
1480697713753162,-5,5,35,3,1,1,2,-1
1480697713753162,-12,-12,-23,-3,-2,-1,-2,-11
1480697713754165,10,3,-21,-2,-2,-1,-4,-7
1480697713754165,-1,-1,12,5,1,1,1,3
1480697713768202,-3,0,-4,-3,-1,-1,-2,-3
1480697713768202,-2,0,13,3,-1,-1,2,0
1480697713769205,4,0,19,0,-1,-1,0,4
1480697713769205,11,5,-2,-1,1,-1,-1,9
1480697713790762,-6,3,3,2,-2,-3,0,2
1480697713790762,-5,-5,-3,0,1,1,1,0
1480697713791765,38,3,2,0,-1,0,-2,0
1480697713791765,-8,-3,22,-1,0,-1,2,6
1480697713804800,1,-5,-27,1,1,0,3,5
1480697713804800,-3,4,-7,-1,0,1,1,1
1480697713812821,4,-2,2,-3,0,-3,2,4
1480697713812821,-2,-7,21,2,0,-2,-1,-1
1480697713828363,-2,3,-9,0,-1,1,1,-7
1480697713828363,7,3,1,-4,-2,-2,-2,2
1480697713829365,-7,-3,-23,-2,-1,-1,-1,1
1480697713829365,3,1,1,-3,-2,0,-2,-8
1480697713843402,-9,4,-10,1,2,1,0,2
1480697713843402,3,-3,16,0,0,0,0,1
1480697713843905,-10,1,-10,-2,-1,-2,-4,-2
1480697713843905,-26,-9,-1,0,0,1,0,6
1480697713866463,10,-1,5,-2,2,0,0,-8
1480697713866463,7,-1,28,2,-1,-1,0,3
1480697713866965,-13,-2,-15,2,2,0,-2,1
1480697713866965,14,3,-11,-3,-1,-1,-1,1
1480697713888522,-1,0,-22,-2,-2,0,1,4
1480697713888522,0,-3,-5,0,-1,1,0,7
1480697713889025,-11,2,27,4,3,1,2,-8
1480697713889025,6,4,-11,2,0,0,-2,14
1480697713912587,1,-2,2,-5,-3,0,-2,-4
1480697713912587,9,0,-8,0,-1,0,-1,1
1480697713914090,-21,-2,17,0,0,2,1,0
1480697713914090,0,-1,-7,-1,1,-1,-1,-12
1480697713926123,8,1,-40,-4,-1,-4,-2,2
1480697713926123,-4,7,3,3,0,1,3,0
1480697713926624,1,4,27,0,-1,-2,0,0
1480697713926624,5,-2,-49,0,1,0,1,-6
1480697713948684,-12,-4,-2,-3,-2,-1,-3,-2
1480697713948684,7,-1,2,-1,-2,-1,-2,-14
1480697713949685,2,0,-5,-1,-1,1,0,-7
1480697713949685,8,12,17,0,-2,-1,0,-1
1480697713963723,2,-8,13,3,0,0,1,4
1480697713963723,-7,-6,-6,-3,0,-1,-1,-3
1480697713970240,2,-4,-18,-2,1,0,0,-3
1480697713970240,4,1,11,-1,-2,-1,-1,4
1480697713993302,-5,4,10,0,1,-1,-1,-13
1480697713993302,0,0,16,2,0,1,-1,4
1480697713994303,-3,2,-4,1,2,2,2,-3
1480697713994303,-6,-10,7,-5,1,0,-2,2
1480697714014858,3,4,-3,1,0,-1,-1,0
1480697714014858,-2,-4,7,-2,1,-2,0,-1
1480697714023381,2,4,10,0,-4,-2,-2,-1
1480697714023381,-5,-6,-11,0,-1,1,-1,-5
1480697714024885,-1,-1,8,1,-1,1,-1,6
1480697714024885,-5,-1,-2,-2,-1,-2,1,-7
1480697714030902,6,2,13,2,1,-1,-1,8
1480697714030902,-5,-8,-42,-5,-3,-2,-1,0
1480697714046442,3,1,18,4,0,0,-1,-3
1480697714046442,3,3,-22,-1,-3,0,3,3
1480697714047445,0,2,11,-1,-1,0,-2,-3
1480697714047445,-4,1,9,2,-1,0,2,0
1480697714068501,4,0,5,0,0,0,-1,1
1480697714068501,-4,-3,-24,-1,0,0,-2,-2
1480697714069505,-1,-5,18,-2,-1,-3,-1,0
1480697714069505,1,1,27,0,-3,-1,-1,-3
1480697714091061,5,3,-77,-2,1,-1,0,2
1480697714091061,22,-1,24,-2,1,-2,-2,3
1480697714098581,-32,-10,2,0,-2,0,-2,-8
1480697714098581,-6,6,21,2,0,-1,-3,1
1480697714106101,9,3,16,0,-1,0,2,6
1480697714106101,-7,-5,-10,3,1,1,0,-2
1480697714112117,12,-1,-17,-4,-1,0,0,0
1480697714112117,0,-1,10,0,0,1,-1,0
1480697714128160,-11,-10,18,1,-3,0,2,0
1480697714128160,-8,-17,-14,-4,0,-2,-2,-2
1480697714130164,4,0,-5,1,-1,0,0,1
1480697714130164,-1,-1,20,2,0,-1,0,-2
1480697714142197,-6,-7,-24,-5,1,2,0,-1
1480697714142197,-3,1,28,1,-2,-2,-3,-1
1480697714151221,-3,-10,-79,-5,0,0,0,-2
1480697714151221,6,1,36,-2,0,-2,1,-3
1480697714165759,-2,-1,4,-1,-1,-3,0,-1
1480697714165759,-4,1,0,-1,-1,-1,0,-3
1480697714167767,3,3,10,2,-2,0,1,3
1480697714167767,3,2,-7,2,0,-1,2,-3
1480697714187317,-4,3,31,1,0,-1,0,0
1480697714187317,-1,5,-19,-1,0,0,1,3
1480697714196842,8,0,-19,-1,-2,0,1,2
1480697714196842,-5,-15,-9,-8,-3,-2,-1,-4
1480697714201858,-2,6,47,4,-1,-1,-1,-5
1480697714201858,3,-3,-47,-6,-2,-1,-5,12
1480697714250485,4,-2,20,2,1,1,-1,-3
1480697714250485,6,3,-11,1,0,-1,-2,-15
1480697714251487,-10,2,-14,-2,0,-1,-2,1
1480697714251487,0,1,53,2,-1,1,0,-3
1480697714256501,-1,-6,-25,-2,0,-1,-1,3
1480697714256501,-8,-1,-1,0,-1,-2,0,2
1480697714257505,4,2,9,0,-1,-2,-1,-1
1480697714257505,0,0,-21,-2,1,0,0,-4
1480697714262016,4,-2,3,0,0,2,2,10
1480697714262016,-2,3,-23,-3,-3,-2,-3,-18
1480697714280064,0,-2,4,-2,-1,-2,0,-1
1480697714280064,0,-7,-4,0,-1,-1,0,2
1480697714285077,5,0,-3,1,0,0,-2,-1
1480697714285077,-5,1,13,2,1,-1,-1,5
1480697714301124,-2,-2,-16,-6,1,-1,-3,-2
1480697714301124,3,2,-3,0,1,-1,-1,0
1480697714308139,6,5,43,1,0,0,0,-4
1480697714308139,2,-7,-71,-3,-1,-1,1,8
1480697714324184,-1,1,43,3,0,-1,-2,-10
1480697714324184,-7,0,-27,-2,0,1,0,4
1480697714324683,2,-5,-2,-4,-1,-3,-1,21
1480697714324683,10,4,12,2,0,-1,-2,-7
1480697714331200,-3,4,7,1,0,2,14,3
1480697714331200,8,1,8,1,0,0,-11,-4
1480697714346240,-6,1,-5,1,-3,-2,5,-5
1480697714346240,-3,-4,0,-3,0,-3,-6,-6
1480697714351755,-2,2,-2,-3,-3,-1,-17,18
1480697714351755,-5,3,12,3,0,2,0,4
1480697714368297,4,-8,-41,-3,-1,-3,-3,-4
1480697714368297,-24,-8,28,-1,1,-4,-21,-9
1480697714386346,-4,7,-36,-5,-3,-1,36,-2
1480697714386346,7,0,-2,-1,0,0,-2,5
1480697714387348,-4,-3,-5,0,0,-2,-10,-4
1480697714387348,3,1,29,3,-1,1,5,7
1480697714390858,1,-6,-13,0,0,-3,-9,-2
1480697714390858,-5,1,-5,1,1,1,10,-6
1480697714405899,-15,-7,-20,-8,-4,-4,-5,-12
1480697714405899,14,9,-13,-1,-1,-1,5,6
1480697714407403,-1,3,21,4,0,-1,-2,-2
1480697714407403,2,-3,18,1,-2,0,-4,-1
1480697714428960,-1,1,-5,3,1,-1,-3,-2
1480697714428960,1,-1,3,0,0,1,8,0
1480697714431465,-2,0,6,0,-1,0,-7,-1
1480697714431465,-1,-1,-15,-4,-2,-2,1,-5
1480697714441995,-4,-2,7,1,0,-2,1,3
1480697714441995,-3,-1,-9,-1,-1,2,10,3
1480697714451522,5,1,19,3,0,-1,-2,-2
1480697714451522,-4,3,-21,1,0,0,2,4
1480697714466057,3,-18,8,-6,-3,-3,-7,-7
1480697714466057,1,3,24,2,0,1,11,-1
1480697714467565,8,-4,-9,-3,-1,-1,-12,0
1480697714467565,-38,-2,17,4,0,0,10,-12
1480697714504159,2,-5,-32,-4,0,2,14,22
1480697714504159,8,-1,-2,-1,0,-3,-5,-10
1480697714505663,-5,-3,26,1,1,1,0,2
1480697714505663,-1,3,7,-2,-2,-2,0,-1
1480697714506668,12,8,-10,-2,2,2,-4,-8
1480697714506668,-14,-7,-25,-2,-3,-2,-2,6
1480697714534744,0,5,17,1,-1,-1,0,-2
1480697714534744,11,-2,-16,-1,-1,-1,-5,2
1480697714539754,-10,2,10,3,-2,2,-2,-7
1480697714539754,3,-3,14,-3,-1,-1,-1,-3
1480697714557802,-2,-3,3,0,-1,0,-3,-6
1480697714557802,5,-2,-8,1,-2,0,-2,4
1480697714558805,0,6,9,1,-2,0,3,-2
1480697714558805,-3,0,-2,0,1,1,-1,-4
1480697714562316,-6,-4,-11,-1,1,-3,0,9
1480697714562316,3,-3,4,-4,-1,-2,-10,-3
1480697714578357,0,1,15,5,2,0,6,5
1480697714578357,13,-5,-23,-2,-2,-1,-4,-4
1480697714580864,0,15,-4,1,-2,3,1,-1
1480697714580864,2,-5,-14,-5,-1,-2,-4,5
1480697714585878,-2,2,-7,1,2,-1,-1,-6
1480697714585878,8,-9,15,1,1,-1,-1,0
1480697714587381,-10,-9,-12,-3,-1,-2,-1,-5
1480697714587381,-1,6,-27,-2,-3,0,3,1
1480697714608938,10,6,6,-2,0,1,-1,5
1480697714608938,5,5,20,2,0,-1,-2,-11
1480697714615958,3,-2,-21,0,0,-3,-12,-9
1480697714615958,-1,-1,13,-3,-1,-1,4,-1
1480697714621973,-2,-9,-18,-2,0,-2,-1,2
1480697714621973,-9,4,25,2,-2,-1,0,3
1480697714654559,1,-5,-17,-3,-1,-1,-7,2
1480697714654559,3,-1,-8,0,1,-1,-2,-1
1480697714655562,-4,4,17,2,-3,-1,-2,-5
1480697714655562,-3,1,13,-1,0,2,1,0
1480697714657066,10,0,-16,-2,-3,-2,5,-5
1480697714657066,5,2,2,3,2,0,-1,1
1480697714668097,-5,-1,4,-2,1,1,-1,-15
1480697714668097,-7,24,11,2,-1,0,-1,1
1480697714670102,1,-9,4,-1,0,2,6,4
1480697714670102,-19,-14,-6,-6,-2,-3,-1,-13
1480697714682146,2,0,14,0,-1,1,-8,11
1480697714682146,0,-4,-31,-2,1,-1,1,2
1480697714691157,-6,-5,19,0,0,2,3,-6
1480697714691157,6,6,12,1,1,-1,2,16
1480697714705696,-9,2,5,3,1,0,-3,-9
1480697714705696,26,-3,-11,-4,-2,-2,-1,4
1480697714707200,-48,-9,-7,-4,0,-2,-2,-4
1480697714707200,4,-1,19,3,0,1,-7,-3
1480697714728255,2,2,7,1,0,-1,4,3
1480697714728255,-3,-1,5,-1,-1,-1,-2,-19
1480697714729759,16,4,-10,1,0,-2,-1,6
1480697714729759,6,2,-4,-3,-1,0,-2,-3
1480697714741792,-4,-5,-7,-3,-2,-1,-1,-1
1480697714741792,-10,-4,-14,-1,-2,0,0,6
1480697714756832,6,4,8,1,-1,-3,1,0
1480697714756832,-5,-2,-7,-1,0,0,-7,-6
1480697714780895,12,6,27,2,-2,2,20,6
1480697714780895,-8,-11,-53,-3,1,-1,3,4
1480697714782399,0,-2,6,-5,-2,-1,-1,-5
1480697714782399,7,3,-31,0,-1,0,1,5
1480697714811978,-5,-2,28,-4,-3,-5,-6,-5
1480697714811978,-2,18,-4,0,0,-1,0,5
1480697714815487,-2,1,8,2,-2,1,0,-20
1480697714815487,1,-2,1,-1,0,-1,2,4
1480697714816490,-9,-6,-11,0,1,0,-4,1
1480697714816490,1,-2,40,1,1,-1,5,9
1480697714818495,7,-4,-48,-1,0,0,-7,-3
1480697714818495,-3,-2,6,-5,-3,-2,2,-3
1480697714833536,-7,-6,-15,-2,0,-2,-3,-7
1480697714833536,4,11,29,1,-1,-2,-5,4
1480697714835039,9,-3,-12,-1,0,-1,1,3
1480697714835039,1,-7,3,-2,-1,1,1,4
1480697714856097,-1,-1,-19,-3,0,-2,-3,-15
1480697714856097,5,-3,3,-2,-1,0,0,-7
1480697714857599,-10,-2,23,0,0,1,1,16
1480697714857599,10,2,-5,1,2,0,0,-5
1480697714878154,3,3,10,2,-2,0,-3,5
1480697714878154,1,-11,-44,-4,-1,1,-1,-1
1480697714888181,15,8,-14,-1,-2,-2,-1,-1
1480697714888181,14,2,28,5,1,1,5,17
1480697714888682,-1,1,-13,3,2,-1,-2,-7
1480697714888682,-13,-8,9,-4,-1,-2,-2,4
1480697714892191,9,1,-5,-1,0,0,1,1
1480697714892191,-5,13,13,0,-1,0,1,-1
1480697714914751,-4,-3,-2,-5,-1,-2,1,7
1480697714914751,-12,-10,-6,1,-1,-4,-2,-18
1480697714923274,-2,7,45,5,1,2,2,-6
1480697714923274,4,-5,-16,0,0,-1,-1,2
1480697714938315,-2,-5,-27,-4,-2,-2,0,-1
1480697714938315,-2,-4,-2,-2,-1,-2,-2,3
1480697714939818,-7,-5,9,0,-1,-1,-1,1
1480697714939818,-7,-1,11,1,0,-2,0,-4
1480697714945333,4,0,2,0,0,1,1,3
1480697714945333,-2,-1,-26,1,0,1,0,3
1480697714951850,-3,-6,42,-2,-1,-1,0,2
1480697714951850,0,-5,-54,-3,-1,-1,-4,-3
1480697714968396,0,-3,-28,-4,2,-1,-1,-1
1480697714968396,4,2,26,3,-1,1,0,7
1480697714969898,-12,-8,6,2,2,-1,0,-3
1480697714969898,-12,-6,-3,-2,-2,-2,-4,-3
1480697714990953,0,-2,9,0,-1,1,2,0
1480697714990953,6,-7,-3,0,0,0,-3,-2
1480697714992457,7,10,7,-1,-1,0,1,-2
1480697714992457,1,4,-8,-1,0,-2,0,2
1480697715005493,-6,-1,-1,-2,-1,1,-4,-9
1480697715005493,6,0,5,-1,-1,-1,-1,5
1480697715019530,5,3,-8,2,0,-2,1,2
1480697715019530,-7,-5,8,-6,-1,-1,-2,-7
1480697715036074,3,5,28,2,0,-1,1,10
1480697715036074,-8,1,-38,-1,1,1,1,-2
1480697715037578,-6,-8,-17,-4,-2,0,-2,-4
1480697715037578,6,3,9,2,-1,0,1,-7
1480697715081194,-2,-4,5,-1,-1,-3,-2,2
1480697715081194,-2,3,24,-2,-1,-1,-1,-3
1480697715089717,-3,-9,-3,2,1,-1,2,-4
1480697715089717,5,0,-5,3,0,0,1,8
1480697715090219,-13,-7,-15,-2,-3,-2,-1,-5
1480697715090219,-2,-1,9,-4,-1,-3,-1,1
1480697715092223,4,1,-16,0,0,1,-1,6
1480697715092223,-5,-1,14,1,1,0,-1,-3
1480697715102751,10,5,23,4,2,3,1,16
1480697715102751,-5,-2,-5,0,0,1,-4,-26
1480697715110772,6,-3,-21,1,1,-1,1,-5
1480697715110772,20,0,7,-2,1,1,2,8
1480697715112277,-17,3,-5,-2,1,-1,0,0
1480697715112277,0,0,-3,1,-1,0,-1,-6
1480697715140351,-1,0,-8,-1,0,0,-2,-8
1480697715140351,1,-2,-3,0,-2,-1,5,9
1480697715157899,15,5,21,2,-1,0,0,0
1480697715157899,-3,-3,-25,-4,-2,0,0,-1
1480697715158901,-5,-6,-11,-4,-3,-1,-2,2
1480697715158901,-8,0,15,0,0,-1,-2,-20
1480697715171434,6,-2,-9,-1,-1,-2,1,9
1480697715171434,-7,-1,20,0,0,1,1,1
1480697715172436,3,1,0,-1,-1,0,0,-2
1480697715172436,-2,-1,4,0,0,1,1,4
1480697715174944,0,-5,-22,-4,-1,0,-2,-3
1480697715174944,4,-5,-3,0,-1,-2,0,-1
1480697715185471,4,2,3,1,-2,-1,-2,-2
1480697715185471,-8,1,15,0,0,0,2,2
1480697715193492,5,7,-28,-2,1,0,0,5
1480697715193492,-1,-5,21,-2,-2,0,-2,-20
1480697715208533,-2,-1,-20,-2,-1,-2,-2,-2
1480697715208533,4,18,10,1,-1,0,0,10
1480697715210037,-3,-1,-11,0,0,-2,-6,-22
1480697715210037,1,-1,-11,-4,-1,-1,-1,5
1480697715230592,-1,-5,4,-1,-2,-3,-2,1
1480697715230592,-7,-2,3,2,1,1,-1,3
1480697715232598,28,3,12,0,1,0,0,4
1480697715232598,-57,5,-8,-1,0,-2,0,-5
1480697715245130,2,1,7,-1,0,1,-1,-1
1480697715245130,-2,-5,-19,-2,-1,-2,-1,0
1480697715252650,-5,-1,9,2,-1,-2,-2,2
1480697715252650,6,-8,-12,-4,-1,1,1,-2
1480697715268195,6,2,-9,0,-1,-1,1,8
1480697715268195,-13,-17,4,0,0,0,0,-2
1480697715270196,-7,-5,26,-3,-4,-1,1,3
1480697715270196,16,-8,23,4,1,1,-1,-10
1480697715290752,6,1,-16,-3,-1,0,-2,3
1480697715290752,8,4,-26,-1,0,-2,0,1
1480697715292763,-9,-4,18,-3,-1,1,-2,-2
1480697715292763,8,6,0,2,1,-1,0,8
1480697715304287,-5,6,16,1,1,-1,-3,-4
1480697715304287,5,-4,-10,-1,-1,2,2,2
1480697715313312,-2,1,6,1,-1,0,-1,-16
1480697715313312,3,2,-23,-1,-2,0,0,15
1480697715335871,-1,4,33,1,-1,-1,-1,-3
1480697715335871,-3,2,-25,-3,0,0,-2,2
1480697715357929,-4,-1,-11,-1,1,2,-1,-2
1480697715357929,10,4,15,-1,0,0,-2,5
1480697715358933,-3,0,-3,-2,0,0,2,2
1480697715358933,-1,-3,13,-1,1,0,-3,-13
1480697715366957,-5,0,-9,1,0,1,2,5
1480697715366957,2,-6,-15,-4,-2,-2,-1,-2
1480697715373471,-5,-3,-4,0,-2,0,0,5
1480697715373471,-1,3,4,-1,0,-1,-1,0
1480697715374976,3,-3,28,2,0,0,1,6
1480697715374976,-16,15,-9,-1,-2,-2,-3,-11
1480697715388511,-15,-7,-33,-1,0,1,1,-7
1480697715388511,12,6,7,-2,-2,-3,-4,2
1480697715390016,-3,-3,1,0,1,-2,-2,-3
1480697715390016,12,-2,2,3,1,1,2,13
1480697715412075,0,-2,27,0,0,0,-4,-25
1480697715412075,-9,-2,-38,-2,0,-1,3,-3
1480697715427114,-7,-1,-26,-4,-2,-1,1,5
1480697715427114,4,2,15,0,2,1,-1,-5
1480697715433130,2,8,25,1,-2,-2,1,8
1480697715433130,1,-8,-20,0,-1,-1,-2,-1
1480697715435135,-6,-4,17,-4,-3,-4,-2,-1
1480697715435135,2,-1,-2,3,0,-1,1,-1
1480697715455689,4,-8,-24,-4,-4,-2,-1,6
1480697715455689,-5,3,22,0,-1,1,0,-18
1480697715457696,11,5,-4,2,0,1,1,6
1480697715457696,11,5,-19,-1,0,0,-1,-5
1480697715470729,0,-3,-10,-3,0,0,-1,4
1480697715470729,0,2,8,1,-1,-1,0,8
1480697715472234,-1,3,14,2,0,0,-2,-5
1480697715472234,12,0,-3,2,0,2,2,-1
1480697715484268,-12,-9,-8,1,1,1,3,5
1480697715484268,6,-18,0,-1,0,0,-1,8
1480697715494793,17,3,13,0,-1,-1,-2,4
1480697715494793,3,-6,-32,-2,0,-1,-2,3
1480697715515850,-8,0,0,2,2,0,-1,-3
1480697715515850,-5,-3,28,1,-2,0,0,2
1480697715517358,-5,-6,-36,-1,0,-1,0,-2
1480697715517358,-4,0,4,1,-1,0,-1,2
1480697715530889,4,-5,-7,-4,-3,-1,-4,-4
1480697715530889,-5,7,26,1,-1,-1,4,-3
1480697715532393,0,1,-8,0,-2,-1,0,6
1480697715532393,-6,0,38,1,-1,-1,1,-2
1480697715553451,4,2,-47,0,0,0,1,-5
1480697715553451,2,2,6,2,-1,0,-2,14
1480697715554954,-12,-8,-15,-2,-2,0,-1,-5
1480697715554954,-2,-5,-21,-1,-1,-3,-1,2
1480697715568489,5,10,30,1,0,0,0,-4
1480697715568489,6,-2,-2,0,0,1,1,9
1480697715569994,-6,-2,-9,-1,-3,-1,2,1
1480697715569994,0,-8,55,5,-1,-1,-3,0
1480697715590549,-3,18,-27,-1,-2,-1,-5,-15
1480697715590549,-1,1,-32,-2,0,-1,-3,-7
1480697715592554,-4,2,44,3,1,0,1,1
1480697715592554,-1,-1,-25,-3,0,1,0,-1
1480697715612607,-1,-12,-15,-4,-2,-3,1,0
1480697715612607,-2,-2,1,1,0,-2,0,7
1480697715642187,2,10,0,1,2,0,-4,-6
1480697715642187,-4,-3,29,0,-1,0,2,2
1480697715657226,11,1,19,6,-1,2,3,8
1480697715657226,-5,-5,-14,-3,-2,-1,-2,-6
1480697715673268,14,-9,-67,-9,0,-1,-1,-2
1480697715673268,-18,2,6,-1,-3,-2,-1,-1
1480697715681791,4,0,28,2,0,1,1,2
1480697715681791,-13,-1,21,4,0,-1,0,-11
1480697715684300,-13,-3,-12,1,-2,-1,-3,3
1480697715684300,4,-1,-8,-3,0,-2,-3,5
1480697715685300,1,1,20,0,1,0,1,1
1480697715685300,5,9,-18,-1,-1,-1,-2,0
1480697715690314,-4,-4,12,-2,0,-3,-1,-2
1480697715690314,-4,0,-23,-4,-1,0,-4,-2
1480697715691318,5,-1,22,-1,-1,-2,-1,12
1480697715691318,3,-6,-36,-6,-1,0,-1,0
1480697715711369,1,-16,16,-2,0,-1,2,1
1480697715711369,-1,-1,-19,-2,-1,0,0,-3
1480697715712372,17,3,5,2,2,-2,1,3
1480697715712372,-9,-12,31,-1,-2,0,3,-1
1480697715713876,1,-3,-28,-2,-5,-1,-1,3
1480697715713876,-4,-1,15,2,0,0,-1,-12
1480697715733932,-6,-2,-14,-1,-1,-2,-2,-2
1480697715733932,4,-1,6,-4,-2,-1,-1,4
1480697715735434,-1,6,28,2,1,0,-1,-5
1480697715735434,9,3,-5,0,0,1,1,4
1480697715755988,3,-6,-13,-7,-3,-2,-3,8
1480697715755988,-15,9,-9,2,2,-1,-1,-4
1480697715757499,0,-6,-6,-2,-1,0,-1,-4
1480697715757499,7,4,34,2,0,2,0,-4
1480697715778548,-3,-8,-30,0,1,2,1,5
1480697715778548,-2,4,-8,1,-1,-1,-1,-4
1480697715781055,2,-2,18,3,3,0,1,3
1480697715781055,-1,0,-20,-2,0,-2,1,3
1480697715793087,-9,-2,14,-2,-1,-1,-1,-4
1480697715793087,7,3,5,1,1,1,-1,-2
1480697715799605,1,10,-1,2,-1,0,-2,-3
1480697715799605,1,-6,-10,-3,-1,-3,-1,-1
1480697715808127,-5,2,13,1,-2,-1,-1,-5
1480697715808127,7,-1,-2,-4,1,0,-3,1
1480697715816149,-1,4,12,2,0,0,0,2
1480697715816149,-1,-2,3,-4,-2,1,-2,0
1480697715831188,-2,1,-5,0,0,-1,1,-5
1480697715831188,6,-1,20,0,-4,-1,-3,-2
1480697715836703,8,3,-22,-2,1,0,-1,1
1480697715836703,-6,6,6,-1,0,0,-1,-2
1480697715853247,6,-3,-13,-1,0,0,-3,3
1480697715853247,1,14,6,1,-1,1,2,0
1480697715912906,-5,1,-9,-2,-2,-2,-2,-3
1480697715912906,4,6,17,2,-1,-1,-2,0
1480697715913908,-4,-5,-16,-1,1,0,0,-5
1480697715913908,-8,-12,-27,0,0,-1,0,16
1480697715922933,8,4,4,-2,-2,-3,-2,-7
1480697715922933,-7,-5,-13,-2,-1,-2,-1,1
1480697715924938,-3,6,13,2,-1,0,1,-1
1480697715924938,3,-1,1,0,-1,-2,1,2
1480697715945492,-6,-7,-7,1,1,0,0,-1
1480697715945492,13,-4,-3,-3,-4,0,1,1
1480697715946495,8,-7,-11,-7,-3,0,-3,-4
1480697715946495,3,8,39,1,-1,0,0,-1
1480697715959028,0,-10,-32,-2,1,0,-1,0
1480697715959028,-14,-2,32,0,-1,-2,-2,-8
1480697715960031,13,4,1,1,-1,-1,-1,-1
1480697715960031,-4,-7,9,0,-2,-1,-2,-6
1480697715961535,-5,-2,-3,-3,-1,0,-1,-2
1480697715961535,-1,1,-35,0,-1,1,2,14
1480697715973065,0,-4,13,1,-1,-3,-1,-23
1480697715973065,-4,-2,-1,-2,1,-2,-1,-3
1480697715981087,-5,-1,-9,-3,-3,-2,1,-1
1480697715981087,3,3,-5,1,0,-1,0,-3
1480697715987604,0,-1,-27,-2,1,-1,0,5
1480697715987604,-1,-3,30,3,0,1,-1,5
1480697715994622,-7,1,-3,0,-2,-2,0,-7
1480697715994622,1,3,19,0,1,0,1,0
1480697716018186,3,2,19,2,1,0,-2,5
1480697716018186,-7,-5,-24,-4,0,-1,0,-18
1480697716019689,-4,-4,3,-7,-2,-1,-2,-1
1480697716019689,0,-3,-37,-1,0,0,-1,-1
1480697716033226,25,2,12,0,-1,0,0,1
1480697716033226,-17,5,11,2,0,0,-1,4
1480697716035231,-1,-2,2,-2,-1,-1,-1,-5
1480697716035231,-2,-3,27,1,1,1,0,1
1480697716047764,-1,1,13,2,1,2,1,-4
1480697716047764,16,0,-55,-1,-1,-1,1,27
1480697716054281,0,-1,43,-1,-3,0,0,-4
1480697716054281,-5,-8,-49,-5,-1,-2,0,6
1480697716070825,-7,2,32,1,2,-1,-2,-3
1480697716070825,0,-3,-17,-4,-2,-2,-1,-3
1480697716072329,-2,3,44,2,1,0,0,5
1480697716072329,-1,-5,-42,-1,-1,0,0,-2
1480697716093386,-9,16,0,-4,-2,-2,1,1
1480697716093386,11,2,22,2,1,-1,1,-8
1480697716094890,5,4,-15,0,-1,-1,0,7
1480697716094890,-4,-5,20,1,-2,-2,-1,-3
1480697716108928,-2,-2,-11,-1,-1,2,-3,-11
1480697716108928,-10,-8,-2,-3,-4,-1,-10,-8
1480697716131989,7,10,-21,0,0,-1,-2,-5
1480697716131989,0,-2,24,0,0,-2,2,2
1480697716132991,-6,-7,-10,0,0,1,0,6
1480697716132991,2,2,9,-2,0,-2,-2,-3
1480697716137002,-4,-1,-6,2,1,1,-7,-2
1480697716137002,1,-3,-1,-3,-3,-3,1,-1
1480697716199668,1,-1,-6,-1,0,-1,-1,0
1480697716199668,3,8,5,-2,-1,-1,-3,2
1480697716201173,23,-3,-25,-3,-1,1,0,5
1480697716201173,3,6,12,-1,1,1,-1,-1
1480697716202176,-13,0,13,0,-1,0,2,1
1480697716202176,1,0,28,1,-2,0,0,-7
1480697716207188,7,-3,-54,-2,0,-1,4,-4
1480697716207188,3,5,17,-4,-2,-2,-5,3
1480697716221226,-1,-1,6,-1,-1,-2,-2,0
1480697716221226,8,15,0,-2,-1,0,4,15
1480697716222228,-3,-2,-26,0,0,1,-1,14
1480697716222228,-8,-8,1,-2,-2,-1,-2,-23
1480697716223732,-7,0,6,-2,-3,-1,0,-6
1480697716223732,-12,-3,6,3,0,0,0,1
1480697716243284,8,0,12,2,-1,-1,1,-1
1480697716243284,5,3,-58,-4,1,-1,-1,2
1480697716244788,-7,-3,14,-4,-2,-2,1,-7
1480697716244788,-13,0,28,1,-2,-1,2,-5
1480697716250804,4,-9,-45,-6,-1,-2,-5,5
1480697716250804,-11,-5,4,1,0,-1,0,-14
1480697716252309,3,2,18,4,1,2,-1,1
1480697716252309,0,1,1,-1,-1,1,-3,1
1480697716272862,-8,-1,-4,-2,-2,0,-1,-16
1480697716272862,2,-5,4,-2,-2,0,-1,11
1480697716287403,-11,-2,3,-2,-1,0,0,-1
1480697716287403,22,2,7,3,1,2,0,0
1480697716288404,-3,-5,-38,-1,-1,-3,0,0
1480697716288404,-1,-4,-16,-2,3,-1,0,0
1480697716296927,-5,-7,15,-1,-4,-2,-1,-5
1480697716296927,-3,-4,-14,-4,0,-3,-2,0
1480697716310964,4,0,19,1,-1,1,0,3
1480697716310964,-7,-1,41,3,0,-3,5,-2
1480697716312468,0,-1,-48,-3,-1,-2,2,15
1480697716312468,-10,19,-1,0,-2,1,0,-16
1480697716333526,7,-1,19,-1,0,-1,-1,-2
1480697716333526,-17,-7,1,1,1,1,-3,0
1480697716335028,4,9,7,0,1,-1,-1,8
1480697716335028,-1,-11,-28,-3,-2,-1,-1,1
1480697716347060,-5,1,3,-1,0,0,-2,1
1480697716347060,8,6,-8,-2,-1,0,1,-2
1480697716356084,-6,-1,24,6,3,1,0,-1
1480697716356084,-4,-1,6,0,-2,-1,0,-2
1480697716370622,8,-8,-29,-6,0,-3,1,2
1480697716370622,-4,1,26,1,0,0,0,1
1480697716372628,1,-9,-52,-5,-3,-2,0,-4
1480697716372628,-4,1,8,1,0,-1,0,7
1480697716393182,4,2,18,0,-1,-2,-3,-13
1480697716393182,2,-3,-5,-2,-1,0,0,1
1480697716394687,-4,2,20,0,0,-1,-1,-1
1480697716394687,5,3,9,3,0,0,-1,1
1480697716415743,-7,-5,-24,-1,-1,-1,0,4
1480697716415743,6,-2,4,-3,-1,-1,-3,4
1480697716417750,27,0,-21,-1,0,3,2,-4
1480697716417750,-19,-6,6,-2,-2,-3,1,-1
1480697716444820,-4,3,23,6,0,0,-1,3
1480697716444820,-5,-4,-6,1,-2,0,-2,-4
1480697716470388,3,-1,26,3,-1,-2,-2,-3
1480697716470388,5,0,-30,-4,-2,-2,0,8
1480697716471390,-8,-19,18,0,3,5,2,-7
1480697716471390,3,-4,-29,-2,-2,1,1,12
1480697716476905,0,1,14,-2,-2,-4,-4,-19
1480697716476905,-1,-6,46,5,0,-1,-1,3
1480697716477908,-4,3,-36,-1,-2,-1,-1,-1
1480697716477908,4,-2,-19,0,2,2,0,2
1480697716481919,-10,4,14,2,0,1,1,6
1480697716481919,-4,-12,-59,-8,-2,-1,-3,-10
1480697716498462,3,11,23,3,1,0,1,8
1480697716498462,5,-2,6,0,0,-1,-1,-3
1480697716499967,-10,1,-8,-1,-1,0,-1,-3
1480697716499967,5,0,1,0,1,-1,-3,0
1480697716512500,3,9,11,-3,-3,-2,0,3
1480697716512500,0,0,-12,-2,-2,-1,-1,-1
1480697716521023,-3,1,6,-1,-2,0,1,3
1480697716521023,1,5,5,0,1,-1,-2,1
1480697716527038,-2,-5,-20,-4,-3,-1,-2,-2
1480697716527038,-1,-7,-31,-7,-3,-3,-2,-2
1480697716536062,0,-4,-1,0,2,0,0,-1
1480697716536062,-1,1,3,-1,0,0,-1,3
1480697716551107,-3,4,41,2,0,-1,0,-10
1480697716551107,11,0,-5,4,-1,-2,-2,17
1480697716552607,-5,-7,-22,-3,0,-1,0,-5
1480697716552607,-3,-4,3,0,-1,-2,0,-3
1480697716573162,12,17,45,1,1,0,-2,6
1480697716573162,-27,-9,-45,0,1,2,2,6
1480697716575166,4,1,9,1,-2,-2,-3,-2
1480697716575166,-16,0,17,0,-2,0,-1,3
1480697716587700,2,-5,-11,-1,-1,-3,1,-3
1480697716587700,1,-3,32,2,1,0,2,-6
1480697716603241,-3,-3,-19,-2,-2,0,-4,0
1480697716603241,5,1,-38,0,2,1,5,-8
1480697716610762,-14,-9,-3,-5,-2,-2,-2,13
1480697716610762,2,1,21,2,0,-1,0,1
1480697716612265,-1,4,-1,0,0,-2,-2,-11
1480697716612265,-7,2,12,-4,-3,-2,0,1
1480697716633322,13,-2,-23,0,-1,-1,2,-5
1480697716633322,-14,-3,10,-1,0,-1,0,9
1480697716634825,5,3,30,2,0,1,0,-4
1480697716634825,-1,0,-43,0,0,0,0,0
1480697716646857,5,2,20,-1,0,0,0,-4
1480697716646857,-25,2,1,-1,0,1,0,-4
1480697716655881,0,-5,-1,1,1,0,2,-2
1480697716655881,-13,-3,-6,-1,-1,0,-3,-13
1480697716670921,3,0,-5,0,0,1,1,5
1480697716670921,14,1,33,2,0,-2,0,-1
1480697716672425,-5,1,-82,-7,-2,-1,-1,-3
1480697716672425,9,-2,22,-3,-2,-2,0,0
1480697716693482,-3,-6,15,2,0,0,0,-2
1480697716693482,-8,7,-10,1,0,1,-2,-4
1480697716694986,-6,-4,17,-2,-2,-2,1,2
1480697716694986,7,0,3,0,1,1,-4,8
1480697716745118,0,-1,16,1,-2,-1,-1,-7
1480697716745118,8,4,-25,-3,-3,-2,-1,2
1480697716756148,-3,-2,4,0,0,0,0,5
1480697716756148,5,-5,5,-5,-2,-4,-3,-2
1480697716756650,-3,2,-4,3,-1,1,0,-10
1480697716756650,-19,-5,29,0,0,-1,-3,0
1480697716760159,4,0,-14,-1,-2,-1,0,4
1480697716760159,3,-1,5,-1,-1,0,-2,-6
1480697716761161,-13,-4,-11,2,1,0,2,-5
1480697716761161,14,1,-19,-3,-1,1,-1,-10
1480697716775701,-3,12,-8,-3,-3,-3,-1,1
1480697716775701,9,0,13,0,1,-1,-3,-7
1480697716782217,-4,1,0,0,1,0,1,7
1480697716782217,7,-4,3,1,-1,-2,2,-3
1480697716790740,-7,0,-22,-1,0,-2,-4,-23
1480697716790740,17,6,14,-2,-2,-1,0,3
1480697716792244,3,5,32,1,-1,2,-1,0
1480697716792244,-3,-4,-42,-1,-1,-1,2,2
1480697716820820,6,-5,-26,-4,-1,-2,0,11
1480697716820820,1,-2,4,0,0,-2,-1,-5
1480697716822324,-3,-2,15,-2,-1,-3,-1,-1
1480697716822324,5,6,14,4,-1,1,-1,-2
1480697716843881,-4,-5,-4,-2,-3,-2,-5,7
1480697716843881,6,0,-5,-2,-1,-2,1,-8
1480697716847391,1,-4,11,0,-1,-1,-1,4
1480697716847391,-3,-2,-11,-1,2,0,-1,-8
1480697716851402,1,2,29,1,2,1,2,7
1480697716851402,-8,-8,-47,-5,-1,-2,-2,-4
1480697716859423,10,3,13,2,1,0,0,-3
1480697716859423,-25,2,6,1,-1,-1,1,5
1480697716873460,-4,-7,1,-5,-3,-1,0,0
1480697716873460,5,0,-3,1,1,0,3,23
1480697716874965,-1,0,-5,0,0,0,0,-6
1480697716874965,6,-7,11,-1,1,-1,-3,-4
1480697716896019,4,-1,-1,1,1,1,0,6
1480697716896019,-13,-5,28,-2,-1,1,-2,-1
1480697716897525,-11,-3,-2,-1,-1,0,-2,-4
1480697716897525,4,3,-32,-3,0,-1,2,-5
1480697716910057,3,-7,-21,-2,2,0,-2,11
1480697716910057,14,2,14,1,1,-1,-1,-6
1480697716917078,-2,1,3,0,-2,0,2,-1
1480697716917078,5,6,23,1,-2,-1,0,2
1480697716933119,-7,-1,-52,-4,-2,-2,1,-4
1480697716933119,0,8,5,0,0,0,1,-12
1480697716935124,10,-1,7,0,-1,-1,-2,8
1480697716935124,-6,-1,6,0,-2,0,1,3
1480697716954675,12,-2,7,-1,-1,-1,-2,-9
1480697716954675,-9,-3,0,-1,-2,-2,-2,1
1480697716970720,-2,2,-20,-1,-1,-2,1,1
1480697716970720,3,7,27,4,1,2,-2,-3
1480697716971721,-1,-4,-8,-4,0,-3,-1,23
1480697716971721,2,4,26,0,-1,-2,-4,-37
1480697716994281,5,-10,-43,-5,-2,0,-1,2
1480697716994281,-1,-1,7,1,-1,0,1,-5
1480697716996287,0,3,2,3,1,2,-1,5
1480697716996287,-4,-1,-1,-1,-1,0,-2,7
1480697717002830,-3,18,-3,-3,-3,-2,-1,2
1480697717002830,1,-4,16,0,-2,-1,-2,-5
1480697717023358,-5,-2,-15,0,-1,1,0,-5
1480697717023358,3,4,5,1,-1,-2,-1,0
1480697717024862,0,-2,15,0,3,2,1,-5
1480697717024862,1,-10,-48,-11,-5,-4,-2,5
1480697717030376,-21,-1,29,3,0,-1,-1,-7
1480697717030376,-1,-2,-10,1,0,0,3,6
1480697717044414,-3,1,16,2,-1,-1,-1,-2
1480697717044414,0,1,12,0,0,0,1,-1
1480697717053438,3,-5,-40,-1,-2,3,0,-4
1480697717053438,1,-4,-10,1,-1,-1,0,0
1480697717054943,-3,4,3,2,-2,-3,0,1
1480697717054943,1,2,26,1,-1,-1,-1,4
1480697717076000,8,0,-10,0,0,-2,0,-9
1480697717076000,-2,0,-6,-1,1,0,0,5
1480697717077502,9,3,33,1,-1,0,1,3
1480697717077502,6,-1,-55,-2,-1,0,-1,2
1480697717090035,1,2,25,-2,-1,-2,-1,-3
1480697717090035,-8,0,-9,-1,0,2,-1,-3
1480697717097054,4,-1,-11,-2,0,-2,0,4
1480697717097054,3,4,20,3,1,1,-1,0
1480697717113097,-3,4,13,1,-1,-1,-1,-1
1480697717113097,6,-7,-44,-7,-2,-6,-4,2
1480697717115102,-8,-2,8,3,3,2,-2,-2
1480697717115102,-5,-8,21,-1,0,-1,-1,6
1480697717135657,3,3,-15,-1,-1,0,-1,-14
1480697717135657,-3,-3,37,1,-1,-2,1,-2
1480697717139166,-3,7,-16,-1,0,0,-1,-4
1480697717139166,-1,-5,0,0,-2,0,-1,0
1480697717150196,2,9,36,3,0,0,0,4
1480697717150196,-1,-5,-6,-2,-3,1,-2,1
1480697717164234,-2,-1,-39,-2,0,-1,-2,-2
1480697717164234,-6,-6,9,4,2,1,2,0
1480697717173257,-1,1,26,1,-1,-2,-1,2
1480697717173257,5,-6,-23,0,1,2,1,-1
1480697717180777,-5,-8,-13,-3,-3,1,0,1
1480697717180777,0,8,11,1,1,0,-3,-2
1480697717195817,2,-9,-7,-2,-2,2,1,2
1480697717195817,-2,-14,-11,-2,-3,-1,-1,5
1480697717197320,2,2,13,-2,0,-1,0,-4
1480697717197320,1,1,8,2,-2,0,-1,10
1480697717209854,-1,-2,-29,-2,0,-1,-1,0
1480697717209854,0,-2,-29,0,-1,1,0,-2
1480697717224393,-5,-4,-3,-4,0,-2,-1,-4
1480697717224393,18,3,-7,-1,-2,1,1,1
1480697717239934,-34,-8,9,0,1,-2,-1,13
1480697717239934,-18,6,35,3,2,1,-1,-21
1480697717256478,-2,-6,-34,-3,-2,-2,-2,1
1480697717256478,-4,-6,-19,-4,0,-1,0,-5
1480697717257480,7,-2,11,-3,-1,0,1,3
1480697717257480,9,7,20,3,1,-1,-1,2
1480697717258985,-11,-15,-19,2,2,2,1,-1
1480697717258985,-6,-1,15,-5,-3,-3,-2,-5
1480697717278036,-1,-1,-8,-1,1,-1,1,-7
1480697717278036,0,-2,-5,-2,-2,0,0,20
1480697717280041,7,4,43,3,0,1,-1,-6
1480697717280041,2,-2,-36,-2,-1,2,-2,3
1480697717300598,-4,-3,3,0,-2,0,0,-4
1480697717300598,18,5,15,1,0,-2,-1,15
1480697717302601,1,4,34,2,-1,-1,-1,-1
1480697717302601,-5,-5,-63,-2,1,-1,0,-7
1480697717323156,-2,-2,4,-7,-5,-5,-3,5
1480697717323156,-8,-13,4,1,4,2,1,-8
1480697717330174,-6,-11,-16,-2,-2,1,-1,4
1480697717330174,4,6,49,3,0,0,0,0
1480697717331176,14,4,-13,0,2,1,-1,-1
1480697717331176,1,0,-14,0,-3,-1,1,0
1480697717345716,-2,0,24,-1,-4,-2,-2,-17
1480697717345716,24,2,-3,0,0,0,-1,2
1480697717353235,-8,-4,6,-1,0,-2,-1,-1
1480697717353235,0,5,-12,-2,-2,0,0,-1
1480697717354739,-1,2,-3,-1,-1,-1,2,4
1480697717354739,-10,3,27,1,-1,0,-1,-13
1480697717375796,18,0,-39,-3,-1,0,0,-6
1480697717375796,-4,1,12,-2,-1,0,-2,-3
1480697717377299,7,-3,1,0,1,-1,-2,3
1480697717377299,-5,1,19,1,-1,-1,0,8
1480697717389332,5,-4,-9,-2,0,0,-2,-8
1480697717389332,-7,-3,-25,-3,-2,0,1,-4
1480697717398356,1,-4,-20,-3,-2,-3,-1,2
1480697717398356,-2,8,13,0,0,0,-2,-2
1480697717413396,-2,8,15,0,-1,-1,-2,-2
1480697717413396,14,11,18,0,-2,-2,-1,4
1480697717437460,-14,-21,-68,-7,-2,-2,-1,-11
1480697717437460,-4,1,8,-2,-1,-3,-2,-1
1480697717439465,-6,-6,-2,2,1,3,2,1
1480697717439465,1,0,4,0,1,1,0,2
1480697717441472,-2,2,1,0,-1,-1,-1,2
1480697717441472,3,-2,4,0,0,-1,5,8
1480697717449492,18,1,-2,1,-2,-1,-1,-9
1480697717449492,-19,-7,7,-1,0,-1,-1,0
1480697717466036,3,2,22,4,1,-1,0,6
1480697717466036,-2,-3,-31,-1,-1,0,-1,-1
1480697717473555,4,5,34,2,-1,-2,-2,16
1480697717473555,-3,-11,-56,-4,-1,-5,0,-7
1480697717475060,4,8,11,-1,0,0,1,2
1480697717475060,-4,-2,20,-1,-1,-1,-1,-4
1480697717495614,3,3,-9,0,0,1,1,2
1480697717495614,-6,-5,17,-2,-2,-2,-2,-8
1480697717497619,4,3,-19,-2,-1,2,-1,8
1480697717497619,-5,-8,-2,-3,0,-1,-1,-2
1480697717509653,-2,-1,14,3,2,0,-1,-7
1480697717509653,3,9,16,2,0,1,-1,3
1480697717519178,-13,-1,-20,-3,-2,-3,-1,-2
1480697717519178,-7,-4,7,4,2,2,-1,-13
1480697717534220,-11,-24,-23,-7,-4,-2,0,0
1480697717534220,2,8,34,5,0,-1,1,-1
1480697717546750,-3,-1,-23,-2,-1,1,0,-3
1480697717546750,4,3,-57,-4,-1,0,-2,4
1480697717555775,-15,-2,15,0,2,-4,3,-7
1480697717555775,9,-7,5,-2,2,1,-1,-5
1480697717557278,3,3,1,0,-1,0,1,-1
1480697717557278,0,6,6,0,0,0,-2,5
1480697717577331,18,3,-17,-1,-1,-1,-1,8
1480697717577331,-6,1,6,1,1,0,1,5
1480697717585854,4,3,32,1,0,-2,0,-4
1480697717585854,-5,-3,-5,1,0,-2,0,-1
1480697717592371,4,3,19,1,0,1,-1,3
1480697717592371,3,-1,-47,-4,-4,0,-1,-8
1480697717600896,-16,-5,3,-2,-1,-1,-2,5
1480697717600896,-1,1,19,3,1,1,1,2
1480697717630975,-1,-1,25,0,1,0,-2,-3
1480697717630975,0,0,-37,0,0,0,-1,-3
1480697717632480,0,-6,-4,-1,-1,-1,0,-3
1480697717632480,-6,1,8,-1,-1,-1,1,-1
1480697717645513,-3,8,-1,-1,-1,-2,0,0
1480697717645513,1,-3,7,-3,0,0,0,3
1480697717655539,9,15,18,1,-2,2,-1,3
1480697717655539,-1,-4,-12,-2,0,-1,-1,10
1480697717656041,-6,2,3,1,-1,-1,1,0
1480697717656041,6,0,28,0,-1,-1,2,-1
1480697717659550,0,-4,-51,-4,-1,-1,1,5
1480697717659550,-12,-9,3,-5,-2,-2,-6,-35
1480697717676596,1,9,0,1,-1,1,-1,4
1480697717676596,-3,0,7,-1,0,-1,0,-1
1480697717678100,1,-3,-5,0,0,-1,-2,-1
1480697717678100,0,-1,-2,-2,-1,0,3,8
1480697717698657,4,-6,-4,0,-1,0,-1,-2
1480697717698657,-14,5,31,2,0,-2,-2,-3
1480697717700660,6,0,-9,0,1,2,2,4
1480697717700660,2,-3,-18,-4,-1,-3,-2,-2
1480697717714195,-9,-7,-14,-4,1,1,0,-3
1480697717714195,5,-1,-4,0,-1,-2,1,2
1480697717715700,4,2,32,3,-1,1,0,-7
1480697717715700,-1,1,10,0,0,-2,0,0
1480697717736254,-1,5,-2,3,0,-1,-3,4
1480697717736254,5,-7,-10,-3,-2,0,0,-1
1480697717738260,-7,1,13,0,1,0,-2,-9
1480697717738260,-1,0,5,1,-1,0,1,-1
1480697717758313,2,1,-5,-3,-3,-1,0,3
1480697717758313,0,2,-7,-1,2,-1,-1,-2
1480697717759816,2,-3,33,1,-1,-1,-1,7
1480697717759816,5,-3,-11,-3,-2,1,2,15
1480697717772851,-3,-2,-18,0,1,-1,-1,-9
1480697717772851,0,9,6,-3,-3,-1,1,7
1480697717779370,-2,-6,-9,-4,-1,-1,-2,-6
1480697717779370,-1,-8,5,-1,0,-2,0,3
1480697717804436,-8,4,10,-1,1,-1,0,-2
1480697717804436,-21,-8,14,1,1,-3,-3,-5
1480697717809450,0,2,-7,1,1,-1,3,6
1480697717809450,3,2,-6,-3,-3,-2,-2,-2
1480697717825992,-3,0,19,1,-1,0,0,-2
1480697717825992,10,2,-18,1,0,-1,0,-2
1480697717832511,9,-6,-10,-4,-2,-1,-3,7
1480697717832511,-2,1,3,2,1,0,1,-2
1480697717864595,5,3,8,1,-2,2,-2,1
1480697717864595,0,5,28,2,-2,0,-1,7
1480697717866603,8,-2,-49,-4,-3,-1,-1,-3
1480697717866603,1,2,-2,2,0,2,-3,-7
1480697717867104,-5,-7,10,1,0,-3,0,2
1480697717867104,8,-1,9,3,1,1,-2,-4
1480697717878131,-5,3,1,-2,0,-1,-1,-4
1480697717878131,-1,3,-1,-2,0,0,1,-1
1480697717886154,-1,-2,0,0,0,-2,0,-4
1480697717886154,-4,-3,-13,0,1,-1,2,13
1480697717888660,-3,-4,17,2,-2,-2,-3,-23
1480697717888660,-2,10,9,2,1,-1,-2,3
1480697717892671,6,0,-1,0,0,1,1,4
1480697717892671,-16,-7,-20,-1,-1,0,1,-16
1480697717899188,-5,11,12,-5,0,-2,-2,19
1480697717899188,11,-8,-20,2,-2,-1,-1,3
1480697717923251,-10,-3,2,-3,-1,-3,-1,-5
1480697717923251,5,2,-5,-1,0,2,1,-1
1480697717924755,-5,-3,21,2,0,0,0,-6
1480697717924755,-3,-3,6,-3,-3,-2,1,1
1480697717938293,8,-2,-22,-4,-3,-2,-1,3
1480697717938293,3,9,5,-1,-1,0,-1,-5
1480697717944307,2,-7,23,3,3,0,1,2
1480697717944307,-34,0,-3,1,1,-1,-1,-5
1480697717953331,7,-2,-10,-2,-1,-2,-3,-1
1480697717953331,2,-3,2,-4,-2,-2,-5,-10
1480697717959347,1,2,1,0,-1,1,0,-4
1480697717959347,-6,2,15,3,0,0,1,5
1480697717975892,-13,-6,-58,-2,7,5,3,-5
1480697717975892,-5,-3,3,-4,-1,-1,-1,1
1480697717977395,-4,-1,-3,1,-3,1,0,1
1480697717977395,5,-1,11,1,-2,-2,-2,-4
1480697717998952,-5,5,46,4,-2,-1,4,-16
1480697717998952,11,-7,-66,-7,-3,-2,-1,9
1480697718013492,0,0,30,1,0,-1,0,2
1480697718013492,5,0,-17,-1,-3,-1,-1,2
1480697718014494,6,-4,14,-3,-2,-2,-3,0
1480697718014494,2,-1,8,2,3,1,-1,-5
1480697718019507,4,-3,-8,-3,-2,-1,-1,5
1480697718019507,-18,1,8,0,1,-1,-3,-7
1480697718036051,5,9,3,0,0,-1,2,10
1480697718036051,-14,-10,-14,-5,-6,-2,-3,-3
1480697718037556,6,5,-6,2,0,-3,-1,2
1480697718037556,-6,-6,-8,-3,1,0,-1,-1
1480697718059614,4,-5,-4,1,0,1,-1,7
1480697718059614,4,2,9,1,-1,-1,3,13
1480697718061118,-18,-3,3,1,-1,1,-3,-16
1480697718061118,9,2,20,0,-2,0,0,-5
1480697718072648,-3,-4,-72,-7,-1,-2,-2,-4
1480697718072648,0,-3,14,1,1,1,-1,15
1480697718087188,-3,-5,21,0,1,0,-1,5
1480697718087188,22,4,-14,3,0,1,0,1
1480697718102232,-9,-1,33,-1,1,-1,-3,-4
1480697718102232,9,5,16,2,0,1,1,-1
1480697718134814,-1,-1,-37,-1,0,0,1,-1
1480697718134814,1,-1,25,-2,-2,-2,-1,-4
1480697718135315,-3,0,8,1,-2,-1,-1,7
1480697718135315,4,1,-10,0,0,-1,-1,-5
1480697718139326,4,-10,-9,-3,-2,-2,-2,-8
1480697718139326,4,0,-5,-1,-1,1,4,7
1480697718164894,-1,3,-2,3,-1,0,0,-7
1480697718164894,-1,-2,-13,-4,-1,-1,-3,-3
1480697718168404,-17,6,-3,5,3,1,1,-13
1480697718168404,2,-14,-18,-9,-2,-5,-3,4
1480697718170409,-4,-6,3,-1,-1,-1,-2,2
1480697718170409,5,6,13,2,1,0,1,-3
1480697718171912,2,-5,6,0,2,0,-1,2
1480697718171912,1,1,-14,-1,-2,-1,-3,-3
1480697718177428,-3,2,15,2,1,1,1,-5
1480697718177428,0,-2,29,1,-1,-4,-1,10
1480697718185950,3,6,-22,-3,-3,0,0,-1
1480697718185950,0,2,6,3,1,1,0,4
1480697718191967,0,-3,-39,-4,-3,0,1,-1
1480697718191967,0,1,11,0,0,0,-2,-2
1480697718200990,14,6,36,3,3,2,3,3
1480697718200990,-36,-3,-10,1,0,-1,-1,-14
1480697718216032,0,2,36,5,1,1,1,-2
1480697718216032,-5,-5,-36,-3,0,0,1,0
1480697718224052,22,-9,-8,-4,-2,-2,-2,16
1480697718224052,8,6,15,2,3,-1,0,1
1480697718254633,-2,-13,-49,-3,-3,-2,-2,1
1480697718254633,-10,7,40,2,-1,0,-1,-3
1480697718256137,-5,1,-28,-3,-1,1,2,-5
1480697718256137,6,-7,-11,-1,0,0,-1,-4
1480697718260648,-3,-4,20,0,0,-1,-1,5
1480697718260648,8,0,-8,-1,1,0,-1,-6
1480697718262654,-8,4,-2,1,1,0,3,2
1480697718262654,7,4,8,-1,-2,-2,-1,5
1480697718275689,-1,1,0,-1,0,0,2,-1
1480697718275689,-4,-1,-6,0,-1,-1,-3,-4
1480697718277695,0,4,5,0,-1,0,-1,-4
1480697718277695,-3,-1,-3,-2,1,2,-3,3
1480697718298751,6,5,12,1,-2,-3,-2,-2
1480697718298751,-11,1,-5,-2,-1,-1,-1,7
1480697718304265,13,-6,-20,-3,-2,0,-4,-22
1480697718304265,15,3,11,0,-2,-1,0,3
1480697718311785,1,-1,4,1,-1,2,2,6
1480697718311785,7,-8,-68,-6,-1,1,-1,-11
1480697718320808,-10,-5,29,0,-3,-4,-1,7
1480697718320808,4,2,-5,1,1,0,1,2
1480697718335848,25,4,36,-1,-2,-3,-5,0
1480697718335848,-31,4,-19,1,0,0,1,4
1480697718339358,5,-2,-3,-2,0,1,3,0
1480697718339358,-3,-6,-7,-1,-1,-1,0,-5
1480697718358409,5,5,4,1,0,1,1,7
1480697718358409,8,0,7,-4,0,-2,0,-7
1480697718359912,-3,-1,-2,-2,-1,-1,-1,2
1480697718359912,-9,-1,22,3,0,0,-2,-3
1480697718371945,-7,-1,-36,-3,-1,0,1,0
1480697718371945,2,-11,-14,-5,-4,-2,-2,-4
1480697718386984,-11,0,26,2,-1,-3,-1,6
1480697718386984,6,0,-28,-5,-1,-4,-4,-3
1480697718418570,-7,-4,2,-4,-1,0,-1,5
1480697718418570,5,-2,17,3,2,2,1,3
1480697718426590,-1,0,-10,0,1,0,-2,-1
1480697718426590,-11,-3,0,-1,-2,-1,-3,10
1480697718434116,-4,3,10,-1,0,-2,-1,-4
1480697718434116,1,3,28,2,2,-1,-1,-1
1480697718435614,6,-4,-27,-1,-2,-1,-1,3
1480697718435614,6,1,-3,-3,0,1,2,-3
1480697718436617,-4,-2,-10,1,0,2,2,-8
1480697718436617,-8,1,25,1,-3,-1,1,15
1480697718441630,-8,6,23,3,-1,-1,1,-7
1480697718441630,7,-7,-31,-2,-2,-1,-1,-3
1480697718455667,-5,-13,-18,-5,1,-1,0,-4
1480697718455667,8,-2,0,1,-1,1,1,-1
1480697718463187,8,2,8,2,1,-2,-1,6
1480697718463187,-11,3,-11,1,0,2,2,-1
1480697718478228,7,4,21,3,1,1,-1,-6
1480697718478228,-3,-1,-12,-4,-2,-3,-4,-3
1480697718479732,-6,-1,2,-2,0,0,3,3
1480697718479732,1,2,26,2,-1,0,-1,-4
1480697718500791,-4,-4,12,0,-1,-2,-1,2
1480697718500791,4,-5,-42,-3,0,1,-3,-2
1480697718502291,-10,2,18,-1,-1,-1,-4,-3
1480697718502291,-17,-3,-4,-2,0,0,-1,-4
1480697718516329,-1,5,22,1,-1,-1,0,-4
1480697718516329,8,1,-23,1,1,0,2,1
1480697718518334,-2,9,5,-1,-3,-1,0,3
1480697718518334,-2,0,10,-1,-1,0,-1,3
1480697718538387,-5,1,-28,-1,0,1,-2,7
1480697718538387,13,6,16,0,-3,-2,-2,-10
1480697718539891,3,-7,-10,-1,-1,0,-2,-2
1480697718539891,4,-2,4,2,-1,-1,0,0
1480697718551923,15,5,-3,1,0,0,-2,-1
1480697718551923,-50,-3,9,-2,-1,-2,-2,-7
1480697718560947,-2,-7,-10,-4,-1,-1,-1,5
1480697718560947,20,2,-7,1,0,-1,-1,-2
1480697718576990,-17,-3,37,-1,-2,-2,-2,-1
1480697718576990,10,0,-55,1,0,1,1,-2
1480697718578494,-5,-9,2,-3,-3,-1,-5,-8
1480697718578494,-10,1,10,3,1,0,5,24
1480697718599051,16,-1,-19,-1,-2,-2,-1,-22
1480697718599051,7,4,41,3,0,0,0,2
1480697718600553,-7,1,-15,-2,-1,-2,-1,2
1480697718600553,19,1,-2,-4,-1,-3,-1,1
1480697718620605,-6,-4,-3,3,0,3,3,4
1480697718620605,-1,-1,9,0,-2,0,0,0
1480697718622611,-2,2,-3,3,3,0,0,-5
1480697718622611,0,16,14,-1,-1,-1,-1,-6
1480697718635145,-8,-1,-23,-4,-2,-1,0,0
1480697718635145,0,-2,15,1,0,-2,0,-2
1480697718642167,7,-2,2,-1,-1,1,3,-4
1480697718642167,-5,-5,-10,-2,1,0,-1,2
1480697718658205,-7,-3,0,0,0,1,-2,-10
1480697718658205,0,-11,-1,-4,-1,-1,0,3
1480697718660211,6,2,18,-1,-3,-1,-1,5
1480697718660211,2,-5,11,0,2,-1,-1,-15
1480697718688285,25,0,-25,-1,0,0,-2,0
1480697718688285,-18,6,6,-4,-1,-2,-2,-1
1480697718691795,-17,-2,10,4,0,-2,2,-4
1480697718691795,-4,-8,-13,-3,-3,0,-1,0
1480697718696808,1,4,-14,0,0,-3,-2,7
1480697718696808,9,2,31,3,1,2,1,-1
1480697718710845,3,-3,-14,-1,1,0,0,4
1480697718710845,6,-4,35,0,0,-2,0,0
1480697718718867,-15,-6,-66,-5,-2,-4,-1,-1
1480697718718867,3,-2,6,-1,1,-1,0,2
1480697718720372,-7,3,-2,0,1,1,1,2
1480697718720372,-2,-1,6,-1,-3,-1,-2,-3
1480697718740925,0,1,31,0,-1,2,0,10
1480697718740925,2,-5,-17,-2,-1,-1,-1,0
1480697718742430,6,9,13,-1,-2,-1,0,-4
1480697718742430,-1,4,-31,-1,-3,-1,-1,-1
1480697718755969,-7,1,17,-2,0,-1,-2,-2
1480697718755969,4,-3,-4,1,0,0,1,6
1480697718761982,-1,-3,4,0,1,-1,-5,-16
1480697718761982,0,4,33,4,1,1,0,-2
1480697718779027,-8,-4,-54,-2,0,0,-3,2
1480697718779027,-3,-1,16,-3,-3,-3,0,1
1480697718780531,8,-1,5,0,0,0,0,6
1480697718780531,25,3,-11,-3,1,0,3,14
1480697718800584,-17,6,35,2,0,-1,2,-11
1480697718800584,8,1,1,1,-2,-1,-1,5
1480697718802589,-6,-3,-8,-1,0,0,-1,1
1480697718802589,7,3,0,-1,-3,-2,0,2
1480697718815624,3,-4,-27,-5,-2,-3,0,1
1480697718815624,-2,-2,-8,0,0,0,1,-3
1480697718822142,1,-3,-8,-2,-1,-2,-1,-1
1480697718822142,-8,-10,7,-2,-1,0,-2,-3
1480697718838184,1,0,16,2,-1,-1,0,0
1480697718838184,-5,3,28,4,1,1,-1,-7
1480697718845704,4,-11,-55,-4,-2,1,0,6
1480697718845704,-26,-4,0,-1,-1,-1,0,-14
1480697718861246,0,0,12,0,0,0,1,4
1480697718861246,1,-5,-1,-1,1,0,-2,-1
1480697718868264,5,17,26,1,0,1,2,15
1480697718868264,-4,-3,-38,-2,-1,-1,-3,-19
1480697718875284,2,0,43,0,-2,-2,-2,1
1480697718875284,-2,2,-41,-1,1,0,-2,-10
1480697718881800,-1,2,8,-2,-3,-5,-3,-2
1480697718881800,-7,-7,-12,-1,0,0,2,4
1480697718898344,2,1,4,-2,-2,-3,-1,-4
1480697718898344,1,-5,14,-1,1,-2,0,-2
1480697718899849,-4,-1,1,0,0,-1,2,-2
1480697718899849,0,-6,-11,-4,-2,-3,-3,3
1480697718919901,6,7,35,5,2,2,0,3
1480697718919901,3,-3,-26,-4,-1,0,1,4
1480697718944467,-4,-10,-3,0,-2,1,-1,-7
1480697718944467,15,8,35,3,-1,-1,0,8
1480697718965523,-1,-6,-39,-2,0,0,0,5
1480697718965523,7,6,23,4,0,1,-1,-3
1480697718975550,-9,-4,-24,-4,-1,-2,-2,-4
1480697718975550,5,2,-2,-1,0,1,2,1
1480697718976051,-1,4,8,-2,-1,-1,-3,-4
1480697718976051,-7,-7,0,1,-2,-1,-1,-6
1480697718988588,2,-11,3,-1,1,1,2,0
1480697718988588,8,0,-19,-2,-1,-2,0,26
1480697718989587,-1,12,14,-1,0,0,-3,-21
1480697718989587,-3,8,-14,3,-1,0,-1,10
1480697718996606,-2,0,13,-3,-3,-1,0,-6
1480697718996606,-12,-6,-7,-2,0,-1,1,4
1480697718997107,1,-3,-10,-2,-2,-3,-2,-3
1480697718997107,11,0,13,1,-2,-2,-3,-2
1480697719009640,-7,4,-3,-1,0,1,4,2
1480697719009640,-2,3,14,1,0,0,-4,-9
1480697719018163,4,-5,-27,-2,0,-1,2,2
1480697719018163,-12,-5,6,-4,-4,0,-1,-6
1480697719020169,-8,1,-3,1,-3,-3,-6,4
1480697719020169,-5,-2,-15,-1,1,2,0,-10
1480697719040723,-4,0,14,2,-1,2,1,2
1480697719040723,21,-4,-8,0,0,1,0,3
1480697719042228,9,-3,-8,0,0,0,-1,1
1480697719042228,-1,5,1,-2,-3,-2,-1,-7
1480697719055264,-9,-4,8,1,-1,0,0,3
1480697719055264,1,-4,4,-2,-1,-1,2,12
1480697719061779,2,5,35,0,1,1,-2,-4
1480697719061779,-3,-1,-25,-2,-1,-1,0,-3
1480697719085843,4,-4,-8,0,-1,-3,2,12
1480697719085843,-5,2,21,0,0,-1,-1,1
1480697719091858,2,-3,-14,-1,-2,0,0,0
1480697719091858,-7,4,7,2,0,1,0,-6
1480697719099882,-5,0,8,-2,-1,-2,-1,16
1480697719099882,5,-2,-5,-1,1,1,-2,-4
1480697719117427,-5,-2,1,0,-1,-1,-1,-6
1480697719117427,-1,-12,-7,-1,1,-1,-2,12
1480697719118430,1,-3,8,-2,2,0,-2,-22
1480697719118430,-3,4,1,-1,1,0,-1,1
1480697719123946,13,-2,-9,0,-2,-1,-1,1
1480697719123946,-6,-3,11,-1,0,-1,1,-5
1480697719138984,16,2,-29,1,-2,0,-1,1
1480697719138984,1,0,0,0,1,0,0,1
1480697719140488,-3,1,-10,-1,0,-2,-2,-4
1480697719140488,0,1,13,0,0,0,1,0
1480697719169065,-2,-5,-15,2,0,1,0,-13
1480697719169065,-4,0,1,-1,-2,-3,0,-4
1480697719170568,19,7,-12,-3,-2,-1,-1,2
1480697719170568,-7,4,12,1,-1,0,-3,-2
1480697719190621,3,-2,8,-2,0,-1,1,6
1480697719190621,-6,-1,-3,-1,-1,0,0,-1
1480697719192627,-3,-2,-7,1,0,0,3,18
1480697719192627,3,-1,-10,-1,0,-2,-3,-4
1480697719198141,-3,-4,14,-4,-2,-2,-1,0
1480697719198141,-3,-10,-2,2,0,0,-1,-5
1480697719200149,2,-2,-10,-1,-2,-2,-1,7
1480697719200149,1,-1,6,1,-3,-3,1,-7
1480697719250784,-6,9,12,2,3,1,-1,4
1480697719250784,7,-1,-9,-4,-4,-3,-1,-4
1480697719267827,-24,2,19,3,3,2,-1,-6
1480697719267827,0,-6,17,-2,-3,-3,-1,-5
1480697719268829,0,-7,-58,-3,-1,-2,-1,-1
1480697719268829,3,0,6,-1,-1,-1,-2,-2
1480697719274846,9,7,22,2,0,-1,0,3
1480697719274846,-6,-1,4,1,0,-1,0,-21
1480697719276350,3,-1,2,-1,-3,0,-2,7
1480697719276350,5,2,-1,-2,0,-1,1,1
1480697719279859,-2,4,15,1,-2,-1,0,3
1480697719279859,7,6,16,-1,2,-1,-3,1
1480697719288382,5,2,-43,-6,-3,0,-1,-5
1480697719288382,-8,-15,-17,-1,2,1,-1,5
1480697719295400,-2,0,22,0,-1,-2,-1,-4
1480697719295400,-5,6,18,2,-1,0,1,5
1480697719310941,3,-7,-7,-1,0,0,0,-3
1480697719310941,-3,0,0,-2,-1,-2,-1,1
1480697719318462,-2,-4,-3,1,1,-1,-2,-1
1480697719318462,-6,10,1,-2,-3,0,-1,0
1480697719319965,0,2,3,1,1,1,-2,-1
1480697719319965,7,2,-9,0,-1,0,1,3
1480697719341523,-3,-7,15,-2,-1,-3,0,-2
1480697719341523,-15,-3,-17,-2,-2,-3,-2,-1
1480697719344030,-2,0,20,3,3,2,2,-2
1480697719344030,6,4,1,2,0,1,0,-2
1480697719354558,-8,-4,-25,-6,-2,-2,-3,-16
1480697719354558,-3,-8,-19,-8,-4,-5,-2,-6
1480697719371101,16,0,11,2,-1,-2,-2,2
1480697719371101,-16,-1,10,0,0,1,1,-6
1480697719385640,-6,-3,21,5,2,0,0,-1
1480697719385640,8,-4,-4,2,0,3,1,3
1480697719389150,-5,-6,3,1,2,0,0,0
1480697719389150,6,-3,-22,-6,-2,0,-3,-18
1480697719400680,8,2,-9,-1,-1,-1,0,6
1480697719400680,-9,4,11,3,0,-1,1,1
1480697719402184,-7,10,4,-1,-2,-2,-1,-2
1480697719402184,2,-2,4,-2,0,-1,0,5
1480697719423240,-2,1,16,2,0,1,1,4
1480697719423240,3,-1,-37,-3,2,0,-1,-2
1480697719424744,-4,-3,-9,-4,-3,-2,-1,-1
1480697719424744,-1,6,-13,-2,-3,-4,-1,0
1480697719438283,11,-1,8,-1,-1,2,0,0
1480697719438283,9,-7,5,1,0,0,-1,7
1480697719439785,-3,-4,-12,-1,1,0,-3,-5
1480697719439785,0,3,17,3,0,2,6,7
1480697719460840,2,-2,-1,0,0,-1,2,9
1480697719460840,-7,-9,-32,-3,0,0,-3,-12
1480697719475378,-3,-2,1,-2,-1,0,2,5
1480697719475378,-7,6,23,3,1,-1,-5,-12
1480697719475881,-20,-17,-22,-3,0,1,0,2
1480697719475881,15,3,-13,1,-2,2,2,-4
1480697719500446,-21,-1,10,-4,-2,-4,0,-6
1480697719500446,2,-1,28,1,-1,-1,1,8
1480697719501449,1,0,-13,0,-2,-2,-1,4
1480697719501449,10,0,6,0,-1,-1,1,-1
1480697719520001,4,-3,-9,0,-1,2,0,-4
1480697719520001,8,2,3,0,-2,-1,-1,8
1480697719528520,-5,1,1,0,1,0,-2,-6
1480697719528520,1,3,19,2,0,0,-1,0
1480697719530024,4,0,15,-1,-3,-2,-2,-1
1480697719530024,-6,-4,-55,-3,-1,0,0,-1
1480697719552084,11,3,10,0,-1,-2,1,6
1480697719552084,-10,22,1,-4,-1,-3,-4,-31
1480697719554091,3,-4,-13,3,0,1,-1,8
1480697719554091,-2,-5,1,-2,-2,-1,-1,-2
1480697719565619,0,9,8,0,-1,-1,-3,-6
1480697719565619,1,-2,-4,0,-2,-2,3,11
1480697719567625,-6,-3,-15,-5,0,-2,-1,-3
1480697719567625,6,0,2,0,-3,-1,-3,5
1480697719595698,1,1,2,0,1,-1,1,6
1480697719595698,4,-9,21,4,0,0,-1,-5
1480697719597202,1,3,-11,-3,-3,-1,-1,0
1480697719597202,-27,-7,-30,-3,-1,-1,-3,-16
1480697719603723,3,-4,7,0,-1,1,-1,-1
1480697719603723,-1,-3,0,-1,-1,-1,3,16
1480697719609235,2,2,7,0,1,0,-6,-20
1480697719609235,5,-5,5,-1,1,2,1,0
1480697719618760,1,6,-7,0,-1,1,-1,-1
1480697719618760,-19,-6,9,-3,0,-1,-1,-7
1480697719620769,9,0,12,2,0,1,3,7
1480697719620769,3,-2,-1,0,0,-1,0,4
1480697719649341,-4,0,-1,0,-2,-2,-2,-6
1480697719649341,-8,-3,15,0,0,-1,0,8
1480697719662376,4,-1,-5,-2,-1,-1,1,0
1480697719662376,-2,-7,-12,-3,-1,-1,-2,-15
1480697719679421,-3,0,20,1,-1,-2,1,3
1480697719679421,-2,0,-38,-1,0,1,0,4
1480697719681427,-9,8,0,0,-2,-1,-3,2
1480697719681427,-2,-5,10,-2,0,0,3,0
1480697719681928,8,2,10,0,-2,0,0,6
1480697719681928,0,3,-10,0,-2,-1,-2,-7
1480697719691955,11,-5,6,2,1,0,-1,-6
1480697719691955,-5,4,9,4,0,-1,4,11
1480697719700980,-2,-4,-13,-6,0,-3,-2,-10
1480697719700980,6,-2,4,0,0,-1,0,9
1480697719703486,-8,-3,2,-4,-1,-1,0,0
1480697719703486,5,4,8,2,-2,-2,-3,14
1480697719724541,-1,-4,-6,1,0,2,0,-11
1480697719724541,-6,-5,-3,-3,-1,-2,-1,7
1480697719731058,3,-2,19,3,0,-2,1,0
1480697719731058,5,1,-15,-6,-1,-1,0,1
1480697719753119,-3,4,-3,2,1,-1,1,3
1480697719753119,1,0,21,3,1,2,0,2
1480697719778187,-1,-3,-23,1,0,2,1,0
1480697719778187,-1,1,-10,-2,-1,-2,-1,0
1480697719778685,-4,-1,-4,-1,-1,0,-3,-1
1480697719778685,3,2,3,0,-1,-1,-1,-5
1480697719819796,-9,2,22,2,-1,0,1,0
1480697719819796,5,1,-33,0,2,1,0,-5
1480697719829824,0,-17,-3,-1,0,-2,1,-2
1480697719829824,-2,0,-4,1,0,2,-1,-3
1480697719831325,-2,-2,16,2,0,0,-2,1
1480697719831325,-4,4,4,-1,-2,0,-2,4
1480697719831826,-8,-15,-2,-1,0,0,-3,-15
1480697719831826,-1,-4,-12,-3,-3,-2,-1,-9
1480697719852883,5,5,7,1,0,-3,0,4
1480697719852883,3,-1,-10,0,0,0,-2,-7
1480697719854391,7,6,-25,0,0,0,1,4
1480697719854391,3,1,13,2,0,-2,-1,8
1480697719857896,-8,-7,-12,-3,-1,-1,-1,1
1480697719857896,11,2,21,2,1,0,0,2
1480697719866418,-10,1,-48,-3,0,-1,0,4
1480697719866418,-5,-4,12,-1,-2,-2,-3,-10
1480697719871933,-3,0,2,-1,-2,1,-1,0
1480697719871933,0,0,4,1,0,-2,-1,-3
1480697719881458,-4,-3,35,-2,-2,0,-1,1
1480697719881458,-1,-15,-25,-3,0,-1,-2,-6
1480697719886974,6,-1,-4,-1,-2,-3,-1,1
1480697719886974,-1,0,4,-2,-1,0,-1,4
1480697719903517,-10,-1,8,-1,0,-1,2,1
1480697719903517,4,1,-9,-1,0,-1,-1,-2
1480697719905022,6,-1,-11,-1,-2,0,-1,1
1480697719905022,2,3,-5,0,-1,-1,-3,-3
1480697719917555,-5,-3,-1,0,-1,3,2,2
1480697719917555,1,3,7,1,2,2,-1,4
1480697719924573,-7,3,-6,0,-1,1,1,-4
1480697719924573,7,4,32,4,1,0,-1,1
1480697719940115,-4,-6,-50,-4,-2,-1,-3,-37
1480697719940115,-3,0,4,-3,-1,-3,-1,1
1480697719949139,-3,0,8,1,0,-2,-1,0
1480697719949139,0,2,-1,-1,-1,0,2,-1
1480697719963176,-5,-1,35,4,1,2,0,7
1480697719963176,0,-2,-32,-5,0,-1,0,-6
1480697719969695,18,-5,3,-3,-1,-2,-2,2
1480697719969695,-8,1,6,2,1,-1,1,2
1480697719977715,-5,-1,-4,0,-1,-1,-2,5
1480697719977715,4,6,4,1,-2,-2,-1,-6
1480697719984233,4,-5,4,0,1,1,0,6
1480697719984233,2,-4,-7,-1,1,-2,1,-16
1480697720001277,-7,13,19,1,0,0,-2,28
1480697720001277,12,-1,-27,0,-1,-1,0,-7
1480697720003287,-12,-3,-4,-2,0,-1,-1,-4
1480697720003287,4,6,21,3,-1,0,1,1
1480697720022834,-9,-4,9,0,-1,-1,1,-6
1480697720022834,0,-5,-38,-6,-2,-1,-3,-12
1480697720029352,0,1,6,3,-2,0,-1,-5
1480697720029352,-7,-6,-15,-2,-1,-3,-2,1
1480697720053921,10,3,18,1,0,1,1,3
1480697720053921,-7,-1,24,3,1,0,1,10
1480697720055421,4,3,-34,-4,1,0,0,-8
1480697720055421,1,-8,12,1,-2,-1,-1,8
1480697720075976,-3,-3,-22,-5,-3,-2,-3,-3
1480697720075976,1,6,16,2,-1,1,2,4
1480697720077483,1,-5,-7,-1,-1,0,1,1
1480697720077483,-5,3,-2,1,1,2,1,1
1480697720106056,10,1,11,0,-2,-1,-1,4
1480697720106056,-6,-3,-18,-1,-1,1,0,-3
1480697720113576,-3,0,-2,1,0,-1,1,4
1480697720113576,10,0,-5,-3,0,0,2,-4
1480697720115583,-18,-3,-31,-1,0,-1,1,-3
1480697720115583,6,0,21,1,0,-2,-3,-12
1480697720135635,-2,-1,-5,-4,-1,-3,2,1
1480697720135635,5,21,1,1,-2,1,0,1
1480697720143656,9,1,1,0,1,2,1,-8
1480697720143656,-5,-1,9,0,1,-1,2,13
1480697720145661,-2,0,0,-1,1,0,-3,-11
1480697720145661,-6,-7,-6,0,0,-1,-3,0
1480697720166217,7,-3,6,-2,-1,-3,1,1
1480697720166217,-5,2,-24,-3,-3,-1,1,0
1480697720167722,-12,-10,7,1,0,1,-1,2
1480697720167722,0,-11,-17,-4,-2,0,0,-8
1480697720173237,1,3,27,2,1,-2,-1,0
1480697720173237,0,-3,-10,1,0,-1,0,6
1480697720174740,-6,0,-26,-2,-2,-1,-2,-6
1480697720174740,-4,-3,11,-1,-1,-1,-2,5
1480697720180754,2,-3,-27,0,0,-1,-1,-2
1480697720180754,-1,4,13,-2,-1,0,0,-10
1480697720182259,4,5,41,5,0,2,2,10
1480697720182259,11,4,-53,-3,0,-1,-1,5
1480697720203820,-2,-1,-7,-1,-2,0,-1,6
1480697720203820,3,0,22,0,1,-1,-3,-1
1480697720209333,9,3,19,1,-1,1,2,5
1480697720209333,10,-5,-25,-3,1,0,1,5
1480697720216851,-13,-1,14,-1,-2,-2,1,0
1480697720216851,-2,-7,-13,0,-1,0,0,-2
1480697720226877,-2,10,24,1,-1,-1,-1,-3
1480697720226877,1,-1,1,0,0,1,0,0
1480697720239912,2,-7,11,1,0,-1,-2,-2
1480697720239912,-12,-10,-10,-3,0,0,0,2
1480697720248435,5,-6,-10,-2,0,-1,-2,-5
1480697720248435,-9,-2,6,1,1,-1,-1,-2
1480697720263474,1,3,4,1,-1,2,-1,-4
1480697720263474,-2,-1,2,2,-1,1,0,1
1480697720264978,-1,3,-5,-2,-1,-2,-1,3
1480697720264978,-6,-6,1,-1,-2,1,-1,-6
1480697720277011,4,0,12,-1,0,-1,-1,1
1480697720277011,20,6,-13,-1,-2,0,1,4
1480697720286035,-12,-8,-26,-3,-1,-2,1,10
1480697720286035,1,-4,13,-5,0,0,1,-12
1480697720300573,-5,-1,10,1,-1,-2,1,3
1480697720300573,3,5,-3,0,0,0,1,2
1480697720302581,1,-2,21,-3,-2,-1,-2,-5
1480697720302581,-5,-2,0,2,0,3,1,-1
1480697720330653,-7,-5,-45,-4,-3,-2,-1,-1
1480697720330653,-1,2,21,3,0,-2,1,-2
1480697720332659,-3,1,-6,1,0,-1,-2,-8
1480697720332659,-5,0,9,-1,-1,-1,-1,6
1480697720353217,1,-5,12,-1,-1,-1,-3,-7
1480697720353217,-3,8,-45,0,-1,0,0,1
1480697720361234,-2,-5,10,-2,-1,-1,0,10
1480697720361234,-2,4,5,0,-2,-1,0,-4
1480697720368254,6,-1,-21,-2,0,-1,0,-12
1480697720368254,-1,-2,22,-1,-1,-1,-2,1
1480697720383794,-4,-4,-6,-1,0,-1,0,0
1480697720383794,6,4,-4,-2,-1,-2,-1,7
1480697720384800,-10,2,29,2,3,1,0,-7
1480697720384800,-2,-4,-29,-3,-1,0,0,-4
1480697720386303,-7,-2,-7,-2,0,-1,-2,-8
1480697720386303,-6,-12,6,3,1,0,-2,-8
1480697720397330,1,3,-2,-1,0,-2,-2,8
1480697720397330,-6,-5,17,2,0,0,-1,-2
1480697720405854,-3,1,13,1,0,-1,-1,0
1480697720405854,17,-2,-52,-7,-4,-3,0,4
1480697720428915,-12,0,-23,0,2,1,0,1
1480697720428915,-2,2,16,1,0,-1,1,-2
1480697720432424,6,1,-4,-1,-2,0,-1,2
1480697720432424,-11,-2,3,-2,-1,0,-5,-7
1480697720443453,6,5,0,3,0,0,0,6
1480697720443453,2,-4,21,-1,-1,-2,-1,-4
1480697720444957,0,-5,-22,-3,0,-1,1,11
1480697720444957,-2,0,20,0,1,-1,-2,-10
1480697720456990,-2,-3,-20,-3,-1,0,1,-2
1480697720456990,-3,-10,17,0,-1,-2,-3,-5
1480697720482057,3,3,8,1,0,0,-1,0
1480697720482057,-3,-4,-12,-2,-3,-1,1,6
1480697720483062,12,0,23,0,-1,1,0,3
1480697720483062,-1,-3,0,-1,-1,0,-1,-6
1480697720484562,-1,1,-41,-3,0,1,2,10
1480697720484562,-8,2,16,2,1,1,1,-2
1480697720503112,-2,1,19,0,0,1,-1,5
1480697720503112,-5,-3,-23,-3,-2,0,-1,-1
1480697720505117,-1,2,4,4,1,1,0,-2
1480697720505117,-7,-6,-7,0,-2,-2,-4,-2
1480697720524669,5,-2,16,-2,-3,-3,-1,2
1480697720524669,0,2,-6,-4,0,-1,-1,4
1480697720533693,0,-4,11,0,-1,0,-2,-11
1480697720533693,0,2,-10,0,-1,-1,0,2
1480697720541714,-1,-3,11,0,-1,-1,0,-10
1480697720541714,-1,-2,1,0,1,-2,-1,12
1480697720543219,13,-1,-15,1,-1,-2,-1,-7
1480697720543219,-4,1,35,3,0,1,2,3
1480697720564274,4,0,-36,-1,-1,0,-1,0
1480697720564274,-4,1,-8,-3,0,1,1,3
1480697720567784,-3,-11,10,1,0,-1,-3,-18
1480697720567784,-20,3,-2,0,1,-1,0,8
1480697720585832,13,-4,19,-1,-1,0,1,1
1480697720585832,2,1,-23,-2,0,0,-1,-1
1480697720587336,-5,3,23,-2,-2,0,-2,1
1480697720587336,-2,-1,-8,-3,0,1,0,1
1480697720608392,9,3,-12,0,-1,-1,-1,-2
1480697720608392,-2,2,33,1,0,-2,-1,-3
1480697720609895,-1,-1,-4,-1,-1,-2,0,-2
1480697720609895,5,-2,2,-3,-2,-3,-1,0
1480697720630956,-3,3,1,0,1,-1,1,3
1480697720630956,5,2,14,1,-1,0,-1,-3
1480697720632456,2,3,-9,-3,-1,0,-2,3
1480697720632456,1,-2,-19,-4,-1,-1,1,-3
1480697720644989,-10,-8,9,-1,-1,-1,-2,-4
1480697720644989,2,-3,-39,-3,-1,0,-2,3
1480697720653512,-10,2,1,2,-1,1,-1,-5
1480697720653512,5,-1,-9,-4,-1,-3,-3,-7
1480697720660530,0,3,7,1,0,-2,-1,10
1480697720660530,-3,2,8,3,-1,1,0,-5
1480697720676074,5,4,10,2,1,3,3,7
1480697720676074,14,9,-5,1,1,-3,-2,-8
1480697720683599,-9,-1,-23,-1,-1,0,-2,-6
1480697720683599,6,0,21,0,-2,-1,1,14
1480697720685096,-2,-5,-6,-1,-1,-2,-3,-2
1480697720685096,18,0,18,3,1,1,0,0
1480697720705650,5,2,6,-1,1,-2,2,7
1480697720705650,-4,-3,-40,-2,1,0,0,-7
1480697720707155,-8,-8,-27,-4,-1,-2,-1,3
1480697720707155,2,0,16,-1,-2,-1,0,2
1480697720729213,2,2,-8,1,0,-1,-2,-1
1480697720729213,-3,1,8,-2,-1,-2,-2,-5
1480697720732722,10,1,-3,1,1,-2,1,-3
1480697720732722,-15,-4,-3,0,0,-1,-1,-1
1480697720743752,-1,-1,9,2,0,2,0,-7
1480697720743752,-2,2,6,1,0,0,-2,-3
1480697720746258,-5,-1,13,-3,-3,0,-2,-6
1480697720746258,-6,0,-21,0,-1,-1,1,8
1480697720773331,-5,-6,-5,-3,-2,-2,-2,-9
1480697720773331,-2,-3,7,1,1,2,1,-5
1480697720774835,12,7,37,4,-1,2,1,1
1480697720774835,-16,-10,-34,-2,-1,-2,-1,5
1480697720780351,3,0,-13,1,-1,1,-1,-1
1480697720780351,0,19,-5,-1,-1,-1,-2,13
1480697720788370,-1,2,16,-2,1,0,-2,-20
1480697720788370,3,0,32,3,0,2,1,3
1480697720803410,-2,-2,-29,-4,-2,-2,-1,-1
1480697720803410,8,1,18,-2,0,-1,-1,-10
1480697720804917,-6,2,-12,0,1,0,-2,19
1480697720804917,11,3,8,1,0,0,4,2
1480697720825970,-9,-3,-10,-5,-2,0,-1,-3
1480697720825970,8,-4,-5,-3,-2,1,0,-6
1480697720827474,-5,2,1,1,1,-1,-1,0
1480697720827474,-3,-6,-9,-4,-3,-2,-2,-7
1480697720840512,4,-2,26,2,2,0,-1,0
1480697720840512,1,3,8,1,0,-2,1,8
1480697720871592,7,-3,-18,-3,-2,-2,-3,-5
1480697720871592,-16,-5,-12,-3,0,0,-2,1
1480697720872594,-5,9,15,2,0,1,0,-3
1480697720872594,-5,-6,9,-2,0,1,-3,-1
1480697720876104,-2,-3,-14,-4,1,0,3,6
1480697720876104,10,4,42,3,-2,-5,-4,-19
1480697720885127,-11,-4,-59,-2,-1,-1,1,-1
1480697720885127,-10,-6,16,1,-1,-1,1,-5
1480697720902173,-3,1,2,-1,-1,-1,0,-9
1480697720902173,4,-3,-12,-1,0,0,-1,-2
1480697720903177,-3,-15,19,1,0,1,0,-1
1480697720903177,4,-2,3,-1,-2,1,0,0
1480697720923730,6,-5,-24,-2,-2,1,2,4
1480697720923730,-35,-2,5,-1,-1,1,0,0
1480697720924732,17,3,32,1,-1,1,-2,0
1480697720924732,-26,-5,-13,0,-1,-1,-2,-5
1480697720944786,-2,-1,-17,-4,-1,0,1,5
1480697720944786,7,3,18,2,1,0,1,4
1480697720953310,2,-3,-28,-4,-2,-1,0,1
1480697720953310,-12,-9,4,-4,-2,-4,-1,-2
1480697720961832,3,4,1,3,-1,0,0,-1
1480697720961832,-1,2,8,1,0,0,-3,-1
1480697720967346,-3,10,18,1,0,0,0,2
1480697720967346,11,0,-2,1,-2,0,-1,-6
1480697720977875,-15,-21,0,0,1,1,1,1
1480697720977875,7,2,-13,-2,-1,-1,-2,-19
1480697720983411,-3,-3,0,-1,1,2,-1,-2
1480697720983411,4,4,24,4,0,0,1,11
1480697720984893,3,3,-15,-1,-1,-1,-4,-14
1480697720984893,-9,-10,-61,-12,-6,-1,0,4
1480697721005949,7,2,15,0,-1,-2,-2,0
1480697721005949,4,0,10,0,1,0,0,-2
1480697721007454,-2,10,8,4,0,1,-2,3
1480697721007454,6,1,-22,1,0,1,1,7
1480697721019987,-4,-2,-7,-3,0,-3,0,-6
1480697721019987,0,-6,-6,0,2,-1,2,-7
1480697721044552,34,2,9,0,-2,-1,3,17
1480697721044552,-19,2,12,1,0,0,1,1
1480697721045554,3,6,-1,-1,-3,-1,0,5
1480697721045554,0,-2,-14,-1,-2,1,0,-2
1480697721047058,-3,0,15,-2,0,-1,-2,-7
1480697721047058,11,3,29,4,2,2,-2,4
1480697721066110,-2,0,-55,-3,-2,-2,1,0
1480697721066110,-7,-6,-25,-8,-4,-4,-4,-18
1480697721072124,-8,-1,0,-1,0,-2,0,-10
1480697721072124,12,-2,8,-2,-3,0,-4,11
1480697721080651,-12,5,41,5,1,-1,1,7
1480697721080651,17,-6,-37,-3,2,2,1,5
1480697721088668,-23,-6,0,-3,-3,-3,-1,-2
1480697721088668,8,6,6,2,1,1,1,0
1480697721104210,0,-2,22,1,0,2,-1,2
1480697721104210,-5,-5,-28,1,1,1,0,2
1480697721110226,-1,16,16,-2,-3,-2,-2,4
1480697721110226,-2,0,1,-1,2,-1,-1,-5
1480697721126270,4,0,1,-3,-2,-1,-3,-4
1480697721126270,10,9,25,4,-1,1,1,5
1480697721127772,-4,-8,-25,-3,1,0,-2,2
1480697721127772,15,0,25,0,-1,0,1,8
1480697721139804,-49,-9,-20,-6,-3,-4,-3,-30
1480697721139804,-1,4,2,1,1,-2,-2,-5
1480697721148328,-1,0,9,1,0,0,0,20
1480697721148328,3,-1,8,1,-1,-1,0,0
1480697721170888,16,1,-1,-1,1,0,0,3
1480697721170888,-2,-2,-9,-5,-3,-2,0,5
1480697721174404,-6,-1,7,-1,-1,-1,-1,-9
1480697721174404,-6,-8,-13,-2,1,-2,0,-2
1480697721184926,8,-2,7,2,-1,0,0,2
1480697721184926,-9,10,27,3,1,-1,-1,9
1480697721193447,11,-1,-45,-4,-2,-3,-1,-2
1480697721193447,-2,2,6,1,0,-2,1,-2
1480697721208488,6,5,3,0,-1,1,1,2
1480697721208488,-3,-1,-19,-3,-1,-2,1,0
1480697721214503,-6,-8,24,1,0,-1,-1,-3
1480697721214503,8,0,-33,0,1,-1,0,-1
1480697721222525,3,-4,-2,0,-1,-2,-1,4
1480697721222525,0,-1,32,3,-2,0,0,-1
1480697721238567,-5,-5,-23,0,1,0,-2,-5
1480697721238567,-3,1,5,0,-1,-2,1,-2
1480697721253107,5,3,10,-1,1,0,1,5
1480697721253107,1,-2,-2,-1,0,2,1,8
1480697721255111,0,2,-9,-3,-1,0,0,-24
1480697721255111,10,-1,-1,-3,-2,0,-1,5
1480697721259626,-17,0,-10,1,-1,-1,-3,1
1480697721259626,-6,-6,12,0,-2,-1,1,-2
1480697721268647,0,-1,36,5,1,1,1,2
1480697721268647,-10,-3,-25,-4,-1,0,0,7
1480697721283187,9,-8,-19,-3,-1,-2,0,-2
1480697721283187,3,14,11,1,1,0,-2,-4
1480697721285191,-5,-12,-18,-4,-1,-1,-2,5
1480697721285191,-3,2,31,3,-2,0,-3,-6
1480697721304743,7,4,-1,1,-2,0,-1,8
1480697721304743,-10,-7,-9,-2,0,0,-2,-13
1480697721313267,24,4,7,3,0,0,1,4
1480697721313267,-38,-4,-3,-3,-2,1,2,-12
1480697721329308,8,-5,16,-5,-1,-1,-1,10
1480697721329308,-2,-2,-39,-4,-2,0,0,0
1480697721334323,-5,-1,10,1,-1,-1,0,1
1480697721334323,6,-1,-8,0,-1,-2,-1,-8
1480697721343847,-7,4,15,1,0,-1,1,-5
1480697721343847,12,1,14,2,-1,0,-1,-2
1480697721345854,-3,-4,-35,-6,-2,-2,-2,8
1480697721345854,2,0,29,1,1,-1,-1,3
1480697721365908,-4,-2,-41,-1,-2,0,1,-1
1480697721365908,4,-1,2,-1,-1,-2,-4,1
1480697721367410,-4,1,14,1,1,1,-2,-10
1480697721367410,-4,-1,11,0,0,-1,0,13
1480697721379442,8,-2,-23,-3,1,-1,-1,-5
1480697721379442,-8,-3,-7,0,-2,-2,-1,-2
1480697721388467,-14,-4,-33,-2,-2,-2,4,10
1480697721388467,3,3,21,2,2,1,-1,-3
1480697721403506,1,1,6,1,1,-1,-1,-1
1480697721403506,-11,-27,-23,-4,-1,-2,0,-4
1480697721405010,-2,2,35,3,1,2,2,-2
1480697721405010,7,2,-25,-4,-2,-1,-1,3
1480697721427068,3,-5,15,2,0,0,2,-1
1480697721427068,0,-4,-2,0,2,0,-3,-4
1480697721439602,1,4,22,0,-2,-1,0,1
1480697721439602,5,5,-37,-1,-1,0,-2,-4
1480697721464167,3,-3,6,0,1,-2,-2,-7
1480697721464167,7,6,52,2,-1,1,2,2
1480697721466174,3,-4,-40,-2,0,1,3,-1
1480697721466174,-5,3,2,-1,-2,-2,0,5
1480697721466673,1,-2,3,-5,-1,-4,-3,-5
1480697721466673,-8,-1,-8,-4,-2,-2,0,-8
1480697721471186,4,0,19,3,0,1,-2,-2
1480697721471186,-5,-6,1,0,-1,-1,0,-8
1480697721509789,-1,6,16,5,-1,4,3,5
1480697721509789,-13,5,-3,3,0,-1,-1,7
1480697721511293,3,-4,-5,-5,-2,-2,-2,-8
1480697721511293,-2,-5,-11,-1,0,2,0,1
1480697721511794,-10,6,24,3,-1,0,-2,-6
1480697721511794,2,7,12,1,2,1,1,2
1480697721515805,-4,15,-47,-5,-6,-3,-3,0
1480697721515805,0,-6,12,-2,-1,-1,-3,0
1480697721523327,-4,-4,-39,-3,-1,-2,0,-10
1480697721523327,7,7,11,1,-2,0,1,5
1480697721524828,2,-1,25,5,2,2,-2,1
1480697721524828,-20,-6,-1,-2,0,-2,0,-17
1480697721545884,4,7,-6,-1,1,0,0,1
1480697721545884,-11,-12,-9,-3,-2,-1,-1,-1
1480697721547389,1,-1,10,1,0,-1,1,0
1480697721547389,12,1,-6,2,-1,-1,1,8
1480697721568444,-1,-5,1,-2,-2,-2,-3,3
1480697721568444,-1,2,-12,-3,-2,-2,-2,2
1480697721569948,-2,1,15,1,0,-1,0,0
1480697721569948,5,-1,-4,-3,-3,1,0,-6
1480697721582990,1,-4,-22,-5,-2,-2,0,7
1480697721582990,9,3,13,2,0,0,1,-3
1480697721589500,-3,-7,-24,-4,-1,-1,-1,12
1480697721589500,6,5,14,1,0,0,-1,-1
1480697721606045,-1,0,8,1,2,0,-2,2
1480697721606045,-1,-1,-6,-3,-1,-3,-4,-2
1480697721607549,-2,-2,7,0,0,1,4,0
1480697721607549,-2,-10,-5,-1,1,-1,1,0
1480697721629607,-2,-4,2,-1,0,0,0,-2
1480697721629607,5,1,-10,0,0,-2,1,1
1480697721634620,17,0,13,0,1,0,1,3
1480697721634620,-24,-2,-6,-2,-2,-1,-4,7
1480697721643645,-12,-9,7,0,-2,-3,-3,-17
1480697721643645,10,1,0,0,-1,0,-1,-1
1480697721657181,-10,-13,-3,-2,0,1,-1,-7
1480697721657181,11,4,-1,1,-2,0,-2,5
1480697721680744,-4,-8,-2,1,1,2,1,7
1480697721680744,-4,7,-10,-2,-1,-1,-3,-17
1480697721682247,3,1,28,0,-2,-3,-4,4
1480697721682247,2,-2,-36,-3,0,-1,1,1
1480697721688764,-1,-3,-9,-1,-1,-1,1,-2
1480697721688764,6,-3,-21,-4,1,0,0,4
1480697721690770,-4,4,-1,2,0,-2,0,-3
1480697721690770,2,0,10,-1,-2,1,0,-6
1480697721702802,10,4,-1,0,-1,0,0,7
1480697721702802,-4,-1,-9,1,0,-1,0,0
1480697721709821,-9,1,6,-1,1,0,-2,0
1480697721709821,8,0,3,0,-1,0,1,3
1480697721725863,-2,5,-8,-2,0,1,1,-4
1480697721725863,7,-5,4,1,-2,1,-1,6
1480697721727367,0,-2,-11,-3,-1,-1,-1,-5
1480697721727367,3,1,2,1,0,0,0,7
1480697721755944,3,5,22,1,-1,0,0,-2
1480697721755944,-2,-2,-12,0,-1,0,0,-1
1480697721757447,-2,-3,2,-1,-1,0,1,1
1480697721757447,-4,-1,2,-1,3,0,-1,-5
1480697721762962,-2,-5,1,-1,-2,-2,-3,1
1480697721762962,-2,9,3,-1,-2,0,3,5
1480697721769482,-19,-10,-5,1,-1,-1,-3,-11
1480697721769482,10,2,4,-2,1,-1,-2,-4
1480697721786025,1,-6,16,0,0,-1,0,2
1480697721786025,3,-4,-18,-1,0,-2,-1,-12
1480697721792039,-3,2,-13,-1,-2,0,-1,-7
1480697721792039,7,4,1,-1,-2,0,2,4
1480697721816605,4,-3,9,2,-1,-2,-3,8
1480697721816605,-3,-6,-2,-3,0,0,1,1
1480697721818108,6,12,40,2,-1,-1,-1,-5
1480697721818108,-7,-11,-39,-1,-1,-1,-2,2
1480697721822119,-15,-3,-23,-2,0,-2,-3,-6
1480697721822119,0,-2,21,0,1,0,-1,4
1480697721838664,1,-7,-27,-4,-1,-3,-1,2
1480697721838664,-5,6,30,4,1,-2,-1,1
1480697721845682,-1,-1,-3,-1,-1,1,-4,-3
1480697721845682,-2,0,2,0,-3,-1,2,2
1480697721847186,-7,-6,6,1,1,2,1,12
1480697721847186,5,-1,16,-1,-2,0,-3,-12
1480697721868743,4,21,-47,-3,0,1,1,-3
1480697721868743,-4,-1,1,-1,-1,-2,-2,0
1480697721870748,9,2,-9,1,0,-1,1,3
1480697721870748,-2,1,10,-2,-2,-2,2,0
1480697721882784,-3,-4,10,3,1,2,2,-1
1480697721882784,9,2,4,-1,-1,1,2,2
1480697721889298,-18,4,15,-3,-2,-1,1,4
1480697721889298,4,-4,-25,0,0,-2,-4,-1
1480697721905843,-6,-1,16,0,-1,0,-2,-5
1480697721905843,-4,-4,23,-2,1,-1,-1,4
1480697721907349,9,0,-46,-3,-1,-1,-4,-6
1480697721907349,-4,0,22,1,-1,0,-1,0
1480697721929404,2,-2,3,2,-1,-1,3,6
1480697721929404,2,1,8,0,0,0,-2,-5
1480697721930909,-6,-3,5,1,-1,0,1,-1
1480697721930909,-1,-2,-17,-1,0,0,-1,-1
1480697721941939,19,1,2,0,-1,0,-2,6
1480697721941939,-28,-4,-1,-2,-3,-2,-2,-2
1480697721953468,7,4,0,-1,1,0,-1,0
1480697721953468,-3,-4,-9,-1,-2,-2,2,-1
1480697721966006,2,4,18,0,-1,0,0,-4
1480697721966006,12,2,-7,2,0,0,-1,9
1480697721967506,-6,-7,-21,-5,-1,-2,0,-5
1480697721967506,2,5,24,0,0,-2,0,8
1480697722004604,-4,-2,-4,-3,0,0,-1,-4
1480697722004604,-2,0,7,2,1,0,0,-1
1480697722006109,2,-10,-17,1,-1,0,0,-4
1480697722006109,6,2,5,-2,-1,0,-2,-2
1480697722007112,-5,-3,25,-2,-1,-4,-1,-19
1480697722007112,-11,-9,-63,-4,-1,-1,-2,-1
1480697722017137,3,-4,28,0,-1,0,-3,-17
1480697722017137,-3,0,-8,0,0,-1,0,0
1480697722025661,5,3,-4,0,-2,0,0,4
1480697722025661,-2,1,11,1,4,0,0,-1
1480697722031678,2,-2,16,2,-1,1,0,0
1480697722031678,-9,-9,-33,-2,-1,0,0,0
1480697722049728,-7,-2,9,-5,-2,-2,-1,3
1480697722049728,6,4,6,0,0,0,1,-1
1480697722051228,4,9,-7,1,0,-2,-2,9
1480697722051228,0,0,12,0,-3,0,-1,-8
1480697722062258,3,-4,-6,0,0,-1,2,14
1480697722062258,3,4,-9,-2,-3,-1,-3,-8
1480697722070780,1,1,6,0,1,1,-2,-2
1480697722070780,-1,4,6,0,0,0,-1,0
1480697722086823,-9,-4,-17,-3,-1,0,-2,0
1480697722086823,15,1,11,0,-1,0,3,1
1480697722090333,-9,2,-6,-1,0,-1,-2,16
1480697722090333,-18,-7,8,-3,-2,-2,-2,0
1480697722108380,2,1,-19,0,1,0,2,3
1480697722108380,6,1,9,2,0,0,4,19
1480697722109884,11,-12,-20,0,-1,-2,-4,-31
1480697722109884,-25,-12,7,-3,-2,0,-1,-1
1480697722121916,0,4,21,2,1,1,0,1
1480697722121916,-6,-3,-35,-2,-2,0,-1,0
1480697722136956,1,2,13,-1,0,0,3,15
1480697722136956,5,4,-2,2,2,-1,-1,-10
1480697722145983,1,3,2,2,2,-1,-3,-6
1480697722145983,-4,-10,14,1,-1,-1,-2,-4
1480697722147484,0,2,-9,-4,-3,-1,0,6
1480697722147484,13,1,-11,-1,0,-1,-1,-2
1480697722169543,-5,2,16,2,0,1,1,4
1480697722169543,7,4,-9,-4,0,-3,-1,3
1480697722173052,4,5,13,-1,-3,-1,0,-3
1480697722173052,-5,-4,-1,0,-1,0,1,8
1480697722182076,0,-3,22,-2,-1,-2,-1,-3
1480697722182076,-8,-6,-48,-4,-3,-1,-1,-5
1480697722191100,1,2,11,-2,1,0,1,1
1480697722191100,-3,1,-9,-1,1,0,-2,-25
1480697722204640,-12,1,14,1,-1,-2,0,1
1480697722204640,-4,1,7,0,-1,0,-1,-4
1480697722219676,8,-2,0,-1,-1,-3,1,1
1480697722219676,-4,0,2,-2,-1,-2,0,12
1480697722236220,-5,-1,-24,-2,0,2,3,-6
1480697722236220,3,-1,20,1,1,-1,-1,-6
1480697722238227,-17,-2,-10,0,-1,-4,-4,-6
1480697722238227,15,6,8,1,1,-2,0,5
1480697722241736,4,-7,-16,-3,-3,-3,-2,-4
1480697722241736,-4,3,11,-2,0,0,1,1
1480697722250759,2,1,12,0,-1,0,1,1
1480697722250759,-1,2,-16,-1,0,0,-1,-3
1480697722266303,2,-2,17,1,-1,1,0,2
1480697722266303,-2,0,-14,1,-2,-1,-1,-5
1480697722271816,1,0,-23,-3,0,-2,0,-2
1480697722271816,-2,-5,18,4,1,0,1,7
1480697722296382,2,2,-28,-3,0,-2,-3,-4
1480697722296382,0,-10,21,-1,0,-2,-1,-2
1480697722299893,-3,-5,-30,-1,-2,-1,-2,0
1480697722299893,0,3,-3,1,-1,-1,0,1
1480697722310919,2,4,10,1,1,0,1,-7
1480697722310919,-8,-11,-1,-4,-3,-4,-3,7
1480697722312423,-4,7,11,1,0,1,0,0
1480697722312423,11,-5,-10,-4,-1,-1,0,-9
1480697722325958,0,-2,-13,2,0,-1,-2,-8
1480697722325958,0,6,10,2,0,2,2,-2
1480697722327462,-5,-5,6,-3,-1,0,3,6
1480697722327462,-4,3,-5,-1,-2,-2,-11,-22
1480697722349020,1,1,-3,0,0,-1,-1,4
1480697722349020,3,5,0,-1,-2,-2,-2,-1
1480697722350524,8,7,2,1,-2,1,3,4
1480697722350524,-2,0,13,5,0,-1,11,22
1480697722371580,-1,-2,2,-11,1,-4,-17,-24
1480697722371580,0,3,-7,0,1,1,2,7
1480697722373084,-2,1,15,-2,-2,-2,-6,-4
1480697722373084,-3,-2,-32,6,-2,-1,-2,-6
1480697722385618,1,-5,-9,-16,8,2,6,14
1480697722385618,3,2,22,-4,-3,-1,5,7
1480697722387623,1,-7,4,1,-1,-2,-7,-9
1480697722387623,1,12,9,3,-1,0,2,5
1480697722407175,-3,-1,-21,6,-3,-1,0,-2
1480697722407175,6,0,1,-1,0,-1,-3,21
1480697722416201,20,1,-4,-1,1,2,5,5
1480697722416201,1,-1,11,-2,-1,-2,-2,7
1480697722431239,3,1,10,5,-1,1,0,-2
1480697722431239,-9,-12,-6,-4,2,0,3,12
1480697722433244,1,6,-11,1,-1,-1,-1,-4
1480697722433244,8,-1,11,-7,-1,-1,-1,-5
1480697722446782,4,-3,11,1,-2,2,3,7
1480697722446782,-3,4,8,4,0,0,-3,-9
1480697722450290,-10,-1,1,3,2,0,0,-5
1480697722450290,-5,-7,18,-3,1,2,0,-4
1480697722468338,-7,0,-20,-1,-3,-3,3,4
1480697722468338,0,2,13,-2,-3,-2,-3,-7
1480697722469842,-8,-7,-47,-5,0,-2,-2,-5
1480697722469842,1,3,19,-1,-2,0,1,3
1480697722489894,4,0,2,2,-2,-2,0,8
1480697722489894,-2,0,-6,6,0,-1,-4,-10
1480697722514460,-1,-18,33,-1,-2,-1,-1,-6
1480697722514460,5,-1,-28,-5,1,2,0,5
1480697722515464,-5,1,-6,-1,-3,-3,-1,-2
1480697722515464,-6,-3,-13,0,-2,0,1,-7
1480697722516967,-5,-8,16,4,-1,2,2,2
1480697722516967,-5,4,7,-1,-1,1,-1,-11
1480697722527996,5,-4,-33,-3,-1,-4,-1,21
1480697722527996,4,0,-10,-6,0,-2,-1,-7
1480697722530001,1,6,16,3,0,0,-2,1
1480697722530001,-2,2,-1,0,2,-2,1,1
1480697722557575,3,2,30,3,0,1,1,-1
1480697722557575,-1,-2,0,1,0,1,-2,9
1480697722567100,13,3,-1,-3,0,-2,-2,1
1480697722567100,-29,-7,-5,-3,-4,-2,1,4
1480697722568104,3,-3,3,3,0,-1,1,0
1480697722568104,0,-1,-7,0,-1,-3,-5,-16
1480697722588658,2,6,8,-3,-1,0,0,2
1480697722588658,7,-11,-45,-2,-1,-2,-2,-3
1480697722589661,-5,-4,8,-3,-1,-2,1,-1
1480697722589661,-25,2,5,0,0,0,1,-1
1480697722591164,-5,7,-7,-3,0,-1,-2,-14
1480697722591164,6,2,22,3,0,-1,1,2
1480697722618737,-1,-1,-10,-1,1,-1,-4,-5
1480697722618737,4,4,12,1,0,1,1,0
1480697722620241,-10,-7,2,-5,-4,-1,0,7
1480697722620241,0,-3,-9,-2,0,0,-2,-7
1480697722625255,3,-3,5,1,-2,1,-1,2
1480697722625255,6,0,16,0,0,-1,1,-4
1480697722631773,-4,3,-38,1,0,0,1,3
1480697722631773,1,0,1,-2,-2,0,-3,-7
1480697722648318,-6,2,7,0,-2,1,-3,7
1480697722648318,10,-2,-37,-5,-3,-2,-1,-11
1480697722649822,0,0,-4,11,-5,-1,4,6
1480697722649822,6,-1,17,-6,-2,-2,-3,7
1480697722671381,-10,-15,-18,-8,5,1,-1,-10
1480697722671381,5,-4,16,5,3,2,0,6
1480697722672882,1,-4,-29,-7,-1,-3,-2,-11
1480697722672882,0,-6,1,6,-6,-3,0,13
1480697722693938,22,7,2,2,-4,-1,-1,6
1480697722693938,-7,-4,17,-2,1,-1,-1,-7
1480697722695943,0,0,1,0,1,1,-1,3
1480697722695943,-1,7,2,2,2,0,0,1
1480697722715998,6,-1,-1,-3,-2,0,0,-4
1480697722715998,-27,-3,-9,-1,0,-1,0,0
1480697722718503,10,10,27,2,-2,-1,-1,6
1480697722718503,-7,-11,-24,-6,-1,-1,0,-7
1480697722731036,-3,1,7,2,1,0,-1,-5
1480697722731036,2,5,13,1,-2,2,2,-7
1480697722734044,7,8,1,0,2,-1,3,9
1480697722734044,-8,-4,13,-5,1,-1,-3,-5
1480697722744573,0,-2,-11,3,0,-2,-2,-3
1480697722744573,-2,-7,-24,-6,-2,-1,-1,-7
1480697722759611,-25,-6,10,-2,1,-1,-3,-9
1480697722759611,17,4,10,3,1,3,2,13
1480697722768134,-7,3,11,2,-1,0,2,5
1480697722768134,15,6,-7,-1,-4,-4,-2,0
1480697722769639,-1,7,-1,-1,1,0,-1,-1
1480697722769639,10,-4,0,1,-2,-1,0,-4
1480697722791697,-30,5,-4,-1,1,1,3,-10
1480697722791697,3,2,-13,-5,-2,-1,-3,17
1480697722794204,13,-2,7,-1,-2,0,-2,1
1480697722794204,-27,2,-10,0,2,1,0,-5
1480697722805234,10,-4,13,1,-1,-1,-2,-1
1480697722805234,12,7,27,7,0,0,4,9
1480697722811750,-15,-16,-63,-22,3,-4,-9,-16
1480697722811750,0,2,-5,1,2,-1,-2,-3
1480697722828294,1,0,-3,-2,0,-2,-1,-5
1480697722828294,-2,6,45,8,1,0,0,-6
1480697722830300,5,0,-19,4,-1,0,4,17
1480697722830300,-1,-1,12,-7,-2,-2,-2,-6
1480697722850855,0,0,10,1,0,0,0,-3
1480697722850855,0,1,-16,0,1,-1,3,2
1480697722852359,-3,-7,24,2,-1,-2,-1,2
1480697722852359,2,-2,-10,-1,1,0,-1,-1
1480697722864892,1,-1,3,1,-3,1,1,9
1480697722864892,-11,2,0,-1,1,2,0,-7
1480697722879430,30,2,-2,0,0,-2,1,17
1480697722879430,-16,-3,9,1,-1,-2,0,0
1480697722895975,-9,4,26,3,-1,1,1,12
1480697722895975,30,-8,-66,-10,-5,-4,-7,-11
1480697722897480,-14,-14,33,2,2,2,0,-2
1480697722897480,3,-8,-34,-6,-5,-2,1,8
1480697722911516,-7,4,7,2,4,1,-1,-10
1480697722911516,-10,-7,4,0,0,-1,0,3
1480697722913021,-3,3,29,7,-1,1,0,-5
1480697722913021,6,5,7,1,2,1,-1,-6
1480697722925052,0,-6,-31,-7,-3,-3,0,-1
1480697722925052,3,0,15,5,-2,-2,-2,-3
1480697722933574,-3,2,4,-7,1,-2,3,-3
1480697722933574,0,6,12,6,2,2,2,0
1480697722948114,9,-2,-50,-9,-4,-3,-2,-4
1480697722948114,-1,-1,13,-2,-2,-1,-1,4
1480697722950121,-8,8,3,1,-3,-3,-1,-7
1480697722950121,9,5,20,4,0,1,2,16
1480697722970674,-3,-2,-16,-1,0,-1,-2,-6
1480697722970674,-3,-5,-4,0,-1,0,-1,-3
1480697722973180,-5,-2,-8,-1,-1,-1,-4,-4
1480697722973180,1,-1,2,2,3,2,1,-4
1480697722984210,2,3,8,0,-3,-2,1,-2
1480697722984210,4,3,9,0,3,2,2,5
1480697722993233,-35,-2,3,1,-2,0,-3,1
1480697722993233,19,-9,-5,-6,-4,-3,-2,10
1480697723008275,8,0,30,-1,-1,-3,-2,-2
1480697723008275,-3,-5,-71,-4,0,1,-1,-4
1480697723009777,-1,13,12,2,0,3,4,-1
1480697723009777,-13,0,-3,1,-2,-4,-1,-6
1480697723030834,0,6,15,1,0,-1,1,2
1480697723030834,3,3,28,3,1,-1,2,6
1480697723034345,7,-7,-16,1,1,1,0,1
1480697723034345,-5,-2,-3,-3,-1,-2,-1,-6
1480697723044369,6,4,32,3,2,1,0,1
1480697723044369,-7,-8,-39,-3,-2,-1,-2,-4
1480697723070439,6,-1,-17,-4,-1,-2,0,-5
1480697723070439,-3,4,7,2,0,1,-2,1
1480697723071441,-8,-14,1,-5,-1,-1,-2,-32
1480697723071441,-1,4,10,8,2,0,-1,-4
1480697723074450,6,0,10,-16,-4,-4,0,0
1480697723074450,-2,12,-10,4,3,3,0,3
1480697723090993,13,1,16,0,0,-1,0,-3
1480697723090993,-15,3,-5,-8,-2,-1,-1,1
1480697723092497,11,-6,-15,2,-1,-1,-1,-9
1480697723092497,2,7,9,3,-1,-4,-2,-1
1480697723104529,6,-1,-17,2,2,2,0,17
1480697723104529,-7,3,27,0,0,-1,0,-4
1480697723121073,11,1,21,3,1,1,0,11
1480697723121073,-6,-19,-53,-7,-4,-2,-4,-9
1480697723128092,0,12,9,3,-1,0,1,5
1480697723128092,4,-2,8,-4,-1,-1,1,3
1480697723130097,-3,0,-9,5,1,1,0,-6
1480697723130097,3,0,19,-1,0,0,0,-2
1480697723150651,-8,-10,-30,-6,-5,-2,-2,5
1480697723150651,2,-3,-2,-1,1,1,-2,0
1480697723152156,-5,1,2,-2,-2,0,0,1
1480697723152156,6,5,15,5,1,1,-1,-4
1480697723164692,-6,-10,9,-7,-2,-4,-2,1
1480697723164692,0,-1,-33,-1,-3,-1,1,3
1480697723179228,-5,-8,12,2,-1,-3,-4,-6
1480697723179228,5,-3,11,-1,0,2,4,3
1480697723188252,-4,1,-21,-2,-3,-1,0,-4
1480697723188252,11,-1,18,-2,0,-1,-2,-1
1480697723189756,-14,2,-6,1,-1,1,0,2
1480697723189756,-4,2,-15,-6,-3,1,2,3
1480697723210812,1,1,3,2,1,-3,-1,6
1480697723210812,1,1,6,0,2,2,2,-5
1480697723212316,-5,-13,-2,0,1,0,3,4
1480697723212316,2,0,21,0,0,0,-1,-7
1480697723224348,0,-2,-24,1,2,1,1,4
1480697723224348,0,7,15,1,-3,-1,1,2
1480697723233372,0,-3,2,-3,-3,-1,-1,-3
1480697723233372,0,-11,-6,2,1,0,1,1
1480697723248412,0,-1,26,0,-1,1,0,1
1480697723248412,0,-6,-27,-6,-2,-1,-2,-4
1480697723249918,0,4,-4,-1,2,-1,-1,-12
1480697723249918,-3,-3,5,-4,-2,-2,1,1
1480697723271979,-5,5,-4,3,1,1,1,3
1480697723271979,0,1,4,1,1,-2,1,0
1480697723273478,14,0,-3,-1,-3,1,-1,3
1480697723273478,-9,-8,4,-2,1,-1,0,2
1480697723284510,-2,-3,-29,-1,-2,-3,-2,-14
1480697723284510,-14,-4,3,-3,-1,-1,-1,1
1480697723299549,3,3,1,1,1,0,-1,0
1480697723299549,0,5,3,-1,-2,-3,-2,0
1480697723308070,-1,4,-7,0,-1,1,0,2
1480697723308070,0,-6,17,2,-1,1,-2,-3
1480697723310077,-6,-4,-10,0,1,0,-1,-6
1480697723310077,-3,0,-14,-7,-3,-3,-3,-6
1480697723332135,5,-1,-4,3,2,-1,3,0
1480697723332135,2,-7,-10,-5,-2,-3,1,11
1480697723337148,1,10,11,1,1,-2,0,-5
1480697723337148,3,12,17,3,-1,1,1,1
1480697723369734,1,7,-13,-1,-1,-2,-1,3
1480697723369734,-2,4,0,2,0,-1,-2,1
1480697723371238,0,-1,16,-4,0,1,-1,5
1480697723371238,1,-3,-17,-2,-1,0,0,-2
1480697723372241,-1,-2,23,1,0,1,-1,1
1480697723372241,3,1,7,1,-2,-1,-1,-6
1480697723375751,0,2,-14,-2,-3,-1,-1,2
1480697723375751,3,6,5,1,0,-1,-1,0
1480697723390790,-6,-6,17,-1,-1,0,0,-3
1480697723390790,-1,-3,-19,-3,0,-2,0,-2
1480697723392294,0,0,3,-1,-3,-3,0,2
1480697723392294,-1,-7,-1,-2,-1,1,-1,1
1480697723420369,-2,-3,1,2,1,-2,-2,0
1480697723420369,1,3,5,2,2,-1,-1,-1
1480697723428892,4,5,0,0,-1,-2,-1,1
1480697723428892,-5,0,-12,0,0,1,-1,-2
1480697723442428,-3,-6,-1,-2,-2,0,-1,5
1480697723442428,-2,-4,-9,-3,-3,-1,-1,-12
1480697723453959,0,0,6,0,2,-1,-2,1
1480697723453959,0,-7,-11,-2,1,-3,0,0
1480697723455964,0,-4,0,1,0,-3,1,-1
1480697723455964,-2,-1,2,-1,0,0,-1,2
1480697723458470,-3,-3,17,2,-1,2,2,3
1480697723458470,-1,1,-15,0,-1,0,-3,1
1480697723481030,-3,0,11,-2,-1,-2,-2,-1
1480697723481030,0,0,-23,0,-2,0,1,3
1480697723482538,-6,-8,-18,-1,0,-2,-2,-6
1480697723482538,-1,1,23,1,0,1,1,4
1480697723487548,3,6,1,-3,-2,-1,0,-2
1480697723487548,-2,-1,10,0,0,-2,0,-1
1480697723494566,2,-3,-5,-1,-3,0,-1,5
1480697723494566,-4,-2,-3,1,0,0,0,-1
1480697723510609,-4,-2,-5,-2,1,2,0,-2
1480697723510609,1,4,2,2,1,-1,-2,-2
1480697723512615,1,0,-6,0,-1,-1,0,0
1480697723512615,-3,1,8,-3,-2,-3,0,-2
1480697723533169,5,1,-15,0,0,1,0,-5
1480697723533169,-2,-2,15,-1,1,1,-1,2
1480697723534673,-1,2,-1,1,-1,0,-1,-3
1480697723534673,-4,-2,-10,-1,0,-1,-1,3
1480697723547708,-3,-6,4,0,2,1,-1,0
1480697723547708,1,-2,17,-1,-1,1,-1,5
1480697723554225,1,0,-30,-4,-2,0,1,-2
1480697723554225,0,15,11,-1,-1,-1,-1,-2
1480697723570769,1,-1,-3,1,1,0,1,1
1480697723570769,-1,-5,0,-2,-2,-1,0,-3
1480697723572273,-3,0,8,0,1,0,0,3
1480697723572273,4,-2,-4,2,1,0,-2,-2
1480697723593328,-3,-5,-1,-2,-3,-4,-1,-1
1480697723593328,-8,-8,4,3,2,2,0,-3
1480697723594832,-1,5,0,-1,1,-2,-1,1
1480697723594832,3,1,-4,2,2,0,1,-1
1480697723607869,-2,-7,2,-5,-4,-1,-3,-3
1480697723607869,1,0,-4,0,0,-2,1,0
1480697723621905,-2,2,4,0,0,-2,-2,-2
1480697723621905,-1,2,6,0,1,1,0,-7
1480697723630427,1,2,-28,-1,-1,-1,0,11
1480697723630427,-3,5,56,3,-1,0,-1,-18
1480697723636946,1,-6,-40,0,1,-3,-1,0
1480697723636946,-1,-1,-6,-6,-2,-3,-2,-5
1480697723653490,4,7,13,5,-1,1,0,7
1480697723653490,-7,-4,-8,-3,4,1,-2,-10
1480697723654993,3,3,11,-4,-2,-1,-1,-1
1480697723654993,-3,8,13,2,1,1,0,0
1480697723676050,-1,-2,-16,-2,-3,-2,0,-1
1480697723676050,3,4,-3,2,-2,-1,0,5
1480697723700113,2,3,14,3,0,-1,0,-1
1480697723700113,5,-5,-19,-5,-2,-2,-1,0
1480697723702118,-2,-2,11,0,-1,0,-3,-5
1480697723702118,0,5,-4,-1,0,1,0,3
1480697723704124,2,-5,-9,-3,-1,1,-1,-2
1480697723704124,0,-5,6,1,-4,-3,-2,3
1480697723719665,1,6,6,2,1,-1,-1,-1
1480697723719665,2,-4,-24,-4,-2,-2,0,2
1480697723728689,-1,3,3,0,-1,-1,-2,2
1480697723728689,-2,-4,-1,3,1,1,-2,0
1480697723734706,-1,-1,2,-6,1,-1,0,-6
1480697723734706,4,5,-11,-2,-5,0,-2,4
1480697723743816,-1,1,9,1,1,-1,-1,-2
1480697723743816,2,-5,-11,-3,-3,-2,0,-3
1480697723749747,-10,-8,-5,-2,-2,-2,-2,-1
1480697723749747,7,-2,12,0,-1,-2,0,2
1480697723758267,0,2,-10,-2,-1,1,2,7
1480697723758267,1,-2,-3,-3,0,-2,-4,-18
1480697723780828,2,4,-30,2,3,1,1,-2
1480697723780828,0,-2,18,-1,-3,1,-2,2
1480697723783335,0,2,6,4,-1,-2,1,1
1480697723783335,-3,1,-10,-1,2,0,2,5
1480697723787345,1,-1,12,1,-1,-1,-1,-2
1480697723787345,-1,3,-9,0,-2,-2,-1,-3
1480697723801884,-4,-4,8,-2,-1,-2,-1,-2
1480697723801884,1,-2,-11,3,2,2,0,4
1480697723818929,2,1,11,-5,-4,-2,-1,-1
1480697723818929,-4,-9,-10,1,0,0,0,5
1480697723820434,-3,-4,15,1,-2,0,1,1
1480697723820434,2,0,4,-1,-3,-1,0,1
1480697723832467,0,-10,-23,-3,-2,-1,-1,-2
1480697723832467,-9,1,-6,3,2,0,0,-2
1480697723849009,-2,-5,10,0,0,-1,-1,-4
1480697723849009,1,0,-7,-1,1,-1,1,2
1480697723850014,-3,5,12,0,-1,1,0,-10
1480697723850014,2,-4,-7,-2,-1,-2,0,1
1480697723856027,-2,-9,-5,-1,-1,-2,-3,1
1480697723856027,-1,-1,-1,-5,-3,-1,-1,0
1480697723870566,2,0,5,2,0,1,0,1
1480697723870566,1,1,-3,-4,-1,-2,2,-1
1480697723878588,1,0,-1,0,1,1,-2,-3
1480697723878588,-1,3,6,0,-2,-1,-1,1
1480697723894129,-2,-7,-7,7,-3,-3,-1,4
1480697723894129,2,4,10,6,-4,0,4,2
1480697723897639,-4,-4,-35,-19,8,0,0,1
1480697723897639,-1,2,18,3,2,-1,-2,-9
1480697723907164,2,1,11,-1,-5,1,3,2
1480697723907164,1,0,8,-13,2,0,-3,0
1480697723916189,0,0,-38,28,-6,-1,1,3
1480697723916189,-2,-13,2,10,-5,-1,6,14
1480697723930726,-1,21,31,-12,16,6,-1,-3
1480697723930726,-10,-31,-69,-7,-5,-2,-9,-12
1480697723932232,11,15,33,-4,0,-2,-1,1
1480697723932232,0,2,-6,-7,2,0,-6,-13
1480697723960807,3,2,-16,5,-6,0,5,12
1480697723960807,6,8,16,-4,1,-1,2,2
1480697723962317,0,3,-2,-2,-1,-2,-2,-5
1480697723962317,-3,-7,-9,4,-2,-1,0,2
1480697723975848,5,-2,10,1,-1,1,0,6
1480697723975848,-5,16,-18,-3,2,0,-1,-6
1480697723978353,0,1,21,5,-2,0,-1,-5
1480697723978353,15,16,8,-2,2,1,5,17
1480697723992389,-8,-22,-25,1,1,-3,-8,-30
1480697723992389,0,-4,16,6,0,0,0,7
1480697723998407,-3,-11,21,7,-2,0,0,2
1480697723998407,-7,-3,-23,-10,-4,-1,2,-3
1480697724013948,6,8,7,4,2,0,-3,3
1480697724013948,6,-4,27,9,1,0,2,3
1480697724015451,-6,-3,-10,-10,-2,0,2,9
1480697724015451,8,-12,14,-5,-3,-3,-5,-11
1480697724036011,1,4,16,10,2,-2,3,6
1480697724036011,-9,-9,-32,-17,-6,-3,2,-4
1480697724037510,5,5,-4,-2,1,1,-1,-1
1480697724037510,-8,-2,17,-1,-2,-2,-5,-3
1480697724050546,3,7,-16,0,-1,0,2,4
1480697724050546,0,-1,34,4,2,1,-1,3
1480697724060070,-4,-4,-28,-4,-2,-3,-2,-5
1480697724060070,-4,3,5,4,0,1,2,2
1480697724080625,0,2,-5,-5,-1,-3,-2,-2
1480697724080625,-4,-4,9,2,-1,1,-1,0
1480697724082633,-4,-1,-9,-6,-3,1,0,-4
1480697724082633,1,0,4,3,1,-1,-1,0
1480697724087143,-2,-4,18,-4,-2,0,3,3
1480697724087143,0,-6,-37,2,1,-2,0,-3
1480697724103187,-4,-1,25,-1,0,1,-1,-1
1480697724103187,0,1,-4,-2,-1,2,0,2
1480697724110705,-4,-4,21,2,0,-1,-1,1
1480697724110705,2,3,-34,2,0,0,1,0
1480697724134769,-1,-4,4,-1,0,-2,-1,-1
1480697724134769,-4,-2,15,-1,1,1,-1,-3
1480697724135270,-13,-13,-15,-2,-1,-2,-1,-4
1480697724135270,3,10,27,2,-2,-3,0,-1
1480697724137275,4,-1,-7,1,2,0,2,0
1480697724137275,-3,3,-4,0,0,-3,1,-1
1480697724146801,2,0,5,0,1,2,0,2
1480697724146801,1,-1,-6,-2,-2,-2,-4,-1
1480697724155825,-3,1,4,-1,1,1,-2,-4
1480697724155825,-2,-6,-2,-1,-2,-2,0,0
1480697724170865,0,-3,-24,-2,0,0,0,0
1480697724170865,1,6,11,2,2,-1,0,0
1480697724172369,2,1,1,-1,-4,-2,-1,2
1480697724172369,-8,-3,-3,-1,-2,2,2,0
1480697724193424,-1,-5,-11,-6,-4,-2,-1,0
1480697724193424,0,1,5,0,-3,-3,-1,-1
1480697724194929,0,2,6,3,-1,-1,0,-2
1480697724194929,1,-4,-11,-5,6,1,0,1
1480697724206961,1,-1,-2,-3,-5,-3,0,0
1480697724206961,2,5,26,2,0,2,1,2
1480697724222001,-2,-23,-41,-3,-4,-2,-1,-3
1480697724222001,1,6,-10,2,0,-1,-1,0
1480697724231025,0,-1,11,0,1,-1,1,1
1480697724231025,-1,-1,-6,2,1,-1,0,-1
1480697724234535,-2,-7,18,0,-1,0,-1,0
1480697724234535,2,5,-5,1,-1,-2,-1,0
1480697724253083,0,0,10,-5,-2,-1,-2,-1
1480697724253083,-3,-8,-8,2,4,1,2,1
1480697724255089,-1,9,52,5,4,2,1,0
1480697724255089,-2,-7,-85,-6,-2,-3,1,-1
1480697724292689,-4,-5,19,-2,-4,-4,-3,-4
1480697724292689,1,3,0,-2,-3,-1,-3,1
1480697724294193,-2,3,-1,0,0,-2,0,-2
1480697724294193,1,-3,27,-2,-3,0,-1,0
1480697724295195,0,-1,-18,0,5,2,0,-1
1480697724295195,1,2,0,-1,-1,-1,-1,0
1480697724298204,2,4,-11,0,-2,0,-2,1
1480697724298204,-1,-1,12,-9,-4,-2,-2,-4
1480697724313243,-1,2,-21,-4,-5,1,0,1
1480697724313243,-5,-7,7,1,3,0,0,-1
1480697724314748,-2,0,-4,1,-1,0,-1,-2
1480697724314748,-4,-6,-15,1,-2,-1,-1,-1
1480697724336305,-1,0,3,1,0,0,0,-1
1480697724336305,1,6,11,7,-3,-3,0,1
1480697724337809,1,-3,0,-13,1,0,0,0
1480697724337809,1,-4,0,-1,-2,0,0,-1
1480697724358867,0,-2,1,-1,-1,0,-2,-1
1480697724358867,1,1,-12,3,-3,0,-1,-1
1480697724360870,5,4,11,0,-3,-3,-2,-1
1480697724360870,-5,-1,11,2,1,-2,-1,-1
1480697724373404,3,4,-8,3,1,-1,1,0
1480697724373404,-3,-3,-5,-7,-2,-1,1,-1
1480697724375911,3,1,-1,-3,1,1,0,2
1480697724375911,3,5,1,4,2,1,1,1
1480697724395963,-5,-5,8,5,-1,-2,0,0
1480697724395963,-1,-4,-4,-2,1,0,-2,-1
1480697724397468,-3,0,-3,-5,1,0,1,-3
1480697724397468,1,3,-3,1,-4,-3,-2,3
1480697724411003,-3,-1,5,-2,-1,0,0,0
1480697724411003,0,-10,-4,-4,2,-1,-3,0
1480697724412508,0,4,8,7,2,0,0,1
1480697724412508,-3,-16,-32,-8,0,2,0,-3
1480697724433566,-2,5,0,-1,-1,1,-3,0
1480697724433566,-2,1,2,-4,-3,-1,-1,-1
1480697724435068,-2,-4,-10,1,-2,-3,-1,0
1480697724435068,0,3,22,6,5,0,0,-1
1480697724455622,1,-2,-6,-5,-4,0,-1,1
1480697724455622,-1,-6,0,4,3,1,0,-1
1480697724457628,-1,5,-2,-3,-3,0,0,0
1480697724457628,-1,0,1,0,-4,-1,0,-2
1480697724470162,-1,-6,-13,0,-1,-1,-1,-3
1480697724470162,1,7,5,-2,0,-1,-2,-2
1480697724484199,-3,-4,-4,-2,-2,-1,0,-1
1480697724484199,-2,3,21,3,1,-1,-1,0
1480697724493222,-5,-20,-11,4,3,-1,-3,-2
1480697724493222,-3,-2,-1,-10,-5,1,0,-1
1480697724494726,0,-2,-3,-1,-2,-1,-1,1
1480697724494726,0,0,11,7,3,0,1,0
1480697724514780,-1,4,9,-5,-1,-4,0,-1
1480697724514780,0,12,-27,-1,0,0,1,2
1480697724556391,-5,-2,11,4,1,1,0,0
1480697724556391,2,-1,6,0,0,-1,0,-2
1480697724557395,3,1,-14,-1,-1,-3,-1,3
1480697724557395,-2,-9,-2,0,-3,-1,0,0
1480697724576960,2,6,9,-4,-4,-2,1,2
1480697724576960,-3,2,-3,-1,1,-1,-1,-1
1480697724577948,5,3,8,1,1,2,1,1
1480697724577948,1,-4,-3,-2,-2,-3,-2,-3
1480697724579451,0,-1,-13,-5,-1,-2,-2,-2
1480697724579451,1,1,7,-3,-2,0,0,0
1480697724590982,-1,-3,-2,0,0,0,0,-2
1480697724590982,0,1,-1,-4,-2,0,-1,0
1480697724591483,1,5,-1,0,1,-1,-3,1
1480697724591483,1,0,6,0,-1,-1,0,1
1480697724596998,0,0,-5,0,-1,-2,-1,0
1480697724596998,-1,0,2,1,0,3,0,0
1480697724613041,-2,0,23,1,2,2,3,0
1480697724613041,-1,-5,-13,-1,-1,-2,-1,-2
1480697724615046,-1,-5,-4,-1,0,-1,1,-1
1480697724615046,0,1,2,2,0,-1,-1,-1
1480697724643622,-1,2,1,-3,-2,-1,2,-1
1480697724643622,1,0,3,-1,-1,1,-2,-1
1480697724650640,1,-3,-12,0,0,2,2,3
1480697724650640,-3,16,-5,-1,2,-2,-2,-3
1480697724651643,1,-3,-6,1,-2,0,0,-2
1480697724651643,1,-1,3,1,2,1,1,1
1480697724657161,-3,11,21,1,-1,-1,1,-3
1480697724657161,1,-10,-35,-5,-2,1,0,4
1480697724674705,0,-4,7,0,0,-2,-2,-7
1480697724674705,1,6,7,1,2,0,0,1
1480697724679718,0,-7,-10,0,-1,-1,-3,-3
1480697724679718,1,-2,38,0,-2,-3,-2,0
1480697724695761,-4,-7,-18,-2,0,1,2,2
1480697724695761,0,-1,-7,0,-3,-1,-2,-2
1480697724698268,-2,-2,2,-1,-1,-2,-2,2
1480697724698268,6,0,5,-1,1,1,-2,-2
1480697724710800,-2,-2,0,2,-1,-1,2,2
1480697724710800,-1,0,5,-2,-1,0,0,1
1480697724716817,-3,-5,-10,-2,3,1,-1,-2
1480697724716817,-1,-1,-4,-2,-3,-2,-1,0
1480697724733361,1,1,-5,-2,1,-2,-2,0
1480697724733361,-2,-3,3,0,0,1,0,-2
1480697724734864,2,-2,-7,-3,-3,-1,0,-1
1480697724734864,2,2,-6,1,3,-2,0,1
1480697724755920,1,4,8,1,-1,-1,-2,-1
1480697724755920,0,-8,0,1,2,0,1,1
1480697724757424,-4,-1,-9,-1,-2,-1,-2,-2
1480697724757424,1,-17,8,-2,0,-1,-1,0
1480697724769456,-3,-2,12,4,2,1,0,-1
1480697724769456,3,2,-10,-1,0,-2,-1,-1
1480697724786000,-2,-6,-28,-3,-2,-1,-1,-3
1480697724786000,-4,-2,-7,-3,-1,-1,0,-3
1480697724808060,0,3,7,-2,-2,-1,0,0
1480697724808060,0,0,2,-1,-1,0,-1,-1
1480697724810100,4,1,9,3,2,1,1,1
1480697724810100,-3,-2,-1,2,0,-1,-1,1
1480697724837136,-5,-10,-4,-6,1,-1,0,1
1480697724837136,1,7,10,4,-3,0,-1,-1
1480697724848169,0,-3,-6,-3,0,-1,-2,-3
1480697724848169,0,5,-6,-2,-1,-1,4,2
1480697724848669,2,3,3,5,7,-1,-4,-6
1480697724848669,-2,0,9,-5,0,1,1,1
1480697724853179,-1,-4,-14,-4,0,0,-1,2
1480697724853179,-4,3,27,9,-3,1,-2,-2
1480697724853681,1,-8,-28,-1,-2,-2,-3,1
1480697724853681,-8,-4,22,0,2,0,0,1
1480697724875238,6,3,-7,1,-5,0,0,-2
1480697724875238,-4,-4,-11,-7,-3,-2,0,-3
1480697724876242,0,8,12,5,-2,2,1,0
1480697724876242,8,-1,-10,3,0,-2,-1,2
1480697724883259,-5,3,15,-4,-4,-4,-1,-3
1480697724883259,7,4,-5,-4,-1,1,-1,3
1480697724889275,0,5,2,-1,-2,-1,-2,-3
1480697724889275,-4,-9,-7,-3,-2,-1,1,-2
1480697724904315,20,0,4,2,2,2,0,4
1480697724904315,-34,0,1,-1,-1,-2,-3,-5
1480697724913340,-1,0,-11,-7,-3,-2,-1,-4
1480697724913340,-1,5,12,-2,-2,-1,1,3
1480697724914844,0,-4,-9,5,1,1,1,1
1480697724914844,3,5,14,0,0,1,1,-1
1480697724935900,1,-9,-12,-5,-4,0,0,-8
1480697724935900,-8,-4,-16,-5,-3,-4,-3,-2
1480697724937403,1,2,3,3,3,-1,0,0
1480697724937403,6,-5,-3,-3,-1,-2,0,-1
1480697724949440,-11,4,24,9,2,0,1,4
1480697724949440,11,0,-9,-9,0,1,0,0
1480697724958960,-11,-4,-31,3,-1,0,0,-1
1480697724958960,2,-3,0,2,-2,-2,-3,-1
1480697724974001,3,5,0,-1,0,-3,-1,3
1480697724974001,-3,-2,4,1,-1,-1,-1,-2
1480697724976510,-12,-12,19,-3,2,4,2,3
1480697724976510,7,-5,-2,2,2,-1,-3,1
1480697724996560,4,1,-40,-3,-2,-3,0,2
1480697724996560,-3,5,0,3,1,0,0,-3
1480697724998566,-1,8,12,-1,-2,-2,0,-1
1480697724998566,4,4,22,2,-1,1,0,-4
1480697725009595,6,-2,-22,-2,-2,0,-1,4
1480697725009595,-4,3,-3,5,5,0,0,0
1480697725026139,-1,0,1,-2,-4,-2,-1,-4
1480697725026139,-1,-2,-7,-3,0,1,0,1
1480697725034161,2,-3,11,0,-1,-2,1,1
1480697725034161,-1,-7,-3,1,-1,0,0,-2
1480697725047196,0,0,-4,-4,-1,-2,-2,0
1480697725047196,1,-1,-8,-2,1,1,2,1
1480697725063238,-4,3,10,-2,0,0,-2,1
1480697725063238,-1,-3,-1,3,-1,-1,-2,-1
1480697725064742,-2,-3,37,2,-1,0,-1,-3
1480697725064742,1,-4,-65,-6,0,1,0,3
1480697725069254,-2,-2,-1,-1,0,-1,-1,-2
1480697725069254,-1,0,3,-2,-2,-3,0,0
1480697725107857,2,7,27,1,-2,-2,-2,-1
1480697725107857,5,24,-14,-3,-2,-1,-1,-2
1480697725108860,-3,4,4,-1,-1,0,0,1
1480697725108860,-2,-1,-1,2,1,0,-3,-1
1480697725116382,1,2,-11,-2,-1,-1,-1,-3
1480697725116382,0,-5,0,0,2,-1,0,6
1480697725123899,1,2,8,-2,-2,0,-1,-1
1480697725123899,-2,1,11,1,0,1,3,0
1480697725152977,2,-1,-10,-2,-2,-3,0,0
1480697725152977,-4,-3,10,-1,1,-1,0,-1
1480697725162000,-4,-7,14,1,0,1,1,-2
1480697725162000,-2,-5,-42,-4,-1,-1,-1,0
1480697725163504,5,-2,-5,-2,-2,-1,-2,1
1480697725163504,-4,-7,5,-2,-1,-1,-1,-2
1480697725164509,2,0,6,0,0,1,0,2
1480697725164509,1,2,7,2,0,0,0,-1
1480697725169019,-2,-2,-13,0,-1,-1,1,-1
1480697725169019,-2,-5,9,-3,-3,-1,-1,-1
1480697725176038,5,1,17,0,0,1,-2,-7
1480697725176038,2,1,-16,0,0,-1,0,3
1480697725177542,-8,-1,2,0,0,0,1,-1
1480697725177542,-1,-8,15,2,0,-2,0,-1
1480697725190577,-5,-9,-7,-2,0,-1,-1,-1
1480697725190577,1,19,16,0,-3,0,-1,-3
1480697725198598,-1,0,-8,-2,-1,0,1,5
1480697725198598,0,-1,1,0,-2,-2,0,-2
1480697725213136,1,-2,-7,0,0,-1,0,0
1480697725213136,-1,-3,7,-1,-1,-1,-2,-2
1480697725215142,0,-1,-7,-1,1,1,-3,2
1480697725215142,-2,0,4,0,0,1,0,-2
1480697725235697,-2,1,-2,-3,-4,1,-1,-1
1480697725235697,6,3,-2,-4,-1,-2,-1,1
1480697725237202,-6,-2,10,0,1,1,-1,-2
1480697725237202,2,-3,-16,-1,1,0,-1,-4
1480697725258256,0,2,-3,1,0,-1,0,2
1480697725258256,-1,-8,-23,-4,-2,-1,0,1
1480697725259760,6,4,9,2,0,-2,-1,-1
1480697725259760,0,0,17,0,1,1,0,-1
1480697725273296,-2,0,-1,0,-1,-1,1,0
1480697725273296,-1,-4,10,1,-1,-1,0,2
1480697725274801,0,2,-17,-1,-2,-1,-1,-1
1480697725274801,0,-5,5,-1,-3,-2,-1,0
1480697725294854,-2,-2,3,2,0,1,-1,1
1480697725294854,-1,-5,-8,-1,-1,-1,0,-1
1480697725303377,-4,1,0,-1,2,-1,1,-1
1480697725303377,-1,1,-6,1,-2,-1,-1,0
1480697725325936,4,5,0,-2,-2,-1,-1,0
1480697725325936,-1,-17,6,1,-1,0,-1,-1
1480697725327440,-2,-4,-6,1,-1,-2,-1,-1
1480697725327440,-1,-2,-3,-2,-2,-3,-1,0
1480697725340977,-1,2,-3,0,1,-2,1,-2
1480697725340977,0,1,6,2,1,-1,-1,6
1480697725342483,4,7,-7,-1,-1,-2,-1,-1
1480697725342483,-2,-2,5,2,-1,3,2,-1
1480697725363537,1,-4,-21,0,-2,-2,0,-2
1480697725363537,0,1,17,-1,-1,-1,0,-3
1480697725365041,-9,-3,1,-3,1,-1,-2,-3
1480697725365041,4,4,-1,-4,-1,-2,-2,-1
1480697725408156,-4,-8,3,-1,0,1,2,1
1480697725408156,-1,1,4,1,1,1,-1,-2
1480697725423696,-3,-5,-6,-3,-3,-2,-3,-3
1480697725423696,4,0,5,2,1,0,3,10
1480697725424699,-1,1,0,-1,0,-3,-2,-3
1480697725424699,-1,-3,2,-2,-1,-1,-2,0
1480697725430715,1,-6,1,0,0,1,2,-4
1480697725430715,-1,2,14,1,-1,-2,0,-1
1480697725431216,1,0,-31,-3,-1,-1,-1,0
1480697725431216,-2,1,19,-3,-1,0,1,-5
1480697725441244,5,1,-23,1,-1,1,0,2
1480697725441244,-4,9,1,0,0,1,-1,-1
1480697725442248,0,0,10,1,1,1,1,0
1480697725442248,0,3,-2,-2,-1,0,0,-2
1480697725444252,-3,-7,0,-1,-1,0,-1,1
1480697725444252,1,0,-9,0,-1,-2,-2,-1
1480697725460794,-4,-3,18,1,0,1,-1,-2
1480697725460794,-1,3,-13,1,-1,-1,1,2
1480697725462299,1,1,8,-2,1,0,-1,1
1480697725462299,-4,-7,-8,-1,3,-1,0,-4
1480697725476337,1,4,4,-2,-1,-1,0,0
1480697725476337,-1,-4,-2,3,-1,0,1,0
1480697725481852,2,2,0,-1,-1,-4,-3,-1
1480697725481852,0,-2,3,0,0,-1,-1,-4
1480697725498396,-6,-1,-26,-1,-1,-2,-2,2
1480697725498396,-2,-3,6,-2,1,-1,-1,-2
1480697725499900,1,1,-1,0,-2,3,-1,-2
1480697725499900,0,1,8,-2,0,-1,-1,-3
1480697725512432,5,5,16,2,-1,1,0,1
1480697725512432,-3,-5,-27,-4,-2,-1,-1,0
1480697725519451,-1,-18,1,1,0,1,1,0
1480697725519451,-4,-9,0,-2,1,1,0,-1
1480697725535995,2,-5,7,0,-2,-2,-1,0
1480697725535995,0,1,1,0,1,-2,1,-1
1480697725537499,-6,-12,4,0,1,0,-1,-2
1480697725537499,0,1,-9,1,-2,-1,0,1
1480697725558556,2,2,4,-1,1,0,0,0
1480697725558556,-3,-2,3,3,1,1,-1,0
1480697725560059,2,8,4,0,-1,-1,1,-1
1480697725560059,0,-5,-5,0,-1,-1,-1,0
1480697725603675,-3,-2,-2,-1,-1,-1,0,-1
1480697725603675,0,1,-1,0,-1,-2,-1,-2
1480697725605179,-1,3,3,0,0,1,2,3
1480697725605179,-2,-8,-4,-1,-2,0,0,-2
1480697725619718,-10,-1,7,-2,-1,-2,0,3
1480697725619718,4,1,-7,1,0,0,-1,1
1480697725621223,-2,-5,17,2,0,-1,2,-1
1480697725621223,-2,-2,-18,-5,-1,-2,0,-3
1480697725625734,1,-4,3,0,-1,1,-1,-2
1480697725625734,-1,2,2,-1,-2,-1,0,0
1480697725627238,2,7,5,-1,-2,-2,-2,1
1480697725627238,6,10,4,1,-1,0,-1,-1
1480697725640774,-2,4,1,0,0,1,-1,-3
1480697725640774,-2,-4,-2,-1,0,0,0,0
1480697725642278,-2,-2,-14,-2,-1,-1,0,-1
1480697725642278,-3,4,7,-2,-2,0,-1,0
1480697725665846,1,-3,-2,-1,-1,1,-1,-2
1480697725665846,-4,-4,-9,0,-1,0,1,-1
1480697725686395,0,2,11,2,1,0,-2,-2
1480697725686395,-1,-3,-23,-2,0,-1,-1,0
1480697725687899,-1,-5,-3,-3,-2,0,-2,-1
1480697725687899,5,9,7,0,-1,0,0,-1
1480697725694918,0,-1,1,-1,-2,0,0,1
1480697725694918,-2,-5,-11,0,0,0,1,-1
1480697725695419,1,2,5,1,-1,0,0,-1
1480697725695419,4,4,1,-1,-2,0,-2,0
1480697725706952,-9,-1,-16,-2,-1,0,-2,-1
1480697725706952,-2,1,12,-1,-1,-1,-1,0
1480697725715976,1,0,-3,0,1,-1,0,-1
1480697725715976,-1,-6,0,2,-1,-1,-1,3
1480697725717478,1,3,5,-1,-2,-1,-1,-1
1480697725717478,4,8,-3,0,-1,-2,0,0
1480697725746055,-3,-1,-2,1,1,-1,-1,2
1480697725746055,-2,-1,3,-4,-1,0,-3,-6
1480697725747558,3,1,-6,-3,-1,-1,-2,3
1480697725747558,0,1,2,1,0,0,1,0
1480697725752070,-2,-4,0,-1,2,0,-1,-3
1480697725752070,-3,0,-3,1,1,-2,1,-2
1480697725761093,0,-13,-7,-2,1,0,0,-2
1480697725761093,0,-2,2,-1,-2,0,0,2
1480697725777136,-1,0,3,-1,-2,-3,-4,-1
1480697725777136,-1,0,-2,0,-1,0,0,0
1480697725782153,0,1,-15,-1,0,-1,1,-2
1480697725782153,0,1,29,2,0,1,0,-2
1480697725799195,-3,-7,-26,-3,-3,0,0,0
1480697725799195,-3,-7,1,0,1,0,-1,2
1480697725800699,0,4,1,0,-1,0,-2,-2
1480697725800699,0,0,8,0,0,-1,-2,-2
1480697725811730,1,6,5,2,-1,-1,0,0
1480697725811730,2,2,-9,-4,-2,-2,-1,-1
1480697725820752,-2,-2,8,1,-1,-2,0,0
1480697725820752,2,0,-9,0,0,-1,-1,0
1480697725835792,0,-1,0,-2,0,0,0,1
1480697725835792,-2,1,5,2,0,0,0,-3
1480697725837296,-2,-3,-3,-1,1,-1,1,0
1480697725837296,0,-1,0,1,-5,-1,0,3
1480697725865875,4,4,-1,7,0,1,3,11
1480697725865875,-7,0,22,-13,-8,-4,-11,-21
1480697725867377,3,5,-27,-15,4,-1,0,-1
1480697725867377,-1,-2,9,6,-1,0,6,10
1480697725880912,1,-1,4,-2,-1,-4,-5,-15
1480697725880912,0,0,1,8,-1,1,3,7
1480697725896955,-5,-31,14,-3,-9,-3,-6,-6
1480697725896955,3,6,3,-2,1,1,0,2
1480697725897958,0,1,4,1,1,-2,3,4
1480697725897958,-1,1,-2,2,1,-1,1,1
1480697725900465,11,17,-14,-2,0,-1,-2,-6
1480697725900465,-10,-13,-5,0,3,0,-2,0
1480697725919523,1,-1,15,-1,-3,1,-1,0
1480697725919523,-1,-7,-23,-3,1,1,-2,-3
1480697725948091,2,13,20,5,-2,1,2,17
1480697725948091,6,-2,-21,0,1,-3,-5,-12
1480697725948593,-9,0,-12,-6,-2,-2,0,-3
1480697725948593,6,4,4,-5,-1,0,3,18
1480697725958118,-5,-4,5,4,0,-1,-1,-14
1480697725958118,-1,11,4,-1,-2,1,-2,6
1480697725958619,5,4,29,0,1,1,-2,-12
1480697725958619,-10,1,-36,1,-1,1,3,10
1480697725962128,2,-5,18,3,-4,0,-2,-3
1480697725962128,-3,-3,-7,-9,-6,-2,-4,3
1480697725978171,6,1,-8,0,0,1,2,-4
1480697725978171,-3,-7,8,-1,1,-1,2,-4
1480697725979675,-3,4,1,-1,0,-2,0,2
1480697725979675,-2,-1,-20,-1,2,0,1,-6
1480697726000731,-5,0,3,-2,-3,-2,-1,4
1480697726000731,-2,-10,4,6,0,0,0,-5
1480697726004240,-1,4,2,0,2,1,-1,0
1480697726004240,1,-8,3,1,2,-2,0,-2
1480697726016273,-4,-2,-9,-4,0,-1,-2,3
1480697726016273,6,6,5,2,1,0,-1,1
1480697726018278,6,0,0,-2,-1,-1,1,-4
1480697726018278,-3,-2,-2,-3,-1,2,-2,1
1480697726038331,2,6,28,2,-1,0,-1,2
1480697726038331,0,-3,-61,-3,0,-1,-2,-3
1480697726039835,-5,1,11,0,-1,0,-1,-1
1480697726039835,-1,-3,7,-2,-2,-1,-1,-4
1480697726051867,-1,-3,-18,-2,0,-3,-1,2
1480697726051867,3,2,23,3,1,-1,1,-2
1480697726068411,-1,0,-2,2,1,2,1,3
1480697726068411,-1,-1,5,2,-1,-3,-1,-3
1480697726076935,3,-2,-11,-1,1,-1,0,0
1480697726076935,0,-5,4,-4,-4,-2,-1,-4
1480697726081950,1,14,-17,0,-2,-1,-2,0
1480697726081950,0,5,10,1,-1,3,1,1
1480697726098496,-1,-5,-5,1,-1,-2,0,-2
1480697726098496,-5,-6,-4,-2,0,0,0,-1
1480697726099995,-2,-4,2,-1,-1,-1,1,2
1480697726099995,-1,1,-4,1,2,0,0,-2
1480697726112027,-2,-3,-10,-3,-2,-1,-2,-2
1480697726112027,6,3,18,0,-2,-1,-1,2
1480697726121552,-7,-2,-9,0,0,-1,-1,-3
1480697726121552,1,2,-2,-1,-2,-1,-2,1
1480697726144112,-1,-5,-28,-3,1,1,-1,1
1480697726144112,1,4,28,1,0,-1,-3,-4
1480697726145616,-4,-11,0,0,1,0,0,1
1480697726145616,4,2,-5,-2,-2,-3,-3,-3
1480697726158650,-7,1,16,3,0,2,3,-3
1480697726158650,5,-1,4,0,1,1,-1,7
1480697726164667,3,3,-5,0,-2,0,0,0
1480697726164667,9,-4,10,1,1,0,0,0
1480697726197253,-12,-2,-10,-3,0,-3,-2,7
1480697726197253,1,10,0,1,0,1,-2,-27
1480697726198757,-9,-12,-11,-9,-5,-3,-4,-2
1480697726198757,-1,0,1,0,1,-1,1,0
1480697726199759,8,-8,13,1,-3,-1,-1,-2
1480697726199759,-6,-9,-24,-1,1,-2,2,5
1480697726203269,2,2,7,4,1,-1,1,1
1480697726203269,-4,1,-4,-3,-3,-2,-1,-5
1480697726217808,3,1,5,1,1,1,-2,0
1480697726217808,-2,3,19,2,-1,0,-1,3
1480697726225830,2,-2,-11,0,-2,0,0,0
1480697726225830,-6,-11,-33,-6,-1,0,1,0
1480697726241872,2,2,3,1,0,-1,1,-2
1480697726241872,0,1,6,-1,-1,-1,-3,6
1480697726256410,7,13,3,2,1,-1,-2,1
1480697726256410,1,0,18,-1,-4,0,-1,1
1480697726258416,-3,1,-28,-5,-1,1,0,-1
1480697726258416,-2,9,5,1,0,-1,0,-2
1480697726263430,4,-12,-19,0,0,-1,4,9
1480697726263430,-4,-1,-1,-3,1,-1,-2,-4
1480697726278469,0,6,12,8,-5,-2,-4,-8
1480697726278469,0,-1,-10,-6,-2,-2,1,3
1480697726280976,-3,-3,8,-10,9,6,-1,-5
1480697726280976,4,8,11,6,1,-2,1,7
1480697726301030,-5,-26,-7,-5,-2,-2,1,4
1480697726301030,-1,-1,-4,3,-8,-2,0,-2
1480697726302534,1,3,5,7,0,-2,3,1
1480697726302534,-2,6,0,-4,0,0,-2,2
1480697726315572,4,11,3,-1,0,-2,-7,-8
1480697726315572,-5,-9,-10,-3,-1,-3,-2,0
1480697726329605,3,4,10,-4,-4,-1,-1,-1
1480697726329605,-10,-8,0,0,-1,-1,-3,-8
1480697726338130,3,9,2,1,0,0,2,7
1480697726338130,0,-5,20,-5,0,-1,1,1
1480697726339632,6,5,-35,4,0,1,0,-6
1480697726339632,-9,-10,-2,-3,-4,-1,-3,22
1480697726368208,12,1,0,-1,2,2,0,3
1480697726368208,-4,0,3,1,3,1,1,-1
1480697726371717,2,1,5,0,-1,-1,-1,-2
1480697726371717,3,6,12,7,4,0,1,-2
1480697726375728,-8,-7,-10,-8,-2,-1,0,-2
1480697726375728,9,1,-9,4,2,1,1,5
1480697726382248,-13,-15,4,-7,-6,-3,-1,0
1480697726382248,-2,-2,-5,0,-1,-1,-1,-6
1480697726398291,-3,12,28,2,2,1,1,0
1480697726398291,1,3,-11,-2,-1,-1,-2,-4
1480697726399792,-4,-17,13,2,1,-3,0,1
1480697726399792,-1,-3,-33,-4,-1,-1,0,-8
1480697726420847,0,-1,28,5,0,1,0,-2
1480697726420847,0,-3,-33,-3,-1,2,0,2
1480697726422352,-1,5,15,0,1,0,-3,0
1480697726422352,-4,-14,3,0,0,0,0,-3
1480697726442406,-2,3,-10,0,-2,0,-1,0
1480697726442406,-3,-7,-10,-3,1,0,0,0
1480697726461455,1,6,28,0,-1,-3,-2,-1
1480697726461455,4,6,-27,3,0,-1,0,-4
1480697726461957,-1,-2,-17,-4,-1,-2,-3,-2
1480697726461957,-5,-4,19,0,2,1,0,0
1480697726481009,1,2,-3,4,-1,-2,0,-1
1480697726481009,2,6,42,2,-1,1,-1,-1
1480697726482014,1,-4,-25,-2,0,0,1,0
1480697726482014,0,-2,-7,-3,0,-1,0,0
1480697726505072,-3,-4,4,0,-2,-2,-2,-2
1480697726505072,1,2,-3,0,0,0,1,-1
1480697726506576,-2,-5,0,-4,-1,0,1,-1
1480697726506576,2,4,5,0,0,-2,-3,-2
1480697726509584,-9,-1,5,2,0,2,1,0
1480697726509584,1,5,-14,-1,-1,-2,1,-4
1480697726518608,-1,-13,5,-1,3,2,0,2
1480697726518608,-2,-7,-8,-1,1,-1,-1,-2
1480697726524624,1,1,2,0,-1,-1,0,0
1480697726524624,1,4,2,1,-2,0,-1,-1
1480697726548187,-4,2,4,1,2,0,0,-2
1480697726548187,-2,0,-11,0,0,-1,-1,-1
1480697726549691,1,6,8,-1,0,-2,-3,-4
1480697726549691,1,-7,-18,-5,-2,-2,0,3
1480697726555206,-2,0,-2,-1,0,-2,0,-2
1480697726555206,-2,-2,-1,1,0,-1,0,0
1480697726561722,1,2,-9,-2,-2,1,-1,-2
1480697726561722,1,4,-1,-2,-2,-1,0,-1
1480697726578267,-1,-4,8,2,2,0,1,0
1480697726578267,-9,2,12,2,-1,0,-1,-5
1480697726579772,2,0,-15,-1,-1,-1,1,3
1480697726579772,0,-3,-3,-1,1,0,1,0
1480697726601327,-11,-5,1,-1,-3,-4,-2,-5
1480697726601327,6,-2,2,-2,-1,0,1,5
1480697726602832,-1,2,-3,0,1,0,0,-7
1480697726602832,1,1,8,1,0,-3,0,2
1480697726614864,1,4,-21,-1,-3,-1,-2,-3
1480697726614864,0,1,4,0,1,-3,-1,0
1480697726621883,3,1,5,1,0,-1,1,3
1480697726621883,-6,-6,0,-3,0,1,-2,-15
1480697726638429,9,2,1,-1,-2,1,1,3
1480697726638429,3,0,17,0,-1,0,-1,0
1480697726639931,-4,-2,-44,-1,2,1,0,0
1480697726639931,4,-6,14,0,0,0,0,2
1480697726660485,-2,-2,-3,-2,-2,-2,-2,0
1480697726660485,-3,2,4,-1,-1,0,1,-3
1480697726667002,4,1,6,-2,1,-1,-1,4
1480697726667002,-2,-2,-5,-2,0,0,-2,0
1480697726674523,-3,-4,-3,1,1,0,-2,-3
1480697726674523,1,2,11,1,1,-1,1,3
1480697726706608,-3,3,-7,1,-1,-1,0,-2
1480697726706608,-7,-9,11,-3,0,-1,0,-1
1480697726707611,-2,2,-16,-2,-1,-1,-1,-2
1480697726707611,1,-1,4,0,0,0,0,-3
1480697726729669,4,0,9,-1,-4,0,-1,1
1480697726729669,0,7,23,3,1,-1,-1,-1
1480697726730672,-2,-9,-63,-8,-3,-4,-2,1
1480697726730672,-1,-4,3,1,-1,-1,0,-1
1480697726735184,-1,-2,9,1,1,0,-1,-4
1480697726735184,0,3,-7,0,0,-1,2,4
1480697726735685,0,-3,15,3,3,0,2,-1
1480697726735685,-2,1,-9,0,0,-1,-1,0
1480697726759248,-4,-6,-2,-2,-2,-1,0,-2
1480697726759248,2,-2,-1,1,0,0,-1,-2
1480697726760251,0,5,13,-1,-3,-1,-1,2
1480697726760251,-4,-4,-7,-2,0,0,-1,-3
1480697726771781,-2,0,5,-2,-2,0,-1,1
1480697726771781,-1,0,-8,-1,2,0,-2,0
1480697726794843,-1,-1,-6,-1,0,0,1,1
1480697726794843,3,6,12,-1,-1,-1,-2,-2
1480697726806374,-19,-19,-10,-1,1,-1,-1,2
1480697726806374,4,2,0,-2,-2,0,1,-10
1480697726808380,0,2,2,0,-2,0,-3,13
1480697726808380,-1,-1,-9,0,1,-1,0,0
1480697726818907,2,5,-10,-5,-1,-1,-2,0
1480697726818907,-3,0,-2,0,-1,-2,-2,-2
1480697726819909,0,3,15,2,1,-1,1,-4
1480697726819909,-2,-4,1,-2,-1,0,0,1
1480697726821413,-3,3,-1,0,-1,-1,1,-2
1480697726821413,8,3,7,3,-1,-1,0,5
1480697726841467,1,-2,8,-1,-1,-2,-3,-4
1480697726841467,1,-4,-7,-2,-3,-1,0,2
1480697726842971,1,-1,2,-4,-2,-2,-1,-3
1480697726842971,-6,-15,-6,1,-1,1,-2,0
1480697726854503,-3,4,19,3,3,1,1,-2
1480697726854503,-2,2,-13,-1,-1,1,-2,-2
1480697726864528,0,-4,6,-1,0,-2,-2,0
1480697726864528,-2,-4,-10,-3,-2,-1,-2,2
1480697726878064,4,-2,0,-1,0,0,-1,-1
1480697726878064,-1,-2,8,0,-3,-1,-1,-1
1480697726880069,5,5,-5,-1,-2,0,1,-2
1480697726880069,-5,-1,-5,-1,-2,-1,-1,-2
1480697726900624,-1,2,9,1,-1,0,1,0
1480697726900624,1,2,-1,0,0,0,-1,0
1480697726902131,0,-1,-1,0,-1,-1,0,11
1480697726902131,2,3,-6,-2,-1,-3,-4,-14
1480697726914662,10,-1,-1,-1,0,0,-1,-3
1480697726914662,-4,-2,5,-2,1,-1,3,-6
1480697726924186,6,-1,-14,-2,-2,-1,-1,-2
1480697726924186,1,2,3,1,0,2,2,5
1480697726939227,7,1,6,3,-1,0,0,2
1480697726939227,-3,-6,-12,-3,-1,-1,-1,2
1480697726941233,-2,-1,7,-3,-2,-2,-2,-6
1480697726941233,1,2,0,-2,-2,0,-1,2
1480697726960784,-8,1,0,-1,-2,0,-2,-5
1480697726960784,5,1,10,4,1,0,1,4
1480697726962288,-1,-15,-7,1,-1,-1,0,0
1480697726962288,-5,-4,-2,1,-2,-1,0,2
1480697726974319,-3,-2,-2,-2,-2,-1,0,2
1480697726974319,-3,3,5,0,-1,-2,-2,-2
1480697726999386,-1,-3,-8,-2,-1,1,-1,-3
1480697726999386,4,0,0,0,1,-2,0,-1
1480697727000890,-8,-1,-7,-1,-2,-1,0,1
1480697727000890,0,-2,-5,-2,0,-1,0,-1
1480697727001893,1,8,9,4,2,2,0,-1
1480697727001893,3,5,3,1,0,-1,-1,3
1480697727027465,-6,-4,-27,-5,-2,-3,-2,-3
1480697727027465,10,-3,2,1,-1,-1,-3,-3
1480697727036485,-2,3,10,2,-1,0,0,0
1480697727036485,22,1,2,-1,-2,-1,1,14
1480697727037488,-34,-3,8,1,3,-1,-1,-5
1480697727037488,-3,3,-6,-1,-2,-1,0,1
1480697727051023,2,5,-5,1,-1,-4,-2,9
1480697727051023,6,-2,-7,-2,1,0,1,-4
1480697727058043,8,0,6,-1,-2,0,0,12
1480697727058043,1,-3,-2,-2,-2,1,-2,0
1480697727060047,0,-1,2,-2,1,-1,-1,1
1480697727060047,-15,4,-3,-2,-1,-1,-3,-7
1480697727080602,9,4,0,-1,1,-1,0,-5
1480697727080602,-9,2,6,0,-1,1,1,-4
1480697727082108,6,11,8,-1,-1,-1,2,-4
1480697727082108,-2,-1,-13,1,0,0,-2,0
1480697727094641,3,-1,2,-2,1,-2,-2,-6
1480697727094641,4,3,0,-1,-1,0,-1,10
1480697727103163,-9,-7,-10,-2,-1,1,0,-9
1480697727103163,-4,-5,3,0,-1,0,0,0
1480697727118704,3,1,18,1,-1,1,1,5
1480697727118704,3,-8,-9,-1,0,-2,-1,-5
1480697727124218,-3,-3,-3,-2,1,-1,1,9
1480697727124218,16,1,11,2,0,-1,-2,-20
1480697727140762,-20,-7,5,1,-1,-1,-1,0
1480697727140762,1,-2,-8,-1,-2,-1,-3,-3
1480697727142267,-5,1,3,0,2,3,0,-8
1480697727142267,10,3,-15,-2,-1,-2,1,9
1480697727163322,-19,-8,0,-2,-2,-1,-3,-5
1480697727163322,-1,1,0,-1,2,0,-1,-1
1480697727164830,-5,1,-2,1,-2,-2,0,0
1480697727164830,-14,-3,5,-3,-2,0,-2,-3
1480697727178370,12,9,-9,-1,-1,0,-1,0
1480697727178370,-3,-4,3,-3,-3,-1,-2,1
1480697727179867,6,-3,-2,0,0,2,0,3
1480697727179867,-19,-3,0,-1,-1,-2,0,0
1480697727200421,8,3,-1,-1,0,0,-1,-2
1480697727200421,3,-13,-4,0,-1,-1,0,2
1480697727208445,5,6,3,-1,-1,-1,-3,-4
1480697727208445,-4,-2,-4,0,0,1,-1,3
1480697727237520,5,-1,1,-1,-1,-3,0,3
1480697727237520,-6,-2,0,-1,1,-2,1,-2
1480697727248048,-3,-10,3,-1,0,0,-1,-6
1480697727248048,-5,4,2,0,1,-1,0,3
1480697727249053,6,-2,-5,-1,-1,-2,-1,3
1480697727249053,-3,7,1,0,-1,-1,1,5
1480697727268100,3,1,-3,1,-1,-2,0,-1
1480697727268100,7,-1,-2,-1,-1,0,-1,0
1480697727268602,22,-3,-25,-1,0,1,1,16
1480697727268602,-31,-1,1,-1,0,1,-2,-15
1480697727293167,-4,2,3,1,1,1,1,-13
1480697727293167,-14,-1,3,0,-1,0,1,8
1480697727293669,3,-2,4,0,-1,-2,-1,-6
1480697727293669,8,-1,-5,0,-1,-1,-3,1
1480697727306202,-6,-5,-3,0,-3,-1,-1,3
1480697727306202,-4,-1,3,-1,0,0,-1,-5
1480697727307206,-5,-3,8,0,-3,2,0,-6
1480697727307206,3,2,-4,-1,-1,1,0,-4
1480697727311717,-1,-1,4,-1,0,-2,0,0
1480697727311717,9,3,8,-1,-1,-1,1,5
1480697727328261,-4,-5,-9,-1,2,-1,-1,-7
1480697727328261,4,-5,4,0,-1,0,1,4
1480697727335781,3,-1,-5,-1,-2,-1,0,-3
1480697727335781,1,-18,-9,0,0,0,-1,10
1480697727350322,-4,-2,9,-1,-2,-1,0,-3
1480697727350322,1,1,-3,1,0,-2,1,1
1480697727364865,-5,0,-13,-4,-3,-3,-4,10
1480697727364865,2,-4,1,-1,0,-2,-4,-36
1480697727373387,-1,2,15,1,2,0,-1,2
1480697727373387,4,1,-24,0,0,-1,0,7
1480697727374891,-4,-6,-2,1,-1,-1,2,0
1480697727374891,-1,1,-7,-1,-1,0,-1,7
1480697727395945,5,4,2,2,1,2,1,-2
1480697727395945,10,5,20,0,1,-1,-2,1
1480697727402463,5,-2,-1,1,-1,0,-2,-5
1480697727402463,-7,4,-5,-2,-1,0,0,4
1480697727417504,0,2,-3,-2,-2,1,-1,-6
1480697727417504,-9,-1,8,2,0,-2,2,3
1480697727435552,9,-2,-10,0,0,-1,-3,2
1480697727435552,1,0,9,-1,1,0,0,3
1480697727436053,-1,1,10,2,-1,-1,0,3
1480697727436053,-11,2,-10,0,-1,0,-3,-14
1480697727441067,-1,0,17,-3,-2,-2,-1,3
1480697727441067,4,-1,-14,0,1,0,-1,-2
1480697727442070,-1,2,-5,-5,-2,-3,-2,-3
1480697727442070,-4,1,14,1,0,2,0,0
1480697727447082,4,4,4,1,-1,1,0,1
1480697727447082,-5,1,-2,-1,-1,0,-1,3
1480697727464634,1,-3,-1,-2,1,0,0,-6
1480697727464634,6,-17,-10,-3,-2,0,0,14
1480697727466635,-5,1,-9,-3,-1,-2,-3,-18
1480697727466635,-5,2,1,1,0,-2,-2,3
1480697727478164,4,2,-2,2,0,0,2,2
1480697727478164,1,-2,-2,-1,-2,-1,-2,-5
1480697727487189,-7,-2,-4,-1,0,0,0,4
1480697727487189,1,3,7,1,-1,0,-1,-3
1480697727500725,2,4,-2,-1,0,-2,-1,-4
1480697727500725,-9,2,-2,-2,-1,-1,0,3
1480697727502229,7,4,0,1,0,0,1,3
1480697727502229,-1,1,2,1,-2,-2,1,-2
1480697727523284,-5,-3,-5,-1,-1,0,-1,4
1480697727523284,2,-1,-3,-1,0,-1,-2,-2
1480697727529300,-5,-5,2,1,1,3,1,1
1480697727529300,-6,-5,3,-2,-1,0,0,-1
1480697727537823,-8,-6,-10,-2,0,0,0,0
1480697727537823,4,6,11,2,0,-1,-2,-5
1480697727544341,14,-1,-5,0,0,-1,0,0
1480697727544341,-17,-2,-4,0,-3,0,2,6
1480697727567903,1,-8,0,-2,0,0,-1,-5
1480697727567903,2,6,2,0,-1,-1,1,-1
1480697727585451,1,2,5,-1,-1,-1,0,3
1480697727585451,4,1,-5,1,0,-1,-1,-7
1480697727586453,-1,-2,3,-1,-1,1,-1,5
1480697727586453,12,1,-6,-2,-1,0,-2,-13
1480697727590964,-27,-7,5,-2,-3,-1,-1,2
1480697727590964,0,4,-6,0,0,0,1,5
1480697727605003,6,5,10,1,1,-2,0,-13
1480697727605003,3,-5,-22,-4,-1,-1,-1,3
1480697727613526,1,7,3,1,0,-1,-1,1
1480697727613526,2,-3,1,-1,-1,-1,-1,-1
1480697727621045,-2,2,13,0,-1,0,-1,2
1480697727621045,-4,-3,-8,1,1,0,-1,3
1480697727634581,-2,-7,5,-4,-2,0,-1,-10
1480697727634581,0,2,-6,0,1,0,-1,8
1480697727643606,0,2,3,-2,-1,-3,-4,1
1480697727643606,0,0,-1,0,0,1,0,-4
1480697727649621,-3,6,-7,0,0,1,-1,3
1480697727649621,13,2,4,-3,-1,-1,0,-4
1480697727657141,-5,2,-5,-2,-1,1,2,0
1480697727657141,-1,4,6,-1,0,-2,1,4
1480697727665663,0,-4,-6,-2,0,1,0,0
1480697727665663,0,0,3,-2,-3,-1,0,-1
1480697727680704,-2,-2,-9,1,-1,-1,0,2
1480697727680704,-2,17,6,-1,-1,-1,0,-2
1480697727686720,2,-1,-5,0,0,-1,1,1
1480697727686720,0,2,10,1,0,-1,-2,0
1480697727703263,0,-3,-4,0,0,2,0,8
1480697727703263,11,-8,5,-1,-1,-2,-3,-6
1480697727710783,-10,0,-2,1,0,0,-1,0
1480697727710783,-3,-1,-4,0,0,-1,1,-1
1480697727716800,-3,1,3,0,-3,-2,-1,-1
1480697727716800,2,-2,-9,0,-1,1,0,4
1480697727742869,3,-5,-7,-3,0,-1,0,-1
1480697727742869,-3,-7,3,-2,1,1,0,-3
1480697727743871,13,4,-4,-1,0,-2,-2,-6
1480697727743871,-9,1,8,1,0,0,1,-2
1480697727746879,0,0,8,-1,-2,-1,0,0
1480697727746879,4,-1,-4,1,1,0,-2,-1
1480697727763423,-4,0,-1,-1,0,0,1,-4
1480697727763423,2,-1,5,-1,-1,-1,1,3
1480697727766933,0,-1,-4,1,1,0,2,-1
1480697727766933,-2,0,0,0,0,-1,-1,0
1480697727786485,-5,-7,-6,1,-1,0,-1,0
1480697727786485,-5,-1,-4,0,-1,0,1,-1
1480697727787990,4,1,3,0,-2,0,-1,0
1480697727787990,2,-4,-17,-2,0,-1,-2,0
1480697727808544,-9,1,7,0,-1,-1,1,2
1480697727808544,5,-3,-6,-2,-2,-3,0,0
1480697727823083,2,-1,5,-1,-1,-2,0,14
1480697727823083,0,-16,-3,-2,-1,2,-1,-27
1480697727839125,3,2,-1,1,-1,-2,0,3
1480697727839125,-1,-7,3,-1,1,1,-1,6
1480697727840629,-6,-7,-6,0,-1,0,-1,2
1480697727840629,-1,-1,5,0,-2,0,0,2
1480697727841130,8,-2,-6,-2,-1,0,-1,-1
1480697727841130,-7,-4,6,1,-1,-1,0,-6
1480697727868704,4,0,-4,0,-1,-3,-3,4
1480697727868704,0,4,2,-1,-2,-1,0,7
1480697727875723,-2,-3,-1,-2,-1,0,-2,-4
1480697727875723,-1,4,-1,0,0,-2,0,3
1480697727900290,-2,-1,-3,-1,0,0,0,-9
1480697727900290,1,10,3,1,-2,-1,-2,2
1480697727901291,-2,4,-3,-1,1,-1,-2,4
1480697727901291,4,-5,1,0,-1,0,-2,-3
1480697727905300,-2,-4,-2,-1,0,-1,0,-4
1480697727905300,-3,-3,5,1,-1,1,2,4
1480697727906303,0,0,-4,-1,-2,-1,-1,-3
1480697727906303,4,-2,-5,-2,0,-1,-3,-1
1480697727922849,-17,1,0,1,-1,-1,0,-8
1480697727922849,8,7,1,0,-3,-2,-1,3
1480697727923850,-7,-3,10,1,0,1,0,1
1480697727923850,-3,-3,-4,-3,-3,-1,0,2
1480697727934378,4,-5,7,-3,0,-1,-2,-11
1480697727934378,6,-4,-26,-3,-1,-2,-1,-1
1480697727943904,4,19,3,1,0,3,3,7
1480697727943904,0,5,13,0,0,0,-1,-7
1480697727945407,0,3,-1,-1,1,-2,-3,0
1480697727945407,17,-5,-2,-1,0,0,-1,-1
1480697727966463,0,-6,-2,-4,-2,-3,0,-6
1480697727966463,-4,0,-9,-1,-2,2,2,5
1480697727967968,5,6,-5,0,-3,-1,1,4
1480697727967968,-10,-2,6,1,-1,-2,2,4
1480697727981002,4,-6,-4,1,-1,-2,0,-12
1480697727981002,-9,-10,4,0,-1,0,2,-3
1480697727982509,1,-4,-5,-1,-1,-2,-1,-2
1480697727982509,-8,3,12,-1,-1,-1,0,6
1480697728004064,-5,-2,-11,-1,-1,0,-1,0
1480697728004064,4,4,1,-1,0,0,-2,-2
1480697728005568,9,4,-2,0,-2,-1,0,2
1480697728005568,-7,-1,4,1,0,0,1,-3
1480697728017098,0,-5,-4,-2,0,-1,0,0
1480697728017098,-1,-2,-3,-2,0,-1,-2,-1
1480697728026122,1,0,-2,1,0,-1,0,2
1480697728026122,1,0,0,0,2,0,-2,-2
1480697728041162,-11,-1,0,0,-2,-1,-2,1
1480697728041162,2,-7,-1,1,-1,0,1,7
1480697728046676,3,10,3,-2,1,-1,1,-3
1480697728046676,-4,-2,-1,-1,0,1,-2,3
1480697728070741,4,-2,-8,0,0,-1,-1,-3
1480697728070741,-3,-6,1,-1,-1,-2,-1,4
1480697728072244,0,-3,-4,1,0,1,-1,-2
1480697728072244,-5,-2,0,1,0,0,-1,-4
1480697728084778,1,3,3,1,0,1,-1,4
1480697728084778,-1,6,6,-1,-1,0,0,6
1480697728093301,4,-6,-7,-1,2,0,-4,-17
1480697728093301,-7,-2,1,-1,-1,-3,0,0
1480697728122879,-1,-2,4,0,-1,-2,-2,-2
1480697728122879,-1,-1,-1,2,0,0,2,-1
1480697728140426,2,1,5,1,1,2,-1,3
1480697728140426,2,-3,-1,-1,0,1,0,-3
1480697728141429,1,3,-2,-2,0,0,0,-2
1480697728141429,-6,-3,-4,-2,-1,-1,-3,-5
1480697728146442,-9,-4,-1,1,2,1,0,0
1480697728146442,2,1,-1,-3,-1,-1,0,2
1480697728147445,-1,-5,-2,-2,0,-1,-1,1
1480697728147445,1,-11,0,-1,0,-2,0,-3
1480697728148949,-2,3,-1,1,1,1,0,0
1480697728148949,-1,-2,-1,-2,-1,-2,-3,-2
1480697728177023,2,-5,5,0,-3,0,2,0
1480697728177023,-1,-4,-15,-1,-1,-1,-2,-6
1480697728180533,2,-3,1,0,-3,-3,1,8
1480697728180533,1,0,1,0,0,0,1,-3
1480697728190058,1,2,-1,0,0,1,0,-1
1480697728190058,-1,0,8,0,1,0,0,-3
1480697728198582,-1,-4,-9,-3,-1,-1,0,0
1480697728198582,1,4,2,0,0,1,1,4
1480697728205599,0,-5,1,1,0,-2,-3,-6
1480697728205599,2,5,4,2,-1,1,-1,1
1480697728212117,0,1,-1,-2,-2,-1,0,-3
1480697728212117,-3,-7,1,-1,-1,-1,2,4
1480697728220142,-4,0,-1,-3,-2,-1,-2,-3
1480697728220142,-2,4,-1,-2,0,-1,-1,-2
1480697728227156,3,-2,3,0,0,-1,2,15
1480697728227156,-4,3,-4,-1,-1,-1,-4,-17
1480697728242197,2,-6,2,1,0,0,1,5
1480697728242197,-1,1,-3,-1,-2,-1,-2,-3
1480697728250719,-3,15,8,0,0,-1,-2,7
1480697728250719,-2,1,1,0,-1,-1,-1,1
1480697728265760,5,-2,-4,-2,0,-2,-4,-2
1480697728265760,-14,-5,-1,-1,-2,-2,0,-4
1480697728267265,6,-6,-1,1,-1,0,-3,1
1480697728267265,-10,2,1,1,-1,-1,-2,-4
1480697728288821,-1,7,-3,-1,-2,-1,0,0
1480697728288821,8,2,-1,-1,0,-2,0,1
1480697728292329,-5,-3,1,0,-1,-1,0,-9
1480697728292329,0,-10,5,0,0,2,3,0
1480697728304362,5,-2,-9,-1,-2,0,2,5
1480697728304362,-6,0,4,-1,0,-2,-1,-3
1480697728307872,3,1,-2,0,-2,-2,-1,-4
1480697728307872,3,5,-2,0,-1,0,-1,3
1480697728328927,-2,0,10,-1,2,-1,1,-2
1480697728328927,-4,0,-3,-2,-1,0,0,-4
1480697728329428,1,-5,-1,-1,0,2,-1,-3
1480697728329428,2,3,-13,-2,2,-1,0,3
1480697728340458,-7,-4,8,0,-1,-1,-1,-2
1480697728340458,1,2,1,0,-1,0,-1,1
1480697728354495,-4,-6,9,1,0,-1,1,0
1480697728354495,0,-6,-9,-2,-2,-2,-1,-4
1480697728362517,4,0,-3,-1,-2,-1,2,6
1480697728362517,2,-4,0,1,1,0,-2,-14
1480697728372042,-3,-2,1,-2,-2,0,0,-13
1480697728372042,-1,-1,2,-1,0,0,-1,13
1480697728394100,5,0,-4,-1,-2,1,1,-1
1480697728394100,3,-3,-5,-1,-1,-1,2,8
1480697728394601,-2,-3,-3,-1,0,-1,-2,-6
1480697728394601,-1,-1,2,0,-2,-1,-1,-3
1480697728399615,-3,2,-3,-1,0,0,-1,1
1480697728399615,1,3,-2,0,0,1,-1,-4
1480697728415159,14,3,-2,0,-2,-1,-1,8
1480697728415159,3,7,10,-1,-1,0,-1,5
1480697728423177,-3,-4,-18,-1,0,1,-3,0
