timestamp,x,y,z,w
1480697712426134,-0.421692,-0.324463,0.617615,0.579224
1480697712447190,-0.421631,-0.324463,0.617615,0.579224
1480697712465739,-0.421631,-0.324463,0.617615,0.579224
1480697712494816,-0.421631,-0.324463,0.617615,0.579224
1480697712510358,-0.421631,-0.324463,0.617615,0.579224
1480697712540437,-0.421692,-0.324463,0.617615,0.579224
1480697712562496,-0.421692,-0.324463,0.617554,0.579163
1480697712574527,-0.421692,-0.324463,0.617554,0.579163
1480697712585059,-0.421692,-0.324524,0.617554,0.579163
1480697712606112,-0.421753,-0.324524,0.617554,0.579163
1480697712645719,-0.421753,-0.324524,0.617554,0.579163
1480697712649728,-0.421692,-0.324707,0.617615,0.579041
1480697712672288,-0.421509,-0.324829,0.617676,0.579041
1480697712686827,-0.421509,-0.324829,0.617676,0.579041
1480697712704876,-0.421509,-0.324829,0.617676,0.579041
1480697712725930,-0.421509,-0.324829,0.617676,0.579041
1480697712747990,-0.421509,-0.324829,0.617676,0.579041
1480697712771052,-0.421509,-0.324829,0.617676,0.579041
1480697712818180,-0.421509,-0.324829,0.617676,0.579041
1480697712839733,-0.421509,-0.324829,0.617676,0.579041
1480697712842242,-0.421509,-0.324829,0.617676,0.579041
1480697712863296,-0.421509,-0.324829,0.617676,0.579041
1480697712886357,-0.421509,-0.324829,0.617676,0.579041
1480697712906411,-0.421509,-0.324829,0.617676,0.579041
1480697712908919,-0.421509,-0.324829,0.617676,0.578979
1480697712926967,-0.421448,-0.324707,0.617798,0.579041
1480697712949525,-0.421448,-0.324707,0.617798,0.578979
1480697712967573,-0.421448,-0.324707,0.617798,0.578979
1480697712988128,-0.421448,-0.324768,0.617798,0.578979
1480697713005173,-0.421448,-0.324768,0.617798,0.578979
1480697713027232,-0.421448,-0.324768,0.617798,0.578979
1480697713047787,-0.421448,-0.324768,0.617798,0.579041
1480697713075862,-0.421448,-0.324768,0.617798,0.579041
1480697713094912,-0.421448,-0.324768,0.617798,0.579041
1480697713117472,-0.421448,-0.324768,0.617737,0.579041
1480697713132512,-0.421387,-0.324768,0.617737,0.579041
1480697713148053,-0.421448,-0.324829,0.617737,0.579041
1480697713170112,-0.421448,-0.324829,0.617737,0.579041
1480697713185655,-0.421448,-0.324829,0.617737,0.579041
1480697713210720,-0.421448,-0.324829,0.617737,0.579041
1480697713227264,-0.42157,-0.32489,0.617676,0.578918
1480697713244810,-0.42157,-0.324951,0.617676,0.578918
1480697713267371,-0.42157,-0.324951,0.617676,0.578918
1480697713304470,-0.421631,-0.324951,0.617676,0.578918
1480697713317003,-0.421875,-0.325012,0.617554,0.578735
1480697713327530,-0.422119,-0.325134,0.617432,0.578674
1480697713347082,-0.42218,-0.325073,0.617371,0.578735
1480697713372650,-0.42218,-0.325012,0.617371,0.578735
1480697713395211,-0.422119,-0.325012,0.617371,0.578735
1480697713417272,-0.422119,-0.325012,0.617432,0.578735
1480697713429301,-0.422119,-0.325012,0.617371,0.578735
1480697713454869,-0.422119,-0.325012,0.617371,0.578735
1480697713491467,-0.42218,-0.325378,0.617249,0.578674
1480697713493973,-0.421936,-0.325684,0.617065,0.578918
1480697713513024,-0.421692,-0.325623,0.617004,0.579163
1480697713536085,-0.421692,-0.325684,0.616943,0.579163
1480697713545109,-0.421997,-0.325928,0.616699,0.579041
1480697713568186,-0.422302,-0.32605,0.616577,0.578918
1480697713588725,-0.422363,-0.325989,0.616516,0.578979
1480697713604769,-0.422302,-0.325989,0.616455,0.579102
1480697713628330,-0.422302,-0.325989,0.616455,0.579163
1480697713671445,-0.422241,-0.325989,0.616455,0.579163
1480697713673952,-0.422485,-0.325989,0.616333,0.579102
1480697713692000,-0.422852,-0.325989,0.616211,0.578979
1480697713717570,-0.422852,-0.325989,0.616211,0.578979
1480697713737621,-0.422729,-0.325928,0.61615,0.579102
1480697713754672,-0.422485,-0.325806,0.616211,0.579346
1480697713769706,-0.422546,-0.325806,0.616211,0.579346
1480697713792266,-0.422546,-0.325806,0.616211,0.579285
1480697713813824,-0.422546,-0.325806,0.61615,0.579285
1480697713829867,-0.422607,-0.325806,0.61615,0.579285
1480697713844906,-0.422607,-0.325806,0.61615,0.579285
1480697713871978,-0.422607,-0.325806,0.61615,0.579285
1480697713890026,-0.422607,-0.325806,0.616211,0.579285
1480697713915093,-0.422485,-0.325623,0.616272,0.579346
1480697713927626,-0.422302,-0.325378,0.616455,0.579468
1480697713963221,-0.422302,-0.325378,0.616455,0.579468
1480697713971744,-0.422241,-0.325378,0.616455,0.579468
1480697713994805,-0.422241,-0.325378,0.616455,0.579468
1480697714024384,-0.422241,-0.325378,0.616455,0.579468
1480697714030400,-0.422424,-0.3255,0.616455,0.579285
1480697714048448,-0.422607,-0.325623,0.616394,0.579102
1480697714070507,-0.422607,-0.325623,0.616394,0.579102
1480697714097579,-0.422607,-0.325623,0.616394,0.579102
1480697714107105,-0.422607,-0.325623,0.616394,0.579102
1480697714129162,-0.422913,-0.325806,0.616333,0.578857
1480697714150219,-0.423279,-0.325806,0.616333,0.578674
1480697714166763,-0.423279,-0.325806,0.616272,0.578613
1480697714195840,-0.42334,-0.325806,0.616272,0.578613
1480697714249482,-0.42334,-0.325806,0.616272,0.578613
1480697714251989,-0.42334,-0.325806,0.616333,0.578613
1480697714258005,-0.423279,-0.325806,0.616333,0.578613
1480697714278559,-0.42334,-0.325806,0.616333,0.578613
1480697714300117,-0.42334,-0.325806,0.616333,0.578613
1480697714323178,-0.423279,-0.325806,0.616333,0.578613
1480697714330196,-0.42334,-0.325806,0.616333,0.578613
1480697714347242,-0.42334,-0.325806,0.616333,0.578613
1480697714384842,-0.42334,-0.325806,0.616333,0.578613
1480697714390356,-0.423157,-0.325684,0.616394,0.578674
1480697714406400,-0.422791,-0.325439,0.616577,0.578918
1480697714430964,-0.422485,-0.325134,0.616882,0.578979
1480697714451021,-0.422363,-0.325195,0.617065,0.578857
1480697714466559,-0.422363,-0.325317,0.617188,0.578674
1480697714504661,-0.422363,-0.325317,0.617126,0.578674
1480697714534243,-0.422302,-0.325317,0.617249,0.578674
1480697714557301,-0.422302,-0.325317,0.617188,0.578674
1480697714559807,-0.422302,-0.325317,0.617188,0.578674
1480697714579862,-0.422302,-0.325317,0.617188,0.578674
1480697714586879,-0.422302,-0.325256,0.617249,0.578674
1480697714614954,-0.422241,-0.325317,0.617249,0.578674
1480697714637514,-0.422302,-0.325439,0.617188,0.578613
1480697714656566,-0.422302,-0.325439,0.617188,0.578613
1480697714669098,-0.422241,-0.325317,0.617188,0.578674
1480697714690154,-0.422302,-0.325256,0.617249,0.578674
1480697714706698,-0.422302,-0.325256,0.617249,0.578674
1480697714729258,-0.422424,-0.3255,0.617126,0.578552
1480697714751319,-0.422485,-0.3255,0.617126,0.578552
1480697714781898,-0.422485,-0.3255,0.617126,0.578552
1480697714813984,-0.422485,-0.3255,0.617126,0.578552
1480697714817997,-0.422485,-0.3255,0.617126,0.578552
1480697714834038,-0.422485,-0.3255,0.617065,0.578552
1480697714856596,-0.422485,-0.3255,0.617126,0.578552
1480697714887178,-0.422485,-0.3255,0.617126,0.578552
1480697714889685,-0.422485,-0.3255,0.617126,0.578552
1480697714922772,-0.422485,-0.3255,0.617126,0.578552
1480697714939318,-0.422485,-0.3255,0.617126,0.578552
1480697714945834,-0.422424,-0.3255,0.617126,0.578552
1480697714968898,-0.422485,-0.325439,0.617126,0.578552
1480697714991455,-0.422485,-0.3255,0.617126,0.578552
1480697715006996,-0.422485,-0.3255,0.617126,0.578552
1480697715036575,-0.422485,-0.3255,0.617126,0.578552
1480697715081695,-0.422546,-0.3255,0.617126,0.578552
1480697715091220,-0.422546,-0.3255,0.617065,0.578491
1480697715103252,-0.422546,-0.3255,0.617065,0.578491
1480697715111775,-0.422607,-0.3255,0.617065,0.578491
1480697715157399,-0.422607,-0.3255,0.617065,0.578491
1480697715159903,-0.422791,-0.325623,0.617004,0.578308
1480697715173942,-0.422791,-0.325623,0.617004,0.578369
1480697715192489,-0.422424,-0.3255,0.617249,0.57843
1480697715209035,-0.421692,-0.32489,0.617859,0.578613
1480697715231594,-0.420837,-0.324341,0.61853,0.578857
1480697715246133,-0.420105,-0.324158,0.619019,0.578979
1480697715269193,-0.419739,-0.324341,0.619202,0.578918
1480697715291754,-0.419495,-0.324646,0.619263,0.578857
1480697715312810,-0.419495,-0.324707,0.619263,0.578857
1480697715336874,-0.419556,-0.324768,0.619263,0.578796
1480697715366453,-0.419983,-0.32489,0.618958,0.578674
1480697715373972,-0.420593,-0.325134,0.618591,0.578491
1480697715389012,-0.421265,-0.3255,0.618164,0.578308
1480697715426612,-0.42157,-0.325562,0.61792,0.578308
1480697715434134,-0.421387,-0.325378,0.617859,0.578674
1480697715456694,-0.420898,-0.325195,0.617859,0.579041
1480697715471732,-0.420349,-0.325073,0.617981,0.579407
1480697715493791,-0.419922,-0.325256,0.618042,0.57959
1480697715516854,-0.419434,-0.325378,0.618164,0.579712
1480697715531391,-0.419006,-0.325439,0.618286,0.579895
1480697715553951,-0.418701,-0.325378,0.618347,0.580017
1480697715568991,-0.418762,-0.325439,0.618286,0.580017
1480697715591551,-0.419067,-0.325562,0.618103,0.579895
1480697715620628,-0.419373,-0.325623,0.61792,0.579895
1480697715665748,-0.419617,-0.325562,0.617737,0.579895
1480697715683797,-0.419861,-0.325562,0.617615,0.579895
1480697715689812,-0.419861,-0.325562,0.617615,0.579895
1480697715692320,-0.419861,-0.325562,0.617615,0.579834
1480697715712873,-0.419861,-0.325562,0.617615,0.579834
1480697715734933,-0.419861,-0.325562,0.617615,0.579834
1480697715756489,-0.419861,-0.325562,0.617615,0.579834
1480697715780052,-0.419922,-0.325562,0.617615,0.579834
1480697715794089,-0.419922,-0.3255,0.617676,0.579834
1480697715815145,-0.420044,-0.325684,0.617554,0.579712
1480697715832191,-0.419983,-0.325684,0.617554,0.579712
1480697715853748,-0.419983,-0.325684,0.617554,0.579712
1480697715922431,-0.420044,-0.325989,0.617493,0.579651
1480697715944490,-0.420288,-0.326294,0.617371,0.579468
1480697715946997,-0.420349,-0.32666,0.617188,0.579346
1480697715960532,-0.420349,-0.326721,0.617188,0.579346
1480697715980084,-0.420349,-0.326721,0.617188,0.579346
1480697715988608,-0.42041,-0.326721,0.617126,0.579346
1480697716019188,-0.42041,-0.326721,0.617126,0.579346
1480697716034228,-0.42041,-0.326721,0.617188,0.579285
1480697716048265,-0.42041,-0.326721,0.617188,0.579285
1480697716071828,-0.42041,-0.326721,0.617188,0.579285
1480697716093887,-0.420227,-0.326538,0.617249,0.579407
1480697716110932,-0.420044,-0.326416,0.617371,0.579529
1480697716133996,-0.420044,-0.326416,0.617371,0.579529
1480697716200671,-0.420044,-0.326416,0.617371,0.579529
1480697716206185,-0.420044,-0.326416,0.617371,0.579529
1480697716223231,-0.4198,-0.326416,0.617249,0.579773
1480697716244287,-0.4198,-0.326416,0.617249,0.579834
1480697716251812,-0.4198,-0.326416,0.61731,0.579773
1480697716280383,-0.4198,-0.326416,0.61731,0.579773
1480697716295422,-0.419861,-0.326416,0.61731,0.579773
1480697716311465,-0.419861,-0.326416,0.617249,0.579773
1480697716334028,-0.419861,-0.326416,0.617249,0.579773
1480697716355081,-0.419983,-0.326538,0.617249,0.57959
1480697716371627,-0.419983,-0.326538,0.617249,0.57959
1480697716394185,-0.4198,-0.326355,0.617371,0.579712
1480697716416746,-0.419739,-0.326355,0.617371,0.579773
1480697716469887,-0.419739,-0.326355,0.617371,0.579773
1480697716471892,-0.419739,-0.326355,0.617371,0.579773
1480697716478911,-0.4198,-0.326355,0.617371,0.579712
1480697716498964,-0.4198,-0.326355,0.617371,0.579712
1480697716520020,-0.4198,-0.326355,0.617371,0.579712
1480697716535062,-0.4198,-0.326355,0.617371,0.579712
1480697716551604,-0.4198,-0.326355,0.617371,0.579712
1480697716574164,-0.419861,-0.326416,0.617371,0.579712
1480697716602740,-0.419861,-0.326416,0.617371,0.579712
1480697716611764,-0.419861,-0.326416,0.617371,0.579651
1480697716634328,-0.419861,-0.326416,0.617371,0.579712
1480697716655384,-0.419861,-0.326355,0.617371,0.579651
1480697716671423,-0.419922,-0.326355,0.617371,0.579651
1480697716693983,-0.419861,-0.326355,0.617371,0.579651
1480697716755145,-0.419861,-0.326355,0.617371,0.579712
1480697716757652,-0.419861,-0.326355,0.617371,0.579712
1480697716776202,-0.419861,-0.326355,0.617371,0.579712
1480697716791742,-0.419861,-0.326355,0.617371,0.579712
1480697716821823,-0.419861,-0.326355,0.617371,0.579651
1480697716845887,-0.419861,-0.326355,0.617371,0.579712
1480697716857919,-0.419861,-0.326416,0.617371,0.579712
1480697716873962,-0.419861,-0.326416,0.61731,0.579651
1480697716896521,-0.419861,-0.326416,0.61731,0.579712
1480697716911060,-0.419922,-0.326416,0.61731,0.579651
1480697716934122,-0.419922,-0.326416,0.61731,0.579651
1480697716963700,-0.4198,-0.326294,0.61731,0.579834
1480697716972222,-0.419739,-0.32605,0.617432,0.579834
1480697717001301,-0.419739,-0.325989,0.617493,0.579834
1480697717024361,-0.4198,-0.32605,0.617493,0.579712
1480697717030878,-0.4198,-0.326111,0.617493,0.579712
1480697717053940,-0.4198,-0.326111,0.617493,0.579712
1480697717076500,-0.4198,-0.326111,0.617493,0.579773
1480697717091038,-0.419922,-0.326233,0.617432,0.57959
1480697717114099,-0.419922,-0.326294,0.617432,0.57959
1480697717137662,-0.419861,-0.326172,0.617493,0.579651
1480697717151198,-0.419861,-0.326111,0.617493,0.579651
1480697717180275,-0.420105,-0.326294,0.617432,0.579468
1480697717196819,-0.420105,-0.326294,0.617432,0.579468
1480697717217879,-0.420105,-0.326294,0.617432,0.579468
1480697717247454,-0.420166,-0.326294,0.617432,0.579407
1480697717257982,-0.42041,-0.326416,0.617371,0.579285
1480697717279039,-0.420532,-0.326477,0.61731,0.579163
1480697717301598,-0.420532,-0.326477,0.61731,0.579224
1480697717324158,-0.420532,-0.326477,0.61731,0.579224
1480697717345214,-0.420776,-0.326538,0.617249,0.579041
1480697717354238,-0.420959,-0.32666,0.617065,0.579041
1480697717376799,-0.420959,-0.32666,0.617065,0.579041
1480697717397855,-0.420959,-0.32666,0.617065,0.579041
1480697717414900,-0.420959,-0.326599,0.617065,0.579041
1480697717439966,-0.420959,-0.326599,0.617126,0.579041
1480697717465534,-0.420959,-0.326599,0.617126,0.579041
1480697717474057,-0.420959,-0.326599,0.617126,0.579041
1480697717496617,-0.421021,-0.326599,0.617065,0.578979
1480697717518174,-0.421021,-0.32666,0.617065,0.578979
1480697717534720,-0.421021,-0.32666,0.617065,0.578979
1480697717556778,-0.421082,-0.32666,0.617065,0.578979
1480697717585353,-0.421082,-0.32666,0.617065,0.578979
1480697717600396,-0.421082,-0.32666,0.617065,0.578979
1480697717631476,-0.421082,-0.326599,0.617065,0.578979
1480697717654538,-0.421082,-0.326599,0.617126,0.578979
1480697717657045,-0.421082,-0.326599,0.617126,0.578979
1480697717677599,-0.421082,-0.326599,0.617126,0.578979
1480697717699657,-0.421082,-0.32666,0.617065,0.578979
1480697717715199,-0.421082,-0.32666,0.617065,0.578979
1480697717737256,-0.421082,-0.32666,0.617065,0.578918
1480697717759316,-0.421143,-0.32666,0.617065,0.578918
1480697717773352,-0.421143,-0.32666,0.617065,0.578918
1480697717805439,-0.421387,-0.326782,0.617065,0.578674
1480697717826995,-0.421387,-0.326782,0.617065,0.578674
1480697717865598,-0.421387,-0.326782,0.617065,0.578674
1480697717870611,-0.421448,-0.326782,0.617065,0.578674
1480697717887657,-0.421448,-0.326782,0.617065,0.578674
1480697717893673,-0.421448,-0.326782,0.617065,0.578674
1480697717924254,-0.421448,-0.326721,0.617065,0.578674
1480697717938800,-0.421448,-0.326721,0.617065,0.578674
1480697717954334,-0.421448,-0.326721,0.617065,0.578674
1480697717976393,-0.421204,-0.326843,0.617188,0.578613
1480697718000960,-0.421021,-0.327148,0.617249,0.578552
1480697718015497,-0.421265,-0.327454,0.617188,0.578247
1480697718036554,-0.421509,-0.327637,0.617126,0.578003
1480697718060115,-0.421509,-0.327637,0.617126,0.578003
1480697718073652,-0.42157,-0.327637,0.617126,0.578003
1480697718110251,-0.42157,-0.327637,0.617126,0.578003
1480697718137321,-0.42157,-0.327637,0.617126,0.578003
1480697718166398,-0.42157,-0.327698,0.617126,0.578003
1480697718171411,-0.421387,-0.327698,0.617126,0.578064
1480697718185449,-0.421082,-0.327454,0.617249,0.578247
1480697718200491,-0.421021,-0.327271,0.617493,0.578247
1480697718223050,-0.421082,-0.326965,0.617737,0.578064
1480697718255635,-0.421143,-0.326965,0.617737,0.578003
1480697718261651,-0.421143,-0.326965,0.617737,0.578003
1480697718276693,-0.421143,-0.326965,0.617737,0.578003
1480697718299753,-0.421143,-0.326965,0.617737,0.578003
1480697718320307,-0.421143,-0.326965,0.617737,0.578003
1480697718337352,-0.421143,-0.326965,0.617737,0.578003
1480697718358910,-0.421204,-0.326965,0.617737,0.578003
1480697718380467,-0.421204,-0.326965,0.617737,0.578003
1480697718425587,-0.421204,-0.326965,0.617737,0.578003
1480697718434613,-0.421265,-0.326965,0.617737,0.577942
1480697718440628,-0.421265,-0.326721,0.617798,0.578003
1480697718462686,-0.421265,-0.32666,0.617798,0.578003
1480697718479230,-0.421265,-0.32666,0.617798,0.578003
1480697718501790,-0.421143,-0.326538,0.617859,0.578125
1480697718517331,-0.420959,-0.326172,0.618042,0.578308
1480697718538888,-0.420837,-0.325867,0.618164,0.578369
1480697718559944,-0.420837,-0.325867,0.618225,0.578369
1480697718577993,-0.420959,-0.325989,0.618103,0.578308
1480697718599551,-0.420959,-0.325989,0.618103,0.578308
1480697718621609,-0.420959,-0.325989,0.618103,0.578308
1480697718637149,-0.420959,-0.325989,0.618103,0.578308
1480697718659209,-0.420959,-0.325989,0.618103,0.578308
1480697718690290,-0.421021,-0.325989,0.618103,0.578308
1480697718710344,-0.421021,-0.325989,0.618103,0.578308
1480697718719870,-0.421204,-0.326233,0.618042,0.578125
1480697718741427,-0.421204,-0.326111,0.618103,0.578064
1480697718756467,-0.421082,-0.325928,0.618225,0.578125
1480697718780030,-0.421082,-0.325928,0.618225,0.578125
1480697718801587,-0.421326,-0.326111,0.618103,0.578003
1480697718817630,-0.421326,-0.326111,0.618103,0.578003
1480697718845203,-0.421326,-0.326111,0.618103,0.577942
1480697718862248,-0.421326,-0.326111,0.618103,0.577942
1480697718875785,-0.421509,-0.326172,0.618164,0.577759
1480697718899349,-0.421509,-0.326111,0.618164,0.577759
1480697718943966,-0.421509,-0.326111,0.618164,0.577759
1480697718974547,-0.421509,-0.326172,0.618164,0.577759
1480697718977055,-0.421509,-0.326172,0.618164,0.577759
1480697718990591,-0.421509,-0.326172,0.618164,0.577759
1480697718998109,-0.42157,-0.326172,0.618164,0.577759
1480697719019166,-0.42157,-0.326172,0.618103,0.577759
1480697719041726,-0.42157,-0.326172,0.618103,0.577759
1480697719055763,-0.421631,-0.326172,0.618103,0.577698
1480697719086845,-0.421631,-0.326172,0.618103,0.577698
1480697719116928,-0.421692,-0.326172,0.618103,0.577698
1480697719123443,-0.421692,-0.326111,0.618103,0.577698
1480697719139987,-0.421814,-0.326233,0.618164,0.577515
1480697719170067,-0.421936,-0.326355,0.618103,0.577393
1480697719191624,-0.421936,-0.326416,0.618103,0.577393
1480697719199646,-0.421753,-0.326172,0.618164,0.577515
1480697719267329,-0.421753,-0.326172,0.618164,0.577515
1480697719269832,-0.421875,-0.326416,0.618103,0.577393
1480697719277352,-0.421875,-0.326477,0.618103,0.577332
1480697719287880,-0.421936,-0.326477,0.618103,0.577332
1480697719309939,-0.421936,-0.326477,0.618103,0.577332
1480697719318963,-0.421997,-0.326477,0.618103,0.577332
1480697719343028,-0.422058,-0.326477,0.618103,0.577271
1480697719370098,-0.421997,-0.326355,0.618042,0.577393
1480697719387646,-0.421936,-0.326111,0.618103,0.577454
1480697719401683,-0.421936,-0.326111,0.618103,0.577454
1480697719424243,-0.421997,-0.326294,0.618103,0.577393
1480697719439284,-0.421997,-0.326294,0.618103,0.577393
1480697719467358,-0.421814,-0.326172,0.618225,0.577454
1480697719499444,-0.421814,-0.326111,0.618225,0.577454
1480697719501963,-0.421875,-0.326111,0.618225,0.577454
1480697719529021,-0.421875,-0.326111,0.618225,0.577393
1480697719553086,-0.421875,-0.326111,0.618225,0.577393
1480697719566622,-0.421875,-0.326111,0.618225,0.577454
1480697719596701,-0.421875,-0.326111,0.618225,0.577393
1480697719604722,-0.421936,-0.326111,0.618225,0.577393
1480697719619763,-0.421936,-0.326111,0.618225,0.577393
1480697719655859,-0.421936,-0.326294,0.618286,0.577271
1480697719680424,-0.421997,-0.326538,0.618286,0.577087
1480697719685438,-0.421997,-0.326538,0.618286,0.577026
1480697719701481,-0.422058,-0.326477,0.618286,0.577026
1480697719730055,-0.422058,-0.326477,0.618286,0.577026
1480697719777181,-0.422058,-0.326538,0.618286,0.577026
1480697719779688,-0.422058,-0.326538,0.618286,0.577026
1480697719830322,-0.422058,-0.326538,0.618286,0.577026
1480697719852382,-0.422058,-0.326538,0.618286,0.577026
1480697719854890,-0.421936,-0.326477,0.618286,0.577087
1480697719866920,-0.421997,-0.326477,0.618286,0.577087
1480697719881960,-0.421997,-0.326477,0.618286,0.577087
1480697719904021,-0.421997,-0.326477,0.618286,0.577087
1480697719918561,-0.422058,-0.326477,0.618286,0.577026
1480697719948136,-0.422058,-0.326477,0.618286,0.577026
1480697719964680,-0.422058,-0.326477,0.618286,0.577026
1480697719978216,-0.422119,-0.326477,0.618286,0.577026
1480697720002280,-0.422119,-0.326538,0.618225,0.577026
1480697720023838,-0.42218,-0.326538,0.618225,0.576965
1480697720054920,-0.422058,-0.326416,0.618286,0.577087
1480697720076478,-0.421997,-0.326172,0.618347,0.577148
1480697720107059,-0.421997,-0.326172,0.618347,0.577209
1480697720120597,-0.421997,-0.326172,0.618347,0.577209
1480697720144659,-0.421814,-0.326172,0.618286,0.577393
1480697720167220,-0.421631,-0.325989,0.618347,0.577515
1480697720174238,-0.421631,-0.325928,0.618408,0.577515
1480697720181757,-0.421631,-0.325928,0.618408,0.577515
1480697720204819,-0.421631,-0.325928,0.618408,0.577515
1480697720225875,-0.421692,-0.325989,0.618347,0.577515
1480697720247432,-0.421692,-0.325989,0.618347,0.577515
1480697720263975,-0.421692,-0.325989,0.618347,0.577515
1480697720285033,-0.421692,-0.325989,0.618347,0.577515
1480697720301576,-0.421692,-0.325989,0.618347,0.577515
1480697720331656,-0.421753,-0.325989,0.618347,0.577515
1480697720353715,-0.421753,-0.325989,0.618347,0.577515
1480697720375774,-0.421692,-0.325989,0.618347,0.577515
1480697720385801,-0.42157,-0.325867,0.618469,0.577576
1480697720405353,-0.42157,-0.325867,0.618469,0.577576
1480697720430919,-0.42157,-0.325928,0.618408,0.577576
1480697720443956,-0.42157,-0.325928,0.618408,0.577576
1480697720472530,-0.42157,-0.325928,0.618408,0.577576
1480697720483562,-0.42157,-0.325928,0.618408,0.577576
1480697720504114,-0.42157,-0.325928,0.618408,0.577576
1480697720532692,-0.42157,-0.325928,0.618408,0.577576
1480697720542216,-0.42157,-0.325928,0.618408,0.577576
1480697720566282,-0.42157,-0.325928,0.618408,0.577576
1480697720586834,-0.42157,-0.325928,0.618408,0.577576
1480697720609394,-0.42157,-0.325928,0.618408,0.577576
1480697720631453,-0.42157,-0.325928,0.618408,0.577515
1480697720652509,-0.42157,-0.325989,0.618408,0.577576
1480697720675069,-0.42157,-0.325989,0.618408,0.577576
1480697720684093,-0.42157,-0.325989,0.618408,0.577576
1480697720706653,-0.42157,-0.325989,0.618408,0.577576
1480697720731220,-0.421509,-0.325989,0.618408,0.577576
1480697720745757,-0.421509,-0.325989,0.618408,0.577576
1480697720774334,-0.421509,-0.325989,0.618408,0.577637
1480697720787869,-0.421509,-0.325989,0.618408,0.577637
1480697720803912,-0.421509,-0.325989,0.618408,0.577576
1480697720826471,-0.42157,-0.325989,0.618408,0.577576
1480697720842015,-0.42157,-0.32605,0.618347,0.577576
1480697720874099,-0.421387,-0.325806,0.618408,0.577759
1480697720901671,-0.421387,-0.325562,0.618469,0.57782
1480697720904178,-0.42157,-0.325562,0.618469,0.577759
1480697720925735,-0.421814,-0.325867,0.618347,0.577515
1480697720961331,-0.421753,-0.325867,0.618347,0.577576
1480697720975869,-0.421692,-0.325745,0.618408,0.577637
1480697720984392,-0.421692,-0.325745,0.618408,0.577637
1480697721006450,-0.421875,-0.325867,0.618286,0.577515
1480697721028510,-0.421997,-0.32605,0.618164,0.577454
1480697721046056,-0.421997,-0.32605,0.618164,0.577454
1480697721067112,-0.421997,-0.32605,0.618164,0.577454
1480697721087668,-0.421997,-0.32605,0.618164,0.577454
1480697721105714,-0.421997,-0.32605,0.618164,0.577454
1480697721127272,-0.421997,-0.32605,0.618164,0.577454
1480697721147826,-0.422058,-0.326111,0.618103,0.577454
1480697721172391,-0.422058,-0.326111,0.618103,0.577454
1480697721192444,-0.422058,-0.326111,0.618103,0.577454
1480697721209491,-0.422119,-0.326111,0.618103,0.577393
1480697721237565,-0.422119,-0.326111,0.618103,0.577393
1480697721254109,-0.422119,-0.326111,0.618103,0.577393
1480697721267645,-0.422119,-0.326111,0.618103,0.577393
1480697721284189,-0.422058,-0.326111,0.618103,0.577393
1480697721312765,-0.422058,-0.32605,0.618103,0.577393
1480697721329809,-0.422058,-0.326111,0.618103,0.577454
1480697721344850,-0.422058,-0.326111,0.618103,0.577454
1480697721366909,-0.422058,-0.326111,0.618103,0.577454
1480697721387966,-0.422058,-0.326172,0.618103,0.577454
1480697721404008,-0.422058,-0.326172,0.618042,0.577454
1480697721427570,-0.422058,-0.326172,0.618042,0.577454
1480697721465671,-0.422119,-0.326172,0.618042,0.577454
1480697721470184,-0.422119,-0.326172,0.618042,0.577393
1480697721510290,-0.422119,-0.326172,0.618042,0.577393
1480697721515304,-0.42218,-0.326172,0.618042,0.577393
1480697721524327,-0.422424,-0.326355,0.61792,0.577209
1480697721546386,-0.422607,-0.326721,0.617798,0.577026
1480697721568946,-0.422607,-0.326721,0.617798,0.577026
1480697721583986,-0.422424,-0.326599,0.617798,0.577209
1480697721606546,-0.422241,-0.326477,0.61792,0.577271
1480697721630109,-0.422241,-0.326477,0.617981,0.577271
1480697721644649,-0.422058,-0.326538,0.618042,0.577271
1480697721681746,-0.422058,-0.326538,0.618042,0.577271
1480697721689768,-0.422058,-0.326538,0.618042,0.577271
1480697721703304,-0.422119,-0.326538,0.618042,0.577271
1480697721726364,-0.422119,-0.326538,0.618042,0.577271
1480697721756445,-0.422119,-0.326538,0.617981,0.577271
1480697721763464,-0.422058,-0.326294,0.618042,0.577393
1480697721787026,-0.422058,-0.325989,0.618164,0.577393
1480697721817106,-0.422119,-0.325989,0.618164,0.577393
1480697721837661,-0.422363,-0.32605,0.618103,0.577271
1480697721846684,-0.422363,-0.32605,0.618103,0.577271
1480697721869746,-0.422363,-0.32605,0.618103,0.577271
1480697721883283,-0.42218,-0.32605,0.618103,0.577393
1480697721906845,-0.42218,-0.32605,0.618103,0.577393
1480697721929905,-0.42218,-0.32605,0.618103,0.577393
1480697721950961,-0.42218,-0.32605,0.618103,0.577393
1480697721966505,-0.42218,-0.32605,0.618103,0.577393
1480697722005607,-0.42218,-0.32605,0.618103,0.577393
1480697722011122,-0.42218,-0.326111,0.618103,0.577393
1480697722026164,-0.42218,-0.326111,0.618103,0.577393
1480697722050227,-0.422241,-0.32605,0.618103,0.577332
1480697722070281,-0.422241,-0.326111,0.618103,0.577332
1480697722088828,-0.422241,-0.326111,0.618103,0.577332
1480697722109384,-0.422241,-0.326233,0.618225,0.577148
1480697722129937,-0.422241,-0.326355,0.618286,0.576965
1480697722146482,-0.422302,-0.326355,0.618286,0.576965
1480697722171047,-0.422302,-0.326355,0.618286,0.576965
1480697722190097,-0.422241,-0.326355,0.618286,0.576965
1480697722213159,-0.422241,-0.326355,0.618286,0.576965
1480697722237223,-0.422241,-0.326355,0.618286,0.576965
1480697722250261,-0.422058,-0.326233,0.618408,0.577087
1480697722266801,-0.422058,-0.326233,0.618408,0.577087
1480697722298386,-0.422119,-0.326355,0.618347,0.576965
1480697722311420,-0.422241,-0.32666,0.618164,0.576904
1480697722326460,-0.422119,-0.326721,0.618103,0.577026
1480697722350025,-0.422058,-0.326599,0.618164,0.577087
1480697722372081,-0.422058,-0.326599,0.618164,0.577087
1480697722386621,-0.422119,-0.326599,0.618164,0.577087
1480697722415197,-0.42218,-0.326599,0.618164,0.577026
1480697722432242,-0.421997,-0.326355,0.618408,0.577026
1480697722448285,-0.421936,-0.326416,0.61853,0.576965
1480697722469340,-0.422241,-0.326843,0.618347,0.57666
1480697722504935,-0.422241,-0.327271,0.618225,0.576538
1480697722516470,-0.422241,-0.327271,0.618225,0.576538
1480697722528999,-0.422241,-0.327271,0.618225,0.576538
1480697722566599,-0.422424,-0.327576,0.618103,0.576355
1480697722569105,-0.422546,-0.327881,0.617981,0.576172
1480697722590664,-0.422852,-0.328003,0.61792,0.575989
1480697722619740,-0.423035,-0.328247,0.617737,0.575867
1480697722625756,-0.423035,-0.328247,0.617737,0.575867
1480697722649321,-0.422974,-0.328186,0.617737,0.575989
1480697722672381,-0.422974,-0.328186,0.617737,0.575989
1480697722694943,-0.423279,-0.32843,0.617554,0.575745
1480697722717500,-0.423645,-0.328857,0.617432,0.575439
1480697722732545,-0.423828,-0.329102,0.61731,0.575256
1480697722752593,-0.423889,-0.329102,0.61731,0.575256
1480697722769138,-0.423767,-0.328918,0.617371,0.575378
1480697722793702,-0.423767,-0.328674,0.617432,0.575439
1480697722805734,-0.423767,-0.328674,0.617493,0.575439
1480697722829298,-0.423706,-0.328674,0.617493,0.575439
1480697722851857,-0.423706,-0.328674,0.617493,0.575439
1480697722872914,-0.423706,-0.328674,0.617493,0.575439
1480697722896476,-0.423523,-0.328491,0.617615,0.575562
1480697722912018,-0.423462,-0.328186,0.617615,0.575745
1480697722932575,-0.423401,-0.327881,0.617737,0.575867
1480697722949117,-0.423462,-0.328186,0.617676,0.575745
1480697722972679,-0.423706,-0.328613,0.617554,0.575378
1480697722992732,-0.423828,-0.329102,0.617371,0.575195
1480697723009276,-0.423889,-0.329102,0.617371,0.575195
1480697723032843,-0.423767,-0.328369,0.617554,0.5755
1480697723069937,-0.423523,-0.328186,0.617676,0.575623
1480697723071943,-0.423462,-0.328491,0.617676,0.575562
1480697723091494,-0.423157,-0.328308,0.617676,0.575806
1480697723120073,-0.422852,-0.327637,0.617859,0.576294
1480697723129094,-0.42218,-0.32666,0.618164,0.577026
1480697723151655,-0.421997,-0.326477,0.618164,0.577209
1480697723172209,-0.421997,-0.326477,0.618164,0.577209
1480697723189255,-0.421997,-0.326538,0.618164,0.577209
1480697723211313,-0.421875,-0.326416,0.618225,0.577271
1480697723232870,-0.421692,-0.32605,0.618286,0.577515
1480697723248913,-0.421753,-0.32605,0.618286,0.577515
1480697723272977,-0.421936,-0.326355,0.618164,0.577332
1480697723292529,-0.42218,-0.32666,0.61792,0.577271
1480697723309073,-0.42218,-0.32666,0.61792,0.577209
1480697723332135,-0.42218,-0.32666,0.61792,0.577209
1480697723370236,-0.422302,-0.32666,0.617798,0.577271
1480697723375250,-0.422668,-0.327209,0.617493,0.577026
1480697723391793,-0.422913,-0.327698,0.617371,0.57666
1480697723427889,-0.422791,-0.327698,0.617493,0.57666
1480697723452455,-0.42218,-0.327515,0.617615,0.577087
1480697723457970,-0.421814,-0.327148,0.617737,0.577393
1480697723481533,-0.421814,-0.327148,0.617737,0.577393
1480697723488551,-0.421936,-0.327576,0.617615,0.577209
1480697723511612,-0.42218,-0.328064,0.617432,0.576965
1480697723534172,-0.42218,-0.328064,0.617432,0.576965
1480697723548209,-0.422058,-0.328003,0.617493,0.577026
1480697723571772,-0.422058,-0.328003,0.617493,0.577026
1480697723593830,-0.422058,-0.328003,0.617493,0.577026
1480697723608370,-0.422241,-0.328247,0.617432,0.576782
1480697723631431,-0.422302,-0.328613,0.617371,0.57666
1480697723653991,-0.422302,-0.328613,0.61731,0.57666
1480697723677054,-0.422363,-0.328613,0.61731,0.576599
1480697723703121,-0.422363,-0.328674,0.61731,0.576599
1480697723728188,-0.422363,-0.328613,0.61731,0.576599
1480697723743229,-0.422363,-0.328613,0.61731,0.576599
1480697723757766,-0.422485,-0.328857,0.617249,0.576538
1480697723781330,-0.422607,-0.329041,0.617065,0.576477
1480697723788348,-0.422852,-0.329163,0.617004,0.576294
1480697723819932,-0.422913,-0.329285,0.616882,0.576294
1480697723848509,-0.422913,-0.329285,0.616882,0.576294
1480697723855025,-0.422913,-0.329285,0.616882,0.576294
1480697723877585,-0.422974,-0.329285,0.616882,0.576294
1480697723895633,-0.423035,-0.329529,0.616821,0.576233
1480697723915185,-0.423157,-0.329651,0.616577,0.576233
1480697723931729,-0.423401,-0.329712,0.616394,0.576233
1480697723961809,-0.423523,-0.329407,0.616577,0.576172
1480697723976849,-0.422607,-0.328979,0.617676,0.575806
1480697723997905,-0.420959,-0.328369,0.618958,0.57605
1480697724014951,-0.420654,-0.32782,0.618958,0.576538
1480697724036507,-0.421082,-0.327942,0.618591,0.576538
1480697724058567,-0.421082,-0.327698,0.618347,0.577026
1480697724081628,-0.420105,-0.326477,0.618835,0.577942
1480697724102684,-0.41925,-0.325623,0.619263,0.578491
1480697724111207,-0.419373,-0.326111,0.619324,0.578064
1480697724136273,-0.4198,-0.326538,0.619202,0.577637
1480697724155324,-0.419861,-0.326599,0.619202,0.577637
1480697724171367,-0.4198,-0.326416,0.619141,0.57782
1480697724193926,-0.419678,-0.326294,0.619202,0.577881
1480697724214983,-0.419861,-0.326599,0.61908,0.577698
1480697724232532,-0.420227,-0.327209,0.618896,0.577271
1480697724254086,-0.420532,-0.327698,0.618835,0.576904
1480697724293190,-0.420349,-0.32782,0.618896,0.576843
1480697724297702,-0.419983,-0.327759,0.61908,0.576965
1480697724314246,-0.419739,-0.327759,0.619141,0.577026
1480697724337307,-0.4198,-0.328186,0.61908,0.576843
1480697724359867,-0.419861,-0.328613,0.619019,0.57666
1480697724374406,-0.419983,-0.329102,0.618896,0.576416
1480697724396465,-0.419922,-0.329407,0.618835,0.576355
1480697724411505,-0.419922,-0.329407,0.618835,0.576355
1480697724434065,-0.419922,-0.329407,0.618774,0.576355
1480697724456625,-0.419983,-0.329773,0.618713,0.576233
1480697724471164,-0.420105,-0.3302,0.61853,0.57605
1480697724494225,-0.420044,-0.330566,0.61853,0.575928
1480697724555889,-0.419983,-0.330811,0.618469,0.575867
1480697724558897,-0.419922,-0.331055,0.618408,0.575806
1480697724578449,-0.419861,-0.331177,0.618408,0.575867
1480697724582463,-0.419495,-0.330811,0.61853,0.576172
1480697724592486,-0.419312,-0.330627,0.618652,0.576294
1480697724614043,-0.419373,-0.330627,0.618652,0.576294
1480697724644625,-0.419128,-0.330505,0.618652,0.576477
1480697724652645,-0.418701,-0.3302,0.618713,0.576904
1480697724676711,-0.418274,-0.329895,0.618835,0.577209
1480697724697265,-0.418274,-0.329895,0.618896,0.577209
1480697724711803,-0.418274,-0.329895,0.618896,0.577209
1480697724733863,-0.41803,-0.329712,0.619019,0.577332
1480697724756422,-0.417908,-0.329651,0.61908,0.577393
1480697724784998,-0.417969,-0.329651,0.61908,0.577393
1480697724809063,-0.417969,-0.329651,0.61908,0.577393
1480697724847163,-0.417969,-0.329712,0.61908,0.577332
1480697724849670,-0.417969,-0.329651,0.61908,0.577332
1480697724859696,-0.418274,-0.329712,0.618896,0.577332
1480697724882764,-0.418335,-0.329712,0.618896,0.577271
1480697724897296,-0.418091,-0.329651,0.619324,0.577026
1480697724914342,-0.417542,-0.329041,0.619812,0.577209
1480697724936401,-0.417297,-0.328552,0.619629,0.577881
1480697724957958,-0.418152,-0.328857,0.61908,0.577637
1480697724975505,-0.418701,-0.328979,0.618835,0.577454
1480697724997061,-0.418335,-0.328186,0.618958,0.578125
1480697725025137,-0.417908,-0.327515,0.61908,0.578613
1480697725035163,-0.417725,-0.327332,0.619141,0.578735
1480697725064241,-0.417969,-0.327637,0.619019,0.578552
1480697725084795,-0.418335,-0.328003,0.618835,0.578308
1480697725115881,-0.418335,-0.328003,0.618835,0.578247
1480697725124400,-0.418335,-0.327881,0.618958,0.578308
1480697725163003,-0.418335,-0.327881,0.618958,0.578247
1480697725168517,-0.418518,-0.328125,0.618896,0.578064
1480697725176539,-0.418762,-0.32843,0.618835,0.577698
1480697725197596,-0.418762,-0.32843,0.618835,0.577698
1480697725214139,-0.418762,-0.32843,0.618896,0.577698
1480697725236699,-0.418823,-0.32843,0.618896,0.577698
1480697725259258,-0.418762,-0.32843,0.618896,0.577698
1480697725274299,-0.418823,-0.32843,0.618896,0.577698
1480697725302374,-0.418823,-0.328369,0.618896,0.577698
1480697725326438,-0.418823,-0.328369,0.618896,0.577698
1480697725341479,-0.418762,-0.32843,0.618896,0.577698
1480697725364046,-0.418762,-0.32843,0.618896,0.577698
1480697725408657,-0.418884,-0.328613,0.618835,0.577515
1480697725425201,-0.419128,-0.328857,0.618713,0.577332
1480697725440742,-0.419189,-0.328857,0.618713,0.577332
1480697725443302,-0.419189,-0.328857,0.618713,0.577332
1480697725461797,-0.419189,-0.328857,0.618713,0.577332
1480697725476838,-0.419373,-0.329102,0.618652,0.577148
1480697725499401,-0.419373,-0.329102,0.618652,0.577148
1480697725514448,-0.419373,-0.329102,0.618652,0.577148
1480697725536496,-0.419434,-0.329102,0.618591,0.577148
1480697725559060,-0.419434,-0.329102,0.618652,0.577148
1480697725604678,-0.419434,-0.329102,0.618652,0.577148
1480697725620219,-0.419434,-0.329102,0.618652,0.577087
1480697725626737,-0.419434,-0.329102,0.618652,0.577148
1480697725641776,-0.419434,-0.329102,0.618652,0.577087
1480697725665846,-0.419434,-0.329102,0.618652,0.577087
1480697725693916,-0.419434,-0.329102,0.618652,0.577087
1480697725696422,-0.419312,-0.328979,0.618652,0.577209
1480697725716475,-0.419312,-0.328979,0.618652,0.577209
1480697725746557,-0.419373,-0.328979,0.618652,0.577209
1480697725760091,-0.419373,-0.328979,0.618652,0.577209
1480697725778139,-0.419434,-0.328979,0.618591,0.577148
1480697725799696,-0.419434,-0.328979,0.618591,0.577148
1480697725820251,-0.419434,-0.329041,0.618591,0.577148
1480697725836795,-0.419495,-0.329041,0.618591,0.577148
1480697725866373,-0.419495,-0.328979,0.618591,0.577148
1480697725887931,-0.419556,-0.328552,0.618591,0.577332
1480697725899462,-0.420166,-0.32843,0.618408,0.577209
1480697725920517,-0.42041,-0.328674,0.618774,0.576477
1480697725957117,-0.419983,-0.32843,0.619385,0.576233
1480697725959622,-0.4198,-0.32782,0.619385,0.576721
1480697725979174,-0.420471,-0.32782,0.618958,0.576721
1480697726002736,-0.420837,-0.327698,0.618713,0.576782
1480697726017275,-0.420349,-0.326904,0.618835,0.577454
1480697726038835,-0.419556,-0.32605,0.619202,0.578125
1480697726067407,-0.418884,-0.325623,0.619507,0.578491
1480697726077435,-0.418945,-0.325867,0.619507,0.578308
1480697726098995,-0.419434,-0.326599,0.619263,0.57782
1480697726120550,-0.419617,-0.327026,0.619141,0.577637
1480697726144614,-0.419434,-0.326843,0.619263,0.577698
1480697726159151,-0.41925,-0.326599,0.619446,0.57782
1480697726197755,-0.419189,-0.326599,0.619629,0.577637
1480697726202768,-0.419373,-0.326782,0.619629,0.577393
1480697726225333,-0.419312,-0.326965,0.619568,0.577393
1480697726242879,-0.419312,-0.327209,0.619568,0.577271
1480697726262426,-0.419189,-0.327209,0.61969,0.577209
1480697726279973,-0.419067,-0.327087,0.619812,0.577209
1480697726301531,-0.419312,-0.326965,0.61969,0.577271
1480697726317573,-0.419861,-0.327515,0.61969,0.576599
1480697726339132,-0.420166,-0.328491,0.619873,0.575623
1480697726370213,-0.419922,-0.32843,0.61969,0.575989
1480697726376731,-0.420105,-0.327881,0.619324,0.576538
1480697726399290,-0.420044,-0.327087,0.619202,0.577209
1480697726421349,-0.419373,-0.325928,0.619385,0.578186
1480697726460453,-0.418823,-0.3255,0.61969,0.57843
1480697726462959,-0.418945,-0.325623,0.619873,0.578064
1480697726483013,-0.419128,-0.326172,0.619629,0.577881
1480697726508581,-0.419373,-0.326721,0.619263,0.577759
1480697726520112,-0.419189,-0.326538,0.619324,0.577942
1480697726549195,-0.418762,-0.32605,0.619568,0.578308
1480697726556710,-0.418762,-0.325989,0.619629,0.578308
1480697726579269,-0.419067,-0.326477,0.619568,0.577881
1480697726601829,-0.419312,-0.327148,0.619446,0.577454
1480697726615869,-0.419312,-0.327087,0.619446,0.577454
1480697726638929,-0.419067,-0.327087,0.619629,0.577454
1480697726661488,-0.418884,-0.327026,0.619873,0.577332
1480697726697585,-0.418884,-0.327209,0.619873,0.577209
1480697726708614,-0.419067,-0.327637,0.619751,0.577026
1480697726731173,-0.419373,-0.327881,0.61969,0.57666
1480697726749722,-0.419617,-0.328186,0.619629,0.576477
1480697726760752,-0.419617,-0.328186,0.619629,0.576416
1480697726804869,-0.419495,-0.328064,0.619629,0.576538
1480697726810384,-0.419495,-0.328064,0.619629,0.576538
1480697726820414,-0.419617,-0.328064,0.61969,0.576416
1480697726841968,-0.419739,-0.32843,0.619629,0.576172
1480697726862522,-0.419922,-0.328796,0.619568,0.575928
1480697726879067,-0.419922,-0.328796,0.619568,0.575867
1480697726901627,-0.419922,-0.328796,0.619568,0.575867
1480697726922683,-0.419922,-0.328796,0.619568,0.575867
1480697726940229,-0.419922,-0.328796,0.619568,0.575867
1480697726961285,-0.419983,-0.328796,0.619568,0.575867
1480697726982843,-0.419983,-0.328796,0.619568,0.575867
1480697727001391,-0.419983,-0.328796,0.619568,0.575867
1480697727035983,-0.419861,-0.328674,0.61969,0.575928
1480697727050022,-0.419739,-0.328613,0.619751,0.575928
1480697727059046,-0.4198,-0.328613,0.619751,0.575928
1480697727081607,-0.4198,-0.328552,0.619751,0.575928
1480697727102661,-0.419922,-0.328796,0.61969,0.575806
1480697727119707,-0.420166,-0.329041,0.619507,0.575623
1480697727141765,-0.420349,-0.329163,0.619507,0.575439
1480697727163824,-0.420227,-0.329041,0.619568,0.575562
1480697727178865,-0.420166,-0.328796,0.61969,0.575623
1480697727202426,-0.420288,-0.328979,0.619568,0.575562
1480697727247046,-0.420349,-0.329224,0.619385,0.5755
1480697727249553,-0.420349,-0.329285,0.619385,0.5755
1480697727292165,-0.420349,-0.329285,0.619385,0.5755
1480697727294672,-0.42041,-0.329285,0.619385,0.575439
1480697727307706,-0.42041,-0.329285,0.619385,0.575439
1480697727335280,-0.420349,-0.329407,0.619507,0.575317
1480697727351322,-0.420349,-0.329773,0.61969,0.57489
1480697727373888,-0.419678,-0.329407,0.619934,0.575317
1480697727396949,-0.419556,-0.329346,0.619934,0.5755
1480697727434549,-0.419434,-0.329468,0.620056,0.575317
1480697727437056,-0.419373,-0.329468,0.620178,0.575317
1480697727442571,-0.419006,-0.329468,0.620239,0.575439
1480697727465631,-0.418701,-0.329163,0.620422,0.575623
1480697727485183,-0.418579,-0.329285,0.620483,0.575623
1480697727501728,-0.418579,-0.329285,0.620483,0.575623
1480697727524788,-0.418579,-0.329285,0.620483,0.575623
1480697727538325,-0.418457,-0.329468,0.620544,0.575562
1480697727583947,-0.418274,-0.329529,0.620483,0.575684
1480697727589962,-0.418091,-0.329529,0.620483,0.575806
1480697727612522,-0.417969,-0.329346,0.620605,0.575928
1480697727623050,-0.417969,-0.329346,0.620605,0.575928
1480697727644608,-0.418091,-0.329651,0.620544,0.575684
1480697727665164,-0.418152,-0.329651,0.620544,0.575684
1480697727682209,-0.418091,-0.329529,0.620667,0.575684
1480697727710282,-0.417908,-0.329468,0.620728,0.575745
1480697727742368,-0.417908,-0.329468,0.620728,0.575745
1480697727744373,-0.417908,-0.329407,0.620728,0.575745
1480697727764928,-0.417847,-0.329529,0.62085,0.575684
1480697727787487,-0.417725,-0.329834,0.62085,0.5755
1480697727809547,-0.41748,-0.329895,0.620911,0.575562
1480697727839626,-0.417236,-0.329834,0.621094,0.575684
1480697727868202,-0.417236,-0.329834,0.621094,0.575684
1480697727899786,-0.417419,-0.330139,0.620972,0.575439
1480697727902295,-0.417542,-0.330505,0.620911,0.575195
1480697727922346,-0.417603,-0.330505,0.620911,0.575195
1480697727924351,-0.41748,-0.330505,0.62085,0.575256
1480697727944906,-0.417542,-0.330505,0.62085,0.575256
1480697727967466,-0.417542,-0.330505,0.62085,0.575256
1480697727981504,-0.417542,-0.330505,0.62085,0.575256
1480697728004565,-0.417542,-0.330505,0.62085,0.575256
1480697728025119,-0.417603,-0.330505,0.62085,0.575256
1480697728042165,-0.417542,-0.330505,0.62085,0.575256
1480697728071743,-0.417542,-0.330505,0.62085,0.575256
1480697728092799,-0.417542,-0.330505,0.62085,0.575256
1480697728139423,-0.417542,-0.330505,0.62085,0.575256
1480697728141930,-0.417542,-0.330505,0.62085,0.575256
1480697728147946,-0.417542,-0.330505,0.620911,0.575256
1480697728178528,-0.417542,-0.330505,0.620911,0.575256
1480697728197578,-0.417542,-0.330505,0.62085,0.575256
1480697728206101,-0.41748,-0.330444,0.620911,0.575256
1480697728220639,-0.417542,-0.330444,0.620911,0.575256
1480697728250217,-0.417542,-0.330505,0.620911,0.575256
1480697728266762,-0.417542,-0.330444,0.620911,0.575256
1480697728290826,-0.417603,-0.330444,0.620911,0.575256
1480697728306367,-0.417603,-0.330505,0.62085,0.575256
1480697728329428,-0.417603,-0.330505,0.62085,0.575195
1480697728347980,-0.417542,-0.330261,0.620972,0.575317
1480697728371039,-0.41748,-0.330017,0.621033,0.575378
1480697728377057,-0.417603,-0.330139,0.620972,0.575317
1480697728395604,-0.417725,-0.330322,0.620911,0.575256
1480697728416660,-0.417725,-0.330322,0.62085,0.575256
1480697728447243,-0.417725,-0.330322,0.62085,0.575195
1480697728468799,-0.417725,-0.330322,0.620911,0.575195
1480697728498883,-0.417786,-0.330322,0.62085,0.575195
1480697728501386,-0.417786,-0.330322,0.62085,0.575195
1480697728513421,-0.417786,-0.330322,0.62085,0.575195
1480697728528458,-0.417847,-0.330322,0.62085,0.575134
1480697728557035,-0.417847,-0.330322,0.62085,0.575134
1480697728581099,-0.417908,-0.330383,0.62085,0.575134
1480697728589621,-0.417908,-0.330383,0.62085,0.575134
1480697728609674,-0.417908,-0.330322,0.62085,0.575073
1480697728634239,-0.417969,-0.330322,0.62085,0.575073
1480697728675349,-0.417969,-0.330322,0.62085,0.575073
1480697728694901,-0.417969,-0.330322,0.62085,0.575073
1480697728697407,-0.417969,-0.330322,0.62085,0.575073
1480697728762079,-0.41803,-0.330505,0.620789,0.575012
1480697728768095,-0.41803,-0.330505,0.620789,0.575012
1480697728778623,-0.41803,-0.330505,0.620789,0.575012
1480697728784639,-0.418091,-0.330505,0.620789,0.575012
1480697728790655,-0.418091,-0.330505,0.620789,0.574951
1480697728819231,-0.418152,-0.330505,0.620728,0.574951
1480697728834271,-0.418213,-0.330505,0.620728,0.574951
1480697728849311,-0.418213,-0.330505,0.620728,0.57489
1480697728872374,-0.418274,-0.330505,0.620728,0.57489
1480697728903455,-0.418274,-0.330505,0.620728,0.57489
1480697728909471,-0.418274,-0.330505,0.620728,0.574829
1480697728935039,-0.418335,-0.330505,0.620728,0.574829
1480697728973140,-0.418274,-0.330383,0.62085,0.57489
1480697729001725,-0.418274,-0.330322,0.62085,0.57489
1480697729004724,-0.418274,-0.330383,0.62085,0.574829
1480697729032799,-0.418335,-0.330444,0.620789,0.574829
1480697729045331,-0.418579,-0.330627,0.620728,0.574585
1480697729068394,-0.418579,-0.330627,0.620728,0.574585
1480697729083447,-0.418518,-0.330566,0.620728,0.574646
1480697729089450,-0.418457,-0.330261,0.62085,0.574768
1480697729112010,-0.418457,-0.330261,0.62085,0.574768
1480697729134569,-0.41864,-0.330505,0.620728,0.574585
1480697729149610,-0.418762,-0.33075,0.620667,0.574463
1480697729197236,-0.418823,-0.33075,0.620667,0.574402
1480697729199743,-0.418823,-0.33075,0.620667,0.574402
1480697729209773,-0.418884,-0.33075,0.620667,0.574402
1480697729231832,-0.418884,-0.33075,0.620667,0.574402
1480697729257396,-0.418884,-0.330688,0.620667,0.574402
1480697729279956,-0.418884,-0.330688,0.620667,0.574402
1480697729291987,-0.419067,-0.330872,0.620667,0.574158
1480697729314550,-0.419067,-0.330872,0.620667,0.574158
1480697729332596,-0.419067,-0.330872,0.620667,0.574158
1480697729353151,-0.419067,-0.330872,0.620667,0.574158
1480697729375711,-0.419128,-0.330872,0.620605,0.574158
1480697729389749,-0.419128,-0.330872,0.620605,0.574158
1480697729411807,-0.419128,-0.330933,0.620605,0.574158
1480697729434367,-0.419189,-0.330933,0.620605,0.574097
1480697729449407,-0.419189,-0.330933,0.620605,0.574097
1480697729471966,-0.41925,-0.330933,0.620605,0.574097
1480697729504054,-0.41925,-0.330933,0.620605,0.574097
1480697729526111,-0.419678,-0.330444,0.620483,0.574158
1480697729535135,-0.420288,-0.329834,0.620605,0.573914
1480697729557193,-0.419495,-0.328674,0.621826,0.573914
1480697729587775,-0.418518,-0.327942,0.622131,0.574646
1480697729599305,-0.418945,-0.32782,0.622131,0.574402
1480697729614347,-0.420227,-0.328552,0.621582,0.573669
1480697729632393,-0.420959,-0.329346,0.621399,0.572876
1480697729651945,-0.420715,-0.329163,0.621521,0.572998
1480697729674506,-0.420105,-0.328552,0.621826,0.573425
1480697729691049,-0.419739,-0.328186,0.622131,0.573608
1480697729728147,-0.420044,-0.328491,0.622009,0.573303
1480697729743188,-0.420532,-0.329102,0.621887,0.572815
1480697729750708,-0.420715,-0.329529,0.621765,0.57251
1480697729815383,-0.421143,-0.329834,0.621582,0.572266
1480697729841451,-0.421509,-0.330017,0.62146,0.572021
1480697729855987,-0.422119,-0.3302,0.621216,0.571716
1480697729870026,-0.422058,-0.3302,0.621277,0.571716
1480697729880053,-0.421875,-0.32959,0.621399,0.572021
1480697729892083,-0.421814,-0.32843,0.621582,0.572571
1480697729916148,-0.421509,-0.326538,0.621948,0.573425
1480697729931189,-0.420715,-0.324707,0.622498,0.574463
1480697729953246,-0.420166,-0.323853,0.622864,0.575012
1480697729974305,-0.419861,-0.323853,0.622803,0.575256
1480697729992351,-0.420166,-0.324707,0.622498,0.57489
1480697730019422,-0.420837,-0.325684,0.622192,0.574219
1480697730034462,-0.420959,-0.326111,0.622009,0.574036
1480697730053012,-0.420776,-0.32605,0.622009,0.574219
1480697730072063,-0.420532,-0.325928,0.622131,0.574341
1480697730110666,-0.420593,-0.326172,0.622192,0.574097
1480697730133228,-0.420837,-0.326599,0.622192,0.573669
1480697730148269,-0.420959,-0.327087,0.622192,0.573303
1480697730154281,-0.420837,-0.327393,0.622253,0.57312
1480697730173332,-0.420532,-0.327576,0.622314,0.573181
1480697730191881,-0.420471,-0.327759,0.622314,0.57312
1480697730221961,-0.420471,-0.328003,0.622314,0.572998
1480697730232489,-0.420532,-0.328308,0.622314,0.572754
1480697730255049,-0.420471,-0.328613,0.622314,0.572632
1480697730291646,-0.420471,-0.328857,0.622314,0.572571
1480697730299166,-0.42041,-0.329163,0.622253,0.572449
1480697730319220,-0.42041,-0.329468,0.622131,0.572388
1480697730334259,-0.42041,-0.329468,0.622131,0.572388
1480697730360329,-0.42041,-0.329468,0.622131,0.572388
1480697730389907,-0.420471,-0.329468,0.622131,0.572327
1480697730401939,-0.420471,-0.329468,0.622131,0.572327
1480697730426004,-0.420532,-0.329468,0.622131,0.572327
1480697730448565,-0.420532,-0.329468,0.622131,0.572266
1480697730456585,-0.420776,-0.329712,0.62207,0.572083
1480697730478143,-0.420776,-0.329895,0.622009,0.572021
1480697730492179,-0.420776,-0.329895,0.622009,0.572021
1480697730521758,-0.420593,-0.329956,0.62207,0.572021
1480697730539305,-0.42041,-0.330017,0.622192,0.572021
1480697730551838,-0.420288,-0.3302,0.622253,0.57196
1480697730590942,-0.420166,-0.330322,0.622253,0.57196
1480697730596958,-0.420166,-0.330322,0.622253,0.57196
1480697730613503,-0.420166,-0.330322,0.622192,0.57196
1480697730637567,-0.420166,-0.330383,0.622192,0.57196
1480697730665139,-0.420227,-0.330261,0.622253,0.57196
1480697730682185,-0.420227,-0.330261,0.622253,0.57196
1480697730694216,-0.420227,-0.330261,0.622192,0.57196
1480697730716776,-0.420044,-0.3302,0.622314,0.572083
1480697730740841,-0.4198,-0.330017,0.622498,0.572144
1480697730761896,-0.419556,-0.329895,0.62262,0.572266
1480697730776937,-0.419434,-0.330078,0.622681,0.572144
1480697730793481,-0.419312,-0.330261,0.622681,0.572144
1480697730814538,-0.419067,-0.330383,0.622742,0.572144
1480697730839603,-0.419067,-0.330383,0.622742,0.572205
1480697730853641,-0.419067,-0.330444,0.622742,0.572205
1480697730874698,-0.418823,-0.330322,0.622742,0.572449
1480697730898260,-0.418396,-0.329773,0.622925,0.572876
1480697730922323,-0.418213,-0.329468,0.623047,0.572998
1480697730964944,-0.418213,-0.329468,0.623047,0.572998
1480697730989502,-0.418213,-0.329529,0.623047,0.572998
1480697730998025,-0.418213,-0.329468,0.623047,0.572998
1480697731011562,-0.418213,-0.329468,0.623047,0.572998
1480697731033118,-0.418396,-0.329712,0.62323,0.57251
1480697731041140,-0.418579,-0.330383,0.62323,0.572021
1480697731054174,-0.418884,-0.330811,0.622986,0.571838
1480697731076734,-0.41925,-0.330688,0.622803,0.571777
1480697731094782,-0.419678,-0.330505,0.622742,0.571716
1480697731114338,-0.420471,-0.330566,0.622375,0.571472
1480697731136894,-0.420593,-0.330139,0.62207,0.571899
1480697731169982,-0.419922,-0.328796,0.622437,0.572815
1480697731174494,-0.419434,-0.327637,0.622742,0.573486
1480697731197054,-0.419434,-0.327637,0.622742,0.573486
1480697731222120,-0.419434,-0.328003,0.622803,0.573242
1480697731237161,-0.419434,-0.32782,0.622864,0.573242
1480697731256714,-0.419617,-0.327576,0.622925,0.573181
1480697731276265,-0.419617,-0.327515,0.622925,0.573181
1480697731294313,-0.419556,-0.327332,0.623047,0.573242
1480697731316872,-0.419495,-0.327087,0.623047,0.573425
1480697731334921,-0.419434,-0.327087,0.623047,0.573425
1480697731354976,-0.419617,-0.326782,0.623108,0.573425
1480697731377033,-0.419739,-0.326233,0.62323,0.573547
1480697731400094,-0.419617,-0.326233,0.623169,0.573669
1480697731419145,-0.419617,-0.326294,0.623169,0.573669
1480697731439699,-0.419617,-0.326294,0.623169,0.573669
1480697731454739,-0.419617,-0.326294,0.623169,0.573669
1480697731523422,-0.419678,-0.326538,0.62323,0.573364
1480697731544477,-0.419861,-0.327026,0.62323,0.572998
1480697731559518,-0.419861,-0.327454,0.623169,0.572815
1480697731562025,-0.4198,-0.327332,0.623291,0.572815
1480697731575060,-0.419922,-0.327454,0.623291,0.572632
1480697731596115,-0.420166,-0.327759,0.623169,0.572388
1480697731634216,-0.420227,-0.327759,0.623169,0.572388
1480697731636222,-0.420044,-0.327637,0.62323,0.57251
1480697731670313,-0.420044,-0.327637,0.62323,0.57251
1480697731684350,-0.420044,-0.327698,0.623291,0.572388
1480697731694878,-0.419983,-0.327942,0.623352,0.572266
1480697731721950,-0.420166,-0.328064,0.623291,0.572083
1480697731744510,-0.420227,-0.328369,0.623169,0.572021
1480697731790132,-0.420166,-0.328369,0.623169,0.572083
1480697731822216,-0.420166,-0.328369,0.623169,0.572083
1480697731824723,-0.420166,-0.328369,0.623169,0.572083
1480697731831240,-0.42041,-0.328491,0.622986,0.572021
1480697731843273,-0.420288,-0.328491,0.622742,0.572388
1480697731856808,-0.420166,-0.328125,0.622375,0.573059
1480697731879369,-0.420532,-0.327942,0.622253,0.572998
1480697731897418,-0.421021,-0.328247,0.622253,0.57251
1480697731916985,-0.42157,-0.328491,0.622375,0.571838
1480697731947048,-0.421448,-0.328369,0.622559,0.571838
1480697731962088,-0.421448,-0.328125,0.622131,0.572388
1480697731977129,-0.421448,-0.327576,0.621826,0.572998
1480697732002195,-0.422485,-0.327698,0.621155,0.572937
1480697732024756,-0.423157,-0.327942,0.621033,0.572449
1480697732044308,-0.424133,-0.328613,0.620667,0.571716
1480697732068371,-0.425598,-0.329773,0.620056,0.570679
1480697732077395,-0.426575,-0.331116,0.619202,0.570007
1480697732096947,-0.427002,-0.331604,0.618774,0.569946
1480697732127027,-0.427429,-0.331665,0.618591,0.569763
1480697732142068,-0.427429,-0.331604,0.618652,0.569763
1480697732157107,-0.427795,-0.331848,0.61853,0.569458
1480697732179667,-0.427856,-0.332275,0.61853,0.569153
1480697732197717,-0.427551,-0.332703,0.618713,0.568909
1480697732224286,-0.427246,-0.332886,0.619141,0.568604
1480697732240836,-0.42688,-0.332581,0.619263,0.568909
1480697732258878,-0.426758,-0.332397,0.619202,0.569153
1480697732276927,-0.426758,-0.332397,0.619202,0.569214
1480697732308510,-0.426575,-0.332397,0.619385,0.569092
1480697732332072,-0.426147,-0.332153,0.619629,0.569275
1480697732337085,-0.425659,-0.331726,0.619995,0.56958
1480697732359646,-0.425171,-0.331604,0.6203,0.569641
1480697732377193,-0.424866,-0.331482,0.620422,0.569763
1480697732404265,-0.424866,-0.331482,0.620483,0.569763
1480697732426825,-0.425171,-0.331909,0.6203,0.569458
1480697732437853,-0.425537,-0.332275,0.620178,0.569153
1480697732456904,-0.425598,-0.331848,0.620117,0.569336
1480697732479464,-0.425476,-0.33136,0.620239,0.56958
1480697732499517,-0.42511,-0.331177,0.620483,0.569763
1480697732518569,-0.424988,-0.33075,0.620422,0.570129
1480697732556669,-0.425293,-0.329102,0.619873,0.571411
1480697732558678,-0.425476,-0.327026,0.619507,0.572876
1480697732580737,-0.425232,-0.325256,0.619446,0.574097
1480697732606803,-0.425781,-0.325073,0.619324,0.573975
1480697732617331,-0.426453,-0.32605,0.618958,0.573303
1480697732639891,-0.426758,-0.326538,0.618774,0.572998
1480697732659442,-0.425964,-0.326599,0.619019,0.573364
1480697732677492,-0.425293,-0.326721,0.619202,0.573486
1480697732698547,-0.425049,-0.325928,0.619812,0.573547
1480697732720104,-0.424683,-0.325806,0.620117,0.573486
1480697732737149,-0.424316,-0.326233,0.620056,0.573608
1480697732764725,-0.424011,-0.326782,0.619507,0.574097
1480697732789790,-0.424011,-0.327515,0.618958,0.57428
1480697732797312,-0.423645,-0.328369,0.618896,0.574158
1480697732820371,-0.423462,-0.328796,0.61908,0.573853
1480697732839422,-0.422974,-0.328369,0.619446,0.574036
1480697732857469,-0.423218,-0.328369,0.619507,0.573792
1480697732886045,-0.423584,-0.329102,0.619141,0.573486
1480697732899581,-0.423767,-0.329712,0.618835,0.573364
1480697732924650,-0.423645,-0.329895,0.618774,0.573364
1480697732939688,-0.423157,-0.329895,0.618958,0.573608
1480697732962750,-0.422791,-0.329773,0.618958,0.573914
1480697732977288,-0.422485,-0.329529,0.61908,0.574097
1480697732999848,-0.422363,-0.329407,0.61908,0.57428
1480697733019400,-0.421814,-0.329346,0.619202,0.574585
1480697733119666,-0.421631,-0.329712,0.619202,0.574585
1480697733121672,-0.421387,-0.330017,0.619141,0.574524
1480697733156264,-0.42041,-0.328918,0.619812,0.575256
1480697733163786,-0.420166,-0.328613,0.620056,0.575317
1480697733193869,-0.419983,-0.328186,0.620239,0.5755
1480697733199379,-0.419678,-0.327698,0.620422,0.575745
1480697733217427,-0.419434,-0.327576,0.620667,0.575806
1480697733239986,-0.419128,-0.327454,0.620911,0.575806
1480697733259538,-0.418945,-0.327332,0.621277,0.575623
1480697733282099,-0.418701,-0.327087,0.62146,0.575745
1480697733299645,-0.418701,-0.327087,0.62146,0.575745
1480697733327218,-0.418884,-0.327393,0.62146,0.575439
1480697733367827,-0.418945,-0.327698,0.621704,0.574951
1480697733373343,-0.418213,-0.327881,0.62262,0.574402
1480697733386887,-0.416748,-0.327332,0.623962,0.574341
1480697733409938,-0.415344,-0.325928,0.624878,0.575134
1480697733427485,-0.416016,-0.325317,0.624451,0.575439
1480697733444530,-0.418213,-0.326782,0.623291,0.57428
1480697733462076,-0.419922,-0.328735,0.622437,0.572815
1480697733479624,-0.420288,-0.329285,0.622437,0.572327
1480697733500680,-0.420044,-0.328186,0.62262,0.572876
1480697733529256,-0.41925,-0.326965,0.623047,0.573669
1480697733539783,-0.418884,-0.326904,0.623352,0.573608
1480697733562344,-0.418518,-0.327148,0.623535,0.573547
1480697733581896,-0.418091,-0.326965,0.623901,0.573608
1480697733599943,-0.418091,-0.325928,0.623962,0.574158
1480697733622004,-0.417664,-0.324402,0.624268,0.575012
1480697733651080,-0.417114,-0.323364,0.62439,0.575806
1480697733675144,-0.417114,-0.323364,0.62439,0.575806
1480697733688178,-0.417725,-0.324463,0.623901,0.575256
1480697733721266,-0.418396,-0.325684,0.623596,0.574463
1480697733726279,-0.418213,-0.325989,0.623718,0.57428
1480697733741320,-0.417603,-0.325562,0.624023,0.574585
1480697733769395,-0.417236,-0.325195,0.62439,0.574707
1480697733779922,-0.417603,-0.325684,0.62439,0.574158
1480697733802484,-0.417969,-0.326477,0.624146,0.573669
1480697733829554,-0.417969,-0.326782,0.624084,0.573608
1480697733846099,-0.417603,-0.326599,0.624268,0.573792
1480697733863144,-0.417175,-0.326355,0.624573,0.573914
1480697733881693,-0.416992,-0.326294,0.624817,0.573792
1480697733899743,-0.417175,-0.326599,0.624695,0.573608
1480697733922301,-0.417175,-0.326965,0.624573,0.573547
1480697733945363,-0.417175,-0.326965,0.624329,0.573792
1480697733973437,-0.417114,-0.326721,0.624084,0.574219
1480697733982461,-0.417725,-0.327087,0.623474,0.574219
1480697734005523,-0.418762,-0.328064,0.622986,0.573486
1480697734027581,-0.41925,-0.328613,0.622986,0.572815
1480697734052650,-0.419067,-0.32843,0.623169,0.572876
1480697734072200,-0.418274,-0.327698,0.623413,0.573547
1480697734100776,-0.417969,-0.327454,0.623596,0.57373
1480697734110803,-0.418152,-0.327698,0.62384,0.573181
1480697734129853,-0.418213,-0.327942,0.623657,0.573181
1480697734139880,-0.418396,-0.328186,0.623108,0.573547
1480697734162440,-0.418945,-0.328674,0.622559,0.573425
1480697734189512,-0.420044,-0.329712,0.621887,0.572815
1480697734200040,-0.420471,-0.330078,0.621704,0.572449
1480697734228616,-0.42041,-0.329468,0.622009,0.57251
1480697734246162,-0.420105,-0.329163,0.622009,0.572876
1480697734288775,-0.420105,-0.329468,0.621948,0.572754
1480697734309832,-0.42041,-0.329895,0.621887,0.572388
1480697734327880,-0.420654,-0.330078,0.621765,0.572266
1480697734331891,-0.421082,-0.330017,0.62146,0.572327
1480697734357458,-0.421509,-0.3302,0.621094,0.572266
1480697734361970,-0.421753,-0.330078,0.62085,0.572449
1480697734380019,-0.421997,-0.329712,0.620789,0.57251
1480697734402578,-0.422424,-0.329651,0.62085,0.572205
1480697734423634,-0.422668,-0.329834,0.620972,0.571777
1480697734440679,-0.422668,-0.329834,0.620972,0.571777
1480697734462237,-0.422668,-0.329834,0.620972,0.571777
1480697734499336,-0.422791,-0.3302,0.620667,0.571777
1480697734504349,-0.422913,-0.330627,0.620422,0.571777
1480697734522397,-0.423157,-0.330688,0.620422,0.571533
1480697734544957,-0.422974,-0.330688,0.620422,0.571655
1480697734583573,-0.422974,-0.330444,0.620544,0.571655
1480697734588573,-0.423401,-0.330627,0.6203,0.571533
1480697734603613,-0.424011,-0.331177,0.619934,0.571106
1480697734640712,-0.424011,-0.331177,0.619934,0.571106
1480697734649737,-0.424011,-0.330933,0.620056,0.571167
1480697734663271,-0.423828,-0.330444,0.620178,0.571472
1480697734684327,-0.423828,-0.3302,0.6203,0.571472
1480697734702375,-0.423828,-0.330139,0.6203,0.571472
1480697734725436,-0.423767,-0.330139,0.6203,0.571472
1480697734744488,-0.423767,-0.330078,0.620361,0.571472
1480697734762536,-0.423584,-0.330261,0.620544,0.571289
1480697734801138,-0.423157,-0.329834,0.620972,0.571411
1480697734827207,-0.422852,-0.32959,0.621216,0.571533
1480697734842750,-0.422546,-0.330017,0.621155,0.571594
1480697734859794,-0.422546,-0.330017,0.621094,0.571594
1480697734864307,-0.422546,-0.330078,0.621094,0.571594
1480697734882354,-0.422729,-0.329773,0.621094,0.571594
1480697734909427,-0.422791,-0.329773,0.621094,0.571594
1480697734927473,-0.422974,-0.329956,0.620972,0.571472
1480697734942514,-0.422974,-0.329956,0.620972,0.571472
1480697734966077,-0.422974,-0.329956,0.620972,0.571472
1480697734984625,-0.422852,-0.329529,0.621155,0.571594
1480697735002176,-0.422729,-0.329102,0.621399,0.571655
1480697735032252,-0.422546,-0.328918,0.621521,0.571777
1480697735052807,-0.422363,-0.328857,0.621704,0.571777
1480697735062333,-0.422119,-0.328796,0.621887,0.571838
1480697735114471,-0.421692,-0.328491,0.62207,0.572083
1480697735121490,-0.421448,-0.328064,0.622314,0.572205
1480697735126003,-0.421509,-0.328064,0.622498,0.572021
1480697735147563,-0.42157,-0.328308,0.622925,0.57135
1480697735164605,-0.420837,-0.327698,0.623413,0.571655
1480697735181650,-0.420471,-0.327148,0.623535,0.572144
1480697735204209,-0.420654,-0.327393,0.623352,0.572083
1480697735225267,-0.420898,-0.327576,0.623352,0.571777
1480697735241309,-0.421204,-0.327576,0.623657,0.571228
1480697735264372,-0.42041,-0.327515,0.625183,0.57019
1480697735286428,-0.418396,-0.32666,0.626587,0.570618
1480697735301472,-0.417664,-0.325378,0.626526,0.57196
1480697735324030,-0.419739,-0.325928,0.625183,0.571594
1480697735346087,-0.422424,-0.328125,0.623901,0.569702
1480697735370652,-0.424194,-0.330139,0.622986,0.568237
1480697735392711,-0.424927,-0.330872,0.622559,0.567749
1480697735414770,-0.424622,-0.330383,0.622681,0.568176
1480697735422791,-0.424622,-0.330322,0.622681,0.568176
1480697735444850,-0.424683,-0.330627,0.62262,0.567993
1480697735464902,-0.424866,-0.330933,0.622375,0.567932
1480697735481447,-0.424988,-0.331482,0.622253,0.567688
1480697735504508,-0.424988,-0.331665,0.622314,0.567505
1480697735525063,-0.425049,-0.331604,0.622314,0.567505
1480697735547625,-0.425049,-0.331665,0.622314,0.567444
1480697735564668,-0.425049,-0.331299,0.622253,0.567749
1480697735587228,-0.424805,-0.330322,0.622498,0.568298
1480697735601767,-0.424011,-0.329407,0.622986,0.568848
1480697735631346,-0.423462,-0.329041,0.623352,0.569031
1480697735670450,-0.423096,-0.328674,0.623657,0.569214
1480697735674962,-0.422791,-0.327881,0.623901,0.56958
1480697735683985,-0.421814,-0.326355,0.624512,0.570496
1480697735714567,-0.420532,-0.325134,0.625183,0.571533
1480697735727601,-0.419678,-0.324524,0.625549,0.572083
1480697735744146,-0.419678,-0.324951,0.625427,0.571899
1480697735766706,-0.420166,-0.326233,0.625122,0.571167
1480697735780744,-0.419922,-0.32666,0.625,0.571228
1480697735809820,-0.419373,-0.326111,0.625305,0.571594
1480697735826364,-0.419067,-0.325745,0.62561,0.571716
1480697735841906,-0.41925,-0.32605,0.625732,0.571289
1480697735865969,-0.419617,-0.326477,0.62561,0.570923
1480697735887026,-0.419556,-0.326782,0.625549,0.570801
1480697735907581,-0.419373,-0.326965,0.625549,0.570862
1480697735924125,-0.419373,-0.327026,0.625549,0.570862
1480697735947189,-0.41925,-0.327148,0.625671,0.57074
1480697735969245,-0.419312,-0.327087,0.625671,0.570679
1480697735984285,-0.419312,-0.327332,0.62561,0.570618
1480697736012359,-0.419312,-0.327332,0.62561,0.570618
1480697736027399,-0.419312,-0.327332,0.62561,0.570618
1480697736043943,-0.419373,-0.327515,0.62561,0.570496
1480697736074024,-0.419373,-0.327515,0.62561,0.570496
1480697736081042,-0.41925,-0.327393,0.625671,0.570618
1480697736104103,-0.419067,-0.327209,0.625854,0.570618
1480697736134183,-0.419067,-0.327454,0.625732,0.570618
1480697736140701,-0.419189,-0.327759,0.62561,0.570496
1480697736164262,-0.419373,-0.328064,0.625488,0.570313
1480697736224423,-0.419434,-0.328064,0.625488,0.570313
1480697736230941,-0.419434,-0.328064,0.625488,0.570251
1480697736247486,-0.419495,-0.328064,0.625488,0.570251
1480697736267537,-0.419495,-0.328003,0.625488,0.570251
1480697736293106,-0.419434,-0.328308,0.625488,0.570129
1480697736307644,-0.419373,-0.328613,0.625427,0.570007
1480697736337223,-0.419189,-0.328796,0.625488,0.570007
1480697736344242,-0.419006,-0.328796,0.62561,0.570007
1480697736366300,-0.418823,-0.328613,0.625732,0.570129
1480697736390364,-0.418884,-0.328613,0.625732,0.570129
1480697736403901,-0.418945,-0.328674,0.625732,0.569946
1480697736426460,-0.419189,-0.328979,0.62561,0.569763
1480697736463562,-0.419189,-0.329041,0.62561,0.569763
1480697736489628,-0.419067,-0.328796,0.625671,0.569885
1480697736494140,-0.418945,-0.328674,0.625732,0.569946
1480697736507676,-0.418945,-0.328674,0.625732,0.569946
1480697736524220,-0.419006,-0.328857,0.625732,0.569824
1480697736547785,-0.419006,-0.328857,0.625732,0.569824
1480697736567836,-0.419006,-0.328857,0.625732,0.569824
1480697736583879,-0.419006,-0.328857,0.625732,0.569824
1480697736606941,-0.419006,-0.328857,0.625732,0.569824
1480697736630003,-0.418823,-0.328918,0.625854,0.569824
1480697736644039,-0.418823,-0.328918,0.625854,0.569824
1480697736666598,-0.41864,-0.329041,0.625854,0.569824
1480697736690162,-0.41864,-0.329041,0.625854,0.569824
1480697736728262,-0.418579,-0.329163,0.625916,0.569763
1480697736751324,-0.418579,-0.329163,0.625916,0.569763
1480697736779398,-0.418579,-0.329163,0.625916,0.569763
1480697736781906,-0.41864,-0.329163,0.625916,0.569763
1480697736795942,-0.41864,-0.329163,0.625916,0.569763
1480697736808978,-0.41864,-0.329163,0.625916,0.569702
1480697736823516,-0.418701,-0.329224,0.625854,0.569702
1480697736846583,-0.418518,-0.329163,0.625854,0.569885
1480697736869138,-0.418152,-0.328918,0.625977,0.57019
1480697736883174,-0.417969,-0.328735,0.626099,0.570251
1480697736906737,-0.417969,-0.328674,0.626099,0.570313
1480697736929300,-0.417969,-0.328979,0.626099,0.570129
1480697736966897,-0.417969,-0.328979,0.626099,0.570129
1480697736970406,-0.417847,-0.328857,0.626099,0.570313
1480697737018535,-0.417542,-0.328674,0.626282,0.570374
1480697737028062,-0.417358,-0.328674,0.626465,0.570374
1480697737049116,-0.417358,-0.32843,0.626709,0.57019
1480697737051622,-0.417908,-0.328552,0.626465,0.570007
1480697737063654,-0.419067,-0.329529,0.625916,0.569214
1480697737092731,-0.419617,-0.3302,0.625732,0.568665
1480697737115292,-0.419739,-0.330139,0.625671,0.568665
1480697737131334,-0.420044,-0.329834,0.625732,0.568542
1480697737146877,-0.420044,-0.329834,0.625732,0.568542
1480697737169938,-0.420227,-0.329773,0.625671,0.568481
1480697737189990,-0.420593,-0.330017,0.625488,0.568298
1480697737206537,-0.420837,-0.330078,0.625427,0.568115
1480697737229094,-0.421021,-0.329285,0.625183,0.568726
1480697737250150,-0.421143,-0.327698,0.625366,0.569336
1480697737274214,-0.420166,-0.325989,0.625793,0.570557
1480697737296778,-0.419373,-0.324951,0.62616,0.57135
1480697737317329,-0.419373,-0.32489,0.626221,0.57135
1480697737326352,-0.419739,-0.3255,0.625854,0.571106
1480697737349916,-0.420288,-0.325806,0.62561,0.570801
1480697737369974,-0.420349,-0.325806,0.62561,0.57074
1480697737397044,-0.420288,-0.325745,0.62561,0.570801
1480697737416593,-0.420166,-0.325684,0.625732,0.570862
1480697737438651,-0.420166,-0.325684,0.625732,0.570862
1480697737447676,-0.420288,-0.326111,0.625732,0.570435
1480697737469233,-0.420288,-0.326477,0.625732,0.57019
1480697737490289,-0.420288,-0.326477,0.625732,0.57019
1480697737507837,-0.420349,-0.326477,0.625793,0.57019
1480697737530397,-0.420349,-0.326477,0.625793,0.57019
1480697737558972,-0.420349,-0.326477,0.625732,0.57019
1480697737574514,-0.420349,-0.326477,0.625732,0.57019
1480697737613618,-0.420349,-0.326477,0.625732,0.57019
1480697737628155,-0.420288,-0.326477,0.625793,0.57019
1480697737632670,-0.420532,-0.32666,0.625732,0.570007
1480697737649713,-0.420898,-0.327087,0.625488,0.569702
1480697737673778,-0.420898,-0.327148,0.625488,0.569702
1480697737686812,-0.420837,-0.327148,0.625549,0.569641
1480697737708871,-0.420776,-0.326782,0.62561,0.569824
1480697737732432,-0.420837,-0.326843,0.625366,0.570007
1480697737752486,-0.421021,-0.327209,0.625,0.570129
1480697737770034,-0.421326,-0.327271,0.624817,0.570068
1480697737792593,-0.421204,-0.32666,0.624695,0.570618
1480697737806632,-0.42218,-0.326904,0.624329,0.57019
1480697737829190,-0.422913,-0.327454,0.624268,0.569397
1480697737857766,-0.422729,-0.327332,0.624207,0.56958
1480697737905393,-0.422424,-0.326904,0.62439,0.569885
1480697737918428,-0.42218,-0.326538,0.624634,0.570068
1480697737934470,-0.42218,-0.326538,0.624634,0.570068
1480697737936977,-0.422241,-0.327026,0.624573,0.569824
1480697737957030,-0.422485,-0.327332,0.624573,0.569458
1480697737971569,-0.422241,-0.327332,0.624695,0.569458
1480697737994128,-0.421997,-0.327148,0.624756,0.569702
1480697738017191,-0.421997,-0.327148,0.624756,0.569702
1480697738060304,-0.422363,-0.327209,0.624695,0.569458
1480697738069329,-0.422729,-0.327515,0.625,0.568665
1480697738083868,-0.42218,-0.327698,0.626099,0.56781
1480697738114449,-0.420898,-0.326782,0.626831,0.568481
1480697738116955,-0.421387,-0.326416,0.626404,0.568726
1480697738135003,-0.422974,-0.327637,0.625916,0.567383
1480697738167590,-0.422852,-0.328064,0.625977,0.5672
1480697738172604,-0.42218,-0.326782,0.626282,0.568115
1480697738189148,-0.421143,-0.324951,0.626587,0.569519
1480697738213211,-0.420105,-0.323914,0.627014,0.570496
1480697738249308,-0.420105,-0.324219,0.627014,0.570313
1480697738256326,-0.420593,-0.325256,0.626648,0.569763
1480697738271867,-0.421021,-0.32605,0.626343,0.569275
1480697738293928,-0.421082,-0.326294,0.62616,0.569336
1480697738308967,-0.420715,-0.325745,0.626282,0.569763
1480697738331525,-0.420654,-0.325317,0.626282,0.570007
1480697738352582,-0.421021,-0.325806,0.626038,0.569763
1480697738392689,-0.42157,-0.326355,0.625793,0.569336
1480697738413747,-0.421875,-0.326599,0.625671,0.569092
1480697738446331,-0.421814,-0.32666,0.62561,0.569153
1480697738451846,-0.421814,-0.32666,0.62561,0.569214
1480697738454352,-0.421814,-0.32666,0.62561,0.569153
1480697738472902,-0.421631,-0.326904,0.62561,0.569153
1480697738489948,-0.421631,-0.326904,0.62561,0.569153
1480697738511504,-0.421631,-0.326904,0.62561,0.569153
1480697738534064,-0.421753,-0.327087,0.625427,0.569092
1480697738556624,-0.422302,-0.327576,0.625061,0.568848
1480697738586704,-0.422852,-0.32782,0.624756,0.568665
1480697738596234,-0.423157,-0.327942,0.624756,0.568359
1480697738616283,-0.423157,-0.327881,0.625,0.568115
1480697738638843,-0.422913,-0.327576,0.625183,0.568298
1480697738668922,-0.422913,-0.327576,0.625183,0.568298
1480697738671430,-0.423096,-0.328125,0.624939,0.568115
1480697738691484,-0.423279,-0.328674,0.624695,0.567932
1480697738730587,-0.423401,-0.328735,0.624634,0.567871
1480697738743120,-0.423401,-0.328735,0.624634,0.567871
1480697738753147,-0.423401,-0.328674,0.624695,0.567871
1480697738781723,-0.423462,-0.328857,0.624634,0.567749
1480697738788240,-0.423462,-0.329224,0.624573,0.567627
1480697738811302,-0.423462,-0.329224,0.624512,0.567627
1480697738833862,-0.423462,-0.329224,0.624512,0.567627
1480697738849403,-0.423462,-0.329224,0.624512,0.567627
1480697738872966,-0.423706,-0.329346,0.624512,0.567383
1480697738895025,-0.424011,-0.329651,0.62439,0.567139
1480697738915077,-0.424011,-0.329712,0.62439,0.567139
1480697738939643,-0.424011,-0.329712,0.62439,0.567139
1480697739007324,-0.423889,-0.329407,0.624573,0.5672
1480697739016347,-0.42395,-0.329346,0.624573,0.567139
1480697739030384,-0.42395,-0.329407,0.624573,0.567139
1480697739034897,-0.423645,-0.329224,0.624573,0.567444
1480697739052443,-0.423462,-0.328857,0.624634,0.567749
1480697739074000,-0.423462,-0.328796,0.624695,0.567688
1480697739095057,-0.423523,-0.329041,0.624634,0.567566
1480697739118118,-0.423584,-0.329285,0.624695,0.567383
1480697739141681,-0.423584,-0.329285,0.624634,0.567383
1480697739162740,-0.423462,-0.329224,0.624634,0.567505
1480697739177777,-0.423523,-0.329163,0.624573,0.567566
1480697739199834,-0.423462,-0.329041,0.624695,0.567627
1480697739216381,-0.423523,-0.328979,0.624695,0.567566
1480697739238939,-0.423828,-0.329346,0.624573,0.567322
1480697739268016,-0.42395,-0.329224,0.624512,0.567322
1480697739297093,-0.424866,-0.329407,0.624023,0.567017
1480697739308125,-0.425232,-0.329956,0.624207,0.566284
1480697739314642,-0.426025,-0.330566,0.62384,0.565674
1480697739334693,-0.427307,-0.331726,0.623291,0.564697
1480697739351237,-0.427795,-0.332275,0.62262,0.564697
1480697739374299,-0.427612,-0.331604,0.622925,0.56488
1480697739394855,-0.42749,-0.331177,0.623108,0.565002
1480697739411397,-0.427673,-0.331482,0.623108,0.564697
1480697739433958,-0.427673,-0.331665,0.623291,0.564453
1480697739455514,-0.427185,-0.331482,0.62384,0.564331
1480697739471557,-0.42627,-0.330933,0.62439,0.564697
1480697739496626,-0.425537,-0.330627,0.624573,0.565186
1480697739517680,-0.425415,-0.330811,0.624756,0.565063
1480697739554277,-0.425354,-0.330994,0.624939,0.564758
1480697739557787,-0.425354,-0.331177,0.625,0.564575
1480697739609426,-0.424988,-0.330872,0.624939,0.565125
1480697739613440,-0.424866,-0.329956,0.624939,0.565735
1480697739628976,-0.424561,-0.328125,0.625366,0.566528
1480697739636496,-0.423584,-0.326294,0.625977,0.567688
1480697739651536,-0.423584,-0.326294,0.626099,0.567566
1480697739674096,-0.424072,-0.327454,0.625854,0.566772
1480697739696657,-0.424072,-0.328369,0.625854,0.566223
1480697739710693,-0.42334,-0.328369,0.62616,0.566467
1480697739747792,-0.422852,-0.32782,0.626343,0.566895
1480697739756315,-0.422791,-0.327759,0.626221,0.567139
1480697739800432,-0.423035,-0.328369,0.625977,0.566895
1480697739824495,-0.423462,-0.329102,0.625916,0.566223
1480697739827003,-0.423645,-0.329407,0.625977,0.565857
1480697739840539,-0.423462,-0.329285,0.626038,0.565979
1480697739860090,-0.423462,-0.329285,0.626038,0.565979
1480697739884656,-0.423401,-0.329529,0.626038,0.565796
1480697739897691,-0.42334,-0.329956,0.625977,0.565674
1480697739921755,-0.42334,-0.329956,0.625977,0.565735
1480697739937797,-0.42334,-0.329956,0.625977,0.565735
1480697739951390,-0.42334,-0.329956,0.625977,0.565674
1480697739979913,-0.423279,-0.329895,0.626099,0.565674
1480697740020518,-0.423279,-0.329895,0.626099,0.565674
1480697740025029,-0.423279,-0.329956,0.626099,0.565613
1480697740034053,-0.423401,-0.330139,0.625977,0.565552
1480697740071653,-0.423584,-0.330444,0.625793,0.565491
1480697740077168,-0.423584,-0.330444,0.625793,0.565491
1480697740102235,-0.423584,-0.330444,0.625793,0.565491
1480697740122288,-0.423584,-0.330444,0.625793,0.56543
1480697740145349,-0.423828,-0.330566,0.625732,0.565308
1480697740161393,-0.423828,-0.330505,0.625732,0.565247
1480697740176432,-0.423889,-0.330505,0.625732,0.565247
1480697740197989,-0.423645,-0.330383,0.625793,0.56543
1480697740224559,-0.42334,-0.330383,0.625732,0.565735
1480697740236591,-0.42334,-0.330383,0.625732,0.565735
1480697740260154,-0.42334,-0.330383,0.625732,0.565735
1480697740305274,-0.423035,-0.330505,0.625732,0.565918
1480697740309786,-0.423035,-0.330444,0.625732,0.565918
1480697740321317,-0.422852,-0.330627,0.625732,0.565918
1480697740347386,-0.422852,-0.330627,0.625732,0.565918
1480697740356410,-0.422852,-0.330688,0.625732,0.565918
1480697740394511,-0.422852,-0.330688,0.625732,0.565918
1480697740400027,-0.422852,-0.330688,0.625671,0.565979
1480697740417573,-0.422668,-0.330444,0.625793,0.566162
1480697740440635,-0.422668,-0.330078,0.625977,0.566101
1480697740453168,-0.422729,-0.330017,0.626038,0.566101
1480697740476733,-0.422791,-0.3302,0.625977,0.565979
1480697740499791,-0.422791,-0.3302,0.625977,0.565979
1480697740513829,-0.422791,-0.330261,0.625977,0.565979
1480697740549925,-0.422729,-0.3302,0.625977,0.565979
1480697740564965,-0.422729,-0.3302,0.625977,0.565979
1480697740581007,-0.422729,-0.3302,0.625977,0.565979
1480697740602566,-0.422729,-0.330261,0.625977,0.565979
1480697740626629,-0.422729,-0.330261,0.625977,0.565979
1480697740633147,-0.422729,-0.330261,0.625977,0.565979
1480697740662728,-0.422729,-0.330261,0.625977,0.565979
1480697740679271,-0.422729,-0.330261,0.625977,0.565979
1480697740693306,-0.422729,-0.330261,0.625977,0.565979
1480697740716368,-0.422791,-0.330261,0.625977,0.565979
1480697740740432,-0.422791,-0.330261,0.625977,0.565979
1480697740761989,-0.422791,-0.330261,0.625977,0.565979
1480697740776531,-0.422791,-0.330261,0.625977,0.565979
1480697740799088,-0.422791,-0.330261,0.625977,0.565979
1480697740813128,-0.422791,-0.330261,0.625977,0.565979
1480697740836688,-0.422791,-0.330261,0.625977,0.565979
1480697740865264,-0.422791,-0.330261,0.625977,0.565979
1480697740880304,-0.422791,-0.330261,0.625977,0.565979
1480697740902864,-0.422791,-0.330261,0.625977,0.565979
1480697740918907,-0.422791,-0.330261,0.625977,0.565979
1480697740941475,-0.422791,-0.330261,0.625977,0.565979
1480697740972558,-0.422791,-0.330261,0.625977,0.565979
1480697740980579,-0.422791,-0.330261,0.625977,0.565979
1480697741000131,-0.422791,-0.329834,0.626038,0.566162
1480697741017177,-0.422852,-0.329407,0.625977,0.566467
1480697741039235,-0.422791,-0.329102,0.625916,0.566711
1480697741060290,-0.422913,-0.328918,0.625977,0.56665
1480697741076334,-0.422791,-0.328674,0.62616,0.56665
1480697741098893,-0.422607,-0.32843,0.626221,0.566833
1480697741122458,-0.422302,-0.328125,0.626404,0.567139
1480697741136494,-0.422302,-0.328125,0.626404,0.567139
1480697741161060,-0.422302,-0.328186,0.626343,0.567139
1480697741182115,-0.42218,-0.328003,0.626404,0.567261
1480697741196153,-0.422241,-0.327759,0.626526,0.5672
1480697741219213,-0.421997,-0.327576,0.62677,0.5672
1480697741240270,-0.421814,-0.327271,0.627014,0.567261
1480697741263833,-0.421997,-0.327209,0.627441,0.566711
1480697741286392,-0.421631,-0.327087,0.628296,0.566101
1480697741307448,-0.420898,-0.326782,0.62915,0.565857
1480697741317976,-0.42041,-0.32666,0.629822,0.565552
1480697741339032,-0.420349,-0.326294,0.630432,0.565125
1480697741360590,-0.420471,-0.326172,0.631104,0.564331
1480697741378638,-0.42041,-0.32605,0.631958,0.563477
1480697741399192,-0.419739,-0.325867,0.632813,0.563171
1480697741436293,-0.419128,-0.325439,0.633545,0.563049
1480697741445315,-0.418579,-0.325256,0.634155,0.562866
1480697741460354,-0.417725,-0.325012,0.634705,0.562988
1480697741490936,-0.417175,-0.325073,0.635254,0.562805
1480697741496952,-0.416565,-0.325012,0.63562,0.562805
1480697741534051,-0.416199,-0.324524,0.635986,0.562988
1480697741541070,-0.41626,-0.324158,0.636047,0.56311
1480697741557113,-0.416931,-0.324646,0.635803,0.562561
1480697741580675,-0.417419,-0.325134,0.635498,0.562256
1480697741610254,-0.417419,-0.325195,0.635498,0.562256
1480697741615768,-0.417297,-0.324707,0.635498,0.562622
1480697741638830,-0.416748,-0.324402,0.635559,0.56311
1480697741661389,-0.416809,-0.324524,0.635437,0.563171
1480697741675929,-0.416748,-0.324768,0.635559,0.562927
1480697741712528,-0.416748,-0.324951,0.635559,0.562866
1480697741723555,-0.416565,-0.324951,0.635681,0.562805
1480697741744110,-0.416626,-0.325378,0.635559,0.562683
1480697741772685,-0.416748,-0.325989,0.635315,0.5625
1480697741787224,-0.416565,-0.325928,0.635315,0.562683
1480697741826829,-0.416321,-0.325623,0.635376,0.562988
1480697741829336,-0.416321,-0.325745,0.635315,0.562927
1480697741841369,-0.41626,-0.326172,0.635132,0.562927
1480697741862925,-0.41626,-0.326172,0.635132,0.562927
1480697741887490,-0.416321,-0.326111,0.63501,0.56311
1480697741901527,-0.416504,-0.326294,0.634949,0.562927
1480697741923085,-0.416504,-0.326294,0.634949,0.562927
1480697741952664,-0.416626,-0.326355,0.634644,0.563171
1480697741994777,-0.416748,-0.326172,0.634521,0.563293
1480697741999790,-0.416992,-0.326355,0.634399,0.56311
1480697742001794,-0.417236,-0.326721,0.634216,0.562866
1480697742029370,-0.417297,-0.326721,0.634216,0.562866
1480697742042403,-0.417114,-0.326416,0.634094,0.563354
1480697742059949,-0.417297,-0.326355,0.63385,0.563538
1480697742082008,-0.417664,-0.326416,0.633606,0.563477
1480697742102563,-0.418091,-0.326599,0.63324,0.563477
1480697742120612,-0.418518,-0.326965,0.63269,0.563538
1480697742141667,-0.419189,-0.327454,0.63208,0.563477
1480697742162726,-0.419861,-0.328003,0.63147,0.563293
1480697742188291,-0.42041,-0.328369,0.630981,0.563293
1480697742208845,-0.420593,-0.328491,0.630676,0.563416
1480697742222463,-0.420715,-0.328003,0.630493,0.563782
1480697742252542,-0.421509,-0.328308,0.629944,0.56366
1480697742267582,-0.422546,-0.329163,0.629272,0.56311
1480697742299669,-0.423828,-0.329712,0.628418,0.562805
1480697742302175,-0.424805,-0.330078,0.627991,0.562317
1480697742321727,-0.424866,-0.330444,0.628113,0.56189
1480697742344788,-0.425842,-0.330688,0.627441,0.561768
1480697742359327,-0.427795,-0.331848,0.626343,0.560852
1480697742381387,-0.42926,-0.332947,0.624878,0.560669
1480697742403947,-0.430176,-0.332336,0.624268,0.561035
1480697742426506,-0.42981,-0.330078,0.624573,0.562256
1480697742441546,-0.429321,-0.329102,0.625,0.562805
1480697742470122,-0.428833,-0.32959,0.625,0.562866
1480697742478143,-0.429321,-0.33075,0.624756,0.562134
1480697742509226,-0.429932,-0.332214,0.62439,0.561157
1480697742524265,-0.430176,-0.332764,0.624268,0.56073
1480697742544820,-0.430115,-0.333008,0.624329,0.560669
1480697742568884,-0.42981,-0.333069,0.624512,0.560608
1480697742598963,-0.429565,-0.33313,0.624756,0.560486
1480697742601471,-0.429565,-0.33313,0.624756,0.560486
1480697742621524,-0.429565,-0.33313,0.624756,0.560486
1480697742652105,-0.429688,-0.333313,0.624634,0.560364
1480697742658122,-0.42981,-0.333557,0.624634,0.560181
1480697742689204,-0.429932,-0.33374,0.624756,0.559875
1480697742718782,-0.429932,-0.33374,0.624756,0.559875
1480697742721289,-0.429688,-0.333435,0.624634,0.560303
1480697742749364,-0.429382,-0.333435,0.624573,0.560669
1480697742769918,-0.429016,-0.333435,0.624695,0.560791
1480697742792478,-0.428711,-0.333435,0.624756,0.560974
1480697742809023,-0.428772,-0.333679,0.624756,0.560791
1480697742824063,-0.429016,-0.333984,0.624634,0.560486
1480697742845119,-0.429382,-0.333984,0.624451,0.560486
1480697742876702,-0.42981,-0.334229,0.624146,0.560303
1480697742891743,-0.429871,-0.334229,0.624146,0.560303
1480697742904777,-0.429565,-0.333801,0.62439,0.560486
1480697742921321,-0.429626,-0.333496,0.62439,0.560669
1480697742943881,-0.429626,-0.333435,0.62439,0.560669
1480697742964938,-0.429626,-0.333679,0.624451,0.560425
1480697742981482,-0.429626,-0.333618,0.624451,0.560425
1480697743004041,-0.429382,-0.333618,0.624573,0.560547
1480697743026601,-0.428955,-0.333374,0.624817,0.560791
1480697743047657,-0.428589,-0.333008,0.625,0.560974
1480697743070718,-0.428467,-0.333069,0.625244,0.560791
1480697743085758,-0.428345,-0.33313,0.625427,0.560669
1480697743102302,-0.428406,-0.333069,0.625488,0.560608
1480697743123860,-0.428223,-0.332947,0.625671,0.560669
1480697743146922,-0.427979,-0.332886,0.625793,0.56073
1480697743176499,-0.427734,-0.333191,0.625732,0.56073
1480697743191539,-0.427612,-0.333496,0.625671,0.56073
1480697743204574,-0.427673,-0.333557,0.625671,0.560669
1480697743221620,-0.427734,-0.333557,0.625671,0.560669
1480697743244180,-0.427795,-0.333496,0.625671,0.560608
1480697743266238,-0.427795,-0.333557,0.625671,0.560608
1480697743295318,-0.427795,-0.333557,0.625671,0.560608
1480697743303838,-0.427551,-0.333313,0.625793,0.560791
1480697743333918,-0.427246,-0.332764,0.625977,0.561157
1480697743342442,-0.427429,-0.332642,0.62616,0.560852
1480697743372022,-0.427185,-0.332336,0.626892,0.560425
1480697743386559,-0.426086,-0.331665,0.627625,0.560791
1480697743401096,-0.425232,-0.331238,0.628113,0.561157
1480697743444713,-0.425232,-0.331238,0.628113,0.561157
1480697743463264,-0.425354,-0.331604,0.628235,0.56073
1480697743472788,-0.425171,-0.331848,0.628479,0.560364
1480697743483817,-0.424805,-0.331848,0.629028,0.56012
1480697743506377,-0.42395,-0.331238,0.629822,0.560242
1480697743527935,-0.422852,-0.329956,0.630615,0.560852
1480697743544505,-0.422546,-0.329407,0.631042,0.560974
1480697743566537,-0.423035,-0.329834,0.630981,0.560425
1480697743588596,-0.423401,-0.330505,0.630798,0.559937
1480697743609151,-0.423645,-0.330811,0.630798,0.559631
1480697743627199,-0.423645,-0.330872,0.630859,0.559448
1480697743656275,-0.423706,-0.330872,0.630859,0.559448
1480697743663795,-0.423706,-0.330872,0.630859,0.559448
1480697743686356,-0.423828,-0.331116,0.630737,0.559387
1480697743702398,-0.423889,-0.331238,0.630676,0.559265
1480697743724456,-0.423889,-0.331238,0.630676,0.559265
1480697743747017,-0.42395,-0.331238,0.630676,0.559265
1480697743769076,-0.42395,-0.331177,0.630676,0.559265
1480697743785620,-0.42395,-0.331238,0.630676,0.559265
1480697743806677,-0.424011,-0.331177,0.630676,0.559204
1480697743827733,-0.424072,-0.331421,0.630554,0.559143
1480697743843774,-0.424072,-0.331482,0.630554,0.559143
1480697743866334,-0.424133,-0.331238,0.630493,0.559265
1480697743887891,-0.424133,-0.330872,0.630615,0.559387
1480697743904435,-0.424194,-0.330872,0.630615,0.559387
1480697743926493,-0.424072,-0.330933,0.630737,0.559204
1480697743955070,-0.424072,-0.330933,0.630798,0.559204
1480697743979138,-0.424011,-0.330627,0.630981,0.559265
1480697743986654,-0.424133,-0.330444,0.631287,0.558899
1480697744015231,-0.424133,-0.330811,0.631592,0.55835
1480697744024254,-0.424011,-0.331238,0.631775,0.557922
1480697744046313,-0.42395,-0.331604,0.631714,0.5578
1480697744067368,-0.423706,-0.331543,0.631836,0.557922
1480697744083913,-0.423401,-0.331116,0.63208,0.558167
1480697744106974,-0.423462,-0.330933,0.632324,0.557922
1480697744127529,-0.423401,-0.331116,0.632446,0.557739
1480697744144574,-0.423706,-0.331665,0.632507,0.557129
1480697744166633,-0.423096,-0.331787,0.63324,0.556641
1480697744187688,-0.422241,-0.331421,0.634155,0.556519
1480697744211756,-0.421265,-0.331055,0.634949,0.556519
1480697744241332,-0.420532,-0.330627,0.635742,0.556458
1480697744262387,-0.419922,-0.329773,0.636414,0.556702
1480697744277427,-0.4198,-0.329712,0.636719,0.556458
1480697744299987,-0.419495,-0.330261,0.637024,0.555969
1480697744309012,-0.419128,-0.330322,0.637512,0.555664
1480697744325053,-0.418152,-0.329651,0.638367,0.555786
1480697744347614,-0.417419,-0.329346,0.639343,0.55542
1480697744371678,-0.416321,-0.329163,0.640381,0.555237
1480697744383710,-0.415833,-0.328918,0.641785,0.554016
1480697744407775,-0.4151,-0.329651,0.644226,0.551392
1480697744429331,-0.412964,-0.331299,0.647217,0.548462
1480697744443368,-0.409485,-0.33136,0.64978,0.547974
1480697744466931,-0.407227,-0.32959,0.651123,0.549133
1480697744488990,-0.406189,-0.327332,0.651611,0.550659
1480697744511550,-0.406738,-0.32666,0.651245,0.551147
1480697744526590,-0.406982,-0.327148,0.650146,0.551941
1480697744549651,-0.407532,-0.328369,0.649048,0.552124
1480697744572212,-0.407471,-0.328369,0.648193,0.553101
1480697744587252,-0.407593,-0.327576,0.6474,0.554504
1480697744625352,-0.408752,-0.327209,0.646545,0.554749
1480697744632873,-0.409973,-0.327026,0.645752,0.554932
1480697744646411,-0.411255,-0.327454,0.644653,0.555054
1480697744668969,-0.412598,-0.328552,0.643005,0.555298
1480697744685011,-0.413818,-0.329651,0.641113,0.555908
1480697744721608,-0.41571,-0.329956,0.639465,0.556213
1480697744729128,-0.416748,-0.329346,0.638916,0.556458
1480697744750184,-0.417542,-0.329224,0.638489,0.556396
1480697744766228,-0.418213,-0.329895,0.638062,0.55603
1480697744835410,-0.41803,-0.330322,0.637573,0.556458
1480697744855464,-0.418152,-0.330383,0.636902,0.557068
1480697744895574,-0.419067,-0.330261,0.63623,0.55719
1480697744901587,-0.419922,-0.330994,0.635559,0.556885
1480697744909107,-0.420105,-0.331726,0.634949,0.557007
1480697744930163,-0.419983,-0.331177,0.635254,0.557129
1480697744946707,-0.419617,-0.331299,0.636047,0.556396
1480697744971273,-0.418701,-0.331238,0.63678,0.556335
1480697744989821,-0.419617,-0.330444,0.636108,0.556763
1480697745006365,-0.42157,-0.330688,0.634827,0.556702
1480697745028925,-0.423523,-0.331787,0.633057,0.556519
1480697745066024,-0.421509,-0.329041,0.634033,0.558594
1480697745074046,-0.420166,-0.326843,0.63501,0.559814
1480697745112149,-0.420044,-0.327393,0.634888,0.559753
1480697745118664,-0.421082,-0.329895,0.634216,0.558228
1480697745150249,-0.421204,-0.331482,0.634216,0.557251
1480697745155262,-0.4198,-0.331604,0.635437,0.556763
1480697745171806,-0.417542,-0.331482,0.637573,0.55603
1480697745187347,-0.415222,-0.330444,0.63916,0.556641
1480697745208904,-0.415771,-0.330139,0.638245,0.557495
1480697745231465,-0.418152,-0.331482,0.636719,0.556702
1480697745246504,-0.419434,-0.331909,0.63562,0.556702
1480697745270067,-0.41925,-0.330383,0.635803,0.557495
1480697745291626,-0.419189,-0.329956,0.63623,0.557312
1480697745305661,-0.419006,-0.330688,0.636475,0.556702
1480697745345773,-0.41864,-0.331604,0.636536,0.556458
1480697745388883,-0.418091,-0.332092,0.63678,0.556213
1480697745403421,-0.417664,-0.33197,0.637268,0.556091
1480697745426985,-0.417297,-0.331787,0.637695,0.555908
1480697745428490,-0.416809,-0.332275,0.63855,0.555054
1480697745434505,-0.415466,-0.332336,0.639832,0.554504
1480697745449043,-0.413452,-0.331543,0.640686,0.555542
1480697745471604,-0.412964,-0.330322,0.640442,0.556885
1480697745485640,-0.415039,-0.331116,0.639343,0.556091
1480697745510707,-0.417786,-0.333374,0.638245,0.554016
1480697745532264,-0.418518,-0.334595,0.637817,0.553223
1480697745553822,-0.41803,-0.333557,0.638184,0.553833
1480697745568862,-0.417542,-0.332275,0.638489,0.554565
1480697745598941,-0.417786,-0.332336,0.638245,0.554626
1480697745629021,-0.418396,-0.332764,0.638062,0.554138
1480697745665117,-0.418396,-0.332642,0.638306,0.553955
1480697745679657,-0.418152,-0.332336,0.638306,0.554321
1480697745689683,-0.417969,-0.332275,0.638367,0.554382
1480697745692189,-0.417908,-0.332092,0.638489,0.554443
1480697745712246,-0.417969,-0.331787,0.638489,0.554565
1480697745732295,-0.418152,-0.331848,0.638428,0.554443
1480697745748840,-0.418213,-0.331848,0.638428,0.554443
1480697745771400,-0.41803,-0.331482,0.638489,0.554688
1480697745792455,-0.417908,-0.331116,0.638672,0.55481
1480697745809502,-0.418091,-0.331299,0.638672,0.554565
1480697745831560,-0.418335,-0.331726,0.638428,0.554382
1480697745854120,-0.418518,-0.332031,0.638489,0.554016
1480697745876680,-0.418396,-0.331848,0.63855,0.554138
1480697745898738,-0.418579,-0.331726,0.638367,0.55426
1480697745921300,-0.418701,-0.331848,0.638123,0.554382
1480697745942355,-0.419128,-0.332092,0.637939,0.554138
1480697745951379,-0.419434,-0.332275,0.638,0.553711
1480697745979955,-0.419434,-0.332275,0.638,0.553711
1480697745988979,-0.419556,-0.332397,0.637878,0.55365
1480697746011541,-0.419617,-0.332458,0.637878,0.55365
1480697746032595,-0.419495,-0.332275,0.637939,0.553711
1480697746049139,-0.419312,-0.332153,0.637939,0.553894
1480697746073203,-0.419312,-0.332153,0.637939,0.553955
1480697746092755,-0.419678,-0.332397,0.637878,0.553589
1480697746108297,-0.419678,-0.332458,0.637878,0.553589
1480697746131357,-0.419739,-0.332458,0.637878,0.553589
1480697746154427,-0.419678,-0.332336,0.637939,0.553589
1480697746199037,-0.419617,-0.33197,0.638184,0.553589
1480697746208062,-0.419434,-0.331909,0.638306,0.553528
1480697746214077,-0.419495,-0.331909,0.638306,0.553528
1480697746229118,-0.419617,-0.331909,0.638428,0.553284
1480697746251677,-0.419434,-0.331726,0.638794,0.553101
1480697746274238,-0.419189,-0.331543,0.639099,0.55304
1480697746288275,-0.419006,-0.331238,0.639587,0.552795
1480697746311336,-0.418335,-0.330933,0.640259,0.552734
1480697746333896,-0.418091,-0.330811,0.640686,0.55249
1480697746348937,-0.418091,-0.330933,0.640869,0.552246
1480697746371997,-0.41803,-0.330994,0.640869,0.552246
1480697746409096,-0.41803,-0.330933,0.640869,0.552246
1480697746411605,-0.41803,-0.331116,0.64093,0.552063
1480697746431656,-0.417664,-0.331482,0.641052,0.552002
1480697746453715,-0.417603,-0.331482,0.641052,0.552002
1480697746491314,-0.417603,-0.331482,0.641235,0.551819
1480697746500338,-0.417847,-0.331665,0.641174,0.551636
1480697746513874,-0.418091,-0.331787,0.641418,0.551086
1480697746528414,-0.417969,-0.331909,0.641663,0.550781
1480697746559496,-0.417786,-0.332031,0.641785,0.55072
1480697746575039,-0.417664,-0.331848,0.641846,0.550903
1480697746588573,-0.417847,-0.33136,0.64209,0.550781
1480697746611639,-0.417725,-0.331055,0.642578,0.550476
1480697746634195,-0.417664,-0.331299,0.6427,0.550232
1480697746656254,-0.417725,-0.331848,0.642578,0.549988
1480697746686333,-0.417664,-0.331848,0.642578,0.549988
1480697746709897,-0.417664,-0.331726,0.642761,0.549866
1480697746729948,-0.417542,-0.331665,0.643066,0.549622
1480697746739975,-0.417297,-0.331665,0.643372,0.5495
1480697746761532,-0.417053,-0.331482,0.643738,0.549316
1480697746775069,-0.416687,-0.331116,0.644226,0.549316
1480697746791613,-0.41626,-0.330872,0.644714,0.549194
1480697746814173,-0.415588,-0.330322,0.645386,0.549194
1480697746836231,-0.415161,-0.32959,0.645813,0.549438
1480697746851271,-0.41571,-0.329651,0.645813,0.54895
1480697746873832,-0.415894,-0.329224,0.646423,0.548401
1480697746898397,-0.415649,-0.329041,0.647095,0.547974
1480697746911432,-0.415161,-0.329102,0.647705,0.547546
1480697746934994,-0.414978,-0.328979,0.648132,0.547241
1480697746964071,-0.41449,-0.328552,0.648743,0.54718
1480697747002172,-0.413696,-0.32843,0.649231,0.547241
1480697747004680,-0.41333,-0.328918,0.649353,0.547058
1480697747024232,-0.412903,-0.329163,0.649963,0.54657
1480697747046290,-0.412109,-0.329102,0.650635,0.546387
1480697747061332,-0.411438,-0.329224,0.650879,0.546509
1480697747076371,-0.411377,-0.329407,0.651001,0.546326
1480697747092412,-0.411377,-0.329407,0.65094,0.546326
1480697747113971,-0.411255,-0.329285,0.651306,0.546143
1480697747136530,-0.410889,-0.329102,0.651672,0.546021
1480697747152074,-0.4104,-0.328918,0.652039,0.546082
1480697747174131,-0.410095,-0.328979,0.6521,0.546143
1480697747196690,-0.410095,-0.329529,0.651978,0.546021
1480697747217747,-0.410156,-0.3302,0.651855,0.545715
1480697747242312,-0.410034,-0.330383,0.651794,0.545776
1480697747278908,-0.409668,-0.3302,0.651733,0.546143
1480697747295452,-0.409668,-0.3302,0.651794,0.546143
1480697747299965,-0.409729,-0.330139,0.651794,0.546143
1480697747317010,-0.409607,-0.330444,0.651733,0.546082
1480697747331047,-0.409363,-0.330872,0.651611,0.546204
1480697747354610,-0.40918,-0.330811,0.65155,0.546509
1480697747376668,-0.409363,-0.330261,0.651489,0.546692
1480697747405245,-0.409668,-0.329773,0.651367,0.546936
1480697747414770,-0.410278,-0.329895,0.650818,0.547058
1480697747443847,-0.411133,-0.329834,0.650146,0.547241
1480697747450866,-0.412476,-0.329346,0.649109,0.547791
1480697747474931,-0.414551,-0.329285,0.64801,0.547546
1480697747496988,-0.416809,-0.329651,0.64624,0.547668
1480697747519047,-0.419128,-0.330139,0.644531,0.547607
1480697747534588,-0.421204,-0.331116,0.643005,0.547241
1480697747572190,-0.422363,-0.331726,0.641846,0.547363
1480697747602268,-0.422974,-0.331665,0.641052,0.547852
1480697747604274,-0.42395,-0.332031,0.640198,0.547852
1480697747630844,-0.424744,-0.333008,0.639282,0.547729
1480697747646386,-0.424988,-0.333862,0.63855,0.547852
1480697747653906,-0.424744,-0.334106,0.638489,0.547974
1480697747692007,-0.424133,-0.33374,0.638672,0.548401
1480697747698023,-0.423828,-0.333679,0.638977,0.548401
1480697747715570,-0.42395,-0.333923,0.639038,0.548096
1480697747737127,-0.424133,-0.334534,0.638977,0.547607
1480697747765201,-0.424072,-0.334534,0.638977,0.547668
1480697747791271,-0.423706,-0.334106,0.63916,0.548035
1480697747796284,-0.423462,-0.334167,0.639282,0.548035
1480697747818845,-0.423218,-0.334473,0.639404,0.547852
1480697747850429,-0.422974,-0.334778,0.639587,0.547668
1480697747865468,-0.422363,-0.334656,0.639893,0.547852
1480697747894551,-0.421936,-0.334778,0.640015,0.547974
1480697747897053,-0.421936,-0.335205,0.640015,0.547668
1480697747925628,-0.421631,-0.33551,0.640198,0.547546
1480697747938663,-0.421265,-0.335449,0.64032,0.547729
1480697747971249,-0.420898,-0.334839,0.640442,0.548218
1480697747977768,-0.420654,-0.33429,0.640442,0.548706
1480697747997319,-0.42041,-0.334595,0.640564,0.548584
1480697748014866,-0.419922,-0.334473,0.641113,0.548401
1480697748036924,-0.419067,-0.334167,0.641663,0.548584
1480697748058983,-0.418518,-0.33429,0.642029,0.548584
1480697748074524,-0.417908,-0.334045,0.642334,0.548767
1480697748097085,-0.417358,-0.333374,0.642639,0.549194
1480697748120146,-0.417358,-0.333374,0.6427,0.549194
1480697748164262,-0.417358,-0.333374,0.6427,0.549194
1480697748166769,-0.417175,-0.33313,0.642944,0.549194
1480697748195345,-0.416809,-0.332642,0.643311,0.549316
1480697748203870,-0.416504,-0.332458,0.643555,0.549377
1480697748216903,-0.416199,-0.332397,0.643738,0.549438
1480697748238961,-0.416199,-0.332397,0.643738,0.549438
1480697748260018,-0.416016,-0.332397,0.643921,0.549316
1480697748276561,-0.415527,-0.332031,0.644348,0.549438
1480697748300124,-0.415039,-0.331482,0.644653,0.549744
1480697748313159,-0.415161,-0.331421,0.644531,0.549866
1480697748350259,-0.415649,-0.331909,0.644226,0.549561
1480697748360285,-0.416077,-0.332275,0.644165,0.549133
1480697748379836,-0.415833,-0.332458,0.644287,0.54895
1480697748397383,-0.415222,-0.331909,0.644775,0.549255
1480697748425965,-0.414917,-0.330872,0.644836,0.550049
1480697748433485,-0.415405,-0.330933,0.644592,0.549927
1480697748463063,-0.415588,-0.331482,0.644531,0.5495
1480697748479608,-0.415527,-0.331238,0.644775,0.549438
1480697748493146,-0.415039,-0.330811,0.644958,0.549805
1480697748522722,-0.414246,-0.330383,0.645508,0.550049
1480697748541272,-0.413574,-0.329895,0.645874,0.550354
1480697748559821,-0.413147,-0.329712,0.646057,0.550659
1480697748576365,-0.412842,-0.32959,0.646179,0.550781
1480697748598924,-0.412476,-0.329651,0.64624,0.550903
1480697748620482,-0.412231,-0.329712,0.646301,0.551086
1480697748636024,-0.411926,-0.329651,0.646362,0.551208
1480697748676632,-0.411804,-0.329407,0.646606,0.551147
1480697748680141,-0.411804,-0.329407,0.646606,0.551147
1480697748702200,-0.411865,-0.329407,0.646606,0.551086
1480697748726263,-0.411865,-0.329346,0.646667,0.551086
1480697748739799,-0.411804,-0.329102,0.646851,0.551086
1480697748758349,-0.411804,-0.329102,0.646851,0.551086
1480697748779406,-0.411865,-0.329102,0.646851,0.551086
1480697748799959,-0.411804,-0.329102,0.646851,0.551086
1480697748817005,-0.411804,-0.329102,0.646851,0.551086
1480697748839064,-0.411804,-0.329041,0.646851,0.551086
1480697748860621,-0.411743,-0.329041,0.646851,0.551086
1480697748876163,-0.411743,-0.329041,0.646912,0.551147
1480697748905239,-0.411804,-0.328918,0.646729,0.55127
1480697748919778,-0.412048,-0.328918,0.646301,0.551575
1480697748936322,-0.412537,-0.329041,0.645752,0.551819
1480697748973923,-0.413208,-0.329285,0.645264,0.551758
1480697748990967,-0.413513,-0.329346,0.644775,0.552124
1480697749004002,-0.414185,-0.329285,0.644165,0.552307
1480697749019043,-0.415344,-0.329834,0.64325,0.552185
1480697749043108,-0.416565,-0.33075,0.642639,0.551453
1480697749065667,-0.416626,-0.33075,0.642639,0.551392
1480697749079704,-0.416687,-0.330505,0.642517,0.551575
1480697749101261,-0.416687,-0.330383,0.642395,0.55188
1480697749115799,-0.416931,-0.330566,0.642151,0.551819
1480697749140866,-0.417358,-0.331116,0.641785,0.551575
1480697749161922,-0.417603,-0.331421,0.641724,0.551331
1480697749182476,-0.417542,-0.331482,0.641663,0.551331
1480697749199021,-0.417419,-0.330933,0.641724,0.551758
1480697749237623,-0.417175,-0.330505,0.641785,0.552063
1480697749260184,-0.417175,-0.330444,0.641846,0.552063
1480697749266199,-0.417664,-0.33075,0.641479,0.552002
1480697749287757,-0.418396,-0.331665,0.640808,0.551636
1480697749296280,-0.418945,-0.332397,0.640503,0.551147
1480697749319842,-0.419006,-0.332397,0.640503,0.551086
1480697749341400,-0.418884,-0.332031,0.640503,0.551392
1480697749355938,-0.419067,-0.331848,0.640381,0.551453
1480697749381006,-0.419312,-0.332153,0.640198,0.551331
1480697749402061,-0.419373,-0.331909,0.640015,0.551636
1480697749422615,-0.419556,-0.33136,0.640015,0.551819
1480697749439160,-0.419556,-0.331299,0.640076,0.551819
1480697749461719,-0.419983,-0.331543,0.639893,0.551514
1480697749483276,-0.419983,-0.331482,0.639954,0.551514
1480697749484781,-0.419983,-0.331421,0.640137,0.551331
1480697749508846,-0.419495,-0.33136,0.640503,0.551331
1480697749538424,-0.418823,-0.331055,0.640869,0.551575
1480697749557975,-0.418762,-0.331055,0.640869,0.551636
1480697749566000,-0.419128,-0.331726,0.640442,0.551453
1480697749587052,-0.419373,-0.332214,0.64032,0.551086
1480697749618136,-0.419434,-0.332031,0.640442,0.551025
1480697749624654,-0.419373,-0.331787,0.640442,0.551208
1480697749655745,-0.419373,-0.331787,0.640442,0.551208
1480697749669271,-0.419373,-0.331787,0.640442,0.551208
1480697749691831,-0.419434,-0.331909,0.640381,0.551147
1480697749718402,-0.419495,-0.332153,0.640381,0.550964
1480697749729433,-0.419434,-0.332153,0.640381,0.551025
1480697749744473,-0.419434,-0.332153,0.640381,0.551025
1480697749783074,-0.419617,-0.332275,0.640503,0.55072
1480697749789591,-0.419495,-0.332581,0.640442,0.550659
1480697749811649,-0.419556,-0.332581,0.640381,0.550659
1480697749828194,-0.419373,-0.332458,0.640564,0.550659
1480697749849249,-0.41925,-0.332275,0.640686,0.55072
1480697749864289,-0.419312,-0.332275,0.640686,0.550659
1480697749886851,-0.419189,-0.332153,0.640686,0.550842
1480697749912920,-0.419128,-0.331726,0.640808,0.551025
1480697749927462,-0.419067,-0.331482,0.64093,0.551086
1480697749947010,-0.419067,-0.331482,0.64093,0.551086
1480697749978096,-0.419067,-0.331482,0.64093,0.551086
1480697749984610,-0.419128,-0.331482,0.64093,0.551025
1480697750017698,-0.419006,-0.331299,0.641113,0.551025
1480697750038252,-0.419128,-0.33136,0.641052,0.550964
1480697750044772,-0.419189,-0.331665,0.64093,0.550842
1480697750070338,-0.419006,-0.331604,0.640991,0.550964
1480697750113453,-0.418762,-0.33136,0.641113,0.551208
1480697750121975,-0.418762,-0.33136,0.641113,0.551147
1480697750134508,-0.418762,-0.33136,0.641113,0.551147
1480697750149550,-0.418823,-0.33136,0.641113,0.551147
1480697750167095,-0.418823,-0.331604,0.641052,0.551025
1480697750186647,-0.418823,-0.331604,0.641052,0.551025
1480697750215223,-0.418884,-0.331665,0.641052,0.551025
1480697750224247,-0.418823,-0.331665,0.640991,0.551086
1480697750249815,-0.418823,-0.331665,0.640991,0.551147
1480697750272374,-0.419006,-0.331665,0.640686,0.55127
1480697750287415,-0.419312,-0.331177,0.640564,0.551514
1480697750369634,-0.419128,-0.33075,0.640869,0.551514
1480697750372140,-0.418945,-0.330505,0.641113,0.551575
1480697750384173,-0.419067,-0.33075,0.641113,0.551331
1480697750390689,-0.419006,-0.33136,0.641052,0.551025
1480697750407233,-0.419006,-0.331421,0.641052,0.551025
1480697750426785,-0.419006,-0.331421,0.641052,0.551025
1480697750449345,-0.418945,-0.331421,0.640991,0.551086
1480697750465891,-0.418945,-0.331482,0.640991,0.551086
1480697750486946,-0.419006,-0.331421,0.641052,0.551025
1480697750517526,-0.418762,-0.331421,0.641113,0.551086
1480697750541090,-0.418579,-0.331299,0.641296,0.551147
1480697750548109,-0.418457,-0.331177,0.641479,0.551086
1480697750577187,-0.418335,-0.331543,0.641357,0.551086
1480697750587213,-0.418335,-0.331543,0.641357,0.551086
1480697750614284,-0.418152,-0.331482,0.641479,0.551147
1480697750647874,-0.41803,-0.331177,0.641663,0.551208
1480697750652386,-0.417847,-0.330811,0.641663,0.551575
1480697750674445,-0.417725,-0.330139,0.641541,0.552124
1480697750690988,-0.417603,-0.329529,0.641479,0.552673
1480697750707031,-0.417053,-0.328735,0.641785,0.553162
1480697750729591,-0.417053,-0.328796,0.642029,0.552917
1480697750749143,-0.417175,-0.329773,0.642212,0.552063
1480697750765687,-0.417419,-0.330933,0.642334,0.551025
1480697750787246,-0.416748,-0.330994,0.6427,0.551086
1480697750809832,-0.415771,-0.330322,0.643372,0.551392
1480697750825847,-0.4151,-0.329895,0.644287,0.551147
1480697750846903,-0.414734,-0.330688,0.644897,0.550232
1480697750878489,-0.414551,-0.331116,0.645081,0.549805
1480697750897538,-0.415405,-0.331787,0.644287,0.549744
1480697750914082,-0.416565,-0.332642,0.643494,0.549316
1480697750929121,-0.416931,-0.333008,0.643311,0.549011
1480697750947169,-0.416321,-0.332153,0.643738,0.5495
1480697750974242,-0.415649,-0.330872,0.644287,0.55011
1480697750998305,-0.415405,-0.330139,0.644714,0.550232
1480697751011343,-0.415833,-0.3302,0.644287,0.550415
1480697751027386,-0.416382,-0.330566,0.643738,0.550415
1480697751049442,-0.416626,-0.330933,0.643433,0.550354
1480697751073506,-0.416687,-0.330933,0.643555,0.550171
1480697751087045,-0.416809,-0.331116,0.643372,0.550171
1480697751110103,-0.417358,-0.331299,0.643005,0.550049
1480697751149207,-0.417603,-0.331177,0.642883,0.55011
1480697751172269,-0.41748,-0.330872,0.642883,0.550354
1480697751209367,-0.41748,-0.330872,0.642883,0.550354
1480697751217388,-0.417542,-0.330872,0.642883,0.550293
1480697751224407,-0.417542,-0.330811,0.642944,0.550293
1480697751229420,-0.417725,-0.331177,0.642822,0.55011
1480697751254988,-0.417786,-0.331604,0.642639,0.549988
1480697751267020,-0.417786,-0.331665,0.642639,0.549988
1480697751289580,-0.417786,-0.33136,0.6427,0.55011
1480697751320662,-0.417725,-0.331055,0.642761,0.550232
1480697751326679,-0.417725,-0.330994,0.642761,0.550232
1480697751349238,-0.417847,-0.33136,0.642578,0.550171
1480697751376312,-0.418152,-0.331787,0.642212,0.55011
1480697751403382,-0.418823,-0.332397,0.641846,0.549622
1480697751409399,-0.419006,-0.332825,0.641785,0.549316
1480697751431962,-0.418945,-0.332764,0.641846,0.549377
1480697751471564,-0.418945,-0.332458,0.641968,0.549377
1480697751473569,-0.419128,-0.332275,0.641907,0.549438
1480697751494625,-0.419495,-0.33252,0.641724,0.549194
1480697751522699,-0.419373,-0.332642,0.641785,0.549133
1480697751536737,-0.419189,-0.332703,0.641907,0.549133
1480697751551785,-0.419128,-0.332886,0.641907,0.549072
1480697751570327,-0.41925,-0.33313,0.641968,0.548767
1480697751589377,-0.41925,-0.33313,0.641968,0.548706
1480697751614945,-0.41925,-0.33313,0.641968,0.548767
1480697751644527,-0.419434,-0.333191,0.641724,0.548828
1480697751649537,-0.419434,-0.333191,0.641724,0.548828
1480697751680118,-0.419434,-0.333191,0.641724,0.548828
1480697751696663,-0.419434,-0.333191,0.641724,0.548828
1480697751709197,-0.419495,-0.333191,0.641724,0.548767
1480697751733259,-0.419617,-0.333252,0.641907,0.548462
1480697751754315,-0.419617,-0.333252,0.641846,0.548523
1480697751788406,-0.419617,-0.333252,0.641846,0.548523
1480697751799435,-0.419617,-0.333313,0.641846,0.548523
1480697751810971,-0.419617,-0.333313,0.641846,0.548523
1480697751829516,-0.419617,-0.333252,0.641846,0.548462
1480697751852075,-0.419739,-0.332764,0.641846,0.548706
1480697751869622,-0.420532,-0.33313,0.641357,0.548462
1480697751889174,-0.420898,-0.333984,0.641052,0.548035
1480697751911734,-0.420837,-0.334167,0.641235,0.547791
1480697751929783,-0.420471,-0.334045,0.641541,0.547791
1480697751952343,-0.420471,-0.334045,0.641541,0.547791
1480697751971894,-0.42041,-0.334473,0.641418,0.547668
1480697751989945,-0.420227,-0.334534,0.641357,0.547791
1480697752009495,-0.420105,-0.33429,0.641479,0.547974
1480697752032054,-0.420166,-0.334351,0.641479,0.547913
1480697752050102,-0.420105,-0.334351,0.641418,0.547913
1480697752069153,-0.420166,-0.334351,0.641479,0.547913
1480697752091713,-0.420654,-0.334534,0.641296,0.547607
1480697752110767,-0.421021,-0.334778,0.641174,0.547241
1480697752129312,-0.421204,-0.334839,0.640991,0.547302
1480697752151873,-0.421387,-0.334717,0.64093,0.547363
1480697752172929,-0.421692,-0.334778,0.640747,0.547241
1480697752192482,-0.421997,-0.335144,0.640564,0.546997
1480697752212033,-0.422119,-0.33551,0.640503,0.546814
1480697752251137,-0.422119,-0.33551,0.640503,0.546814
1480697752253644,-0.422119,-0.33551,0.640503,0.546814
1480697752279211,-0.422241,-0.335693,0.64032,0.546814
1480697752291243,-0.422424,-0.335999,0.640076,0.546753
1480697752312801,-0.422424,-0.335999,0.640076,0.546753
1480697752331851,-0.422485,-0.335999,0.640076,0.546692
1480697752349899,-0.422546,-0.335999,0.640076,0.546692
1480697752373462,-0.422546,-0.335999,0.640076,0.546692
1480697752392011,-0.422546,-0.335999,0.640076,0.546692
1480697752410061,-0.422546,-0.335999,0.640076,0.546692
1480697752436630,-0.422546,-0.335999,0.640076,0.546692
1480697752459190,-0.422485,-0.335999,0.640076,0.546692
1480697752469718,-0.422363,-0.335815,0.640076,0.546875
1480697752490774,-0.422302,-0.33551,0.640137,0.547119
1480697752512331,-0.422302,-0.33551,0.640137,0.547058
1480697752534390,-0.422302,-0.33551,0.640137,0.547058
1480697752551435,-0.422302,-0.33551,0.640137,0.547058
1480697752604576,-0.422058,-0.335388,0.640442,0.546936
1480697752607084,-0.42157,-0.335266,0.64093,0.546875
1480697752612097,-0.421143,-0.335144,0.641174,0.546997
1480697752650200,-0.420776,-0.335022,0.641235,0.547241
1480697752655713,-0.420776,-0.335083,0.641174,0.547302
1480697752670753,-0.420776,-0.335144,0.641174,0.547302
1480697752691810,-0.420471,-0.335022,0.641479,0.547241
1480697752714369,-0.419678,-0.334351,0.642273,0.547302
1480697752732417,-0.418762,-0.333191,0.643005,0.547852
1480697752757985,-0.418518,-0.333008,0.642944,0.548279
1480697752779042,-0.418762,-0.333801,0.642517,0.548035
1480697752794081,-0.418762,-0.333862,0.642517,0.548035
1480697752811628,-0.418518,-0.333069,0.642517,0.548645
1480697752837196,-0.418091,-0.33197,0.642578,0.549622
1480697752865772,-0.418213,-0.331482,0.642517,0.549866
1480697752871789,-0.418274,-0.331482,0.642517,0.549805
1480697752897356,-0.418518,-0.331848,0.642395,0.549561
1480697752916907,-0.418518,-0.331848,0.642334,0.549622
1480697752931946,-0.418457,-0.331238,0.642334,0.550049
1480697752954507,-0.418579,-0.330811,0.642212,0.550354
1480697752972054,-0.418884,-0.330994,0.642273,0.549988
1480697752992108,-0.419189,-0.331238,0.642029,0.549866
1480697753017174,-0.419312,-0.331299,0.641846,0.549927
1480697753040736,-0.418884,-0.331055,0.641907,0.550354
1480697753098390,-0.418396,-0.330688,0.64209,0.55072
1480697753114433,-0.418152,-0.330566,0.642273,0.550781
1480697753136992,-0.418091,-0.330566,0.642273,0.550781
1480697753164567,-0.41803,-0.33075,0.642456,0.550476
1480697753177101,-0.417542,-0.33075,0.642822,0.550476
1480697753196149,-0.417175,-0.330872,0.643188,0.550232
1480697753198656,-0.416748,-0.331116,0.643494,0.550049
1480697753212193,-0.416321,-0.331482,0.643921,0.549622
1480697753231746,-0.415344,-0.33136,0.644897,0.549377
1480697753254304,-0.413818,-0.331116,0.645935,0.549438
1480697753272854,-0.412354,-0.330872,0.647156,0.549194
1480697753299425,-0.41095,-0.330566,0.648438,0.548889
1480697753318483,-0.409973,-0.330383,0.649231,0.548889
1480697753340533,-0.409851,-0.329712,0.64917,0.549438
1480697753359083,-0.410156,-0.329712,0.64917,0.549194
1480697753392172,-0.411194,-0.330383,0.648987,0.548218
1480697753394678,-0.41095,-0.330505,0.649048,0.548279
1480697753419243,-0.410522,-0.329773,0.649414,0.548584
1480697753452832,-0.410217,-0.329285,0.649597,0.548889
1480697753456844,-0.410522,-0.329529,0.649475,0.548645
1480697753473387,-0.411194,-0.329956,0.64917,0.548218
1480697753497451,-0.412109,-0.330444,0.648499,0.548096
1480697753512497,-0.412415,-0.330872,0.648193,0.547974
1480697753540566,-0.412415,-0.330444,0.648071,0.54834
1480697753554101,-0.412231,-0.330017,0.648071,0.548767
1480697753602731,-0.412598,-0.329834,0.647888,0.548828
1480697753607745,-0.413086,-0.329956,0.647705,0.548584
1480697753615766,-0.413635,-0.330322,0.647461,0.548218
1480697753632311,-0.413818,-0.330627,0.647339,0.548035
1480697753669408,-0.41394,-0.330688,0.647156,0.548157
1480697753674422,-0.41449,-0.330994,0.646667,0.548157
1480697753721547,-0.415344,-0.331604,0.645996,0.547913
1480697753724054,-0.416382,-0.332336,0.645264,0.547546
1480697753736587,-0.417297,-0.333069,0.644653,0.547119
1480697753752631,-0.417725,-0.333374,0.644348,0.546936
1480697753776193,-0.417908,-0.33313,0.644287,0.546997
1480697753794240,-0.417847,-0.332703,0.644287,0.547363
1480697753812288,-0.418518,-0.332825,0.64386,0.547241
1480697753842369,-0.419495,-0.333618,0.643127,0.546875
1480697753854400,-0.420532,-0.334534,0.642517,0.546265
1480697753873952,-0.421021,-0.334656,0.642334,0.545959
1480697753900522,-0.421265,-0.334412,0.642334,0.545959
1480697753915563,-0.421021,-0.334229,0.642517,0.546082
1480697753944144,-0.420959,-0.334229,0.642273,0.546387
1480697753978731,-0.421082,-0.334656,0.64209,0.546204
1480697753992770,-0.421204,-0.334961,0.641846,0.546204
1480697753996778,-0.421082,-0.334534,0.641968,0.546509
1480697754014827,-0.421021,-0.334106,0.642273,0.546448
1480697754050421,-0.420715,-0.333801,0.642639,0.546448
1480697754056939,-0.420532,-0.334045,0.642578,0.546448
1480697754074988,-0.420471,-0.334717,0.642456,0.546265
1480697754102059,-0.42041,-0.335144,0.642273,0.546265
1480697754125621,-0.42041,-0.335144,0.642273,0.546265
1480697754135147,-0.420471,-0.335144,0.642273,0.546204
1480697754155701,-0.420471,-0.335144,0.642273,0.546204
1480697754176758,-0.420288,-0.335022,0.642334,0.546326
1480697754195307,-0.420349,-0.335022,0.642334,0.546326
1480697754221877,-0.42041,-0.335266,0.642395,0.546082
1480697754255467,-0.42041,-0.335266,0.642395,0.546082
1480697754268000,-0.420593,-0.335449,0.642273,0.545959
1480697754274518,-0.420593,-0.335449,0.642273,0.545959
1480697754297077,-0.420593,-0.335388,0.642273,0.545959
1480697754314624,-0.420654,-0.33551,0.642151,0.546021
1480697754335680,-0.420837,-0.33551,0.642212,0.545776
1480697754358246,-0.420837,-0.335449,0.642395,0.545532
1480697754379296,-0.420715,-0.335327,0.642517,0.545593
1480697754395839,-0.420715,-0.335327,0.642517,0.545593
1480697754416896,-0.420837,-0.335632,0.642334,0.545593
1480697754437952,-0.420837,-0.335632,0.642334,0.545532
1480697754457004,-0.420898,-0.335632,0.642334,0.545532
1480697754484074,-0.421082,-0.335449,0.642334,0.545532
1480697754502124,-0.421265,-0.335388,0.642273,0.545471
1480697754532202,-0.42157,-0.335632,0.642151,0.545227
1480697754544240,-0.421448,-0.335571,0.642151,0.545349
1480697754554763,-0.421326,-0.335266,0.642273,0.545471
1480697754592363,-0.421509,-0.335449,0.642212,0.545349
1480697754604395,-0.421692,-0.335754,0.642029,0.545166
1480697754614923,-0.421448,-0.335632,0.64209,0.545349
1480697754651019,-0.421265,-0.335205,0.642212,0.545593
1480697754659542,-0.421265,-0.335205,0.642212,0.545593
1480697754679094,-0.421387,-0.335388,0.642151,0.545471
1480697754703157,-0.421631,-0.335571,0.642029,0.545288
1480697754716693,-0.421692,-0.335632,0.642029,0.545288
1480697754734742,-0.421692,-0.335632,0.642029,0.545288
1480697754757302,-0.421875,-0.335632,0.641846,0.545349
1480697754779861,-0.421936,-0.335449,0.641846,0.54541
1480697754810444,-0.421997,-0.335449,0.641846,0.54541
1480697754824981,-0.42218,-0.33551,0.641785,0.545166
1480697754844534,-0.422302,-0.335693,0.641724,0.545105
1480697754866591,-0.422302,-0.335693,0.641724,0.545105
1480697754896170,-0.422485,-0.335938,0.641541,0.544983
1480697754904193,-0.422485,-0.335938,0.641541,0.544983
1480697754915224,-0.422485,-0.335876,0.641602,0.544983
1480697754937279,-0.422729,-0.335999,0.641418,0.544922
1480697754956832,-0.423157,-0.336304,0.641052,0.544861
1480697754974880,-0.423523,-0.336853,0.640625,0.544739
1480697754997440,-0.423767,-0.33728,0.640442,0.544495
1480697755016992,-0.423645,-0.33728,0.640564,0.544434
1480697755035040,-0.423706,-0.337097,0.640503,0.544556
1480697755057600,-0.423828,-0.33728,0.640381,0.544556
1480697755101216,-0.424133,-0.337646,0.640198,0.54425
1480697755103723,-0.424377,-0.337891,0.640076,0.544067
1480697755137312,-0.424377,-0.337952,0.640076,0.544067
1480697755147338,-0.424377,-0.337952,0.640076,0.544067
1480697755160375,-0.424377,-0.337891,0.640076,0.544006
1480697755179925,-0.424438,-0.337891,0.640076,0.544006
1480697755196969,-0.424561,-0.338013,0.639954,0.544006
1480697755215019,-0.424622,-0.338257,0.639832,0.543884
1480697755238080,-0.424683,-0.338257,0.639832,0.543884
1480697755258133,-0.424622,-0.338257,0.639893,0.543884
1480697755279189,-0.424683,-0.338257,0.639893,0.543884
1480697755297237,-0.424561,-0.338318,0.639771,0.544067
1480697755318292,-0.424194,-0.338013,0.639893,0.544373
1480697755380959,-0.424011,-0.337708,0.640137,0.544434
1480697755402016,-0.423767,-0.337585,0.640259,0.544556
1480697755416554,-0.423096,-0.336304,0.640503,0.545532
1480697755419061,-0.422302,-0.335449,0.64093,0.546204
1480697755444131,-0.421692,-0.334961,0.641479,0.546326
1480697755460671,-0.422058,-0.336243,0.641235,0.545471
1480697755481727,-0.422119,-0.336304,0.641235,0.54541
1480697755498272,-0.421692,-0.336487,0.641479,0.54541
1480697755519328,-0.420715,-0.33667,0.641785,0.545654
1480697755537376,-0.419495,-0.336426,0.642395,0.546021
1480697755561440,-0.418579,-0.335754,0.643005,0.546387
1480697755579487,-0.418335,-0.335449,0.643555,0.546204
1480697755617087,-0.41803,-0.335449,0.644043,0.545837
1480697755659704,-0.417603,-0.33551,0.644592,0.545471
1480697755664213,-0.41687,-0.336121,0.645386,0.544739
1480697755695295,-0.414368,-0.336365,0.647766,0.54364
1480697755699306,-0.412903,-0.33551,0.649109,0.54364
1480697755717355,-0.412048,-0.335144,0.649963,0.543518
1480697755742925,-0.412048,-0.33551,0.650146,0.543091
1480697755759972,-0.411987,-0.336243,0.650818,0.54187
1480697755778518,-0.411194,-0.337158,0.6521,0.540344
1480697755804084,-0.408936,-0.337402,0.654053,0.53949
1480697755822132,-0.407043,-0.33667,0.65625,0.538818
1480697755837174,-0.404724,-0.335938,0.659119,0.537415
1480697755874773,-0.402588,-0.33606,0.661377,0.536255
1480697755886804,-0.402039,-0.336853,0.661743,0.535706
1480697755926911,-0.40332,-0.337097,0.661072,0.535339
1480697755929418,-0.404236,-0.336975,0.660278,0.535767
1480697755955989,-0.403564,-0.335693,0.659424,0.538147
1480697755962005,-0.403442,-0.334656,0.659119,0.539185
1480697755980053,-0.403137,-0.334106,0.658813,0.540161
1480697755999605,-0.403259,-0.334167,0.657898,0.541199
1480697756017151,-0.404053,-0.3349,0.656677,0.541626
1480697756039711,-0.404419,-0.3349,0.655579,0.542664
1480697756059264,-0.40509,-0.334534,0.654846,0.543335
1480697756082325,-0.40564,-0.334351,0.654358,0.543579
1480697756101376,-0.406311,-0.334412,0.653748,0.543762
1480697756122431,-0.407227,-0.334778,0.652832,0.543945
1480697756137472,-0.407837,-0.334534,0.652405,0.544189
1480697756162036,-0.407715,-0.333618,0.652283,0.544922
1480697756234229,-0.408081,-0.332947,0.652161,0.545288
1480697756236735,-0.408691,-0.333008,0.651855,0.545105
1480697756257791,-0.409119,-0.333313,0.651123,0.545471
1480697756261801,-0.409119,-0.333313,0.651123,0.54541
1480697756279349,-0.409119,-0.333374,0.651123,0.54541
1480697756300905,-0.409119,-0.333435,0.651062,0.54541
1480697756316948,-0.409302,-0.333313,0.65094,0.545593
1480697756346527,-0.409851,-0.333069,0.650696,0.545593
1480697756360067,-0.410156,-0.332703,0.650635,0.545654
1480697756385631,-0.410217,-0.332703,0.650635,0.545654
1480697756399167,-0.410217,-0.332703,0.650635,0.545593
1480697756422730,-0.410217,-0.332703,0.650635,0.545593
1480697756436266,-0.410217,-0.332703,0.650635,0.545593
1480697756474368,-0.410217,-0.332703,0.650635,0.545654
1480697756511967,-0.409973,-0.332397,0.650757,0.545837
1480697756513973,-0.40979,-0.332397,0.650879,0.545776
1480697756533023,-0.409729,-0.332581,0.65094,0.545715
1480697756547562,-0.409729,-0.33252,0.65094,0.545715
1480697756555583,-0.409729,-0.33252,0.65094,0.545715
1480697756579146,-0.409729,-0.332581,0.650879,0.545715
1480697756601204,-0.409363,-0.332275,0.651123,0.545898
1480697756615743,-0.409119,-0.331909,0.651306,0.546082
1480697756638805,-0.40918,-0.331848,0.651306,0.546082
1480697756667380,-0.409424,-0.332336,0.651123,0.545837
1480697756689941,-0.409668,-0.332703,0.651001,0.545593
1480697756698964,-0.409668,-0.332703,0.65094,0.545593
1480697756721029,-0.409668,-0.332764,0.65094,0.545593
1480697756751604,-0.40979,-0.332947,0.650879,0.545471
1480697756766645,-0.40979,-0.332947,0.65094,0.545471
1480697756797727,-0.409668,-0.332703,0.65094,0.545593
1480697756810262,-0.409668,-0.332703,0.65094,0.545593
