timestamp,x,y,z
1480691001440592,-0.0966797,-1.01807,0.325684
1480691001443098,-0.111328,-0.984375,0.344238
1480691001463653,-0.110352,-0.990234,0.314453
1480691001487717,-0.0786133,-1.00586,0.328125
1480691001501254,-0.0551758,-0.97998,0.349121
1480691001530832,-0.046875,-0.927246,0.35791
1480691001545872,-0.0585938,-0.89502,0.357422
1480691001559911,-0.0517578,-0.902344,0.356934
1480691001583472,-0.0517578,-0.942383,0.354492
1480691001605548,-0.0634766,-0.959961,0.337402
1480691001620588,-0.0786133,-0.955078,0.335938
1480691001644151,-0.097168,-0.953613,0.328125
1480691001665708,-0.0927734,-0.96875,0.328613
1480691001679746,-0.0820313,-0.964844,0.320801
1480691001703308,-0.0742188,-0.958496,0.341309
1480691001725367,-0.0712891,-0.959961,0.354004
1480691001739905,-0.0712891,-0.955566,0.359375
1480691001777506,-0.0849609,-0.956543,0.367188
1480691001786028,-0.0981445,-0.945313,0.366211
1480691001808087,-0.125488,-0.932129,0.364258
1480691001823127,-0.143555,-0.938477,0.364746
1480691001846690,-0.141113,-0.930176,0.362305
1480691001868247,-0.125,-0.922363,0.372559
1480691001883788,-0.103027,-0.938965,0.376953
1480691001905346,-0.0957031,-0.969727,0.374512
1480691001926905,-0.0830078,-0.96582,0.376465
1480691001942948,-0.0751953,-0.937012,0.371582
1480691001965506,-0.0668945,-0.908203,0.376465
1480691001986561,-0.0585938,-0.907227,0.37793
1480691002003607,-0.0566406,-0.924805,0.375488
1480691002025666,-0.0478516,-0.936035,0.37207
1480691002055746,-0.0458984,-0.933105,0.356445
1480691002063266,-0.0493164,-0.929688,0.351074
1480691002085825,-0.0522461,-0.924805,0.35791
1480691002113901,-0.0629883,-0.928711,0.371094
1480691002145986,-0.0771484,-0.935547,0.361816
1480691002148492,-0.0932617,-0.930664,0.362793
1480691002166539,-0.0957031,-0.92627,0.370117
1480691002183084,-0.0917969,-0.942383,0.372559
1480691002205143,-0.0854492,-0.962891,0.375977
1480691002227203,-0.0786133,-0.966797,0.383789
1480691002243246,-0.0668945,-0.946777,0.397949
1480691002266305,-0.0649414,-0.920898,0.385254
1480691002290370,-0.0605469,-0.916504,0.397949
1480691002302902,-0.0644531,-0.927734,0.398438
1480691002331478,-0.0717773,-0.94873,0.388672
1480691002348022,-0.0869141,-0.960449,0.38916
1480691002370583,-0.0800781,-0.947266,0.390625
1480691002400663,-0.0776367,-0.932129,0.377441
1480691002422220,-0.0776367,-0.927246,0.37793
1480691002429238,-0.0649414,-0.928223,0.371582
1480691002453303,-0.0678711,-0.925293,0.373535
1480691002468844,-0.0727539,-0.940918,0.378418
1480691002482380,-0.0727539,-0.947754,0.372559
1480691002506444,-0.0766602,-0.952148,0.383789
1480691002535521,-0.0722656,-0.94043,0.381836
1480691002542539,-0.0668945,-0.923828,0.375
1480691002566102,-0.0693359,-0.916504,0.382813
1480691002611222,-0.0639648,-0.924805,0.381836
1480691002613729,-0.065918,-0.937012,0.378418
1480691002627265,-0.0742188,-0.949219,0.381348
1480691002648321,-0.0732422,-0.940918,0.384277
1480691002694444,-0.0698242,-0.93457,0.388672
1480691002700961,-0.065918,-0.92627,0.371582
1480691002709484,-0.0566406,-0.935059,0.387695
1480691002730540,-0.0532227,-0.904785,0.402344
1480691002745580,-0.0512695,-0.888672,0.387207
1480691002768139,-0.0634766,-0.940918,0.381836
1480691002789196,-0.0703125,-0.96875,0.378418
1480691002806243,-0.0600586,-0.951172,0.370605
1480691002828300,-0.0581055,-0.922852,0.376465
1480691002850359,-0.0625,-0.911621,0.379395
1480691002871415,-0.0708008,-0.914063,0.373535
1480691002887977,-0.0629883,-0.91748,0.382813
1480691002909016,-0.0678711,-0.935547,0.380371
1480691002925559,-0.0678711,-0.952148,0.391113
1480691002955639,-0.0673828,-0.958984,0.385742
1480691002970679,-0.0639648,-0.941406,0.382813
1480691002986220,-0.0639648,-0.919434,0.383301
1480691003008279,-0.0566406,-0.92334,0.382813
1480691003036855,-0.0610352,-0.933594,0.399902
1480691003045879,-0.0771484,-0.93457,0.37793
1480691003067937,-0.0717773,-0.935547,0.37793
1480691003088992,-0.0625,-0.9375,0.383789
1480691003105537,-0.0512695,-0.944824,0.367676
1480691003128097,-0.0512695,-0.942871,0.380371
1480691003149152,-0.0527344,-0.918457,0.379883
1480691003165697,-0.0629883,-0.917969,0.388672
1480691003194273,-0.0683594,-0.949707,0.398926
1480691003210316,-0.0786133,-0.95166,0.401855
1480691003225356,-0.0805664,-0.941406,0.407715
1480691003247915,-0.0703125,-0.933594,0.410645
1480691003270977,-0.0629883,-0.929199,0.405273
1480691003287019,-0.059082,-0.926758,0.387207
1480691003314092,-0.0507813,-0.92334,0.38916
1480691003330636,-0.0600586,-0.925781,0.377441
1480691003353195,-0.0678711,-0.928711,0.374023
1480691003368236,-0.0698242,-0.936035,0.372559
1480691003391298,-0.0683594,-0.934082,0.369141
1480691003404833,-0.0629883,-0.930664,0.369629
1480691003427898,-0.0581055,-0.920898,0.370605
1480691003450455,-0.0527344,-0.92334,0.373535
1480691003472014,-0.0532227,-0.92627,0.376953
1480691003488054,-0.065918,-0.938965,0.382324
1480691003510614,-0.0625,-0.943359,0.385742
1480691003525153,-0.0664063,-0.9375,0.391602
1480691003548214,-0.0620117,-0.924805,0.400391
1480691003570774,-0.0649414,-0.92041,0.391113
1480691003584811,-0.0610352,-0.927246,0.394043
1480691003613889,-0.0644531,-0.927734,0.391602
1480691003630433,-0.0708008,-0.944336,0.390137
1480691003651489,-0.0688477,-0.943848,0.386719
1480691003668033,-0.0649414,-0.943848,0.38623
1480691003690593,-0.0610352,-0.931641,0.389648
1480691003711649,-0.0615234,-0.919922,0.387207
1480691003735713,-0.0581055,-0.91748,0.389648
1480691003758274,-0.0620117,-0.925781,0.390137
1480691003771811,-0.0664063,-0.936035,0.389648
1480691003787852,-0.0732422,-0.944336,0.380371
1480691003810411,-0.0703125,-0.937012,0.387695
1480691003832470,-0.0629883,-0.937012,0.387207
1480691003848011,-0.059082,-0.929688,0.381348
1480691003871073,-0.0629883,-0.922363,0.383789
1480691003891628,-0.0615234,-0.927734,0.379395
1480691003915691,-0.0629883,-0.932129,0.386719
1480691003946273,-0.0712891,-0.941895,0.383789
1480691003951787,-0.0717773,-0.937988,0.381348
1480691003969333,-0.0727539,-0.932129,0.387695
1480691004005430,-0.0610352,-0.928711,0.387207
1480691004011446,-0.0546875,-0.923828,0.392578
1480691004027990,-0.059082,-0.918457,0.388184
1480691004050550,-0.0771484,-0.931152,0.39502
1480691004071606,-0.0888672,-0.955078,0.399414
1480691004095670,-0.0883789,-0.948242,0.399414
1480691004110710,-0.0717773,-0.935059,0.391113
1480691004131765,-0.0576172,-0.930664,0.38916
1480691004148310,-0.0488281,-0.92041,0.374023
1480691004171371,-0.0483398,-0.922363,0.378906
1480691004193430,-0.050293,-0.941406,0.374023
1480691004207969,-0.0600586,-0.94873,0.37207
1480691004230529,-0.0639648,-0.950195,0.371094
1480691004253088,-0.0688477,-0.939941,0.373047
1480691004274144,-0.0727539,-0.93457,0.381836
1480691004296706,-0.0673828,-0.92041,0.383301
1480691004313249,-0.0634766,-0.925293,0.380371
1480691004327286,-0.0668945,-0.935547,0.381348
1480691004351349,-0.065918,-0.941895,0.392578
1480691004372907,-0.0698242,-0.945313,0.387207
1480691004395968,-0.0722656,-0.942383,0.388672
1480691004410507,-0.0722656,-0.930176,0.388184
1480691004442091,-0.0683594,-0.91748,0.379883
1480691004448107,-0.0668945,-0.911133,0.384766
1480691004471670,-0.0668945,-0.933594,0.382813
1480691004493232,-0.0698242,-0.947266,0.385254
1480691004507264,-0.0703125,-0.950195,0.381836
1480691004531830,-0.0683594,-0.938477,0.378906
1480691004553387,-0.0678711,-0.927246,0.390137
1480691004569430,-0.0634766,-0.916992,0.384766
1480691004590486,-0.0634766,-0.915527,0.392578
1480691004613045,-0.0639648,-0.931152,0.388672
1480691004634102,-0.0688477,-0.944824,0.38623
1480691004651648,-0.0722656,-0.943359,0.384766
1480691004673206,-0.0625,-0.938477,0.382813
1480691004694763,-0.0683594,-0.938477,0.386719
1480691004717824,-0.0654297,-0.926758,0.385742
1480691004732864,-0.0639648,-0.924805,0.389648
1480691004754923,-0.0668945,-0.924805,0.380371
1480691004776984,-0.065918,-0.936035,0.385742
1480691004793040,-0.0683594,-0.947754,0.390625
1480691004821601,-0.0727539,-0.940918,0.381348
1480691004830625,-0.0683594,-0.936523,0.388184
1480691004859203,-0.0664063,-0.929199,0.387207
1480691004874241,-0.0551758,-0.923828,0.381836
1480691004890283,-0.0620117,-0.928223,0.380371
1480691004912842,-0.065918,-0.938965,0.384766
1480691004933899,-0.0678711,-0.946289,0.383301
1480691004952448,-0.0673828,-0.945313,0.387695
1480691004973003,-0.0683594,-0.932129,0.388672
1480691004994060,-0.0649414,-0.918457,0.393555
1480691005010603,-0.0712891,-0.920898,0.390137
1480691005047200,-0.0581055,-0.906738,0.39209
1480691005054720,-0.0654297,-0.930664,0.37793
1480691005071264,-0.065918,-0.964844,0.370605
1480691005100341,-0.0629883,-0.967285,0.364258
1480691005113877,-0.0610352,-0.950684,0.367676
1480691005130422,-0.0571289,-0.924805,0.370605
1480691005153984,-0.0639648,-0.913086,0.374512
1480691005183063,-0.0585938,-0.915039,0.387695
1480691005190584,-0.0595703,-0.925781,0.389648
1480691005213643,-0.0668945,-0.938965,0.39209
1480691005235702,-0.0698242,-0.950195,0.393555
1480691005249739,-0.0737305,-0.94043,0.390625
1480691005273301,-0.0732422,-0.921875,0.389648
1480691005303381,-0.0737305,-0.918457,0.388184
1480691005311403,-0.0668945,-0.923828,0.388184
1480691005332960,-0.0649414,-0.932129,0.380859
1480691005355521,-0.065918,-0.946777,0.392578
1480691005378080,-0.0688477,-0.944336,0.387207
1480691005393124,-0.0664063,-0.943359,0.387207
1480691005415680,-0.0688477,-0.927734,0.37793
1480691005429717,-0.0634766,-0.925293,0.387695
1480691005454784,-0.0605469,-0.922852,0.38916
1480691005475843,-0.0639648,-0.924316,0.38916
1480691005499403,-0.0693359,-0.936523,0.384766
1480691005513440,-0.0664063,-0.944824,0.385254
1480691005536000,-0.0698242,-0.940918,0.39209
1480691005550037,-0.0668945,-0.932617,0.384766
1480691005588139,-0.0673828,-0.920898,0.383789
1480691005595659,-0.0605469,-0.91748,0.385742
1480691005609699,-0.0639648,-0.924805,0.378906
1480691005633259,-0.0698242,-0.938477,0.385254
1480691005656320,-0.0708008,-0.937012,0.38916
1480691005676376,-0.0698242,-0.943359,0.385254
1480691005693921,-0.0708008,-0.936035,0.391113
1480691005721994,-0.0639648,-0.926758,0.391602
1480691005736534,-0.0625,-0.92334,0.388672
1480691005754080,-0.0595703,-0.929199,0.382324
1480691005775639,-0.0644531,-0.933594,0.383301
1480691005804714,-0.0688477,-0.939941,0.38623
1480691005813237,-0.0703125,-0.942383,0.391113
1480691005841813,-0.0649414,-0.933105,0.38916
1480691005858859,-0.0688477,-0.919922,0.382324
1480691005872896,-0.0708008,-0.92334,0.383789
1480691005902976,-0.0664063,-0.931641,0.380371
1480691005916512,-0.0668945,-0.943359,0.380859
1480691005933056,-0.0693359,-0.946289,0.388672
1480691005956118,-0.0737305,-0.946777,0.39209
1480691005977674,-0.0703125,-0.939453,0.391113
1480691005992214,-0.0605469,-0.927246,0.392578
1480691006015776,-0.0600586,-0.916992,0.388672
1480691006037835,-0.0629883,-0.917969,0.380859
1480691006052874,-0.0629883,-0.924805,0.387207
1480691006084459,-0.0688477,-0.937988,0.382813
1480691006105515,-0.0683594,-0.939453,0.380371
1480691006121056,-0.0727539,-0.937988,0.383789
1480691006143616,-0.0673828,-0.924316,0.387207
1480691006158155,-0.0605469,-0.915039,0.387695
1480691006173195,-0.0654297,-0.923828,0.385742
1480691006195757,-0.0620117,-0.930176,0.394531
1480691006217814,-0.0708008,-0.941895,0.388184
1480691006232352,-0.0664063,-0.945801,0.392578
1480691006258923,-0.0732422,-0.942871,0.395508
1480691006278474,-0.0664063,-0.937012,0.388184
1480691006292516,-0.0639648,-0.926758,0.38623
1480691006315573,-0.0634766,-0.919922,0.384766
1480691006338133,-0.0629883,-0.925781,0.389648
1480691006362197,-0.0688477,-0.941895,0.394531
1480691006375734,-0.074707,-0.945801,0.390137
1480691006398293,-0.0698242,-0.942871,0.384766
1480691006412330,-0.0673828,-0.933594,0.38623
1480691006435392,-0.0683594,-0.923828,0.393066
1480691006459460,-0.0644531,-0.924316,0.386719
1480691006479007,-0.0625,-0.933105,0.390625
1480691006495552,-0.0649414,-0.937988,0.386719
1480691006518112,-0.0668945,-0.949707,0.389648
1480691006539168,-0.0737305,-0.943359,0.388672
1480691006555711,-0.0683594,-0.933105,0.385254
1480691006578273,-0.0620117,-0.924805,0.391602
1480691006606347,-0.0600586,-0.92041,0.381348
1480691006615371,-0.0600586,-0.92334,0.384277
1480691006637930,-0.0610352,-0.933594,0.385254
1480691006658988,-0.0615234,-0.941895,0.388184
1480691006676036,-0.0620117,-0.933594,0.391113
1480691006700095,-0.0654297,-0.930664,0.39502
1480691006719146,-0.0634766,-0.928711,0.390625
1480691006736692,-0.0581055,-0.924805,0.38916
1480691006758250,-0.0585938,-0.924805,0.392578
1480691006779306,-0.0620117,-0.931152,0.396973
1480691006795351,-0.0664063,-0.941406,0.396484
1480691006817909,-0.0693359,-0.943848,0.396484
1480691006840972,-0.0605469,-0.9375,0.397461
1480691006855509,-0.0581055,-0.921387,0.388672
1480691006884587,-0.0566406,-0.911133,0.39502
1480691006902133,-0.0585938,-0.919434,0.39502
1480691006916672,-0.0576172,-0.932129,0.395508
1480691006938230,-0.0639648,-0.941406,0.39209
1480691006959295,-0.0668945,-0.942383,0.392578
1480691006982847,-0.0678711,-0.938965,0.397949
1480691006998890,-0.0625,-0.926758,0.395508
1480691007018943,-0.0551758,-0.92334,0.395508
1480691007043509,-0.0527344,-0.92041,0.393555
1480691007058049,-0.0507813,-0.922852,0.397949
1480691007080607,-0.050293,-0.929688,0.396484
1480691007095647,-0.059082,-0.93457,0.385742
1480691007134250,-0.0581055,-0.930176,0.387695
1480691007140767,-0.0522461,-0.921875,0.39209
1480691007161823,-0.0537109,-0.915039,0.382813
1480691007185887,-0.0517578,-0.916016,0.38916
1480691007200426,-0.0517578,-0.924805,0.384277
1480691007214965,-0.0585938,-0.936523,0.38916
1480691007238026,-0.0600586,-0.941895,0.397461
1480691007268106,-0.0649414,-0.939453,0.400391
1480691007275125,-0.0585938,-0.931152,0.402344
1480691007298186,-0.0600586,-0.921387,0.410645
1480691007320245,-0.0581055,-0.913574,0.397949
1480691007334784,-0.0610352,-0.91748,0.402344
1480691007358851,-0.0595703,-0.930176,0.38916
1480691007380404,-0.0620117,-0.937988,0.390625
1480691007402964,-0.0615234,-0.937988,0.384277
1480691007418004,-0.0610352,-0.929199,0.385742
1480691007440564,-0.0571289,-0.928711,0.384277
1480691007455103,-0.0537109,-0.921875,0.392578
1480691007479167,-0.0551758,-0.925293,0.39502
1480691007507743,-0.0595703,-0.933105,0.401855
1480691007523789,-0.0649414,-0.943359,0.401855
1480691007538324,-0.0722656,-0.944824,0.399414
1480691007561388,-0.0712891,-0.933105,0.398926
1480691007588959,-0.0654297,-0.918945,0.396484
1480691007597983,-0.065918,-0.916016,0.38916
1480691007621044,-0.0673828,-0.91748,0.382813
1480691007641600,-0.0625,-0.932617,0.381836
1480691007667171,-0.065918,-0.940918,0.381836
1480691007681204,-0.065918,-0.938477,0.384766
1480691007701759,-0.0668945,-0.935059,0.388184
1480691007717802,-0.0615234,-0.932129,0.385742
1480691007746378,-0.0585938,-0.922363,0.38916
1480691007761418,-0.0600586,-0.924316,0.388184
1480691007786485,-0.0698242,-0.933594,0.395996
1480691007800522,-0.0654297,-0.938965,0.390137
1480691007823082,-0.0771484,-0.943848,0.387695
1480691007838122,-0.0722656,-0.939941,0.381836
1480691007875221,-0.0708008,-0.926758,0.387207
1480691007899287,-0.0629883,-0.922363,0.385254
1480691007904298,-0.0585938,-0.927734,0.380859
1480691007920842,-0.0644531,-0.932129,0.377441
1480691007941898,-0.0698242,-0.94043,0.385254
1480691007965962,-0.0766602,-0.946289,0.387695
1480691007988020,-0.0756836,-0.947266,0.383301
1480691008003562,-0.0732422,-0.935059,0.38916
1480691008025621,-0.0708008,-0.919434,0.393066
1480691008040661,-0.0693359,-0.925293,0.385254
1480691008079264,-0.0722656,-0.926758,0.379395
1480691008084276,-0.0786133,-0.939941,0.38623
1480691008107839,-0.0751953,-0.946289,0.383301
1480691008122880,-0.0742188,-0.946289,0.37793
1480691008146442,-0.0698242,-0.937988,0.383789
1480691008168501,-0.0678711,-0.919434,0.385254
1480691008193065,-0.0668945,-0.919922,0.384766
1480691008197577,-0.0668945,-0.930176,0.383789
1480691008220639,-0.074707,-0.939941,0.380859
1480691008243200,-0.0717773,-0.941406,0.38623
1480691008272278,-0.0761719,-0.942871,0.389648
1480691008290328,-0.0732422,-0.937988,0.386719
1480691008302858,-0.0727539,-0.919922,0.382813
1480691008317397,-0.0703125,-0.919922,0.382813
1480691008340960,-0.0742188,-0.929199,0.380371
1480691008371540,-0.0732422,-0.940918,0.379395
1480691008379064,-0.0708008,-0.945313,0.379395
1480691008401620,-0.0708008,-0.943359,0.387207
1480691008429195,-0.0761719,-0.940918,0.380371
1480691008444237,-0.0693359,-0.927734,0.38623
1480691008460276,-0.065918,-0.920898,0.391602
1480691008488853,-0.0625,-0.927246,0.38623
1480691008503892,-0.0668945,-0.936523,0.386719
1480691008527956,-0.0717773,-0.938965,0.380859
1480691008542996,-0.0756836,-0.942383,0.383789
1480691008566061,-0.0766602,-0.938477,0.383301
1480691008581098,-0.0727539,-0.926758,0.384277
1480691008603156,-0.0673828,-0.921387,0.379883
1480691008624213,-0.0654297,-0.927734,0.385254
1480691008640757,-0.0668945,-0.935547,0.388672
1480691008662817,-0.0742188,-0.937988,0.389648
1480691008684372,-0.0751953,-0.943359,0.386719
1480691008700916,-0.0698242,-0.942383,0.385742
1480691008723476,-0.0722656,-0.928223,0.382813
1480691008744033,-0.0717773,-0.918457,0.386719
1480691008766591,-0.0639648,-0.927246,0.385254
1480691008789151,-0.0668945,-0.932129,0.383301
1480691008804191,-0.0722656,-0.941895,0.383789
1480691008826753,-0.0737305,-0.944824,0.379883
1480691008843295,-0.0708008,-0.942871,0.38623
1480691008871369,-0.0708008,-0.930176,0.385254
1480691008893930,-0.0693359,-0.921875,0.380859
1480691008902953,-0.0668945,-0.922363,0.381348
1480691008926015,-0.0639648,-0.929688,0.384766
1480691008940554,-0.0693359,-0.941895,0.380859
1480691008963113,-0.0751953,-0.948242,0.384766
1480691008985674,-0.0717773,-0.943359,0.385254
1480691009000713,-0.0703125,-0.932617,0.390137
1480691009023775,-0.0625,-0.92334,0.376953
1480691009045332,-0.0673828,-0.916992,0.388184
1480691009060874,-0.0673828,-0.931641,0.385742
1480691009090954,-0.0717773,-0.932617,0.39209
1480691009105492,-0.0712891,-0.938965,0.383789
1480691009120030,-0.0766602,-0.94043,0.385742
1480691009143594,-0.0712891,-0.929688,0.382813
1480691009173673,-0.0654297,-0.926758,0.381836
1480691009186709,-0.0688477,-0.923828,0.390625
1480691009203754,-0.0683594,-0.928711,0.385254
1480691009225813,-0.0673828,-0.94043,0.384766
1480691009240853,-0.0727539,-0.950195,0.387207
1480691009270430,-0.0732422,-0.941895,0.386719
1480691009285472,-0.0717773,-0.931641,0.390625
1480691009301514,-0.074707,-0.924805,0.381348
1480691009330590,-0.0688477,-0.921875,0.38623
1480691009345630,-0.0693359,-0.92334,0.375
1480691009360171,-0.0737305,-0.934082,0.382813
1480691009383230,-0.0737305,-0.94873,0.379883
1480691009405791,-0.0776367,-0.94873,0.382813
1480691009435369,-0.0727539,-0.93457,0.38916
1480691009444397,-0.0722656,-0.925781,0.384277
1480691009465449,-0.0634766,-0.922852,0.380859
1480691009494025,-0.0673828,-0.927246,0.383789
1480691009504052,-0.0688477,-0.936035,0.385742
1480691009547668,-0.0737305,-0.939453,0.385254
1480691009554686,-0.0761719,-0.94873,0.384277
1480691009576745,-0.0751953,-0.937988,0.383789
1480691009585770,-0.0722656,-0.929688,0.385254
1480691009606825,-0.0717773,-0.923828,0.382324
1480691009622868,-0.0673828,-0.919922,0.380859
1480691009645929,-0.0722656,-0.931641,0.38623
1480691009666483,-0.0732422,-0.941406,0.379883
1480691009683028,-0.0722656,-0.943848,0.386719
1480691009705588,-0.0708008,-0.939453,0.37793
1480691009728150,-0.0688477,-0.929688,0.384766
1480691009743188,-0.0688477,-0.925781,0.387695
1480691009773268,-0.0717773,-0.928711,0.380859
1480691009786302,-0.0737305,-0.93457,0.383789
1480691009817886,-0.0703125,-0.939941,0.382813
1480691009825407,-0.0722656,-0.950195,0.382813
1480691009854483,-0.0717773,-0.941406,0.381348
1480691009864009,-0.0703125,-0.927734,0.38916
1480691009887070,-0.0664063,-0.91748,0.381348
1480691009908633,-0.0693359,-0.91748,0.38623
1480691009923166,-0.0717773,-0.931641,0.382813
1480691009946227,-0.0722656,-0.941895,0.378418
1480691009968287,-0.0742188,-0.943848,0.376953
1480691010005887,-0.0732422,-0.939453,0.384766
1480691010011400,-0.0722656,-0.932617,0.385254
1480691010027946,-0.0673828,-0.917969,0.382324
1480691010042484,-0.0664063,-0.92041,0.383789
1480691010065545,-0.0654297,-0.925781,0.387207
1480691010088606,-0.0693359,-0.936035,0.386719
1480691010102142,-0.0737305,-0.94873,0.388184
1480691010125706,-0.0761719,-0.943359,0.391113
1480691010147763,-0.0756836,-0.935547,0.378418
1480691010163305,-0.0688477,-0.919922,0.381836
1480691010185865,-0.0668945,-0.919922,0.387695
1480691010208427,-0.0673828,-0.925293,0.384766
1480691010222462,-0.0727539,-0.93457,0.383301
1480691010245523,-0.0742188,-0.945313,0.387207
1480691010269086,-0.0751953,-0.943848,0.380371
1480691010289141,-0.0717773,-0.934082,0.387695
1480691010305684,-0.0688477,-0.928711,0.385254
1480691010328243,-0.0693359,-0.917969,0.38623
1480691010342281,-0.0693359,-0.921875,0.380371
1480691010381886,-0.0693359,-0.933105,0.384277
1480691010387902,-0.0683594,-0.944824,0.376465
1480691010408958,-0.0742188,-0.943359,0.386719
1480691010425504,-0.078125,-0.933594,0.382813
1480691010448563,-0.0732422,-0.927734,0.382813
1480691010469119,-0.0756836,-0.921875,0.383789
1480691010485662,-0.0732422,-0.928711,0.383789
1480691010514238,-0.0722656,-0.94043,0.381348
1480691010529277,-0.0717773,-0.947266,0.385742
1480691010545321,-0.0766602,-0.950684,0.377441
1480691010573897,-0.0761719,-0.935059,0.37793
1480691010591444,-0.0766602,-0.928223,0.381348
1480691010607487,-0.0678711,-0.922363,0.375
1480691010628041,-0.0673828,-0.927246,0.38916
1480691010656617,-0.0708008,-0.935547,0.378906
1480691010666142,-0.0722656,-0.937988,0.389648
1480691010688201,-0.0761719,-0.942871,0.384277
1480691010709256,-0.0776367,-0.935547,0.386719
1480691010725303,-0.074707,-0.923828,0.387207
1480691010747860,-0.0688477,-0.922852,0.380371
1480691010776436,-0.0664063,-0.927246,0.380859
1480691010785960,-0.0737305,-0.93457,0.379883
1480691010808021,-0.0776367,-0.942871,0.383789
1480691010845118,-0.0771484,-0.939453,0.383301
1480691010854643,-0.0771484,-0.938965,0.382813
1480691010869683,-0.0751953,-0.933594,0.383789
1480691010890739,-0.0717773,-0.918945,0.384277
1480691010906785,-0.0703125,-0.922363,0.39209
1480691010927838,-0.0649414,-0.929199,0.383301
1480691010951902,-0.0727539,-0.937988,0.376465
1480691010965438,-0.0776367,-0.943848,0.384766
1480691010987999,-0.0722656,-0.939941,0.378906
1480691011010558,-0.0756836,-0.933105,0.382324
1480691011025099,-0.0698242,-0.926758,0.383789
1480691011049662,-0.0625,-0.92334,0.38623
1480691011076734,-0.0693359,-0.933594,0.38623
1480691011084756,-0.0756836,-0.9375,0.381348
1480691011115336,-0.078125,-0.945801,0.393066
1480691011132883,-0.0795898,-0.943359,0.388672
1480691011151434,-0.0732422,-0.934082,0.382324
1480691011169480,-0.0751953,-0.921387,0.384277
1480691011199059,-0.0639648,-0.918457,0.385742
1480691011206579,-0.065918,-0.924805,0.373535
1480691011232651,-0.074707,-0.93457,0.381348
1480691011251699,-0.078125,-0.943359,0.383301
1480691011264734,-0.0737305,-0.942383,0.386719
1480691011294313,-0.0722656,-0.934082,0.387207
1480691011310355,-0.0693359,-0.92334,0.379883
1480691011331411,-0.0625,-0.922363,0.381836
1480691011348958,-0.0629883,-0.923828,0.380371
1480691011370515,-0.0727539,-0.94043,0.388184
1480691011393577,-0.0771484,-0.95459,0.384277
1480691011409118,-0.078125,-0.949219,0.387207
1480691011431177,-0.0766602,-0.939941,0.394043
1480691011451731,-0.0703125,-0.929199,0.385742
1480691011467774,-0.0673828,-0.926758,0.385742
1480691011491840,-0.0649414,-0.92334,0.385742
1480691011518910,-0.0688477,-0.930176,0.382324
1480691011543976,-0.0771484,-0.939941,0.380859
1480691011550996,-0.0761719,-0.945801,0.379883
1480691011579069,-0.0761719,-0.940918,0.381348
1480691011595613,-0.0698242,-0.927246,0.378418
1480691011610653,-0.0693359,-0.91748,0.379883
1480691011633214,-0.0698242,-0.924805,0.382324
1480691011648254,-0.0703125,-0.9375,0.376953
1480691011676328,-0.0678711,-0.945801,0.384277
1480691011691871,-0.0776367,-0.948242,0.38916
1480691011707914,-0.0761719,-0.943359,0.380859
1480691011730473,-0.0708008,-0.925293,0.394043
1480691011759050,-0.0654297,-0.917969,0.387207
1480691011769581,-0.0708008,-0.922852,0.380859
1480691011798154,-0.0717773,-0.939941,0.384766
1480691011813192,-0.0673828,-0.948242,0.387207
1480691011828232,-0.0732422,-0.947266,0.388672
1480691011856810,-0.0717773,-0.941895,0.394531
1480691011874355,-0.065918,-0.936035,0.384766
1480691011888392,-0.065918,-0.929688,0.382324
1480691011910451,-0.0693359,-0.920898,0.381348
1480691011933012,-0.0668945,-0.925293,0.385742
1480691011948058,-0.0712891,-0.935547,0.386719
1480691011970612,-0.0761719,-0.943359,0.378906
1480691011993171,-0.0737305,-0.942383,0.384766
1480691012007711,-0.0776367,-0.927734,0.382813
1480691012031272,-0.0683594,-0.916992,0.378418
1480691012052829,-0.0649414,-0.914063,0.382813
1480691012058346,-0.0708008,-0.925781,0.379883
1480691012076392,-0.0683594,-0.936035,0.383301
1480691012103464,-0.0717773,-0.943359,0.382324
1480691012131037,-0.0678711,-0.944336,0.378418
1480691012136552,-0.0615234,-0.936523,0.389648
1480691012156104,-0.0644531,-0.925781,0.390625
1480691012178665,-0.0620117,-0.922363,0.385742
1480691012194706,-0.0625,-0.925293,0.385742
1480691012238824,-0.0683594,-0.935059,0.387207
1480691012249352,-0.0698242,-0.942871,0.385742
1480691012254867,-0.0742188,-0.944824,0.391602
1480691012275923,-0.0722656,-0.936035,0.390137
1480691012298483,-0.0668945,-0.924316,0.390625
1480691012323051,-0.0634766,-0.92041,0.388672
1480691012336082,-0.0629883,-0.928711,0.383789
1480691012358646,-0.0620117,-0.940918,0.392578
1480691012383709,-0.0600586,-0.943359,0.390625
1480691012403762,-0.0678711,-0.950684,0.391113
1480691012428829,-0.0683594,-0.941406,0.388672
1480691012436350,-0.0615234,-0.927246,0.38623
1480691012455902,-0.065918,-0.919922,0.38623
1480691012485981,-0.0634766,-0.922363,0.383301
1480691012505533,-0.0639648,-0.927734,0.390137
1480691012516061,-0.0664063,-0.9375,0.384277
1480691012546141,-0.0683594,-0.938477,0.379395
1480691012561183,-0.0727539,-0.934082,0.382813
1480691012575719,-0.065918,-0.92627,0.383301
1480691012601288,-0.0581055,-0.917969,0.380371
1480691012635379,-0.0595703,-0.92334,0.38623
1480691012639895,-0.0615234,-0.931152,0.382813
1480691012659945,-0.0678711,-0.941895,0.38916
1480691012704061,-0.0678711,-0.941895,0.386719
1480691012715091,-0.0668945,-0.940918,0.390137
1480691012719602,-0.0634766,-0.926758,0.389648
1480691012741164,-0.0625,-0.921387,0.390625
1480691012755698,-0.0581055,-0.92334,0.392578
1480691012781267,-0.0654297,-0.930176,0.385254
1480691012800818,-0.0654297,-0.940918,0.388184
1480691012815860,-0.0678711,-0.944336,0.387695
1480691012838920,-0.0717773,-0.940918,0.384766
1480691012878024,-0.0717773,-0.931152,0.391113
1480691012880531,-0.0629883,-0.920898,0.393066
1480691012906099,-0.0620117,-0.918457,0.391113
1480691012937682,-0.0639648,-0.92627,0.391113
1480691012940189,-0.0673828,-0.933594,0.38916
1480691012965757,-0.0683594,-0.950195,0.388184
1480691012980797,-0.0683594,-0.943359,0.388672
1480691012995838,-0.0639648,-0.934082,0.390137
1480691013018398,-0.065918,-0.919434,0.385254
1480691013040961,-0.0625,-0.920898,0.384277
1480691013059006,-0.0605469,-0.923828,0.386719
1480691013078557,-0.065918,-0.935547,0.394531
1480691013101117,-0.0693359,-0.945801,0.384277
1480691013116157,-0.0761719,-0.938965,0.391602
1480691013162781,-0.0668945,-0.933594,0.38623
1480691013167292,-0.0664063,-0.921387,0.381836
1480691013183335,-0.0615234,-0.919434,0.382324
1480691013199880,-0.0615234,-0.92627,0.383301
1480691013230461,-0.0644531,-0.936523,0.383789
1480691013235975,-0.0698242,-0.947754,0.389648
1480691013258537,-0.0688477,-0.944824,0.387207
1480691013281102,-0.0708008,-0.936035,0.389648
1480691013297138,-0.0625,-0.92334,0.383301
1480691013318696,-0.0639648,-0.92041,0.386719
1480691013343762,-0.0615234,-0.920898,0.388672
1480691013357300,-0.0629883,-0.934082,0.386719
1480691013378354,-0.074707,-0.943848,0.382324
1480691013400914,-0.0751953,-0.947266,0.388184
1480691013419463,-0.0761719,-0.937012,0.38916
1480691013438514,-0.0664063,-0.926758,0.393555
1480691013464083,-0.0644531,-0.923828,0.393066
1480691013486142,-0.0625,-0.92334,0.38916
1480691013498674,-0.0644531,-0.931641,0.385254
1480691013521234,-0.0698242,-0.94043,0.38916
1480691013537277,-0.0732422,-0.943848,0.387207
1480691013558337,-0.0683594,-0.938965,0.385742
1480691013580894,-0.0668945,-0.928223,0.382813
1480691013612476,-0.0639648,-0.924316,0.380859
1480691013626013,-0.0605469,-0.921875,0.382324
1480691013641053,-0.0673828,-0.926758,0.384766
1480691013657598,-0.0668945,-0.942871,0.389648
1480691013678653,-0.0678711,-0.94043,0.385254
1480691013700712,-0.0688477,-0.939941,0.387695
1480691013718759,-0.0668945,-0.929688,0.386719
1480691013738312,-0.0634766,-0.924805,0.385742
1480691013760872,-0.0595703,-0.921875,0.382324
1480691013778920,-0.0629883,-0.931641,0.382324
1480691013798472,-0.0683594,-0.938477,0.384766
1480691013821031,-0.0693359,-0.944824,0.390625
1480691013841091,-0.0708008,-0.941895,0.38623
1480691013865650,-0.0737305,-0.932617,0.390137
1480691013888210,-0.0654297,-0.922363,0.393555
1480691013906259,-0.0644531,-0.919922,0.387695
1480691013918290,-0.0634766,-0.922852,0.388184
1480691013940854,-0.0678711,-0.935059,0.385254
1480691013959399,-0.0712891,-0.946289,0.38623
1480691013994493,-0.0756836,-0.941406,0.387207
1480691014018056,-0.0708008,-0.937012,0.387207
1480691014023570,-0.0673828,-0.926758,0.380371
1480691014038610,-0.0625,-0.919434,0.391113
1480691014061170,-0.0639648,-0.926758,0.385742
1480691014083228,-0.0678711,-0.937988,0.387207
1480691014098268,-0.0742188,-0.94043,0.39209
1480691014120829,-0.0717773,-0.938965,0.38623
1480691014152412,-0.0698242,-0.933594,0.38916
1480691014165949,-0.065918,-0.92334,0.384277
1480691014180989,-0.0629883,-0.916504,0.380859
1480691014203548,-0.0654297,-0.918457,0.375488
1480691014218588,-0.0737305,-0.932617,0.391113
1480691014248669,-0.0732422,-0.944824,0.383789
1480691014263207,-0.0717773,-0.945313,0.395996
1480691014295292,-0.0708008,-0.939941,0.393555
1480691014300809,-0.0668945,-0.927246,0.387207
1480691014334397,-0.0654297,-0.922363,0.396484
1480691014340413,-0.0668945,-0.925293,0.389648
1480691014360967,-0.0708008,-0.932617,0.383789
1480691014383527,-0.0698242,-0.939941,0.390625
1480691014400072,-0.0751953,-0.945801,0.387695
1480691014421127,-0.0712891,-0.944336,0.385742
1480691014443687,-0.0678711,-0.928223,0.392578
1480691014461234,-0.0683594,-0.918945,0.387695
1480691014480785,-0.0644531,-0.920898,0.388184
1480691014503346,-0.0708008,-0.932129,0.386719
1480691014536935,-0.0673828,-0.937988,0.38623
1480691014548466,-0.074707,-0.944336,0.387695
1480691014565010,-0.0732422,-0.939941,0.382813
1480691014580052,-0.0727539,-0.928711,0.382813
1480691014601105,-0.0625,-0.922363,0.381348
1480691014623667,-0.0629883,-0.919434,0.379883
1480691014641215,-0.0644531,-0.92627,0.382813
1480691014662269,-0.0698242,-0.936035,0.392578
1480691014683325,-0.0717773,-0.942871,0.382813
1480691014708893,-0.0737305,-0.942871,0.387207
1480691014720925,-0.0732422,-0.930176,0.390137
1480691014743484,-0.0649414,-0.92627,0.386719
1480691014761533,-0.0688477,-0.916992,0.384766
1480691014784092,-0.0644531,-0.926758,0.381836
1480691014810663,-0.0703125,-0.932617,0.38623
1480691014821191,-0.0717773,-0.946777,0.392578
1480691014840744,-0.0698242,-0.945801,0.387207
1480691014863303,-0.0698242,-0.935547,0.385254
1480691014881351,-0.0708008,-0.92627,0.38623
1480691014900903,-0.065918,-0.913574,0.38916
1480691014926472,-0.0654297,-0.923828,0.384277
1480691014941511,-0.0673828,-0.93457,0.384277
1480691014961063,-0.0737305,-0.936523,0.387695
1480691014986129,-0.0712891,-0.944336,0.387207
1480691015001169,-0.0703125,-0.938965,0.385742
1480691015020721,-0.0688477,-0.921875,0.384277
1480691015046290,-0.0683594,-0.92041,0.383301
1480691015061330,-0.0644531,-0.928223,0.38623
1480691015089906,-0.0615234,-0.932617,0.384766
1480691015103441,-0.0712891,-0.94043,0.385254
1480691015134524,-0.0698242,-0.943848,0.394531
1480691015141049,-0.0727539,-0.94043,0.390625
1480691015163601,-0.0703125,-0.928223,0.388184
1480691015188668,-0.0678711,-0.918457,0.391602
1480691015201202,-0.065918,-0.920898,0.384766
1480691015223261,-0.0644531,-0.930176,0.385742
1480691015241312,-0.0703125,-0.943359,0.383301
1480691015263868,-0.0678711,-0.939941,0.385742
1480691015300465,-0.0732422,-0.936523,0.386719
1480691015302972,-0.0751953,-0.928711,0.381348
1480691015323027,-0.0673828,-0.915039,0.383301
1480691015343580,-0.0664063,-0.916016,0.38623
1480691015368647,-0.0654297,-0.927734,0.378418
1480691015382182,-0.065918,-0.936523,0.379395
1480691015410758,-0.0668945,-0.941895,0.379395
1480691015421287,-0.0678711,-0.937988,0.377441
1480691015448359,-0.0708008,-0.930176,0.381836
1480691015463399,-0.0693359,-0.922363,0.391113
1480691015488967,-0.0668945,-0.922852,0.38623
1480691015502503,-0.0668945,-0.931641,0.38623
1480691015523559,-0.0708008,-0.939453,0.385742
1480691015546118,-0.0742188,-0.943359,0.390625
1480691015569682,-0.0742188,-0.944336,0.391113
1480691015590738,-0.0742188,-0.935547,0.392578
1480691015605777,-0.0756836,-0.923828,0.390625
1480691015636360,-0.0766602,-0.923828,0.383789
1480691015652402,-0.0688477,-0.930664,0.381348
1480691015665938,-0.0751953,-0.941895,0.380859
1480691015683984,-0.0732422,-0.948242,0.380371
1480691015703538,-0.078125,-0.941406,0.386719
1480691015726098,-0.0717773,-0.935547,0.380371
1480691015752166,-0.0649414,-0.924805,0.378906
1480691015763698,-0.0678711,-0.925781,0.381836
1480691015785756,-0.0698242,-0.925293,0.379883
1480691015803804,-0.0693359,-0.935547,0.380859
1480691015830877,-0.074707,-0.939941,0.376465
1480691015853436,-0.0786133,-0.945313,0.375977
1480691015863966,-0.0766602,-0.93457,0.373535
1480691015886524,-0.0727539,-0.928223,0.376953
1480691015906577,-0.0717773,-0.922852,0.374512
1480691015923625,-0.0703125,-0.926758,0.382813
1480691015943175,-0.0742188,-0.929688,0.379395
1480691015965734,-0.0766602,-0.948242,0.380859
1480691015983782,-0.0786133,-0.950195,0.379395
1480691016003334,-0.0771484,-0.945313,0.381348
1480691016025896,-0.0722656,-0.932617,0.38623
1480691016051463,-0.0698242,-0.926758,0.389648
1480691016071015,-0.0693359,-0.926758,0.390137
1480691016110119,-0.0742188,-0.936523,0.380371
1480691016112625,-0.0751953,-0.946289,0.382324
1480691016130673,-0.0810547,-0.947754,0.387695
1480691016145713,-0.0776367,-0.940918,0.379395
1480691016163761,-0.0737305,-0.935059,0.381836
1480691016190842,-0.0683594,-0.924805,0.386719
1480691016207379,-0.0668945,-0.925781,0.383789
1480691016229937,-0.0668945,-0.930176,0.382813
1480691016246481,-0.0708008,-0.937988,0.375488
1480691016273557,-0.0717773,-0.946289,0.375488
1480691016291607,-0.0761719,-0.938477,0.381348
1480691016305137,-0.0698242,-0.933594,0.384766
1480691016328700,-0.0683594,-0.926758,0.385742
1480691016349755,-0.065918,-0.919434,0.384766
1480691016372316,-0.0673828,-0.925781,0.382813
1480691016385852,-0.0703125,-0.941406,0.38623
1480691016411420,-0.0693359,-0.942871,0.384766
1480691016424961,-0.0712891,-0.937012,0.383789
1480691016446012,-0.0727539,-0.931152,0.382813
1480691016472585,-0.0712891,-0.92334,0.385254
1480691016485116,-0.0703125,-0.919922,0.384277
1480691016505670,-0.0639648,-0.930176,0.38623
1480691016525225,-0.0708008,-0.935059,0.394043
1480691016553798,-0.0737305,-0.942871,0.38623
1480691016568839,-0.0712891,-0.945313,0.385742
1480691016583879,-0.0693359,-0.933105,0.391113
1480691016606439,-0.0703125,-0.919434,0.391602
1480691016628999,-0.0664063,-0.918457,0.385742
1480691016648551,-0.0688477,-0.923828,0.382813
1480691016674121,-0.0698242,-0.9375,0.380859
1480691016702694,-0.0722656,-0.940918,0.387207
1480691016707212,-0.0683594,-0.952148,0.388672
1480691016726258,-0.0678711,-0.928223,0.386719
1480691016753329,-0.0708008,-0.926758,0.387695
1480691016763857,-0.0717773,-0.929688,0.383789
1480691016786417,-0.0615234,-0.935547,0.379883
1480691016805970,-0.0683594,-0.92334,0.378906
1480691016824017,-0.0703125,-0.930176,0.384766
1480691016846577,-0.0776367,-0.958984,0.394043
1480691016866129,-0.0898438,-0.94043,0.390625
1480691016892200,-0.090332,-0.933105,0.378906
1480691016906236,-0.0761719,-0.915039,0.388672
1480691016928795,-0.0688477,-0.912109,0.381836
1480691016943835,-0.0576172,-0.929688,0.388672
1480691016967399,-0.0605469,-0.948242,0.389648
1480691016985948,-0.0791016,-0.949219,0.365723
1480691017008507,-0.0820313,-0.932129,0.374023
1480691017031068,-0.0786133,-0.90918,0.375977
1480691017046108,-0.0820313,-0.90918,0.381348
1480691017068670,-0.0791016,-0.940918,0.387207
1480691017086215,-0.0756836,-0.937012,0.383301
1480691017105767,-0.0795898,-0.944336,0.380371
1480691017128326,-0.0791016,-0.940918,0.384766
1480691017161414,-0.0742188,-0.936035,0.37793
1480691017167431,-0.0732422,-0.937012,0.384766
1480691017188486,-0.0771484,-0.92627,0.381836
1480691017206536,-0.0786133,-0.922363,0.374512
1480691017233606,-0.0776367,-0.923828,0.377441
1480691017248648,-0.0859375,-0.937012,0.375
1480691017266193,-0.0913086,-0.93457,0.370117
1480691017288251,-0.0883789,-0.94043,0.375488
1480691017311313,-0.0791016,-0.944336,0.382324
1480691017331868,-0.0791016,-0.938965,0.368652
1480691017354929,-0.0737305,-0.932129,0.376953
1480691017368464,-0.0771484,-0.919922,0.378906
1480691017394033,-0.0810547,-0.927734,0.383789
1480691017407572,-0.0830078,-0.95752,0.387695
1480691017431131,-0.0830078,-0.95459,0.381348
1480691017452187,-0.0791016,-0.936523,0.385742
1480691017468732,-0.078125,-0.919922,0.375
1480691017489287,-0.0751953,-0.909668,0.375
1480691017506331,-0.0742188,-0.928711,0.370117
1480691017528892,-0.074707,-0.941406,0.375
1480691017548443,-0.081543,-0.945313,0.376953
1480691017566491,-0.0786133,-0.945801,0.383789
1480691017602085,-0.0820313,-0.934082,0.38623
1480691017616124,-0.0722656,-0.925781,0.390625
1480691017656732,-0.0751953,-0.919434,0.383301
1480691017661744,-0.0791016,-0.930176,0.382813
1480691017669766,-0.078125,-0.937988,0.387695
1480691017698343,-0.0737305,-0.945801,0.379395
1480691017714886,-0.0771484,-0.943848,0.385254
1480691017728423,-0.0805664,-0.9375,0.380859
1480691017746971,-0.0771484,-0.929199,0.382324
1480691017770032,-0.0756836,-0.919922,0.374512
1480691017788582,-0.0756836,-0.928223,0.377441
1480691017812144,-0.0771484,-0.939941,0.379395
1480691017828688,-0.0810547,-0.939453,0.384766
1480691017855761,-0.0771484,-0.943359,0.379883
1480691017873812,-0.0776367,-0.937988,0.377441
1480691017904390,-0.0727539,-0.922852,0.380371
1480691017908400,-0.0678711,-0.925293,0.384766
1480691017926449,-0.0708008,-0.937988,0.37207
1480691017957032,-0.0727539,-0.942383,0.383789
1480691017976080,-0.0786133,-0.941895,0.380371
1480691017986107,-0.0795898,-0.939453,0.389648
1480691018008668,-0.0795898,-0.958008,0.384766
1480691018035739,-0.0898438,-0.941895,0.383301
1480691018061307,-0.0869141,-0.92041,0.372559
1480691018076347,-0.0771484,-0.900879,0.382324
1480691018090886,-0.0776367,-0.911621,0.384766
1480691018106427,-0.0693359,-0.94043,0.387207
1480691018158066,-0.0693359,-0.956543,0.396973
1480691018160572,-0.0727539,-0.94873,0.391602
1480691018179622,-0.0820313,-0.933105,0.382813
1480691018189649,-0.0830078,-0.927246,0.395996
1480691018232763,-0.0820313,-0.92627,0.394531
1480691018235270,-0.0771484,-0.933594,0.385742
1480691018264347,-0.0771484,-0.936523,0.384277
1480691018269862,-0.0844727,-0.928711,0.379883
1480691018286406,-0.0878906,-0.934082,0.374512
1480691018330522,-0.0810547,-0.93457,0.378906
1480691018336037,-0.0639648,-0.919922,0.374023
1480691018353585,-0.065918,-0.915527,0.373047
1480691018373640,-0.0737305,-0.929199,0.373535
1480691018389681,-0.0805664,-0.94043,0.385742
1480691018407233,-0.0766602,-0.953125,0.388672
1480691018434800,-0.0869141,-0.953613,0.396484
1480691018458869,-0.0898438,-0.946777,0.37793
1480691018472901,-0.0786133,-0.927246,0.394043
1480691018494960,-0.0800781,-0.911133,0.382813
1480691018511504,-0.0888672,-0.92041,0.380371
1480691018532560,-0.078125,-0.94043,0.374023
1480691018549606,-0.0722656,-0.945801,0.385742
1480691018575675,-0.0825195,-0.937988,0.385254
1480691018590716,-0.0830078,-0.932617,0.381836
1480691018608763,-0.0751953,-0.92627,0.383301
1480691018632326,-0.081543,-0.915039,0.386719
1480691018650874,-0.0722656,-0.929688,0.387695
1480691018669424,-0.0825195,-0.939453,0.379883
1480691018704517,-0.0874023,-0.946777,0.383301
1480691018718555,-0.0883789,-0.937012,0.386719
1480691018728582,-0.0844727,-0.935059,0.387207
1480691018766182,-0.0737305,-0.935547,0.392578
1480691018771696,-0.0766602,-0.922852,0.393555
1480691018795760,-0.0952148,-0.911621,0.36084
1480691018811302,-0.0512695,-0.944824,0.382813
1480691018838374,-0.0581055,-0.925293,0.421875
1480691018849904,-0.107422,-0.92041,0.395508
1480691018870459,-0.0834961,-0.961426,0.400391
1480691018908563,-0.0751953,-0.97168,0.383789
1480691018911067,-0.0805664,-0.928711,0.347168
1480691018930619,-0.0561523,-0.890137,0.367188
1480691018951674,-0.0556641,-0.902832,0.380371
1480691018968721,-0.100098,-0.927734,0.374512
1480691018991785,-0.0810547,-0.954102,0.37793
1480691019012335,-0.0732422,-0.943359,0.37793
1480691019028880,-0.0727539,-0.925293,0.378418
1480691019050437,-0.0693359,-0.916992,0.375488
1480691019071493,-0.0639648,-0.91748,0.385742
1480691019088539,-0.0708008,-0.925781,0.388672
1480691019111600,-0.0795898,-0.936523,0.386719
1480691019131653,-0.0810547,-0.9375,0.387695
1480691019148197,-0.0917969,-0.939453,0.384766
1480691019170757,-0.0849609,-0.933105,0.382813
1480691019208859,-0.078125,-0.932617,0.388672
1480691019215376,-0.0668945,-0.922852,0.398438
1480691019236432,-0.0649414,-0.927246,0.415039
1480691019258994,-0.0683594,-0.93457,0.416504
1480691019268017,-0.0708008,-0.953125,0.400391
1480691019297594,-0.0776367,-0.935547,0.400391
1480691019311632,-0.0869141,-0.925293,0.397949
1480691019329178,-0.0805664,-0.916992,0.395996
1480691019351237,-0.0727539,-0.918457,0.390137
1480691019372794,-0.0712891,-0.927246,0.387207
1480691019387835,-0.0751953,-0.938477,0.37793
1480691019411397,-0.074707,-0.945313,0.378418
1480691019432955,-0.0717773,-0.937012,0.375488
1480691019447995,-0.0722656,-0.924316,0.384277
1480691019470555,-0.0683594,-0.915527,0.384766
1480691019493115,-0.0712891,-0.913086,0.391113
1480691019507655,-0.0722656,-0.914063,0.39502
1480691019539738,-0.074707,-0.936035,0.387695
1480691019554278,-0.0830078,-0.951172,0.386719
1480691019567312,-0.0888672,-0.94873,0.390137
1480691019597392,-0.0800781,-0.933105,0.387695
1480691019612933,-0.0756836,-0.927734,0.399414
1480691019627471,-0.0737305,-0.92627,0.395508
1480691019656550,-0.0751953,-0.922852,0.385254
1480691019673094,-0.0800781,-0.935059,0.387695
1480691019688133,-0.0791016,-0.943359,0.383789
1480691019710693,-0.081543,-0.944336,0.380371
1480691019740276,-0.081543,-0.942871,0.387695
1480691019755312,-0.0795898,-0.929199,0.388672
1480691019770853,-0.0683594,-0.922363,0.39209
1480691019793413,-0.065918,-0.905762,0.390137
1480691019807451,-0.0771484,-0.922852,0.397949
1480691019830512,-0.0703125,-0.939941,0.397461
1480691019854074,-0.0756836,-0.953613,0.387207
1480691019875130,-0.100586,-0.93457,0.37793
1480691019899696,-0.0917969,-0.946289,0.385742
1480691019920752,-0.0732422,-0.940918,0.370117
1480691019935792,-0.0732422,-0.939453,0.353516
1480691019965370,-0.0742188,-0.919434,0.352051
1480691019972890,-0.0634766,-0.918457,0.368652
1480691019993946,-0.0629883,-0.947266,0.370117
1480691020018512,-0.0771484,-0.947266,0.376465
1480691020040096,-0.0849609,-0.919434,0.384277
1480691020054107,-0.0878906,-0.922852,0.384766
1480691020070651,-0.0776367,-0.924316,0.396484
1480691020093713,-0.0737305,-0.931152,0.38623
1480691020121787,-0.0708008,-0.938965,0.391113
1480691020131813,-0.074707,-0.944336,0.393066
1480691020152869,-0.078125,-0.936035,0.386719
1480691020176933,-0.0791016,-0.932129,0.390625
1480691020190470,-0.0834961,-0.93457,0.383789
1480691020213530,-0.0839844,-0.925781,0.380371
1480691020241605,-0.0810547,-0.933594,0.382324
1480691020250630,-0.0791016,-0.931152,0.375977
1480691020273192,-0.0708008,-0.942871,0.381836
1480691020296250,-0.0795898,-0.950684,0.380371
1480691020334853,-0.0756836,-0.941895,0.385742
1480691020338864,-0.0717773,-0.919434,0.388672
1480691020370950,-0.0761719,-0.913086,0.386719
1480691020373461,-0.0795898,-0.917969,0.382324
1480691020408549,-0.0756836,-0.938477,0.380371
1480691020416069,-0.0786133,-0.945801,0.373535
1480691020436624,-0.0791016,-0.949219,0.377441
1480691020453669,-0.078125,-0.935059,0.384766
1480691020475727,-0.0742188,-0.91748,0.383789
1480691020496282,-0.0712891,-0.92041,0.393555
1480691020513829,-0.0791016,-0.933105,0.391113
1480691020536890,-0.0766602,-0.938477,0.389648
1480691020549925,-0.0791016,-0.931641,0.385254
1480691020574491,-0.0766602,-0.938477,0.382324
1480691020596549,-0.0786133,-0.933594,0.381836
1480691020616602,-0.0864258,-0.929688,0.396484
1480691020638662,-0.0668945,-0.913574,0.381348
1480691020656210,-0.078125,-0.898926,0.391602
1480691020669744,-0.0830078,-0.930664,0.39209
1480691020693306,-0.0722656,-0.957031,0.386719
1480691020739943,-0.0688477,-0.972656,0.37793
1480691020743940,-0.0820313,-0.942871,0.375
1480691020752965,-0.0727539,-0.913574,0.380371
1480691020775524,-0.0727539,-0.915039,0.380859
1480691020791570,-0.0751953,-0.930664,0.387207
1480691020813124,-0.0771484,-0.932617,0.375488
1480691020851226,-0.0839844,-0.93457,0.388672
1480691020863759,-0.0864258,-0.943359,0.383789
1480691020887823,-0.0805664,-0.941895,0.381836
1480691020903364,-0.0722656,-0.930664,0.384277
1480691020919410,-0.0742188,-0.928223,0.394043
1480691020932943,-0.0693359,-0.91748,0.381348
1480691020956511,-0.0688477,-0.922852,0.387207
1480691020976559,-0.0761719,-0.935059,0.387207
1480691020993107,-0.0786133,-0.948242,0.387695
1480691021015663,-0.0839844,-0.944824,0.38623
1480691021039227,-0.0732422,-0.936523,0.388672
1480691021053765,-0.0717773,-0.921875,0.386719
1480691021081338,-0.0708008,-0.923828,0.395508
1480691021098384,-0.0688477,-0.922363,0.39209
1480691021129466,-0.0732422,-0.930664,0.392578
1480691021135984,-0.078125,-0.936035,0.391602
1480691021156546,-0.0786133,-0.93457,0.392578
1480691021180602,-0.0668945,-0.936035,0.393555
1480691021196645,-0.0761719,-0.933105,0.38916
1480691021216698,-0.0673828,-0.922363,0.381348
1480691021233242,-0.0605469,-0.925293,0.383301
1480691021262820,-0.0688477,-0.93457,0.38623
1480691021283876,-0.0898438,-0.934082,0.385254
1480691021292901,-0.0820313,-0.940918,0.383301
1480691021322981,-0.0717773,-0.944824,0.389648
1480691021338021,-0.0673828,-0.944336,0.378418
1480691021353060,-0.0761719,-0.929688,0.369629
1480691021376123,-0.0561523,-0.901855,0.375
1480691021398682,-0.0556641,-0.915527,0.37207
1480691021412217,-0.0766602,-0.938477,0.384766
1480691021435279,-0.0864258,-0.944824,0.387207
1480691021457840,-0.0844727,-0.938965,0.394531
1480691021472379,-0.0844727,-0.92041,0.390625
1480691021508975,-0.0708008,-0.918457,0.396484
1480691021517999,-0.0629883,-0.913574,0.395508
1480691021539055,-0.0673828,-0.922363,0.397949
1480691021555600,-0.0708008,-0.939453,0.388672
1480691021578159,-0.074707,-0.936523,0.393555
1480691021599215,-0.0844727,-0.941406,0.388672
1480691021615759,-0.0810547,-0.930176,0.386719
1480691021637818,-0.078125,-0.925781,0.38623
1480691021652857,-0.0703125,-0.919922,0.383301
1480691021682937,-0.0698242,-0.930176,0.391602
1480691021698480,-0.0742188,-0.936035,0.39209
1480691021712516,-0.0737305,-0.943359,0.393555
1480691021736079,-0.0771484,-0.9375,0.390137
1480691021758138,-0.0820313,-0.930176,0.39502
1480691021786213,-0.0766602,-0.922852,0.38623
1480691021798245,-0.0766602,-0.915039,0.386719
1480691021817796,-0.0678711,-0.931641,0.391602
1480691021840358,-0.0756836,-0.930176,0.391602
1480691021857402,-0.0761719,-0.947266,0.391602
1480691021878959,-0.081543,-0.939453,0.388672
1480691021899012,-0.0761719,-0.931152,0.386719
1480691021917062,-0.0771484,-0.919434,0.380859
1480691021938619,-0.0776367,-0.916504,0.383301
1480691021959173,-0.0703125,-0.918945,0.387207
1480691021975718,-0.074707,-0.930176,0.38916
1480691021998276,-0.0874023,-0.939453,0.389648
1480691022026354,-0.0849609,-0.952148,0.392578
1480691022035375,-0.0888672,-0.945801,0.394531
1480691022074479,-0.0854492,-0.939453,0.392578
1480691022080494,-0.0732422,-0.921875,0.390625
1480691022095535,-0.0605469,-0.916016,0.394043
1480691022118596,-0.0654297,-0.930664,0.391113
1480691022156698,-0.0678711,-0.946777,0.38916
1480691022161711,-0.0756836,-0.953125,0.378906
1480691022185273,-0.0786133,-0.930176,0.383789
1480691022198810,-0.0805664,-0.925293,0.385254
1480691022215353,-0.0756836,-0.918457,0.388672
1480691022238415,-0.0644531,-0.919922,0.400879
1480691022267994,-0.0605469,-0.939941,0.396973
1480691022275513,-0.0786133,-0.947266,0.387695
1480691022304090,-0.0810547,-0.959473,0.39502
1480691022320634,-0.0883789,-0.94043,0.389648
1480691022350212,-0.0898438,-0.931152,0.39502
1480691022358236,-0.0742188,-0.917969,0.383789
1480691022380794,-0.0629883,-0.922363,0.388184
1480691022394831,-0.0644531,-0.908691,0.385254
1480691022432932,-0.0581055,-0.927246,0.387695
1480691022440453,-0.0771484,-0.926758,0.385742
1480691022463514,-0.0751953,-0.944336,0.371094
1480691022478052,-0.0693359,-0.930176,0.375977
1480691022500612,-0.0634766,-0.91748,0.374512
1480691022515150,-0.0576172,-0.925781,0.376953
1480691022545731,-0.0683594,-0.931641,0.380859
1480691022566286,-0.0688477,-0.933594,0.385254
1480691022581326,-0.0703125,-0.937988,0.388184
1480691022597870,-0.0761719,-0.936523,0.39209
1480691022627950,-0.0751953,-0.92627,0.393066
1480691022641486,-0.074707,-0.921387,0.398926
1480691022671568,-0.0761719,-0.927246,0.405273
1480691022682094,-0.0800781,-0.933594,0.400879
1480691022710671,-0.0864258,-0.936523,0.398926
1480691022718190,-0.0869141,-0.946289,0.399902
1480691022756293,-0.0830078,-0.943359,0.401855
1480691022761305,-0.0771484,-0.935547,0.394531
1480691022777849,-0.0751953,-0.919434,0.401855
1480691022800409,-0.0712891,-0.922852,0.398926
1480691022822970,-0.0722656,-0.931152,0.388184
1480691022838511,-0.0751953,-0.941895,0.382813
1480691022860569,-0.0844727,-0.939941,0.395996
1480691022881625,-0.0786133,-0.937012,0.396973
1480691022904185,-0.0771484,-0.920898,0.395996
1480691022927748,-0.0732422,-0.916504,0.393555
1480691022948803,-0.0639648,-0.912109,0.395996
1480691022957828,-0.0673828,-0.916504,0.393555
1480691022987909,-0.0771484,-0.92627,0.393066
1480691023001444,-0.0786133,-0.927246,0.393066
1480691023017988,-0.0742188,-0.933594,0.397461
1480691023041050,-0.0795898,-0.939941,0.394531
1480691023070627,-0.0825195,-0.931152,0.393555
1480691023078147,-0.0883789,-0.910645,0.38623
1480691023100708,-0.0742188,-0.907227,0.39502
1480691023121264,-0.0732422,-0.929199,0.38623
1480691023138810,-0.0810547,-0.941895,0.396484
1480691023160366,-0.0776367,-0.932129,0.400391
1480691023183427,-0.074707,-0.928711,0.400879
1480691023204488,-0.0791016,-0.930664,0.401855
1480691023220527,-0.0737305,-0.92334,0.398438
1480691023243086,-0.0742188,-0.913086,0.393066
1480691023267150,-0.078125,-0.92041,0.400391
1480691023280686,-0.0722656,-0.933105,0.398438
1480691023310265,-0.078125,-0.949707,0.398926
1480691023317285,-0.0913086,-0.944824,0.389648
1480691023348366,-0.0834961,-0.931641,0.395508
1480691023362905,-0.081543,-0.907715,0.383789
1480691023377945,-0.0800781,-0.906738,0.392578
1480691023401508,-0.0766602,-0.924805,0.402832
1480691023423569,-0.0722656,-0.937988,0.405273
1480691023437102,-0.0717773,-0.946777,0.397949
1480691023462170,-0.0834961,-0.937012,0.396973
1480691023484227,-0.081543,-0.935059,0.386719
1480691023497262,-0.0771484,-0.916016,0.39209
1480691023522831,-0.0649414,-0.915527,0.394531
1480691023544389,-0.0688477,-0.929688,0.39502
1480691023557424,-0.0732422,-0.934082,0.38916
1480691023580483,-0.0712891,-0.932617,0.39209
1480691023603043,-0.078125,-0.924805,0.390625
1480691023625607,-0.081543,-0.922363,0.400879
1480691023642148,-0.0820313,-0.925781,0.409668
1480691023670724,-0.0844727,-0.920898,0.409668
1480691023701806,-0.0771484,-0.943359,0.39209
1480691023709832,-0.0878906,-0.932129,0.396973
1480691023738404,-0.0888672,-0.930176,0.399414
1480691023749433,-0.078125,-0.929688,0.393066
1480691023760966,-0.0717773,-0.94043,0.390137
1480691023783022,-0.0693359,-0.929688,0.395508
1480691023804078,-0.0644531,-0.90625,0.390625
1480691023821126,-0.0732422,-0.913574,0.381348
1480691023849198,-0.0786133,-0.931152,0.382324
1480691023864238,-0.0786133,-0.947266,0.385254
1480691023880782,-0.0800781,-0.942871,0.385742
1480691023903342,-0.0927734,-0.952148,0.378418
1480691023933924,-0.0869141,-0.937988,0.369629
1480691023940443,-0.0756836,-0.918457,0.384277
1480691023977041,-0.0688477,-0.915527,0.396973
1480691023984058,-0.0854492,-0.958496,0.40625
1480691024016142,-0.105957,-0.986816,0.370117
1480691024023162,-0.0927734,-0.916016,0.375488
1480691024044222,-0.090332,-0.886719,0.37207
1480691024060762,-0.0717773,-0.948242,0.393066
1480691024082819,-0.046875,-0.938965,0.404297
1480691024103876,-0.0458984,-0.884766,0.396484
1480691024120921,-0.0761719,-0.935547,0.391113
1480691024148995,-0.100098,-0.942383,0.379395
1480691024166041,-0.0864258,-0.921875,0.390625
1480691024181080,-0.0874023,-0.922852,0.378418
1480691024210664,-0.0771484,-0.953125,0.384766
1480691024232718,-0.0727539,-0.930664,0.392578
1480691024255278,-0.0761719,-0.906738,0.393555
1480691024263300,-0.078125,-0.909668,0.38916
1480691024301905,-0.0830078,-0.932617,0.396484
1480691024306414,-0.0800781,-0.940918,0.396973
1480691024323460,-0.0898438,-0.946777,0.394531
1480691024345518,-0.0839844,-0.958496,0.384277
1480691024360059,-0.0820313,-0.944824,0.371094
1480691024383119,-0.0693359,-0.938965,0.370605
1480691024411694,-0.0776367,-0.917969,0.37207
1480691024420718,-0.0776367,-0.919922,0.380371
1480691024457817,-0.0722656,-0.923828,0.377441
1480691024466339,-0.081543,-0.936035,0.382813
1480691024489903,-0.0776367,-0.936523,0.387695
1480691024502936,-0.0830078,-0.930176,0.392578
1480691024534019,-0.081543,-0.927246,0.394043
1480691024539534,-0.0688477,-0.928711,0.390625
1480691024570618,-0.0830078,-0.924805,0.390625
1480691024585657,-0.0844727,-0.941406,0.387207
1480691024599694,-0.0800781,-0.946289,0.390137
1480691024623759,-0.0791016,-0.936035,0.385742
1480691024652836,-0.0786133,-0.92627,0.389648
1480691024666371,-0.0717773,-0.913086,0.38916
1480691024683416,-0.0751953,-0.92041,0.381348
1480691024705477,-0.0864258,-0.930176,0.384766
1480691024736057,-0.0756836,-0.933594,0.398926
1480691024743075,-0.0878906,-0.946289,0.394043
1480691024766136,-0.090332,-0.945801,0.385254
1480691024802233,-0.0727539,-0.930664,0.377441
1480691024810255,-0.0708008,-0.914063,0.380859
1480691024825797,-0.0751953,-0.915039,0.387207
1480691024847854,-0.0698242,-0.930664,0.370117
1480691024864900,-0.0771484,-0.946777,0.382813
1480691024886459,-0.0834961,-0.937012,0.385742
1480691024914030,-0.0844727,-0.9375,0.379883
1480691024936590,-0.0947266,-0.947266,0.381348
1480691024945613,-0.0795898,-0.935059,0.379395
1480691024974192,-0.0854492,-0.932617,0.395508
1480691024984718,-0.0820313,-0.92041,0.396484
1480691025013294,-0.0922852,-0.945313,0.374512
1480691025026329,-0.109375,-0.945313,0.357422
1480691025045379,-0.103027,-0.95166,0.354492
1480691025065934,-0.0883789,-0.97168,0.413086
1480691025088494,-0.0693359,-0.937012,0.405762
1480691025103033,-0.0517578,-0.912598,0.38916
1480691025126095,-0.0600586,-0.896484,0.40918
1480691025148654,-0.0732422,-0.904297,0.400879
1480691025163697,-0.0952148,-0.913574,0.40918
1480691025186253,-0.0976563,-0.916504,0.428223
1480691025207811,-0.0922852,-0.919922,0.420898
1480691025222853,-0.0795898,-0.91748,0.405273
1480691025253934,-0.074707,-0.914551,0.408203
1480691025292036,-0.0585938,-0.918457,0.407715
1480691025296547,-0.0395508,-0.913574,0.407227
1480691025321114,-0.0717773,-0.947754,0.404297
1480691025344174,-0.0864258,-0.945313,0.384277
1480691025349690,-0.0986328,-0.912109,0.385742
1480691025365731,-0.0932617,-0.908203,0.378906
1480691025404334,-0.109375,-0.934082,0.364258
1480691025416870,-0.107422,-0.947754,0.376465
1480691025425391,-0.106445,-0.9375,0.365723
1480691025447950,-0.0932617,-0.929688,0.376953
1480691025462488,-0.102051,-0.930176,0.374023
1480691025485550,-0.090332,-0.924316,0.395508
1480691025508611,-0.0620117,-0.922363,0.422363
1480691025530670,-0.0483398,-0.89502,0.40625
1480691025569774,-0.0698242,-0.916992,0.419922
1480691025574289,-0.0664063,-0.91748,0.404297
1480691025597849,-0.0722656,-0.914551,0.399414
1480691025612888,-0.0683594,-0.919434,0.423828
1480691025635950,-0.0966797,-0.950195,0.395508
1480691025648984,-0.109863,-0.963867,0.384277
1480691025666030,-0.108887,-0.93457,0.373047
1480691025688590,-0.119141,-0.899414,0.374023
1480691025708643,-0.0839844,-0.923828,0.388672
1480691025727195,-0.0605469,-0.9375,0.398926
1480691025747746,-0.0678711,-0.934082,0.408203
1480691025768803,-0.0888672,-0.921387,0.42627
1480691025786851,-0.0917969,-0.907227,0.42627
1480691025807910,-0.0800781,-0.891113,0.426758
1480691025845507,-0.0668945,-0.906738,0.424805
1480691025856037,-0.0766602,-0.932129,0.412598
1480691025876092,-0.0922852,-0.952148,0.413574
1480691025889124,-0.0932617,-0.941406,0.40625
1480691025913187,-0.0932617,-0.920898,0.406738
1480691025927728,-0.0839844,-0.914551,0.407715
1480691025956303,-0.0805664,-0.907715,0.397949
1480691025965325,-0.0756836,-0.910645,0.405762
1480691025995906,-0.0722656,-0.916504,0.405273
1480691026008942,-0.0717773,-0.928223,0.399414
1480691026040537,-0.0761719,-0.941895,0.401367
1480691026056066,-0.0878906,-0.939453,0.396973
1480691026070606,-0.0854492,-0.921387,0.405273
1480691026085646,-0.0825195,-0.905273,0.408691
1480691026122745,-0.0791016,-0.905273,0.412598
1480691026137785,-0.0810547,-0.915039,0.407715
1480691026152824,-0.0786133,-0.931641,0.424316
1480691026167864,-0.0883789,-0.929199,0.408691
1480691026190424,-0.0888672,-0.916504,0.408203
1480691026211480,-0.081543,-0.92041,0.411133
1480691026235544,-0.0712891,-0.942383,0.415039
1480691026250082,-0.0708008,-0.959473,0.419434
1480691026264621,-0.0693359,-0.935059,0.412109
1480691026288185,-0.0854492,-0.922852,0.40918
1480691026318264,-0.0957031,-0.917969,0.400391
1480691026325787,-0.0908203,-0.914551,0.391602
1480691026402488,-0.0825195,-0.918457,0.396973
1480691026408508,-0.0795898,-0.925781,0.402832
1480691026414019,-0.0698242,-0.903809,0.391113
1480691026430563,-0.0795898,-0.913574,0.390625
1480691026444600,-0.0864258,-0.93457,0.399414
1480691026469667,-0.0917969,-0.938477,0.40918
1480691026490222,-0.0952148,-0.912598,0.404297
1480691026520301,-0.0839844,-0.921387,0.416992
1480691026528324,-0.0834961,-0.92041,0.416016
1480691026557902,-0.0742188,-0.921875,0.402832
1480691026596003,-0.0795898,-0.913574,0.411133
1480691026598509,-0.0810547,-0.921875,0.404785
1480691026619064,-0.0922852,-0.941406,0.412598
1480691026642126,-0.110352,-0.945313,0.402344
1480691026649645,-0.0859375,-0.938965,0.406738
1480691026677719,-0.0942383,-0.906738,0.401855
1480691026691761,-0.0966797,-0.892578,0.395996
1480691026709308,-0.0737305,-0.918457,0.42041
1480691026730360,-0.0556641,-0.959961,0.429199
1480691026752418,-0.0722656,-0.95752,0.416992
1480691026768461,-0.123047,-0.902344,0.417969
1480691026790521,-0.135254,-0.892578,0.38916
1480691026811576,-0.0742188,-0.930664,0.393555
1480691026843662,-0.0507813,-0.918457,0.385254
1480691026873742,-0.0834961,-0.92627,0.38623
1480691026875748,-0.0834961,-0.948242,0.374512
1480691026887778,-0.0751953,-0.932129,0.370117
1480691026925380,-0.0810547,-0.928711,0.380371
1480691026932898,-0.0952148,-0.900879,0.38623
1480691026955962,-0.124512,-0.924805,0.383789
1480691026970499,-0.0976563,-0.94043,0.388184
1480691026994061,-0.078125,-0.950195,0.383301
1480691027008099,-0.0649414,-0.929199,0.383301
1480691027030737,-0.0805664,-0.920898,0.383301
1480691027052716,-0.0820313,-0.935059,0.384766
1480691027067756,-0.0908203,-0.944336,0.385742
1480691027098840,-0.097168,-0.936523,0.379395
1480691027112877,-0.0898438,-0.918945,0.390137
1480691027151980,-0.0908203,-0.925293,0.381348
1480691027156994,-0.0898438,-0.929688,0.385742
1480691027179053,-0.0874023,-0.948242,0.392578
1480691027187075,-0.0976563,-0.944824,0.397949
1480691027211138,-0.101074,-0.938477,0.393555
1480691027234200,-0.100586,-0.929688,0.385742
1480691027247234,-0.0830078,-0.917969,0.376465
1480691027270296,-0.0791016,-0.910156,0.378418
1480691027308398,-0.0883789,-0.924316,0.368652
1480691027315917,-0.0888672,-0.949219,0.381836
1480691027330456,-0.0810547,-0.94873,0.388184
1480691027353015,-0.0839844,-0.936523,0.387207
1480691027375575,-0.101563,-0.907227,0.40332
1480691027390616,-0.0922852,-0.882813,0.411621
1480691027428717,-0.0961914,-0.91748,0.388184
1480691027430723,-0.108398,-0.939453,0.379883
1480691027456291,-0.0874023,-0.946777,0.366699
1480691027472834,-0.0917969,-0.952637,0.371094
1480691027493891,-0.097168,-0.937988,0.37793
1480691027510936,-0.0957031,-0.940918,0.383301
1480691027533496,-0.0805664,-0.924805,0.380859
1480691027554050,-0.0908203,-0.904785,0.37793
1480691027584130,-0.090332,-0.909668,0.378418
1480691027593157,-0.09375,-0.939453,0.380371
1480691027614209,-0.0917969,-0.951172,0.382813
1480691027630754,-0.0800781,-0.9375,0.38623
1480691027653314,-0.0893555,-0.930664,0.394043
1480691027675374,-0.0893555,-0.918457,0.409668
1480691027705453,-0.0913086,-0.91748,0.391113
1480691027720493,-0.112305,-0.92041,0.396973
1480691027735533,-0.127441,-0.939453,0.379883
1480691027750572,-0.104492,-0.964355,0.372559
1480691027773635,-0.0839844,-0.94873,0.380859
1480691027794192,-0.078125,-0.933594,0.367676
1480691027818755,-0.0810547,-0.927246,0.361816
1480691027832791,-0.0791016,-0.917969,0.358398
1480691027863373,-0.0825195,-0.928711,0.364746
1480691027872397,-0.0883789,-0.943848,0.372559
1480691027899970,-0.0922852,-0.948242,0.378906
1480691027938573,-0.100586,-0.93457,0.392578
1480691027941080,-0.0922852,-0.920898,0.398438
1480691027953111,-0.0878906,-0.913574,0.395996
1480691027982691,-0.0996094,-0.932129,0.395508
1480691027990713,-0.0981445,-0.938965,0.384277
1480691028012769,-0.09375,-0.935059,0.385742
1480691028035330,-0.0874023,-0.932129,0.38916
1480691028051373,-0.0991211,-0.930176,0.379883
1480691028072931,-0.105469,-0.939941,0.378906
1480691028095991,-0.0922852,-0.935059,0.375
1480691028110028,-0.0786133,-0.916992,0.375977
1480691028133090,-0.090332,-0.915039,0.385254
1480691028155650,-0.101563,-0.932617,0.381348
1480691028176706,-0.0825195,-0.939453,0.392578
1480691028193751,-0.0869141,-0.938477,0.38623
1480691028215309,-0.0864258,-0.939453,0.383301
1480691028243885,-0.0888672,-0.931152,0.379395
1480691028260429,-0.09375,-0.922363,0.387695
1480691028281484,-0.0942383,-0.916016,0.381836
1480691028291514,-0.0883789,-0.92041,0.379395
1480691028313570,-0.090332,-0.936035,0.381836
1480691028343148,-0.102539,-0.953125,0.37793
1480691028356687,-0.103027,-0.944336,0.373535
1480691028374232,-0.0830078,-0.92627,0.381836
1480691028402307,-0.0854492,-0.912109,0.386719
1480691028417846,-0.0952148,-0.927246,0.375977
1480691028433389,-0.101563,-0.925293,0.384766
1480691028455447,-0.0913086,-0.933594,0.382324
1480691028493550,-0.0986328,-0.943359,0.379883
1480691028496055,-0.103516,-0.947266,0.383789
1480691028544684,-0.0932617,-0.936035,0.378906
1480691028554213,-0.0869141,-0.92627,0.378906
1480691028583288,-0.0922852,-0.92334,0.375488
1480691028585793,-0.0800781,-0.931152,0.385254
1480691028596823,-0.0908203,-0.930176,0.383301
1480691028621889,-0.0942383,-0.946289,0.386719
1480691028635425,-0.0976563,-0.941895,0.382324
1480691028656483,-0.114258,-0.933594,0.382813
1480691028696590,-0.104004,-0.927246,0.38623
1480691028701602,-0.0839844,-0.925293,0.378418
1480691028724666,-0.0844727,-0.921875,0.381348
1480691028734188,-0.0986328,-0.933594,0.381836
1480691028778306,-0.0976563,-0.941406,0.383301
1480691028780812,-0.0961914,-0.93457,0.387207
1480691028800364,-0.0961914,-0.9375,0.383789
1480691028816407,-0.106934,-0.935547,0.384766
1480691028837463,-0.102051,-0.92627,0.383789
1480691028859523,-0.0825195,-0.921387,0.382813
1480691028883086,-0.0805664,-0.922852,0.381836
1480691028898626,-0.090332,-0.930176,0.391602
1480691028913665,-0.106445,-0.942383,0.383301
1480691028941241,-0.118164,-0.944824,0.381836
1480691028972825,-0.10791,-0.939453,0.384277
1480691028975331,-0.0976563,-0.916504,0.38916
1480691029009420,-0.0864258,-0.924316,0.385742
1480691029017943,-0.0825195,-0.906738,0.392578
1480691029040504,-0.0917969,-0.913574,0.386719
1480691029055543,-0.0952148,-0.936035,0.379395
1480691029086625,-0.0864258,-0.935059,0.372559
1480691029101666,-0.0869141,-0.924805,0.378906
1480691029145783,-0.106934,-0.929199,0.378906
1480691029148290,-0.0942383,-0.94873,0.378906
1480691029161826,-0.104492,-0.947754,0.383789
1480691029175364,-0.104492,-0.934082,0.386719
1480691029205442,-0.0942383,-0.933105,0.378906
1480691029236525,-0.102539,-0.932617,0.376953
1480691029241538,-0.105957,-0.925781,0.375
1480691029258584,-0.0908203,-0.919922,0.375977
1480691029272119,-0.081543,-0.915527,0.371582
1480691029296183,-0.081543,-0.919434,0.373047
1480691029327770,-0.0834961,-0.933594,0.381836
1480691029332278,-0.0986328,-0.945801,0.390625
1480691029356345,-0.123535,-0.952637,0.381348
1480691029378401,-0.110352,-0.945801,0.38916
1480691029401964,-0.0737305,-0.915039,0.387695
1480691029415500,-0.0864258,-0.921387,0.400391
1480691029438060,-0.104004,-0.921387,0.386719
1480691029459117,-0.111816,-0.943359,0.375
1480691029483179,-0.100098,-0.962402,0.375488
1480691029497719,-0.0996094,-0.956543,0.371582
1480691029518774,-0.0986328,-0.939453,0.380371
1480691029535820,-0.0961914,-0.927246,0.38623
1480691029565900,-0.0869141,-0.908203,0.379883
1480691029578935,-0.108398,-0.902344,0.371094
1480691029595479,-0.105957,-0.916504,0.387695
1480691029618038,-0.110352,-0.942383,0.37793
1480691029649121,-0.100098,-0.953613,0.395996
1480691029657143,-0.0952148,-0.931641,0.391602
1480691029677697,-0.097168,-0.933594,0.375488
1480691029699254,-0.0976563,-0.922852,0.375977
1480691029715297,-0.0927734,-0.911621,0.370605
1480691029738359,-0.10498,-0.919434,0.378418
1480691029766433,-0.101563,-0.939453,0.378906
1480691029775457,-0.0961914,-0.939941,0.373535
1480691029805539,-0.103027,-0.957031,0.396973
1480691029819073,-0.105469,-0.958008,0.379395
1480691029835617,-0.118164,-0.908691,0.376953
1480691029858806,-0.100586,-0.897461,0.390625
1480691029886252,-0.109863,-0.917969,0.383789
1480691029895777,-0.114746,-0.973633,0.365234
1480691029919340,-0.111816,-0.985352,0.355469
1480691029940397,-0.110352,-0.922852,0.352051
1480691029954937,-0.10791,-0.913086,0.353516
1480691029977995,-0.0961914,-0.933105,0.361816
1480691030008075,-0.104004,-0.944336,0.338867
1480691030014593,-0.081543,-0.955566,0.335938
1480691030040161,-0.118164,-0.948242,0.311035
1480691030067735,-0.100098,-0.939941,0.349121
1480691030083276,-0.0463867,-0.935059,0.37793
1480691030111851,-0.0952148,-0.936035,0.390137
1480691030121878,-0.118164,-0.915039,0.392578
1480691030134914,-0.118652,-0.924316,0.360352
1480691030159479,-0.123047,-0.933594,0.353516
1480691030204097,-0.0864258,-0.939941,0.368164
1480691030208107,-0.107422,-0.946777,0.383789
1480691030218135,-0.108887,-0.939453,0.395996
1480691030249216,-0.115723,-0.934082,0.38916
1480691030256236,-0.0932617,-0.937988,0.394043
1480691030285314,-0.0961914,-0.927734,0.415527
1480691030306373,-0.102539,-0.931641,0.418945
1480691030321421,-0.115723,-0.941406,0.402344
1480691030345473,-0.129883,-0.927246,0.397461
1480691030360513,-0.120117,-0.936523,0.402344
1480691030381570,-0.0825195,-0.927734,0.388184
1480691030398614,-0.147461,-0.929199,0.367188
1480691030428193,-0.109863,-0.90625,0.37793
1480691030441228,-0.0800781,-0.911133,0.351563
1480691030481836,-0.0820313,-0.941406,0.374023
1480691030489356,-0.103516,-0.919434,0.347656
1480691030516427,-0.0600586,-0.92334,0.351074
1480691030528460,-0.0546875,-0.902344,0.361816
1480691030548011,-0.154297,-0.947266,0.379883
1480691030563051,-0.102051,-0.969238,0.391113
1480691030578593,-0.0253906,-0.947266,0.427246
1480691030603158,-0.0844727,-0.928711,0.443359
1480691030638761,-0.157227,-0.897949,0.427246
1480691030640758,-0.155762,-0.883789,0.425293
1480691030661313,-0.14502,-0.931152,0.402832
1480691030705931,-0.182617,-0.949707,0.402832
1480691030708438,-0.10498,-0.900879,0.39502
1480691030720470,-0.0830078,-0.925293,0.385254
1480691030741526,-0.0961914,-0.964355,0.376465
1480691030758071,-0.101563,-0.953613,0.355469
1480691030789153,-0.0742188,-0.916016,0.354004
1480691030802689,-0.0922852,-0.921387,0.354004
1480691030825750,-0.0966797,-0.933594,0.364258
1480691030840790,-0.10498,-0.942383,0.361816
1480691030870369,-0.124512,-0.932617,0.364746
1480691030877387,-0.103027,-0.92334,0.395508
1480691030902454,-0.125,-0.908691,0.375488
1480691030923510,-0.104492,-0.932129,0.366699
1480691030945568,-0.0898438,-0.918457,0.37207
1480691030960608,-0.10791,-0.91748,0.37207
1480691030984172,-0.0893555,-0.92041,0.389648
1480691030997206,-0.0917969,-0.928223,0.381836
1480691031020770,-0.115723,-0.969238,0.374023
1480691031043328,-0.120117,-1.00586,0.39502
1480691031080929,-0.117188,-1.01123,0.37793
1480691031089452,-0.132324,-0.895996,0.378906
1480691031109004,-0.148438,-0.859863,0.388672
1480691031131563,-0.114258,-0.887695,0.398438
1480691031148107,-0.0986328,-0.9375,0.375
1480691031163147,-0.0966797,-0.932129,0.375
1480691031186209,-0.0849609,-0.91748,0.406738
1480691031200246,-0.154785,-0.963379,0.364258
1480691031223808,-0.0820313,-0.983887,0.375
1480691031247371,-0.0566406,-0.923828,0.384277
1480691031269430,-0.11377,-0.886719,0.381836
1480691031282965,-0.126465,-0.923828,0.38623
1480691031306528,-0.125977,-0.927246,0.341797
1480691031320566,-0.101563,-0.964355,0.343262
1480691031343126,-0.101563,-0.996094,0.33252
1480691031364184,-0.110352,-0.950195,0.330566
1480691031394262,-0.10498,-0.936035,0.343262
1480691031402784,-0.078125,-0.861816,0.375977
1480691031425846,-0.0727539,-0.845215,0.38916
1480691031440384,-0.0864258,-0.94043,0.378418
1480691031462944,-0.139648,-0.984863,0.376465
1480691031487009,-0.125977,-0.978516,0.383789
1480691031500544,-0.112793,-0.962402,0.385254
1480691031523105,-0.111328,-0.92334,0.387207
1480691031551681,-0.121094,-0.910156,0.39209
1480691031566723,-0.0961914,-0.922852,0.390137
1480691031582763,-0.0922852,-0.927246,0.387207
1480691031603819,-0.113281,-0.950195,0.384277
1480691031636407,-0.115234,-0.980469,0.38623
1480691031644928,-0.115234,-0.953613,0.38916
1480691031665984,-0.123047,-0.910645,0.406738
1480691031679520,-0.125,-0.919434,0.399414
1480691031704590,-0.114746,-0.928711,0.394531
1480691031724140,-0.097168,-0.939941,0.380371
1480691031740683,-0.0942383,-0.941895,0.373047
1480691031762742,-0.0820313,-0.929199,0.373535
1480691031785803,-0.0869141,-0.927734,0.376953
1480691031809365,-0.097168,-0.915527,0.382324
1480691031828918,-0.0849609,-0.896484,0.374512
1480691031845461,-0.0844727,-0.890625,0.384277
1480691031870028,-0.0795898,-0.901855,0.381836
1480691031898603,-0.074707,-0.922852,0.381348
1480691031905621,-0.0771484,-0.966797,0.37793
1480691031919659,-0.0751953,-0.953613,0.375977
1480691031950240,-0.0727539,-0.944336,0.380859
1480691031965782,-0.0795898,-0.941406,0.383789
1480691031987844,-0.0751953,-0.927246,0.375488
1480691032002881,-0.0791016,-0.925781,0.375977
1480691032025442,-0.0908203,-0.9375,0.379883
1480691032039979,-0.0927734,-0.933594,0.372559
1480691032064545,-0.103516,-0.936035,0.37793
1480691032086103,-0.0957031,-0.933105,0.385742
1480691032100640,-0.0844727,-0.919434,0.378418
1480691032146763,-0.0908203,-0.914551,0.376465
1480691032151274,-0.0776367,-0.917969,0.376953
1480691032159799,-0.0844727,-0.915039,0.368652
1480691032182859,-0.0874023,-0.932129,0.375
1480691032212938,-0.0825195,-0.930664,0.373047
1480691032227983,-0.0883789,-0.9375,0.381836
1480691032243019,-0.0864258,-0.946777,0.382813
1480691032265579,-0.0834961,-0.938477,0.371582
1480691032295659,-0.0874023,-0.938477,0.374023
1480691032303179,-0.0864258,-0.95459,0.367188
1480691032332758,-0.0810547,-0.967285,0.364258
1480691032346293,-0.0771484,-0.964355,0.372559
1480691032370358,-0.0859375,-0.952148,0.37793
1480691032393419,-0.0888672,-0.946289,0.380371
1480691032415478,-0.0986328,-0.950195,0.389648
1480691032422997,-0.112793,-0.940918,0.390137
1480691032453078,-0.104004,-0.9375,0.391113
1480691032466614,-0.0947266,-0.934082,0.384277
1480691032483658,-0.0825195,-0.940918,0.371094
1480691032505718,-0.0751953,-0.938965,0.360352
1480691032526272,-0.0634766,-0.945801,0.35498
1480691032542816,-0.0664063,-0.939453,0.340332
1480691032572896,-0.0571289,-0.939941,0.34082
1480691032610997,-0.0517578,-0.941406,0.349121
1480691032613503,-0.059082,-0.93457,0.355957
1480691032625537,-0.074707,-0.932617,0.367188
1480691032646592,-0.0751953,-0.919922,0.373535
1480691032669654,-0.0878906,-0.932617,0.384766
1480691032708256,-0.0991211,-0.919434,0.407715
1480691032710762,-0.105469,-0.885254,0.419922
1480691032722795,-0.111816,-0.882813,0.430176
1480691032745354,-0.112305,-0.910645,0.411133
1480691032767915,-0.0957031,-0.942871,0.404297
1480691032782453,-0.0874023,-0.95459,0.385254
1480691032805515,-0.0722656,-0.961426,0.373047
1480691032827574,-0.0444336,-0.941895,0.372559
1480691032852138,-0.0449219,-0.925781,0.365234
1480691032865674,-0.0537109,-0.936035,0.351074
1480691032887733,-0.0708008,-0.949707,0.344238
1480691032931349,-0.0678711,-0.966797,0.342285
1480691032941877,-0.0756836,-0.972656,0.358887
1480691032947893,-0.0849609,-0.95459,0.352539
1480691032977974,-0.0844727,-0.950195,0.357422
1480691032986997,-0.0683594,-0.94043,0.361328
1480691033008554,-0.0595703,-0.931152,0.36084
1480691033022090,-0.0620117,-0.924316,0.365234
1480691033054179,-0.0639648,-0.925781,0.379395
1480691033058187,-0.0737305,-0.929199,0.388184
1480691033081248,-0.0893555,-0.902832,0.390137
1480691033089771,-0.0874023,-0.882813,0.386719
1480691033116843,-0.101563,-0.897461,0.381836
1480691033136896,-0.103516,-0.906738,0.390137
1480691033172992,-0.0908203,-0.909668,0.401855
1480691033175499,-0.0830078,-0.911133,0.399414
1480691033219116,-0.0947266,-0.928711,0.397949
1480691033226133,-0.0878906,-0.949219,0.40625
1480691033238667,-0.0996094,-0.953125,0.407227
1480691033253205,-0.0883789,-0.969238,0.395996
1480691033275765,-0.0673828,-0.980957,0.401367
1480691033290805,-0.065918,-0.972656,0.399902
1480691033320891,-0.0947266,-0.966309,0.40332
1480691033335926,-0.124512,-0.969238,0.410156
1480691033352469,-0.130371,-0.946777,0.412109
1480691033373525,-0.134277,-0.911133,0.404297
1480691033398592,-0.130859,-0.891602,0.405273
1480691033413632,-0.116699,-0.899902,0.395996
1480691033433184,-0.100098,-0.888184,0.380371
1480691033455757,-0.0893555,-0.881348,0.387207
1480691033495851,-0.0786133,-0.890625,0.378906
1480691033503875,-0.078125,-0.902832,0.378906
1480691033515904,-0.0727539,-0.922852,0.375488
1480691033530943,-0.0595703,-0.915039,0.37793
1480691033561023,-0.0649414,-0.910645,0.364258
1480691033576063,-0.081543,-0.92334,0.369141
1480691033590603,-0.0952148,-0.935059,0.38916
1480691033613162,-0.106934,-0.953613,0.389648
1480691033635723,-0.127441,-0.961914,0.40332
1480691033650762,-0.128906,-0.961914,0.425293
1480691033700896,-0.119141,-0.945801,0.431152
1480691033705909,-0.111816,-0.929199,0.4375
1480691033721450,-0.115234,-0.925781,0.42041
1480691033733482,-0.106445,-0.931641,0.417969
1480691033759553,-0.0991211,-0.936523,0.415039
1480691033771084,-0.097168,-0.941895,0.400879
1480691033809684,-0.100586,-0.937988,0.397949
1480691033815700,-0.103516,-0.92334,0.391602
1480691033838262,-0.10498,-0.901855,0.395996
1480691033853301,-0.100098,-0.899902,0.390137
1480691033877364,-0.109375,-0.904297,0.389648
1480691033890901,-0.112793,-0.921875,0.386719
1480691033915967,-0.106445,-0.931641,0.395996
1480691033952063,-0.0957031,-0.92041,0.396973
1480691033976629,-0.0986328,-0.919434,0.388672
1480691033980639,-0.0976563,-0.912109,0.38916
1480691034003705,-0.0922852,-0.913574,0.396484
1480691034037796,-0.0986328,-0.916016,0.394531
1480691034052832,-0.102051,-0.929199,0.40332
1480691034056341,-0.105957,-0.939941,0.410645
1480691034078399,-0.11084,-0.944824,0.410156
1480691034100961,-0.106445,-0.9375,0.400391
1480691034118506,-0.105469,-0.918945,0.395996
1480691034139563,-0.104004,-0.907715,0.402832
1480691034153601,-0.10498,-0.909668,0.403809
1480691034175658,-0.103516,-0.92041,0.402832
1480691034192205,-0.106934,-0.929199,0.405273
1480691034213257,-0.11084,-0.931152,0.400391
1480691034235819,-0.103027,-0.929199,0.396973
1480691034266901,-0.0932617,-0.912109,0.395996
1480691034273418,-0.0996094,-0.90625,0.394531
1480691034295977,-0.0981445,-0.916016,0.398438
1480691034314527,-0.104492,-0.918457,0.402344
1480691034333581,-0.114746,-0.928223,0.40332
1480691034358645,-0.115234,-0.932617,0.404297
1480691034372181,-0.111328,-0.930176,0.401367
1480691034403768,-0.102051,-0.928711,0.399414
1480691034417301,-0.0922852,-0.922363,0.398438
1480691034439860,-0.0830078,-0.913086,0.398438
1480691034461919,-0.0917969,-0.909668,0.395508
1480691034477460,-0.0981445,-0.926758,0.400879
1480691034499519,-0.104004,-0.93457,0.391602
1480691034530101,-0.105469,-0.940918,0.395508
1480691034543636,-0.109375,-0.929688,0.399414
1480691034556170,-0.104004,-0.914551,0.398926
1480691034574719,-0.0996094,-0.920898,0.401367
1480691034603295,-0.100586,-0.921387,0.396973
1480691034614324,-0.104004,-0.928223,0.393066
1480691034636383,-0.106934,-0.935547,0.398438
1480691034672980,-0.106445,-0.935547,0.390625
1480691034675487,-0.108398,-0.926758,0.387695
1480691034693536,-0.102539,-0.923828,0.381348
1480691034718602,-0.104004,-0.920898,0.379395
1480691034733642,-0.105957,-0.921387,0.379883
1480691034753194,-0.103027,-0.931641,0.38916
1480691034775753,-0.11377,-0.941406,0.391602
1480691034793802,-0.101074,-0.94043,0.396484
1480691034813357,-0.0908203,-0.92627,0.402832
1480691034835916,-0.107422,-0.923828,0.397949
1480691034876020,-0.105957,-0.915039,0.393066
1480691034878527,-0.0898438,-0.921875,0.395996
1480691034913119,-0.102539,-0.93457,0.390625
1480691034935679,-0.107422,-0.956055,0.402344
1480691034938186,-0.104492,-0.939941,0.400391
1480691034955732,-0.100586,-0.916504,0.405273
1480691034978292,-0.0976563,-0.904297,0.407227
1480691034995338,-0.0961914,-0.900391,0.403809
1480691035023412,-0.0888672,-0.920898,0.395996
1480691035062015,-0.100098,-0.936035,0.395996
1480691035086581,-0.107422,-0.934082,0.395996
1480691035100117,-0.10791,-0.937012,0.396484
1480691035103632,-0.0795898,-0.92041,0.403809
1480691035113150,-0.0830078,-0.902344,0.40625
1480691035143230,-0.105957,-0.904785,0.402832
1480691035167294,-0.103516,-0.918457,0.40918
1480691035182335,-0.0991211,-0.919922,0.412109
1480691035197376,-0.0947266,-0.926758,0.402832
1480691035242996,-0.107422,-0.926758,0.403809
1480691035245001,-0.101074,-0.923828,0.401367
1480691035272075,-0.102051,-0.907715,0.401367
1480691035279594,-0.102539,-0.90625,0.393066
1480691035326217,-0.0996094,-0.920898,0.396973
1480691035328724,-0.0922852,-0.913574,0.406738
1480691035348777,-0.0805664,-0.903809,0.390625
1480691035362314,-0.0981445,-0.948242,0.384766
1480691035377353,-0.114746,-0.972168,0.374023
1480691035398410,-0.109863,-0.970215,0.376465
1480691035414953,-0.0776367,-0.919434,0.418945
1480691035436010,-0.0595703,-0.862793,0.441895
1480691035461076,-0.103516,-0.880859,0.429199
1480691035474612,-0.113281,-0.945313,0.431641
1480691035506198,-0.09375,-0.958984,0.416992
1480691035521236,-0.0986328,-0.931152,0.405762
1480691035536779,-0.122559,-0.906738,0.381348
1480691035555828,-0.121094,-0.885742,0.399414
1480691035585908,-0.0957031,-0.896973,0.397949
1480691035597940,-0.105957,-0.92627,0.394043
1480691035615988,-0.0927734,-0.944824,0.396973
1480691035639050,-0.0961914,-0.927734,0.395508
1480691035656597,-0.0922852,-0.90332,0.413574
1480691035676148,-0.09375,-0.891113,0.419922
1480691035701215,-0.118164,-0.936035,0.397949
1480691035720767,-0.121094,-0.972168,0.387207
1480691035738815,-0.0913086,-0.960449,0.385254
1480691035758368,-0.0791016,-0.916992,0.383789
1480691035783935,-0.112793,-0.910156,0.381348
1480691035795967,-0.100098,-0.952148,0.378906
1480691035835071,-0.103516,-0.94043,0.378418
1480691035842089,-0.0966797,-0.919922,0.398438
1480691035855625,-0.0883789,-0.904297,0.397949
1480691035878687,-0.119141,-0.887695,0.404785
1480691035912276,-0.12793,-0.916992,0.408691
1480691035923306,-0.0981445,-0.930664,0.404785
1480691035938345,-0.115723,-0.946777,0.394531
1480691035976447,-0.0996094,-0.941406,0.39502
1480691035986476,-0.0976563,-0.921875,0.393555
1480691035999508,-0.0883789,-0.891113,0.384277
1480691036020565,-0.0717773,-0.902832,0.401367
1480691036035604,-0.103027,-0.924316,0.391113
1480691036061172,-0.125977,-0.97168,0.380859
1480691036076715,-0.114258,-0.962891,0.401367
1480691036103285,-0.0893555,-0.918945,0.411133
1480691036118324,-0.115234,-0.920898,0.406738
1480691036136875,-0.130371,-0.951172,0.391602
1480691036157429,-0.102051,-0.90918,0.381836
1480691036178484,-0.0834961,-0.881348,0.425293
1480691036198036,-0.134277,-0.887695,0.412109
1480691036217086,-0.12793,-0.960938,0.429688
1480691036238142,-0.103027,-0.950195,0.38916
1480691036270230,-0.122559,-0.933105,0.358887
1480691036283263,-0.0849609,-0.901855,0.382813
1480691036306324,-0.0917969,-0.897949,0.390625
1480691036320863,-0.0854492,-0.911621,0.417969
1480691036338911,-0.125,-0.946289,0.376465
1480691036358463,-0.114746,-0.983398,0.39502
1480691036383529,-0.0541992,-0.905762,0.411133
1480691036400074,-0.123047,-0.87793,0.406738
1480691036436169,-0.126465,-0.876465,0.397461
1480691036440681,-0.109375,-0.935059,0.37793
1480691036458730,-0.123535,-1.00928,0.352539
1480691036478281,-0.105957,-0.98877,0.342773
1480691036509868,-0.101563,-0.957031,0.347656
1480691036519895,-0.103516,-0.947266,0.364746
1480691036538441,-0.0717773,-0.897949,0.395508
1480691036578547,-0.0874023,-0.852539,0.392578
1480691036581055,-0.116699,-0.907715,0.376465
1480691036614643,-0.124023,-0.955078,0.386719
1480691036620660,-0.109863,-0.946289,0.390137
1480691036639210,-0.108887,-0.948242,0.388672
1480691036665780,-0.108887,-0.936523,0.401367
1480691036680819,-0.108398,-0.92627,0.400879
1480691036700873,-0.112305,-0.924316,0.389648
1480691036718420,-0.0991211,-0.92627,0.408203
1480691036740979,-0.0976563,-0.928711,0.394531
1480691036766047,-0.119629,-0.912598,0.385254
1480691036781086,-0.114258,-0.918457,0.392578
1480691036808159,-0.0966797,-0.922852,0.38623
1480691036832222,-0.10498,-0.912109,0.411621
1480691036838238,-0.100586,-0.929199,0.37793
1480691036860799,-0.0952148,-0.912598,0.386719
1480691036878847,-0.117188,-0.944824,0.373047
1480691036901407,-0.138184,-0.969238,0.351563
1480691036920959,-0.106934,-0.968262,0.361328
1480691036940510,-0.104492,-0.943848,0.367676
1480691036958559,-0.0839844,-0.920898,0.376953
1480691036988137,-0.0791016,-0.894531,0.393066
1480691037027742,-0.101563,-0.908691,0.396484
1480691037030249,-0.115234,-0.915527,0.387207
1480691037045790,-0.111328,-0.931152,0.394043
1480691037058825,-0.109863,-0.930664,0.395996
1480691037102946,-0.111816,-0.910645,0.390137
1480691037111966,-0.0986328,-0.92627,0.38916
1480691037126004,-0.125977,-0.944824,0.384277
1480691037140042,-0.131348,-0.930176,0.383301
1480691037168116,-0.10498,-0.943359,0.386719
1480691037178644,-0.0844727,-0.942383,0.382813
1480691037208223,-0.101074,-0.92627,0.390137
1480691037223764,-0.105469,-0.92627,0.38623
1480691037239806,-0.102051,-0.949219,0.367676
1480691037259860,-0.100098,-0.944824,0.369629
1480691037306985,-0.100586,-0.935547,0.369629
1480691037311498,-0.10498,-0.916016,0.376953
1480691037337069,-0.0952148,-0.904785,0.391602
1480691037349598,-0.0981445,-0.927734,0.396484
1480691037374665,-0.118164,-0.936523,0.38623
1480691037379680,-0.116211,-0.940918,0.391602
1480691037403745,-0.111328,-0.933105,0.387695
1480691037419284,-0.103516,-0.912598,0.394531
1480691037459892,-0.11084,-0.918945,0.395508
1480691037465908,-0.112305,-0.929199,0.390137
1480691037478942,-0.11084,-0.94043,0.379883
1480691037501503,-0.105957,-0.945313,0.375977
1480691037537600,-0.0996094,-0.936523,0.380859
1480691037540104,-0.107422,-0.939453,0.380859
1480691037568681,-0.100586,-0.916504,0.385254
1480691037584224,-0.097168,-0.906738,0.384277
1480691037613800,-0.107422,-0.913086,0.386719
1480691037621322,-0.104004,-0.941895,0.389648
1480691037640873,-0.0966797,-0.951172,0.379883
1480691037667949,-0.121094,-0.948242,0.388184
1480691037681982,-0.122559,-0.942871,0.38623
1480691037700531,-0.0981445,-0.925293,0.386719
1480691037733620,-0.102539,-0.904297,0.38623
1480691037741140,-0.103027,-0.910156,0.384766
1480691037761192,-0.10791,-0.936035,0.373047
1480691037778740,-0.11377,-0.959473,0.378906
1480691037815336,-0.112305,-0.955078,0.380859
1480691037820851,-0.103027,-0.927734,0.393066
1480691037843411,-0.0932617,-0.90918,0.396484
1480691037865971,-0.100586,-0.89502,0.402344
1480691037890036,-0.0869141,-0.894531,0.39209
1480691037921118,-0.11084,-0.921387,0.39209
1480691037923626,-0.122559,-0.947754,0.385742
1480691037942173,-0.111816,-0.960449,0.388184
1480691037980275,-0.113281,-0.946289,0.401367
1480691037982782,-0.105469,-0.920898,0.398438
1480691038003837,-0.102539,-0.907715,0.397461
1480691038023390,-0.0913086,-0.904785,0.391113
1480691038048958,-0.0966797,-0.915039,0.391602
1480691038070017,-0.104492,-0.927246,0.391113
1480691038086060,-0.10791,-0.936035,0.38916
1480691038115636,-0.112305,-0.942871,0.382813
1480691038123155,-0.101074,-0.941406,0.387695
1480691038150728,-0.0898438,-0.913574,0.390137
1480691038162259,-0.097168,-0.904297,0.392578
1480691038205374,-0.117676,-0.912109,0.389648
1480691038207880,-0.106934,-0.95166,0.387207
1480691038221918,-0.0957031,-0.945801,0.388672
1480691038243475,-0.121582,-0.935547,0.382813
1480691038264032,-0.122559,-0.931641,0.395996
1480691038282579,-0.104004,-0.924316,0.38916
1480691038302132,-0.0942383,-0.914551,0.38916
1480691038334719,-0.106445,-0.924316,0.387695
1480691038341235,-0.107422,-0.9375,0.385254
1480691038363795,-0.101074,-0.940918,0.394043
1480691038401395,-0.10791,-0.938477,0.40332
1480691038404905,-0.115723,-0.927734,0.39502
1480691038439998,-0.104492,-0.920898,0.38916
1480691038444510,-0.102051,-0.914551,0.388672
1480691038483113,-0.114258,-0.918457,0.389648
1480691038485118,-0.11377,-0.930176,0.385742
1480691038503181,-0.110352,-0.938965,0.392578
1480691038522718,-0.10791,-0.928711,0.395996
1480691038543773,-0.100586,-0.920898,0.391113
1480691038563326,-0.0942383,-0.928711,0.390625
1480691038581373,-0.111328,-0.920898,0.382324
1480691038608445,-0.112793,-0.916016,0.388672
1480691038623486,-0.121582,-0.913086,0.398438
1480691038641033,-0.113281,-0.907227,0.385742
1480691038678633,-0.0859375,-0.920898,0.38916
1480691038683144,-0.131348,-1.00146,0.406738
1480691038701194,-0.13916,-1.02588,0.410156
1480691038737289,-0.132324,-0.900391,0.376465
1480691038750824,-0.120117,-0.76709,0.368652
1480691038761854,-0.153809,-0.915039,0.387695
1480691038797448,-0.121094,-0.975098,0.426758
1480691038804969,-0.0908203,-0.994141,0.308594
1480691038850089,-0.0131836,-0.855469,0.345215
1480691038853113,-0.0366211,-0.833496,0.312988
1480691038864626,-0.148438,-1.01318,0.333008
1480691038881171,-0.135254,-1.05664,0.359375
1480691038920276,-0.10791,-0.970703,0.390625
1480691038930803,-0.101074,-0.897949,0.422852
1480691038945843,-0.170898,-0.907715,0.430664
1480691038965902,-0.195801,-0.938965,0.437988
1480691039000490,-0.166504,-0.923828,0.424316
1480691039007005,-0.124023,-0.874512,0.423828
1480691039053130,-0.0917969,-0.88623,0.41748
1480691039055133,-0.0981445,-0.911621,0.398438
1480691039081704,-0.0771484,-0.936035,0.39209
1480691039091230,-0.0771484,-0.913574,0.385742
1480691039112285,-0.103516,-0.873047,0.380371
1480691039121312,-0.134277,-0.921387,0.373047
1480691039148382,-0.141113,-1.00928,0.368652
1480691039165928,-0.135742,-0.983887,0.358398
1480691039180968,-0.135254,-0.937988,0.384766
1480691039204029,-0.118652,-0.88623,0.385742
1480691039227091,-0.109375,-0.897949,0.412109
1480691039241629,-0.114258,-0.901367,0.391602
1480691039263688,-0.10791,-0.922363,0.407227
1480691039286250,-0.10498,-0.920898,0.411133
1480691039315325,-0.106934,-0.90625,0.40918
1480691039331368,-0.106934,-0.911133,0.411621
1480691039350919,-0.116699,-0.917969,0.395508
1480691039365961,-0.127441,-0.9375,0.385254
1480691039391027,-0.123535,-0.949707,0.395508
1480691039407069,-0.111328,-0.925293,0.394043
1480691039425619,-0.101563,-0.911621,0.394043
1480691039445672,-0.112305,-0.910645,0.39502
1480691039470739,-0.103027,-0.914063,0.38623
1480691039485780,-0.102539,-0.92334,0.394531
1480691039515859,-0.102539,-0.943848,0.399414
1480691039534408,-0.118652,-0.938965,0.399902
1480691039548946,-0.132324,-0.933594,0.407227
1480691039570004,-0.131836,-0.921387,0.40625
1480691039586548,-0.126953,-0.898926,0.410645
1480691039605597,-0.125977,-0.900879,0.405762
1480691039624147,-0.11084,-0.916504,0.398926
1480691039653725,-0.108398,-0.94043,0.40918
1480691039668765,-0.104492,-0.944824,0.403809
1480691039684306,-0.0961914,-0.922852,0.417969
1480691039706366,-0.115723,-0.904785,0.401367
1480691039733438,-0.12793,-0.915527,0.393066
1480691039743463,-0.105957,-0.912598,0.395996
1480691039789085,-0.11084,-0.920898,0.396484
1480691039793098,-0.12793,-0.927246,0.400391
1480691039803627,-0.123047,-0.929688,0.403809
1480691039840222,-0.12207,-0.91748,0.401367
1480691039845735,-0.126465,-0.905762,0.39502
1480691039871805,-0.119629,-0.908691,0.399414
1480691039885843,-0.123047,-0.903809,0.404785
1480691039906397,-0.128418,-0.914063,0.401855
1480691039946003,-0.125488,-0.923828,0.404785
1480691039948509,-0.132324,-0.931641,0.405762
1480691039968061,-0.121582,-0.92627,0.404785
1480691039997640,-0.117188,-0.924316,0.40332
1480691040006162,-0.118164,-0.916016,0.397949
1480691040026216,-0.107422,-0.914551,0.394531
1480691040042760,-0.101563,-0.922363,0.398926
1480691040065320,-0.118652,-0.935059,0.407715
1480691040086877,-0.137695,-0.949707,0.400879
1480691040103424,-0.132324,-0.931641,0.400391
1480691040143026,-0.114258,-0.925293,0.39209
1480691040150546,-0.109375,-0.911621,0.39209
1480691040163581,-0.101563,-0.908203,0.38623
1480691040186144,-0.104004,-0.922363,0.383789
1480691040206195,-0.116699,-0.927734,0.388672
1480691040228754,-0.109863,-0.939453,0.389648
1480691040246802,-0.110352,-0.936035,0.387207
1480691040273875,-0.10498,-0.922852,0.380371
1480691040282898,-0.119141,-0.916992,0.384766
1480691040305458,-0.11084,-0.914551,0.389648
1480691040343561,-0.112793,-0.916992,0.400879
1480691040345565,-0.121094,-0.937988,0.391113
1480691040356094,-0.101563,-0.908203,0.38623
1480691040360104,-0.104004,-0.922363,0.383789
1480691040380658,-0.126465,-0.934082,0.397949
1480691040388680,-0.124023,-0.932129,0.393066
1480691040402721,-0.118164,-0.921387,0.394531
1480691040426280,-0.11377,-0.928223,0.396484
1480691040447837,-0.117676,-0.912598,0.389648
1480691040462877,-0.100586,-0.915039,0.387695
1480691040500978,-0.114258,-0.925781,0.394043
1480691040515517,-0.112793,-0.935059,0.397461
1480691040522035,-0.134277,-0.938965,0.393066
1480691040545597,-0.136719,-0.935059,0.398438
1480691040575677,-0.109375,-0.930176,0.400391
1480691040582194,-0.103516,-0.905762,0.396973
1480691040619295,-0.0991211,-0.904785,0.393555
1480691040634835,-0.126953,-0.917969,0.391113
1480691040656392,-0.125,-0.923828,0.396973
1480691040664914,-0.101074,-0.937988,0.398438
1480691040696498,-0.137695,-0.942871,0.384766
1480691040718056,-0.124023,-0.942871,0.378418
1480691040725576,-0.0976563,-0.919434,0.375488
1480691040748637,-0.105469,-0.904297,0.384766
1480691040770698,-0.111328,-0.927246,0.385254
1480691040809298,-0.11084,-0.942383,0.393555
1480691040812306,-0.120117,-0.927246,0.399902
1480691040828850,-0.127441,-0.921387,0.390137
1480691040858930,-0.119141,-0.936523,0.39209
1480691040867954,-0.107422,-0.918945,0.383789
1480691040914077,-0.112793,-0.911133,0.378906
1480691040919592,-0.112305,-0.92334,0.397461
1480691040929117,-0.118652,-0.93457,0.391113
1480691040949169,-0.112305,-0.946289,0.393555
1480691040972733,-0.115723,-0.936523,0.394043
1480691040993789,-0.109375,-0.924316,0.39209
1480691041008829,-0.109863,-0.909668,0.386719
1480691041027378,-0.103516,-0.903809,0.387695
1480691041047933,-0.102051,-0.914063,0.378906
1480691041071997,-0.104492,-0.920898,0.38916
1480691041085535,-0.105957,-0.935547,0.391602
1480691041108594,-0.117188,-0.958984,0.391113
1480691041129149,-0.128418,-0.940918,0.387207
1480691041145692,-0.128418,-0.924805,0.388184
1480691041181288,-0.114746,-0.917969,0.387695
1480691041196829,-0.105957,-0.911621,0.382813
1480691041214876,-0.103027,-0.928711,0.382324
1480691041233937,-0.109375,-0.947754,0.379395
1480691041266012,-0.105469,-0.950195,0.380371
1480691041275538,-0.100098,-0.932129,0.390625
1480691041288576,-0.10498,-0.913574,0.388184
1480691041310633,-0.119629,-0.916016,0.388184
1480691041331688,-0.117188,-0.927246,0.382324
1480691041347730,-0.110352,-0.93457,0.385742
1480691041370290,-0.102051,-0.944336,0.401367
1480691041384830,-0.0996094,-0.930664,0.392578
1480691041408391,-0.111816,-0.924805,0.391113
1480691041445490,-0.112305,-0.921875,0.385254
1480691041447495,-0.106445,-0.927734,0.382324
1480691041476071,-0.0996094,-0.914551,0.37793
1480691041490610,-0.105957,-0.921875,0.393555
1480691041504648,-0.110352,-0.936523,0.396973
1480691041527709,-0.0976563,-0.9375,0.401855
1480691041556284,-0.105957,-0.922852,0.39502
1480691041566311,-0.110352,-0.923828,0.382813
1480691041593885,-0.100586,-0.930176,0.37793
1480691041610428,-0.111816,-0.92627,0.375977
1480691041639004,-0.104492,-0.924805,0.387207
1480691041648029,-0.11377,-0.924805,0.385254
1480691041670589,-0.117188,-0.935547,0.385742
1480691041684626,-0.109863,-0.937012,0.388184
1480691041709693,-0.106934,-0.924316,0.386719
1480691041731752,-0.107422,-0.90332,0.384277
1480691041751805,-0.0922852,-0.910645,0.39209
1480691041767849,-0.10498,-0.929688,0.395996
1480691041804447,-0.106445,-0.941895,0.390625
1480691041811463,-0.118164,-0.936523,0.391113
1480691041828007,-0.119629,-0.936035,0.390625
1480691041851069,-0.117676,-0.930664,0.388184
1480691041881148,-0.105957,-0.919922,0.382324
1480691041888669,-0.103027,-0.911621,0.37793
1480691041911729,-0.11084,-0.921875,0.380859
1480691041931283,-0.114746,-0.939941,0.379883
1480691041947825,-0.12207,-0.948242,0.381348
1480691041970385,-0.118652,-0.931641,0.381348
1480691041999463,-0.114258,-0.930176,0.368652
1480691042009489,-0.11377,-0.913086,0.37207
1480691042053607,-0.10791,-0.931152,0.361816
1480691042058118,-0.111328,-0.925293,0.375
1480691042067644,-0.114746,-0.916016,0.398926
1480691042099229,-0.126465,-0.932617,0.387695
1480691042111260,-0.11084,-0.946289,0.392578
1480691042128306,-0.104492,-0.946777,0.384277
1480691042158387,-0.103027,-0.926758,0.391602
1480691042173425,-0.11084,-0.916504,0.374512
1480691042195986,-0.111816,-0.921875,0.384277
1480691042214034,-0.108887,-0.913086,0.393555
1480691042234589,-0.108887,-0.942383,0.379883
1480691042248124,-0.117676,-0.957031,0.382813
1480691042278705,-0.116699,-0.947754,0.367676
1480691042292743,-0.118652,-0.933105,0.375488
1480691042307783,-0.11377,-0.911621,0.394043
1480691042330344,-0.104004,-0.905273,0.394531
1480691042359921,-0.106445,-0.916504,0.387695
1480691042384487,-0.105957,-0.935059,0.388672
1480691042390503,-0.121094,-0.950195,0.378906
1480691042436126,-0.112305,-0.936035,0.402344
1480691042438631,-0.109863,-0.916016,0.408203
1480691042451667,-0.106934,-0.901367,0.405273
1480691042473223,-0.104492,-0.91748,0.400879
1480691042494279,-0.147461,-0.946289,0.383301
1480691042520348,-0.137207,-0.953125,0.37207
1480691042532881,-0.142578,-0.934082,0.37793
1480691042562962,-0.158203,-0.93457,0.365234
1480691042570482,-0.131348,-0.938477,0.357422
1480691042600561,-0.115234,-0.915527,0.372559
1480691042614097,-0.118652,-0.893555,0.375977
1480691042661223,-0.109375,-0.896484,0.394531
1480691042665233,-0.137207,-0.913574,0.395508
1480691042681777,-0.134277,-0.942383,0.375
1480691042705340,-0.126953,-0.962402,0.345703
1480691042713361,-0.0839844,-0.947754,0.382813
1480691042743442,-0.0805664,-0.928711,0.40332
1480691042750460,-0.121582,-0.916504,0.402344
1480691042773020,-0.121582,-0.950195,0.394043
1480691042794076,-0.138184,-0.956055,0.408691
1480691042810118,-0.13623,-0.959473,0.399414
1480691042840198,-0.151855,-0.90918,0.399902
1480691042853734,-0.171387,-0.89209,0.37793
1480691042870280,-0.149902,-0.914063,0.387695
1480691042892839,-0.133789,-0.90918,0.350098
1480691042915399,-0.102051,-0.932617,0.359863
1480691042938961,-0.0883789,-0.900391,0.398438
1480691042959516,-0.0869141,-0.881836,0.359375
1480691042981575,-0.104492,-0.919922,0.371094
1480691043000124,-0.128906,-0.976563,0.344238
1480691043021681,-0.102051,-0.972656,0.387695
1480691043043239,-0.100098,-0.933594,0.374023
1480691043050257,-0.138184,-0.928711,0.382324
1480691043072817,-0.116699,-0.949707,0.398926
1480691043119444,-0.126465,-0.929199,0.394043
1480691043124456,-0.137695,-0.925293,0.394043
1480691043134481,-0.130859,-0.941406,0.39502
1480691043156541,-0.143555,-0.949219,0.391602
1480691043172081,-0.134766,-0.90918,0.411133
1480691043194140,-0.125488,-0.888672,0.40918
1480691043215697,-0.143555,-0.901367,0.419922
1480691043229734,-0.154785,-0.908203,0.394531
1480691043275857,-0.158203,-0.953613,0.386719
1480691043278364,-0.112305,-0.933594,0.369141
1480691043289895,-0.0776367,-0.902832,0.385254
1480691043312956,-0.0766602,-0.892578,0.395996
1480691043342533,-0.103027,-0.910156,0.38623
1480691043351057,-0.118652,-0.950195,0.351074
1480691043372614,-0.115234,-0.991211,0.361816
1480691043402195,-0.108887,-0.96582,0.362305
1480691043411719,-0.128906,-0.926758,0.365723
1480691043435282,-0.129395,-0.929688,0.384277
1480691043455335,-0.131348,-0.92627,0.379883
1480691043470375,-0.128418,-0.936523,0.381836
1480691043506471,-0.13623,-0.912598,0.374512
1480691043515495,-0.12793,-0.90625,0.383301
1480691043530534,-0.137695,-0.905273,0.38916
1480691043553094,-0.140625,-0.905273,0.390137
1480691043576156,-0.106934,-0.929199,0.380371
1480691043597712,-0.102051,-0.944336,0.386719
1480691043613254,-0.100586,-0.914063,0.380371
1480691043636817,-0.0908203,-0.890137,0.346191
1480691043663890,-0.0834961,-0.907715,0.346191
1480691043686450,-0.147461,-0.961426,0.322266
1480691043695975,-0.140137,-0.975586,0.40625
1480691043716528,-0.0654297,-0.9375,0.407715
1480691043771675,-0.109375,-0.967285,0.427734
1480691043778694,-0.134766,-0.95166,0.401367
1480691043783708,-0.150879,-0.916504,0.391113
1480691043792731,-0.154297,-0.947266,0.407715
1480691043815291,-0.154785,-0.948242,0.404785
1480691043836347,-0.140625,-0.930176,0.405273
1480691043853393,-0.171387,-0.924316,0.399902
1480691043875953,-0.149414,-0.838379,0.377441
1480691043896508,-0.12207,-0.912598,0.351074
1480691043913051,-0.0981445,-0.95166,0.361328
1480691043942630,-0.100586,-0.922852,0.341797
1480691043965190,-0.101074,-0.89502,0.366211
1480691043973713,-0.0625,-0.907227,0.361816
1480691043995270,-0.0961914,-0.950195,0.366699
1480691044033371,-0.118652,-0.953613,0.375
1480691044035880,-0.166992,-0.970703,0.354492
1480691044055431,-0.0927734,-0.927246,0.396484
1480691044086013,-0.118164,-0.929199,0.378906
1480691044093030,-0.150391,-0.963379,0.393555
1480691044115590,-0.129395,-0.936523,0.37793
1480691044145670,-0.13623,-0.928711,0.388184
1480691044152689,-0.11377,-0.925781,0.405762
1480691044183270,-0.144531,-0.910156,0.39502
1480691044198811,-0.162109,-0.890137,0.416504
1480691044220370,-0.15332,-0.920898,0.396973
1480691044236913,-0.141113,-0.938477,0.37793
1480691044268501,-0.118164,-0.936035,0.37207
1480691044275013,-0.11084,-0.92334,0.36084
1480691044304093,-0.0947266,-0.907715,0.361816
1480691044326150,-0.0727539,-0.902344,0.369629
1480691044332166,-0.0751953,-0.915039,0.37793
1480691044369266,-0.133789,-0.958496,0.33252
1480691044385310,-0.125488,-0.967773,0.438477
1480691044400348,-0.0874023,-0.966797,0.388184
1480691044415387,-0.185547,-0.937012,0.390137
1480691044437948,-0.151367,-0.950684,0.384277
1480691044460508,-0.138672,-0.907227,0.390137
1480691044477051,-0.166504,-0.882813,0.391602
1480691044498108,-0.118652,-0.904785,0.397949
1480691044520166,-0.125977,-0.929688,0.396484
1480691044542725,-0.137695,-0.930664,0.374512
1480691044588347,-0.118164,-0.933105,0.374512
1480691044603387,-0.0996094,-0.918457,0.370117
1480691044605894,-0.0942383,-0.930176,0.372559
1480691044617928,-0.12207,-0.933105,0.349121
1480691044638982,-0.125,-0.942871,0.393555
1480691044669563,-0.120117,-0.927734,0.381348
1480691044679589,-0.140625,-0.967285,0.389648
1480691044698641,-0.13623,-0.95166,0.393066
1480691044715686,-0.129883,-0.928711,0.398926
1480691044737745,-0.150879,-0.910156,0.386719
1480691044773840,-0.150391,-0.908691,0.397949
1480691044799409,-0.134277,-0.905762,0.370117
1480691044820966,-0.114258,-0.922852,0.384766
1480691044823474,-0.113281,-0.943359,0.367676
1480691044835008,-0.108887,-0.922363,0.375488
1480691044858566,-0.0942383,-0.900391,0.370605
1480691044882128,-0.144043,-0.941895,0.352051
1480691044895665,-0.122559,-0.944824,0.369629
1480691044918227,-0.11377,-0.919922,0.375977
1480691044940283,-0.12793,-0.938477,0.376465
1480691044955324,-0.13916,-0.949219,0.37207
1480691044985405,-0.12207,-0.947754,0.386719
1480691044998939,-0.122559,-0.935059,0.384766
1480691045015483,-0.140137,-0.92627,0.397461
1480691045038044,-0.134277,-0.897949,0.385742
1480691045069628,-0.123535,-0.898926,0.378418
1480691045075643,-0.123535,-0.912598,0.370605
1480691045097702,-0.0932617,-0.940918,0.376465
1480691045136806,-0.09375,-0.958984,0.37793
1480691045141819,-0.148926,-0.959473,0.362305
1480691045157864,-0.158691,-0.961426,0.376465
1480691045180422,-0.104492,-0.894531,0.390137
1480691045195477,-0.154297,-0.910156,0.375488
1480691045218023,-0.133301,-0.925293,0.389648
1480691045240582,-0.105469,-0.91748,0.359375
1480691045261639,-0.124023,-0.944336,0.376953
1480691045284198,-0.132813,-0.958496,0.361816
1480691045300243,-0.124023,-0.955078,0.354492
1480691045346864,-0.112305,-0.924805,0.361816
1480691045351380,-0.0976563,-0.903809,0.359375
1480691045360400,-0.0947266,-0.924316,0.367676
1480691045374939,-0.107422,-0.930176,0.379883
1480691045438106,-0.131348,-0.937988,0.373047
1480691045441616,-0.140625,-0.937988,0.391602
1480691045458162,-0.13623,-0.93457,0.394043
1480691045480720,-0.133301,-0.942383,0.398926
1480691045494758,-0.125,-0.960449,0.396973
1480691045517819,-0.134277,-0.928711,0.391602
1480691045540379,-0.140625,-0.902344,0.390625
1480691045569457,-0.139648,-0.927734,0.39209
1480691045591516,-0.115723,-0.927734,0.37793
1480691045624102,-0.104492,-0.909668,0.356934
1480691045629115,-0.11084,-0.901367,0.363281
1480691045639145,-0.116699,-0.904785,0.36377
1480691045660198,-0.103516,-0.90918,0.359863
1480691045688774,-0.12207,-0.944824,0.361816
1480691045697797,-0.137695,-0.952148,0.352051
1480691045720357,-0.0849609,-0.949707,0.378906
1480691045741915,-0.114258,-0.973145,0.391113
1480691045781019,-0.146973,-0.952637,0.391113
1480691045796059,-0.164063,-0.922852,0.377441
1480691045808592,-0.168945,-0.907715,0.381348
1480691045819120,-0.13916,-0.928711,0.393066
1480691045847696,-0.108887,-0.936035,0.385742
1480691045868752,-0.121582,-0.947266,0.383301
1480691045885299,-0.119629,-0.913086,0.375977
1480691045907856,-0.121094,-0.874023,0.373535
1480691045928912,-0.109375,-0.896484,0.370605
1480691045937936,-0.0942383,-0.945313,0.368652
1480691045968018,-0.126953,-0.974121,0.365723
1480691045990577,-0.126953,-0.963379,0.381836
1480691045998096,-0.118652,-0.942383,0.376953
1480691046020657,-0.132324,-0.929199,0.396484
1480691046050235,-0.131836,-0.925781,0.390137
1480691046065275,-0.128906,-0.90332,0.380371
1480691046080315,-0.112305,-0.916504,0.385742
1480691046102875,-0.130371,-0.962402,0.381836
1480691046125435,-0.138184,-0.968262,0.384277
1480691046140976,-0.142578,-0.935547,0.399902
1480691046180080,-0.153809,-0.921875,0.396484
1480691046184091,-0.14209,-0.890625,0.386719
1480691046200636,-0.119141,-0.922852,0.390137
1480691046222694,-0.106445,-0.905762,0.385742
1480691046252773,-0.133789,-0.900391,0.384277
1480691046260293,-0.128906,-0.9375,0.370117
1480691046290374,-0.115234,-0.95752,0.358398
1480691046297392,-0.103027,-0.945313,0.35498
1480691046321957,-0.0839844,-0.914063,0.381836
1480691046343515,-0.109375,-0.887207,0.378906
1480691046357051,-0.168945,-0.951172,0.367188
1480691046381115,-0.128418,-0.975586,0.447266
1480691046402671,-0.113281,-0.994141,0.386719
1480691046417211,-0.148926,-0.945313,0.395996
1480691046440271,-0.128418,-0.90918,0.374512
1480691046462831,-0.127441,-0.910645,0.397461
1480691046485392,-0.140625,-0.908203,0.395508
1480691046500432,-0.144531,-0.906738,0.395508
1480691046523995,-0.142578,-0.936035,0.378906
1480691046544047,-0.115723,-0.944336,0.377441
1480691046568115,-0.120605,-0.931152,0.382324
1480691046582650,-0.111328,-0.945313,0.365234
1480691046603706,-0.100098,-0.912109,0.366211
1480691046620250,-0.116211,-0.899414,0.376465
1480691046643312,-0.117188,-0.899902,0.376465
1480691046665370,-0.129395,-0.938477,0.385254
1480691046681914,-0.140625,-0.95459,0.390137
1480691046703472,-0.128906,-0.936523,0.390137
1480691046724027,-0.124023,-0.949707,0.388672
1480691046741576,-0.116699,-0.961426,0.385254
1480691046762629,-0.125,-0.930176,0.382324
1480691046784186,-0.125488,-0.891602,0.377441
1480691046800731,-0.12207,-0.90332,0.388672
1480691046822790,-0.133789,-0.932617,0.373535
1480691046847856,-0.12793,-0.935059,0.37793
1480691046861894,-0.125488,-0.927246,0.378906
1480691046885456,-0.126465,-0.907227,0.383789
1480691046905008,-0.12207,-0.934082,0.379395
1480691046928069,-0.13623,-0.938965,0.373047
1480691046943108,-0.107422,-0.928223,0.395996
1480691046965167,-0.120605,-0.949707,0.383789
1480691046980208,-0.13623,-0.938965,0.37793
1480691047003771,-0.128418,-0.938477,0.371582
1480691047025327,-0.120605,-0.917969,0.380859
1480691047040869,-0.116211,-0.924316,0.386719
1480691047062928,-0.120117,-0.930664,0.390625
1480691047085487,-0.144043,-0.923828,0.388184
1480691047099526,-0.134277,-0.904297,0.370605
1480691047123088,-0.133789,-0.903809,0.377441
1480691047153669,-0.111816,-0.931152,0.374512
1480691047162692,-0.104492,-0.92627,0.37793
1480691047188762,-0.105469,-0.907715,0.381836
1480691047205307,-0.14502,-0.91748,0.372559
1480691047219851,-0.155762,-0.971191,0.421387
1480691047242906,-0.103027,-0.986816,0.361816
1480691047279504,-0.131348,-0.931152,0.375488
1480691047294042,-0.111816,-0.921387,0.383301
1480691047318111,-0.127441,-0.902832,0.384277
1480691047325626,-0.13916,-0.913086,0.38916
1480691047353702,-0.118164,-0.929688,0.397949
1480691047369244,-0.131836,-0.939941,0.38916
1480691047386789,-0.13916,-0.934082,0.39502
1480691047400828,-0.155762,-0.92627,0.369629
1480691047424389,-0.148438,-0.930176,0.409668
1480691047452965,-0.118652,-0.894531,0.385254
1480691047466501,-0.125977,-0.917969,0.39209
1480691047483045,-0.119141,-0.937988,0.376953
1480691047505605,-0.11084,-0.91748,0.380859
1480691047542201,-0.100098,-0.904297,0.374512
1480691047556243,-0.123535,-0.947266,0.36377
1480691047565765,-0.15918,-0.975586,0.351074
1480691047586320,-0.141113,-0.938965,0.437988
1480691047602864,-0.0849609,-0.945801,0.366211
1480691047639461,-0.14209,-0.953613,0.389648
1480691047648987,-0.109375,-0.904785,0.379395
1480691047663023,-0.132813,-0.916992,0.396484
1480691047685583,-0.154297,-0.970215,0.413086
1480691047706640,-0.161133,-0.944824,0.416992
1480691047745743,-0.20166,-0.898438,0.405762
1480691047748250,-0.149902,-0.868164,0.390625
1480691047766298,-0.116699,-0.912109,0.356445
1480691047782842,-0.106445,-0.93457,0.355469
1480691047806906,-0.101563,-0.916016,0.337891
1480691047843503,-0.104004,-0.93457,0.355957
1480691047846010,-0.115723,-0.934082,0.350586
1480691047865563,-0.0883789,-0.928223,0.380371
1480691047889124,-0.0888672,-0.928711,0.392578
1480691047910682,-0.178223,-0.954102,0.383301
1480691047934749,-0.129883,-0.904297,0.341309
1480691047947780,-0.121094,-0.910645,0.401855
1480691047962820,-0.146484,-0.950684,0.411133
1480691047985383,-0.128418,-0.949707,0.395996
1480691048007941,-0.145996,-0.927734,0.408691
1480691048022482,-0.150879,-0.912598,0.408691
1480691048046543,-0.149902,-0.902344,0.415527
1480691048068100,-0.135254,-0.912109,0.402832
1480691048089156,-0.14209,-0.915527,0.38623
1480691048120240,-0.117676,-0.924316,0.36377
1480691048128260,-0.119629,-0.931152,0.367188
1480691048150822,-0.111328,-0.915527,0.382813
1480691048165359,-0.121582,-0.915527,0.373535
1480691048188922,-0.0991211,-0.915039,0.401367
1480691048202459,-0.107422,-0.90918,0.362305
1480691048233541,-0.138184,-0.947754,0.399902
1480691048249082,-0.0981445,-0.902344,0.414551
1480691048262116,-0.144531,-0.930664,0.405762
1480691048298714,-0.14502,-0.931152,0.39209
1480691048313754,-0.139648,-0.92334,0.410645
1480691048322276,-0.133301,-0.920898,0.419922
1480691048345337,-0.134766,-0.905273,0.415527
1480691048368901,-0.164551,-0.894531,0.398926
1480691048405999,-0.123535,-0.908203,0.382324
1480691048408506,-0.107422,-0.927734,0.370605
1480691048428058,-0.109375,-0.937988,0.378906
1480691048449114,-0.0991211,-0.930176,0.375488
1480691048471674,-0.128906,-0.902832,0.382324
1480691048487716,-0.134277,-0.921875,0.385742
1480691048508772,-0.11084,-0.9375,0.423828
1480691048525317,-0.13623,-0.96582,0.411133
1480691048549381,-0.129395,-0.935547,0.402344
1480691048576452,-0.121582,-0.919922,0.397461
1480691048592996,-0.131348,-0.921875,0.398438
1480691048615556,-0.129395,-0.905762,0.389648
1480691048629094,-0.131348,-0.89502,0.384277
1480691048645136,-0.114746,-0.886719,0.378418
1480691048667698,-0.128418,-0.898926,0.378418
1480691048689755,-0.131348,-0.928711,0.391602
1480691048705797,-0.0942383,-0.943359,0.371582
1480691048727855,-0.122559,-0.948242,0.38916
1480691048765956,-0.150879,-0.92041,0.37793
1480691048788516,-0.157227,-0.943848,0.460449
1480691048792025,-0.0991211,-0.962891,0.395996
1480691048810074,-0.105469,-0.937012,0.416992
1480691048825615,-0.105469,-0.936035,0.410156
1480691048847673,-0.144043,-0.924805,0.404785
1480691048870234,-0.147461,-0.915527,0.42334
1480691048884774,-0.118652,-0.907715,0.430176
1480691048907834,-0.133789,-0.905762,0.427246
1480691048937913,-0.15625,-0.914551,0.39502
1480691048945434,-0.140137,-0.941895,0.398926
1480691048968495,-0.115723,-0.874512,0.384277
1480691048991055,-0.141113,-0.901367,0.385742
1480691049020132,-0.141113,-0.933105,0.371582
1480691049051215,-0.101074,-0.937012,0.37793
1480691049053221,-0.11084,-0.896973,0.381836
1480691049064751,-0.0869141,-0.893066,0.38623
1480691049101350,-0.0961914,-0.910645,0.402344
1480691049116389,-0.141113,-0.954102,0.390625
1480691049124913,-0.143066,-0.964844,0.462402
1480691049147972,-0.134766,-0.95752,0.394043
1480691049187077,-0.155273,-0.932129,0.403809
1480691049191589,-0.113281,-0.925293,0.394043
1480691049210138,-0.132813,-0.904785,0.415039
1480691049239215,-0.131348,-0.90332,0.42041
1480691049251750,-0.141113,-0.907227,0.419434
1480691049267795,-0.144043,-0.927734,0.410645
1480691049298873,-0.133301,-0.947266,0.397949
1480691049318927,-0.125488,-0.922363,0.383789
1480691049327951,-0.114746,-0.886719,0.388672
1480691049364047,-0.118164,-0.897949,0.394531
1480691049380089,-0.115723,-0.90918,0.404297
1480691049393625,-0.132324,-0.935059,0.397949
1480691049410169,-0.118164,-0.969727,0.367676
1480691049431225,-0.123047,-0.976563,0.409668
1480691049448771,-0.138184,-0.925781,0.405273
1480691049478852,-0.137207,-0.908691,0.394531
1480691049500410,-0.116699,-0.910156,0.400879
1480691049515450,-0.11377,-0.913574,0.399902
1480691049530991,-0.134277,-0.900879,0.408203
1480691049551546,-0.144043,-0.920898,0.385742
1480691049575108,-0.127441,-0.90332,0.393066
1480691049591653,-0.126465,-0.88623,0.396484
1480691049611204,-0.111816,-0.90918,0.404785
1480691049635770,-0.11084,-0.907227,0.390137
1480691049657829,-0.150879,-0.938965,0.413086
1480691049679886,-0.112305,-0.955078,0.396973
1480691049701448,-0.118652,-0.948242,0.419922
1480691049710468,-0.140625,-0.915527,0.415039
1480691049740551,-0.133301,-0.92334,0.410156
1480691049754084,-0.128418,-0.913086,0.412109
1480691049771129,-0.119141,-0.914551,0.419434
1480691049792686,-0.14502,-0.880371,0.42041
1480691049821262,-0.183594,-0.890625,0.404785
1480691049830286,-0.131348,-0.916992,0.386719
1480691049853849,-0.101563,-0.935059,0.405762
1480691049875908,-0.0932617,-0.900391,0.40625
1480691049890447,-0.118652,-0.878418,0.438965
1480691049913508,-0.146973,-0.903809,0.364746
1480691049935567,-0.169434,-0.928711,0.432617
1480691049951609,-0.0893555,-0.932129,0.410645
1480691049978681,-0.121582,-0.941406,0.402344
1480691049987204,-0.17041,-0.919434,0.394043
1480691050010265,-0.13916,-0.911133,0.395996
1480691050033830,-0.115723,-0.899414,0.418457
1480691050055887,-0.144531,-0.913574,0.422852
1480691050070425,-0.168457,-0.905273,0.397461
1480691050107022,-0.137207,-0.890137,0.414551
1480691050117049,-0.138672,-0.89209,0.414063
1480691050131087,-0.155762,-0.891602,0.401855
1480691050158660,-0.128906,-0.941895,0.380371
1480691050173700,-0.0996094,-0.92627,0.384277
1480691050197764,-0.105957,-0.885254,0.375488
1480691050214308,-0.155273,-0.89502,0.358887
1480691050233860,-0.15625,-0.992188,0.348145
1480691050250406,-0.124023,-1.0376,0.379883
1480691050278980,-0.114258,-0.945313,0.380371
1480691050295524,-0.170898,-0.907715,0.384277
1480691050317081,-0.157227,-0.891602,0.36377
1480691050334630,-0.152344,-0.920898,0.397461
1480691050370723,-0.153809,-0.934082,0.401367
1480691050376238,-0.14209,-0.916016,0.412109
1480691050392782,-0.139648,-0.885254,0.401855
1480691050416345,-0.164063,-0.934082,0.385742
1480691050430382,-0.140625,-0.955566,0.383301
1480691050453444,-0.112793,-0.922852,0.386719
1480691050473496,-0.138184,-0.912109,0.388672
1480691050504078,-0.151367,-0.930176,0.369141
1480691050520121,-0.144043,-0.935547,0.353027
1480691050534174,-0.128906,-0.921875,0.376465
1480691050556217,-0.171875,-0.928711,0.362793
1480691050572760,-0.133301,-0.94043,0.395996
1480691050601341,-0.148926,-0.885254,0.394531
1480691050613870,-0.167969,-0.894531,0.405273
1480691050639438,-0.166504,-0.910645,0.400391
1480691050662499,-0.17041,-0.925293,0.391602
1480691050671022,-0.149414,-0.933105,0.385742
1480691050692579,-0.146973,-0.921387,0.369141
1480691050722660,-0.132324,-0.933105,0.355469
1480691050730681,-0.129883,-0.932617,0.345215
1480691050752741,-0.133789,-0.934082,0.345215
1480691050777807,-0.146973,-0.949707,0.362305
1480691050791345,-0.151855,-0.945313,0.373535
1480691050812915,-0.140625,-0.922852,0.394043
1480691050843481,-0.166504,-0.908203,0.391113
1480691050851004,-0.155762,-0.94043,0.396973
1480691050880078,-0.16748,-0.969238,0.393066
1480691050895620,-0.164063,-0.961426,0.397461
1480691050910158,-0.137695,-0.928711,0.390625
1480691050934222,-0.131836,-0.910645,0.39502
1480691050962798,-0.145508,-0.912109,0.378906
1480691050983854,-0.147461,-0.916016,0.368164
1480691050993380,-0.152344,-0.918945,0.369141
1480691051015939,-0.157715,-0.910645,0.355957
1480691051040005,-0.145996,-0.916992,0.376465
1480691051052537,-0.141602,-0.916992,0.372559
1480691051075598,-0.136719,-0.896973,0.376465
1480691051090138,-0.145996,-0.919434,0.383789
1480691051113199,-0.141602,-0.950195,0.381836
1480691051144781,-0.130371,-0.93457,0.385742
1480691051158319,-0.152832,-0.942871,0.396484
1480691051174361,-0.140137,-0.915527,0.387695
1480691051195918,-0.125,-0.902344,0.383789
1480691051223993,-0.147461,-0.907715,0.378906
1480691051240537,-0.152832,-0.922363,0.374023
1480691051262094,-0.149902,-0.924805,0.383301
1480691051276131,-0.153809,-0.932617,0.39209
1480691051292675,-0.15625,-0.933594,0.405273
1480691051321251,-0.147949,-0.922852,0.414063
1480691051337295,-0.158691,-0.92041,0.397949
1480691051353337,-0.155762,-0.910156,0.396484
1480691051375395,-0.138184,-0.900879,0.39209
1480691051396952,-0.145508,-0.90625,0.395508
1480691051421017,-0.150391,-0.915527,0.408203
1480691051444579,-0.156738,-0.945313,0.411133
1480691051457614,-0.161621,-0.940918,0.401855
1480691051473656,-0.153809,-0.9375,0.382813
1480691051519278,-0.147949,-0.938477,0.351074
1480691051540835,-0.140625,-0.947754,0.339355
1480691051543342,-0.135742,-0.950684,0.331055
1480691051570915,-0.15332,-0.929688,0.328613
1480691051576430,-0.160156,-0.916504,0.320313
1480691051601498,-0.133789,-0.92334,0.331055
1480691051623055,-0.10498,-0.94043,0.306152
1480691051636590,-0.0947266,-1.00391,0.290039
1480691051652131,-0.10498,-1.02246,0.287598
1480691051675192,-0.111328,-0.980469,0.318359
1480691051705273,-0.11377,-0.97168,0.361328
1480691051721315,-0.127441,-0.959473,0.363281
1480691051735354,-0.149414,-0.963867,0.336426
1480691051757913,-0.149902,-0.935059,0.292969
1480691051771950,-0.177734,-0.950684,0.303223
1480691051801528,-0.17627,-0.960449,0.333008
1480691051819075,-0.12793,-0.941895,0.337402
1480691051840131,-0.0888672,-0.900879,0.319336
1480691051879235,-0.0976563,-0.913574,0.330078
1480691051900797,-0.108398,-0.927246,0.317383
1480691051903306,-0.0869141,-0.914551,0.320313
1480691051916838,-0.0942383,-0.930664,0.307617
1480691051937892,-0.10791,-0.972656,0.311523
1480691051952430,-0.111816,-0.976074,0.311035
1480691051975993,-0.129395,-0.961426,0.3125
1480691051998051,-0.140625,-0.971191,0.314941
1480691052012089,-0.16748,-0.981934,0.300293
1480691052035151,-0.182129,-1.00049,0.314453
1480691052065230,-0.157715,-0.978516,0.326172
1480691052072249,-0.0874023,-0.947754,0.337402
1480691052095310,-0.078125,-0.916016,0.353516
1480691052123886,-0.124023,-0.905273,0.343262
1480691052155972,-0.135742,-0.919434,0.341797
1480691052158477,-0.105469,-0.913574,0.34082
1480691052178030,-0.113281,-0.919434,0.32373
1480691052199087,-0.115723,-0.944824,0.322266
1480691052216634,-0.105957,-0.964355,0.319336
1480691052238191,-0.0981445,-0.958008,0.316895
1480691052258744,-0.09375,-0.925781,0.333008
1480691052275288,-0.10498,-0.923828,0.34375
1480691052305369,-0.111328,-0.92627,0.348633
1480691052318904,-0.128418,-0.936035,0.354492
1480691052348985,-0.126465,-0.932129,0.364258
1480691052372045,-0.122559,-0.939453,0.369141
1480691052386082,-0.128906,-0.947266,0.380371
1480691052401626,-0.149414,-0.967773,0.394531
1480691052433714,-0.149902,-0.960938,0.401855
1480691052438723,-0.133789,-0.929199,0.399414
1480691052456771,-0.132813,-0.910645,0.40625
1480691052477826,-0.138672,-0.91748,0.396973
1480691052500391,-0.131836,-0.942871,0.417969
1480691052515928,-0.125488,-0.936523,0.391602
1480691052553529,-0.125488,-0.905762,0.397461
1480691052559043,-0.120605,-0.894531,0.395996
1480691052583109,-0.132324,-0.924805,0.39502
1480691052598147,-0.12207,-0.941406,0.38623
1480691052628728,-0.105469,-0.922852,0.388672
1480691052650287,-0.103027,-0.911133,0.405273
1480691052672845,-0.111328,-0.901367,0.410645
1480691052681869,-0.11377,-0.92041,0.401855
1480691052709944,-0.125977,-0.919922,0.403809
1480691052719971,-0.129883,-0.909668,0.413574
1480691052742530,-0.129395,-0.913086,0.393066
1480691052754563,-0.111328,-0.929688,0.402344
1480691052778125,-0.106445,-0.928711,0.397461
1480691052800186,-0.107422,-0.913086,0.391602
1480691052814724,-0.109375,-0.911621,0.386719
1480691052845305,-0.10791,-0.912109,0.383789
1480691052860846,-0.102051,-0.935059,0.394531
1480691052875383,-0.107422,-0.924805,0.395508
1480691052907470,-0.111816,-0.912598,0.398926
1480691052928025,-0.112305,-0.924316,0.410645
1480691052934541,-0.108887,-0.922363,0.392578
1480691052958104,-0.108887,-0.919434,0.396484
1480691052995203,-0.119141,-0.927734,0.402344
1480691052997709,-0.116211,-0.943359,0.398926
1480691053017764,-0.115234,-0.926758,0.398926
1480691053040323,-0.116211,-0.921875,0.410645
1480691053054861,-0.110352,-0.911621,0.396973
1480691053078424,-0.112305,-0.905273,0.39209
1480691053100986,-0.11084,-0.907715,0.391113
1480691053121538,-0.124512,-0.922852,0.394043
1480691053138083,-0.129883,-0.935547,0.396973
1480691053161145,-0.123047,-0.929199,0.400879
1480691053182702,-0.115234,-0.92334,0.407715
1480691053205764,-0.124512,-0.920898,0.401855
1480691053220303,-0.128906,-0.925781,0.396484
1480691053248879,-0.125488,-0.918457,0.396484
1480691053265422,-0.120117,-0.93457,0.39502
1480691053287981,-0.124512,-0.943359,0.395508
1480691053301519,-0.119141,-0.940918,0.391113
1480691053318062,-0.124023,-0.928711,0.398438
1480691053346136,-0.130859,-0.927246,0.393066
1480691053362178,-0.115234,-0.915527,0.390625
1480691053378221,-0.127441,-0.913574,0.39502
1480691053401282,-0.123535,-0.919922,0.398438
