timestamp,x,y,z
1480691001440592,17.375,10.8125,-0.4375
1480691001443098,21.9375,8.8125,-2.6875
1480691001463653,15.25,6.125,-3.4375
1480691001487717,13.25,2.6875,-2.625
1480691001501254,18.4375,1,-1.75
1480691001530832,19.4375,-0.5,-1.75
1480691001545872,12.125,-0.625,-2.1875
1480691001559911,2.5,0.5625,-2.125
1480691001583472,-1.6875,2.5,-0.4375
1480691001605548,3.125,4.375,0.4375
1480691001620588,5.9375,5.5625,0.375
1480691001644151,2.875,5.3125,-0.375
1480691001665708,1.0625,5.125,-1.1875
1480691001679746,4.3125,4.5,-1.75
1480691001703308,8.5,3.4375,-1.75
1480691001725367,10.625,3.1875,-2
1480691001739905,12.8125,2.1875,-2.75
1480691001777506,13.8125,1.9375,-3.3125
1480691001786028,12.9375,1.25,-3.1875
1480691001808087,8.375,-0.5625,-1.875
1480691001823127,3.875,-2.125,-0.75
1480691001846690,1.625,-2,-1.0625
1480691001868247,0.3125,-2.0625,-1.25
1480691001883788,-0.8125,-2.375,-1.0625
1480691001905346,0.75,-2.6875,-1.3125
1480691001926905,5.25,-1.75,-1.5
1480691001942948,8.625,-0.125,-2.25
1480691001965506,5.9375,-0.375,-1.75
1480691001986561,0.75,-1.6875,-0.9375
1480691002003607,-1.0625,-1.875,-1.4375
1480691002025666,1.625,-0.75,-1.875
1480691002055746,3.8125,0,-1.5625
1480691002063266,4.3125,0.1875,-0.9375
1480691002085825,3.6875,0.3125,-0.125
1480691002113901,2.125,0.0625,0.125
1480691002145986,0.1875,2,0.375
1480691002148492,-0.625,3.875,0.6875
1480691002166539,-0.0625,4.25,1.125
1480691002183084,-3.5,3.6875,1.125
1480691002205143,-4.6875,2.125,1.3125
1480691002227203,-1.3125,1.8125,1.125
1480691002243246,2.25,2.375,0.875
1480691002266305,2.375,1.8125,0.6875
1480691002290370,1.8125,0.5625,0.1875
1480691002302902,-0.4375,-0.5,-0.375
1480691002331478,-2,-0.6875,-0.4375
1480691002348022,-0.5625,-1.125,-1
1480691002370583,1.3125,-0.75,-1.4375
1480691002400663,0.875,-1.25,-1.1875
1480691002422220,0.0625,-1.9375,-1.0625
1480691002429238,0.9375,-1.5625,-1.5625
1480691002453303,1.5,-1.1875,-1.375
1480691002468844,1,-1.375,-1.125
1480691002482380,0.625,-1.625,-1.4375
1480691002506444,0.8125,-1.5625,-1.5
1480691002535521,1.8125,-1.625,-1.25
1480691002542539,1.75,-2.25,-1.625
1480691002566102,1.4375,-2.4375,-1.5
1480691002611222,1.8125,-2.5625,-1.375
1480691002613729,2.0625,-2.4375,-1.3125
1480691002627265,1.4375,-1.9375,-1.1875
1480691002648321,1.125,-1.875,-1.25
1480691002694444,0.6875,-2.25,-0.5625
1480691002700961,2.0625,-1,-1.0625
1480691002709484,3.1875,0.125,-3.25
1480691002730540,2.375,-2.0625,-2.6875
1480691002745580,-4.3125,-2.6875,-1.25
1480691002768139,-8.5,-1.0625,-0.625
1480691002789196,-6.0625,-0.75,-0.8125
1480691002806243,-0.625,-0.75,-0.8125
1480691002828300,2.5625,-0.0625,-0.1875
1480691002850359,3.0625,0.875,0
1480691002871415,0.75,1.25,0.1875
1480691002887977,-1.1875,0.4375,0.8125
1480691002909016,-3.125,-0.5,1.4375
1480691002925559,-3.0625,-0.75,1.375
1480691002955639,-0.8125,-1.125,1.25
1480691002970679,2,-1.1875,1.1875
1480691002986220,3.6875,-1.125,1.3125
1480691003008279,3.375,-1.25,1.375
1480691003036855,2.875,-0.6875,1.875
1480691003045879,2.25,-0.25,2.4375
1480691003067937,-1.875,0,1.6875
1480691003088992,-4.6875,-0.4375,1.5625
1480691003105537,-3.5625,-0.1875,1.375
1480691003128097,-0.125,0.8125,0.9375
1480691003149152,3,1.125,0.375
1480691003165697,1.375,0.5625,0.5
1480691003194273,-0.9375,-0.5625,0.5625
1480691003210316,0.25,-1.0625,0.4375
1480691003225356,1.1875,-1.1875,0.125
1480691003247915,-0.25,-2.375,-0.625
1480691003270977,-0.6875,-2.8125,-1.1875
1480691003287019,1,-3.25,-1.5
1480691003314092,3.75,-3.1875,-1.25
1480691003330636,4.375,-3.5,-0.9375
1480691003353195,3.3125,-3.5,-0.4375
1480691003368236,1.6875,-3.25,-0.25
1480691003391298,0.25,-2.0625,0.1875
1480691003404833,-0.25,-1.125,0.125
1480691003427898,0.0625,0.25,0.1875
1480691003450455,0.1875,0.875,0.0625
1480691003472014,-1.0625,1.625,0.25
1480691003488054,-1.75,1.4375,0.3125
1480691003510614,-1.75,1.6875,0.375
1480691003525153,-1.4375,1.5,0.1875
1480691003548214,-1.9375,1.5625,0.125
1480691003570774,-1.625,1.5625,0
1480691003584811,-1.625,1.3125,-0.125
1480691003613889,-1.0625,1.4375,-0.25
1480691003630433,-1.25,1.0625,-0.1875
1480691003651489,-1.0625,0.875,-0.0625
1480691003668033,-0.6875,0.25,0.0625
1480691003690593,-0.375,0.25,0.25
1480691003711649,0.6875,0.25,-0.0625
1480691003735713,0.875,0.375,0.0625
1480691003758274,0.1875,0,0
1480691003771811,-0.4375,-0.25,0.0625
1480691003787852,-0.9375,0.125,0
1480691003810411,-0.9375,0.375,0.0625
1480691003832470,-1.25,0.0625,0
1480691003848011,-1.0625,0.125,0.0625
1480691003871073,-0.125,0.375,0.125
1480691003891628,0.375,0.8125,-0.25
1480691003915691,-0.25,0.6875,-0.0625
1480691003946273,-1.0625,0.375,-0.0625
1480691003951787,-1.5625,-0.125,-0.125
1480691003969333,-2.4375,-0.375,-0.0625
1480691004005430,-2.0625,0.375,0.6875
1480691004011446,0.4375,1.0625,0.375
1480691004027990,-0.0625,2.125,0.5
1480691004050550,-1.5,2.25,0.75
1480691004071606,-1.625,2.375,1.0625
1480691004095670,-1.125,2.375,0.3125
1480691004110710,-2,1.8125,0.1875
1480691004131765,-1.5,0.875,0
1480691004148310,-0.4375,0.75,-0.25
1480691004171371,-0.4375,0.4375,-0.25
1480691004193430,-0.125,-0.0625,0.0625
1480691004207969,0.875,-0.25,-0.0625
1480691004230529,2,-0.375,-0.125
1480691004253088,1.5625,-0.0625,0.0625
1480691004274144,1.0625,0.5625,-0.1875
1480691004296706,0.375,0.75,-0.5625
1480691004313249,-0.0625,0.875,-0.5
1480691004327286,-0.0625,0.6875,-0.5
1480691004351349,0.8125,0.75,-0.5
1480691004372907,1.0625,0.3125,-0.3125
1480691004395968,1.0625,-0.125,0
1480691004410507,1.5,-0.4375,-0.3125
1480691004442091,1.5,-0.1875,-0.5
1480691004448107,-0.1875,-0.3125,-0.5625
1480691004471670,-1.375,-0.4375,-0.25
1480691004493232,-0.6875,-0.0625,-0.3125
1480691004507264,0.5625,0.5625,-0.0625
1480691004531830,0.5,0.5625,0.0625
1480691004553387,-0.1875,0.3125,0.1875
1480691004569430,-0.3125,0.1875,0
1480691004590486,-0.375,0.75,-0.25
1480691004613045,-0.6875,0.625,-0.1875
1480691004634102,-0.6875,0.375,0.0625
1480691004651648,-0.625,0.25,-0.1875
1480691004673206,-0.625,0.4375,-0.125
1480691004694763,-0.875,0.375,-0.1875
1480691004717824,0.0625,0.25,-0.1875
1480691004732864,0.3125,0,-0.0625
1480691004754923,0.1875,0.25,-0.125
1480691004776984,-0.5,-0.125,-0.125
1480691004793040,-0.1875,0.0625,0.0625
1480691004821601,0.375,0,0.0625
1480691004830625,-0.1875,-0.0625,0.0625
1480691004859203,-0.3125,0.0625,-0.3125
1480691004874241,0.3125,0.1875,0
1480691004890283,0.5,-0.3125,-0.125
1480691004912842,0.9375,-0.125,-0.1875
1480691004933899,0.75,-0.125,-0.3125
1480691004952448,0.5,0.125,-0.1875
1480691004973003,0.75,0.0625,-0.4375
1480691004994060,0.3125,-0.3125,-0.5625
1480691005010603,-1.625,-0.75,-1.125
1480691005047200,-3.875,0.25,-1.625
1480691005054720,-6.9375,-0.4375,-0.6875
1480691005071264,-6.125,-0.875,0.125
1480691005100341,-1.5,-0.4375,0
1480691005113877,3.5,0.5,0.1875
1480691005130422,5.3125,1.3125,0.3125
1480691005153984,3.1875,1.25,0.375
1480691005183063,0.9375,0.9375,0.4375
1480691005190584,-0.0625,0.75,0.4375
1480691005213643,0,0.5,0.5625
1480691005235702,0.3125,0.25,0.5
1480691005249739,1.375,0.0625,0.3125
1480691005273301,1.0625,-0.125,0.1875
1480691005303381,0.0625,-0.25,0.1875
1480691005311403,-0.75,-0.1875,0.0625
1480691005332960,-0.4375,-0.0625,0.1875
1480691005355521,-0.0625,-0.1875,0.25
1480691005378080,0.625,-0.4375,0.1875
1480691005393124,-0.375,-0.625,0.125
1480691005415680,-0.4375,-0.4375,0.125
1480691005429717,-0.0625,-0.1875,0
1480691005454784,0.6875,0,-0.1875
1480691005475843,0.5625,0.3125,-0.1875
1480691005499403,0,0,-0.125
1480691005513440,-0.5625,0.0625,-0.0625
1480691005536000,-0.375,0.0625,0.0625
1480691005550037,-0.8125,0,0.125
1480691005588139,-0.5625,0.0625,0.125
1480691005595659,0.125,0.25,0.125
1480691005609699,0.5,0.25,0.25
1480691005633259,0.125,0.25,0.375
1480691005656320,-0.3125,0,0.3125
1480691005676376,-0.9375,0.0625,0.0625
1480691005693921,-0.75,0.1875,0.1875
1480691005721994,-0.3125,0.125,0
1480691005736534,-0.1875,0.0625,0
1480691005754080,-0.125,0,-0.125
1480691005775639,0.0625,0.25,-0.3125
1480691005804714,-0.125,0,-0.0625
1480691005813237,-0.25,-0.0625,0
1480691005841813,0,0,0
1480691005858859,-0.125,0.25,0.25
1480691005872896,-0.25,-0.1875,0.5
1480691005902976,-0.6875,0.125,0.5
1480691005916512,-0.1875,-0.0625,0.25
1480691005933056,0,0.1875,0.1875
1480691005956118,0.0625,-0.1875,-0.1875
1480691005977674,0.125,-0.1875,-0.3125
1480691005992214,-0.3125,-0.4375,-0.6875
1480691006015776,0.375,-0.3125,-0.625
1480691006037835,0.875,-0.3125,-0.5625
1480691006052874,0.625,-0.4375,-0.25
1480691006084459,-0.375,-0.4375,0
1480691006105515,-0.9375,-0.0625,0
1480691006121056,-0.5,0.375,0.25
1480691006143616,0,0.5,0.4375
1480691006158155,-0.5625,0.3125,0.5625
1480691006173195,-0.75,0.3125,0.4375
1480691006195757,-0.4375,0.375,0.4375
1480691006217814,-0.125,-0.375,0.5
1480691006232352,-0.5625,-0.375,0.3125
1480691006258923,-0.625,-0.375,0.125
1480691006278474,-0.75,-0.375,0
1480691006292516,0.3125,-0.1875,-0.1875
1480691006315573,0.6875,-0.1875,-0.125
1480691006338133,0.25,-0.375,-0.125
1480691006362197,-0.5,-0.5,0.0625
1480691006375734,-0.4375,-0.5625,-0.1875
1480691006398293,0.25,-0.4375,-0.1875
1480691006412330,0.6875,-0.375,-0.125
1480691006435392,0.625,-0.625,-0.375
1480691006459460,0.3125,-0.75,-0.4375
1480691006479007,0.5625,-0.8125,-0.5
1480691006495552,0.8125,-0.75,-0.625
1480691006518112,0.8125,-0.8125,-0.8125
1480691006539168,0.9375,-0.875,-0.8125
1480691006555711,1,-1.0625,-0.625
1480691006578273,0.8125,-1.25,-0.5625
1480691006606347,0.875,-0.9375,-0.5625
1480691006615371,0.8125,-0.6875,-0.625
1480691006637930,0.8125,-0.5,-0.4375
1480691006658988,0.6875,-0.6875,-0.4375
1480691006676036,0.4375,-0.625,-0.25
1480691006700095,0.1875,-0.625,-0.3125
1480691006719146,0.4375,-0.3125,-0.3125
1480691006736692,0.5,-0.4375,-0.3125
1480691006758250,1.1875,-0.4375,-0.4375
1480691006779306,1.25,-0.625,-0.5
1480691006795351,0.5,-0.5625,-0.6875
1480691006817909,-0.125,-0.5,-0.6875
1480691006840972,0.4375,-0.625,-0.625
1480691006855509,1.3125,-0.625,-0.6875
1480691006884587,0.9375,-0.5625,-0.75
1480691006902133,0.25,-0.6875,-0.625
1480691006916672,-0.0625,-0.75,-0.75
1480691006938230,0.6875,-0.25,-0.875
1480691006959295,0.8125,-0.5,-0.6875
1480691006982847,0.25,-0.5625,-0.5625
1480691006998890,0.1875,-0.75,-0.75
1480691007018943,0.4375,-0.75,-1.0625
1480691007043509,0.625,-0.4375,-1.4375
1480691007058049,0.625,-0.5625,-1.25
1480691007080607,0.3125,-0.75,-0.9375
1480691007095647,-0.1875,-0.875,-0.6875
1480691007134250,0,-0.375,-0.25
1480691007140767,0.125,0.1875,0.25
1480691007161823,-0.1875,0.625,0.5
1480691007185887,-0.4375,0.5625,0.6875
1480691007200426,-0.625,0.8125,0.75
1480691007214965,-0.875,1.25,0.875
1480691007238026,-0.875,1.0625,0.875
1480691007268106,-1.25,0.6875,0.75
1480691007275125,-0.875,0.3125,0.625
1480691007298186,-0.125,0.4375,0.5625
1480691007320245,0.0625,0.375,0.4375
1480691007334784,-0.5,0.1875,0.6875
1480691007358851,-1.125,0,0.75
1480691007380404,-1.125,0.3125,0.8125
1480691007402964,-1.0625,0.625,1
1480691007418004,-1.3125,0.5,1.1875
1480691007440564,-1.375,0.375,1
1480691007455103,-1.4375,0.5,0.75
1480691007479167,-1.5625,0.6875,0.4375
1480691007507743,-3,1.125,0.3125
1480691007523789,-2.875,0.9375,-0.0625
1480691007538324,-2.0625,0.5625,0.125
1480691007561388,-1.125,0.1875,0.125
1480691007588959,-0.75,-0.0625,0.3125
1480691007597983,-0.5625,-0.3125,0.375
1480691007621044,-0.5625,-0.3125,0.5
1480691007641600,-1.125,0.125,0.6875
1480691007667171,-0.4375,0.3125,0.875
1480691007681204,-0.5,0.4375,1.0625
1480691007701759,-1.3125,0.1875,1.25
1480691007717802,-1.8125,0.5625,1.25
1480691007746378,-1.375,0.75,0.9375
1480691007761418,-1.125,0.6875,0.9375
1480691007786485,-0.875,0.5625,0.875
1480691007800522,-0.875,0.4375,0.8125
1480691007823082,-1.0625,0.1875,0.8125
1480691007838122,-1.0625,0.5,0.8125
1480691007875221,-0.8125,0.5625,0.75
1480691007899287,-1.0625,0.5,0.875
1480691007904298,-1,0.75,0.8125
1480691007920842,-0.25,0.875,0.75
1480691007941898,-0.6875,0.75,0.75
1480691007965962,-1.3125,0.5,0.6875
1480691007988020,-1.3125,0.75,0.375
1480691008003562,-0.8125,0.9375,0.25
1480691008025621,-0.625,0.625,0.25
1480691008040661,-0.5,0.5,0.3125
1480691008079264,-0.5625,0.3125,0.1875
1480691008084276,-1,0.375,0.4375
1480691008107839,-0.75,0.1875,0.375
1480691008122880,-0.5625,0.1875,0.3125
1480691008146442,-0.125,0.125,0.375
1480691008168501,-0.25,0.3125,0.375
1480691008193065,-0.375,0.1875,0.0625
1480691008197577,-0.375,0.125,0.125
1480691008220639,-0.5,0.25,-0.125
1480691008243200,-0.5,0.25,-0.0625
1480691008272278,-0.625,0.125,-0.125
1480691008290328,0,-0.125,-0.125
1480691008302858,0.4375,-0.0625,0.0625
1480691008317397,0.25,-0.125,0.0625
1480691008340960,-0.125,-0.125,0.3125
1480691008371540,-0.0625,-0.25,0.25
1480691008379064,0.25,-0.0625,0
1480691008401620,0.3125,0.1875,-0.1875
1480691008429195,-0.1875,0.1875,-0.1875
1480691008444237,-0.1875,0.125,-0.3125
1480691008460276,-0.0625,0.25,-0.375
1480691008488853,0,-0.0625,-0.1875
1480691008503892,-0.125,-0.125,-0.1875
1480691008527956,-0.25,-0.125,-0.1875
1480691008542996,0.125,0.125,-0.125
1480691008566061,0.125,0.0625,-0.0625
1480691008581098,-0.375,0,0.125
1480691008603156,-0.375,0,0.1875
1480691008624213,-0.25,0.0625,0.0625
1480691008640757,0.125,0.1875,0
1480691008662817,0.0625,0.0625,0
1480691008684372,-0.3125,0.0625,0
1480691008700916,-0.25,-0.0625,-0.0625
1480691008723476,0.125,-0.0625,-0.0625
1480691008744033,0.125,0,-0.0625
1480691008766591,-0.125,-0.125,-0.25
1480691008789151,-0.0625,0,-0.25
1480691008804191,-0.0625,-0.125,-0.1875
1480691008826753,0.1875,0,-0.125
1480691008843295,-0.0625,-0.125,-0.0625
1480691008871369,-0.25,-0.25,0.0625
1480691008893930,-0.3125,-0.0625,0.0625
1480691008902953,-0.25,-0.125,0.125
1480691008926015,-0.5,0.0625,0.25
1480691008940554,-0.4375,0,0.25
1480691008963113,-0.0625,0,0.25
1480691008985674,-0.3125,0.125,0.25
1480691009000713,-0.3125,0.1875,0.125
1480691009023775,-0.4375,0.3125,0.1875
1480691009045332,-0.25,0.125,0.25
1480691009060874,-0.375,0.125,0.3125
1480691009090954,-0.3125,0.0625,0.125
1480691009105492,0.1875,0.0625,0.3125
1480691009120030,-0.25,-0.0625,0.375
1480691009143594,-0.75,-0.3125,0.4375
1480691009173673,-0.5,-0.125,0.5
1480691009186709,0.125,-0.0625,0.1875
1480691009203754,-0.1875,0,0.125
1480691009225813,-0.625,0.0625,0
1480691009240853,-0.25,0.25,0
1480691009270430,0.125,0.3125,-0.125
1480691009285472,-0.125,-0.25,0.1875
1480691009301514,-0.75,-0.4375,0.125
1480691009330590,-0.625,-0.1875,0
1480691009345630,0,0,0.0625
1480691009360171,-0.1875,0,0.1875
1480691009383230,-0.5625,-0.125,0.4375
1480691009405791,-0.4375,0.0625,0.3125
1480691009435369,-0.25,0.3125,0.125
1480691009444397,-0.4375,0.25,0.25
1480691009465449,-0.625,-0.0625,0.3125
1480691009494025,-0.25,-0.0625,0.0625
1480691009504052,0.125,0.125,0.0625
1480691009547668,-0.125,0.0625,0
1480691009554686,-0.5625,-0.125,-0.125
1480691009576745,-0.4375,-0.0625,-0.125
1480691009585770,0,0.125,-0.125
1480691009606825,0.1875,0,-0.0625
1480691009622868,0,-0.125,-0.125
1480691009645929,-0.125,-0.1875,-0.125
1480691009666483,0.1875,0,-0.125
1480691009683028,-0.0625,0,-0.0625
1480691009705588,-0.0625,-0.25,0.1875
1480691009728150,0.0625,-0.375,0.3125
1480691009743188,0.25,-0.1875,0.25
1480691009773268,0.4375,-0.4375,0.1875
1480691009786302,0.3125,-0.1875,0
1480691009817886,0,-0.0625,-0.375
1480691009825407,0,-0.0625,-0.25
1480691009854483,0.375,-0.125,-0.3125
1480691009864009,0.75,0.0625,-0.4375
1480691009887070,-0.0625,0,-0.375
1480691009908633,-0.6875,0.1875,-0.3125
1480691009923166,-0.5,0.125,-0.1875
1480691009946227,0.125,0.3125,-0.1875
1480691009968287,0.25,0.4375,-0.125
1480691010005887,-0.0625,0.375,0
1480691010011400,-0.5,0.5,-0.1875
1480691010027946,-0.5625,0.4375,-0.0625
1480691010042484,-0.25,0.375,-0.0625
1480691010065545,0,0.375,-0.125
1480691010088606,-0.3125,0.125,-0.125
1480691010102142,-0.625,-0.125,-0.0625
1480691010125706,-0.5625,0.125,-0.1875
1480691010147763,-0.375,0.125,0
1480691010163305,-0.3125,0,0.125
1480691010185865,-0.1875,-0.1875,0.125
1480691010208427,-0.1875,-0.125,0.25
1480691010222462,-0.1875,-0.1875,0.3125
1480691010245523,-0.625,-0.0625,0.3125
1480691010269086,-0.875,-0.25,0.25
1480691010289141,-0.75,-0.3125,0.3125
1480691010305684,-0.25,-0.375,0.125
1480691010328243,-0.0625,-0.3125,0.0625
1480691010342281,-0.6875,-0.3125,0.1875
1480691010381886,-1.25,-0.0625,0.1875
1480691010387902,-1.125,0,0.375
1480691010408958,-0.75,0,0.5
1480691010425504,-0.6875,0.25,0.75
1480691010448563,-0.875,0.0625,0.8125
1480691010469119,-1.1875,0.125,0.9375
1480691010485662,-1.0625,-0.0625,0.6875
1480691010514238,-0.9375,0.0625,0.625
1480691010529277,-0.5,0.0625,0.4375
1480691010545321,0.25,-0.3125,0.4375
1480691010573897,0.6875,-0.1875,0.1875
1480691010591444,0.3125,-0.3125,0.0625
1480691010607487,-0.3125,-0.3125,-0.125
1480691010628041,-0.125,-0.3125,-0.4375
1480691010656617,0.5,-0.0625,-0.4375
1480691010666142,0.75,0,-0.625
1480691010688201,0.375,-0.0625,-0.6875
1480691010709256,0.25,0,-0.5625
1480691010725303,0.0625,-0.125,-0.3125
1480691010747860,-0.125,-0.25,-0.25
1480691010776436,-0.1875,-0.3125,-0.125
1480691010785960,0.0625,-0.125,-0.0625
1480691010808021,0.5,0.0625,-0.3125
1480691010845118,0.25,0.3125,-0.1875
1480691010854643,-0.125,0.0625,-0.3125
1480691010869683,-0.125,0.0625,-0.25
1480691010890739,0.0625,-0.1875,-0.375
1480691010906785,0.0625,-0.375,-0.1875
1480691010927838,0.125,-0.4375,-0.375
1480691010951902,0.25,-0.3125,-0.125
1480691010965438,0.3125,-0.3125,-0.0625
1480691010987999,0.1875,-0.125,0.0625
1480691011010558,-0.375,0,0
1480691011025099,-0.375,0.125,-0.0625
1480691011049662,-0.1875,0.25,-0.1875
1480691011076734,-0.0625,0.125,-0.0625
1480691011084756,0.0625,-0.125,-0.125
1480691011115336,0,-0.1875,-0.125
1480691011132883,0,-0.25,-0.1875
1480691011151434,-0.0625,-0.3125,-0.3125
1480691011169480,-0.0625,-0.5625,-0.3125
1480691011199059,-0.125,-0.6875,-0.125
1480691011206579,-0.25,-0.625,-0.0625
1480691011232651,-0.4375,-0.3125,0.0625
1480691011251699,-0.9375,0,0.1875
1480691011264734,-0.6875,0.1875,0.3125
1480691011294313,-0.8125,0.3125,0.375
1480691011310355,-0.8125,0.3125,0.5
1480691011331411,-0.75,0.375,0.5625
1480691011348958,-0.625,0.3125,0.5
1480691011370515,-0.875,0.125,0.5
1480691011393577,-0.875,-0.125,0.3125
1480691011409118,-0.25,0.0625,-0.0625
1480691011431177,0.375,-0.0625,-0.25
1480691011451731,0.4375,-0.1875,-0.375
1480691011467774,0.5,-0.4375,-0.4375
1480691011491840,0.25,-0.5625,-0.3125
1480691011518910,0.25,-0.4375,-0.3125
1480691011543976,0.25,-0.3125,-0.125
1480691011550996,-0.125,-0.1875,-0.0625
1480691011579069,0,-0.1875,0.0625
1480691011595613,0.125,0.1875,0.125
1480691011610653,-0.25,0.4375,0
1480691011633214,-0.8125,0.375,0
1480691011648254,-0.75,0.3125,-0.1875
1480691011676328,0,0.3125,0
1480691011691871,0.1875,0.1875,0
1480691011707914,0.125,-0.1875,0.125
1480691011730473,-0.4375,-0.125,0
1480691011759050,0.0625,0.0625,-0.125
1480691011769581,-0.1875,0.0625,0.125
1480691011798154,-0.6875,-0.1875,-0.0625
1480691011813192,-0.0625,-0.125,-0.375
1480691011828232,0.625,0.125,-0.75
1480691011856810,-0.375,0.125,-0.6875
1480691011874355,-0.4375,-0.1875,-1
1480691011888392,0.125,-0.1875,-1
1480691011910451,0.9375,-0.3125,-0.9375
1480691011933012,0.9375,-0.4375,-1
1480691011948058,0.0625,-0.5625,-1
1480691011970612,-0.4375,-0.375,-0.75
1480691011993171,0.125,-0.375,-0.6875
1480691012007711,0.8125,-0.375,-0.625
1480691012031272,0.5625,-0.1875,-0.375
1480691012052829,0,-0.375,-0.125
1480691012058346,-0.75,-0.3125,0.25
1480691012076392,-0.6875,-0.375,0.1875
1480691012103464,-0.3125,-0.125,0.375
1480691012131037,-0.125,0.125,0.25
1480691012136552,-0.5,0.1875,0.1875
1480691012156104,-0.4375,0.1875,0.1875
1480691012178665,-0.125,0.1875,0.0625
1480691012194706,-0.25,0,0
1480691012238824,-0.3125,0.1875,-0.25
1480691012249352,-0.625,0.125,-0.4375
1480691012254867,-0.25,0.1875,-0.3125
1480691012275923,0.125,0.125,-0.375
1480691012298483,0.0625,0,-0.375
1480691012323051,0.0625,-0.1875,-0.4375
1480691012336082,0.125,-0.3125,-0.3125
1480691012358646,0.375,-0.1875,-0.5625
1480691012383709,0.3125,-0.625,-0.5625
1480691012403762,0,-0.5625,-0.8125
1480691012428829,-0.0625,-0.3125,-1.0625
1480691012436350,0.3125,-0.1875,-1.125
1480691012455902,0.625,-0.5625,-1
1480691012485981,0.75,-0.5625,-0.875
1480691012505533,0.875,-0.8125,-0.75
1480691012516061,0.375,-0.875,-0.375
1480691012546141,0,-0.5625,-0.375
1480691012561183,0,-0.5625,-0.125
1480691012575719,0.25,-0.1875,0
1480691012601288,0.1875,-0.125,0.1875
1480691012635379,-0.1875,-0.1875,0.4375
1480691012639895,-0.0625,0.0625,0.5625
1480691012659945,-0.125,0.3125,0.375
1480691012704061,-0.25,0.125,0.375
1480691012715091,-0.5,0.3125,0.125
1480691012719602,-0.4375,0.4375,0
1480691012741164,-0.3125,0.4375,0.0625
1480691012755698,-0.3125,0.5,-0.125
1480691012781267,-0.625,0.3125,-0.0625
1480691012800818,-0.625,0.125,0.0625
1480691012815860,-0.25,0.3125,-0.0625
1480691012838920,-0.4375,0.375,0
1480691012878024,-0.375,0.0625,0.0625
1480691012880531,0,0,0.125
1480691012906099,-0.125,-0.25,0.1875
1480691012937682,-0.375,-0.1875,0.25
1480691012940189,-0.375,-0.25,0.375
1480691012965757,-0.5625,-0.375,0.25
1480691012980797,0,-0.375,0.125
1480691012995838,0,-0.25,0.0625
1480691013018398,0.125,-0.1875,0.0625
1480691013040961,-0.1875,-0.375,0.0625
1480691013059006,-0.1875,-0.3125,0
1480691013078557,-0.125,-0.25,0.0625
1480691013101117,-0.0625,-0.3125,0
1480691013116157,0,-0.25,0.0625
1480691013162781,0.0625,0,0.125
1480691013167292,-0.125,0,0.3125
1480691013183335,-0.5625,-0.125,0.5625
1480691013199880,-0.8125,0.125,0.5625
1480691013230461,-0.75,0.1875,0.3125
1480691013235975,-0.75,0.5625,0.3125
1480691013258537,-0.375,0.4375,0.25
1480691013281102,-0.25,0.375,0.1875
1480691013297138,-0.1875,0.1875,0.25
1480691013318696,-0.5625,0.0625,0.3125
1480691013343762,-0.875,0,0.25
1480691013357300,-0.4375,0.0625,0.1875
1480691013378354,-0.375,0,0.3125
1480691013400914,-0.3125,-0.0625,0.3125
1480691013419463,-0.25,0.0625,0.3125
1480691013438514,-0.375,-0.0625,0.125
1480691013464083,-0.25,-0.125,0.1875
1480691013486142,-0.125,-0.25,0.25
1480691013498674,0.125,-0.3125,0.1875
1480691013521234,0.375,-0.375,0.0625
1480691013537277,0.25,-0.25,0
1480691013558337,0.125,-0.125,-0.0625
1480691013580894,-0.3125,0,-0.125
1480691013612476,-0.4375,0,-0.0625
1480691013626013,-0.0625,-0.0625,0
1480691013641053,0.125,-0.3125,0.125
1480691013657598,-0.125,-0.1875,0.0625
1480691013678653,-0.1875,0,0
1480691013700712,-0.125,0.125,0.125
1480691013718759,-0.375,0,0.1875
1480691013738312,-0.25,0.125,0.0625
1480691013760872,-0.25,0.125,0.125
1480691013778920,0,0.25,0
1480691013798472,0.125,0.125,0
1480691013821031,-0.0625,0.125,-0.0625
1480691013841091,0,0.125,-0.125
1480691013865650,-0.0625,0.0625,-0.125
1480691013888210,0,0.0625,-0.1875
1480691013906259,0.25,-0.0625,-0.1875
1480691013918290,0.3125,-0.0625,-0.1875
1480691013940854,0.4375,-0.25,-0.0625
1480691013959399,0.3125,-0.25,0.0625
1480691013994493,0,-0.25,0
1480691014018056,-0.0625,-0.375,0
1480691014023570,-0.0625,-0.3125,-0.125
1480691014038610,0.5,-0.125,-0.5
1480691014061170,0.5625,-0.1875,-0.3125
1480691014083228,0.1875,-0.125,-0.375
1480691014098268,0.125,0.125,-0.5
1480691014120829,0,-0.125,-0.4375
1480691014152412,-0.3125,-0.3125,-0.1875
1480691014165949,-0.0625,-0.125,-0.0625
1480691014180989,0.25,0,-0.125
1480691014203548,0.0625,0.125,0.125
1480691014218588,-0.5625,0,0.25
1480691014248669,-0.8125,0.125,0.375
1480691014263207,-0.375,0.25,0.1875
1480691014295292,0,0.3125,0.1875
1480691014300809,-0.0625,0.0625,0.125
1480691014334397,0.125,-0.1875,0
1480691014340413,0.1875,0,-0.0625
1480691014360967,0,-0.0625,-0.1875
1480691014383527,-0.1875,-0.125,-0.1875
1480691014400072,-0.25,-0.125,-0.25
1480691014421127,0.0625,-0.0625,-0.3125
1480691014443687,0.5625,0,-0.375
1480691014461234,0.25,-0.1875,-0.3125
1480691014480785,-0.0625,-0.1875,-0.375
1480691014503346,0.125,-0.25,-0.3125
1480691014536935,0.4375,-0.3125,-0.3125
1480691014548466,0.25,-0.25,-0.25
1480691014565010,-0.0625,-0.375,-0.1875
1480691014580052,-0.125,-0.25,-0.3125
1480691014601105,0.125,0,-0.25
1480691014623667,0.4375,0.125,-0.25
1480691014641215,0.3125,0.125,-0.25
1480691014662269,0.1875,0.125,-0.3125
1480691014683325,-0.125,0,-0.125
1480691014708893,0,0.0625,-0.3125
1480691014720925,0.1875,0,-0.25
1480691014743484,0.0625,0,-0.3125
1480691014761533,0.375,0,-0.25
1480691014784092,0.3125,-0.0625,-0.0625
1480691014810663,-0.0625,-0.1875,0
1480691014821191,-0.0625,-0.1875,-0.0625
1480691014840744,-0.0625,-0.3125,-0.0625
1480691014863303,0.375,-0.0625,-0.375
1480691014881351,0.3125,0,-0.375
1480691014900903,0.3125,0.0625,-0.3125
1480691014926472,0.25,0.0625,-0.4375
1480691014941511,0.3125,-0.125,-0.4375
1480691014961063,-0.125,-0.375,-0.25
1480691014986129,-0.4375,-0.1875,-0.25
1480691015001169,0.5,-0.1875,-0.1875
1480691015020721,0.3125,-0.0625,0
1480691015046290,-0.1875,-0.125,-0.125
1480691015061330,-0.3125,0.0625,0
1480691015089906,0.0625,0.125,0
1480691015103441,0.25,0,0
1480691015134524,-0.25,-0.1875,0
1480691015141049,-0.25,-0.1875,-0.125
1480691015163601,0.25,0,-0.3125
1480691015188668,0.5625,-0.125,-0.3125
1480691015201202,0.25,-0.25,-0.3125
1480691015223261,-0.1875,-0.125,-0.375
1480691015241312,0.125,-0.125,-0.4375
1480691015263868,0.375,0,-0.25
1480691015300465,0.1875,0,-0.1875
1480691015302972,-0.1875,0,-0.25
1480691015323027,0,0.125,-0.25
1480691015343580,0,0.1875,-0.125
1480691015368647,-0.375,0.3125,-0.0625
1480691015382182,-0.75,0.4375,0.125
1480691015410758,-0.9375,0.75,0.3125
1480691015421287,-1.1875,0.9375,0.625
1480691015448359,-1.3125,1.0625,0.6875
1480691015463399,-1.5625,1.125,0.8125
1480691015488967,-1.5625,1.25,0.8125
1480691015502503,-1.4375,1.0625,0.8125
1480691015523559,-1.4375,0.875,0.6875
1480691015546118,-1.1875,0.5,0.625
1480691015569682,-0.9375,0.3125,0.5625
1480691015590738,-0.9375,0,0.5625
1480691015605777,-0.625,-0.1875,0.5
1480691015636360,-0.5,-0.375,0.5625
1480691015652402,-0.5,-0.8125,0.4375
1480691015665938,-0.125,-1,0.375
1480691015683984,0.125,-0.8125,0.125
1480691015703538,0.0625,-0.75,0
1480691015726098,-0.3125,-0.8125,-0.0625
1480691015752166,0,-0.8125,-0.125
1480691015763698,0.375,-0.625,-0.1875
1480691015785756,0.1875,-0.75,0
1480691015803804,-0.3125,-0.75,0
1480691015830877,-0.4375,-0.5,-0.125
1480691015853436,0.125,-0.25,0
1480691015863966,0.25,-0.0625,0.0625
1480691015886524,0.0625,0,0.0625
1480691015906577,-0.4375,0.1875,0.1875
1480691015923625,-0.375,0.375,0.1875
1480691015943175,-0.375,0.3125,0.1875
1480691015965734,-0.375,0.3125,0.125
1480691015983782,-0.0625,0.5,-0.0625
1480691016003334,0.5,0.5625,-0.0625
1480691016025896,0.25,0.375,-0.1875
1480691016051463,-0.1875,0.25,-0.375
1480691016071015,0.1875,0.1875,-0.75
1480691016110119,0.5625,0,-0.75
1480691016112625,0.8125,-0.125,-0.8125
1480691016130673,0.9375,-0.25,-0.875
1480691016145713,1.125,-0.4375,-1
1480691016163761,1.125,-0.625,-1
1480691016190842,1.0625,-0.6875,-1
1480691016207379,1.25,-0.8125,-0.9375
1480691016229937,1,-0.75,-0.9375
1480691016246481,0.6875,-0.6875,-0.8125
1480691016273557,0.6875,-0.375,-0.875
1480691016291607,1,-0.5,-0.6875
1480691016305137,1.0625,-0.3125,-0.75
1480691016328700,1.0625,-0.125,-0.875
1480691016349755,0.5625,0,-0.875
1480691016372316,0.3125,0,-0.8125
1480691016385852,0.125,-0.0625,-0.625
1480691016411420,0.375,0,-0.625
1480691016424961,0.6875,0.1875,-0.4375
1480691016446012,0.4375,0.0625,-0.25
1480691016472585,-0.125,-0.0625,-0.125
1480691016485116,-0.25,-0.0625,-0.1875
1480691016505670,0,-0.0625,-0.125
1480691016525225,0.1875,0.1875,-0.375
1480691016553798,0.0625,0.125,-0.3125
1480691016568839,0,0,-0.4375
1480691016583879,0.25,0,-0.4375
1480691016606439,0.3125,-0.1875,-0.3125
1480691016628999,-0.25,-0.3125,-0.0625
1480691016648551,-0.375,-0.3125,-0.25
1480691016674121,0.3125,0.0625,-0.25
1480691016702694,0.3125,0.4375,-0.0625
1480691016707212,0.4375,2.5625,0
1480691016726258,1,2.8125,0.0625
1480691016753329,1.4375,2.75,-0.375
1480691016763857,0.75,0.9375,-0.8125
1480691016786417,-1.4375,1.3125,-0.5
1480691016805970,2.875,1.6875,-0.9375
1480691016824017,2.0625,2.375,-0.6875
1480691016846577,-0.5625,2.25,0.25
1480691016866129,-0.0625,3.9375,0.3125
1480691016892200,-3.375,3,2.5
1480691016906236,-1.5,2.4375,2.4375
1480691016928795,-1.625,2.875,0.875
1480691016943835,-2,3.0625,-0.25
1480691016967399,0.3125,2.875,0
1480691016985948,1.375,1.625,1
1480691017008507,2.4375,0.4375,1.5625
1480691017031068,-1.25,1.375,1.75
1480691017046108,-5.1875,0.9375,1.5
1480691017068670,-5.875,1.6875,0.9375
1480691017086215,-1.875,2.1875,1
1480691017105767,-1,2.0625,0.6875
1480691017128326,-0.625,1.75,0
1480691017161414,-0.75,1.125,-0.125
1480691017167431,-1.3125,0.6875,-0.3125
1480691017188486,-1.0625,0.3125,-0.0625
1480691017206536,0.6875,0.375,0
1480691017233606,1.25,0.5,-0.4375
1480691017248648,0.3125,0.4375,-0.4375
1480691017266193,-0.8125,0.4375,-0.25
1480691017288251,-1.9375,0,-0.375
1480691017311313,-1.0625,-0.5625,-0.75
1480691017331868,0.4375,-1,-0.6875
1480691017354929,2.4375,-1.3125,0.1875
1480691017368464,3,-0.4375,-0.125
1480691017394033,-0.5,-0.875,-0.5
1480691017407572,-2.9375,-1.125,-0.8125
1480691017431131,-0.8125,-1.25,-0.5625
1480691017452187,1.875,-1.125,-0.75
1480691017468732,1.25,-1.125,-0.6875
1480691017489287,-0.25,-1.25,-0.75
1480691017506331,-0.5,-1.4375,-0.625
1480691017528892,0.1875,-0.6875,-0.625
1480691017548443,1.0625,-0.8125,-0.8125
1480691017566491,1.25,-0.8125,-0.4375
1480691017602085,0.9375,-0.375,-0.375
1480691017616124,0.5625,-0.4375,-0.625
1480691017656732,0.1875,-0.8125,-0.75
1480691017661744,-0.0625,-1.1875,-0.5625
1480691017669766,0,-0.8125,-0.0625
1480691017698343,0.0625,-0.25,-0.1875
1480691017714886,0.9375,0.125,-0.6875
1480691017728423,0.3125,0.4375,-0.6875
1480691017746971,0.5625,0.4375,-0.375
1480691017770032,-0.375,0.125,-0.5
1480691017788582,-0.25,-0.5625,-0.4375
1480691017812144,0.5,-0.5625,-0.1875
1480691017828688,0.6875,-0.8125,-0.375
1480691017855761,0.4375,-0.6875,-0.375
1480691017873812,0.25,-0.5625,-0.375
1480691017904390,0.3125,-0.5,-0.625
1480691017908400,0.625,-0.6875,-0.8125
1480691017926449,0.6875,-0.8125,-0.375
1480691017957032,1.375,-0.75,0.1875
1480691017976080,0.6875,0.1875,0.75
1480691017986107,0.5625,0.5625,-0.0625
1480691018008668,0.3125,0.8125,0.1875
1480691018035739,2.0625,-0.25,1
1480691018061307,2.5,-0.9375,1.6875
1480691018076347,1.5625,-0.6875,1.6875
1480691018090886,-2.0625,-0.125,1.1875
1480691018106427,-2.8125,-0.1875,0.1875
1480691018158066,-0.5,-0.25,-0.3125
1480691018160572,2.25,0.3125,-0.0625
1480691018179622,2.875,0.5625,0.0625
1480691018189649,0.5625,0.375,0.9375
1480691018232763,-3.0625,1.5,1.125
1480691018235270,-1.3125,2.3125,0.3125
1480691018264347,0.5,1.875,0.3125
1480691018269862,-1,1.1875,0.0625
1480691018286406,-1.375,1.0625,-0.9375
1480691018330522,-1.5625,0.9375,-1.0625
1480691018336037,-0.5,0.25,-0.9375
1480691018353585,1.1875,-0.625,-1.0625
1480691018373640,0.1875,-1.125,-0.625
1480691018389681,0.75,-1.3125,-0.375
1480691018407233,1.125,0.8125,0
1480691018434800,0.6875,2.1875,0.125
1480691018458869,-1.125,0.375,-0.1875
1480691018472901,0.6875,0.625,-0.0625
1480691018494960,0.5,1.5,-0.25
1480691018511504,-1.375,1.4375,-1.75
1480691018532560,-1.8125,0.25,-1.5625
1480691018549606,2.1875,-0.125,-1.375
1480691018575675,3.625,0.125,-1.3125
1480691018590716,2.4375,-0.9375,-1.4375
1480691018608763,0.875,-1.3125,-0.75
1480691018632326,0.125,0.125,0.125
1480691018650874,0.5,1.75,-0.125
1480691018669424,-0.6875,1.0625,0.1875
1480691018704517,0.1875,1.0625,0.6875
1480691018718555,0.6875,1.25,0.75
1480691018728582,-0.5,1,-0.25
1480691018766182,-1.5,-0.1875,-0.625
1480691018771696,-1.5,-2.8125,-0.8125
1480691018795760,-4.875,-11.3125,-0.3125
1480691018811302,-2.375,-10.5625,1.0625
1480691018838374,-7.5,-2.3125,3.8125
1480691018849904,-1.1875,3.75,1.6875
1480691018870459,-7.8125,5.3125,-2.3125
1480691018908563,-0.6875,2.9375,-1.4375
1480691018911067,13.0625,3.75,-0.5625
1480691018930619,10.625,2.0625,-2.5625
1480691018951674,5.3125,1.25,-1.375
1480691018968721,-0.5,0.0625,-0.5625
1480691018991785,-1.75,-0.375,-0.6875
1480691019012335,1.5,-0.125,-1.875
1480691019028880,2.3125,0.25,-1.4375
1480691019050437,1.75,-0.625,-1.3125
1480691019071493,2.125,-1.75,-1.0625
1480691019088539,1.375,-1.6875,-0.1875
1480691019111600,1.125,-1.8125,0.5
1480691019131653,1.6875,-2.0625,-0.1875
1480691019148197,1,-2.25,-0.25
1480691019170757,0.5625,-3,-0.1875
1480691019208859,0,-3.125,0.3125
1480691019215376,1.875,-2.6875,0.1875
1480691019236432,1.375,-0.4375,0
1480691019258994,2.1875,1.5625,-0.25
1480691019268017,0.875,1.9375,-0.125
1480691019297594,1.4375,0.625,0
1480691019311632,0,0.625,0.25
1480691019329178,-1.75,1.1875,-0.0625
1480691019351237,-1.4375,0.6875,-0.625
1480691019372794,-2.3125,1.4375,-0.3125
1480691019387835,-1.3125,0.75,-0.3125
1480691019411397,0.8125,0.875,-0.5
1480691019432955,1.125,0.25,-0.375
1480691019447995,0.375,-0.375,-0.0625
1480691019470555,-0.75,0.25,0.375
1480691019493115,-1.75,0.3125,0.5625
1480691019507655,-2.3125,0.9375,0.125
1480691019539738,-2.625,0.875,0.125
1480691019554278,-0.8125,0.6875,0.6875
1480691019567312,1.3125,0.5625,1.25
1480691019597392,0.5,1.5625,0.875
1480691019612933,-1.9375,1.25,0
1480691019627471,-1.1875,1,0.25
1480691019656550,0,0.75,0
1480691019673094,-0.125,0.625,-0.3125
1480691019688133,-0.25,0,-0.4375
1480691019710693,-0.375,-0.9375,-0.625
1480691019740276,-0.25,-1.3125,-0.625
1480691019755312,0.375,-1.625,-0.625
1480691019770853,0.1875,-1.9375,-0.625
1480691019793413,-0.6875,-1.625,-0.8125
1480691019807451,-4,-2.4375,-0.6875
1480691019830512,-6.25,-3.4375,-0.1875
1480691019854074,-5.1875,-1.0625,0.625
1480691019875130,-5.6875,0.8125,1.4375
1480691019899696,-5.5625,1.8125,0.625
1480691019920752,-4,2.6875,0.25
1480691019935792,1.1875,2.3125,1.1875
1480691019965370,7.0625,1.5625,0.625
1480691019972890,4.3125,2,-0.1875
1480691019993946,2.4375,0.8125,0.3125
1480691020018512,3.375,0.4375,0.5
1480691020040096,2.1875,1.1875,0.3125
1480691020054107,0.0625,0.1875,-0.4375
1480691020070651,-1.375,-0.1875,-0.4375
1480691020093713,0.4375,-1.1875,-1.1875
1480691020121787,1.5625,-0.625,-0.9375
1480691020131813,2.4375,-0.75,-1.25
1480691020152869,2.375,-0.6875,-1.5625
1480691020176933,1,-1.0625,-1.8125
1480691020190470,-1.1875,-0.75,-1.1875
1480691020213530,0.4375,-0.625,-1.3125
1480691020241605,-0.125,0.125,-0.25
1480691020250630,0.1875,0,-0.375
1480691020273192,0.375,0.5625,-0.3125
1480691020296250,0.5,1.125,-0.3125
1480691020334853,2.375,0.25,0
1480691020338864,3.125,0.625,-0.125
1480691020370950,0.3125,0.5,-0.25
1480691020373461,-1.75,0.125,-0.375
1480691020408549,-1.75,-0.1875,-0.125
1480691020416069,0.3125,-0.875,-0.3125
1480691020436624,0.875,-0.625,-0.25
1480691020453669,1.25,-0.25,-0.0625
1480691020475727,0.5625,0.9375,-0.25
1480691020496282,-0.375,1,-0.375
1480691020513829,-0.6875,0.75,0.125
1480691020536890,2.1875,1.6875,0
1480691020549925,2.6875,1.125,-0.6875
1480691020574491,0.3125,-0.3125,-0.375
1480691020596549,-1.125,-0.3125,-0.25
1480691020616602,-2.0625,-1.8125,-0.75
1480691020638662,-5.25,-4.5,-0.3125
1480691020656210,-6.8125,-3.4375,1.25
1480691020669744,-6.25,-0.375,0.9375
1480691020693306,-4.875,0.1875,-0.5
1480691020739943,0.75,1.0625,-0.1875
1480691020743940,7.5,1,-0.3125
1480691020752965,6.375,0.8125,-0.875
1480691020775524,2.6875,-1.125,-0.8125
1480691020791570,1.625,0.125,-0.125
1480691020813124,3.0625,0.5625,-0.3125
1480691020851226,2.5625,0.875,-1.0625
1480691020863759,0.4375,0.8125,-0.5625
1480691020887823,0.6875,-0.3125,-1.1875
1480691020903364,1.25,-1.5,-0.8125
1480691020919410,0.3125,-0.75,0
1480691020932943,1.5,-0.5,-0.4375
1480691020956511,0.8125,-0.625,-0.5625
1480691020976559,0.0625,-0.875,-0.375
1480691020993107,-0.0625,0,-0.1875
1480691021015663,0.5625,-0.25,-0.6875
1480691021039227,0.375,-0.125,-0.5
1480691021053765,-0.1875,-0.125,-0.5625
1480691021081338,-0.0625,-0.1875,-0.9375
1480691021098384,0.75,-0.3125,-1
1480691021129466,0.375,-0.6875,-0.8125
1480691021135984,-0.375,-0.6875,-0.875
1480691021156546,-0.375,0.125,-0.8125
1480691021180602,0.125,0.625,-1.3125
1480691021196645,-0.125,0.75,-1.0625
1480691021216698,0.5625,0.6875,-1
1480691021233242,-0.0625,0.75,-0.6875
1480691021262820,-1,0,-0.25
1480691021283876,-2.9375,-0.3125,0.3125
1480691021292901,-3.5,0.8125,-0.125
1480691021322981,-1.5,1.5,-0.75
1480691021338021,0.1875,1.8125,0.1875
1480691021353060,4.5,1,0.8125
1480691021376123,6.75,1.3125,0.1875
1480691021398682,3,0.25,0
1480691021412217,0.5625,-0.0625,0.875
1480691021435279,0.25,-0.0625,0.75
1480691021457840,0.1875,0.75,-0.125
1480691021472379,-0.5,1.125,-0.3125
1480691021508975,-0.4375,0.5,-0.375
1480691021517999,-0.0625,0.125,-0.0625
1480691021539055,0,-0.375,-0.1875
1480691021555600,0.125,-0.375,0
1480691021578159,1.0625,-0.3125,-0.1875
1480691021599215,-0.3125,0.0625,0
1480691021615759,-0.8125,0.125,-0.1875
1480691021637818,-0.8125,0.0625,0
1480691021652857,-0.5,0.4375,0
1480691021682937,-0.125,0.125,0
1480691021698480,-0.75,0.4375,0
1480691021712516,-0.0625,0.5,-0.1875
1480691021736079,0.5,0.3125,0
1480691021758138,-0.125,-0.5,0.25
1480691021786213,-0.9375,-0.875,0.25
1480691021798245,-0.4375,-1.75,0.0625
1480691021817796,-0.8125,0.4375,0.5625
1480691021840358,0.875,0.375,-0.25
1480691021857402,-0.1875,0.5,0
1480691021878959,0.5,0.4375,-0.125
1480691021899012,0.25,-0.1875,-0.0625
1480691021917062,-0.625,-0.875,-0.25
1480691021938619,-0.375,-1,0.3125
1480691021959173,0.3125,-0.5,0.25
1480691021975718,0.4375,-0.3125,0.5
1480691021998276,-1.3125,-0.125,0.3125
1480691022026354,-1.25,0.0625,0
1480691022035375,-0.875,-0.375,0.25
1480691022074479,-1.875,-0.625,-0.6875
1480691022080494,-0.0625,-0.875,-1.3125
1480691022095535,-0.25,-0.75,-1.75
1480691022118596,-1.6875,-1,-1.6875
1480691022156698,-1.5,-1.875,-1.6875
1480691022161711,-0.8125,-1.375,-1.625
1480691022185273,1,-0.625,-1.0625
1480691022198810,0.5,0.125,-0.75
1480691022215353,-1,-0.25,0.0625
1480691022238415,-2.4375,0.25,-0.3125
1480691022267994,-1.0625,1.5625,-1.125
1480691022275513,1.125,0.5,-1.125
1480691022304090,2.3125,0,-0.5
1480691022320634,2.875,-1.375,0.0625
1480691022350212,2.75,-2.125,1.3125
1480691022358236,2.8125,-1.625,1.5
1480691022380794,3.875,-0.5,1
1480691022394831,3.625,0.25,0.625
1480691022432932,1.9375,1.125,0.3125
1480691022440453,-2.0625,0.75,0.3125
1480691022463514,-2.8125,-0.4375,0.625
1480691022478052,-2.4375,-1.1875,0.625
1480691022500612,-0.9375,-1.625,0.6875
1480691022515150,0.625,-1.625,0.5625
1480691022545731,1.9375,-1.625,0.625
1480691022566286,2.25,-1.4375,0.875
1480691022581326,1.875,-0.75,0.875
1480691022597870,0.8125,-0.375,0.8125
1480691022627950,0.25,-0.4375,0.1875
1480691022641486,-1.0625,-0.6875,0.0625
1480691022671568,-0.9375,-0.1875,0.4375
1480691022682094,0.8125,0.4375,0.1875
1480691022710671,0.375,0.3125,-0.0625
1480691022718190,0,0.0625,-0.3125
1480691022756293,0.5625,0,-0.125
1480691022761305,1.625,0.25,-0.25
1480691022777849,1.1875,-0.25,-0.125
1480691022800409,0.0625,-1,-0.0625
1480691022822970,0.125,-1.3125,0.0625
1480691022838511,2.5,-0.875,0
1480691022860569,2.125,-0.75,0.5
1480691022881625,2.625,0.0625,0.1875
1480691022904185,1.375,0,-0.0625
1480691022927748,-1,-0.625,-0.125
1480691022948803,-0.3125,-1,0
1480691022957828,0.75,-0.875,-0.0625
1480691022987909,0.5625,-0.875,-0.0625
1480691023001444,0.0625,0.0625,-0.125
1480691023017988,0.0625,0.5625,-0.125
1480691023041050,-0.25,0.375,0.3125
1480691023070627,1.375,0.4375,1.25
1480691023078147,1.375,0.625,1.0625
1480691023100708,0.5625,0.125,1.0625
1480691023121264,-0.25,-0.5625,0.875
1480691023138810,0.5,-0.5,0.625
1480691023160366,0.1875,0.8125,0.4375
1480691023183427,0.125,0.9375,-0.1875
1480691023204488,-1.5625,-0.375,-0.5
1480691023220527,-1.1875,-0.75,-0.5625
1480691023243086,0.3125,0,-0.6875
1480691023267150,0.1875,-0.1875,-1
1480691023280686,-0.8125,0.1875,-1.0625
1480691023310265,0.3125,0.5,-1.25
1480691023317285,0.875,-0.0625,-0.5
1480691023348366,3.625,0,-0.5
1480691023362905,2.0625,0.125,0.375
1480691023377945,-0.125,-0.75,0.0625
1480691023401508,-2.375,-0.125,0
1480691023423569,-1.125,1.3125,-0.25
1480691023437102,0.375,2.6875,-0.625
1480691023462170,-0.4375,1.5,-0.3125
1480691023484227,-0.125,0.375,0.125
1480691023497262,-0.75,-0.0625,-0.5
1480691023522831,-1.875,-0.0625,-0.4375
1480691023544389,-0.75,-0.3125,-0.3125
1480691023557424,2.0625,-0.4375,0
1480691023580483,4.625,0.0625,-0.1875
1480691023603043,1.8125,0.5,0
1480691023625607,-2.5625,0.9375,0.3125
1480691023642148,-1.0625,1.75,-0.1875
1480691023670724,-1.9375,2.0625,-0.875
1480691023701806,-2.3125,2.25,-0.6875
1480691023709832,0.6875,1.75,-0.1875
1480691023738404,-0.375,2.0625,-0.875
1480691023749433,-3.3125,1.125,-1.25
1480691023760966,-4,0.3125,-1.125
1480691023783022,-3.875,1.75,-0.625
1480691023804078,0.25,2.75,-1.8125
1480691023821126,-2.875,2.0625,-1.625
1480691023849198,-4,0.5625,-2.375
1480691023864238,-2.25,0.25,-1.0625
1480691023880782,1.1875,1,-0.8125
1480691023903342,-0.9375,0.75,0.5
1480691023933924,-0.625,-1.125,0.9375
1480691023940443,3,-1.5,0.9375
1480691023977041,1.5,1.0625,0.5625
1480691023984058,1,2.6875,0.8125
1480691024016142,-3.5625,0.6875,4.9375
1480691024023162,2.875,-0.6875,3.125
1480691024044222,0.375,0.375,1.9375
1480691024060762,-8.1875,-1.1875,2.875
1480691024082819,-3,1.1875,1
1480691024103876,5.75,2.4375,-1.875
1480691024120921,-0.6875,0.875,-0.5
1480691024148995,-0.3125,-2.875,-0.5625
1480691024166041,2.0625,-2.6875,-0.5625
1480691024181080,-3.1875,-1.375,-0.25
1480691024210664,-4.6875,-0.9375,-0.4375
1480691024232718,1.5,1.25,-1.625
1480691024255278,5.125,2.75,-2.0625
1480691024263300,1.4375,2.5,-2.625
1480691024301905,-0.9375,0.8125,-4.0625
1480691024306414,-5.25,-2.4375,-3.0625
1480691024323460,-6.5,-3.875,-1.0625
1480691024345518,-6.625,-1.25,-0.875
1480691024360059,-2.4375,-1,-0.25
1480691024383119,3.875,0.75,0.3125
1480691024411694,6.6875,0.8125,-0.625
1480691024420718,5.375,0.4375,-0.4375
1480691024457817,1.875,0.5625,0
1480691024466339,-0.8125,-0.1875,0.4375
1480691024489903,-1.75,-0.375,0.625
1480691024502936,-0.4375,0,0.3125
1480691024534019,1.125,-0.25,0.125
1480691024539534,2.625,0.25,-0.625
1480691024570618,2.4375,0.75,-0.4375
1480691024585657,-0.4375,-0.1875,0
1480691024599694,-0.875,-0.8125,-0.4375
1480691024623759,0.375,-0.25,-0.375
1480691024652836,1.125,-0.375,-0.5625
1480691024666371,0.1875,-0.5625,-0.5625
1480691024683416,-0.5,-0.3125,-0.5
1480691024705477,-1.375,-0.125,-0.9375
1480691024736057,-1.75,-0.625,-0.8125
1480691024743075,-0.3125,0.3125,-0.875
1480691024766136,-0.9375,0.25,0.125
1480691024802233,1.9375,-0.6875,-0.125
1480691024810255,2.5625,-0.8125,0
1480691024825797,0.1875,-0.4375,0.25
1480691024847854,0.25,-0.1875,0.25
1480691024864900,-0.0625,0.0625,0.4375
1480691024886459,1.8125,-0.4375,0.0625
1480691024914030,-1.125,-0.5625,0.25
1480691024936590,-1,-2.125,0.75
1480691024945613,1.6875,-2.625,1.875
1480691024974192,3.4375,-2.125,2.8125
1480691024984718,3.3125,-1.1875,3.0625
1480691025013294,-3,-1.1875,3.75
1480691025026329,-3.4375,-6.8125,5.1875
1480691025045379,0.125,-13.25,6
1480691025065934,0.9375,-10.9375,7.625
1480691025088494,8.9375,-2.125,5.1875
1480691025103033,9.125,-3.125,2.6875
1480691025126095,9.875,-6.25,2.0625
1480691025148654,6.25,-3.5625,4.875
1480691025163697,1.6875,-1.375,2.25
1480691025186253,-5.625,-2.75,1.3125
1480691025207811,-7.1875,-2.5,2.375
1480691025222853,-4.6875,-1.5,1.5625
1480691025253934,-4.375,-0.4375,-0.625
1480691025292036,-2,2.1875,-2.625
1480691025296547,3.375,5.1875,-3.75
1480691025321114,-1.75,4.0625,-2.625
1480691025344174,0.75,1.9375,-1.25
1480691025349690,3.9375,2.5625,-0.25
1480691025365731,-1.5625,2.6875,-0.8125
1480691025404334,-9.125,0.625,-0.4375
1480691025416870,-4.25,1.375,-0.375
1480691025425391,3,1.6875,-0.4375
1480691025447950,0.6875,0.0625,-0.125
1480691025462488,0,-2.375,-0.125
1480691025485550,2.75,-5.125,0.5625
1480691025508611,2,-1.5,1.5625
1480691025530670,4.5625,0.5625,0.3125
1480691025569774,-0.0625,-0.3125,-0.0625
1480691025574289,3.125,-0.75,-0.9375
1480691025597849,7.125,0.3125,-2.9375
1480691025612888,6.5,1.75,-4.8125
1480691025635950,-0.875,1.9375,-4.0625
1480691025648984,-1,-0.375,-1.75
1480691025666030,5.5,-0.125,-1.0625
1480691025688590,5.125,-1.3125,-0.125
1480691025708643,0.375,-3.5,0.4375
1480691025727195,1.75,-2,0.5
1480691025747746,6.0625,-0.9375,0.3125
1480691025768803,6,0.25,0
1480691025786851,1.625,0,-0.6875
1480691025807910,-1.75,-0.4375,-0.375
1480691025845507,-3.875,-1.5,-1.125
1480691025856037,-4.1875,-2.5,-0.9375
1480691025876092,2.625,-2.8125,-0.9375
1480691025889124,6.3125,-1.6875,-0.25
1480691025913187,4.625,-1.375,-0.5
1480691025927728,0.125,-1.375,-0.875
1480691025956303,-1.75,-0.625,-0.8125
1480691025965325,-1.6875,-0.1875,-0.625
1480691025995906,-1.3125,0.3125,-0.25
1480691026008942,-0.5,0.5625,0.1875
1480691026040537,0.875,0.5625,0.1875
1480691026056066,1,-0.375,0.625
1480691026070606,0.8125,-0.1875,0.6875
1480691026085646,0.125,0.3125,0.375
1480691026122745,-1.5625,0.375,0.1875
1480691026137785,-3.0625,-0.6875,0.4375
1480691026152824,-1.25,-0.5625,0.6875
1480691026167864,-2.75,-3.625,1.0625
1480691026190424,-6.6875,-3.6875,1.1875
1480691026211480,-10.9375,-2.8125,0.8125
1480691026235544,-8.375,-0.75,1.1875
1480691026250082,-1.75,2.75,1.3125
1480691026264621,7.8125,4.6875,-0.1875
1480691026288185,10.9375,5.1875,-1
1480691026318264,8.25,4.875,-0.8125
1480691026325787,2.125,4.125,-1.5625
1480691026402488,-2,1.75,-1.125
1480691026408508,-1.25,0.5625,-1.4375
1480691026414019,2.4375,1.4375,-1.875
1480691026430563,2.5625,0.875,-1.3125
1480691026444600,1.875,0.3125,-1.4375
1480691026469667,0.25,2.25,-0.125
1480691026490222,0.5625,1.9375,-0.8125
1480691026520301,-2.8125,1.0625,-0.6875
1480691026528324,-2.8125,2,-0.875
1480691026557902,1.25,1.875,-0.4375
1480691026596003,1.75,0.6875,-0.1875
1480691026598509,-0.25,0.375,0.25
1480691026619064,-2.0625,1.5,-0.0625
1480691026642126,-2.0625,1.8125,0
1480691026649645,0.6875,2.5,-0.375
1480691026677719,0.0625,4.375,-0.6875
1480691026691761,-2.6875,2.9375,-1.3125
1480691026709308,-4.4375,0.875,-1.875
1480691026730360,-5.875,3.9375,-0.8125
1480691026752418,1.25,9.875,-2.3125
1480691026768461,5.75,10.625,-1.6875
1480691026790521,-10.8125,5.3125,-2.0625
1480691026811576,-10.9375,2.4375,-1.5
1480691026843662,-3.8125,4.8125,0.125
1480691026873742,-2.8125,5.4375,-1.3125
1480691026875748,-4.4375,3.5625,1.125
1480691026887778,1.625,2.375,0
1480691026925380,2.5,5.3125,0.125
1480691026932898,-1.625,9.25,-2.0625
1480691026955962,-9.8125,7.5625,-1.4375
1480691026970499,-9.375,4.875,-2.3125
1480691026994061,-1.25,1.6875,-0.5
1480691027008099,5.5,2.125,-0.5
1480691027030737,2.125,1.4375,-1.25
1480691027052716,-1.125,0.125,-1.0625
1480691027067756,-1.875,-0.1875,-0.9375
1480691027098840,-0.75,0.0625,-0.875
1480691027112877,0.5625,0.75,-1
1480691027151980,-1.5,0.3125,-0.9375
1480691027156994,-0.3125,-0.0625,-0.9375
1480691027179053,-1.6875,0.0625,-0.3125
1480691027187075,1.3125,0.875,-0.25
1480691027211138,1,0.125,-0.3125
1480691027234200,-0.6875,-1.1875,-0.6875
1480691027247234,0.375,-1.5625,-0.625
1480691027270296,0.8125,-1.5,-0.75
1480691027308398,-2.0625,-2.25,0.125
1480691027315917,-1.0625,-2,1.375
1480691027330456,1.4375,-0.0625,1.6875
1480691027353015,2.625,1.3125,1.8125
1480691027375575,2.6875,2.8125,1
1480691027390616,-0.5,5.0625,-0.75
1480691027428717,-5.875,4.1875,-0.875
1480691027430723,-7.25,1.1875,-0.625
1480691027456291,-3.6875,-0.8125,0
1480691027472834,-0.75,-1.1875,1
1480691027493891,1.625,-0.5,0.25
1480691027510936,1.8125,1.1875,-0.3125
1480691027533496,3.8125,1.0625,-0.375
1480691027554050,4.25,1.0625,0
1480691027584130,-0.25,0.3125,-0.3125
1480691027593157,-3.25,-1.4375,0.0625
1480691027614209,-0.875,-1.6875,0.0625
1480691027630754,2.5,-1.1875,-0.4375
1480691027653314,1.125,-0.625,0.125
1480691027675374,0.875,1.625,-0.25
1480691027705453,-1.625,3.25,-0.875
1480691027720493,-3.25,2.6875,-0.625
1480691027735533,-7.6875,2.625,-0.875
1480691027750572,-6.3125,2,-0.9375
1480691027773635,-1.125,2.4375,-1.375
1480691027794192,-0.625,0.875,-0.375
1480691027818755,1.25,-0.25,0
1480691027832791,2.375,-1.9375,-0.5
1480691027863373,1.25,-2.875,0.375
1480691027872397,3.375,-3.25,1
1480691027899970,5.75,-2.1875,1.125
1480691027938573,5.3125,-1.1875,0.4375
1480691027941080,2.0625,0.5625,-0.625
1480691027953111,-0.75,0.5625,-1.25
1480691027982691,-2.8125,-0.125,-0.625
1480691027990713,-1.25,-0.25,-0.5
1480691028012769,1,-0.3125,-0.25
1480691028035330,2.4375,0.3125,-0.375
1480691028051373,0.5625,0.1875,-0.6875
1480691028072931,-2.1875,-1.125,-0.5625
1480691028095991,-1.3125,-1.0625,0.5
1480691028110028,1.9375,0.8125,0.375
1480691028133090,0.375,1.8125,0.3125
1480691028155650,-1.4375,1.0625,0
1480691028176706,-1.6875,1.6875,-0.3125
1480691028193751,-0.625,1.75,0
1480691028215309,-1.5625,0.875,0.1875
1480691028243885,-1.125,0.0625,-0.1875
1480691028260429,-0.4375,-0.0625,0.5625
1480691028281484,0.6875,0.625,0.3125
1480691028291514,-0.1875,0.4375,0
1480691028313570,-0.5,0.4375,-0.3125
1480691028343148,-0.1875,0.0625,0.3125
1480691028356687,0.875,0.625,0.1875
1480691028374232,0.5625,0.875,-0.1875
1480691028402307,-0.5625,-0.1875,0.25
1480691028417846,-0.9375,-0.75,0.6875
1480691028433389,0.75,-0.375,0.625
1480691028455447,1.1875,0,0.625
1480691028493550,-0.8125,-0.5,0.5625
1480691028496055,-1.1875,-1,0.375
1480691028544684,0.125,-1,0.5625
1480691028554213,0.5,-1.3125,0.375
1480691028583288,0.9375,-1.4375,0.5625
1480691028585793,1.75,-1.25,-0.0625
1480691028596823,2.125,-0.4375,0.125
1480691028621889,1.4375,0.125,-0.25
1480691028635425,0.875,0.1875,-0.25
1480691028656483,-1.1875,-0.5625,0.375
1480691028696590,-1.125,-0.5625,0.1875
1480691028701602,-0.0625,-0.125,0.0625
1480691028724666,1.1875,0.3125,-0.25
1480691028734188,0.9375,0.25,0
1480691028778306,0.5625,0.5,0
1480691028780812,0.5625,0.8125,-0.0625
1480691028800364,-1.625,1.125,-0.25
1480691028816407,-1.6875,0.5,-0.375
1480691028837463,0.25,-0.4375,-0.125
1480691028859523,1.4375,-0.5,-0.3125
1480691028883086,2.5,-0.1875,-0.1875
1480691028898626,0.5625,-0.4375,-0.5625
1480691028913665,-1.25,-1.0625,-0.375
1480691028941241,-0.0625,-1.1875,0.125
1480691028972825,1.0625,-1.1875,0
1480691028975331,0.9375,-1.8125,0.3125
1480691029009420,3.6875,-0.1875,0
1480691029017943,4.375,0.5625,-0.0625
1480691029040504,-1.75,-1.3125,-0.875
1480691029055543,-9.3125,-4.125,-0.875
1480691029086625,-8.625,-3.0625,-0.75
1480691029101666,-6.8125,-1.6875,-0.25
1480691029145783,-4.3125,-0.3125,1.3125
1480691029148290,-0.1875,1.375,0.9375
1480691029161826,4.5,2.6875,-1.125
1480691029175364,5.9375,3.1875,0.125
1480691029205442,2.9375,4.3125,-0.4375
1480691029236525,2.875,3.0625,0.5625
1480691029241538,-2.25,-0.4375,0.1875
1480691029258584,-1.4375,-2.4375,0.25
1480691029272119,-1.3125,-1.875,0.4375
1480691029296183,-1.0625,-0.9375,0.3125
1480691029327770,-1.4375,-1.375,0.3125
1480691029332278,-2.9375,-0.3125,1.3125
1480691029356345,-1.3125,1.0625,1.3125
1480691029378401,2.0625,0.5,-0.75
1480691029401964,2.25,1.5625,-1.0625
1480691029415500,0.125,2.0625,-0.3125
1480691029438060,-1.9375,2.625,-1.1875
1480691029459117,-5.4375,0,0.1875
1480691029483179,-5.375,-0.625,0
1480691029497719,2.75,-0.625,0.0625
1480691029518774,5.125,0.25,0.375
1480691029535820,6.8125,1.5,1.625
1480691029565900,8.375,2.3125,0.9375
1480691029578935,2.6875,1.125,0.8125
1480691029595479,-2.5625,1.75,1
1480691029618038,-3.1875,1,0.25
1480691029649121,-3.5625,0.8125,0.25
1480691029657143,0.0625,1.25,-0.375
1480691029677697,0.375,0.6875,-0.3125
1480691029699254,0.375,0.6875,-0.625
1480691029715297,2,1.1875,-0.1875
1480691029738359,-2.3125,-0.125,-0.3125
1480691029766433,-5.125,-2.0625,0.125
1480691029775457,-6.75,-1.25,-0.125
1480691029805539,-5.875,1.5,-0.125
1480691029819073,-2.25,4.9375,0.6875
1480691029835617,-2.1875,5.3125,0.625
1480691029858806,-4.5,7,0.6875
1480691029886252,-10.4375,7.3125,-0.4375
1480691029895777,-11.25,5.125,0.5625
1480691029919340,-4.625,3.25,1.6875
1480691029940397,2.1875,3.875,1.0625
1480691029954937,-2.4375,2.375,-1
1480691029977995,-4.75,1.125,-2.5625
1480691030008075,-0.6875,-1.4375,-1.875
1480691030014593,5.625,-2.375,-0.875
1480691030040161,8.8125,-6.5,-0.0625
1480691030067735,10.3125,-11.125,1.125
1480691030083276,12.3125,-8.5625,0.625
1480691030111851,8.0625,-3.1875,-0.0625
1480691030121878,3.6875,-0.375,-1.375
1480691030134914,-0.875,-4.1875,-0.1875
1480691030159479,-1.4375,-8.75,1.625
1480691030204097,1.0625,-8.125,2
1480691030208107,1.75,-8.75,3.375
1480691030218135,2.25,-7.5,2.6875
1480691030249216,3.0625,-5.8125,1.6875
1480691030256236,7.5,-3.125,-0.25
1480691030285314,10.8125,1.3125,-1.4375
1480691030306373,11.5,6.5625,-1.4375
1480691030321421,8.8125,10.1875,-0.875
1480691030345473,1.375,6.5,-1.75
1480691030360513,-2.125,5.75,0.875
1480691030381570,0.625,7.9375,0.125
1480691030398614,-0.3125,1.9375,0.0625
1480691030428193,-2.5625,0.6875,-0.875
1480691030441228,-1.875,-1.625,-1.375
1480691030481836,-3.1875,-2.5625,-0.125
1480691030489356,-4,-9.3125,-0.5625
1480691030516427,-2.8125,-11.125,2.0625
1480691030528460,-6.9375,-9.625,3.875
1480691030548011,-4.0625,-9.25,7.6875
1480691030563051,3.5,-3.4375,1.5625
1480691030578593,14.0625,3.6875,-3.3125
1480691030603158,22.0625,10.3125,-0.125
1480691030638761,11.875,16.6875,-1.875
1480691030640758,-5.25,14.6875,-4.8125
1480691030661313,-14.75,8.625,0.375
1480691030705931,-12.5625,3.5,2.4375
1480691030708438,-6.25,5.1875,-2.5625
1480691030720470,-10.25,3.625,-4.4375
1480691030741526,-9.375,2.375,-2.8125
1480691030758071,1.75,1.0625,-1.5
1480691030789153,1.9375,3.125,-1
1480691030802689,-4.0625,3.0625,-1.125
1480691030825750,-6.125,2.375,-1.375
1480691030840790,0.5625,1.625,-0.5625
1480691030870369,9.0625,2.125,-0.375
1480691030877387,6.0625,0.0625,-0.5
1480691030902454,2.4375,-2.75,-0.1875
1480691030923510,-4.1875,-4.5,1.3125
1480691030945568,-4.9375,-5.0625,-0.3125
1480691030960608,-6.3125,-3,0.9375
1480691030984172,-9.5,-1.75,-0.8125
1480691030997206,-10.25,-2.375,-0.5625
1480691031020770,-4.5625,-0.6875,0.3125
1480691031043328,10,1,0.75
1480691031080929,15.6875,1.4375,0.8125
1480691031089452,24.5625,5.8125,1.25
1480691031109004,7.5625,7.25,0.1875
1480691031131563,-14.5,5.625,-0.8125
1480691031148107,-11.125,2.4375,-1.4375
1480691031163147,-4.125,3.25,-2.1875
1480691031186209,-6.3125,3.8125,-2.75
1480691031200246,-6.25,0.5625,-2.25
1480691031223808,0.25,-3.0625,-3.0625
1480691031247371,7.0625,-1.5625,-3.75
1480691031269430,-1.4375,-2.625,-3
1480691031282965,-9.1875,-1.8125,0
1480691031306528,-10.625,-3.875,0.625
1480691031320566,-5.25,-3.125,-1.3125
1480691031343126,2.625,-1,-0.25
1480691031364184,12.3125,-1.375,0.875
1480691031394262,14.5,-1.875,1.9375
1480691031402784,9.375,-1.9375,2.1875
1480691031425846,-2.4375,1.875,0.75
1480691031440384,-13.375,0.125,1.625
1480691031462944,-6.1875,-0.625,0.8125
1480691031487009,5.5,0.125,0.0625
1480691031500544,9.6875,0.25,1.625
1480691031523105,8.1875,-0.875,0.4375
1480691031551681,2.1875,-2.875,-0.625
1480691031566723,-0.75,-1.3125,0
1480691031582763,-2.0625,1.0625,-3.125
1480691031603819,-2.9375,1.625,-4.4375
1480691031636407,-0.5625,1.1875,-3.3125
1480691031644928,6.3125,0.3125,-3.9375
1480691031665984,3.25,0.125,-4.875
1480691031679520,-2.625,-0.6875,-5.1875
1480691031704590,-7.1875,-1.875,-5.6875
1480691031724140,-4.4375,-1.5625,-5
1480691031740683,0.3125,-1.1875,-4
1480691031762742,4.75,-0.8125,-4.875
1480691031785803,4.375,-1.8125,-4
1480691031809365,3.0625,-2,-3.1875
1480691031828918,2.9375,-2.25,-2.3125
1480691031845461,0.875,-2.4375,-1.25
1480691031870028,-2,-2.125,-0.5
1480691031898603,-2.5625,-2.125,-1.1875
1480691031905621,-4,-1.5,-0.375
1480691031919659,0.625,-0.125,-1.25
1480691031950240,1.4375,0,-1.625
1480691031965782,-2.0625,0.125,-1.3125
1480691031987844,-1.4375,-0.25,-2.6875
1480691032002881,-2.8125,-0.9375,-3.0625
1480691032025442,-3.5625,0.3125,-2.625
1480691032039979,-0.625,0.4375,-2.9375
1480691032064545,-1.3125,-0.375,-2.4375
1480691032086103,-0.8125,-0.25,-1.5
1480691032100640,-0.875,0.0625,-0.8125
1480691032146763,-2.3125,0.125,-0.1875
1480691032151274,-1.1875,0.1875,0.5625
1480691032159799,-0.625,0.5625,1.4375
1480691032182859,-0.3125,0,2
1480691032212938,-0.4375,0.4375,2.875
1480691032227983,0.125,-0.0625,3.0625
1480691032243019,-0.5,-0.5,3.9375
1480691032265579,0.6875,-0.25,3.4375
1480691032295659,-0.0625,-0.8125,2.875
1480691032303179,-1.125,-1.1875,1.9375
1480691032332758,-0.0625,-0.3125,0.875
1480691032346293,0.125,-0.125,-0.5625
1480691032370358,-1.25,1.25,-1.5
1480691032393419,-2.8125,1.5625,-3
1480691032415478,-2.4375,0.5625,-3.0625
1480691032422997,-2.25,-0.125,-3.8125
1480691032453078,-2,1,-4.6875
1480691032466614,-2.875,1.25,-5.8125
1480691032483658,-2.4375,0.3125,-4.9375
1480691032505718,-3.125,-0.875,-4.3125
1480691032526272,-2.6875,-2.625,-3.875
1480691032542816,-1.9375,-3.3125,-3.1875
1480691032572896,-1.1875,-3.4375,-3.125
1480691032610997,0.9375,-2.375,-3.4375
1480691032613503,2.75,-0.0625,-3.4375
1480691032625537,1.375,1.0625,-3.75
1480691032646592,-1.625,-0.5625,-3.375
1480691032669654,-1.25,-2.5,-0.25
1480691032708256,3.6875,-2.5625,1.875
1480691032710762,5.1875,-2.5,3.0625
1480691032722795,4.1875,-3.6875,4.375
1480691032745354,2.4375,-6.125,6.3125
1480691032767915,3.5,-8.375,7.25
1480691032782453,5.4375,-9.5,8.0625
1480691032805515,8.125,-9.875,8
1480691032827574,9.5,-9.875,7.5625
1480691032852138,7.4375,-8.875,6.1875
1480691032865674,3.5625,-8.4375,4.5625
1480691032887733,1.625,-7.625,3.375
1480691032931349,0.375,-6.0625,1.5625
1480691032941877,0.125,-3.75,0
1480691032947893,-0.6875,-1.3125,-0.625
1480691032977974,-2.25,0,-2.75
1480691032986997,-3.0625,1.625,-3.3125
1480691033008554,-3,2.625,-3.0625
1480691033022090,-2.4375,2.9375,-3.0625
1480691033054179,-3.125,4.125,-3.5625
1480691033058187,-2.6875,5.25,-3.6875
1480691033081248,-0.5625,4.9375,-2.125
1480691033089771,-0.75,4.6875,0.3125
1480691033116843,-2,3.0625,2.875
1480691033136896,0.6875,3,5.4375
1480691033172992,5.5625,5.125,6.625
1480691033175499,5.875,4.75,7.5
1480691033219116,4.9375,3.5,8.125
1480691033226133,3.8125,2.5625,7.875
1480691033238667,3.5625,2.125,7.8125
1480691033253205,1.6875,0.5,5.5
1480691033275765,1.8125,-1.1875,2.6875
1480691033290805,4.9375,-1.5625,-0.25
1480691033320891,4.1875,-1.6875,-2.6875
1480691033335926,1.5,-2.1875,-4.8125
1480691033352469,1.4375,-1.4375,-6.9375
1480691033373525,0.25,-1.6875,-7.4375
1480691033398592,-2.0625,-3.5,-5.25
1480691033413632,-0.625,-4.375,-2.8125
1480691033433184,3.0625,-3.6875,-0.9375
1480691033455757,4.6875,-2.5625,1.75
1480691033495851,4.875,-2.3125,4.375
1480691033503875,3.125,-2.1875,5.6875
1480691033515904,1.0625,-1.6875,7.25
1480691033530943,1.5625,-0.0625,7.4375
1480691033561023,1.4375,1.6875,7
1480691033576063,-1.375,2.625,6.25
1480691033590603,-1.4375,3,5.875
1480691033613162,-1.875,3.25,4.875
1480691033635723,-2.8125,3.4375,3.8125
1480691033650762,-1.375,3.0625,2.3125
1480691033700896,-0.6875,1.75,1.1875
1480691033705909,0.25,0.3125,0.875
1480691033721450,0.625,-1.25,-0.1875
1480691033733482,0.6875,-2.4375,-0.875
1480691033759553,2.75,-3.5,-0.75
1480691033771084,3.5625,-3.875,-1.0625
1480691033809684,3.1875,-4.1875,-1.5625
1480691033815700,3.5625,-4.125,-1.5625
1480691033838262,3.0625,-3.5625,-1.4375
1480691033853301,0.9375,-3.25,-1.25
1480691033877364,-0.25,-2.9375,-0.9375
1480691033890901,-0.1875,-2.6875,-0.1875
1480691033915967,1.5625,-2.25,0.4375
1480691033952063,1.0625,-1.4375,0.6875
1480691033976629,0.5,-1,0.9375
1480691033980639,-0.0625,-0.9375,1.1875
1480691034003705,-0.5,-1.125,1.625
1480691034037796,-1.3125,-0.3125,1.375
1480691034052832,-0.75,0.1875,0.4375
1480691034056341,-1.4375,0.875,-0.0625
1480691034078399,-0.375,0.75,-0.625
1480691034100961,0,0.25,-0.8125
1480691034118506,0.25,-0.25,-0.875
1480691034139563,0.3125,-0.5,-0.6875
1480691034153601,-1.125,-0.5,-0.9375
1480691034175658,-0.9375,0.5625,-0.8125
1480691034192205,1.1875,1,-1.125
1480691034213257,0.6875,0.9375,-1
1480691034235819,0.4375,0.375,-0.8125
1480691034266901,0.1875,0.4375,-0.5625
1480691034273418,-0.5625,0.625,-0.5
1480691034295977,-1.5625,0.625,-0.625
1480691034314527,-1.5625,0.875,-0.8125
1480691034333581,-2.375,1.125,-0.8125
1480691034358645,-2.75,1.8125,-0.9375
1480691034372181,-2.75,1.75,-1.1875
1480691034403768,-4.0625,0.9375,-0.875
1480691034417301,-2,0.1875,-0.4375
1480691034439860,0.25,0.5,-0.125
1480691034461919,0.8125,0.4375,-0.1875
1480691034477460,-0.375,0,-0.1875
1480691034499519,-0.75,-0.0625,0
1480691034530101,-1.625,0.5,-0.125
1480691034543636,-1.875,1.75,-0.625
1480691034556170,-1.9375,1.6875,-0.9375
1480691034574719,-1.6875,1.4375,-0.625
1480691034603295,-1.1875,1.375,-0.75
1480691034614324,-0.3125,1.0625,-1
1480691034636383,-1.125,0.875,-0.625
1480691034672980,-1.1875,0.4375,-0.375
1480691034675487,-0.5625,0.25,-0.5
1480691034693536,-0.875,-0.25,-0.5
1480691034718602,-0.1875,-0.125,0
1480691034733642,0.5625,-0.1875,0.25
1480691034753194,0.375,-0.3125,0.125
1480691034775753,0.3125,0.125,0.25
1480691034793802,2.875,0.125,0.1875
1480691034813357,2.4375,0.0625,-0.375
1480691034835916,0.3125,0.0625,-0.6875
1480691034876020,-0.9375,-0.375,-0.8125
1480691034878527,-0.5,-0.75,-1.375
1480691034913119,1.625,-1.625,-0.875
1480691034935679,3.25,-1.8125,-0.8125
1480691034938186,6.75,-1.6875,-0.875
1480691034955732,6.5,-1.3125,-0.5
1480691034978292,3.8125,-1.125,-1.5
1480691034995338,-0.5,-1.25,-1.8125
1480691035023412,-1.5625,-1.625,-1.75
1480691035062015,1.375,-1.9375,-0.875
1480691035086581,3.4375,-1.375,-0.75
1480691035100117,3.8125,-1.375,-0.75
1480691035103632,4.5625,-1.1875,-0.625
1480691035113150,3.6875,-0.8125,-0.4375
1480691035143230,0.375,-0.4375,0.125
1480691035167294,0.0625,0.3125,0.0625
1480691035182335,2.25,1.6875,0.1875
1480691035197376,1,2,-0.4375
1480691035242996,0.5,0.75,-0.4375
1480691035245001,0,1,-0.1875
1480691035272075,-0.5,0.9375,0.3125
1480691035279594,-3.9375,-0.8125,0
1480691035326217,-4.9375,-2.1875,0
1480691035328724,-5.75,-4.8125,0.0625
1480691035348777,-7.25,-3.9375,0.3125
1480691035362314,-9.125,-3.0625,1.75
1480691035377353,-2.3125,-5.4375,3.1875
1480691035398410,6.9375,-6.9375,1.5
1480691035414953,14.25,-5,2.9375
1480691035436010,10.75,3.75,1.0625
1480691035461076,1.25,3.875,-0.6875
1480691035474612,-6.125,3.5,-1.375
1480691035506198,0.625,3.375,0
1480691035521236,4.125,5.5625,0.875
1480691035536779,1.0625,5.3125,1.375
1480691035555828,-2.6875,2.8125,0.125
1480691035585908,-5.375,1.9375,-0.9375
1480691035597940,-5.9375,1.3125,0.1875
1480691035615988,-0.625,1.3125,-0.1875
1480691035639050,1.4375,0.3125,-0.6875
1480691035656597,-3.875,0.5625,-0.4375
1480691035676148,-8.9375,2.25,-0.625
1480691035701215,-14.4375,1,-0.625
1480691035720767,-9.6875,-1.875,-1
1480691035738815,1.4375,1,1.0625
1480691035758368,8.1875,4.5625,-1.5
1480691035783935,3.0625,3.1875,-1.125
1480691035795967,0.1875,1.5625,-0.3125
1480691035835071,5.625,0.3125,-0.0625
1480691035842089,7.0625,1.5,1.375
1480691035855625,7.125,2.75,0.125
1480691035878687,2,2.25,0.125
1480691035912276,-3.5,-0.625,0.875
1480691035923306,-3.125,0.125,0
1480691035938345,-2.25,-1.5625,-0.0625
1480691035976447,-1.625,-2.75,-0.5625
1480691035986476,0.25,-5.5625,0.5625
1480691035999508,-2.0625,-5.8125,0.875
1480691036020565,-5.8125,-4.125,0.4375
1480691036035604,-7.4375,-4.6875,1.375
1480691036061172,-3.8125,-5.0625,1.75
1480691036076715,2.3125,-1.375,-0.0625
1480691036103285,6,7.375,-0.5625
1480691036118324,1.125,7.75,-1
1480691036136875,1.6875,5.1875,-1.75
1480691036157429,10.8125,6.8125,-0.75
1480691036178484,11.1875,10.875,-1
1480691036198036,-1.875,6.5,-1.4375
1480691036217086,-13.1875,2.9375,-1.5
1480691036238142,-3.9375,1.125,-1.375
1480691036270230,-1.5625,-1.25,1.3125
1480691036283263,0.375,0.25,-1.6875
1480691036306324,0.1875,2.125,-0.9375
1480691036320863,-6,3.875,-1.0625
1480691036338911,-7.625,4.375,-1.0625
1480691036358463,0.3125,0.25,-0.9375
1480691036383529,4.5,-2.125,-1.8125
1480691036400074,-1.6875,2.4375,0.875
1480691036436169,-18.125,0,-2.625
1480691036440681,-23.5,-2.0625,-2.375
1480691036458730,-15.0625,-1.0625,1
1480691036478281,3.4375,0.125,0.6875
1480691036509868,13.4375,-1.25,0.4375
1480691036519895,15.125,-1.5625,0.125
1480691036538441,15.625,-1.125,-0.6875
1480691036578547,4.125,-1.125,-1.3125
1480691036581055,-8.625,-1.3125,0.4375
1480691036614643,-7.375,-2.3125,0.3125
1480691036620660,1.1875,-1.0625,-0.4375
1480691036639210,4.875,-0.125,-0.0625
1480691036665780,3.9375,-0.625,-0.625
1480691036680819,1.4375,0.25,-0.375
1480691036700873,-0.1875,-0.125,-0.5
1480691036718420,0.4375,1.25,-0.8125
1480691036740979,3.9375,4.0625,0.75
1480691036766047,6.3125,3.25,-1.4375
1480691036781086,0.9375,1.0625,-2.25
1480691036808159,-2.0625,-2.3125,-0.375
1480691036832222,-7.8125,-6.3125,1.625
1480691036838238,-10.875,-4,1.125
1480691036860799,-9.75,-0.375,-1.125
1480691036878847,-7.375,0.9375,0
1480691036901407,-4.3125,1.5,0.9375
1480691036920959,5.4375,0.75,0.9375
1480691036940510,10.375,0.9375,1.1875
1480691036958559,11,2.375,-0.5
1480691036988137,5.3125,1.875,-1.1875
1480691037027742,-0.4375,2.1875,0.75
1480691037030249,-0.0625,1.375,-0.1875
1480691037045790,-0.75,1.625,-1
1480691037058825,1.5,1.8125,-0.5
1480691037102946,0.6875,2.125,-1.5
1480691037111966,-3.875,1.75,-1.0625
1480691037126004,-7.6875,2.625,-0.0625
1480691037140042,-4.6875,2.1875,-0.625
1480691037168116,-3.125,1.5,0.125
1480691037178644,1.25,1.0625,-0.3125
1480691037208223,3.875,1.3125,-1.125
1480691037223764,0.5625,0.5625,-1.1875
1480691037239806,-3.4375,-0.9375,-0.1875
1480691037259860,-0.125,-1.75,0.0625
1480691037306985,3.9375,-1.5,0.625
1480691037311498,4.25,-0.375,0
1480691037337069,1.625,1,-1.4375
1480691037349598,0.25,1,-0.4375
1480691037374665,-1.125,0.375,-0.0625
1480691037379680,-1.0625,-0.25,-0.5625
1480691037403745,-0.0625,-0.25,0.0625
1480691037419284,-1,0,-0.1875
1480691037459892,-1.0625,-0.4375,0
1480691037465908,-1.125,-0.875,-0.3125
1480691037478942,-0.0625,-1.9375,-0.375
1480691037501503,1.5625,-2.25,0
1480691037537600,2.5,-2.4375,0.1875
1480691037540104,1,-3.0625,0.6875
1480691037568681,2,-1,0.875
1480691037584224,0.625,-1.5,0
1480691037613800,-3.75,-1.5,0.5625
1480691037621322,-2.5625,-0.625,0.25
1480691037640873,-1.375,0.1875,0
1480691037667949,1.9375,0.25,-0.0625
1480691037681982,2.9375,-0.3125,0.1875
1480691037700531,3.6875,0.375,-0.8125
1480691037733620,3.1875,1.375,-0.625
1480691037741140,0.375,1.25,-1.25
1480691037761192,-2.5,-1.3125,-0.875
1480691037778740,0.5625,-2.875,-0.125
1480691037815336,4.5,-1.6875,0.3125
1480691037820851,6.0625,-0.125,-0.625
1480691037843411,4.5,-0.625,-0.4375
1480691037865971,2,-0.8125,-0.0625
1480691037890036,-0.125,-0.125,-1.0625
1480691037921118,-3.1875,-0.625,-0.1875
1480691037923626,-3,-1.5625,0.3125
1480691037942173,-0.4375,-1.125,-0.125
1480691037980275,1.3125,-0.375,-0.375
1480691037982782,3.5,0.0625,-0.25
1480691038003837,1.3125,0.625,-0.625
1480691038023390,0.5625,0.375,-0.75
1480691038048958,-1.3125,-0.125,-0.125
1480691038070017,-1,-0.0625,0.25
1480691038086060,-2,1.1875,-0.0625
1480691038115636,-2.1875,0.4375,0
1480691038123155,-1,0.375,0.5
1480691038150728,3.125,1.5,0.0625
1480691038162259,2.25,1.8125,0.0625
1480691038205374,-2.8125,0.125,0.1875
1480691038207880,-2.8125,-0.8125,0.5625
1480691038221918,1.25,0.3125,0.5
1480691038243475,1.8125,0.4375,0.6875
1480691038264032,-0.625,-0.1875,0.75
1480691038282579,-0.9375,0.625,0.1875
1480691038302132,0.5625,1.5625,-0.1875
1480691038334719,-0.5625,1.125,0
1480691038341235,-0.3125,0.25,-0.125
1480691038363795,0.5,0.375,-0.8125
1480691038401395,1.0625,0.5,-0.0625
1480691038404905,-0.5,0.125,-0.0625
1480691038439998,-0.1875,-0.4375,-0.8125
1480691038444510,1.0625,-0.375,-0.5625
1480691038483113,-0.0625,-0.4375,-0.125
1480691038485118,-0.0625,-0.6875,0
1480691038503181,1.75,-0.125,0
1480691038522718,1.6875,1.125,-0.625
1480691038543773,-0.9375,0.0625,-0.3125
1480691038563326,-2.1875,-0.0625,0
1480691038581373,-0.875,-1,0.6875
1480691038608445,-0.5,-0.9375,0.3125
1480691038623486,-2.8125,-2.125,0.25
1480691038641033,-13.0625,-8.375,1.875
1480691038678633,-14.4375,-3.375,1.875
1480691038683144,-10.875,1.4375,3.9375
1480691038701194,5.75,5.875,6.5
1480691038737289,19.5,10.5,2.9375
1480691038750824,4.625,10.0625,-0.5
1480691038761854,-15.125,3.1875,2.3125
1480691038797448,-21.5625,-7.6875,5.5
1480691038804969,-5.5,-16.25,9.125
1480691038850089,2.1875,-8.9375,3.0625
1480691038853113,1.125,-6.375,1.25
1480691038864626,-14.625,-6.375,5.5625
1480691038881171,9.6875,-6.375,3.875
1480691038920276,29.6875,-4.25,3.875
1480691038930803,27.8125,2.75,-2.5
1480691038945843,13.875,9.625,-6.5625
1480691038965902,7.625,7.1875,-4.5
1480691039000490,6.1875,2.25,-2.5
1480691039007005,1.125,-1.9375,-2.75
1480691039053130,-3.8125,-0.0625,-3.1875
1480691039055133,-2.5,-3.875,-2.125
1480691039081704,-0.5,-0.9375,-0.8125
1480691039091230,0.875,-1.5625,0.3125
1480691039112285,-4.625,1.375,-1.8125
1480691039121312,-16.375,1.4375,-1.1875
1480691039148382,-11.1875,2.1875,0.5625
1480691039165928,4.75,2.25,2.8125
1480691039180968,16.0625,4.125,2.1875
1480691039204029,13.5625,3.4375,0.3125
1480691039227091,8.9375,4.75,-1.125
1480691039241629,3.5,2.25,0.0625
1480691039263688,-2.3125,-0.1875,-0.75
1480691039286250,-4.125,-3.4375,0.375
1480691039315325,-1.0625,-1.25,-0.625
1480691039331368,-0.1875,-0.4375,-1.9375
1480691039350919,0.4375,-1.4375,-1.625
1480691039365961,-0.3125,-2.75,-0.5
1480691039391027,-0.0625,-2.6875,0.375
1480691039407069,2.25,-0.9375,-0.25
1480691039425619,1.5625,-0.0625,-1.1875
1480691039445672,-0.0625,0.0625,-0.8125
1480691039470739,-1.75,-0.125,-0.4375
1480691039485780,-2.1875,-0.3125,-0.3125
1480691039515859,-0.5,0.125,0
1480691039534408,0.8125,-0.1875,0.1875
1480691039548946,1.75,-0.1875,0.0625
1480691039570004,3.5,-0.1875,0.5
1480691039586548,2.625,-0.0625,-0.1875
1480691039605597,-0.0625,-0.25,-0.375
1480691039624147,-1.0625,-0.9375,-0.375
1480691039653725,-0.6875,-1.375,0.375
1480691039668765,2.1875,-1,0.625
1480691039684306,5.25,0.5625,-0.8125
1480691039706366,2.75,1.0625,-1.1875
1480691039733438,-0.9375,-0.5625,-0.875
1480691039743463,-0.8125,-1.5625,0.1875
1480691039789085,0.4375,-0.6875,0.4375
1480691039793098,0.5,-0.3125,-0.1875
1480691039803627,2.6875,0.25,-0.25
1480691039840222,1.875,0.125,0.3125
1480691039845735,-0.25,0,0.5625
1480691039871805,-1.4375,-0.4375,0.9375
1480691039885843,-1.5625,0.125,0.9375
1480691039906397,-2.25,0.1875,1.125
1480691039946003,-2.875,0.125,0.625
1480691039948509,-3,-0.1875,0.6875
1480691039968061,-2.6875,-0.4375,1
1480691039997640,-2.1875,-0.125,0.6875
1480691040006162,-2.125,-0.6875,0.5
1480691040026216,-2.25,-1,0.25
1480691040042760,-3.25,-1.0625,-0.4375
1480691040065320,-3.6875,-0.5,-1.125
1480691040086877,-2.8125,-0.8125,-0.5625
1480691040103424,-1.125,-0.8125,-0.8125
1480691040143026,-1.0625,-1,-0.25
1480691040150546,-1,-0.8125,-0.875
1480691040163581,-1,-0.5,-0.9375
1480691040186144,-0.9375,-0.3125,-0.625
1480691040206195,-0.9375,-0.3125,-0.5
1480691040228754,-1.25,-0.1875,-0.1875
1480691040246802,0.3125,0.125,-0.5625
1480691040273875,0.125,0.3125,-0.8125
1480691040282898,-1.125,0.4375,-0.9375
1480691040305458,-1.5625,0.6875,-1.375
1480691040343561,-1.5,0.875,-1.125
1480691040345565,-0.375,0.4375,-0.125
1480691040356094,-1,-0.5,-0.9375
1480691040360104,-0.9375,-0.3125,-0.625
1480691040380658,1.4375,0.1875,-0.375
1480691040388680,1.125,0.6875,-0.875
1480691040402721,0.625,-0.125,-1.1875
1480691040426280,-1.9375,0.3125,-0.5625
1480691040447837,-1.625,0.625,-0.625
1480691040462877,-0.6875,0.625,-1.75
1480691040500978,-0.8125,0.0625,-0.8125
1480691040515517,-0.3125,0.5,-0.3125
1480691040522035,-0.8125,0.9375,-0.8125
1480691040545597,-3.3125,0.8125,-0.4375
1480691040575677,-0.25,1,-1.1875
1480691040582194,1,1.625,-1.5
1480691040619295,1,1.25,-1.25
1480691040634835,-0.6875,-0.625,-0.0625
1480691040656392,-1.25,-0.375,0.125
1480691040664914,0.5625,2.0625,-0.625
1480691040696498,-1.25,1.0625,-1
1480691040718056,-0.0625,-0.5,-0.25
1480691040725576,2.125,0.3125,0.25
1480691040748637,2.5,1.75,-1.1875
1480691040770698,-0.0625,0.125,-0.8125
1480691040809298,1.5625,0.25,-0.8125
1480691040812306,1.9375,1.5,-1.1875
1480691040828850,-0.9375,1.75,-1.25
1480691040858930,-1.625,0.0625,-0.6875
1480691040867954,-0.1875,-0.0625,-1
1480691040914077,0.75,0.125,-1.1875
1480691040919592,0.1875,0.3125,-1.375
1480691040929117,-1.6875,0.4375,-0.625
1480691040949169,0.0625,0.75,-0.875
1480691040972733,0.5625,0.125,-0.875
1480691040993789,0.875,0.3125,-1.0625
1480691041008829,-0.125,0.1875,-0.9375
1480691041027378,-1.75,-0.4375,-1.125
1480691041047933,-1.9375,-0.3125,-0.75
1480691041071997,-1.5,-0.125,-0.375
1480691041085535,-3.3125,0.125,-0.8125
1480691041108594,-3.6875,-0.125,-0.3125
1480691041129149,-1.125,-0.1875,-0.875
1480691041145692,-1.75,0.1875,-0.875
1480691041181288,-1.5625,0.75,-1.3125
1480691041196829,-0.625,0.8125,-1.1875
1480691041214876,-1.1875,-0.6875,-0.75
1480691041233937,-1.8125,-1.625,0.4375
1480691041266012,1.125,-1.375,0
1480691041275538,2.8125,-0.75,-0.5
1480691041288576,2.125,-0.3125,-0.8125
1480691041310633,-0.25,-0.9375,-0.25
1480691041331688,-1.1875,-2.5,-0.1875
1480691041347730,1.625,-2.5,0.125
1480691041370290,2.5,-1.3125,0
1480691041384830,1.5,0.25,0.1875
1480691041408391,1.6875,0.125,-0.5
1480691041445490,-0.3125,-0.125,-0.625
1480691041447495,-0.6875,-1.1875,-0.0625
1480691041476071,-0.0625,-1.125,0.375
1480691041490610,0.125,-0.625,0.1875
1480691041504648,-1.75,0.1875,-0.0625
1480691041527709,1.0625,1.5625,-1.5625
1480691041556284,1.1875,1.5,-1.3125
1480691041566311,-1.4375,0,-0.5
1480691041593885,-1.125,-0.9375,-0.0625
1480691041610428,-1.0625,-0.5625,0.4375
1480691041639004,0.625,0.125,0.125
1480691041648029,0.0625,1.625,-0.1875
1480691041670589,0.625,1.0625,-0.3125
1480691041684626,-0.4375,1,-0.5625
1480691041709693,1.1875,0.9375,0.6875
1480691041731752,0.0625,-0.125,0.6875
1480691041751805,-1.875,-0.3125,0.375
1480691041767849,-1.9375,-0.875,0.875
1480691041804447,0.0625,0,1.1875
1480691041811463,0.6875,0.9375,-0.3125
1480691041828007,-0.375,1.25,-1.125
1480691041851069,-0.8125,0.6875,-0.625
1480691041881148,-1.1875,-0.375,-0.6875
1480691041888669,-2,-0.25,0
1480691041911729,-1.5,0.375,-0.1875
1480691041931283,-0.9375,0.125,0
1480691041947825,0.1875,-0.625,-0.1875
1480691041970385,1.4375,-1.0625,0.375
1480691041999463,0.3125,-2.375,0.6875
1480691042009489,-0.8125,-3.5,1.375
1480691042053607,-1.625,-4.3125,2.1875
1480691042058118,-0.625,-5,2.4375
1480691042067644,-0.8125,-3.3125,2.5625
1480691042099229,-4.9375,-1.625,1.4375
1480691042111260,-4.875,-1.625,0.8125
1480691042128306,-2.875,-0.9375,2.4375
1480691042158387,2.3125,-0.5625,2.125
1480691042173425,0.375,-0.6875,2.625
1480691042195986,1,-1.25,1.875
1480691042214034,0.3125,-0.75,1.9375
1480691042234589,-3,-0.6875,1.5625
1480691042248124,-2.6875,-2.375,1.375
1480691042278705,2,-2.5,1.125
1480691042292743,5.5,-4,1
1480691042307783,3.875,-3.875,2.0625
1480691042330344,3.1875,-2.375,2.0625
1480691042359921,0.125,-0.75,0.6875
1480691042384487,-0.6875,0.125,0.3125
1480691042390503,0.3125,-0.625,1.5625
1480691042436126,3.3125,0,1.625
1480691042438631,0.1875,2.25,2.125
1480691042451667,1.1875,4.4375,0.0625
1480691042473223,0.6875,3.5625,-0.3125
1480691042494279,-4.6875,2.9375,1.4375
1480691042520348,0.75,3.5625,1.875
1480691042532881,1.25,2.375,1.875
1480691042562962,-2.6875,0.4375,2.6875
1480691042570482,0,0.1875,0.5625
1480691042600561,5.125,0.5,-0.5
1480691042614097,4.625,0.6875,0.25
1480691042661223,-0.625,0.9375,-0.1875
1480691042665233,-8.8125,-1.375,-1.375
1480691042681777,-14.0625,-7,-0.5
1480691042705340,-9.25,-10.8125,-0.125
1480691042713361,-0.1875,-7.75,1.3125
1480691042743442,2.75,-3.0625,2.125
1480691042750460,-0.75,3.125,1.25
1480691042773020,5.875,3.1875,-2.4375
1480691042794076,6.75,3.25,0
1480691042810118,9.1875,7.1875,1.625
1480691042840198,13.125,8.8125,0.625
1480691042853734,0.3125,3,0.25
1480691042870280,-5.9375,-0.5,-0.25
1480691042892839,-7.3125,-4.8125,0
1480691042915399,-2.5625,-3.875,-0.6875
1480691042938961,0.3125,-4.9375,0.375
1480691042959516,-7.4375,-6,-0.9375
1480691042981575,-15.5,-5.0625,-0.375
1480691043000124,-12.75,-6.5625,0.4375
1480691043021681,-1.0625,-4.1875,1.875
1480691043043239,7.5,-1.3125,0.125
1480691043050257,8.625,0.5625,-1.0625
1480691043072817,9.125,2.6875,-1.5625
1480691043119444,12.0625,3.1875,-2.375
1480691043124456,5.75,3.6875,-2.125
1480691043134481,3.1875,4.5,-0.4375
1480691043156541,7.1875,4.625,0.5625
1480691043172081,9,6.0625,1.3125
1480691043194140,10.4375,9.625,0.625
1480691043215697,4.125,8.9375,0.1875
1480691043229734,-2.875,1.875,-1
1480691043275857,-10.125,-3.875,0.3125
1480691043278364,-7.5,-6.3125,-1.375
1480691043289895,-5.5,-6.1875,-1.5
1480691043312956,-10.6875,-5.0625,-2.5
1480691043342533,-13.125,-4.3125,-2.3125
1480691043351057,-12.625,-4.25,-2.5
1480691043372614,-3.875,-4.5,-2.25
1480691043402195,3.625,-0.5,-0.375
1480691043411719,9.0625,4.375,-2.125
1480691043435282,3.4375,5,-2.125
1480691043455335,3.75,4.75,-1.125
1480691043470375,7.8125,5.4375,-0.3125
1480691043506471,11,6.1875,0.5
1480691043515495,9.9375,4.4375,0.25
1480691043530534,-0.625,0.4375,0.3125
1480691043553094,-9.25,-3.5625,1.0625
1480691043576156,-12.0625,-2.875,0.6875
1480691043597712,-4.875,-3.75,-0.0625
1480691043613254,0.6875,-5.5,-0.5
1480691043636817,-2.3125,-7.8125,0.875
1480691043663890,-10.25,-8.625,2.0625
1480691043686450,-12.8125,-12.75,4.3125
1480691043695975,-6.375,-9.6875,4.375
1480691043716528,-0.8125,-4,-0.5625
1480691043771675,-1.8125,4.1875,-0.25
1480691043778694,10.0625,6.4375,-2.3125
1480691043783708,10.8125,5.9375,-2.75
1480691043792731,7.875,7.4375,1.5
1480691043815291,10.625,12.125,-1.625
1480691043836347,13.6875,13.375,-2.3125
1480691043853393,8.125,5.6875,-0.0625
1480691043875953,-4.0625,2.1875,-0.25
1480691043896508,-13.8125,-0.125,-0.5625
1480691043913051,-9.25,-3.25,-0.1875
1480691043942630,2.25,-4.8125,0.5625
1480691043965190,-1.8125,-7.5,-0.125
1480691043973713,-11.3125,-5.9375,-1.375
1480691043995270,-14.25,-5.0625,1.0625
1480691044033371,-6.375,-3.3125,1.625
1480691044035880,-4.0625,-4.9375,0.8125
1480691044055431,2.875,-0.25,-1
1480691044086013,4.625,5.9375,-1.3125
1480691044093030,8,4.5,-1.5625
1480691044115590,10.5,2.5,-0.4375
1480691044145670,9.4375,1.25,2
1480691044152689,6.0625,3.6875,3.125
1480691044183270,8.0625,4.6875,3.4375
1480691044198811,2.375,4.5,2.3125
1480691044220370,-3.4375,2,1.6875
1480691044236913,-3.125,-0.9375,1.625
1480691044268501,-0.75,-1.875,0.5
1480691044275013,-0.9375,-3.3125,0
1480691044304093,-3.1875,-6.3125,-0.125
1480691044326150,-3,-5.5625,-2
1480691044332166,-6.8125,-4.75,-1.75
1480691044369266,-6.9375,-8.1875,-0.875
1480691044385310,1.3125,-5.25,1.5
1480691044400348,7.0625,1.625,-1.1875
1480691044415387,5.25,3.625,-1.9375
1480691044437948,5,3,-2.125
1480691044460508,9.5625,5.875,1.3125
1480691044477051,2,4.1875,0.25
1480691044498108,-5.25,3.0625,-0.5
1480691044520166,-2.8125,1.1875,0.5625
1480691044542725,-1.875,-1.0625,1.375
1480691044588347,-3.125,-3.125,1.0625
1480691044603387,-4.5625,-3.6875,0.0625
1480691044605894,-4.75,-3.3125,-1.375
1480691044617928,-3.625,-4.125,-0.1875
1480691044638982,-1.75,-1.0625,1
1480691044669563,-1.25,2.4375,-0.125
1480691044679589,-0.4375,2.5625,-1.0625
1480691044698641,5.0625,3.6875,-0.625
1480691044715686,7.5,6.4375,-0.75
1480691044737745,4.625,5.4375,-0.8125
1480691044773840,1.8125,2.875,-0.625
1480691044799409,-2.6875,0.875,-2.6875
1480691044820966,-5.4375,0.3125,-2.625
1480691044823474,-2.25,-2.25,-0.9375
1480691044835008,-1.0625,-3.5,-1.5625
1480691044858566,-3.875,-2,-1.5
1480691044882128,-9.375,-1.75,-0.25
1480691044895665,-2.8125,1.0625,-0.75
1480691044918227,2.75,1.875,0.1875
1480691044940283,1.4375,3.25,0.4375
1480691044955324,5,1.625,0.3125
1480691044985405,3.0625,0.625,-0.3125
1480691044998939,3.6875,1.5,1
1480691045015483,4,1.25,0
1480691045038044,1.125,-0.6875,-0.25
1480691045069628,-2.8125,-1.1875,-0.6875
1480691045075643,-6.8125,-5.0625,-0.25
1480691045097702,-9.625,-5.625,0
1480691045136806,-3.875,-2.6875,0.125
1480691045141819,-1.5625,-2.4375,1.125
1480691045157864,3.8125,-2.5625,0.8125
1480691045180422,4.8125,1.4375,-0.8125
1480691045195477,-0.5625,2.25,1.625
1480691045218023,0.25,-1.125,-1.1875
1480691045240582,-0.9375,-1.9375,-0.125
1480691045261639,-6.625,-1.4375,-0.6875
1480691045284198,-6.1875,-2.125,-0.6875
1480691045300243,-0.5,-2.5625,-0.25
1480691045346864,3.0625,-4.125,-0.0625
1480691045351380,4,-3.5625,0
1480691045360400,2.0625,-3.4375,0.125
1480691045374939,2.875,-1.9375,0
1480691045438106,0.75,-1.6875,1
1480691045441616,0.125,-1.125,0.875
1480691045458162,-3.0625,1.9375,-0.125
1480691045480720,0.75,3.625,0.75
1480691045494758,6.625,5.875,0.0625
1480691045517819,14.3125,7.25,-0.9375
1480691045540379,8.0625,5.4375,-0.6875
1480691045569457,-2.0625,2.4375,0.125
1480691045591516,-3,-2.4375,0.3125
1480691045624102,-2.75,-2.75,-0.125
1480691045629115,-1.8125,-4.625,0.5625
1480691045639145,-4.6875,-4.9375,0.5
1480691045660198,-7.625,-4.4375,-0.9375
1480691045688774,-9.4375,-4,0.375
1480691045697797,-9.3125,-5.125,1.6875
1480691045720357,-4,-0.5625,-0.5
1480691045741915,-1.5,2.3125,0.8125
1480691045781019,11,3.5625,0.6875
1480691045796059,14.5625,3.9375,-1.125
1480691045808592,8.9375,3.5,0
1480691045819120,1.8125,1.5625,-1.0625
1480691045847696,0,2.25,-1.1875
1480691045868752,2.25,2.25,-1
1480691045885299,5.625,1.0625,-0.8125
1480691045907856,0.625,0.25,-0.5
1480691045928912,-9.0625,-2.625,-0.625
1480691045937936,-10.5625,-2.4375,-0.125
1480691045968018,-5.75,-1.5625,1.3125
1480691045990577,-0.4375,-1.875,0.5
1480691045998096,1.75,0.3125,0
1480691046020657,0.5,1,0.0625
1480691046050235,3.125,-0.3125,-0.0625
1480691046065275,3.125,-0.75,-1.625
1480691046080315,-1.0625,-0.6875,0
1480691046102875,-1.6875,-0.75,1.25
1480691046125435,2.5,-0.4375,0.125
1480691046140976,7.8125,2,0
1480691046180080,7.4375,3.9375,0.8125
1480691046184091,4.0625,4.375,-0.875
1480691046200636,4.5,2.625,0.0625
1480691046222694,3.9375,1.1875,2.0625
1480691046252773,-1.875,0.5,0.75
1480691046260293,-10.5,-1.3125,1.5
1480691046290374,-6.1875,-2.625,-0.125
1480691046297392,-2.0625,-5.0625,-1.3125
1480691046321957,3.4375,-2.5625,-0.4375
1480691046343515,-4.5,-2.25,-1.25
1480691046357051,-9.5625,-5.0625,0.6875
1480691046381115,-3.5,-4.0625,-0.1875
1480691046402671,7.1875,-0.5,-1.75
1480691046417211,8,0.125,-2.8125
1480691046440271,8.6875,-1.375,-1.5625
1480691046462831,2.4375,-0.25,0.125
1480691046485392,1.25,1.375,-0.125
1480691046500432,0.4375,1.25,-1.0625
1480691046523995,-1.75,-0.0625,-0.625
1480691046544047,-0.5,0.6875,-0.5625
1480691046568115,0.6875,0.6875,-0.0625
1480691046582650,0.0625,0,-0.3125
1480691046603706,2.75,0.125,0.3125
1480691046620250,1.4375,0.125,0.5625
1480691046643312,-2.625,0.4375,0.25
1480691046665370,-5.9375,0.1875,0.125
1480691046681914,-6.9375,-0.5,0.9375
1480691046703472,-5.75,0.5625,-0.25
1480691046724027,-6.8125,0.9375,-0.125
1480691046741576,1.875,0.875,-0.6875
1480691046762629,9.4375,0.9375,-1
1480691046784186,9.375,0.125,-0.875
1480691046800731,2.9375,0.5625,-0.6875
1480691046822790,-1.4375,0.1875,0.125
1480691046847856,-2.0625,0.3125,-0.4375
1480691046861894,-3.25,0.375,1.0625
1480691046885456,-4.3125,-1.1875,0.8125
1480691046905008,-5.375,-0.625,0.4375
1480691046928069,-2.625,-1.9375,0.5625
1480691046943108,-0.8125,-1.875,1.6875
1480691046965167,1.375,-0.3125,0.875
1480691046980208,3.125,0.25,-1.0625
1480691047003771,2.8125,-1.25,-0.4375
1480691047025327,1.4375,-1.0625,-0.5
1480691047040869,2.5625,0.0625,-0.625
1480691047062928,4.5,2.5625,-0.9375
1480691047085487,6.3125,3.25,-1.8125
1480691047099526,2.9375,1.125,-0.625
1480691047123088,-2.5625,0.0625,0.375
1480691047153669,-5.9375,-1.125,0.0625
1480691047162692,-4.6875,-1.5,0.4375
1480691047188762,-3.6875,0.125,0.8125
1480691047205307,-4.5,0.25,0.6875
1480691047219851,-7.25,-1.375,0.6875
1480691047242906,5.6875,-0.375,-0.1875
1480691047279504,5.9375,1.6875,-1.0625
1480691047294042,7.1875,0.4375,0.3125
1480691047318111,2.625,-0.5625,0.375
1480691047325626,-1.1875,-0.0625,1.0625
1480691047353702,-1.0625,0.8125,0.0625
1480691047369244,3.4375,1.5,0.1875
1480691047386789,6.125,3.3125,-0.0625
1480691047400828,5,3.4375,-0.1875
1480691047424389,1.1875,1.125,0.375
1480691047452965,1.0625,2.75,0.5
1480691047466501,-6.3125,1.75,0
1480691047483045,-3,-0.6875,0.3125
1480691047505605,-1.1875,-3.3125,-0.1875
1480691047542201,-6.3125,-3.4375,0.1875
1480691047556243,-10.25,-4,-0.75
1480691047565765,-4.5625,-3.4375,1.25
1480691047586320,-0.75,-2.6875,-0.1875
1480691047602864,4.625,-1.1875,-0.0625
1480691047639461,7,1.25,-1.1875
1480691047648987,12.25,0.125,-0.5625
1480691047663023,0.8125,1.5,0.125
1480691047685583,-2.0625,2.625,0.625
1480691047706640,10.25,7.4375,-0.75
1480691047745743,11.6875,6.1875,-0.5625
1480691047748250,-2.125,2,0.5
1480691047766298,-6.6875,-0.9375,0.4375
1480691047782842,-3.4375,-2.4375,1.75
1480691047806906,1.5,-3.6875,0.125
1480691047843503,2.375,-6.3125,0.6875
1480691047846010,-0.5625,-8.3125,0.5625
1480691047865563,-2.0625,-8.875,0.25
1480691047889124,-3.9375,-6.1875,2
1480691047910682,-2.5,-4.9375,1.25
1480691047934749,9.0625,-1.75,-1.125
1480691047947780,5.25,-1.3125,-0.9375
1480691047962820,-0.6875,1.875,-0.625
1480691047985383,5.0625,1.8125,-2.9375
1480691048007941,5.5625,2.25,-0.125
1480691048022482,6.625,3.5625,-0.6875
1480691048046543,0.8125,2.6875,-1.5
1480691048068100,0.5625,3.3125,-1.4375
1480691048089156,-0.3125,1.75,-1.9375
1480691048120240,0.125,0.4375,-0.6875
1480691048128260,-0.8125,-1.125,-0.5625
1480691048150822,-1.625,-2.3125,0.1875
1480691048165359,-4.5625,-1.625,-0.8125
1480691048188922,-4.125,-1.375,-0.8125
1480691048202459,-2.8125,-1.375,0
1480691048233541,-4.25,-1.4375,0.4375
1480691048249082,3.4375,0.8125,-2.3125
1480691048262116,0.25,2.9375,-0.25
1480691048298714,5.0625,1.125,-0.5
1480691048313754,1.75,1.625,-2.375
1480691048322276,3.25,3.1875,-0.3125
1480691048345337,6.5,4.875,-1.125
1480691048368901,-0.625,0.5625,-0.25
1480691048405999,-6.375,-1.25,-0.875
1480691048408506,-7.125,-3.5625,0.8125
1480691048428058,-4.1875,-5.25,1.125
1480691048449114,0.0625,-2.625,0.9375
1480691048471674,-1.5,-3,1.3125
1480691048487716,-6.0625,-2.75,1
1480691048508772,-4.5,-0.6875,0.1875
1480691048525317,4.0625,1.75,-0.4375
1480691048549381,11.625,1,-1.8125
1480691048576452,6.6875,1.125,-2.625
1480691048592996,4.5625,1.375,-1.3125
1480691048615556,2.875,1.5,-1.8125
1480691048629094,0.9375,0.3125,-1.5
1480691048645136,-0.9375,-0.25,-0.4375
1480691048667698,-4.375,-0.9375,1.375
1480691048689755,-7.9375,-3.5,1.625
1480691048705797,-5.375,-3.5625,1.6875
1480691048727855,-0.8125,-1.3125,1.375
1480691048765956,1.625,-1,2.4375
1480691048788516,-0.3125,-3.125,1.0625
1480691048792025,3.3125,-2.5,-0.25
1480691048810074,3.3125,-0.5625,-0.0625
1480691048825615,11,0.1875,-1.25
1480691048847673,7.625,0.875,0
1480691048870234,5.375,1.4375,-0.625
1480691048884774,1.4375,3.6875,-1.5
1480691048907834,1.0625,5.625,-1.625
1480691048937913,-0.125,2.5625,-2.125
1480691048945434,2,0.875,0.25
1480691048968495,4,0.9375,-0.125
1480691048991055,-5,0.5,1.9375
1480691049020132,-6.9375,-0.9375,0.1875
1480691049051215,-4.5,-2.6875,-0.4375
1480691049053221,-1.625,-5.0625,2
1480691049064751,-1.8125,-4.75,0.5625
1480691049101350,-6.5,-4.5625,0.75
1480691049116389,-6.5625,-3.6875,1.9375
1480691049124913,-1.125,-1.5625,1.5625
1480691049147972,8.25,1.1875,-1.625
1480691049187077,4.625,2.4375,-0.125
1480691049191589,6.0625,3.125,-1.3125
1480691049210138,4.9375,3.0625,-0.125
1480691049239215,4.5,3.8125,0.125
1480691049251750,1.25,2.5625,-0.625
1480691049267795,-1.625,0.4375,-0.0625
1480691049298873,-1.375,-0.3125,-0.375
1480691049318927,2.5625,-1,-0.4375
1480691049327951,-0.125,-1.6875,0.5
1480691049364047,-5.375,-1.625,0
1480691049380089,-5.8125,-1.0625,0.5
1480691049393625,-4.8125,0.125,0.1875
1480691049410169,-4,0.3125,0.375
1480691049431225,3.625,2.1875,-0.4375
1480691049448771,8.5,2.4375,-1.3125
1480691049478852,5.375,0.25,-2.5625
1480691049500410,2.5625,-1.5,-2.0625
1480691049515450,7.1875,0.6875,-2.9375
1480691049530991,5.25,1.3125,-2.5
1480691049551546,2.125,-1.625,-1.3125
1480691049575108,1.625,-1.5,-0.25
1480691049591653,-2.625,-1.875,0.875
1480691049611204,-5.625,-1.9375,0.125
1480691049635770,-2.0625,-1.5625,1.6875
1480691049657829,-1.1875,-2.6875,3.25
1480691049679886,0.6875,-1,1.4375
1480691049701448,5.8125,2.3125,1.1875
1480691049710468,9.0625,3.375,-0.25
1480691049740551,5.25,2.875,-0.0625
1480691049754084,6.5625,3.9375,0
1480691049771129,7.0625,6.4375,-0.25
1480691049792686,6,8,-0.375
1480691049821262,-4.1875,1.875,-0.25
1480691049830286,-6.875,-1.1875,1
1480691049853849,-5.75,-2.375,1.75
1480691049875908,-2.625,-1.5625,2.5625
1480691049890447,-9.625,2.1875,2.3125
1480691049913508,-15.1875,-0.125,1.625
1480691049935567,-11.625,-1.8125,1.5625
1480691049951609,-0.5,1.625,1.5
1480691049978681,10.75,3.9375,-2.625
1480691049987204,6.625,0.25,0
1480691050010265,6,-0.9375,0
1480691050033830,2.8125,1.0625,-0.9375
1480691050055887,-0.5625,4.5625,0.375
1480691050070425,2.6875,5.75,-0.4375
1480691050107022,-0.625,8.1875,0.875
1480691050117049,-3,9.875,0.75
1480691050131087,-8.5,2.9375,1.4375
1480691050158660,-10.9375,2.25,-1.625
1480691050173700,-5,-1.625,0.25
1480691050197764,-8.8125,-1.0625,2.875
1480691050214308,-20.4375,-4.5,1.5625
1480691050233860,-17.6875,-5.625,2.125
1480691050250406,0.5625,-1.8125,2.1875
1480691050278980,16.4375,4.6875,-1.1875
1480691050295524,13.25,4.3125,0.125
1480691050317081,1.375,1.6875,0.5
1480691050334630,-2.0625,1.5625,0.6875
1480691050370723,1.125,2,1.5
1480691050376238,6.1875,5.5,-0.25
1480691050392782,3.4375,7,0.375
1480691050416345,-5.75,2.8125,0.3125
1480691050430382,-3.6875,-0.625,1.625
1480691050453444,2.6875,1.5,1.375
1480691050473496,-0.75,2.0625,-1.1875
1480691050504078,-1.9375,0.75,-1.3125
1480691050520121,-1.25,-1.0625,-0.3125
1480691050534174,2.5,0.5625,-1.1875
1480691050556217,-1.3125,0.4375,-0.1875
1480691050572760,1.5,1.6875,-1.8125
1480691050601341,2.4375,4.6875,-1.25
1480691050613870,-6.375,6.1875,-0.0625
1480691050639438,-7.25,6.5625,-0.25
1480691050662499,-4.0625,6.625,0
1480691050671022,-0.5,4.875,1
1480691050692579,-0.1875,2.4375,0.125
1480691050722660,-4.0625,-1,-0.1875
1480691050730681,-4.625,-1.4375,1.125
1480691050752741,-4.375,-2.8125,1.875
1480691050777807,-0.375,-2.125,2.5625
1480691050791345,7.4375,-0.3125,1.625
1480691050812915,8.5625,2.4375,0.375
1480691050843481,2.4375,3.0625,-0.8125
1480691050851004,-4.75,3.0625,-2.8125
1480691050880078,-7.0625,1.0625,-4
1480691050895620,-1.625,-0.25,-3.9375
1480691050910158,3.0625,-1.1875,-4.75
1480691050934222,5.3125,-1.9375,-4.5625
1480691050962798,3.9375,-2.875,-3.4375
1480691050983854,3.125,-3.0625,-3.0625
1480691050993380,2.9375,-2.125,-1.25
1480691051015939,3.0625,-0.875,-0.9375
1480691051040005,0.3125,-1,-1.125
1480691051052537,2.125,1.5,0.75
1480691051075598,4.25,2.5,0.5
1480691051090138,-3.0625,1.1875,-0.0625
1480691051113199,-0.375,0.3125,0.4375
1480691051144781,2.0625,0.1875,0.0625
1480691051158319,0,-0.5,-0.5625
1480691051174361,1.875,-1.375,0.25
1480691051195918,2.625,-1.125,-0.5625
1480691051223993,-1.6875,-1.5,0.0625
1480691051240537,-0.75,-1.75,0.25
1480691051262094,0.375,-1.8125,0.5
1480691051276131,0.3125,-1.4375,1
1480691051292675,-1.25,0.1875,0.1875
1480691051321251,-0.125,0.5,-0.5
1480691051337295,-2.1875,-0.3125,-1.125
1480691051353337,-3.75,-2.3125,-0.3125
1480691051375395,-3.3125,-2.6875,-0.8125
1480691051396952,-4.9375,-3.25,-0.75
1480691051421017,-7.375,-2.75,-0.875
1480691051444579,-11.875,-2.6875,0.1875
1480691051457614,-11.4375,-2.625,-1.125
1480691051473656,-9.625,-2.375,-1.5
1480691051519278,-9.9375,-4.3125,-0.6875
1480691051540835,-5.875,-8.4375,-0.6875
1480691051543342,-3.125,-10.5625,0.4375
1480691051570915,-8.0625,-10.1875,1.3125
1480691051576430,-18.4375,-7.125,0.375
1480691051601498,-29.6875,-6.9375,-5.125
1480691051623055,-40.75,-12.6875,-4.625
1480691051636590,-35.5,-15.375,-1.5625
1480691051652131,-18.375,-13,0.5
1480691051675192,-6.6875,-9.1875,0.375
1480691051705273,-5.25,0.4375,2.5
1480691051721315,9.6875,2.125,-1.75
1480691051735354,1.8125,-0.5,-3.0625
1480691051757913,-5.5625,-10,0.25
1480691051771950,-5.6875,-10.375,5.1875
1480691051801528,-3.3125,-3.5,6.375
1480691051819075,2.875,2.625,4
1480691051840131,-2.9375,6.4375,-1.125
1480691051879235,-1.5625,7.625,-0.375
1480691051900797,-2.0625,8.25,1.1875
1480691051903306,1.625,7.8125,-0.5
1480691051916838,0,4.4375,-2.0625
1480691051937892,-0.5625,0.875,-3.1875
1480691051952430,2.5,2.3125,-3.25
1480691051975993,7,4.0625,-2.25
1480691051998051,1.4375,0.25,-2.5
1480691052012089,-1.625,-4.5625,-1.9375
1480691052035151,7.875,-7.75,-2.75
1480691052065230,11.1875,-6.0625,-1.4375
1480691052072249,19.25,-4,-2.625
1480691052095310,24.4375,-1.5,-3.375
1480691052123886,19,0.125,-4.125
1480691052155972,9.6875,2.0625,-4.5625
1480691052158477,7.5,2.8125,-4.4375
1480691052178030,2.1875,0.6875,-2.8125
1480691052199087,-1.8125,-1.4375,-0.5625
1480691052216634,1.9375,-2,1
1480691052238191,9.75,2,1.875
1480691052258744,15.5625,5.0625,0.5
1480691052275288,12.0625,5.375,0.125
1480691052305369,7.5625,5.25,0.625
1480691052318904,5,3.4375,0.5625
1480691052348985,3.1875,3.0625,0.25
1480691052372045,1.6875,2.0625,0.0625
1480691052386082,5.375,0.875,0.25
1480691052401626,8.8125,-1.1875,0
1480691052433714,10.0625,-1.3125,0.625
1480691052438723,12.375,-2.125,-1.1875
1480691052456771,9.9375,-2.1875,-0.8125
1480691052477826,8.8125,-3.5625,-1.125
1480691052500391,6.375,-5.0625,-1.125
1480691052515928,10.125,-4.9375,-2
1480691052553529,16.375,-4.25,-0.875
1480691052559043,11.5,-3.625,-2
1480691052583109,3.375,-4.625,-1.75
1480691052598147,2.0625,-6.0625,-1.375
1480691052628728,4.125,-5.5,-0.0625
1480691052650287,4.375,-3.8125,-0.625
1480691052672845,2.5625,-2.6875,-1.6875
1480691052681869,0.6875,-3,-1.75
1480691052709944,0.5625,-2.5,-0.4375
1480691052719971,0.375,-1.125,0
1480691052742530,-3.25,0.5625,-0.875
1480691052754563,-4.25,0.3125,-1.625
1480691052778125,-2.6875,0.625,-0.3125
1480691052800186,2.0625,0.9375,0.375
1480691052814724,0.5625,1.1875,0
1480691052845305,-0.25,0.375,0.0625
1480691052860846,-1,-0.0625,0.75
1480691052875383,-0.8125,1,1.0625
1480691052907470,-0.3125,0.5,0.375
1480691052928025,-2.625,0.5625,0.4375
1480691052934541,-1.5,2.0625,0.9375
1480691052958104,1.0625,1.9375,-0.1875
1480691052995203,-1.375,1,-0.4375
1480691052997709,-0.625,1.0625,0
1480691053017764,0.875,1.125,-0.375
1480691053040323,-1.6875,1.5,-0.625
1480691053054861,-1.625,1.8125,-0.4375
1480691053078424,-0.0625,1.75,-0.875
1480691053100986,-0.9375,2.4375,-0.4375
1480691053121538,-1.625,2.625,0
1480691053138083,-3.5,3.5625,0.375
1480691053161145,-2.375,3.375,0
1480691053182702,-3.25,3.625,0.8125
1480691053205764,-2.25,2.8125,0.3125
1480691053220303,-3.1875,2.5,0.3125
1480691053248879,-1.3125,1.9375,-0.5
1480691053265422,-2.3125,1.5625,0.0625
1480691053287981,-0.8125,0.5,0.375
1480691053301519,0.5,0.1875,0.125
1480691053318062,0.25,-0.0625,-0.0625
1480691053346136,-0.75,-0.25,0.25
1480691053362178,1.9375,0.0625,0.125
1480691053378221,1.25,0.375,0.375
1480691053401282,0.8125,-0.1875,-0.0625
1480691053421336,-0.5,-0.75,-0.375
1480691053443394,-0.8125,-1.375,-0.4375
1480691053461443,-0.5,-0.8125,-0.125
1480691053484504,0.25,-0.375,-0.5
1480691053498040,-0.8125,-0.375,-0.375
1480691053529624,-0.25,-0.3125,-0.625
1480691053543159,1.125,-0.6875,-1.3125
1480691053557700,-0.1875,0,-0.6875
1480691053580259,-0.4375,-0.1875,-0.75
1480691053610339,-3.6875,-0.8125,0.3125
1480691053625379,-3.5625,-1.8125,0.3125
1480691053640418,-1.25,-1.1875,0.1875
1480691053679020,1.9375,0.9375,-0.125
1480691053684035,1.875,1,0.5
1480691053706594,-0.375,0.6875,0.8125
1480691053763747,0,0.5625,0.5625
1480691053767257,-0.5,1.375,0.125
1480691053782797,-0.9375,1.375,0.5
1480691053813378,-0.1875,1.125,-0.125
1480691053821901,-0.1875,0.5,0.0625
1480691053843458,1.9375,-0.5,-0.125
1480691053856995,2.0625,-1,0.25
1480691053888078,0.875,-1.25,0.4375
1480691053904120,-0.1875,-1.375,0.125
1480691053917156,0.375,-2.125,0.5625
1480691053947735,5,-0.625,0.125
1480691053962775,5.6875,0.3125,-0.5625
1480691053977315,1.9375,0.125,-0.1875
1480691054015416,-1.5,-0.9375,0
1480691054022936,-1.6875,-1,0.3125
1480691054037474,-1,-0.0625,0
1480691054060536,-0.0625,0.6875,0.1875
1480691054083099,0.125,1.125,-0.3125
1480691054104652,0.125,0.75,-0.4375
1480691054106157,-0.5,0.6875,0.0625
1480691054125709,0,2.0625,0.1875
1480691054148269,-1.5625,3.25,0
1480691054170829,-4.6875,2.3125,0
1480691054185869,-5.3125,0.6875,0.1875
1480691054224472,-2.3125,0.375,0.9375
1480691054230989,2.125,0.5625,0.0625
1480691054250541,2.125,0.25,0.125
1480691054275607,1.1875,0.125,0
1480691054301176,0.8125,-0.0625,-0.5625
1480691054313208,-0.5,0.5,-0.875
1480691054328250,-1.9375,0.3125,-0.8125
1480691054359330,0.5625,0.125,-0.8125
1480691054373368,1.1875,-0.0625,0
1480691054388408,1.625,-0.0625,-0.25
1480691054413474,0.3125,-0.125,0.125
1480691054425506,0.1875,0.5,0.625
1480691054458096,-0.625,0.125,0.875
1480691054490680,-1.625,0.125,0.5625
1480691054504215,-1.9375,0.4375,0.625
1480691054512738,0.8125,0.8125,0.3125
1480691054542317,1.125,0.9375,0.25
1480691054593956,-0.4375,0.6875,0.1875
1480691054608492,-3,0.5625,0
1480691054615010,0.5,0,-0.375
1480691054635564,1.6875,0,-0.5625
1480691054650604,1.0625,-0.125,-0.375
1480691054682690,-0.125,-0.125,-0.1875
1480691054688204,0.1875,0,-0.25
1480691054710764,0.5,0.25,-0.125
1480691054728813,-0.5625,0.5,0.5
1480691054767415,-0.625,0.6875,0.1875
1480691054780450,-1.4375,1.0625,0.5
1480691054786967,-0.6875,0.625,0.5
1480691054811032,-0.6875,0.6875,0.625
1480691054833593,0.6875,1.375,0.4375
1480691054848631,0.5625,1,0.4375
1480691054872695,0,0.9375,0.1875
1480691054890744,0.5625,1,-0.1875
1480691054930348,0.25,0.5625,0.25
1480691054932857,-0.5,-0.125,0.625
1480691054962434,-0.875,0,0.1875
1480691054974467,0.25,0.375,-0.375
1480691054988002,0.625,0.3125,-0.4375
1480691055013570,0.9375,-0.125,0
1480691055049165,1.375,0,0
1480691055067213,1.0625,1.0625,-0.625
1480691055072226,-0.75,0.125,-0.4375
1480691055093860,-1,-0.25,0
1480691055124365,2.375,0.125,-0.375
1480691055130882,1.9375,-0.25,-0.25
1480691055148429,-0.125,-0.9375,0.125
1480691055167981,-0.0625,-0.4375,-0.0625
1480691055193548,0.375,0.3125,-0.9375
1480691055208588,-0.125,-0.875,-0.9375
1480691055237165,2.0625,-0.625,-0.9375
1480691055258723,3.5625,0.125,0.3125
1480691055284290,2.375,-1.25,-1.125
1480691055288301,-1.125,-2.6875,-0.9375
1480691055318882,1.8125,-2.6875,-0.25
1480691055327406,3.625,-1.5625,-0.25
1480691055355479,2.8125,-0.6875,-0.3125
1480691055370518,0.5625,-0.25,-0.4375
1480691055388567,-0.625,-0.125,-0.1875
1480691055424664,-0.5625,-0.1875,0.125
1480691055430679,-0.4375,-0.3125,-0.0625
1480691055448727,0,-0.5625,0
1480691055471287,-0.1875,-0.5,0
1480691055490840,0.25,-0.3125,-0.3125
1480691055516411,-1.25,-1,-0.75
1480691055530946,-1.3125,-1.5,-0.625
1480691055550497,-0.75,-1.4375,-0.4375
1480691055568546,-2,-1.125,-0.6875
1480691055606146,-1.9375,0.1875,-1.3125
1480691055618177,-2.9375,1,-1.375
1480691055635725,-2.125,-0.125,-0.875
1480691055648258,-0.3125,-1.0625,-0.75
1480691055678337,-0.1875,-0.375,-0.9375
1480691055701399,0.1875,0.125,-1.5
1480691055710924,-0.5,-0.75,-1.5
1480691055730477,-0.5625,-1.375,-1.1875
1480691055753039,0,-1,-0.5
1480691055792641,1.5625,-0.875,-0.6875
1480691055795148,1.5625,-1.1875,-0.3125
1480691055813196,0.875,-0.25,0.25
1480691055835756,-1.0625,0.4375,-0.4375
1480691055852801,-2.3125,-0.0625,0.1875
1480691055878369,0.25,0,0
1480691055888396,2.3125,0.6875,0
1480691055911457,0.3125,0.625,-0.1875
1480691055942038,-0.9375,0.0625,-0.375
1480691055948055,-0.1875,-0.5,-0.3125
1480691055987160,0.9375,-2.0625,0.4375
1480691055993175,1.125,-2.6875,0.1875
1480691056008214,2.625,-2.125,0.125
1480691056034285,1.5625,-1.375,-0.25
1480691056073390,-0.9375,-1.4375,-0.75
1480691056085921,-2.0625,-2.0625,-1.25
1480691056090935,-2.0625,-1.3125,-0.375
1480691056116004,-1.0625,-0.3125,-1.125
1480691056145579,1.875,-0.5,-0.5625
1480691056167641,3.6875,-1.75,0.375
1480691056173153,2.625,-1.5625,0.8125
1480691056189697,-0.5625,-1.25,0.1875
1480691056218273,-2.0625,-1.5625,0.1875
1480691056233315,-0.75,-1.625,1.125
1480691056264396,0.5625,-1.875,0.875
1480691056271916,-1,-0.75,0.625
1480691056311019,-2.625,1.125,0.25
1480691056325058,-3.8125,0.5625,0.0625
1480691056349123,-3.8125,-0.8125,0
1480691056362657,-1.125,-1.1875,0.125
1480691056369676,1.4375,-0.125,-0.6875
1480691056390734,-0.9375,-0.0625,-0.4375
1480691056413292,-4,-0.625,-0.5
1480691056431843,-4.5625,-1.0625,-0.4375
1480691056453400,-1.5,-0.125,0
1480691056476961,-0.375,0.625,-0.8125
1480691056506039,-3.875,1.375,-2.5625
1480691056519073,-6.5,2,-2.75
1480691056548656,-5.75,2.375,-3.5
1480691056557175,-2.1875,0.625,-2.4375
1480691056578732,2.0625,-1.375,-1.75
1480691056593272,3.3125,-2.1875,-2.25
1480691056627361,2.1875,-3.25,-1.75
1480691056640396,0.875,-4,-0.875
1480691056654433,2.4375,-3.1875,-0.125
1480691056670977,3.5,-1.6875,0.875
1480691056690529,3.4375,-0.4375,0.875
1480691056714092,3.9375,0.375,1.5625
1480691056731138,2.9375,0.8125,2.125
1480691056753697,2.4375,1.0625,2.0625
1480691056797814,2.5,1.1875,1.25
1480691056801325,1,0.8125,1.25
1480691056813857,0.3125,0.0625,0.4375
1480691056838423,-2.0625,-0.125,1
1480691056866998,-5.1875,0.9375,2.0625
1480691056873516,-6.875,0.9375,1.875
1480691056912118,-2.5625,1.4375,1.0625
1480691056917132,6.0625,1.875,-0.1875
1480691056930670,6.6875,1.4375,0.375
1480691056956236,3.5,0.5625,0.75
1480691056988822,1.875,-0.9375,-0.1875
1480691056993836,4.5,-1.625,-0.8125
1480691057013388,7.75,-1.75,-2.1875
1480691057030935,5.8125,-1,-2.625
1480691057054497,4.75,-2.1875,-1.125
1480691057073047,3.0625,-4.625,-2.3125
1480691057098614,2.25,-4.0625,-2.125
1480691057113655,2.4375,-0.8125,-2.75
1480691057142731,0.0625,0.75,-3
1480691057180838,-1.1875,-1.1875,-2.5625
1480691057183341,-2.0625,-1.6875,-2.125
1480691057194871,-0.625,-2,-1.5625
1480691057215929,-1.75,-2.5625,-0.3125
1480691057231969,-2.75,-1.875,-0.125
1480691057270072,-1.0625,-1.0625,0.1875
1480691057278593,-1.4375,-0.1875,0.5
1480691057292630,1.375,0.875,0.6875
1480691057329729,1.25,1.5625,-0.0625
1480691057346774,-0.4375,1.5,0.25
1480691057355297,-2.6875,1.3125,0.25
1480691057389389,-3,0.3125,-0.4375
1480691057395905,-1.25,-0.625,0
1480691057427489,1.9375,-0.25,-1.0625
1480691057473611,1.25,-0.0625,-0.75
1480691057475616,-1.0625,-0.5625,-0.75
1480691057481633,-1.0625,0.0625,-0.625
1480691057502187,-1.5625,0.125,-0.125
1480691057515727,-1.6875,-0.6875,0.25
1480691057548310,-0.3125,-1.875,0.5
1480691057560844,0.25,-0.5625,0.4375
1480691057577387,0.0625,-0.125,0.4375
1480691057615491,-2.25,-0.625,0.5625
1480691057617494,-1.625,-0.5625,0.8125
1480691057643062,-1.375,-0.375,0.5625
1480691057653591,0.8125,0.0625,0.5625
1480691057675148,2.125,0.6875,-0.3125
1480691057695702,-1,0.5625,-0.3125
1480691057715254,-2.8125,-0.1875,-0.75
1480691057743830,-3.25,-0.25,0.0625
1480691057755863,-0.4375,0.1875,0.0625
1480691057779425,1.125,0.25,-0.0625
1480691057818529,1.125,0.5625,0
1480691057826049,0.25,0.75,0.0625
1480691057833569,-0.1875,1,0
1480691057853120,-0.875,0.6875,0.4375
1480691057875681,-1,0.625,-0.0625
1480691057907265,-0.1875,0.125,-0.125
1480691057913281,0.9375,0.9375,-0.0625
1480691057935841,0.5625,1.6875,0
1480691057954391,-0.6875,1,-0.25
1480691057974945,-1,0.3125,0
1480691058012544,0.3125,-0.0625,-0.0625
1480691058015555,1.5625,1.125,-0.5625
1480691058034604,1.5,2.5,-1.0625
1480691058055660,-1.9375,-0.125,-0.875
1480691058073707,-0.875,-1.5625,-1.25
1480691058104790,1.5,-0.9375,-0.5625
1480691058132365,0.3125,-0.5,-1
1480691058138379,0.1875,-0.9375,-1.5
1480691058154422,1.25,-0.625,-1.375
1480691058175478,1.25,-1.375,-0.875
1480691058210071,1.625,-1.5625,-0.75
1480691058214582,1.5625,-1.5625,-0.8125
1480691058235637,1.5,-0.9375,-1
1480691058253686,0.5625,0.125,-0.875
1480691058297803,-1.875,0.25,-0.75
1480691058306326,-2.5,-0.5,-0.0625
1480691058313344,-0.375,-0.125,0.9375
1480691058340416,2.5625,0.0625,1
1480691058372502,2.3125,-0.125,0.75
1480691058383030,1.5,-0.5,0.25
1480691058396065,-0.5,-0.75,-0.125
1480691058415617,0.1875,0.125,-0.75
1480691058439680,1,-0.25,-0.8125
1480691058456225,0.5,-0.6875,-0.9375
1480691058486305,-0.5,-0.5625,-1.25
1480691058502347,0.8125,0.1875,-1.5
1480691058523404,1.4375,1.3125,-0.875
1480691058535936,1,1.6875,-1.0625
1480691058568524,-1.8125,1.5625,-0.375
1480691058577046,-3.1875,0.75,0.125
1480691058595595,-3.9375,0.25,0.8125
1480691058618155,-2.5,0.125,0.9375
1480691058666785,-1.0625,0.4375,1
1480691058672298,0.0625,0.5625,0.75
1480691058679818,-0.6875,0.125,0.5
1480691058695862,-0.4375,0.0625,0.3125
1480691058723435,-0.8125,0,0.3125
1480691058763040,-0.375,-0.625,-0.0625
1480691058765046,-1.625,-0.875,0.3125
1480691058775575,-1.8125,-1,0.3125
1480691058801646,-1.5625,-0.5625,0.125
1480691058846763,-0.75,-0.5,0.5625
1480691058860300,-0.5,-0.4375,0.5625
1480691058862806,-1,-0.4375,0.5
1480691058876341,-1.5,-0.375,0.375
1480691058926977,-1.125,-0.25,0.6875
1480691058937504,-2,-0.25,1.25
1480691058942016,-1.125,-0.125,0.6875
1480691058964576,-0.375,-0.3125,0.1875
1480691058978112,1.375,-0.25,0.6875
1480691059003680,2.4375,-0.3125,0.125
1480691059055820,0.5,-1.4375,1.25
1480691059058326,1.375,-0.9375,0.875
1480691059063840,1.3125,1.375,-0.6875
1480691059083392,-0.375,1.125,0.125
1480691059123499,-1.375,-0.1875,-0.75
1480691059126006,0.8125,-0.5,0
1480691059137035,2.8125,-0.5625,-0.625
1480691059158091,2.8125,-0.4375,-0.75
1480691059176139,2.1875,-0.4375,-1.125
1480691059206219,0.375,-0.8125,-0.6875
1480691059225771,-0.4375,-0.375,-0.3125
1480691059240811,-0.0625,0.0625,-0.125
1480691059258859,-0.8125,0.25,-0.5625
1480691059280918,0,0.25,-0.125
1480691059323533,-0.75,0.3125,0.25
1480691059335061,-1.125,0,-0.0625
1480691059356619,-0.1875,-0.0625,-0.4375
1480691059360630,0.5625,1,0.1875
1480691059379680,-0.5,2.375,-0.3125
1480691059401738,-4.625,2.125,-0.3125
1480691059416278,-5.8125,1.3125,-0.5
1480691059446357,-4.6875,0.5625,0.1875
1480691059475434,-2.5,0.6875,-0.1875
1480691059483456,-1.625,0,0
1480691059504512,-0.9375,-0.0625,-0.5625
1480691059518048,0.9375,0.5,-0.625
1480691059536598,-0.625,0.4375,-1.125
1480691059558657,-1.375,-0.1875,-1
1480691059595755,-1.25,-0.4375,-1.0625
1480691059598262,1.0625,-0.5,-1.5
1480691059618816,1.125,-1.625,-1
1480691059638368,1.9375,-2.25,-0.5625
1480691059655914,3.25,-0.5,-1.5625
1480691059682986,5.5625,1.625,-1.9375
1480691059698027,2,1.75,-2.5
1480691059723595,-3.875,-0.3125,-1.375
1480691059760693,-5.0625,-1.6875,-0.75
1480691059765722,-2.1875,-0.875,-0.5
1480691059776234,-0.0625,-0.1875,-0.5
1480691059804810,0.0625,-0.25,-0.0625
1480691059835392,-0.375,0.25,0.1875
1480691059837398,0.75,-0.6875,-0.125
1480691059868982,1.0625,-0.375,0.3125
1480691059885525,2.1875,-0.125,0.0625
1480691059896053,0.5625,-1,0
1480691059923127,-0.375,-1.625,0
1480691059956716,1.625,-1,-0.0625
1480691059960726,0.5,-0.5625,-0.125
1480691059978773,-1.125,-0.8125,-0.375
1480691060001334,-1,-0.75,-0.6875
1480691060044949,0.8125,0.125,-0.6875
1480691060047456,-0.125,-1.375,-0.4375
1480691060066008,0.1875,-2.4375,0.1875
1480691060080544,2.125,-0.9375,0.8125
1480691060106613,1.0625,0.0625,-0.125
1480691060119648,-1.5,-0.625,0
1480691060143711,-2.0625,-1,0.4375
1480691060163263,-1.25,0.1875,0.4375
1480691060189334,-2.0625,0.3125,-0.25
1480691060208383,-2.375,0.0625,-0.125
1480691060232951,-0.9375,0.875,-0.25
1480691060246986,-0.3125,0.875,-0.3125
1480691060260522,-1.3125,-0.5625,0.25
1480691060278570,-0.0625,-0.4375,0.875
1480691060332715,-1.375,1.4375,0.625
1480691060339734,-4.1875,2.75,0.1875
1480691060362292,-2.6875,1.75,0
1480691060391885,0.75,-1.125,1.375
1480691060405408,5.3125,-2.6875,0.9375
1480691060407413,5.9375,-1.125,0.0625
1480691060420949,5.75,-0.625,-0.75
1480691060441503,2.9375,-1.125,-0.125
1480691060465573,1.875,-0.3125,-0.375
1480691060481109,1.25,-0.1875,-1
1480691060525727,1.5,-1.1875,-1.0625
1480691060529238,2.375,-2.125,0.3125
1480691060541770,2.25,-0.1875,-0.0625
1480691060560820,-1.875,0.125,-0.375
1480691060607946,-0.1875,-0.3125,-0.625
1480691060609951,2.75,-0.375,0.1875
1480691060637525,2.75,-0.0625,-0.25
1480691060640031,-0.4375,-0.3125,-0.5
1480691060676127,-3.25,-0.5625,0.1875
1480691060681645,-2.8125,-0.4375,0.5
1480691060698693,-2.375,-0.9375,0.6875
1480691060721751,-1.25,-0.625,0.875
1480691060742304,1.6875,0.4375,0.5625
1480691060758346,0.5625,1.4375,0.5625
1480691060789429,-1.375,1.25,0.0625
1480691060801962,-3.5,1,0.0625
1480691060819509,-4.9375,0.4375,0
1480691060841066,-4.125,-0.4375,0.25
1480691060871146,-1.9375,0.25,-0.125
1480691060883680,0.25,1.75,-0.6875
1480691060905739,-1.1875,2.375,-0.4375
1480691060929301,-3.3125,1.9375,-0.625
1480691060946847,-2.75,1.375,0
1480691060967903,-2.25,0.625,0.1875
1480691060982943,0.875,0.6875,0
1480691060997984,1.6875,0.5,-0.0625
1480691061026559,0.0625,-0.3125,-0.8125
1480691061041098,-0.5625,-0.6875,-0.125
1480691061066166,1.3125,-0.875,-0.5625
1480691061087722,3.125,-0.4375,0
1480691061101258,4.375,0.0625,-0.75
1480691061147883,2.9375,0.8125,-1.25
1480691061155904,0.4375,0,-0.625
1480691061167435,-0.5625,-1.0625,-0.125
1480691061176959,0.0625,-0.3125,-0.25
1480691061200021,-1.625,-1.25,0.3125
1480691061222581,-2.0625,-1.125,0
1480691061243637,0.625,0.8125,0.25
1480691061261184,-0.5,1.1875,-0.1875
1480691061290763,-1.6875,0.5625,-0.125
1480691061305802,0.4375,0.125,-0.125
1480691061320341,0,-0.3125,-0.9375
1480691061343401,-0.3125,-1.5,-0.4375
1480691061363958,0.5625,-1.5,-0.5625
1480691061380502,-0.125,-0.3125,-0.6875
1480691061425620,-0.8125,-0.5,-0.5
1480691061428127,-0.375,-0.625,-0.5
1480691061441162,0.5,-0.5625,-0.25
1480691061462723,1.125,-0.4375,0.25
1480691061479263,1.25,-0.0625,0.125
1480691061502825,0.8125,-0.0625,-0.0625
1480691061532406,-0.8125,-0.625,0
1480691061551456,0,-0.3125,-0.0625
1480691061560480,0.3125,-0.4375,-0.125
1480691061582539,0.8125,-0.6875,-0.6875
1480691061621150,0.125,-1,-0.625
1480691061623147,-1.3125,-0.6875,-0.9375
1480691061643702,-1.375,-0.4375,-0.8125
1480691061664757,1.0625,-0.6875,-0.4375
1480691061680799,1.625,-1.125,0.1875
1480691061704865,0.5625,-0.8125,0.25
1480691061723914,-1.5,-0.6875,0.375
1480691061740458,-0.6875,-0.5,0.4375
1480691061777057,-0.5,0.0625,0.6875
1480691061784074,-0.5625,0.125,0.625
1480691061806133,-0.125,0.25,0.75
1480691061830197,0.125,0.125,0.9375
1480691061851252,-1.625,-0.0625,1.125
1480691061860277,-1.3125,0.375,0.25
1480691061898380,-0.5625,0.25,0.6875
1480691061903892,0.5625,0.3125,0.625
1480691061920437,-0.8125,0.5625,0.4375
1480691061942996,-1.375,0.875,1.375
1480691061972575,-0.75,1.875,1.25
1480691061994133,-2.625,1.6875,0.6875
1480691062003156,-1.1875,1.25,0.75
1480691062023711,0.625,0.5625,0.125
1480691062055297,0.0625,0.5,0.0625
1480691062062314,-0.9375,0.3125,0.25
1480691062085375,-1.6875,0.375,0.0625
1480691062106431,-1.625,1.4375,-0.0625
1480691062129994,-1.125,0.8125,0
1480691062145535,1.125,-0.375,-0.125
1480691062175114,1.375,-0.375,-0.0625
1480691062182634,-0.4375,0.1875,-0.1875
1480691062205195,-0.3125,0.125,-0.25
1480691062220736,-0.625,-0.125,-0.1875
1480691062243797,-0.25,-0.3125,-0.5625
1480691062266356,1.25,0.0625,-0.375
1480691062279892,0.8125,0.25,-0.5
1480691062302953,-0.4375,-0.4375,-0.5
1480691062332532,-0.1875,-0.6875,-0.6875
1480691062340554,0.9375,-0.375,-0.8125
1480691062365122,0.6875,-0.5,-0.5625
1480691062386175,0.0625,-1,-0.75
1480691062415753,0.1875,-0.6875,-0.625
1480691062422774,1,0.0625,-0.9375
1480691062446335,0.75,0.0625,-0.5
1480691062460874,0.5,-0.0625,-0.5625
1480691062488949,0.4375,-0.375,-0.4375
1480691062505492,0.5625,-0.25,-0.25
1480691062527050,0.5,-0.25,-0.1875
1480691062550125,-0.4375,-0.375,-0.125
1480691062565153,0.5,-0.75,-0.4375
1480691062579690,0.8125,-0.5,-0.1875
1480691062610271,0.25,-0.125,0.0625
1480691062641353,0.125,0.3125,-0.125
1480691062646366,0,0.625,-0.25
1480691062663412,-0.125,0.625,0.125
1480691062692994,-0.6875,1.5,0
1480691062721568,0.1875,0.75,-0.125
1480691062732597,-0.375,0.1875,-0.5
1480691062746132,-0.5,-0.1875,-0.25
1480691062766185,-1.6875,0.0625,-0.5625
1480691062782729,-1.1875,-0.25,-0.1875
1480691062806793,-0.1875,0.0625,-0.0625
1480691062826350,-0.125,1.0625,-0.4375
1480691062843391,-0.3125,1.375,0.1875
1480691062865449,0.1875,0.5625,0.4375
1480691062889514,-1.1875,0.4375,0.25
1480691062918590,-1,0.625,0.5625
1480691062925610,0.5625,0.3125,0.875
1480691062946163,0.5,0.75,0.1875
1480691062962708,-2.9375,0.9375,0.375
1480691062986271,-1.5625,0.1875,-0.125
1480691063015850,-2.875,2,0.625
1480691063022869,-4.5,3.3125,-0.5
1480691063045428,-0.9375,3.5625,-0.8125
1480691063076510,-1.0625,2.9375,-0.125
1480691063085034,-4.625,0.625,-0.0625
1480691063105087,-14.5,-7.6875,0.25
1480691063127647,-19.6875,-2.5,-0.75
1480691063143689,-13.375,-0.6875,-0.1875
1480691063165749,7.375,0.875,1.3125
1480691063195828,16.5,3.3125,2.1875
1480691063202345,5.125,2.3125,-1
1480691063225407,-0.5625,0.5,-1.3125
1480691063247972,1,0.3125,0
1480691063276542,3.3125,1.5,0
1480691063285065,4.75,2.4375,0.8125
1480691063308628,0.125,1.625,-0.8125
1480691063328681,-4.625,-0.5625,-1.4375
1480691063345727,-6.75,-1.6875,-1.1875
1480691063384329,-5.25,0.75,-0.25
1480691063388841,-2.5625,0.5625,0.0625
1480691063412905,3.1875,0.9375,1
1480691063443988,2.125,0.1875,0.5
1480691063448503,6.1875,-0.375,0.1875
1480691063475071,3.375,-0.6875,0.75
1480691063495124,5.125,-1.125,1.125
1480691063502143,1.25,-3.25,2.3125
1480691063525205,-4.0625,-6.3125,0.625
1480691063563807,-2.6875,-9.8125,1.4375
1480691063576841,1.3125,-7,3.375
1480691063585364,2,-1.875,3.8125
1480691063607926,-5.1875,-2.25,2.125
1480691063651039,-12.25,-1.375,0.8125
1480691063661567,-4.6875,-0.1875,0.375
1480691063668084,-1.625,-0.125,1.875
1480691063689647,1,0.625,0.625
1480691063718718,1.625,1.8125,-1.125
1480691063750804,1.25,0.6875,-1.875
1480691063759829,2.5625,-1.0625,-1.125
1480691063772862,3.5625,-1.3125,-1
1480691063788403,2.5625,-0.0625,-1.3125
1480691063808959,0.5625,-0.4375,-1.25
1480691063834025,-0.5,-1.5625,-1.25
1480691063848067,0.3125,-2.625,-0.8125
1480691063876140,0.75,-0.3125,-0.6875
1480691063885160,1.5625,1.25,-1
1480691063923264,1.125,0.4375,-0.875
1480691063937801,-0.4375,0.625,-1.0625
1480691063945823,0.9375,0.25,-0.25
1480691063967882,2.3125,1.125,0.25
1480691063990942,2.8125,2.5625,0.0625
1480691064021523,-0.1875,2.1875,-0.8125
1480691064029044,-2.625,1.3125,-0.1875
1480691064050099,-0.75,1.5625,0.0625
1480691064065142,0.25,1.3125,-0.1875
1480691064087701,-1.5625,1.3125,-0.4375
1480691064110259,-2.6875,1,-0.375
1480691064132820,-1.875,1.6875,-0.25
1480691064148863,-0.4375,0.5,-0.3125
1480691064170420,3.125,0.8125,-0.375
1480691064199998,4.375,1,0.3125
1480691064215540,3,0.125,0.6875
1480691064230079,0.5,-0.6875,0.4375
1480691064245620,1.125,1.6875,0.3125
1480691064282718,1.6875,2.5,-0.0625
1480691064290238,-3,1.5625,0.25
1480691064305278,-3.4375,0.5625,1
1480691064327838,-2.6875,-0.5,0.375
1480691064350398,-1.875,-0.5,-0.3125
1480691064364437,0.5,0.3125,0.5
1480691064395518,3,2.875,-0.0625
1480691064410057,2,2.1875,-1.0625
1480691064424596,0,1.8125,-1
1480691064448164,-1.25,1.25,-1
1480691064477737,-1.375,0.6875,0
1480691064500798,2.5625,-1.5,-0.8125
1480691064507818,4.125,-2.5625,-0.5
1480691064530878,6.875,-1.9375,-0.5625
1480691064562462,6.9375,-0.875,-0.4375
1480691064568479,2.875,-1.0625,0
1480691064591540,-1.75,-0.5,0.1875
1480691064611592,-1.625,0.875,-0.25
1480691064628638,1.125,1.8125,-0.3125
1480691064650697,2.4375,1.375,0
1480691064673257,1.5,-0.625,0.125
1480691064689802,1.875,-1.1875,-0.375
1480691064716374,-0.25,0.0625,-0.1875
1480691064770518,1.25,0.375,-1.125
1480691064778035,2.3125,-0.0625,-1.5625
1480691064785054,2,-1.1875,-1.25
1480691064791572,1.25,-1.875,-1.5625
1480691064807614,0.3125,-1.1875,-1.5
1480691064830174,0.125,-1.25,-1.6875
1480691064851230,0.3125,-1.375,-1.875
1480691064868275,1.875,-1.6875,-2.0625
1480691064890335,4.3125,-1.4375,-2.25
1480691064911390,3.1875,-1,-2
1480691064927936,1.3125,-2.125,-2.6875
1480691064964030,-0.375,-2.5,-1.5625
1480691064972552,2.1875,-1.625,-1.25
1480691064988095,3.875,1.25,-2.875
1480691065033214,1.5625,4.375,-3.5625
1480691065036723,-1.4375,4.125,-5.25
1480691065055272,-9.1875,6.1875,-4.4375
1480691065078334,-6.5,5.375,-6.4375
1480691065100393,-2.875,1.375,-2.9375
1480691065106910,1.1875,-0.75,-4.875
1480691065137993,3.375,-1,-1.4375
1480691065152531,1.75,1.25,-2.375
1480691065167070,2.4375,2.6875,-2.75
1480691065192638,2.4375,2,-0.5
1480691065212691,2.1875,3.6875,1.125
1480691065227733,-0.9375,5.25,1.25
1480691065251294,-4.875,4.4375,0.9375
1480691065272851,-4.1875,4.75,0.75
1480691065286888,-3.1875,4.5,0
1480691065310953,-4.0625,3.4375,-0.375
1480691065341534,-1.75,2.875,0
1480691065355571,2.375,2.625,-0.6875
1480691065379636,-2.25,1.6875,-0.3125
1480691065393674,-5.1875,1.375,0.0625
1480691065415230,-2.0625,0.875,-0.0625
1480691065430271,0.25,0.5625,0.1875
1480691065461353,2.375,0.3125,0.4375
1480691065473886,2.9375,-0.6875,1
1480691065505973,2.125,-1.5625,1.0625
1480691065520510,-0.8125,-0.9375,0.375
1480691065533545,-0.875,0.125,-0.875
1480691065550590,1.9375,0.6875,-1.625
1480691065595709,3.8125,0.125,-1.75
1480691065598219,4.125,-0.5625,-1.5
1480691065610248,1.0625,-0.5,-1.6875
1480691065632809,-0.75,-1,-0.9375
1480691065655369,-0.1875,-1.4375,0
1480691065670909,1.25,-1.1875,0.1875
1480691065693469,1.3125,-0.8125,0.125
1480691065714028,-0.25,-0.4375,0
1480691065738589,-0.75,0,0.125
1480691065752627,-1.125,0.125,0.0625
1480691065781204,-1.5,0.125,0.125
1480691065790227,-2,-0.4375,0.625
1480691065812786,-0.875,0.0625,0.1875
1480691065833844,-0.4375,0.125,-0.125
1480691065881471,-1.0625,0.25,-0.125
1480691065886986,-0.9375,0,0
1480691065911048,-0.875,-0.4375,-0.0625
1480691065913055,0.375,-0.625,0.25
1480691065933107,0.9375,-0.5625,0.3125
1480691065955166,1.5625,-0.125,-0.25
1480691065977224,0.75,-0.625,-0.5
1480691065994269,0.3125,-1.5625,-0.5625
1480691066022845,1.6875,-1.125,-0.9375
1480691066030366,2,-1.3125,-0.1875
1480691066060446,2,-1.9375,-0.1875
1480691066083006,2,-1.3125,-0.3125
1480691066089523,2.9375,-1.125,-0.9375
1480691066112584,1.8125,-0.9375,-0.5
1480691066161214,0.875,-1,0.125
1480691066163721,0.4375,-1.0625,0.3125
1480691066172744,-0.5,-0.875,1
1480691066197824,-0.9375,0,0.4375
1480691066209842,-0.9375,0.375,0.0625
1480691066232904,-0.125,0.125,-0.375
1480691066255966,1.0625,0.6875,0.375
1480691066270504,0.9375,1.3125,-0.1875
1480691066300082,-0.9375,0.4375,-0.3125
1480691066315123,-1.125,-1.1875,0.0625
1480691066345202,1.4375,-1.25,0.75
1480691066352723,0.25,-0.25,0.9375
1480691066383304,-0.9375,-0.3125,0.125
1480691066420904,-1.4375,0.5625,0.125
1480691066435944,-2.5625,1,0.1875
1480691066438451,-2.4375,-0.6875,0.1875
1480691066464021,-0.6875,-1.4375,0.875
1480691066472541,1.75,-1.4375,0.9375
1480691066501117,0.125,-1.5625,1.1875
1480691066516157,-0.125,-2.3125,1.8125
1480691066532701,0.5,-2.875,2.6875
1480691066555261,0.75,-0.9375,1.5625
1480691066576818,-2.5625,-1.625,1.8125
1480691066593363,-1.8125,-3.75,3.4375
1480691066615922,0.75,-5.0625,3.4375
1480691066636979,2.5,-6.0625,2.8125
1480691066653021,0.5625,-6.5625,3.0625
1480691066697642,-1.3125,-4.6875,0.875
1480691066714186,-4.25,-1.25,1.0625
1480691066719198,-1.4375,2.125,0.1875
1480691066736744,2.3125,2.5625,-0.875
1480691066763817,3.875,0.75,-0.25
1480691066774344,7,-0.25,-0.375
1480691066796403,5.375,-1.0625,-1.4375
1480691066816455,5.0625,-2.25,-1.875
1480691066835005,4.4375,-1.5,-1.1875
1480691066855560,1.9375,-1.25,-1.25
1480691066893161,-0.3125,-1.1875,-1.875
1480691066895667,-1.375,-1.0625,-0.6875
1480691066915219,1.25,-0.3125,-0.9375
1480691066938280,2.75,0.375,-0.25
1480691066952819,1.625,0.9375,0
1480691066990922,0.75,0.875,-0.5
1480691066997940,0.4375,0.6875,-0.5625
1480691067018995,-0.875,1,-0.625
1480691067042557,-0.3125,1.25,-0.875
1480691067059101,0.0625,1,-0.5625
1480691067072138,-0.625,0,-0.375
1480691067096200,-1.5,-0.75,-1
1480691067134301,0.25,0.5625,-1.1875
1480691067139817,0.6875,1.5625,-1.5
1480691067154856,1.5,0.6875,-1.1875
1480691067185437,-1.125,0.75,-1.3125
1480691067207497,-1,0.75,-0.8125
1480691067216519,-1.5,0.8125,-0.1875
1480691067260639,-1.75,1.125,-0.25
1480691067263144,-2.375,1.125,-0.4375
1480691067282695,-2.1875,0.5,-0.5625
1480691067298238,-0.125,1.4375,-0.0625
