timestamp,roll,pitch,yaw
1480691001440592,-1.26845,0.0814074,1.32271
1480691001443098,-1.26027,0.0820685,1.3194
1480691001463653,-1.25536,0.0822379,1.31704
1480691001487717,-1.25088,0.0814062,1.31584
1480691001501254,-1.24405,0.0803035,1.31534
1480691001530832,-1.23645,0.0788226,1.31532
1480691001545872,-1.23129,0.0777199,1.31533
1480691001559911,-1.22955,0.0765133,1.31506
1480691001583472,-1.2298,0.076072,1.31415
1480691001605548,-1.22886,0.0763313,1.31271
1480691001620588,-1.22712,0.077205,1.311
1480691001644151,-1.22656,0.0781789,1.30909
1480691001665708,-1.22677,0.078718,1.30729
1480691001679746,-1.22593,0.0786514,1.30556
1480691001703308,-1.22309,0.0784109,1.30411
1480691001725367,-1.21958,0.0778965,1.30287
1480691001739905,-1.21503,0.077101,1.30171
1480691001777506,-1.21009,0.0763794,1.30068
1480691001786028,-1.20552,0.0761239,1.29991
1480691001808087,-1.20243,0.0766277,1.29977
1480691001823127,-1.20105,0.0776517,1.30048
1480691001846690,-1.20039,0.078636,1.30103
1480691001868247,-1.19988,0.0791671,1.30156
1480691001883788,-1.19989,0.0790538,1.3022
1480691001905346,-1.19962,0.078633,1.30293
1480691001926905,-1.1978,0.0779642,1.30323
1480691001942948,-1.19465,0.0771952,1.30296
1480691001965506,-1.19234,0.0764245,1.3029
1480691001986561,-1.19159,0.0754787,1.30336
1480691002003607,-1.1918,0.0744411,1.30377
1480691002025666,-1.19117,0.0730342,1.30381
1480691002055746,-1.19027,0.0718257,1.3036
1480691002063266,-1.18935,0.0710767,1.30327
1480691002085825,-1.18834,0.0706545,1.30325
1480691002113901,-1.1876,0.0705789,1.30313
1480691002145986,-1.18786,0.0710991,1.30254
1480691002148492,-1.1884,0.0723203,1.30126
1480691002166539,-1.1886,0.0737514,1.30002
1480691002183084,-1.18997,0.0750051,1.29893
1480691002205143,-1.19189,0.0759168,1.29848
1480691002227203,-1.19235,0.0764965,1.29795
1480691002243246,-1.19112,0.0767434,1.29737
1480691002266305,-1.18996,0.0769504,1.29686
1480691002290370,-1.18856,0.0767241,1.29672
1480691002302902,-1.18845,0.0766225,1.29673
1480691002331478,-1.18898,0.0762525,1.29686
1480691002348022,-1.18915,0.0760086,1.29726
1480691002370583,-1.18842,0.0754755,1.29727
1480691002400663,-1.18797,0.0750191,1.29756
1480691002422220,-1.18784,0.0744675,1.29803
1480691002429238,-1.18754,0.073558,1.29831
1480691002453303,-1.18698,0.0729045,1.29848
1480691002468844,-1.18665,0.0723302,1.29887
1480691002482380,-1.18673,0.0716489,1.29916
1480691002506444,-1.18636,0.0710561,1.29939
1480691002535521,-1.1857,0.0704523,1.29983
1480691002542539,-1.18508,0.0695697,1.3003
1480691002566102,-1.18425,0.0687593,1.30082
1480691002611222,-1.18339,0.0678622,1.30155
1480691002613729,-1.18277,0.0670737,1.30215
1480691002627265,-1.18234,0.0666721,1.30258
1480691002648321,-1.182,0.0661349,1.30295
1480691002694444,-1.18154,0.0657413,1.30373
1480691002700961,-1.18103,0.065229,1.30382
1480691002709484,-1.17999,0.0641037,1.30347
1480691002730540,-1.17836,0.0627411,1.30377
1480691002745580,-1.17939,0.0618302,1.30449
1480691002768139,-1.18233,0.0615431,1.30463
1480691002789196,-1.18481,0.0613638,1.30483
1480691002806243,-1.18489,0.0612284,1.30478
1480691002828300,-1.18395,0.0611859,1.30472
1480691002850359,-1.18275,0.0613428,1.30441
1480691002871415,-1.18244,0.0618201,1.30413
1480691002887977,-1.1827,0.062167,1.30403
1480691002909016,-1.18379,0.0627,1.3044
1480691002925559,-1.18477,0.0631312,1.30478
1480691002955639,-1.18505,0.0633602,1.30533
1480691002970679,-1.18439,0.0636413,1.30595
1480691002986220,-1.18279,0.0638788,1.30651
1480691003008279,-1.18149,0.0640032,1.30711
1480691003036855,-1.18002,0.0644283,1.30745
1480691003045879,-1.17943,0.0655089,1.30794
1480691003067937,-1.18021,0.0660995,1.30813
1480691003088992,-1.18192,0.0665528,1.30848
1480691003105537,-1.18347,0.0666105,1.30864
1480691003128097,-1.18345,0.0664289,1.30873
1480691003149152,-1.18233,0.0664481,1.30837
1480691003165697,-1.18164,0.0665701,1.30832
1480691003194273,-1.18154,0.0666493,1.30823
1480691003210316,-1.18122,0.0668644,1.30868
1480691003225356,-1.18022,0.0669618,1.30908
1480691003247915,-1.17979,0.0665275,1.30988
1480691003270977,-1.17945,0.0657184,1.31063
1480691003287019,-1.17888,0.0647428,1.31138
1480691003314092,-1.17737,0.0635953,1.31232
1480691003330636,-1.17594,0.0626825,1.31336
1480691003353195,-1.17503,0.0622835,1.31431
1480691003368236,-1.17488,0.0619236,1.31539
1480691003391298,-1.17507,0.0618096,1.31596
1480691003404833,-1.17558,0.0618722,1.31635
1480691003427898,-1.17566,0.0617374,1.31629
1480691003450455,-1.17566,0.0617374,1.31629
1480691003472014,-1.17627,0.0618345,1.31577
1480691003488054,-1.17709,0.0622314,1.31536
1480691003510614,-1.17781,0.0624306,1.31483
1480691003525153,-1.17823,0.0628354,1.31439
1480691003548214,-1.17864,0.0630582,1.31406
1480691003570774,-1.17893,0.0633043,1.31349
1480691003584811,-1.17921,0.0633683,1.31301
1480691003613889,-1.17951,0.063488,1.31268
1480691003630433,-1.17988,0.0636934,1.31219
1480691003651489,-1.18027,0.0639545,1.31183
1480691003668033,-1.18027,0.0639545,1.31183
1480691003690593,-1.18027,0.0639545,1.31183
1480691003711649,-1.18013,0.0638908,1.31182
1480691003735713,-1.18016,0.0638519,1.31184
1480691003758274,-1.18017,0.0639078,1.31198
1480691003771811,-1.18017,0.0639078,1.31198
1480691003787852,-1.18017,0.0639078,1.31198
1480691003810411,-1.18017,0.0639078,1.31198
1480691003832470,-1.18048,0.0639779,1.31192
1480691003848011,-1.18089,0.063874,1.31181
1480691003871073,-1.18089,0.063874,1.31181
1480691003891628,-1.18089,0.063874,1.31181
1480691003915691,-1.18091,0.0638351,1.31183
1480691003946273,-1.18135,0.0639689,1.31177
1480691003951787,-1.18199,0.0641261,1.3118
1480691003969333,-1.18264,0.0642834,1.31183
1480691004005430,-1.18306,0.0644561,1.31175
1480691004011446,-1.1827,0.0645129,1.31152
1480691004027990,-1.18239,0.0647432,1.31085
1480691004050550,-1.18258,0.0655825,1.31021
1480691004071606,-1.18307,0.0667866,1.30964
1480691004095670,-1.18319,0.067666,1.30893
1480691004110710,-1.1836,0.0680124,1.30836
1480691004131765,-1.18394,0.0678529,1.30805
1480691004148310,-1.18404,0.0677738,1.30814
1480691004171371,-1.184,0.0676311,1.30822
1480691004193430,-1.18401,0.0675361,1.30809
1480691004207969,-1.18408,0.0674958,1.30817
1480691004230529,-1.18372,0.0672275,1.30817
1480691004253088,-1.18343,0.0673396,1.30814
1480691004274144,-1.18307,0.0674921,1.30804
1480691004296706,-1.18307,0.0674921,1.30804
1480691004313249,-1.18307,0.0674921,1.30804
1480691004327286,-1.18307,0.0674921,1.30804
1480691004351349,-1.18295,0.0673898,1.30804
1480691004372907,-1.18267,0.067407,1.30789
1480691004395968,-1.18211,0.0673921,1.30784
1480691004410507,-1.18138,0.0674663,1.30799
1480691004442091,-1.18086,0.0673739,1.30798
1480691004448107,-1.18073,0.0673102,1.30797
1480691004471670,-1.18123,0.0672211,1.30808
1480691004493232,-1.18121,0.067165,1.30794
1480691004507264,-1.18131,0.0670858,1.30803
1480691004531830,-1.18144,0.0671494,1.30804
1480691004553387,-1.18121,0.067165,1.30794
1480691004569430,-1.18121,0.067165,1.30794
1480691004590486,-1.18111,0.0671188,1.30809
1480691004613045,-1.18111,0.0671188,1.30809
1480691004634102,-1.18111,0.0671188,1.30809
1480691004651648,-1.18111,0.0671188,1.30809
1480691004673206,-1.18111,0.0671188,1.30809
1480691004694763,-1.18111,0.0671188,1.30809
1480691004717824,-1.18111,0.0671188,1.30809
1480691004732864,-1.18111,0.0671188,1.30809
1480691004754923,-1.18111,0.0671188,1.30809
1480691004776984,-1.18111,0.0671188,1.30809
1480691004793040,-1.18098,0.0670552,1.30808
1480691004821601,-1.18111,0.0671188,1.30809
1480691004830625,-1.18111,0.0671188,1.30809
1480691004859203,-1.18098,0.0670552,1.30808
1480691004874241,-1.181,0.0670165,1.30809
1480691004890283,-1.181,0.0670165,1.30809
1480691004912842,-1.18108,0.0668812,1.30804
1480691004933899,-1.18108,0.0668812,1.30804
1480691004952448,-1.18108,0.0668812,1.30804
1480691004973003,-1.18108,0.0668812,1.30804
1480691004994060,-1.18087,0.0669529,1.30808
1480691005010603,-1.18122,0.0665238,1.30815
1480691005047200,-1.18209,0.0659414,1.30784
1480691005054720,-1.18457,0.065671,1.30791
1480691005071264,-1.18714,0.0655123,1.30831
1480691005100341,-1.18817,0.0654213,1.30832
1480691005113877,-1.18735,0.0653841,1.30813
1480691005130422,-1.18562,0.0654456,1.3078
1480691005153984,-1.18445,0.065743,1.30741
1480691005183063,-1.18432,0.0656795,1.3074
1480691005190584,-1.18419,0.065616,1.30739
1480691005213643,-1.18421,0.0655772,1.30741
1480691005235702,-1.18413,0.0657125,1.30746
1480691005249739,-1.18352,0.0659758,1.30738
1480691005273301,-1.18283,0.066193,1.30746
1480691005303381,-1.18271,0.0661856,1.30759
1480691005311403,-1.18261,0.0662648,1.3075
1480691005332960,-1.18271,0.0661856,1.30759
1480691005355521,-1.18271,0.0661856,1.30759
1480691005378080,-1.18261,0.0662648,1.3075
1480691005393124,-1.18261,0.0662648,1.3075
1480691005415680,-1.18261,0.0662648,1.3075
1480691005429717,-1.18261,0.0662648,1.3075
1480691005454784,-1.1825,0.0661625,1.30751
1480691005475843,-1.1825,0.0661625,1.30751
1480691005499403,-1.1825,0.0661625,1.30751
1480691005513440,-1.1825,0.0661625,1.30751
1480691005536000,-1.18236,0.066099,1.3075
1480691005550037,-1.18236,0.066099,1.3075
1480691005588139,-1.18238,0.0661551,1.30764
1480691005595659,-1.1823,0.0661955,1.30757
1480691005609699,-1.1824,0.0661163,1.30766
1480691005633259,-1.1823,0.0661955,1.30757
1480691005656320,-1.1823,0.0661955,1.30757
1480691005676376,-1.1823,0.0661955,1.30757
1480691005693921,-1.1823,0.0661955,1.30757
1480691005721994,-1.18217,0.066132,1.30756
1480691005736534,-1.18217,0.066132,1.30756
1480691005754080,-1.18206,0.0660297,1.30756
1480691005775639,-1.18206,0.0660297,1.30756
1480691005804714,-1.18206,0.0660297,1.30756
1480691005813237,-1.18196,0.0661089,1.30748
1480691005841813,-1.18196,0.0661089,1.30748
1480691005858859,-1.18198,0.066165,1.30762
1480691005872896,-1.18198,0.066165,1.30762
1480691005902976,-1.18198,0.066165,1.30762
1480691005916512,-1.18198,0.066165,1.30762
1480691005933056,-1.18198,0.066165,1.30762
1480691005956118,-1.18198,0.066165,1.30762
1480691005977674,-1.18188,0.0662442,1.30753
1480691005992214,-1.18175,0.0661807,1.30752
1480691006015776,-1.18177,0.0661419,1.30754
1480691006037835,-1.18177,0.0661419,1.30754
1480691006052874,-1.18163,0.0660784,1.30753
1480691006084459,-1.18163,0.0660784,1.30753
1480691006105515,-1.18177,0.0661419,1.30754
1480691006121056,-1.18177,0.0661419,1.30754
1480691006143616,-1.18165,0.0661345,1.30767
1480691006158155,-1.18165,0.0661345,1.30767
1480691006173195,-1.18165,0.0661345,1.30767
1480691006195757,-1.18154,0.0660322,1.30768
1480691006217814,-1.18144,0.0661114,1.30759
1480691006232352,-1.18144,0.0661114,1.30759
1480691006258923,-1.18144,0.0661114,1.30759
1480691006278474,-1.18144,0.0661114,1.30759
1480691006292516,-1.18131,0.0660479,1.30758
1480691006315573,-1.18131,0.0660479,1.30758
1480691006338133,-1.18131,0.0660479,1.30758
1480691006362197,-1.18125,0.0661445,1.30765
1480691006375734,-1.18125,0.0661445,1.30765
1480691006398293,-1.18123,0.0661832,1.30763
1480691006412330,-1.18123,0.0661832,1.30763
1480691006435392,-1.18111,0.0660809,1.30764
1480691006459460,-1.18111,0.0660809,1.30764
1480691006479007,-1.18111,0.0660809,1.30764
1480691006495552,-1.18111,0.0660809,1.30764
1480691006518112,-1.18111,0.0660809,1.30764
1480691006539168,-1.18102,0.0661601,1.30755
1480691006555711,-1.18063,0.0659,1.3079
1480691006578273,-1.18009,0.0653946,1.30834
1480691006606347,-1.18009,0.0653946,1.30834
1480691006615371,-1.1801,0.0652998,1.30821
1480691006637930,-1.1801,0.0652998,1.30821
1480691006658988,-1.17996,0.0652362,1.3082
1480691006676036,-1.17996,0.0652362,1.3082
1480691006700095,-1.17996,0.0652362,1.3082
1480691006719146,-1.17984,0.0652287,1.30833
1480691006736692,-1.17986,0.0651899,1.30835
1480691006758250,-1.17918,0.064891,1.3084
1480691006779306,-1.17836,0.0645284,1.30845
1480691006795351,-1.17836,0.0645284,1.30845
1480691006817909,-1.17836,0.0645284,1.30845
1480691006840972,-1.17836,0.0645284,1.30845
1480691006855509,-1.17764,0.0640865,1.30858
1480691006884587,-1.17766,0.0640478,1.3086
1480691006902133,-1.17752,0.0639841,1.30859
1480691006916672,-1.17755,0.0639454,1.3086
1480691006938230,-1.17755,0.0639454,1.3086
1480691006959295,-1.17755,0.0639454,1.3086
1480691006982847,-1.17733,0.064017,1.30865
1480691006998890,-1.17733,0.064017,1.30865
1480691007018943,-1.17691,0.0633682,1.30868
1480691007043509,-1.17649,0.0626249,1.30859
1480691007058049,-1.17595,0.0618738,1.30863
1480691007080607,-1.17584,0.0617715,1.30864
1480691007095647,-1.17593,0.061692,1.30872
1480691007134250,-1.17593,0.061692,1.30872
1480691007140767,-1.17593,0.061692,1.30872
1480691007161823,-1.1758,0.0616285,1.30871
1480691007185887,-1.1758,0.0616285,1.30871
1480691007200426,-1.17592,0.0615102,1.30882
1480691007214965,-1.17621,0.0618507,1.30838
1480691007238026,-1.17626,0.0621754,1.3082
1480691007268106,-1.17645,0.0625638,1.30804
1480691007275125,-1.17645,0.0625638,1.30804
1480691007298186,-1.17633,0.0625559,1.30817
1480691007320245,-1.17622,0.0624536,1.30818
1480691007334784,-1.17612,0.0625331,1.30809
1480691007358851,-1.17644,0.0626582,1.30817
1480691007380404,-1.1768,0.0629264,1.30816
1480691007402964,-1.17729,0.0632582,1.30817
1480691007418004,-1.17776,0.0636287,1.30816
1480691007440564,-1.17818,0.0638004,1.30809
1480691007455103,-1.17843,0.0638717,1.30796
1480691007479167,-1.17876,0.0639023,1.30791
1480691007507743,-1.17945,0.0640116,1.30761
1480691007523789,-1.18013,0.0641595,1.30728
1480691007538324,-1.18061,0.0644351,1.30715
1480691007561388,-1.18063,0.0646167,1.30705
1480691007588959,-1.18053,0.0645704,1.3072
1480691007597983,-1.18043,0.0646497,1.30711
1480691007621044,-1.18043,0.0646497,1.30711
1480691007641600,-1.18089,0.0648385,1.3072
1480691007667171,-1.18089,0.0648385,1.3072
1480691007681204,-1.18103,0.0651784,1.30724
1480691007701759,-1.18142,0.0656841,1.30728
1480691007717802,-1.18189,0.0660545,1.30728
1480691007746378,-1.18213,0.0661642,1.30714
1480691007761418,-1.18228,0.0664092,1.30705
1480691007786485,-1.18218,0.0664884,1.30696
1480691007800522,-1.18218,0.0664884,1.30696
1480691007823082,-1.18245,0.0669868,1.30714
1480691007838122,-1.18298,0.0674611,1.30707
1480691007875221,-1.18285,0.0673976,1.30706
1480691007899287,-1.183,0.0676426,1.30697
1480691007904298,-1.183,0.0676426,1.30697
1480691007920842,-1.1831,0.0675634,1.30706
1480691007941898,-1.183,0.0676426,1.30697
1480691007965962,-1.18338,0.0680921,1.30687
1480691007988020,-1.18399,0.068431,1.30675
1480691008003562,-1.18399,0.068431,1.30675
1480691008025621,-1.18378,0.0684079,1.30666
1480691008040661,-1.18378,0.0684079,1.30666
1480691008079264,-1.1838,0.0684642,1.30681
1480691008084276,-1.1837,0.0685434,1.30672
1480691008107839,-1.1837,0.0685434,1.30672
1480691008122880,-1.18381,0.0686456,1.30671
1480691008146442,-1.18381,0.0686456,1.30671
1480691008168501,-1.1837,0.0685434,1.30672
1480691008193065,-1.1837,0.0685434,1.30672
1480691008197577,-1.1837,0.0685434,1.30672
1480691008220639,-1.1837,0.0685434,1.30672
1480691008243200,-1.1837,0.0685434,1.30672
1480691008272278,-1.18362,0.0686788,1.30677
1480691008290328,-1.18362,0.0686788,1.30677
1480691008302858,-1.18362,0.0686788,1.30677
1480691008317397,-1.18362,0.0686788,1.30677
1480691008340960,-1.18352,0.068758,1.30668
1480691008371540,-1.18352,0.068758,1.30668
1480691008379064,-1.18352,0.068758,1.30668
1480691008401620,-1.18352,0.068758,1.30668
1480691008429195,-1.18352,0.068758,1.30668
1480691008444237,-1.18352,0.068758,1.30668
1480691008460276,-1.18341,0.0687507,1.30681
1480691008488853,-1.18341,0.0687507,1.30681
1480691008503892,-1.18341,0.0687507,1.30681
1480691008527956,-1.18341,0.0687507,1.30681
1480691008542996,-1.18341,0.0687507,1.30681
1480691008566061,-1.18331,0.0688299,1.30672
1480691008581098,-1.18331,0.0688299,1.30672
1480691008603156,-1.18331,0.0688299,1.30672
1480691008624213,-1.18333,0.0687912,1.30674
1480691008640757,-1.1832,0.0687276,1.30673
1480691008662817,-1.1832,0.0687276,1.30673
1480691008684372,-1.1832,0.0687276,1.30673
1480691008700916,-1.1832,0.0687276,1.30673
1480691008723476,-1.18312,0.0688631,1.30679
1480691008744033,-1.18312,0.0688631,1.30679
1480691008766591,-1.18312,0.0688631,1.30679
1480691008789151,-1.18298,0.0687995,1.30678
1480691008804191,-1.18312,0.0688631,1.30679
1480691008826753,-1.18312,0.0688631,1.30679
1480691008843295,-1.18312,0.0688631,1.30679
1480691008871369,-1.18312,0.0688631,1.30679
1480691008893930,-1.18312,0.0688631,1.30679
1480691008902953,-1.18298,0.0687995,1.30678
1480691008926015,-1.183,0.0687608,1.30679
1480691008940554,-1.18298,0.0687995,1.30678
1480691008963113,-1.18298,0.0687995,1.30678
1480691008985674,-1.18298,0.0687995,1.30678
1480691009000713,-1.18291,0.06884,1.3067
1480691009023775,-1.183,0.0687608,1.30679
1480691009045332,-1.18277,0.0687764,1.30669
1480691009060874,-1.18277,0.0687764,1.30669
1480691009090954,-1.18279,0.0688327,1.30684
1480691009105492,-1.18279,0.0688327,1.30684
1480691009120030,-1.18279,0.0688327,1.30684
1480691009143594,-1.18279,0.0688327,1.30684
1480691009173673,-1.18279,0.0688327,1.30684
1480691009186709,-1.18258,0.0688096,1.30675
1480691009203754,-1.18258,0.0688096,1.30675
1480691009225813,-1.18258,0.0688096,1.30675
1480691009240853,-1.18258,0.0688096,1.30675
1480691009270430,-1.18258,0.0688096,1.30675
1480691009285472,-1.18258,0.0688096,1.30675
1480691009301514,-1.18259,0.0688659,1.3069
1480691009330590,-1.1825,0.0689451,1.30681
1480691009345630,-1.1825,0.0689451,1.30681
1480691009360171,-1.1825,0.0689451,1.30681
1480691009383230,-1.1825,0.0689451,1.30681
1480691009405791,-1.18261,0.0690473,1.3068
1480691009435369,-1.18248,0.0689837,1.30679
1480691009444397,-1.1825,0.0689451,1.30681
1480691009465449,-1.1825,0.0689451,1.30681
1480691009494025,-1.1825,0.0689451,1.30681
1480691009504052,-1.1825,0.0689451,1.30681
1480691009547668,-1.1825,0.0689451,1.30681
1480691009554686,-1.1825,0.0689451,1.30681
1480691009576745,-1.1824,0.0690243,1.30672
1480691009585770,-1.1824,0.0690243,1.30672
1480691009606825,-1.18242,0.0690805,1.30686
1480691009622868,-1.18242,0.0690805,1.30686
1480691009645929,-1.18242,0.0690805,1.30686
1480691009666483,-1.18242,0.0690805,1.30686
1480691009683028,-1.18242,0.0690805,1.30686
1480691009705588,-1.18242,0.0690805,1.30686
1480691009728150,-1.18242,0.0690805,1.30686
1480691009743188,-1.18242,0.0690805,1.30686
1480691009773268,-1.18242,0.0690805,1.30686
1480691009786302,-1.18232,0.0691597,1.30677
1480691009817886,-1.18232,0.0691597,1.30677
1480691009825407,-1.18242,0.0690805,1.30686
1480691009854483,-1.18242,0.0690805,1.30686
1480691009864009,-1.18232,0.0691597,1.30677
1480691009887070,-1.18232,0.0691597,1.30677
1480691009908633,-1.18219,0.0690961,1.30676
1480691009923166,-1.18219,0.0690961,1.30676
1480691009946227,-1.18232,0.0691597,1.30677
1480691009968287,-1.18232,0.0691597,1.30677
1480691010005887,-1.18232,0.0691597,1.30677
1480691010011400,-1.18232,0.0691597,1.30677
1480691010027946,-1.18234,0.069216,1.30692
1480691010042484,-1.18234,0.069216,1.30692
1480691010065545,-1.1822,0.0691524,1.30691
1480691010088606,-1.1822,0.0691524,1.30691
1480691010102142,-1.1822,0.0691524,1.30691
1480691010125706,-1.18211,0.0692315,1.30682
1480691010147763,-1.18211,0.0692315,1.30682
1480691010163305,-1.18211,0.0692315,1.30682
1480691010185865,-1.18211,0.0692315,1.30682
1480691010208427,-1.18213,0.0691929,1.30683
1480691010222462,-1.18213,0.0691929,1.30683
1480691010245523,-1.18211,0.0692315,1.30682
1480691010269086,-1.18211,0.0692315,1.30682
1480691010289141,-1.18201,0.0693107,1.30673
1480691010305684,-1.18203,0.069367,1.30687
1480691010328243,-1.18191,0.0692647,1.30688
1480691010342281,-1.18191,0.0692647,1.30688
1480691010381886,-1.18232,0.0692546,1.3069
1480691010387902,-1.18296,0.0694103,1.30692
1480691010408958,-1.18296,0.0694103,1.30692
1480691010425504,-1.18287,0.0694895,1.30684
1480691010448563,-1.18287,0.0694895,1.30684
1480691010469119,-1.18316,0.0699493,1.30703
1480691010485662,-1.18338,0.0702488,1.30714
1480691010514238,-1.18338,0.0702488,1.30714
1480691010529277,-1.18338,0.0702488,1.30714
1480691010545321,-1.18352,0.0703124,1.30715
1480691010573897,-1.18352,0.0703124,1.30715
1480691010591444,-1.18352,0.0703124,1.30715
1480691010607487,-1.18352,0.0703124,1.30715
1480691010628041,-1.18338,0.0702488,1.30714
1480691010656617,-1.18352,0.0703124,1.30715
1480691010666142,-1.18329,0.070328,1.30705
1480691010688201,-1.18329,0.070328,1.30705
1480691010709256,-1.18329,0.070328,1.30705
1480691010725303,-1.1833,0.0703843,1.3072
1480691010747860,-1.1833,0.0703843,1.3072
1480691010776436,-1.18329,0.070328,1.30705
1480691010785960,-1.1833,0.0703843,1.3072
1480691010808021,-1.1832,0.0704634,1.30711
1480691010845118,-1.1832,0.0704634,1.30711
1480691010854643,-1.1832,0.0704634,1.30711
1480691010869683,-1.1832,0.0704634,1.30711
1480691010890739,-1.1832,0.0704634,1.30711
1480691010906785,-1.18313,0.0705039,1.30704
1480691010927838,-1.183,0.0704403,1.30703
1480691010951902,-1.18323,0.0704248,1.30713
1480691010965438,-1.18311,0.0705425,1.30702
1480691010987999,-1.18311,0.0705425,1.30702
1480691011010558,-1.18311,0.0705425,1.30702
1480691011025099,-1.18312,0.0705988,1.30716
1480691011049662,-1.183,0.0704403,1.30703
1480691011076734,-1.18301,0.0704966,1.30717
1480691011084756,-1.18301,0.0704966,1.30717
1480691011115336,-1.18301,0.0704966,1.30717
1480691011132883,-1.18292,0.0705757,1.30708
1480691011151434,-1.18292,0.0705757,1.30708
1480691011169480,-1.18292,0.0705757,1.30708
1480691011199059,-1.18292,0.0705757,1.30708
1480691011206579,-1.18292,0.0705757,1.30708
1480691011232651,-1.18292,0.0705757,1.30708
1480691011251699,-1.18292,0.0705757,1.30708
1480691011264734,-1.18292,0.0705757,1.30708
1480691011294313,-1.18293,0.070632,1.30722
1480691011310355,-1.18293,0.070632,1.30722
1480691011331411,-1.18278,0.0705121,1.30707
1480691011348958,-1.1828,0.0704735,1.30709
1480691011370515,-1.1828,0.0704735,1.30709
1480691011393577,-1.18278,0.0705121,1.30707
1480691011409118,-1.1828,0.0705684,1.30721
1480691011431177,-1.1827,0.0706475,1.30712
1480691011451731,-1.18272,0.0706089,1.30714
1480691011467774,-1.18272,0.0706089,1.30714
1480691011491840,-1.18259,0.0705453,1.30713
1480691011518910,-1.18259,0.0705453,1.30713
1480691011543976,-1.18259,0.0705453,1.30713
1480691011550996,-1.18272,0.0706089,1.30714
1480691011579069,-1.18272,0.0706089,1.30714
1480691011595613,-1.18272,0.0706089,1.30714
1480691011610653,-1.18272,0.0706089,1.30714
1480691011633214,-1.18272,0.0706089,1.30714
1480691011648254,-1.18272,0.0706089,1.30714
1480691011676328,-1.18272,0.0706089,1.30714
1480691011691871,-1.18272,0.0706089,1.30714
1480691011707914,-1.18272,0.0706089,1.30714
1480691011730473,-1.18272,0.0706089,1.30714
1480691011759050,-1.18259,0.0705453,1.30713
1480691011769581,-1.18259,0.0705453,1.30713
1480691011798154,-1.18259,0.0705453,1.30713
1480691011813192,-1.18259,0.0705453,1.30713
1480691011828232,-1.18259,0.0705453,1.30713
1480691011856810,-1.18261,0.0705067,1.30715
1480691011874355,-1.18247,0.070443,1.30714
1480691011888392,-1.18247,0.070443,1.30714
1480691011910451,-1.18247,0.070443,1.30714
1480691011933012,-1.18247,0.070443,1.30714
1480691011948058,-1.18247,0.070443,1.30714
1480691011970612,-1.18247,0.070443,1.30714
1480691011993171,-1.18247,0.070443,1.30714
1480691012007711,-1.18239,0.0705784,1.30719
1480691012031272,-1.18239,0.0705784,1.30719
1480691012052829,-1.18226,0.0705148,1.30718
1480691012058346,-1.18226,0.0705148,1.30718
1480691012076392,-1.18226,0.0705148,1.30718
1480691012103464,-1.18226,0.0705148,1.30718
1480691012131037,-1.18247,0.070443,1.30714
1480691012136552,-1.18234,0.0703794,1.30713
1480691012156104,-1.18236,0.0703407,1.30714
1480691012178665,-1.18223,0.0702771,1.30713
1480691012194706,-1.18223,0.0702771,1.30713
1480691012238824,-1.18211,0.0701749,1.30714
1480691012249352,-1.18211,0.0701749,1.30714
1480691012254867,-1.18211,0.0701749,1.30714
1480691012275923,-1.18211,0.0701749,1.30714
1480691012298483,-1.18213,0.0702311,1.30728
1480691012323051,-1.182,0.0701675,1.30727
1480691012336082,-1.18202,0.0701289,1.30729
1480691012358646,-1.18187,0.070009,1.30714
1480691012383709,-1.18187,0.070009,1.30714
1480691012403762,-1.18187,0.070009,1.30714
1480691012428829,-1.18182,0.0695899,1.30718
1480691012436350,-1.18164,0.0690123,1.3071
1480691012455902,-1.18151,0.0689487,1.30709
1480691012485981,-1.18151,0.0689487,1.30709
1480691012505533,-1.18153,0.06891,1.3071
1480691012516061,-1.1814,0.0688464,1.30709
1480691012546141,-1.18153,0.06891,1.3071
1480691012561183,-1.18153,0.06891,1.3071
1480691012575719,-1.18153,0.06891,1.3071
1480691012601288,-1.1814,0.0688464,1.30709
1480691012635379,-1.18149,0.0687672,1.30718
1480691012639895,-1.18134,0.0686474,1.30703
1480691012659945,-1.18136,0.0686088,1.30704
1480691012704061,-1.18136,0.0686088,1.30704
1480691012715091,-1.18136,0.0686088,1.30704
1480691012719602,-1.18136,0.0686088,1.30704
1480691012741164,-1.18124,0.0686013,1.30718
1480691012755698,-1.18113,0.0684991,1.30718
1480691012781267,-1.18112,0.0684429,1.30704
1480691012800818,-1.18112,0.0684429,1.30704
1480691012815860,-1.18112,0.0684429,1.30704
1480691012838920,-1.18112,0.0684429,1.30704
1480691012878024,-1.18113,0.0684991,1.30718
1480691012880531,-1.18102,0.0683968,1.30719
1480691012906099,-1.18102,0.0683968,1.30719
1480691012937682,-1.18079,0.0684125,1.30709
1480691012940189,-1.18079,0.0684125,1.30709
1480691012965757,-1.18079,0.0684125,1.30709
1480691012980797,-1.18088,0.0683332,1.30718
1480691012995838,-1.18091,0.0682946,1.3072
1480691013018398,-1.18068,0.0683102,1.3071
1480691013040961,-1.18077,0.068231,1.30719
1480691013059006,-1.18077,0.068231,1.30719
1480691013078557,-1.18066,0.0681287,1.30719
1480691013101117,-1.18064,0.0681674,1.30718
1480691013116157,-1.18054,0.0682466,1.30709
1480691013162781,-1.18056,0.068208,1.3071
1480691013167292,-1.18056,0.068208,1.3071
1480691013183335,-1.18056,0.068208,1.3071
1480691013199880,-1.18066,0.0681287,1.30719
1480691013230461,-1.18066,0.0681287,1.30719
1480691013235975,-1.18066,0.0681287,1.30719
1480691013258537,-1.18066,0.0681287,1.30719
1480691013281102,-1.18053,0.0680651,1.30718
1480691013297138,-1.18053,0.0680651,1.30718
1480691013318696,-1.18055,0.0680265,1.3072
1480691013343762,-1.18041,0.0679629,1.30719
1480691013357300,-1.18041,0.0679629,1.30719
1480691013378354,-1.18041,0.0679629,1.30719
1480691013400914,-1.18055,0.0680265,1.3072
1480691013419463,-1.18045,0.0681057,1.30711
1480691013438514,-1.18032,0.0680421,1.3071
1480691013464083,-1.18032,0.0680421,1.3071
1480691013486142,-1.1802,0.0679399,1.30711
1480691013498674,-1.1802,0.0679399,1.30711
1480691013521234,-1.1802,0.0679399,1.30711
1480691013537277,-1.1802,0.0679399,1.30711
1480691013558337,-1.1802,0.0679399,1.30711
1480691013580894,-1.1802,0.0679399,1.30711
1480691013612476,-1.1802,0.0679399,1.30711
1480691013626013,-1.1802,0.0679399,1.30711
1480691013641053,-1.1802,0.0679399,1.30711
1480691013657598,-1.1802,0.0679399,1.30711
1480691013678653,-1.1802,0.0679399,1.30711
1480691013700712,-1.1802,0.0679399,1.30711
1480691013718759,-1.18007,0.0678763,1.3071
1480691013738312,-1.18007,0.0678763,1.3071
1480691013760872,-1.18019,0.0677584,1.3072
1480691013778920,-1.18019,0.0677584,1.3072
1480691013798472,-1.18019,0.0677584,1.3072
1480691013821031,-1.18019,0.0677584,1.3072
1480691013841091,-1.18019,0.0677584,1.3072
1480691013865650,-1.18019,0.0677584,1.3072
1480691013888210,-1.17996,0.067774,1.3071
1480691013906259,-1.17996,0.067774,1.3071
1480691013918290,-1.17996,0.067774,1.3071
1480691013940854,-1.17996,0.067774,1.3071
1480691013959399,-1.17996,0.067774,1.3071
1480691013994493,-1.17996,0.067774,1.3071
1480691014018056,-1.17997,0.0678301,1.30725
1480691014023570,-1.17997,0.0678301,1.30725
1480691014038610,-1.17984,0.0677665,1.30724
1480691014061170,-1.17986,0.0677279,1.30725
1480691014083228,-1.17986,0.0677279,1.30725
1480691014098268,-1.17986,0.0677279,1.30725
1480691014120829,-1.17986,0.0677279,1.30725
1480691014152412,-1.17986,0.0677279,1.30725
1480691014165949,-1.17986,0.0677279,1.30725
1480691014180989,-1.17986,0.0677279,1.30725
1480691014203548,-1.17986,0.0677279,1.30725
1480691014218588,-1.17976,0.0678071,1.30716
1480691014248669,-1.17976,0.0678071,1.30716
1480691014263207,-1.17976,0.0678071,1.30716
1480691014295292,-1.17976,0.0678071,1.30716
1480691014300809,-1.17963,0.0677435,1.30715
1480691014334397,-1.17965,0.0677996,1.3073
1480691014340413,-1.17967,0.067761,1.30731
1480691014360967,-1.17957,0.0678403,1.30723
1480691014383527,-1.17957,0.0678403,1.30723
1480691014400072,-1.17955,0.0678789,1.30721
1480691014421127,-1.17955,0.0678789,1.30721
1480691014443687,-1.17957,0.0678403,1.30723
1480691014461234,-1.17944,0.0677766,1.30722
1480691014480785,-1.17944,0.0677766,1.30722
1480691014503346,-1.17944,0.0677766,1.30722
1480691014536935,-1.17944,0.0677766,1.30722
1480691014548466,-1.17944,0.0677766,1.30722
1480691014565010,-1.17957,0.0678403,1.30723
1480691014580052,-1.17948,0.0679195,1.30714
1480691014601105,-1.17944,0.0677766,1.30722
1480691014623667,-1.17944,0.0677766,1.30722
1480691014641215,-1.17944,0.0677766,1.30722
1480691014662269,-1.17944,0.0677766,1.30722
1480691014683325,-1.17944,0.0677766,1.30722
1480691014708893,-1.17944,0.0677766,1.30722
1480691014720925,-1.17934,0.0678559,1.30713
1480691014743484,-1.17934,0.0678559,1.30713
1480691014761533,-1.17936,0.067912,1.30727
1480691014784092,-1.17934,0.0678559,1.30713
1480691014810663,-1.17936,0.067912,1.30727
1480691014821191,-1.17936,0.067912,1.30727
1480691014840744,-1.17936,0.067912,1.30727
1480691014863303,-1.17936,0.067912,1.30727
1480691014881351,-1.17936,0.067912,1.30727
1480691014900903,-1.17936,0.067912,1.30727
1480691014926472,-1.17922,0.0678484,1.30726
1480691014941511,-1.17922,0.0678484,1.30726
1480691014961063,-1.17922,0.0678484,1.30726
1480691014986129,-1.17936,0.067912,1.30727
1480691015001169,-1.17936,0.067912,1.30727
1480691015020721,-1.17936,0.067912,1.30727
1480691015046290,-1.17926,0.0679913,1.30718
1480691015061330,-1.17922,0.0678484,1.30726
1480691015089906,-1.17922,0.0678484,1.30726
1480691015103441,-1.17922,0.0678484,1.30726
1480691015134524,-1.17922,0.0678484,1.30726
1480691015141049,-1.17913,0.0679276,1.30717
1480691015163601,-1.17915,0.067889,1.30719
1480691015188668,-1.17915,0.067889,1.30719
1480691015201202,-1.17901,0.0678254,1.30718
1480691015223261,-1.17901,0.0678254,1.30718
1480691015241312,-1.17915,0.067889,1.30719
1480691015263868,-1.17915,0.067889,1.30719
1480691015300465,-1.17915,0.067889,1.30719
1480691015302972,-1.17915,0.067889,1.30719
1480691015323027,-1.17916,0.0679451,1.30733
1480691015343580,-1.17903,0.0678815,1.30732
1480691015368647,-1.17915,0.067889,1.30719
1480691015382182,-1.17915,0.067889,1.30719
1480691015410758,-1.17915,0.067889,1.30719
1480691015421287,-1.17972,0.0682108,1.3069
1480691015448359,-1.18024,0.0686292,1.30669
1480691015463399,-1.18056,0.0690807,1.30653
1480691015488967,-1.18096,0.0693406,1.30618
1480691015502503,-1.18134,0.0696951,1.30595
1480691015523559,-1.18186,0.0701132,1.30574
1480691015546118,-1.18214,0.0704218,1.30566
1480691015569682,-1.18214,0.0704218,1.30566
1480691015590738,-1.18214,0.0704218,1.30566
1480691015605777,-1.18193,0.0704937,1.30571
1480691015636360,-1.18193,0.0704937,1.30571
1480691015652402,-1.18193,0.0704937,1.30571
1480691015665938,-1.18206,0.0705573,1.30572
1480691015683984,-1.18206,0.0705573,1.30572
1480691015703538,-1.18204,0.0705958,1.3057
1480691015726098,-1.18204,0.0705958,1.3057
1480691015752166,-1.18206,0.0705573,1.30572
1480691015763698,-1.18206,0.0705573,1.30572
1480691015785756,-1.18206,0.0705573,1.30572
1480691015803804,-1.18206,0.0705573,1.30572
1480691015830877,-1.18204,0.0705958,1.3057
1480691015853436,-1.18204,0.0705958,1.3057
1480691015863966,-1.18217,0.0706594,1.30571
1480691015886524,-1.18217,0.0706594,1.30571
1480691015906577,-1.18217,0.0706594,1.30571
1480691015923625,-1.18217,0.0706594,1.30571
1480691015943175,-1.18217,0.0706594,1.30571
1480691015965734,-1.18215,0.070698,1.30569
1480691015983782,-1.18229,0.0707616,1.3057
1480691016003334,-1.18229,0.0707616,1.3057
1480691016025896,-1.18229,0.0707616,1.3057
1480691016051463,-1.18229,0.0707616,1.3057
1480691016071015,-1.18217,0.0706594,1.30571
1480691016110119,-1.18215,0.070698,1.30569
1480691016112625,-1.18229,0.0707616,1.3057
1480691016130673,-1.18229,0.0707616,1.3057
1480691016145713,-1.18206,0.0705573,1.30572
1480691016163761,-1.18157,0.0702258,1.30571
1480691016190842,-1.18107,0.0697691,1.30594
1480691016207379,-1.18046,0.0693355,1.30594
1480691016229937,-1.18016,0.0688454,1.30611
1480691016246481,-1.18016,0.0688454,1.30611
1480691016273557,-1.18027,0.0689476,1.30611
1480691016291607,-1.18005,0.0687432,1.30612
1480691016305137,-1.17969,0.0684753,1.30612
1480691016328700,-1.17912,0.0681845,1.30604
1480691016349755,-1.17912,0.0681845,1.30604
1480691016372316,-1.17912,0.0681845,1.30604
1480691016385852,-1.17912,0.0681845,1.30604
1480691016411420,-1.17912,0.0681845,1.30604
1480691016424961,-1.17912,0.0681845,1.30604
1480691016446012,-1.17912,0.0681845,1.30604
1480691016472585,-1.17912,0.0681845,1.30604
1480691016485116,-1.17912,0.0681845,1.30604
1480691016505670,-1.17912,0.0681845,1.30604
1480691016525225,-1.17912,0.0681845,1.30604
1480691016553798,-1.17912,0.0681845,1.30604
1480691016568839,-1.17912,0.0681845,1.30604
1480691016583879,-1.17912,0.0681845,1.30604
1480691016606439,-1.17904,0.06832,1.3061
1480691016628999,-1.17904,0.06832,1.3061
1480691016648551,-1.17904,0.06832,1.3061
1480691016674121,-1.17904,0.06832,1.3061
1480691016702694,-1.17904,0.06832,1.3061
1480691016707212,-1.17907,0.068488,1.30525
1480691016726258,-1.17863,0.0689837,1.30433
1480691016753329,-1.17816,0.0692424,1.30337
1480691016763857,-1.17816,0.0692424,1.30337
1480691016786417,-1.17881,0.0690568,1.30288
1480691016805970,-1.17794,0.0690002,1.30212
1480691016824017,-1.17724,0.0691506,1.30131
1480691016846577,-1.17762,0.0696809,1.30058
1480691016866129,-1.17774,0.0707383,1.29938
1480691016892200,-1.17902,0.072378,1.29874
1480691016906236,-1.17925,0.0735494,1.29828
1480691016928795,-1.17976,0.0740854,1.29742
1480691016943835,-1.18044,0.0740353,1.29644
1480691016967399,-1.18034,0.0740449,1.29546
1480691016985948,-1.18048,0.0746544,1.29513
1480691017008507,-1.17988,0.0754374,1.29509
1480691017031068,-1.18026,0.0763063,1.29489
1480691017046108,-1.18196,0.0770188,1.29485
1480691017068670,-1.18377,0.0775293,1.29427
1480691017086215,-1.18448,0.0780557,1.29386
1480691017105767,-1.18494,0.0785409,1.29321
1480691017128326,-1.18504,0.0787602,1.29256
1480691017161414,-1.18541,0.0787791,1.29216
1480691017167431,-1.18584,0.0785378,1.29195
1480691017188486,-1.18594,0.078582,1.2918
1480691017206536,-1.18594,0.078582,1.2918
1480691017233606,-1.18557,0.0784626,1.29167
1480691017248648,-1.18555,0.0785005,1.29165
1480691017266193,-1.18559,0.0786432,1.29157
1480691017288251,-1.18632,0.0786576,1.29154
1480691017311313,-1.1867,0.0784636,1.29166
1480691017331868,-1.18678,0.0783272,1.2916
1480691017354929,-1.18584,0.0781162,1.29205
1480691017368464,-1.18466,0.0780671,1.29226
1480691017394033,-1.18468,0.0780292,1.29228
1480691017407572,-1.18562,0.077644,1.29243
1480691017431131,-1.18609,0.0774657,1.29276
1480691017452187,-1.18523,0.0770228,1.29303
1480691017468732,-1.18476,0.0768075,1.29331
1480691017489287,-1.18464,0.0763795,1.29354
1480691017506331,-1.18493,0.0759954,1.29394
1480691017528892,-1.18503,0.075916,1.29403
1480691017548443,-1.18474,0.0756087,1.29411
1480691017566491,-1.18441,0.0754563,1.2944
1480691017602085,-1.18431,0.0755358,1.29431
1480691017616124,-1.18418,0.0754725,1.2943
1480691017656732,-1.18418,0.0754725,1.2943
1480691017661744,-1.18397,0.0751806,1.29459
1480691017669766,-1.18397,0.0751806,1.29459
1480691017698343,-1.18397,0.0751806,1.29459
1480691017714886,-1.18397,0.0751806,1.29459
1480691017728423,-1.18411,0.0752439,1.2946
1480691017746971,-1.18397,0.0751806,1.29459
1480691017770032,-1.18397,0.0751806,1.29459
1480691017788582,-1.18397,0.0751806,1.29459
1480691017812144,-1.18411,0.0752439,1.2946
1480691017828688,-1.18412,0.0753007,1.29474
1480691017855761,-1.18411,0.0752439,1.2946
1480691017873812,-1.18411,0.0752439,1.2946
1480691017904390,-1.18411,0.0752439,1.2946
1480691017908400,-1.18397,0.0751806,1.29459
1480691017926449,-1.18397,0.0751806,1.29459
1480691017957032,-1.18362,0.0750662,1.29486
1480691017976080,-1.18362,0.0750662,1.29486
1480691017986107,-1.18354,0.0752024,1.29492
1480691018008668,-1.18363,0.075123,1.295
1480691018035739,-1.18287,0.0757565,1.29517
1480691018061307,-1.18207,0.0763987,1.29568
1480691018076347,-1.18114,0.0768824,1.29606
1480691018090886,-1.18163,0.0774015,1.29632
1480691018106427,-1.18263,0.0771228,1.29641
1480691018158066,-1.18249,0.0770594,1.2964
1480691018160572,-1.18154,0.0769644,1.2962
1480691018179622,-1.1807,0.0772687,1.29614
1480691018189649,-1.18056,0.0772052,1.29613
1480691018232763,-1.18137,0.0779289,1.29584
1480691018235270,-1.18171,0.0782574,1.29505
1480691018264347,-1.18162,0.0785126,1.29447
1480691018269862,-1.18193,0.0789062,1.29417
1480691018286406,-1.18261,0.0788974,1.29358
1480691018330522,-1.18328,0.0787645,1.29322
1480691018336037,-1.1833,0.0787266,1.29324
1480691018353585,-1.18295,0.0779441,1.29322
1480691018373640,-1.18296,0.0775792,1.29346
1480691018389681,-1.18266,0.0772426,1.2939
1480691018407233,-1.18228,0.0773418,1.29366
1480691018434800,-1.18194,0.0778542,1.29297
1480691018458869,-1.18239,0.0781076,1.29267
1480691018472901,-1.18241,0.0780697,1.29269
1480691018494960,-1.18209,0.0782172,1.29224
1480691018511504,-1.18248,0.0782277,1.2915
1480691018532560,-1.18329,0.0777355,1.29125
1480691018549606,-1.18257,0.0771099,1.29113
1480691018575675,-1.18132,0.0768568,1.29088
1480691018590716,-1.18045,0.0763575,1.29101
1480691018608763,-1.18015,0.0759262,1.29132
1480691018632326,-1.18006,0.0760059,1.29123
1480691018650874,-1.17981,0.0760179,1.29073
1480691018669424,-1.18027,0.0764744,1.29045
1480691018704517,-1.18027,0.0770204,1.29011
1480691018718555,-1.17999,0.0776815,1.28974
1480691018728582,-1.18031,0.0778562,1.28956
1480691018766182,-1.18055,0.0774469,1.28939
1480691018771696,-1.18065,0.0768257,1.29022
1480691018795760,-1.18241,0.0757694,1.29382
1480691018811302,-1.18291,0.074136,1.2974
1480691018838374,-1.18452,0.0746078,1.29878
1480691018849904,-1.18454,0.0764469,1.29777
1480691018870459,-1.1871,0.076523,1.29576
1480691018908563,-1.18765,0.0763105,1.29465
1480691018911067,-1.1838,0.0768086,1.29324
1480691018930619,-1.1801,0.0757964,1.29215
1480691018951674,-1.17817,0.0750605,1.2917
1480691018968721,-1.17821,0.0752035,1.29162
1480691018991785,-1.17925,0.0750652,1.29163
1480691019012335,-1.17892,0.0743694,1.29139
1480691019028880,-1.17817,0.0739289,1.29112
1480691019050437,-1.17764,0.073363,1.29107
1480691019071493,-1.17686,0.0726593,1.29152
1480691019088539,-1.17631,0.0722518,1.29208
1480691019111600,-1.17582,0.0723188,1.29274
1480691019131653,-1.17528,0.072186,1.29333
1480691019148197,-1.17513,0.0723371,1.29408
1480691019170757,-1.17497,0.0721039,1.29492
1480691019208859,-1.17481,0.0719268,1.2959
1480691019215376,-1.1739,0.071496,1.29686
1480691019236432,-1.17281,0.0713076,1.29702
1480691019258994,-1.17162,0.0713769,1.2966
1480691019268017,-1.17142,0.0714396,1.29589
1480691019297594,-1.17075,0.0717482,1.29576
1480691019311632,-1.17075,0.0717482,1.29576
1480691019329178,-1.17118,0.0721507,1.29533
1480691019351237,-1.1715,0.0720294,1.295
1480691019372794,-1.17254,0.0720706,1.29452
1480691019387835,-1.17331,0.0721349,1.29428
1480691019411397,-1.17341,0.0721799,1.29413
1480691019432955,-1.17342,0.0720858,1.294
1480691019447995,-1.17342,0.0720858,1.294
1480691019470555,-1.17342,0.0720858,1.294
1480691019493115,-1.17376,0.0722954,1.29385
1480691019507655,-1.17434,0.0723942,1.29368
1480691019539738,-1.17537,0.0726227,1.29345
1480691019554278,-1.17548,0.0727239,1.29344
1480691019567312,-1.17509,0.073529,1.29348
1480691019597392,-1.17492,0.0741975,1.29298
1480691019612933,-1.17533,0.0743613,1.2925
1480691019627471,-1.17562,0.0745746,1.2923
1480691019656550,-1.17562,0.0745746,1.2923
1480691019673094,-1.17562,0.0745746,1.2923
1480691019688133,-1.1756,0.0746124,1.29228
1480691019710693,-1.17574,0.0746757,1.29229
1480691019740276,-1.17586,0.074411,1.29253
1480691019755312,-1.17575,0.0741326,1.29303
1480691019770853,-1.1755,0.0735719,1.29364
1480691019793413,-1.17543,0.07292,1.29404
1480691019807451,-1.17644,0.0725191,1.29477
1480691019830512,-1.17831,0.0719651,1.29583
1480691019854074,-1.18011,0.0720307,1.29612
1480691019875130,-1.18221,0.0732479,1.29613
1480691019899696,-1.1842,0.0740224,1.29563
1480691019920752,-1.18595,0.0744412,1.29487
1480691019935792,-1.18611,0.0750787,1.29417
1480691019965370,-1.18418,0.0755527,1.29367
1480691019972890,-1.18278,0.0754479,1.2929
1480691019993946,-1.18238,0.0753664,1.29275
1480691020018512,-1.1816,0.0755739,1.29261
1480691020040096,-1.18068,0.0761402,1.29237
1480691020054107,-1.18059,0.0762198,1.29228
1480691020070651,-1.18076,0.0760039,1.29231
1480691020093713,-1.18041,0.0753731,1.29256
1480691020121787,-1.17982,0.074905,1.29258
1480691020131813,-1.17875,0.0743834,1.29262
1480691020152869,-1.17806,0.0738707,1.29279
1480691020176933,-1.17753,0.0733045,1.29273
1480691020190470,-1.17801,0.0730304,1.29294
1480691020213530,-1.17795,0.072831,1.29287
1480691020241605,-1.17795,0.072831,1.29287
1480691020250630,-1.17809,0.0728943,1.29288
1480691020273192,-1.17809,0.0728943,1.29288
1480691020296250,-1.1783,0.0730924,1.29247
1480691020334853,-1.17746,0.073101,1.29227
1480691020338864,-1.17622,0.0731233,1.29205
1480691020370950,-1.17624,0.0731798,1.29219
1480691020373461,-1.17689,0.0732361,1.29209
1480691020408549,-1.17762,0.0732507,1.29205
1480691020416069,-1.17785,0.0732342,1.29215
1480691020436624,-1.17781,0.0732156,1.29199
1480691020453669,-1.1774,0.0733236,1.2921
1480691020475727,-1.1774,0.0733236,1.2921
1480691020496282,-1.17735,0.0731767,1.29178
1480691020513829,-1.17725,0.0732564,1.29169
1480691020536890,-1.17664,0.0735202,1.29122
1480691020549925,-1.17578,0.0736202,1.29074
1480691020574491,-1.17578,0.0736202,1.29074
1480691020596549,-1.17639,0.0736274,1.29084
1480691020616602,-1.17671,0.0734783,1.29129
1480691020638662,-1.17837,0.0726287,1.29264
1480691020656210,-1.18023,0.0727414,1.294
1480691020669744,-1.18204,0.0732274,1.29419
1480691020693306,-1.18389,0.0729698,1.29412
1480691020739943,-1.18406,0.0729291,1.29365
1480691020743940,-1.18173,0.0730905,1.29336
1480691020752965,-1.17935,0.0729589,1.29288
1480691020775524,-1.17842,0.0726515,1.2932
1480691020791570,-1.17781,0.0726433,1.2931
1480691020813124,-1.17704,0.0727567,1.29284
1480691020851226,-1.17614,0.0727128,1.29244
1480691020863759,-1.17625,0.072814,1.29243
1480691020887823,-1.17622,0.0725766,1.29239
1480691020903364,-1.17579,0.0720814,1.29269
1480691020919410,-1.17579,0.0720814,1.29269
1480691020932943,-1.17521,0.0718887,1.29274
1480691020956511,-1.17521,0.0718887,1.29274
1480691020976559,-1.17521,0.0718887,1.29274
1480691020993107,-1.17521,0.0718887,1.29274
1480691021015663,-1.17535,0.071952,1.29275
1480691021039227,-1.17535,0.071952,1.29275
1480691021053765,-1.17535,0.071952,1.29275
1480691021081338,-1.17521,0.0718887,1.29274
1480691021098384,-1.17521,0.0718887,1.29274
1480691021129466,-1.17521,0.0718887,1.29274
1480691021135984,-1.17521,0.0718887,1.29274
1480691021156546,-1.17523,0.071945,1.29288
1480691021180602,-1.1751,0.0715427,1.29235
1480691021196645,-1.17523,0.0713612,1.29196
1480691021216698,-1.17523,0.0713612,1.29196
1480691021233242,-1.17533,0.0712813,1.29205
1480691021262820,-1.17533,0.0712813,1.29205
1480691021283876,-1.17632,0.0717354,1.29205
1480691021292901,-1.17765,0.0720289,1.29175
1480691021322981,-1.17836,0.0719446,1.29119
1480691021338021,-1.17856,0.072086,1.29064
1480691021353060,-1.17731,0.0726258,1.29044
1480691021376123,-1.17508,0.0725622,1.28998
1480691021398682,-1.17426,0.0721119,1.2899
1480691021412217,-1.1744,0.072175,1.28991
1480691021435279,-1.1743,0.0722549,1.28982
1480691021457840,-1.17428,0.0722927,1.2898
1480691021472379,-1.17441,0.0726277,1.28944
1480691021508975,-1.17441,0.0726277,1.28944
1480691021517999,-1.1743,0.0725268,1.28945
1480691021539055,-1.17431,0.0725832,1.28959
1480691021555600,-1.1743,0.0725268,1.28945
1480691021578159,-1.17385,0.0724922,1.28963
1480691021599215,-1.17385,0.0724922,1.28963
1480691021615759,-1.17389,0.0726353,1.28955
1480691021637818,-1.17389,0.0726353,1.28955
1480691021652857,-1.17389,0.0726353,1.28955
1480691021682937,-1.17389,0.0726353,1.28955
1480691021698480,-1.17389,0.0726353,1.28955
1480691021712516,-1.17389,0.0726353,1.28955
1480691021736079,-1.17389,0.0726353,1.28955
1480691021758138,-1.17389,0.0726353,1.28955
1480691021786213,-1.17389,0.0726353,1.28955
1480691021798245,-1.17388,0.0725516,1.29018
1480691021817796,-1.17388,0.0725516,1.29018
1480691021840358,-1.17388,0.0725516,1.29018
1480691021857402,-1.17388,0.0725516,1.29018
1480691021878959,-1.17401,0.0726148,1.29019
1480691021899012,-1.17401,0.0726148,1.29019
1480691021917062,-1.17401,0.0726148,1.29019
1480691021938619,-1.17392,0.0726947,1.2901
1480691021959173,-1.17392,0.0726947,1.2901
1480691021975718,-1.17392,0.0726947,1.2901
1480691021998276,-1.17447,0.0730187,1.29016
1480691022026354,-1.17496,0.073347,1.29017
1480691022035375,-1.17508,0.073448,1.29016
1480691022074479,-1.17557,0.073354,1.29027
1480691022080494,-1.17546,0.0728307,1.29037
1480691022095535,-1.17534,0.0719381,1.29032
1480691022118596,-1.17582,0.0711468,1.2905
1480691022156698,-1.17647,0.0702339,1.29084
1480691022161711,-1.17705,0.0696383,1.29114
1480691022185273,-1.17683,0.0694361,1.29115
1480691022198810,-1.17671,0.0695539,1.29105
1480691022215353,-1.17671,0.0695539,1.29105
1480691022238415,-1.17723,0.0693279,1.29105
1480691022267994,-1.17736,0.0689951,1.29039
1480691022275513,-1.17705,0.068903,1.28995
1480691022304090,-1.17646,0.0689522,1.29
1480691022320634,-1.17552,0.0692564,1.29047
1480691022350212,-1.17435,0.0698217,1.29123
1480691022358236,-1.17328,0.070212,1.29197
1480691022380794,-1.17187,0.070273,1.29221
1480691022394831,-1.17066,0.0704084,1.29228
1480691022432932,-1.17011,0.0704505,1.29198
1480691022440453,-1.17089,0.0707891,1.29177
1480691022463514,-1.17247,0.070975,1.29184
1480691022478052,-1.17358,0.0710391,1.29232
1480691022500612,-1.17398,0.0708477,1.29283
1480691022515150,-1.17394,0.0705269,1.29341
1480691022545731,-1.17357,0.070475,1.29417
1480691022566286,-1.17286,0.0704629,1.29461
1480691022581326,-1.17233,0.0706571,1.29497
1480691022597870,-1.17233,0.0706571,1.29497
1480691022627950,-1.17233,0.0706571,1.29497
1480691022641486,-1.17243,0.0707275,1.29533
1480691022671568,-1.17233,0.0708073,1.29524
1480691022682094,-1.17233,0.0708073,1.29524
1480691022710671,-1.17225,0.0709432,1.2953
1480691022718190,-1.17223,0.0709812,1.29528
1480691022756293,-1.17214,0.071061,1.29519
1480691022761305,-1.17167,0.0711161,1.2951
1480691022777849,-1.17093,0.0711945,1.29526
1480691022800409,-1.1708,0.0711311,1.29525
1480691022822970,-1.17085,0.0710019,1.29555
1480691022838511,-1.17028,0.0709583,1.29587
1480691022860569,-1.16957,0.0713675,1.2962
1480691022881625,-1.16867,0.0715673,1.2962
1480691022904185,-1.16819,0.0717162,1.29624
1480691022927748,-1.16819,0.0717162,1.29624
1480691022948803,-1.16806,0.0716527,1.29623
1480691022957828,-1.16806,0.0716527,1.29623
1480691022987909,-1.16806,0.0716527,1.29623
1480691023001444,-1.16806,0.0716527,1.29623
1480691023017988,-1.16806,0.0716527,1.29623
1480691023041050,-1.16819,0.0717162,1.29624
1480691023070627,-1.16765,0.0724012,1.29613
1480691023078147,-1.16732,0.0733114,1.29611
1480691023100708,-1.16692,0.0736932,1.29625
1480691023121264,-1.16692,0.0736932,1.29625
1480691023138810,-1.16692,0.0736932,1.29625
1480691023160366,-1.16692,0.0736932,1.29625
1480691023183427,-1.16692,0.0736932,1.29625
1480691023204488,-1.16742,0.0736001,1.29636
1480691023220527,-1.16768,0.0733046,1.29648
1480691023243086,-1.16768,0.0733046,1.29648
1480691023267150,-1.16768,0.0733046,1.29648
1480691023280686,-1.16785,0.0729391,1.29624
1480691023310265,-1.16786,0.0727516,1.29598
1480691023317285,-1.16798,0.0728529,1.29598
1480691023348366,-1.16676,0.0729302,1.29591
1480691023362905,-1.16609,0.0733329,1.2959
1480691023377945,-1.16609,0.0733329,1.2959
1480691023401508,-1.16682,0.0734046,1.29601
1480691023423569,-1.16711,0.0734695,1.29553
1480691023437102,-1.16711,0.0735308,1.2944
1480691023462170,-1.16746,0.073795,1.294
1480691023484227,-1.16757,0.0738961,1.29399
1480691023497262,-1.16748,0.073976,1.2939
1480691023522831,-1.16804,0.0734717,1.29392
1480691023544389,-1.16804,0.0734717,1.29392
1480691023557424,-1.1675,0.0735155,1.29402
1480691023580483,-1.16599,0.073286,1.29402
1480691023603043,-1.16554,0.0735232,1.29384
1480691023625607,-1.16625,0.0739051,1.29356
1480691023642148,-1.16643,0.0742919,1.293
1480691023670724,-1.16674,0.074444,1.29231
1480691023701806,-1.16783,0.0746598,1.29137
1480691023709832,-1.16766,0.0750554,1.29085
1480691023738404,-1.16771,0.0754095,1.28991
1480691023749433,-1.16899,0.0751905,1.28952
1480691023760966,-1.17063,0.0748132,1.28923
1480691023783022,-1.17187,0.0747225,1.28855
1480691023804078,-1.17171,0.0742625,1.28748
1480691023821126,-1.17273,0.0739994,1.28645
1480691023849198,-1.17438,0.0735252,1.28604
1480691023864238,-1.17541,0.0732332,1.28578
1480691023880782,-1.17516,0.0732472,1.28528
1480691023903342,-1.17528,0.0733479,1.28527
1480691023933924,-1.17592,0.0738355,1.28582
1480691023940443,-1.17486,0.074041,1.2863
1480691023977041,-1.17408,0.0742518,1.28617
1480691023984058,-1.1737,0.0749919,1.28531
1480691024016142,-1.17569,0.0773518,1.28567
1480691024023162,-1.17488,0.078607,1.28634
1480691024044222,-1.17473,0.0796717,1.28651
1480691024060762,-1.17755,0.0801679,1.28731
1480691024082819,-1.17823,0.079792,1.28696
1480691024103876,-1.1757,0.0788112,1.28602
1480691024120921,-1.17557,0.078748,1.28601
1480691024148995,-1.17599,0.0786687,1.28681
1480691024166041,-1.17511,0.0783855,1.2877
1480691024181080,-1.1763,0.0783116,1.28811
1480691024210664,-1.17809,0.0779993,1.28824
1480691024232718,-1.17745,0.0775101,1.28769
1480691024255278,-1.17538,0.0772602,1.2865
1480691024263300,-1.17468,0.0766939,1.28525
1480691024301905,-1.17507,0.075696,1.28456
1480691024306414,-1.17668,0.0745337,1.28497
1480691024323460,-1.17873,0.0739346,1.28596
1480691024345518,-1.18128,0.0737468,1.28635
1480691024360059,-1.18239,0.0736587,1.28656
1480691024383119,-1.18142,0.0738098,1.28636
1480691024411694,-1.17913,0.0738252,1.28586
1480691024420718,-1.1774,0.0738221,1.28577
1480691024457817,-1.17682,0.0739027,1.28545
1480691024466339,-1.17682,0.0739027,1.28545
1480691024489903,-1.17746,0.0741456,1.2856
1480691024502936,-1.17747,0.0742023,1.28574
1480691024534019,-1.17685,0.0743851,1.28589
1480691024539534,-1.17587,0.0740585,1.28565
1480691024570618,-1.17502,0.0742176,1.28532
1480691024585657,-1.17493,0.0742976,1.28523
1480691024599694,-1.17491,0.0743352,1.28522
1480691024623759,-1.17491,0.0743352,1.28522
1480691024652836,-1.17447,0.0742074,1.28528
1480691024666371,-1.17447,0.0742074,1.28528
1480691024683416,-1.17447,0.0742074,1.28528
1480691024705477,-1.1751,0.0740811,1.28527
1480691024736057,-1.17548,0.0738852,1.28538
1480691024743075,-1.17546,0.0739229,1.28536
1480691024766136,-1.17559,0.0739859,1.28537
1480691024802233,-1.17501,0.0738892,1.28555
1480691024810255,-1.17422,0.0736476,1.28588
1480691024825797,-1.17412,0.0737276,1.28579
1480691024847854,-1.17434,0.0736541,1.28575
1480691024864900,-1.17434,0.0736541,1.28575
1480691024886459,-1.17392,0.0738575,1.28598
1480691024914030,-1.17456,0.0741002,1.28613
1480691024936590,-1.17518,0.0745015,1.28689
1480691024945613,-1.17466,0.0748517,1.28793
1480691024974192,-1.17319,0.0757215,1.28893
1480691024984718,-1.17192,0.0767589,1.28988
1480691025013294,-1.17338,0.0780668,1.29066
1480691025026329,-1.17513,0.0795467,1.29352
1480691025045379,-1.17563,0.0803126,1.29853
1480691025065934,-1.17479,0.0813239,1.30312
1480691025088494,-1.17133,0.0823376,1.30458
1480691025103033,-1.16797,0.0820841,1.30581
1480691025126095,-1.16382,0.0813633,1.30824
1480691025148654,-1.16122,0.0822105,1.31005
1480691025163697,-1.16034,0.0830708,1.31078
1480691025186253,-1.16149,0.0834742,1.31183
1480691025207811,-1.16332,0.0840543,1.31307
1480691025222853,-1.1647,0.0842033,1.31382
1480691025253934,-1.16587,0.0837177,1.31392
1480691025292036,-1.16623,0.0826146,1.31292
1480691025296547,-1.1648,0.081074,1.3106
1480691025321114,-1.16569,0.0806274,1.30903
1480691025344174,-1.1659,0.0805862,1.30821
1480691025349690,-1.16476,0.0812492,1.30726
1480691025365731,-1.16556,0.0815866,1.30629
1480691025404334,-1.16959,0.0822995,1.30603
1480691025416870,-1.17149,0.0829243,1.30543
1480691025425391,-1.17128,0.0835026,1.30475
1480691025447950,-1.1714,0.0836045,1.30474
1480691025462488,-1.17164,0.0836864,1.30537
1480691025485550,-1.17053,0.0833495,1.30731
1480691025508611,-1.16902,0.083025,1.30794
1480691025530670,-1.16687,0.0825355,1.30781
1480691025569774,-1.16676,0.0824335,1.30781
1480691025574289,-1.16535,0.0816913,1.30801
1480691025597849,-1.16274,0.0805893,1.30748
1480691025612888,-1.16004,0.0789584,1.30631
1480691025635950,-1.16084,0.0783195,1.30502
1480691025648984,-1.16202,0.0784332,1.30494
1480691025666030,-1.16086,0.078831,1.3047
1480691025688590,-1.15935,0.0795714,1.30504
1480691025708643,-1.1595,0.0793288,1.30619
1480691025727195,-1.15912,0.0787912,1.30691
1480691025747746,-1.15693,0.0784395,1.30724
1480691025768803,-1.1544,0.0787551,1.30716
1480691025786851,-1.15317,0.0788642,1.30709
1480691025807910,-1.15317,0.078738,1.30733
1480691025845507,-1.15393,0.0779281,1.30764
1480691025856037,-1.15539,0.0771981,1.3084
1480691025876092,-1.1545,0.0767869,1.30901
1480691025889124,-1.15247,0.0768268,1.30953
1480691025913187,-1.15088,0.0769067,1.30986
1480691025927728,-1.15092,0.0765933,1.31025
1480691025956303,-1.15168,0.0763346,1.31022
1480691025965325,-1.15217,0.0761513,1.3102
1480691025995906,-1.15258,0.0760477,1.31008
1480691026008942,-1.15279,0.0759772,1.31003
1480691026040537,-1.15279,0.0759772,1.31003
1480691026056066,-1.15295,0.0763715,1.31022
1480691026070606,-1.15293,0.076409,1.31021
1480691026085646,-1.15285,0.0764513,1.31014
1480691026122745,-1.15307,0.0766554,1.31012
1480691026137785,-1.15424,0.0768313,1.31053
1480691026152824,-1.1543,0.076882,1.31073
1480691026167864,-1.1552,0.0769886,1.31202
1480691026190424,-1.15724,0.0771638,1.31343
1480691026211480,-1.16074,0.0772005,1.31451
1480691026235544,-1.16337,0.0771848,1.31485
1480691026250082,-1.16388,0.0777867,1.31414
1480691026264621,-1.16122,0.0781089,1.31265
1480691026288185,-1.15736,0.0786307,1.31087
1480691026318264,-1.15479,0.0794708,1.30914
1480691026325787,-1.15431,0.0798671,1.30755
1480691026402488,-1.15534,0.0798257,1.30692
1480691026408508,-1.15584,0.0794001,1.30649
1480691026414019,-1.15512,0.0782895,1.30516
1480691026430563,-1.1545,0.0779829,1.30452
1480691026444600,-1.15419,0.0777667,1.30432
1480691026469667,-1.15429,0.0783265,1.30345
1480691026490222,-1.15414,0.0788133,1.3027
1480691026520301,-1.15492,0.0787897,1.30233
1480691026528324,-1.15577,0.0789055,1.30153
1480691026557902,-1.15545,0.0789651,1.30096
1480691026596003,-1.15463,0.0788794,1.30064
1480691026598509,-1.15463,0.0788794,1.30064
1480691026619064,-1.15552,0.0793802,1.30016
1480691026642126,-1.15659,0.0803631,1.29965
1480691026649645,-1.15644,0.0807008,1.29864
1480691026677719,-1.15654,0.0813863,1.29713
1480691026691761,-1.15738,0.0818677,1.29609
1480691026709308,-1.15858,0.0811802,1.29558
1480691026730360,-1.16046,0.0807634,1.29411
1480691026752418,-1.16033,0.0810665,1.29069
1480691026768461,-1.15803,0.0829543,1.28711
1480691026790521,-1.16184,0.0844079,1.28515
1480691026811576,-1.1659,0.0840383,1.28407
1480691026843662,-1.16753,0.0839034,1.2825
1480691026873742,-1.16881,0.0842563,1.28061
1480691026875748,-1.17095,0.0849616,1.27947
1480691026887778,-1.17109,0.0850534,1.27872
1480691026925380,-1.1705,0.0857491,1.27689
1480691026932898,-1.1712,0.0866133,1.27368
1480691026955962,-1.17497,0.0880166,1.27113
1480691026970499,-1.17844,0.0881942,1.26923
1480691026994061,-1.17909,0.0879399,1.26859
1480691027008099,-1.17737,0.0875195,1.26787
1480691027030737,-1.17655,0.0871979,1.26716
1480691027052716,-1.177,0.0867097,1.26695
1480691027067756,-1.1778,0.0863606,1.26697
1480691027098840,-1.17792,0.0864599,1.26696
1480691027112877,-1.17782,0.0865402,1.26687
1480691027151980,-1.17838,0.0863952,1.26665
1480691027156994,-1.17838,0.0863952,1.26665
1480691027179053,-1.17885,0.0862381,1.26661
1480691027187075,-1.17834,0.0865242,1.26636
1480691027211138,-1.17787,0.0868037,1.26616
1480691027234200,-1.17814,0.0866568,1.26655
1480691027247234,-1.17788,0.0862229,1.26691
1480691027270296,-1.1776,0.0856092,1.26737
1480691027308398,-1.17853,0.0855131,1.26804
1480691027315917,-1.17909,0.0857104,1.26873
1480691027330456,-1.17859,0.0860553,1.26902
1480691027353015,-1.17781,0.0867331,1.26878
1480691027375575,-1.17632,0.0878576,1.26812
1480691027390616,-1.1756,0.0883672,1.26653
1480691027428717,-1.17756,0.0887901,1.26492
1480691027430723,-1.18037,0.0892809,1.26456
1480691027456291,-1.18208,0.089085,1.26473
1480691027472834,-1.18269,0.0893308,1.26521
1480691027493891,-1.18226,0.0894815,1.2653
1480691027510936,-1.18161,0.0896107,1.26492
1480691027533496,-1.18026,0.0893978,1.26445
1480691027554050,-1.17881,0.0896618,1.26416
1480691027584130,-1.17881,0.0896618,1.26416
1480691027593157,-1.17997,0.089611,1.26455
1480691027614209,-1.18037,0.0893772,1.26508
1480691027630754,-1.17962,0.0888275,1.26545
1480691027653314,-1.17881,0.088811,1.26567
1480691027675374,-1.17799,0.0888854,1.26523
1480691027705453,-1.1784,0.0891639,1.26412
1480691027720493,-1.17918,0.0897968,1.26314
1480691027735533,-1.18213,0.090777,1.26216
1480691027750572,-1.18472,0.0910344,1.2613
1480691027773635,-1.18532,0.0906304,1.26035
1480691027794192,-1.18541,0.0905501,1.26043
1480691027818755,-1.18525,0.0903086,1.26052
1480691027832791,-1.18473,0.0897151,1.26088
1480691027863373,-1.18441,0.0892657,1.26194
1480691027872397,-1.1835,0.0891854,1.26307
1480691027899970,-1.18158,0.0892466,1.26385
1480691027938573,-1.1796,0.0895001,1.26443
1480691027941080,-1.17835,0.0894812,1.26408
1480691027953111,-1.17824,0.0891364,1.2637
1480691027982691,-1.17897,0.08914,1.26366
1480691027990713,-1.1795,0.0891825,1.26368
1480691028012769,-1.17906,0.0890597,1.26375
1480691028035330,-1.1782,0.0888994,1.26365
1480691028051373,-1.17834,0.0889619,1.26366
1480691028072931,-1.17913,0.0890159,1.26381
1480691028095991,-1.17983,0.0890863,1.26426
1480691028110028,-1.17913,0.0891677,1.26408
1480691028133090,-1.17898,0.0895637,1.26356
1480691028155650,-1.17964,0.0899771,1.26322
1480691028176706,-1.18,0.0898399,1.26255
1480691028193751,-1.18035,0.0900409,1.26201
1480691028215309,-1.18102,0.0899935,1.26178
1480691028243885,-1.1814,0.0899153,1.26165
1480691028260429,-1.18135,0.0900169,1.26173
1480691028281484,-1.18135,0.0900169,1.26173
1480691028291514,-1.18121,0.0899544,1.26172
1480691028313570,-1.18135,0.0900169,1.26173
1480691028343148,-1.18133,0.0900534,1.26171
1480691028356687,-1.18146,0.0901158,1.26172
1480691028374232,-1.18146,0.0901158,1.26172
1480691028402307,-1.18133,0.0900534,1.26171
1480691028417846,-1.18133,0.0900534,1.26171
1480691028433389,-1.18133,0.0900534,1.26171
1480691028455447,-1.18097,0.0903109,1.26174
1480691028493550,-1.18094,0.0903474,1.26172
1480691028496055,-1.18148,0.0906358,1.26214
1480691028544684,-1.18148,0.0906358,1.26214
1480691028554213,-1.18125,0.0904398,1.26255
1480691028583288,-1.18101,0.0905823,1.26308
1480691028585793,-1.18022,0.0901066,1.26342
1480691028596823,-1.17959,0.0900803,1.26369
1480691028621889,-1.17919,0.0901004,1.26367
1480691028635425,-1.17917,0.0901369,1.26365
1480691028656483,-1.17957,0.0907289,1.26382
1480691028696590,-1.1798,0.091079,1.26407
1480691028701602,-1.17979,0.0910213,1.26393
1480691028724666,-1.17935,0.0908043,1.26387
1480691028734188,-1.17949,0.0908669,1.26388
1480691028778306,-1.17949,0.0908669,1.26388
1480691028780812,-1.17949,0.0908669,1.26388
1480691028800364,-1.18011,0.0910433,1.26348
1480691028816407,-1.18071,0.0913502,1.26319
1480691028837463,-1.18063,0.0914882,1.26325
1480691028859523,-1.18002,0.0911236,1.2634
1480691028883086,-1.17921,0.0907401,1.26346
1480691028898626,-1.17923,0.0907036,1.26348
1480691028913665,-1.1796,0.0908141,1.2636
1480691028941241,-1.17986,0.0912796,1.26414
1480691028972825,-1.17943,0.0915244,1.26436
1480691028975331,-1.1788,0.0915936,1.26515
1480691029009420,-1.17742,0.0914474,1.26517
1480691029017943,-1.17563,0.0912637,1.26503
1480691029040504,-1.17603,0.0908773,1.26529
1480691029055543,-1.1793,0.0901811,1.26647
1480691029086625,-1.18248,0.0894172,1.26731
1480691029101666,-1.18463,0.0890771,1.26779
1480691029145783,-1.1861,0.0898528,1.26813
1480691029148290,-1.18628,0.0904232,1.26783
1480691029161826,-1.1849,0.0906637,1.26685
1480691029175364,-1.18277,0.091398,1.26577
1480691029205442,-1.18193,0.0918986,1.26431
1480691029236525,-1.18106,0.0927777,1.26335
1480691029241538,-1.18205,0.0930951,1.26359
1480691029258584,-1.1824,0.0928132,1.26431
1480691029272119,-1.18276,0.0924372,1.26491
1480691029296183,-1.18319,0.0922891,1.26521
1480691029327770,-1.18371,0.0919396,1.26584
1480691029332278,-1.18446,0.0923705,1.2661
1480691029356345,-1.18507,0.0937138,1.26587
1480691029378401,-1.18428,0.093874,1.2656
1480691029401964,-1.1832,0.0931727,1.265
1480691029415500,-1.18269,0.0932122,1.26436
1480691029438060,-1.18318,0.0934445,1.26332
1480691029459117,-1.18528,0.0939322,1.26339
1480691029483179,-1.18745,0.0939169,1.26364
1480691029497719,-1.18668,0.0939863,1.26364
1480691029518774,-1.18507,0.0941603,1.2637
1480691029535820,-1.18252,0.0949878,1.2635
1480691029565900,-1.17944,0.0954334,1.26276
1480691029578935,-1.17857,0.096194,1.26244
1480691029595479,-1.17932,0.0969875,1.26207
1480691029618038,-1.18073,0.0974615,1.26182
1480691029649121,-1.18184,0.0976307,1.26165
1480691029657143,-1.18158,0.0976827,1.26114
1480691029677697,-1.18158,0.0976827,1.26114
1480691029699254,-1.18167,0.0976025,1.26123
1480691029715297,-1.18102,0.0976754,1.26071
1480691029738359,-1.18175,0.0976779,1.26066
1480691029766433,-1.18364,0.0975653,1.26139
1480691029775457,-1.18603,0.0973218,1.26172
1480691029805539,-1.18793,0.097447,1.26118
1480691029819073,-1.18898,0.0984481,1.25969
1480691029835617,-1.18962,0.0999288,1.25808
1480691029858806,-1.1907,0.101008,1.25598
1480691029886252,-1.19397,0.102027,1.25362
1480691029895777,-1.19847,0.103067,1.25196
1480691029919340,-1.20069,0.104098,1.25099
1480691029940397,-1.20024,0.105101,1.24992
1480691029954937,-1.20126,0.105183,1.24901
1480691029977995,-1.20288,0.104282,1.24829
1480691030008075,-1.20365,0.10354,1.24839
1480691030014593,-1.20226,0.102395,1.2489
1480691030040161,-1.20028,0.101973,1.2509
1480691030067735,-1.19675,0.100907,1.25468
1480691030083276,-1.1921,0.0987372,1.25755
1480691030111851,-1.18889,0.0981822,1.2587
1480691030121878,-1.18699,0.0981773,1.2586
1480691030134914,-1.18751,0.0980782,1.26001
1480691030159479,-1.18809,0.09807,1.26291
1480691030204097,-1.18773,0.0973062,1.26586
1480691030208107,-1.18684,0.0974791,1.26909
1480691030218135,-1.18539,0.0976379,1.27189
1480691030249216,-1.18383,0.0978118,1.27407
1480691030256236,-1.18096,0.0971951,1.27503
1480691030285314,-1.17663,0.0968938,1.27454
1480691030306373,-1.17211,0.0973101,1.27223
1480691030321421,-1.16934,0.0987906,1.2689
1480691030345473,-1.16896,0.0999146,1.26652
1480691030360513,-1.16979,0.10128,1.26472
1480691030381570,-1.17002,0.102036,1.26228
1480691030398614,-1.17057,0.103396,1.26148
1480691030428193,-1.1717,0.103436,1.26119
1480691030441228,-1.173,0.102277,1.26141
1480691030481836,-1.17449,0.101418,1.26207
1480691030489356,-1.17642,0.100069,1.2651
1480691030516427,-1.17771,0.0983128,1.26888
1480691030528460,-1.1799,0.0972722,1.27243
1480691030548011,-1.18115,0.0998562,1.27639
1480691030563051,-1.17989,0.0998366,1.27771
1480691030578593,-1.17448,0.0974495,1.27603
1480691030603158,-1.16604,0.098382,1.27292
1480691030638761,-1.1615,0.101447,1.26727
1480691030640758,-1.1631,0.103294,1.26213
1480691030661313,-1.16829,0.105505,1.2593
1480691030705931,-1.17267,0.108548,1.25853
1480691030708438,-1.17459,0.108303,1.25656
1480691030720470,-1.17835,0.106839,1.2547
1480691030741526,-1.18202,0.105943,1.25355
1480691030758071,-1.18235,0.105351,1.25295
1480691030789153,-1.18235,0.104857,1.25177
1480691030802689,-1.18426,0.104573,1.25057
1480691030825750,-1.18678,0.104283,1.24947
1480691030840790,-1.18707,0.10428,1.24886
1480691030870369,-1.18428,0.10487,1.24815
1480691030877387,-1.18173,0.104739,1.24805
1480691030902454,-1.18077,0.104792,1.24889
1480691030923510,-1.18236,0.104576,1.25048
1480691030945568,-1.184,0.103528,1.25208
1480691030960608,-1.18606,0.103651,1.25311
1480691030984172,-1.18884,0.102701,1.25367
1480691030997206,-1.19206,0.102063,1.25442
1480691031020770,-1.19388,0.102299,1.2547
1480691031043328,-1.19054,0.10284,1.25434
1480691031080929,-1.18582,0.103489,1.25402
1480691031089452,-1.17719,0.105337,1.25218
1480691031109004,-1.17425,0.107595,1.24998
1480691031131563,-1.17866,0.108344,1.24809
1480691031148107,-1.18281,0.107886,1.24705
1480691031163147,-1.1845,0.107308,1.24574
1480691031186209,-1.18606,0.106478,1.24418
1480691031200246,-1.18887,0.106918,1.24364
1480691031223808,-1.18909,0.104813,1.24419
1480691031247371,-1.18639,0.102322,1.24424
1480691031269430,-1.18633,0.101354,1.24467
1480691031282965,-1.18902,0.10164,1.2453
1480691031306528,-1.19329,0.101964,1.24662
1480691031320566,-1.19586,0.10118,1.24736
1480691031343126,-1.19618,0.100837,1.24755
1480691031364184,-1.19301,0.101112,1.24799
1480691031394262,-1.18857,0.101597,1.24885
1480691031402784,-1.18465,0.101695,1.24983
1480691031425846,-1.18451,0.101631,1.24943
1480691031440384,-1.18898,0.10173,1.24952
1480691031462944,-1.19158,0.102715,1.24983
1480691031487009,-1.18975,0.103134,1.24969
1480691031500544,-1.18653,0.103815,1.24984
1480691031523105,-1.18337,0.104087,1.25031
1480691031551681,-1.18203,0.103881,1.25115
1480691031566723,-1.18201,0.103609,1.25151
1480691031582763,-1.18252,0.102457,1.25082
1480691031603819,-1.18378,0.101481,1.24959
1480691031636407,-1.18431,0.100754,1.2488
1480691031644928,-1.18223,0.0998454,1.24811
1480691031665984,-1.18037,0.0989205,1.24751
1480691031679520,-1.18084,0.0977785,1.24716
1480691031704590,-1.18306,0.0961074,1.247
1480691031724140,-1.18462,0.0943,1.24684
1480691031740683,-1.18471,0.0929939,1.24662
1480691031762742,-1.18312,0.0910637,1.24625
1480691031785803,-1.18165,0.0894787,1.24626
1480691031809365,-1.18048,0.0884422,1.24659
1480691031828918,-1.17938,0.0873608,1.24699
1480691031845461,-1.17864,0.0867247,1.24762
1480691031870028,-1.17895,0.0861074,1.24817
1480691031898603,-1.17985,0.0852113,1.24878
1480691031905621,-1.18156,0.0846357,1.24919
1480691031919659,-1.18177,0.0839467,1.249
1480691031950240,-1.18133,0.083121,1.24878
1480691031965782,-1.18213,0.0826132,1.24854
1480691031987844,-1.18269,0.0816065,1.24818
1480691032002881,-1.18373,0.0803748,1.24815
1480691032025442,-1.18499,0.0798912,1.24773
1480691032039979,-1.18536,0.07929,1.24719
1480691032064545,-1.1859,0.0790814,1.24684
1480691032086103,-1.18598,0.0789427,1.24678
1480691032100640,-1.18598,0.0789427,1.24678
1480691032146763,-1.18668,0.0792212,1.24673
1480691032151274,-1.18694,0.0794386,1.24687
1480691032159799,-1.18703,0.0800332,1.24673
1480691032182859,-1.18714,0.0808381,1.24699
1480691032212938,-1.18743,0.0819415,1.24731
1480691032227983,-1.18715,0.0830431,1.24758
1480691032243019,-1.18725,0.0841901,1.24836
1480691032265579,-1.18708,0.0852691,1.24886
1480691032295659,-1.18715,0.0860847,1.24947
1480691032303179,-1.18786,0.08652,1.25007
1480691032332758,-1.18809,0.0865012,1.25017
1480691032346293,-1.18817,0.0863626,1.25011
1480691032370358,-1.1887,0.0860013,1.24949
1480691032393419,-1.18975,0.0852522,1.2486
1480691032415478,-1.19046,0.0846709,1.24801
1480691032422997,-1.19084,0.0841265,1.24761
1480691032453078,-1.19124,0.0832391,1.2467
1480691032466614,-1.19209,0.0817626,1.24547
1480691032483658,-1.19295,0.0802894,1.24463
1480691032505718,-1.19438,0.0786639,1.24449
1480691032526272,-1.19565,0.0767451,1.24469
1480691032542816,-1.19696,0.0750968,1.24545
1480691032572896,-1.19786,0.073171,1.24604
1480691032610997,-1.19801,0.0713375,1.2464
1480691032613503,-1.19727,0.0699612,1.24588
1480691032625537,-1.1968,0.0690129,1.245
1480691032646592,-1.19707,0.068005,1.24487
1480691032669654,-1.19696,0.0681614,1.24565
1480691032708256,-1.19456,0.0691702,1.24682
1480691032710762,-1.19118,0.0706311,1.24817
1480691032722795,-1.18789,0.0725654,1.25001
1480691032745354,-1.18579,0.0747998,1.25293
1480691032767915,-1.18388,0.076505,1.25668
1480691032782453,-1.18176,0.0779141,1.26073
1480691032805515,-1.17916,0.0790497,1.26492
1480691032827574,-1.17588,0.0792779,1.26904
1480691032852138,-1.1735,0.079282,1.27276
1480691032865674,-1.17299,0.0789957,1.27606
1480691032887733,-1.17342,0.0788594,1.27878
1480691032931349,-1.17449,0.0782019,1.28082
1480691032941877,-1.1755,0.0775789,1.28206
1480691032947893,-1.17669,0.0774074,1.28235
1480691032977974,-1.17831,0.0766919,1.28189
1480691032986997,-1.18004,0.0756792,1.28076
1480691033008554,-1.18173,0.0746319,1.27961
1480691033022090,-1.18279,0.0737775,1.27808
1480691033054179,-1.18405,0.0728995,1.27625
1480691033058187,-1.18489,0.0724392,1.27415
1480691033081248,-1.18468,0.0728317,1.2723
1480691033089771,-1.18446,0.073988,1.27088
1480691033116843,-1.18478,0.0759942,1.27027
1480691033136896,-1.18395,0.0788134,1.27008
1480691033172992,-1.18145,0.0818152,1.26937
1480691033175499,-1.17895,0.0849137,1.26881
1480691033219116,-1.17701,0.0881169,1.26882
1480691033226133,-1.17527,0.0909159,1.26902
1480691033238667,-1.17385,0.0937113,1.26954
1480691033253205,-1.17344,0.0953576,1.26998
1480691033275765,-1.17298,0.0952052,1.2708
1480691033290805,-1.1715,0.0941282,1.27119
1480691033320891,-1.16999,0.0929364,1.27128
1480691033335926,-1.16956,0.0917396,1.2713
1480691033352469,-1.16886,0.0903236,1.27077
1480691033373525,-1.16845,0.0888466,1.27042
1480691033398592,-1.1685,0.0877377,1.27078
1480691033413632,-1.16843,0.0870173,1.27195
1480691033433184,-1.16715,0.0866053,1.27295
1480691033455757,-1.16518,0.0869394,1.27407
1480691033495851,-1.1636,0.0878642,1.27536
1480691033503875,-1.16259,0.0891626,1.27686
1480691033515904,-1.16258,0.0908688,1.27837
1480691033530943,-1.16228,0.0923927,1.27932
1480691033561023,-1.16243,0.0942248,1.27972
1480691033576063,-1.16353,0.0962679,1.27967
1480691033590603,-1.16428,0.0984724,1.27952
1480691033613162,-1.16555,0.100573,1.27913
1480691033635723,-1.16664,0.102776,1.27842
1480691033650762,-1.16685,0.104417,1.27783
1480691033700896,-1.16651,0.10522,1.27754
1480691033705909,-1.16629,0.105236,1.27744
1480691033721450,-1.16552,0.105235,1.27784
1480691033733482,-1.1648,0.104641,1.27863
1480691033759553,-1.16353,0.103668,1.27962
1480691033771084,-1.16225,0.102694,1.28061
1480691033809684,-1.16126,0.101479,1.28186
1480691033815700,-1.15997,0.100539,1.28283
1480691033838262,-1.15875,0.0997062,1.28374
1480691033853301,-1.15839,0.0989473,1.28462
1480691033877364,-1.15865,0.0986172,1.2855
1480691033890901,-1.15892,0.0984676,1.28628
1480691033915967,-1.1585,0.0984868,1.28701
1480691033952063,-1.1582,0.0984205,1.28749
1480691033976629,-1.15843,0.0984047,1.28758
1480691033980639,-1.1585,0.0986033,1.28805
1480691034003705,-1.15868,0.0989025,1.28851
1480691034037796,-1.15921,0.0991936,1.28893
1480691034052832,-1.15932,0.0992941,1.28893
1480691034056341,-1.15982,0.0994739,1.28866
1480691034078399,-1.15972,0.0995538,1.28857
1480691034100961,-1.15972,0.0995538,1.28857
1480691034118506,-1.15986,0.099618,1.28858
1480691034139563,-1.15972,0.0995538,1.28857
1480691034153601,-1.16003,0.0994014,1.28861
1480691034175658,-1.16001,0.0994376,1.28859
1480691034192205,-1.15952,0.0992906,1.28809
1480691034213257,-1.15966,0.0993548,1.2881
1480691034235819,-1.15966,0.0993548,1.2881
1480691034266901,-1.15966,0.0993548,1.2881
1480691034273418,-1.15966,0.0993548,1.2881
1480691034295977,-1.16018,0.0992535,1.28785
1480691034314527,-1.16076,0.0992031,1.28739
1480691034333581,-1.16161,0.0994974,1.28685
1480691034358645,-1.1626,0.0997621,1.28618
1480691034372181,-1.16354,0.0998254,1.28545
1480691034403768,-1.16505,0.0998053,1.28502
1480691034417301,-1.16565,0.0994426,1.28495
1480691034439860,-1.16551,0.0993786,1.28494
1480691034461919,-1.16559,0.0992417,1.28488
1480691034477460,-1.16559,0.0992417,1.28488
1480691034499519,-1.16559,0.0992417,1.28488
1480691034530101,-1.16629,0.0994402,1.28469
1480691034543636,-1.16694,0.0997117,1.28407
1480691034556170,-1.16757,0.0997092,1.28341
1480691034574719,-1.16795,0.0996359,1.28288
1480691034603295,-1.16823,0.0996422,1.28226
1480691034614324,-1.1685,0.0995256,1.28189
1480691034636383,-1.16878,0.0996252,1.28139
1480691034672980,-1.16944,0.0996787,1.28128
1480691034675487,-1.16948,0.0998224,1.28121
1480691034693536,-1.16957,0.0997425,1.28129
1480691034718602,-1.16955,0.0997788,1.28127
1480691034733642,-1.16969,0.0998426,1.28128
1480691034753194,-1.16967,0.0997853,1.28114
1480691034775753,-1.16982,0.0999064,1.28129
1480691034793802,-1.16878,0.0999925,1.28116
1480691034813357,-1.16767,0.0996616,1.28106
1480691034835916,-1.16767,0.0996616,1.28106
1480691034876020,-1.16767,0.0996616,1.28106
1480691034878527,-1.16787,0.0989473,1.28122
1480691034913119,-1.16741,0.0984893,1.2815
1480691034935679,-1.16635,0.0981784,1.28197
1480691034938186,-1.16404,0.0977165,1.28233
1480691034955732,-1.16141,0.0974434,1.28264
1480691034978292,-1.15986,0.0968616,1.28286
1480691034995338,-1.15969,0.0961924,1.28303
1480691035023412,-1.16034,0.0952369,1.28335
1480691035062015,-1.16009,0.0947977,1.28372
1480691035086581,-1.15908,0.0946284,1.28411
1480691035100117,-1.15798,0.094539,1.28441
1480691035103632,-1.15646,0.0937676,1.28477
1480691035113150,-1.15487,0.0932566,1.28494
1480691035143230,-1.15492,0.0934009,1.28487
1480691035167294,-1.15492,0.0934009,1.28487
1480691035182335,-1.15401,0.0938269,1.28438
1480691035197376,-1.15396,0.0939624,1.2837
1480691035242996,-1.15394,0.0939985,1.28368
1480691035245001,-1.15413,0.0942382,1.28325
1480691035272075,-1.15406,0.094375,1.28331
1480691035279594,-1.1556,0.0944645,1.28357
1480691035326217,-1.15733,0.0942421,1.28413
1480691035328724,-1.15908,0.0935834,1.28571
1480691035348777,-1.16148,0.0929266,1.28703
1480691035362314,-1.16509,0.0930758,1.28821
1480691035377353,-1.16669,0.0937729,1.29037
1480691035398410,-1.16486,0.0936063,1.29265
1480691035414953,-1.15937,0.0934356,1.29472
1480691035436010,-1.15435,0.0935799,1.29383
1480691035461076,-1.15317,0.0941525,1.29256
1480691035474612,-1.15507,0.0945834,1.29128
1480691035506198,-1.15499,0.0949739,1.29007
1480691035521236,-1.15384,0.0960617,1.28849
1480691035536779,-1.15404,0.0978656,1.28689
1480691035555828,-1.1549,0.0989554,1.28602
1480691035585908,-1.15686,0.0988792,1.28527
1480691035597940,-1.15918,0.0993088,1.28492
1480691035615988,-1.15974,0.099201,1.28431
1480691035639050,-1.15943,0.0989879,1.28412
1480691035656597,-1.16024,0.0987687,1.28388
1480691035676148,-1.16274,0.0987362,1.28316
1480691035701215,-1.16787,0.0991614,1.28278
1480691035720767,-1.17151,0.0989978,1.28306
1480691035738815,-1.17163,0.0992485,1.28293
1480691035758368,-1.16909,0.0988603,1.28127
1480691035783935,-1.16819,0.0993138,1.28002
1480691035795967,-1.16882,0.0994034,1.27949
1480691035835071,-1.16739,0.0994144,1.27922
1480691035842089,-1.16481,0.0999887,1.279
1480691035855625,-1.16217,0.100215,1.27804
1480691035878687,-1.16121,0.101112,1.2774
1480691035912276,-1.16212,0.101937,1.27785
1480691035923306,-1.16315,0.101792,1.27784
1480691035938345,-1.16425,0.101846,1.27829
1480691035976447,-1.16484,0.101205,1.27897
1480691035986476,-1.16467,0.100532,1.28082
1480691035999508,-1.16503,0.0997535,1.28281
1480691036020565,-1.16665,0.0987262,1.28436
1480691036035604,-1.1691,0.0986781,1.2859
1480691036061172,-1.1709,0.0991541,1.28774
1480691036076715,-1.1702,0.0991059,1.2882
1480691036103285,-1.16787,0.0997409,1.28577
1480691036118324,-1.16738,0.100848,1.28317
1480691036136875,-1.16728,0.101543,1.28117
1480691036157429,-1.164,0.102292,1.27885
1480691036178484,-1.15944,0.103011,1.27524
1480691036198036,-1.15981,0.104266,1.27311
1480691036217086,-1.16423,0.10469,1.272
1480691036238142,-1.166,0.104211,1.27141
1480691036270230,-1.16731,0.105015,1.27186
1480691036283263,-1.1673,0.104037,1.27154
1480691036306324,-1.16714,0.103767,1.27072
1480691036320863,-1.16878,0.103498,1.26937
1480691036338911,-1.17198,0.104258,1.2677
1480691036358463,-1.17218,0.104277,1.26778
1480691036383529,-1.16987,0.102298,1.2682
1480691036400074,-1.16973,0.10343,1.26761
1480691036436169,-1.17538,0.103256,1.26744
1480691036440681,-1.18365,0.102309,1.26767
1480691036458730,-1.19,0.102898,1.26811
1480691036478281,-1.18996,0.10312,1.26795
1480691036509868,-1.18608,0.103019,1.26832
1480691036519895,-1.18138,0.102775,1.26877
1480691036538441,-1.17536,0.101761,1.26915
1480691036578547,-1.17312,0.101083,1.26933
1480691036581055,-1.17615,0.101386,1.26992
1480691036614643,-1.17881,0.101739,1.27054
1480691036620660,-1.17831,0.101566,1.2708
1480691036639210,-1.17676,0.101634,1.2708
1480691036665780,-1.17513,0.101472,1.2711
1480691036680819,-1.17432,0.101452,1.27093
1480691036700873,-1.17434,0.101632,1.27084
1480691036718420,-1.17375,0.101444,1.27049
1480691036740979,-1.17237,0.102093,1.26928
1480691036766047,-1.17035,0.102507,1.26792
1480691036781086,-1.16987,0.102269,1.2673
1480691036808159,-1.17074,0.101754,1.26801
1480691036832222,-1.17252,0.10148,1.2703
1480691036838238,-1.17633,0.101201,1.27164
1480691036860799,-1.17948,0.10075,1.27168
1480691036878847,-1.18244,0.101164,1.27144
1480691036901407,-1.18499,0.102516,1.27095
1480691036920959,-1.18384,0.10293,1.27073
1480691036940510,-1.18071,0.103467,1.27046
1480691036958559,-1.17701,0.103111,1.26958
1480691036988137,-1.17479,0.102459,1.269
1480691037027742,-1.17468,0.103,1.26841
1480691037030249,-1.17451,0.103433,1.26788
1480691037045790,-1.17471,0.103516,1.26718
1480691037058825,-1.17413,0.103696,1.2666
1480691037102946,-1.17387,0.103749,1.2657
1480691037111966,-1.17518,0.103542,1.26493
1480691037126004,-1.17818,0.104304,1.2641
1480691037140042,-1.17978,0.104955,1.26328
1480691037168116,-1.18095,0.105174,1.2629
1480691037178644,-1.18072,0.104729,1.26252
1480691037208223,-1.17916,0.104405,1.26186
1480691037223764,-1.17886,0.104099,1.26154
1480691037239806,-1.18057,0.1039,1.26169
1480691037259860,-1.18092,0.103522,1.26229
1480691037306985,-1.17988,0.103461,1.2628
1480691037311498,-1.17843,0.103454,1.26289
1480691037337069,-1.17759,0.103012,1.26242
1480691037349598,-1.17717,0.102823,1.26199
1480691037374665,-1.17759,0.103227,1.26191
1480691037379680,-1.17799,0.103206,1.26192
1480691037403745,-1.1779,0.103286,1.26184
1480691037419284,-1.17791,0.103344,1.26198
1480691037459892,-1.1779,0.103438,1.26211
1480691037465908,-1.17819,0.103471,1.2624
1480691037478942,-1.17825,0.103154,1.26282
1480691037501503,-1.178,0.10293,1.2636
1480691037537600,-1.17731,0.102582,1.26443
1480691037540104,-1.17691,0.102482,1.26545
1480691037568681,-1.17613,0.102581,1.26596
1480691037584224,-1.1757,0.102364,1.2663
1480691037613800,-1.17679,0.102509,1.26688
1480691037621322,-1.17769,0.102447,1.26713
1480691037640873,-1.17852,0.102278,1.26705
1480691037667949,-1.17785,0.10269,1.26705
1480691037681982,-1.17699,0.103141,1.26712
1480691037700531,-1.17561,0.102841,1.26688
1480691037733620,-1.17444,0.102835,1.26635
1480691037741140,-1.17428,0.102714,1.2658
1480691037761192,-1.17543,0.102295,1.26603
1480691037778740,-1.17579,0.102069,1.26689
1480691037815336,-1.17445,0.102159,1.26736
1480691037820851,-1.17233,0.101949,1.2673
1480691037843411,-1.17046,0.101535,1.26747
1480691037865971,-1.16925,0.101414,1.26792
1480691037890036,-1.16892,0.100777,1.26782
1480691037921118,-1.17006,0.10082,1.26793
1480691037923626,-1.17131,0.101206,1.26843
1480691037942173,-1.17179,0.1012,1.26865
1480691037980275,-1.17125,0.10125,1.26875
1480691037982782,-1.16993,0.101303,1.26886
1480691038003837,-1.16911,0.101227,1.26855
1480691038023390,-1.16911,0.101227,1.26855
1480691038048958,-1.16947,0.10097,1.2685
1480691038070017,-1.16947,0.10097,1.2685
1480691038086060,-1.17034,0.101313,1.26811
1480691038115636,-1.17142,0.101522,1.26791
1480691038123155,-1.17156,0.101585,1.26792
1480691038150728,-1.17035,0.101435,1.26748
1480691038162259,-1.16946,0.101772,1.26686
1480691038205374,-1.17025,0.102193,1.26677
1480691038207880,-1.17161,0.102312,1.26711
1480691038221918,-1.17142,0.10235,1.26717
1480691038243475,-1.17102,0.103046,1.26694
1480691038264032,-1.17094,0.103184,1.267
1480691038282579,-1.17094,0.103184,1.267
1480691038302132,-1.17078,0.103064,1.26645
1480691038334719,-1.17112,0.103362,1.26603
1480691038341235,-1.17121,0.103282,1.26612
1480691038363795,-1.17121,0.103282,1.26612
1480691038401395,-1.17064,0.103463,1.26594
1480691038404905,-1.17064,0.103463,1.26594
1480691038439998,-1.17064,0.103463,1.26594
1480691038444510,-1.17027,0.103202,1.26594
1480691038483113,-1.17019,0.10334,1.266
1480691038485118,-1.17019,0.10334,1.266
1480691038503181,-1.16977,0.103395,1.26597
1480691038522718,-1.16912,0.10347,1.26545
1480691038543773,-1.16912,0.10347,1.26545
1480691038563326,-1.16991,0.103214,1.26559
1480691038581373,-1.17005,0.103277,1.2656
1480691038608445,-1.17005,0.103277,1.2656
1480691038623486,-1.17071,0.10357,1.26627
1480691038641033,-1.17469,0.103246,1.2692
1480691038678633,-1.17947,0.103014,1.27074
1480691038683144,-1.18327,0.104974,1.27065
1480691038701194,-1.18153,0.108293,1.26959
1480691038737289,-1.17504,0.111296,1.26661
1480691038750824,-1.17273,0.113033,1.26335
1480691038761854,-1.17785,0.115109,1.2626
1480691038797448,-1.1844,0.115888,1.26594
1480691038804969,-1.18758,0.115954,1.27225
1480691038850089,-1.18652,0.113519,1.2756
1480691038853113,-1.18645,0.111584,1.27778
1480691038864626,-1.19287,0.113261,1.28039
1480691038881171,-1.19048,0.113874,1.2827
1480691038920276,-1.18023,0.114343,1.28468
1480691038930803,-1.16964,0.113654,1.28353
1480691038945843,-1.16429,0.114141,1.27951
1480691038965902,-1.16123,0.115597,1.27668
1480691039000490,-1.15883,0.116274,1.27574
1480691039007005,-1.15737,0.115372,1.27604
1480691039053130,-1.15807,0.113883,1.27561
1480691039055133,-1.1589,0.112299,1.27659
1480691039081704,-1.15897,0.112161,1.27653
1480691039091230,-1.15881,0.11118,1.27708
1480691039112285,-1.1605,0.110751,1.27641
1480691039121312,-1.16684,0.111163,1.27577
1480691039148382,-1.17202,0.112116,1.27504
1480691039165928,-1.17166,0.113783,1.27439
1480691039180968,-1.16654,0.115587,1.2734
1480691039204029,-1.16183,0.116211,1.27225
1480691039227091,-1.15859,0.116396,1.2707
1480691039241629,-1.15742,0.116797,1.26995
1480691039263688,-1.15815,0.116248,1.26987
1480691039286250,-1.15919,0.115564,1.27112
1480691039315325,-1.15913,0.115051,1.27142
1480691039331368,-1.15899,0.11416,1.27136
1480691039350919,-1.15895,0.113554,1.27153
1480691039365961,-1.15952,0.113248,1.27234
1480691039391027,-1.15977,0.113189,1.27324
1480691039407069,-1.15928,0.112919,1.27338
1480691039425619,-1.15876,0.11232,1.27335
1480691039445672,-1.15876,0.11232,1.27335
1480691039470739,-1.15966,0.112016,1.27319
1480691039485780,-1.16062,0.111545,1.27333
1480691039515859,-1.16061,0.111487,1.27319
1480691039534408,-1.16058,0.111522,1.27317
1480691039548946,-1.15994,0.11199,1.27333
1480691039570004,-1.15868,0.112551,1.27354
1480691039586548,-1.15737,0.112817,1.27354
1480691039605597,-1.15728,0.112897,1.27346
1480691039624147,-1.15773,0.112711,1.27377
1480691039653725,-1.15793,0.112453,1.2742
1480691039668765,-1.1574,0.112189,1.27469
1480691039684306,-1.15538,0.111651,1.27433
1480691039706366,-1.15437,0.111464,1.27383
1480691039733438,-1.15442,0.111609,1.27375
1480691039743463,-1.15481,0.111369,1.27426
1480691039789085,-1.1549,0.111289,1.27435
1480691039793098,-1.15493,0.111469,1.27426
1480691039803627,-1.15416,0.111687,1.27415
1480691039840222,-1.15358,0.11196,1.27411
1480691039845735,-1.15372,0.112024,1.27412
1480691039871805,-1.15418,0.112571,1.27436
1480691039885843,-1.1546,0.113128,1.27455
1480691039906397,-1.15543,0.113845,1.27466
1480691039946003,-1.15635,0.114333,1.27457
1480691039948509,-1.15747,0.114932,1.27469
1480691039968061,-1.15831,0.115282,1.27503
1480691039997640,-1.15917,0.115503,1.27526
1480691040006162,-1.1599,0.11566,1.27548
1480691040026216,-1.16061,0.115392,1.27578
1480691040042760,-1.16179,0.114752,1.27614
1480691040065320,-1.16299,0.114388,1.27615
1480691040086877,-1.16403,0.114608,1.27629
1480691040103424,-1.16444,0.114647,1.27644
1480691040143026,-1.16497,0.114325,1.27669
1480691040150546,-1.16497,0.114325,1.27669
1480691040163581,-1.16497,0.114325,1.27669
1480691040186144,-1.16504,0.114187,1.27663
1480691040206195,-1.16504,0.114187,1.27663
1480691040228754,-1.16584,0.113936,1.27675
1480691040246802,-1.16582,0.113878,1.27661
1480691040273875,-1.16605,0.113862,1.2767
1480691040282898,-1.16657,0.113699,1.2763
1480691040305458,-1.1672,0.113327,1.27588
1480691040343561,-1.16741,0.113102,1.27555
1480691040345565,-1.16755,0.113166,1.27556
1480691040356094,-1.16497,0.114325,1.27669
1480691040360104,-1.16504,0.114187,1.27663
1480691040380658,-1.16697,0.113345,1.27539
1480691040388680,-1.16681,0.113318,1.27496
1480691040402721,-1.16656,0.113061,1.27483
1480691040426280,-1.16732,0.11294,1.27467
1480691040447837,-1.16776,0.112914,1.27433
1480691040462877,-1.16812,0.112198,1.274
1480691040500978,-1.16812,0.112198,1.274
1480691040515517,-1.16812,0.112198,1.274
1480691040522035,-1.16815,0.112378,1.27391
1480691040545597,-1.16934,0.112842,1.27358
1480691040575677,-1.16936,0.112503,1.27305
1480691040582194,-1.16875,0.112107,1.27229
1480691040619295,-1.1682,0.111545,1.27184
1480691040634835,-1.16825,0.111689,1.27177
1480691040656392,-1.16856,0.111901,1.27196
1480691040664914,-1.16844,0.111652,1.27131
1480691040696498,-1.16935,0.112082,1.27068
1480691040718056,-1.16947,0.112181,1.27068
1480691040725576,-1.16903,0.111963,1.27062
1480691040748637,-1.16826,0.111786,1.26984
1480691040770698,-1.16826,0.111786,1.26984
1480691040809298,-1.16791,0.111337,1.26959
1480691040812306,-1.16718,0.111397,1.26886
1480691040828850,-1.16765,0.111609,1.26818
1480691040858930,-1.1684,0.111578,1.26815
1480691040867954,-1.16839,0.111521,1.26801
1480691040914077,-1.16836,0.11119,1.26783
1480691040919592,-1.16826,0.110904,1.26758
1480691040929117,-1.1689,0.110896,1.26732
1480691040949169,-1.16903,0.110901,1.26719
1480691040972733,-1.16903,0.110901,1.26719
1480691040993789,-1.16879,0.110552,1.26693
1480691041008829,-1.16879,0.110552,1.26693
1480691041027378,-1.1692,0.109977,1.26692
1480691041047933,-1.17007,0.109584,1.26699
1480691041071997,-1.17066,0.10931,1.26704
1480691041085535,-1.17175,0.108964,1.26683
1480691041108594,-1.17344,0.108956,1.26683
1480691041129149,-1.17387,0.109021,1.26661
1480691041145692,-1.17459,0.109271,1.26657
1480691041181288,-1.1749,0.109086,1.2661
1480691041196829,-1.17512,0.108765,1.26565
1480691041214876,-1.17566,0.108348,1.26578
1480691041233937,-1.17659,0.108156,1.26632
1480691041266012,-1.17635,0.1079,1.26659
1480691041275538,-1.17543,0.107474,1.26681
1480691041288576,-1.17448,0.107025,1.26687
1480691041310633,-1.17454,0.107227,1.26694
1480691041331688,-1.17502,0.107005,1.26767
1480691041347730,-1.17443,0.106791,1.26848
1480691041370290,-1.17334,0.10643,1.2688
1480691041384830,-1.17283,0.10635,1.2688
1480691041408391,-1.17222,0.10635,1.26871
1480691041445490,-1.17222,0.10635,1.26871
1480691041447495,-1.17254,0.106102,1.26902
1480691041476071,-1.17266,0.105985,1.26951
1480691041490610,-1.17257,0.106065,1.26943
1480691041504648,-1.17309,0.106051,1.2693
1480691041527709,-1.1726,0.105539,1.26865
1480691041556284,-1.17212,0.1053,1.26803
1480691041566311,-1.17278,0.105349,1.26792
1480691041593885,-1.17329,0.105062,1.26816
1480691041610428,-1.17402,0.105218,1.26838
1480691041639004,-1.17402,0.105218,1.26838
1480691041648029,-1.17409,0.105541,1.26782
1480691041670589,-1.17401,0.105895,1.26737
1480691041684626,-1.17425,0.105847,1.26696
1480691041709693,-1.17385,0.106234,1.26671
1480691041731752,-1.17385,0.106234,1.26671
1480691041751805,-1.17431,0.106049,1.26703
1480691041767849,-1.17469,0.106217,1.26729
1480691041804447,-1.17474,0.106512,1.26749
1480691041811463,-1.17472,0.106548,1.26747
1480691041828007,-1.17495,0.106652,1.26693
1480691041851069,-1.17495,0.106652,1.26693
1480691041881148,-1.17531,0.106395,1.26689
1480691041888669,-1.17601,0.106314,1.26707
1480691041911729,-1.17658,0.106443,1.26687
1480691041931283,-1.17672,0.106506,1.26688
1480691041947825,-1.1767,0.106542,1.26686
1480691041970385,-1.17629,0.106808,1.26725
1480691041999463,-1.1766,0.1069,1.26807
1480691042009489,-1.17686,0.107094,1.26937
1480691042053607,-1.17789,0.107224,1.27106
1480691042058118,-1.17805,0.107379,1.27291
1480691042067644,-1.17773,0.108,1.27443
1480691042099229,-1.1793,0.108607,1.27513
1480691042111260,-1.18079,0.108741,1.27572
1480691042128306,-1.18183,0.10921,1.27627
1480691042158387,-1.18067,0.109597,1.27681
1480691042173425,-1.18053,0.110393,1.27736
1480691042195986,-1.17997,0.110782,1.27799
1480691042214034,-1.17946,0.111314,1.27855
1480691042234589,-1.1806,0.111611,1.27905
1480691042248124,-1.18163,0.111811,1.27997
1480691042278705,-1.18133,0.111998,1.28084
1480691042292743,-1.17941,0.111828,1.28216
1480691042307783,-1.17754,0.112045,1.2838
1480691042330344,-1.17596,0.112264,1.28483
1480691042359921,-1.17582,0.1122,1.28482
1480691042384487,-1.17582,0.1122,1.28482
1480691042390503,-1.17619,0.112711,1.28522
1480691042436126,-1.17466,0.113194,1.28553
1480691042438631,-1.17405,0.114016,1.2851
1480691042451667,-1.17319,0.114551,1.28363
1480691042473223,-1.17279,0.114688,1.28259
1480691042494279,-1.17474,0.116174,1.28177
1480691042520348,-1.17506,0.117705,1.28075
1480691042532881,-1.1751,0.119138,1.28022
1480691042562962,-1.17646,0.121017,1.28039
1480691042570482,-1.17658,0.121023,1.28025
1480691042600561,-1.17512,0.120852,1.28008
1480691042614097,-1.17355,0.121101,1.27996
1480691042661223,-1.17341,0.121036,1.27995
1480691042665233,-1.17614,0.120803,1.28019
1480691042681777,-1.18096,0.119955,1.28235
1480691042705340,-1.1848,0.118613,1.28573
1480691042713361,-1.18466,0.117156,1.28849
1480691042743442,-1.18301,0.116592,1.2898
1480691042750460,-1.18275,0.117466,1.28894
1480691042773020,-1.1807,0.117116,1.28765
1480691042794076,-1.17807,0.117925,1.28651
1480691042810118,-1.17529,0.119687,1.28448
1480691042840198,-1.17058,0.12187,1.28173
1480691042853734,-1.17064,0.123579,1.28085
1480691042870280,-1.17258,0.124114,1.28101
1480691042892839,-1.17552,0.123781,1.28235
1480691042915399,-1.1769,0.122531,1.2834
1480691042938961,-1.1762,0.121228,1.28523
1480691042959516,-1.17863,0.119474,1.2869
1480691042981575,-1.18394,0.118397,1.2885
1480691043000124,-1.18915,0.117789,1.29055
1480691043021681,-1.18946,0.11741,1.29227
1480691043043239,-1.18677,0.11685,1.29254
1480691043050257,-1.18371,0.116999,1.29235
1480691043072817,-1.18051,0.116834,1.29135
1480691043119444,-1.17619,0.116645,1.28988
1480691043124456,-1.1743,0.117005,1.2884
1480691043134481,-1.1733,0.117719,1.28692
1480691043156541,-1.17113,0.119029,1.2855
1480691043172081,-1.16763,0.120638,1.28366
1480691043194140,-1.16384,0.122319,1.28089
1480691043215697,-1.162,0.124146,1.27801
1480691043229734,-1.16308,0.124825,1.2773
1480691043275857,-1.16691,0.125157,1.2784
1480691043278364,-1.16985,0.123489,1.2802
1480691043289895,-1.17142,0.121151,1.28201
1480691043312956,-1.17455,0.118759,1.28342
1480691043342533,-1.17876,0.11705,1.28454
1480691043351057,-1.18392,0.115746,1.28547
1480691043372614,-1.18601,0.114372,1.28656
1480691043402195,-1.18541,0.113905,1.28658
1480691043411719,-1.18268,0.114175,1.28478
1480691043435282,-1.18156,0.114536,1.28291
1480691043455335,-1.1805,0.115196,1.28123
1480691043470375,-1.1781,0.11606,1.2794
1480691043506471,-1.17463,0.117543,1.27744
1480691043515495,-1.17126,0.118492,1.27608
1480691043530534,-1.17128,0.118672,1.27599
1480691043553094,-1.17408,0.119032,1.27738
1480691043576156,-1.17821,0.118642,1.27836
1480691043597712,-1.17984,0.117649,1.27954
1480691043613254,-1.17934,0.116312,1.2813
1480691043636817,-1.18027,0.11516,1.28399
1480691043663890,-1.18398,0.113969,1.28685
1480691043686450,-1.18951,0.114512,1.2915
1480691043695975,-1.1908,0.115108,1.29517
1480691043716528,-1.19017,0.11319,1.2965
1480691043771675,-1.18996,0.113399,1.29514
1480691043778694,-1.18644,0.113913,1.29294
1480691043783708,-1.18254,0.114667,1.29064
1480691043792731,-1.17961,0.116993,1.28838
1480691043815291,-1.17619,0.118868,1.28429
1480691043836347,-1.17166,0.120371,1.2796
1480691043853393,-1.16889,0.122339,1.27785
1480691043875953,-1.16982,0.123412,1.27703
1480691043896508,-1.17545,0.123179,1.27702
1480691043913051,-1.17913,0.122049,1.2779
1480691043942630,-1.17916,0.121126,1.27944
1480691043965190,-1.17946,0.119815,1.28176
1480691043973713,-1.1833,0.117205,1.2835
1480691043995270,-1.18847,0.116399,1.28524
1480691044033371,-1.19069,0.116536,1.28656
1480691044035880,-1.19268,0.117183,1.28819
1480691044055431,-1.19091,0.116236,1.28819
1480691044086013,-1.18944,0.116649,1.28609
1480691044093030,-1.1868,0.11745,1.28454
1480691044115590,-1.18323,0.117861,1.28359
1480691044145670,-1.1798,0.11905,1.28336
1480691044152689,-1.17722,0.12035,1.28268
1480691044183270,-1.17438,0.122655,1.2818
1480691044198811,-1.17265,0.124899,1.28073
1480691044220370,-1.17361,0.126398,1.28022
1480691044236913,-1.17504,0.127097,1.28077
1480691044268501,-1.1756,0.126742,1.28144
1480691044275013,-1.17622,0.125976,1.28241
1480691044304093,-1.17751,0.124377,1.28438
1480691044326150,-1.17849,0.12195,1.286
1480691044332166,-1.18058,0.119651,1.28729
1480691044369266,-1.18403,0.118664,1.28951
1480691044385310,-1.18229,0.118427,1.29154
1480691044400348,-1.18012,0.117337,1.29086
1480691044415387,-1.17842,0.118787,1.28951
1480691044437948,-1.17713,0.119246,1.28825
1480691044460508,-1.17373,0.120944,1.28639
1480691044477051,-1.17258,0.122763,1.2851
1480691044498108,-1.17427,0.122985,1.28418
1480691044520166,-1.175,0.123363,1.2839
1480691044542725,-1.17588,0.123958,1.28429
1480691044588347,-1.17712,0.123719,1.28539
1480691044603387,-1.17882,0.122687,1.28663
1480691044605894,-1.18049,0.121173,1.28743
1480691044617928,-1.18242,0.120592,1.28867
1480691044638982,-1.18269,0.120818,1.28922
1480691044669563,-1.18329,0.121035,1.28839
1480691044679589,-1.18357,0.121345,1.28739
1480691044698641,-1.18188,0.121817,1.28612
1480691044715686,-1.17912,0.122681,1.28394
1480691044737745,-1.17766,0.12382,1.28215
1480691044773840,-1.17662,0.124637,1.28116
1480691044799409,-1.17777,0.124195,1.28045
1480691044820966,-1.17965,0.12318,1.28005
1480691044823474,-1.18074,0.12226,1.28057
1480691044835008,-1.18112,0.121023,1.28153
1480691044858566,-1.18239,0.119794,1.28195
1480691044882128,-1.18623,0.12003,1.28242
1480691044895665,-1.18744,0.119883,1.28192
1480691044918227,-1.1864,0.120143,1.28129
1480691044940283,-1.18619,0.120791,1.2802
1480691044955324,-1.18469,0.121481,1.27966
1480691044985405,-1.18369,0.121399,1.27943
1480691044998939,-1.18238,0.121932,1.27907
1480691045015483,-1.18065,0.122518,1.27867
1480691045038044,-1.17993,0.122661,1.279
1480691045069628,-1.18067,0.122363,1.27933
1480691045075643,-1.18278,0.121738,1.28089
1480691045097702,-1.186,0.120293,1.28272
1480691045136806,-1.18748,0.119335,1.28363
1480691045141819,-1.18839,0.119901,1.28444
1480691045157864,-1.18725,0.120713,1.2853
1480691045180422,-1.18506,0.120335,1.28491
1480691045195477,-1.18512,0.121945,1.28428
1480691045218023,-1.18471,0.121689,1.28464
1480691045240582,-1.18524,0.121007,1.28513
1480691045261639,-1.18752,0.120692,1.28544
1480691045284198,-1.19012,0.12038,1.28607
1480691045300243,-1.19089,0.120054,1.28682
1480691045346864,-1.18981,0.119263,1.28817
1480691045351380,-1.1883,0.118368,1.28921
1480691045360400,-1.18756,0.117507,1.29037
1480691045374939,-1.18641,0.116872,1.29101
1480691045438106,-1.18617,0.117324,1.29157
1480691045441616,-1.18593,0.117984,1.29215
1480691045458162,-1.18673,0.119052,1.29146
1480691045480720,-1.18612,0.119987,1.29038
1480691045494758,-1.18393,0.120761,1.2885
1480691045517819,-1.17906,0.121718,1.28603
1480691045540379,-1.17619,0.122731,1.28427
1480691045569457,-1.17678,0.123505,1.28347
1480691045591516,-1.17781,0.123091,1.28421
1480691045624102,-1.17912,0.122347,1.28508
1480691045629115,-1.17969,0.121689,1.28653
1480691045639145,-1.1813,0.121082,1.28823
1480691045660198,-1.18404,0.119918,1.28947
1480691045688774,-1.18765,0.119486,1.29084
1480691045697797,-1.19131,0.119822,1.29269
1480691045720357,-1.19255,0.11867,1.2927
1480691045741915,-1.19302,0.118974,1.29214
1480691045781019,-1.18911,0.120222,1.29104
1480691045796059,-1.1842,0.121389,1.28972
1480691045808592,-1.1809,0.123059,1.28848
1480691045819120,-1.1801,0.123303,1.28795
1480691045847696,-1.18025,0.122778,1.28703
1480691045868752,-1.17974,0.12266,1.28612
1480691045885299,-1.17793,0.122549,1.28573
1480691045907856,-1.1777,0.122564,1.28563
1480691045928912,-1.18076,0.121729,1.28643
1480691045937936,-1.18465,0.120735,1.28714
1480691045968018,-1.18723,0.120979,1.28777
1480691045990577,-1.18754,0.120926,1.28834
1480691045998096,-1.18693,0.120919,1.28825
1480691046020657,-1.18639,0.121235,1.28799
1480691046050235,-1.18496,0.121448,1.28814
1480691046065275,-1.18351,0.121083,1.2881
1480691046080315,-1.18353,0.120776,1.28849
1480691046102875,-1.18437,0.121137,1.28883
1480691046125435,-1.18366,0.121399,1.28891
1480691046140976,-1.18067,0.122244,1.28833
1480691046180080,-1.17789,0.123788,1.28721
1480691046184091,-1.17629,0.124494,1.28565
1480691046200636,-1.17468,0.124715,1.28497
1480691046222694,-1.1732,0.125096,1.28482
1480691046252773,-1.17363,0.125778,1.28477
1480691046260293,-1.17766,0.126037,1.28529
1480691046290374,-1.18057,0.125382,1.28607
1480691046297392,-1.18183,0.123764,1.28749
1480691046321957,-1.1804,0.122265,1.28818
1480691046343515,-1.18149,0.121445,1.28884
1480691046357051,-1.185,0.122072,1.29043
1480691046381115,-1.18501,0.121434,1.29197
1480691046402671,-1.18283,0.12044,1.29182
1480691046417211,-1.17994,0.120222,1.29138
1480691046440271,-1.177,0.119742,1.29167
1480691046462831,-1.17577,0.119916,1.29176
1480691046485392,-1.17491,0.120571,1.29133
1480691046500432,-1.17454,0.121039,1.29086
1480691046523995,-1.17545,0.121261,1.29074
1480691046544047,-1.17543,0.121297,1.29073
1480691046568115,-1.17543,0.121297,1.29073
1480691046582650,-1.17565,0.121225,1.29067
1480691046603706,-1.17496,0.120836,1.29061
1480691046620250,-1.17455,0.120945,1.29073
1480691046643312,-1.17533,0.121102,1.29061
1480691046665370,-1.17758,0.121344,1.29052
1480691046681914,-1.17992,0.12197,1.29082
1480691046703472,-1.18186,0.121996,1.29055
1480691046724027,-1.18421,0.122006,1.29028
1480691046741576,-1.18381,0.121773,1.28987
1480691046762629,-1.18049,0.121609,1.28942
1480691046784186,-1.17707,0.121498,1.28925
1480691046800731,-1.17585,0.121428,1.28893
1480691046822790,-1.17652,0.121758,1.28885
1480691046847856,-1.17751,0.121841,1.28867
1480691046861894,-1.17874,0.122279,1.28875
1480691046885456,-1.17994,0.12248,1.28918
1480691046905008,-1.18193,0.122529,1.28947
1480691046928069,-1.18301,0.122785,1.29018
1480691046943108,-1.18272,0.122632,1.29093
1480691046965167,-1.18233,0.122799,1.29119
1480691046980208,-1.18142,0.122849,1.29094
1480691047003771,-1.1808,0.12257,1.29122
1480691047025327,-1.18007,0.12219,1.29151
1480691047040869,-1.17909,0.121916,1.29143
1480691047062928,-1.17756,0.121899,1.29054
1480691047085487,-1.17541,0.122186,1.2892
1480691047099526,-1.17459,0.122467,1.28865
1480691047123088,-1.17553,0.123021,1.28872
1480691047153669,-1.17769,0.122606,1.28902
1480691047162692,-1.17942,0.122123,1.28954
1480691047188762,-1.18054,0.122,1.28974
1480691047205307,-1.18216,0.122884,1.28973
1480691047219851,-1.18407,0.123535,1.29037
1480691047242906,-1.18288,0.12272,1.29017
1480691047279504,-1.18114,0.122833,1.28948
1480691047294042,-1.17851,0.122787,1.28946
1480691047318111,-1.17736,0.122977,1.28976
1480691047325626,-1.17745,0.123727,1.2899
1480691047353702,-1.17759,0.12364,1.28964
1480691047369244,-1.17649,0.124094,1.28922
1480691047386789,-1.17438,0.124715,1.28806
1480691047400828,-1.17321,0.125892,1.28697
1480691047424389,-1.17234,0.126644,1.28668
1480691047452965,-1.17195,0.127149,1.2858
1480691047466501,-1.17406,0.127321,1.2853
1480691047483045,-1.1753,0.127049,1.28548
1480691047505605,-1.17562,0.126222,1.28653
1480691047542201,-1.17778,0.125282,1.28772
1480691047556243,-1.18175,0.124399,1.28875
1480691047565765,-1.18417,0.125017,1.29003
1480691047586320,-1.18307,0.124988,1.29089
1480691047602864,-1.18185,0.123781,1.2913
1480691047639461,-1.17955,0.123879,1.29058
1480691047648987,-1.17533,0.12343,1.29063
1480691047663023,-1.17476,0.123877,1.29009
1480691047685583,-1.17538,0.124984,1.28947
1480691047706640,-1.17163,0.126444,1.28687
1480691047745743,-1.16733,0.129007,1.28484
1480691047748250,-1.16772,0.130009,1.28437
1480691047766298,-1.17065,0.1298,1.28467
1480691047782842,-1.17241,0.129454,1.28549
1480691047806906,-1.17289,0.128408,1.28656
1480691047843503,-1.17257,0.127273,1.28865
1480691047846010,-1.17338,0.126015,1.29133
1480691047865563,-1.17404,0.124053,1.29422
1480691047889124,-1.17495,0.122936,1.29649
1480691047910682,-1.17592,0.123953,1.29818
1480691047934749,-1.1735,0.123551,1.29848
1480691047947780,-1.17132,0.123136,1.29887
1480691047962820,-1.1714,0.123639,1.29821
1480691047985383,-1.16987,0.123008,1.29716
1480691048007941,-1.16771,0.123726,1.29648
1480691048022482,-1.16513,0.124619,1.29515
1480691048046543,-1.16434,0.12514,1.29427
1480691048068100,-1.16403,0.125266,1.29292
1480691048089156,-1.16451,0.12539,1.2921
1480691048120240,-1.16473,0.125318,1.29205
1480691048128260,-1.16552,0.12492,1.29229
1480691048150822,-1.16625,0.124349,1.29298
1480691048165359,-1.16818,0.123793,1.29343
1480691048188922,-1.1692,0.122862,1.29373
1480691048202459,-1.17074,0.122322,1.29419
1480691048233541,-1.17207,0.12259,1.29462
1480691048249082,-1.17013,0.121335,1.29417
1480691048262116,-1.17001,0.122185,1.29319
1480691048298714,-1.16829,0.122668,1.29268
1480691048313754,-1.16745,0.122525,1.29183
1480691048322276,-1.16584,0.123113,1.29092
1480691048345337,-1.16319,0.123635,1.28921
1480691048368901,-1.16313,0.123952,1.28918
1480691048405999,-1.1655,0.12352,1.28956
1480691048408506,-1.16834,0.122907,1.29066
1480691048428058,-1.16989,0.122148,1.29242
1480691048449114,-1.17018,0.121601,1.29345
1480691048471674,-1.17057,0.121804,1.29463
1480691048487716,-1.17267,0.122109,1.29558
1480691048508772,-1.17347,0.121714,1.29583
1480691048525317,-1.17207,0.122007,1.29537
1480691048549381,-1.1679,0.121608,1.2947
1480691048576452,-1.16561,0.120974,1.29406
1480691048592996,-1.16394,0.120991,1.2933
1480691048615556,-1.16312,0.120907,1.2926
1480691048629094,-1.16292,0.120793,1.29239
1480691048645136,-1.1629,0.120735,1.29225
1480691048667698,-1.16461,0.121323,1.29282
1480691048689755,-1.16725,0.121579,1.29405
1480691048705797,-1.16967,0.120903,1.29537
1480691048727855,-1.17015,0.121148,1.29599
1480691048765956,-1.16963,0.122503,1.29662
1480691048788516,-1.16829,0.123063,1.29793
1480691048792025,-1.16736,0.121922,1.29862
1480691048810074,-1.16578,0.121363,1.29882
1480691048825615,-1.16193,0.120592,1.2987
1480691048847673,-1.15918,0.121208,1.29822
1480691048870234,-1.157,0.121842,1.29777
1480691048884774,-1.15594,0.121777,1.29658
1480691048907834,-1.1552,0.122331,1.29458
1480691048937913,-1.15544,0.122785,1.29329
1480691048945434,-1.15527,0.123371,1.29304
1480691048968495,-1.15391,0.123484,1.29273
1480691048991055,-1.15595,0.12459,1.29276
1480691049020132,-1.15907,0.124873,1.29303
1480691049051215,-1.16116,0.12373,1.29373
1480691049053221,-1.16164,0.123477,1.29562
1480691049064751,-1.162,0.122146,1.29719
1480691049101350,-1.16401,0.121208,1.29886
1480691049116389,-1.16634,0.121716,1.30019
1480691049124913,-1.16551,0.122361,1.3011
1480691049147972,-1.16321,0.122183,1.30036
1480691049187077,-1.16174,0.123197,1.29962
1480691049191589,-1.15989,0.12291,1.2984
1480691049210138,-1.15787,0.123546,1.29747
1480691049239215,-1.15601,0.124337,1.29633
1480691049251750,-1.1552,0.124898,1.29544
1480691049267795,-1.15571,0.125353,1.2952
1480691049298873,-1.15653,0.125288,1.29523
1480691049318927,-1.15613,0.124934,1.29546
1480691049327951,-1.15611,0.12475,1.29595
1480691049364047,-1.15795,0.124423,1.29658
1480691049380089,-1.15974,0.124264,1.29691
1480691049393625,-1.16151,0.124417,1.29687
1480691049410169,-1.16415,0.124341,1.29676
1480691049431225,-1.16323,0.124335,1.29597
1480691049448771,-1.16018,0.124497,1.29489
1480691049478852,-1.15841,0.124102,1.29453
1480691049500410,-1.15747,0.123179,1.2947
1480691049515450,-1.15512,0.122075,1.29396
1480691049530991,-1.15319,0.12175,1.29331
1480691049551546,-1.15294,0.121734,1.29358
1480691049575108,-1.15243,0.121587,1.29384
1480691049591653,-1.15319,0.121769,1.29462
1480691049611204,-1.1551,0.121395,1.29532
1480691049635770,-1.15595,0.121441,1.29604
1480691049657829,-1.15617,0.122737,1.29741
1480691049679886,-1.1562,0.122698,1.29783
1480691049701448,-1.15428,0.123161,1.29726
1480691049710468,-1.15109,0.12397,1.29609
1480691049740551,-1.14949,0.124563,1.29519
1480691049754084,-1.14741,0.125105,1.29394
1480691049771129,-1.14505,0.125747,1.29176
1480691049792686,-1.14283,0.127293,1.28928
1480691049821262,-1.14435,0.128904,1.28858
1480691049830286,-1.1472,0.129102,1.28895
1480691049853849,-1.14933,0.128608,1.28999
1480691049875908,-1.1501,0.128324,1.29087
1480691049890447,-1.15234,0.129207,1.29057
1480691049913508,-1.15831,0.130158,1.29071
1480691049935567,-1.16171,0.131272,1.29169
1480691049951609,-1.16166,0.130883,1.29136
1480691049978681,-1.1583,0.130322,1.28965
1480691049987204,-1.15621,0.131252,1.28948
1480691050010265,-1.15422,0.131364,1.28985
1480691050033830,-1.15284,0.130902,1.28936
1480691050055887,-1.15282,0.131902,1.28797
1480691050070425,-1.1523,0.133502,1.286
1480691050107022,-1.15246,0.134973,1.28364
1480691050117049,-1.15347,0.136681,1.28057
1480691050131087,-1.15626,0.138159,1.27991
1480691050158660,-1.16089,0.137637,1.27885
1480691050173700,-1.16302,0.136623,1.27945
1480691050197764,-1.16603,0.136785,1.28011
1480691050214308,-1.17325,0.137192,1.2817
1480691050233860,-1.18046,0.137377,1.28365
1480691050250406,-1.18127,0.137189,1.28432
1480691050278980,-1.17604,0.136795,1.28262
1480691050295524,-1.17153,0.13824,1.28123
1480691050317081,-1.17138,0.139193,1.28074
1480691050334630,-1.17201,0.139932,1.28036
1480691050370723,-1.17144,0.140939,1.27986
1480691050376238,-1.16906,0.141636,1.27818
1480691050392782,-1.16754,0.142662,1.27593
1480691050416345,-1.16986,0.143616,1.27501
1480691050430382,-1.17161,0.143817,1.27545
1480691050453444,-1.17081,0.143702,1.27517
1480691050473496,-1.17113,0.143518,1.27429
1480691050504078,-1.17233,0.143369,1.27377
1480691050520121,-1.1735,0.143133,1.27387
1480691050534174,-1.17305,0.142548,1.27365
1480691050556217,-1.17414,0.143221,1.27333
1480691050572760,-1.17352,0.142548,1.27254
1480691050601341,-1.17244,0.143021,1.27083
1480691050613870,-1.17418,0.144492,1.26895
1480691050639438,-1.17657,0.145737,1.26692
1480691050662499,-1.17821,0.147199,1.26479
1480691050671022,-1.17856,0.148149,1.2632
1480691050692579,-1.17895,0.148471,1.26242
1480691050722660,-1.18099,0.147894,1.26271
1480691050730681,-1.18327,0.147609,1.26312
1480691050752741,-1.18535,0.147521,1.26427
1480691050777807,-1.18594,0.148018,1.26515
1480691050791345,-1.18347,0.148493,1.26548
1480691050812915,-1.1803,0.148742,1.26471
1480691050843481,-1.17925,0.149332,1.26369
1480691050851004,-1.18086,0.148942,1.26236
1480691050880078,-1.18342,0.14798,1.26144
1480691050895620,-1.18394,0.146946,1.26099
1480691050910158,-1.18265,0.145115,1.26067
1480691050934222,-1.18034,0.143095,1.26078
1480691050962798,-1.17887,0.141766,1.26135
1480691050983854,-1.17789,0.140548,1.2619
1480691050993380,-1.17708,0.140128,1.26239
1480691051015939,-1.17647,0.140224,1.26244
1480691051040005,-1.17658,0.139861,1.26253
1480691051052537,-1.17602,0.14041,1.26213
1480691051075598,-1.17457,0.140929,1.26137
1480691051090138,-1.17561,0.141085,1.26097
1480691051113199,-1.17575,0.141149,1.26098
1480691051144781,-1.17517,0.140869,1.26091
1480691051158319,-1.17517,0.140869,1.26091
1480691051174361,-1.17434,0.140732,1.26139
1480691051195918,-1.17322,0.140101,1.26169
1480691051223993,-1.17376,0.1402,1.26224
1480691051240537,-1.17424,0.140345,1.26272
1480691051262094,-1.17404,0.140477,1.26332
1480691051276131,-1.17381,0.140892,1.2639
1480691051292675,-1.17391,0.141333,1.26402
1480691051321251,-1.17377,0.141268,1.26401
1480691051337295,-1.17431,0.141311,1.26403
1480691051353337,-1.17501,0.141287,1.26473
1480691051375395,-1.1758,0.140628,1.26548
1480691051396952,-1.17686,0.140038,1.26651
1480691051421017,-1.17863,0.139736,1.26747
1480691051444579,-1.18211,0.139704,1.26845
1480691051457614,-1.18548,0.139423,1.26917
1480691051473656,-1.18867,0.138995,1.26971
1480691051519278,-1.19254,0.138412,1.27105
1480691051540835,-1.19499,0.137111,1.27357
1480691051543342,-1.19649,0.135828,1.27699
1480691051570915,-1.19964,0.135467,1.28038
1480691051576430,-1.20643,0.135513,1.28271
1480691051601498,-1.21675,0.1329,1.28426
1480691051623055,-1.23108,0.129391,1.28786
1480691051636590,-1.24403,0.126293,1.29261
1480691051652131,-1.2511,0.124372,1.29689
1480691051675192,-1.25304,0.123059,1.29996
1480691051705273,-1.25396,0.123582,1.30025
1480691051721315,-1.24966,0.12329,1.29945
1480691051735354,-1.24861,0.122765,1.2993
1480691051757913,-1.25049,0.122485,1.30261
1480691051771950,-1.25224,0.124377,1.3065
1480691051801528,-1.25287,0.127269,1.30853
1480691051819075,-1.25129,0.128872,1.30818
1480691051840131,-1.25196,0.128325,1.30596
1480691051879235,-1.25228,0.128345,1.30352
1480691051900797,-1.25296,0.129246,1.30071
1480691051903306,-1.25227,0.128979,1.29818
1480691051916838,-1.25248,0.128042,1.29639
1480691051937892,-1.25293,0.126459,1.29577
1480691051952430,-1.25247,0.125231,1.29463
1480691051975993,-1.25036,0.125078,1.2929
1480691051998051,-1.25001,0.124574,1.29267
1480691052012089,-1.25108,0.124462,1.29387
1480691052035151,-1.24849,0.12391,1.29608
1480691052065230,-1.24447,0.123438,1.29793
1480691052072249,-1.2374,0.121334,1.299
1480691052095310,-1.22818,0.11912,1.29907
1480691052123886,-1.22125,0.117965,1.2986
1480691052155972,-1.21793,0.117247,1.29745
1480691052158477,-1.21549,0.11594,1.29599
1480691052178030,-1.21512,0.115166,1.2952
1480691052199087,-1.21638,0.114791,1.29566
1480691052216634,-1.21635,0.114661,1.29615
1480691052238191,-1.21409,0.115058,1.29573
1480691052258744,-1.20923,0.115398,1.29412
1480691052275288,-1.20535,0.115869,1.29235
1480691052305369,-1.20301,0.116614,1.29056
1480691052318904,-1.20167,0.117489,1.28953
1480691052348985,-1.20056,0.118146,1.28858
1480691052372045,-1.19989,0.118567,1.2878
1480691052386082,-1.19789,0.118914,1.28777
1480691052401626,-1.19445,0.119422,1.28813
1480691052433714,-1.19048,0.119937,1.28862
1480691052438723,-1.18548,0.119611,1.2892
1480691052456771,-1.18117,0.119398,1.28983
1480691052477826,-1.17772,0.119083,1.29091
1480691052500391,-1.17464,0.118298,1.29247
1480691052515928,-1.17111,0.117227,1.29382
1480691052553529,-1.16498,0.116562,1.29505
1480691052559043,-1.1607,0.115541,1.29603
1480691052583109,-1.15956,0.114714,1.29717
1480691052598147,-1.15922,0.11364,1.29883
1480691052628728,-1.15788,0.112663,1.30053
1480691052650287,-1.1561,0.111772,1.30179
1480691052672845,-1.15481,0.11082,1.30238
1480691052681869,-1.15466,0.109929,1.30306
1480691052709944,-1.15431,0.109808,1.30374
1480691052719971,-1.15404,0.110221,1.30428
1480691052742530,-1.15538,0.110431,1.30382
1480691052754563,-1.15703,0.11003,1.30349
1480691052778125,-1.15817,0.109849,1.30319
1480691052800186,-1.15772,0.110085,1.30302
1480691052814724,-1.1578,0.110225,1.30259
1480691052845305,-1.1578,0.110225,1.30259
1480691052860846,-1.15802,0.110154,1.30254
1480691052875383,-1.15841,0.110509,1.30231
1480691052907470,-1.15841,0.110509,1.30231
1480691052928025,-1.15922,0.110816,1.30211
1480691052934541,-1.15997,0.111289,1.3016
1480691052958104,-1.1597,0.111492,1.30096
1480691052995203,-1.16018,0.111618,1.30054
1480691052997709,-1.1608,0.111808,1.30013
1480691053017764,-1.16057,0.111881,1.29978
1480691053040323,-1.16097,0.111993,1.29915
1480691053054861,-1.16162,0.112053,1.29863
1480691053078424,-1.16169,0.112042,1.29793
1480691053100986,-1.16207,0.112247,1.29703
1480691053121538,-1.16292,0.112913,1.29624
1480691053138083,-1.1643,0.113846,1.29496
1480691053161145,-1.16521,0.114562,1.29397
1480691053182702,-1.16619,0.115139,1.29291
1480691053205764,-1.1669,0.115983,1.29212
1480691053220303,-1.16806,0.11671,1.29126
1480691053248879,-1.16841,0.116919,1.2907
1480691053265422,-1.16927,0.117213,1.29015
1480691053287981,-1.16938,0.117313,1.29015
1480691053301519,-1.16938,0.117313,1.29015
1480691053318062,-1.16938,0.117313,1.29015
1480691053346136,-1.16938,0.117313,1.29015
1480691053362178,-1.16866,0.1173,1.2902
1480691053378221,-1.16802,0.117791,1.28999
1480691053401282,-1.16804,0.117849,1.29013
1480691053421336,-1.16804,0.117849,1.29013
1480691053443394,-1.16861,0.117769,1.29044
1480691053461443,-1.16859,0.117805,1.29042
1480691053484504,-1.16859,0.117805,1.29042
1480691053498040,-1.16859,0.117805,1.29042
1480691053529624,-1.16857,0.117747,1.29028
1480691053543159,-1.1684,0.117229,1.29032
1480691053557700,-1.16841,0.117286,1.29047
1480691053580259,-1.16853,0.117387,1.29046
1480691053610339,-1.16986,0.117558,1.29077
1480691053625379,-1.17153,0.11739,1.29125
1480691053640418,-1.17206,0.117166,1.29164
1480691053679020,-1.17159,0.117073,1.29129
1480691053684035,-1.17101,0.117152,1.29098
1480691053706594,-1.1711,0.117073,1.29106
1480691053763747,-1.1711,0.117073,1.29106
1480691053767257,-1.17108,0.117325,1.29054
1480691053782797,-1.17172,0.117842,1.28991
1480691053813378,-1.17158,0.117993,1.28939
1480691053821901,-1.17158,0.117993,1.28939
1480691053843458,-1.17131,0.118167,1.28952
1480691053856995,-1.17075,0.118399,1.28989
1480691053888078,-1.17063,0.118543,1.2903
1480691053904120,-1.17075,0.118428,1.2908
1480691053917156,-1.17057,0.118616,1.29155
1480691053947735,-1.16864,0.118589,1.29183
1480691053962775,-1.16653,0.118261,1.29165
1480691053977315,-1.1656,0.118226,1.29163
1480691054015416,-1.16615,0.118088,1.29178
1480691054022936,-1.16708,0.118367,1.29221
1480691054037474,-1.16708,0.118367,1.29221
1480691054060536,-1.16708,0.118367,1.29221
1480691054083099,-1.16696,0.118483,1.29171
1480691054104652,-1.16696,0.118483,1.29171
1480691054106157,-1.16698,0.118541,1.29186
1480691054125709,-1.16693,0.118981,1.29119
1480691054148269,-1.1676,0.119435,1.29007
1480691054170829,-1.16939,0.120131,1.2893
1480691054185869,-1.17131,0.12071,1.28904
1480691054224472,-1.17237,0.121364,1.2891
1480691054230989,-1.17156,0.121336,1.28894
1480691054250541,-1.17068,0.12172,1.28887
1480691054275607,-1.1704,0.121836,1.28886
1480691054301176,-1.1704,0.121836,1.28886
1480691054313208,-1.17031,0.121916,1.28877
1480691054328250,-1.17115,0.121661,1.28855
1480691054359330,-1.17124,0.121582,1.28863
1480691054373368,-1.17078,0.121396,1.28856
1480691054388408,-1.17042,0.121649,1.2886
1480691054413474,-1.17042,0.121649,1.2886
1480691054425506,-1.17054,0.121656,1.28847
1480691054458096,-1.17053,0.121749,1.28859
1480691054490680,-1.17118,0.12236,1.2885
1480691054504215,-1.17188,0.122654,1.28843
1480691054512738,-1.17185,0.12269,1.28841
1480691054542317,-1.17151,0.122756,1.2882
1480691054593956,-1.17165,0.122821,1.28821
1480691054608492,-1.17283,0.122867,1.28796
1480691054615010,-1.17411,0.12305,1.28769
1480691054635564,-1.1735,0.123045,1.2876
1480691054650604,-1.17297,0.122996,1.28759
1480691054682690,-1.17319,0.122981,1.28768
1480691054688204,-1.17319,0.122981,1.28768
1480691054710764,-1.17319,0.122981,1.28768
1480691054728813,-1.17322,0.123161,1.28759
1480691054767415,-1.17322,0.123161,1.28759
1480691054780450,-1.17397,0.123504,1.28732
1480691054786967,-1.17397,0.123504,1.28732
1480691054811032,-1.17395,0.12354,1.2873
1480691054833593,-1.17389,0.123857,1.28687
1480691054848631,-1.17382,0.124361,1.2867
1480691054872695,-1.1738,0.124397,1.28668
1480691054890744,-1.17348,0.124643,1.28638
1480691054930348,-1.17348,0.124643,1.28638
1480691054932857,-1.17339,0.124722,1.28629
1480691054962434,-1.17339,0.124722,1.28629
1480691054974467,-1.17362,0.124707,1.28639
1480691054988002,-1.1736,0.124649,1.28624
1480691055013570,-1.17373,0.124808,1.28638
1480691055049165,-1.17328,0.125141,1.28634
1480691055067213,-1.17289,0.124911,1.28593
1480691055072226,-1.1728,0.12499,1.28585
1480691055093860,-1.17303,0.124976,1.28594
1480691055124365,-1.17255,0.124732,1.28572
1480691055130882,-1.17218,0.124927,1.28562
1480691055148429,-1.17219,0.124986,1.28576
1480691055167981,-1.17224,0.12513,1.28569
1480691055193548,-1.17214,0.125303,1.28573
1480691055208588,-1.17213,0.125245,1.28559
1480691055237165,-1.17128,0.123937,1.28582
1480691055258723,-1.17004,0.124057,1.28577
1480691055284290,-1.1693,0.123678,1.28606
1480691055288301,-1.16982,0.123085,1.28667
1480691055318882,-1.16945,0.122848,1.28759
1480691055327406,-1.16808,0.122686,1.28803
1480691055355479,-1.16695,0.122783,1.28821
1480691055370518,-1.16695,0.122783,1.28821
1480691055388567,-1.16695,0.122783,1.28821
1480691055424664,-1.16683,0.122898,1.28811
1480691055430679,-1.16697,0.122963,1.28812
1480691055448727,-1.16697,0.122963,1.28812
1480691055471287,-1.16697,0.122963,1.28812
1480691055490840,-1.16698,0.123021,1.28826
1480691055516411,-1.1672,0.122796,1.28833
1480691055530946,-1.1678,0.122434,1.28865
1480691055550497,-1.16841,0.122129,1.28911
1480691055568546,-1.16928,0.121839,1.2893
1480691055606146,-1.16975,0.121319,1.28908
1480691055618177,-1.17064,0.121115,1.28866
1480691055635725,-1.17139,0.121307,1.28851
1480691055648258,-1.17134,0.121257,1.28871
1480691055678337,-1.17134,0.121257,1.28871
1480691055701399,-1.17119,0.120825,1.28854
1480691055710924,-1.17146,0.120435,1.28852
1480691055730477,-1.1717,0.119808,1.28885
1480691055753039,-1.17174,0.119952,1.28877
1480691055792641,-1.17143,0.119521,1.28908
1480691055795148,-1.17076,0.11904,1.28929
1480691055813196,-1.1709,0.119104,1.2893
1480691055835756,-1.17144,0.11906,1.28919
1480691055852801,-1.17273,0.119302,1.28906
1480691055878369,-1.17284,0.119402,1.28906
1480691055888396,-1.17186,0.119592,1.28887
1480691055911457,-1.17177,0.119671,1.28878
1480691055942038,-1.17177,0.119671,1.28878
1480691055948055,-1.17181,0.119693,1.28895
1480691055987160,-1.17128,0.119795,1.28961
1480691055993175,-1.17088,0.119537,1.29036
1480691056008214,-1.17002,0.119395,1.29119
1480691056034285,-1.16949,0.11959,1.29157
1480691056073390,-1.16962,0.119597,1.29184
1480691056085921,-1.17032,0.118696,1.29235
1480691056090935,-1.17115,0.118321,1.29276
1480691056116004,-1.17181,0.11786,1.29261
1480691056145579,-1.17133,0.117492,1.29262
1480691056167641,-1.17014,0.117169,1.29323
1480691056173153,-1.16924,0.117249,1.2939
1480691056189697,-1.16938,0.117314,1.29431
1480691056218273,-1.17002,0.117285,1.29481
1480691056233315,-1.17058,0.117913,1.29541
1480691056264396,-1.17049,0.118021,1.29624
1480691056271916,-1.17048,0.117964,1.2961
1480691056311019,-1.17101,0.118382,1.29588
1480691056325058,-1.17227,0.118909,1.29574
1480691056349123,-1.17359,0.119027,1.2959
1480691056362657,-1.17393,0.118841,1.29636
1480691056369676,-1.17324,0.118451,1.29629
1480691056390734,-1.17316,0.118587,1.29635
1480691056413292,-1.17484,0.118698,1.29648
1480691056431843,-1.17698,0.118479,1.29664
1480691056453400,-1.17799,0.11838,1.29661
1480691056476961,-1.17799,0.11838,1.29661
1480691056506039,-1.17925,0.118292,1.29591
1480691056519073,-1.18112,0.117965,1.29489
1480691056548656,-1.18282,0.117238,1.29368
1480691056557175,-1.18321,0.116702,1.29326
1480691056578732,-1.18219,0.115824,1.29336
1480691056593272,-1.18083,0.11437,1.29385
1480691056627361,-1.17985,0.113705,1.29478
1480691056640396,-1.17943,0.112904,1.29586
1480691056654433,-1.17885,0.112223,1.2968
1480691056670977,-1.17789,0.112102,1.29739
1480691056690529,-1.17713,0.112,1.29766
1480691056714092,-1.17625,0.11238,1.29759
1480691056731138,-1.17547,0.113199,1.29764
1480691056753697,-1.17459,0.114097,1.2976
1480691056797814,-1.17344,0.114498,1.29739
1480691056801325,-1.17293,0.115145,1.29731
1480691056813857,-1.17293,0.115145,1.29731
1480691056838423,-1.17397,0.115897,1.2975
1480691056866998,-1.17592,0.117334,1.29746
1480691056873516,-1.17838,0.118802,1.29728
1480691056912118,-1.17944,0.119214,1.29694
1480691056917132,-1.17748,0.118875,1.29626
1480691056930670,-1.17503,0.119396,1.29594
1480691056956236,-1.17361,0.120186,1.29574
1480691056988822,-1.17317,0.119689,1.29605
1480691056993836,-1.17164,0.118967,1.29655
1480691057013388,-1.16884,0.117508,1.29678
