timestamp,x,y,z,w
1480618112324349,-0.262024,-0.547791,0.608093,0.511292
1480618112326857,-0.262024,-0.547791,0.608093,0.511292
1480618112347913,-0.262024,-0.547791,0.608093,0.511292
1480618112369971,-0.262024,-0.547791,0.608093,0.511292
1480618112376489,-0.262085,-0.547791,0.608093,0.511292
1480618112390024,-0.262085,-0.547791,0.608154,0.51123
1480618112396542,-0.262085,-0.547791,0.608154,0.51123
1480618112416598,-0.262085,-0.547791,0.608154,0.51123
1480618112434143,-0.262085,-0.547791,0.608154,0.51123
1480618112456200,-0.262085,-0.547791,0.608154,0.51123
1480618112474751,-0.262146,-0.547791,0.608154,0.51123
1480618112493800,-0.262146,-0.547791,0.608154,0.511169
1480618112516361,-0.262207,-0.547791,0.608154,0.511169
1480618112534409,-0.262207,-0.547791,0.608154,0.511169
1480618112556969,-0.262146,-0.547791,0.608154,0.511169
1480618112576520,-0.262146,-0.547852,0.608154,0.511169
1480618112602088,-0.262207,-0.547852,0.608154,0.511169
1480618112631166,-0.262207,-0.547852,0.608154,0.511169
1480618112653726,-0.262207,-0.547852,0.608154,0.511108
1480618112667763,-0.262207,-0.547852,0.608154,0.511108
1480618112673779,-0.262207,-0.547852,0.608154,0.511108
1480618112696339,-0.262207,-0.547852,0.608154,0.511108
1480618112718900,-0.262268,-0.547852,0.608154,0.511108
1480618112733939,-0.262268,-0.547852,0.608093,0.511108
1480618112764020,-0.262329,-0.547852,0.608154,0.511047
1480618112774547,-0.262329,-0.547852,0.608154,0.511047
1480618112795603,-0.262268,-0.547852,0.608154,0.511108
1480618112816659,-0.262268,-0.547852,0.608093,0.511108
1480618112850258,-0.262451,-0.548035,0.608032,0.510986
1480618112879828,-0.262634,-0.548157,0.60791,0.510803
1480618112883838,-0.262695,-0.548157,0.60791,0.510803
1480618112901887,-0.262695,-0.548157,0.60791,0.510803
1480618112930462,-0.262512,-0.548035,0.607971,0.510925
1480618112943998,-0.262512,-0.548035,0.607971,0.510925
1480618112959038,-0.262573,-0.548035,0.607971,0.510925
1480618112975582,-0.262573,-0.548035,0.607971,0.510925
1480618112998142,-0.262573,-0.548035,0.607971,0.510864
1480618113018697,-0.262634,-0.548035,0.607971,0.510864
1480618113035241,-0.262634,-0.548035,0.607971,0.510864
1480618113056297,-0.262634,-0.548096,0.607971,0.510864
1480618113086878,-0.262634,-0.548096,0.607971,0.510864
1480618113095401,-0.262695,-0.548096,0.607971,0.510864
1480618113117961,-0.262695,-0.548096,0.607971,0.510803
1480618113142025,-0.262695,-0.548096,0.607971,0.510803
1480618113158569,-0.262695,-0.548096,0.607971,0.510803
1480618113178121,-0.262695,-0.548096,0.607971,0.510803
1480618113201683,-0.262695,-0.548096,0.607971,0.510803
1480618113217726,-0.262756,-0.548096,0.607971,0.510803
1480618113236275,-0.262756,-0.548096,0.607971,0.510742
1480618113258836,-0.262756,-0.548096,0.608032,0.510742
1480618113276883,-0.262756,-0.548096,0.608032,0.510742
1480618113296436,-0.262756,-0.548096,0.608032,0.510742
1480618113318995,-0.262817,-0.548096,0.608032,0.510742
1480618113337044,-0.262817,-0.548096,0.608032,0.510742
1480618113364116,-0.262878,-0.548035,0.608032,0.510681
1480618113395699,-0.262878,-0.548035,0.608032,0.510681
1480618113402718,-0.262878,-0.548035,0.608032,0.510681
1480618113435807,-0.262878,-0.548035,0.608032,0.510681
1480618113440318,-0.262878,-0.548035,0.608032,0.510681
1480618113457866,-0.262878,-0.548096,0.608032,0.510681
1480618113476417,-0.262939,-0.548096,0.608032,0.51062
1480618113506494,-0.262939,-0.548096,0.608032,0.51062
1480618113517023,-0.263245,-0.548157,0.607849,0.51062
1480618113538079,-0.26355,-0.54834,0.607666,0.510498
1480618113559134,-0.26355,-0.54834,0.607666,0.510498
1480618113581696,-0.26355,-0.54834,0.607666,0.510498
1480618113596736,-0.26355,-0.54834,0.607666,0.510437
1480618113621802,-0.263611,-0.548279,0.607727,0.510437
1480618113653385,-0.263611,-0.548279,0.607727,0.510437
1480618113657897,-0.263611,-0.548279,0.607727,0.510437
1480618113681965,-0.263611,-0.54834,0.607666,0.510437
1480618113698007,-0.263428,-0.548218,0.607849,0.510437
1480618113716554,-0.263367,-0.548035,0.608032,0.510498
1480618113739114,-0.263367,-0.548035,0.608032,0.510437
1480618113757162,-0.263367,-0.548035,0.608032,0.510498
1480618113777716,-0.263367,-0.548035,0.608032,0.510498
1480618113798772,-0.263367,-0.548035,0.608032,0.510498
1480618113821333,-0.263367,-0.548035,0.608032,0.510437
1480618113837877,-0.263428,-0.548035,0.608032,0.510437
1480618113875978,-0.263428,-0.548035,0.608032,0.510437
1480618113878484,-0.263428,-0.548035,0.608032,0.510437
1480618113899541,-0.263428,-0.548035,0.608032,0.510437
1480618113919092,-0.263428,-0.548035,0.608032,0.510437
1480618113952682,-0.263428,-0.548035,0.608032,0.510376
1480618113958196,-0.263489,-0.548035,0.608032,0.510376
1480618113986270,-0.263489,-0.548035,0.608032,0.510376
1480618113997301,-0.263489,-0.548035,0.608032,0.510376
1480618114023871,-0.263489,-0.548035,0.608032,0.510376
1480618114038911,-0.263489,-0.548035,0.608032,0.510376
1480618114056959,-0.263489,-0.548035,0.608032,0.510376
1480618114079018,-0.26355,-0.548035,0.608093,0.510376
1480618114099071,-0.26355,-0.548035,0.608093,0.510315
1480618114117119,-0.26355,-0.548035,0.608032,0.510315
1480618114146698,-0.26355,-0.548035,0.608032,0.510315
1480618114175776,-0.26355,-0.548035,0.608032,0.510315
1480618114178283,-0.26355,-0.548096,0.608032,0.510315
1480618114204351,-0.26355,-0.548035,0.608032,0.510315
1480618114220394,-0.26355,-0.548035,0.608032,0.510315
1480618114236938,-0.26355,-0.548035,0.608093,0.510315
1480618114268522,-0.26355,-0.548035,0.608032,0.510315
1480618114279050,-0.26355,-0.548035,0.608032,0.510315
1480618114303114,-0.26355,-0.548035,0.608032,0.510315
1480618114319157,-0.263611,-0.548035,0.608093,0.510254
1480618114338708,-0.263611,-0.548035,0.608032,0.510254
1480618114361268,-0.263611,-0.548035,0.608093,0.510254
1480618114379317,-0.263611,-0.548035,0.608093,0.510254
1480618114401877,-0.263611,-0.548035,0.608093,0.510254
1480618114421430,-0.263611,-0.548035,0.608093,0.510254
1480618114453013,-0.263611,-0.548035,0.608093,0.510254
1480618114459029,-0.263672,-0.548035,0.608093,0.510254
1480618114483093,-0.263672,-0.548035,0.608093,0.510254
1480618114514178,-0.263672,-0.548035,0.608093,0.510254
1480618114519188,-0.263611,-0.548035,0.608093,0.510254
1480618114544257,-0.263672,-0.548035,0.608093,0.510254
1480618114566816,-0.263672,-0.548035,0.608093,0.510254
1480618114578849,-0.263672,-0.548035,0.608093,0.510254
1480618114611936,-0.263672,-0.547974,0.608093,0.510254
1480618114619456,-0.263672,-0.547974,0.608093,0.510254
1480618114642016,-0.263611,-0.548035,0.608093,0.510254
1480618114676608,-0.263611,-0.548035,0.608093,0.510254
1480618114703178,-0.263672,-0.548035,0.608093,0.510254
1480618114708192,-0.263672,-0.548035,0.608093,0.510254
1480618114731755,-0.263672,-0.547974,0.608093,0.510254
1480618114739274,-0.263672,-0.547974,0.608154,0.510254
1480618114760331,-0.263672,-0.547974,0.608093,0.510254
1480618114781390,-0.263672,-0.547974,0.608154,0.510254
1480618114803947,-0.263733,-0.547974,0.608154,0.510193
1480618114821994,-0.263733,-0.548035,0.608093,0.510193
1480618114841546,-0.263794,-0.548035,0.608093,0.510193
1480618114859594,-0.263733,-0.548035,0.608093,0.510193
1480618114888170,-0.263733,-0.548035,0.608093,0.510193
1480618114901706,-0.263733,-0.548035,0.608093,0.510193
1480618114925269,-0.263794,-0.548035,0.608093,0.510193
1480618114956351,-0.263794,-0.548035,0.608093,0.510132
1480618114969390,-0.263794,-0.548035,0.608093,0.510132
1480618114986933,-0.263794,-0.548035,0.608093,0.510132
1480618115007989,-0.263794,-0.548096,0.608093,0.510132
1480618115021525,-0.263794,-0.548096,0.608093,0.510132
1480618115039578,-0.263794,-0.548096,0.608093,0.510132
1480618115062133,-0.263794,-0.548035,0.608093,0.510132
1480618115081686,-0.263855,-0.548035,0.608093,0.510132
1480618115100235,-0.263794,-0.548096,0.608093,0.510132
1480618115122293,-0.263794,-0.548096,0.608093,0.510132
1480618115141344,-0.263794,-0.548096,0.608093,0.510132
1480618115166912,-0.263794,-0.548096,0.608093,0.510132
1480618115181956,-0.263794,-0.548035,0.608093,0.510132
1480618115210528,-0.263794,-0.548035,0.608093,0.510132
1480618115234592,-0.263794,-0.548035,0.608093,0.510132
1480618115269184,-0.263794,-0.548096,0.608093,0.510132
1480618115272693,-0.26355,-0.548035,0.608093,0.510254
1480618115279712,-0.263306,-0.547974,0.608215,0.510315
1480618115302272,-0.263123,-0.547974,0.608337,0.510315
1480618115321323,-0.263123,-0.547974,0.608337,0.510315
1480618115339371,-0.263123,-0.547974,0.608337,0.510315
1480618115369952,-0.263123,-0.547974,0.608337,0.510315
1480618115381488,-0.263123,-0.547974,0.608337,0.510315
1480618115399530,-0.263123,-0.547974,0.608337,0.510315
1480618115421590,-0.263062,-0.547852,0.608459,0.510315
1480618115458187,-0.263062,-0.547852,0.608459,0.510315
1480618115460694,-0.263062,-0.547852,0.608459,0.510315
1480618115512331,-0.263062,-0.547852,0.608459,0.510315
1480618115517345,-0.262878,-0.547729,0.608521,0.510437
1480618115534389,-0.262878,-0.547791,0.608521,0.510437
1480618115542411,-0.262878,-0.547791,0.608521,0.510376
1480618115564473,-0.262878,-0.547729,0.608521,0.510376
1480618115579511,-0.262878,-0.547791,0.608521,0.510376
1480618115602070,-0.262878,-0.547791,0.608521,0.510437
1480618115621622,-0.262817,-0.547791,0.608521,0.510437
1480618115653707,-0.262878,-0.547791,0.608521,0.510437
1480618115676768,-0.262878,-0.547791,0.608521,0.510437
1480618115681284,-0.262878,-0.547791,0.608521,0.510437
1480618115699328,-0.262817,-0.547791,0.608521,0.510437
1480618115727905,-0.262817,-0.547791,0.608521,0.510437
1480618115758486,-0.262817,-0.547729,0.608521,0.510498
1480618115760993,-0.262817,-0.547791,0.608521,0.510498
1480618115789568,-0.262817,-0.547791,0.608521,0.510498
1480618115802603,-0.262817,-0.547791,0.608521,0.510437
1480618115824160,-0.262817,-0.547791,0.608459,0.510437
1480618115846220,-0.262756,-0.547791,0.608459,0.510498
1480618115862764,-0.262756,-0.547791,0.608459,0.510498
1480618115886827,-0.262756,-0.547791,0.608459,0.510498
1480618115901867,-0.262756,-0.547852,0.608459,0.510498
1480618115923926,-0.262756,-0.547852,0.608459,0.510498
1480618115943979,-0.262756,-0.547974,0.608337,0.510437
1480618115962028,-0.262756,-0.547974,0.608337,0.510437
1480618115984590,-0.26239,-0.547791,0.608459,0.510681
1480618116037228,-0.262024,-0.547668,0.608643,0.510864
1480618116044246,-0.261841,-0.547607,0.608765,0.510864
1480618116046753,-0.261841,-0.547607,0.608765,0.510864
1480618116064301,-0.261841,-0.547607,0.608765,0.510864
1480618116081849,-0.26178,-0.547607,0.608765,0.510864
1480618116105409,-0.26178,-0.547607,0.608765,0.510864
1480618116125462,-0.26178,-0.547607,0.608704,0.510864
1480618116142006,-0.261597,-0.547546,0.608826,0.510986
1480618116172588,-0.261597,-0.547546,0.608826,0.510986
1480618116208181,-0.261597,-0.547546,0.608826,0.510986
1480618116210688,-0.261353,-0.547424,0.608887,0.511169
1480618116224225,-0.261047,-0.547302,0.608948,0.511292
1480618116243777,-0.261047,-0.547302,0.608948,0.511292
1480618116261825,-0.261108,-0.547302,0.608948,0.511292
1480618116290401,-0.261108,-0.547302,0.608948,0.511292
1480618116315974,-0.261108,-0.547302,0.608948,0.511292
1480618116321985,-0.261047,-0.547363,0.608948,0.511292
1480618116344545,-0.261047,-0.547363,0.608948,0.511292
1480618116365601,-0.261047,-0.547363,0.608887,0.511292
1480618116381649,-0.261047,-0.547363,0.608887,0.511292
1480618116404204,-0.261108,-0.547363,0.608887,0.511292
1480618116423755,-0.261047,-0.547363,0.608887,0.511292
1480618116442305,-0.261047,-0.547363,0.608887,0.511292
1480618116464364,-0.261047,-0.547363,0.608887,0.511353
1480618116483916,-0.261047,-0.547363,0.608887,0.511353
1480618116513996,-0.261047,-0.547363,0.608887,0.511353
1480618116530540,-0.261047,-0.547424,0.608887,0.511353
1480618116559115,-0.261047,-0.547363,0.608887,0.511353
1480618116569142,-0.260986,-0.547424,0.608887,0.511353
1480618116591703,-0.260986,-0.547363,0.608887,0.511353
1480618116603734,-0.261108,-0.547546,0.608765,0.51123
1480618116622283,-0.261108,-0.547546,0.608765,0.51123
1480618116654370,-0.260925,-0.547424,0.608887,0.511292
1480618116666902,-0.260681,-0.547241,0.60907,0.511414
1480618116693974,-0.260681,-0.547241,0.609131,0.511414
1480618116704503,-0.260681,-0.547241,0.60907,0.511414
1480618116725265,-0.260681,-0.547241,0.60907,0.511414
1480618116742310,-0.260681,-0.547302,0.60907,0.511414
1480618116765372,-0.260681,-0.547302,0.60907,0.511414
1480618116785424,-0.260681,-0.547302,0.60907,0.511414
1480618116815507,-0.26062,-0.547302,0.60907,0.511414
1480618116840069,-0.26062,-0.547302,0.609009,0.511475
1480618116847088,-0.26062,-0.547302,0.609009,0.511475
1480618116868144,-0.26062,-0.547363,0.609009,0.511414
1480618116884510,-0.26062,-0.547302,0.609009,0.511414
1480618116911580,-0.26062,-0.547302,0.60907,0.511414
1480618116920605,-0.26062,-0.547302,0.60907,0.511475
1480618116943667,-0.26062,-0.547302,0.609009,0.511475
1480618116964725,-0.26062,-0.547302,0.609009,0.511475
1480618116987282,-0.26062,-0.547302,0.609009,0.511475
1480618117004328,-0.26062,-0.547302,0.609009,0.511414
1480618117031904,-0.26062,-0.547302,0.609009,0.511414
1480618117046942,-0.26062,-0.547302,0.609009,0.511414
1480618117064510,-0.26062,-0.547363,0.609009,0.511475
1480618117093564,-0.26062,-0.547363,0.609009,0.511475
1480618117116125,-0.26062,-0.547363,0.609009,0.511475
1480618117123645,-0.26062,-0.547363,0.609009,0.511475
1480618117146205,-0.26062,-0.547363,0.609009,0.511414
1480618117167260,-0.26062,-0.547363,0.609009,0.511475
1480618117191826,-0.26062,-0.547363,0.609009,0.511475
1480618117205863,-0.260559,-0.547363,0.609009,0.511475
1480618117226919,-0.260559,-0.547363,0.609009,0.511475
1480618117243967,-0.260742,-0.547485,0.608948,0.511353
1480618117266524,-0.260742,-0.547485,0.608887,0.511353
1480618117287079,-0.260559,-0.547363,0.609009,0.511475
1480618117303123,-0.260315,-0.547241,0.609131,0.511536
1480618117326183,-0.260315,-0.547241,0.609131,0.511536
1480618117356263,-0.260315,-0.547241,0.609131,0.511536
1480618117363784,-0.260315,-0.547241,0.609131,0.511536
1480618117400381,-0.260315,-0.547241,0.609131,0.511536
1480618117408402,-0.260315,-0.547302,0.609131,0.511536
1480618117423443,-0.260315,-0.547302,0.609131,0.511536
1480618117453522,-0.260315,-0.547302,0.609131,0.511536
1480618117467058,-0.260315,-0.547302,0.609131,0.511536
1480618117483602,-0.260315,-0.547302,0.609131,0.511536
1480618117506162,-0.260315,-0.547302,0.609131,0.511536
1480618117534738,-0.260315,-0.547302,0.609131,0.511536
1480618117543261,-0.260315,-0.547302,0.609131,0.511536
1480618117565821,-0.260315,-0.547302,0.609131,0.511597
1480618117586877,-0.260315,-0.547302,0.609131,0.511536
1480618117605927,-0.260315,-0.547302,0.609131,0.511536
1480618117626983,-0.260315,-0.547302,0.609131,0.511536
1480618117654557,-0.260315,-0.547302,0.609131,0.511536
1480618117663581,-0.260315,-0.547302,0.609131,0.511536
1480618117687144,-0.260315,-0.547302,0.609131,0.511536
1480618117707198,-0.260315,-0.547302,0.609131,0.511536
1480618117731262,-0.260315,-0.547302,0.609131,0.511536
1480618117753821,-0.260315,-0.547302,0.609131,0.511536
1480618117766856,-0.260315,-0.547302,0.609131,0.511536
1480618117783400,-0.260315,-0.547302,0.60907,0.511536
1480618117807965,-0.260315,-0.547302,0.60907,0.511536
1480618117827016,-0.260315,-0.547302,0.60907,0.511536
1480618117844563,-0.260315,-0.547302,0.60907,0.511536
1480618117866120,-0.260315,-0.547302,0.60907,0.511536
1480618117887677,-0.260315,-0.547302,0.60907,0.511536
1480618117904723,-0.260315,-0.547302,0.60907,0.511536
1480618117925778,-0.260315,-0.547363,0.60907,0.511536
1480618117948348,-0.260315,-0.547241,0.609131,0.511536
1480618117963380,-0.260315,-0.547241,0.609131,0.511536
1480618117985939,-0.260315,-0.547241,0.609131,0.511536
1480618118008498,-0.260376,-0.547241,0.609192,0.511475
1480618118031060,-0.260315,-0.547241,0.609192,0.511536
1480618118046100,-0.260315,-0.547241,0.609131,0.511536
1480618118069160,-0.260315,-0.547302,0.609131,0.511536
1480618118083699,-0.260315,-0.547302,0.609131,0.511475
1480618118119795,-0.260376,-0.547302,0.609131,0.511475
1480618118135837,-0.260376,-0.547302,0.609131,0.511475
1480618118156894,-0.260376,-0.547302,0.609131,0.511475
1480618118173438,-0.260315,-0.547302,0.609131,0.511475
1480618118189480,-0.260315,-0.547363,0.609131,0.511475
1480618118204025,-0.260376,-0.547302,0.609131,0.511475
1480618118233598,-0.260376,-0.547302,0.609131,0.511475
1480618118248643,-0.260376,-0.547302,0.609131,0.511475
1480618118262675,-0.260376,-0.547302,0.609131,0.511475
1480618118308797,-0.260376,-0.547302,0.609131,0.511475
1480618118315816,-0.260376,-0.547302,0.609131,0.511475
1480618118336872,-0.260376,-0.547302,0.609131,0.511475
1480618118345896,-0.260437,-0.547302,0.609131,0.511414
1480618118368958,-0.260437,-0.547363,0.609131,0.511414
1480618118390014,-0.260437,-0.547363,0.609131,0.511414
1480618118412073,-0.260437,-0.547302,0.609131,0.511414
1480618118428616,-0.260437,-0.547363,0.609131,0.511414
1480618118449672,-0.260437,-0.547363,0.609131,0.511414
1480618118474238,-0.260498,-0.547363,0.609131,0.511414
1480618118502814,-0.260498,-0.547363,0.609131,0.511414
1480618118509331,-0.260498,-0.547363,0.609131,0.511414
1480618118531891,-0.260437,-0.547363,0.609131,0.511414
1480618118548937,-0.260437,-0.547363,0.60907,0.511414
1480618118577011,-0.260437,-0.547363,0.60907,0.511414
1480618118586036,-0.260498,-0.547363,0.609131,0.511353
1480618118608596,-0.260498,-0.547363,0.609131,0.511353
1480618118629150,-0.260498,-0.547363,0.609131,0.511353
1480618118646195,-0.260498,-0.547363,0.609131,0.511353
1480618118668755,-0.260498,-0.547363,0.609131,0.511353
1480618118691316,-0.260498,-0.547363,0.609131,0.511353
1480618118705854,-0.260559,-0.547363,0.609131,0.511353
1480618118728414,-0.260559,-0.547363,0.609131,0.511353
1480618118749971,-0.260559,-0.547363,0.609131,0.511353
1480618118781055,-0.260498,-0.547363,0.609131,0.511353
1480618118790079,-0.260498,-0.547363,0.60907,0.511353
1480618118812136,-0.260498,-0.547363,0.60907,0.511353
1480618118833694,-0.260559,-0.547424,0.60907,0.511353
1480618118848233,-0.260559,-0.547424,0.60907,0.511292
1480618118869791,-0.260559,-0.547424,0.60907,0.511292
1480618118885332,-0.260559,-0.547424,0.60907,0.511353
1480618118910398,-0.260559,-0.547424,0.60907,0.511292
1480618118938472,-0.260559,-0.547424,0.60907,0.511292
1480618118945993,-0.26062,-0.547424,0.60907,0.511292
1480618118969054,-0.26062,-0.547363,0.609131,0.511292
1480618118992617,-0.26062,-0.547363,0.609131,0.511292
1480618119006153,-0.26062,-0.547363,0.609131,0.511292
1480618119034729,-0.26062,-0.547363,0.609131,0.511292
1480618119050771,-0.26062,-0.547424,0.609131,0.51123
1480618119065310,-0.260681,-0.547424,0.609131,0.51123
1480618119088873,-0.260681,-0.547424,0.609131,0.51123
1480618119110932,-0.260681,-0.547424,0.609131,0.51123
1480618119125471,-0.260681,-0.547424,0.609131,0.51123
1480618119148538,-0.260681,-0.547424,0.60907,0.51123
1480618119172595,-0.260681,-0.547424,0.60907,0.51123
1480618119185129,-0.260742,-0.547424,0.60907,0.511169
1480618119208190,-0.260742,-0.547424,0.60907,0.511169
1480618119231254,-0.260742,-0.547424,0.60907,0.511169
1480618119245290,-0.260742,-0.547424,0.609131,0.511169
1480618119269854,-0.260742,-0.547424,0.60907,0.511169
1480618119305950,-0.260742,-0.547485,0.60907,0.511169
1480618119308458,-0.260803,-0.547485,0.60907,0.511108
1480618119331019,-0.260803,-0.547485,0.60907,0.511108
1480618119351071,-0.260864,-0.547424,0.609131,0.511108
1480618119365610,-0.260803,-0.547424,0.609131,0.511108
1480618119390174,-0.260986,-0.547546,0.609009,0.510986
1480618119418750,-0.260986,-0.547546,0.609009,0.510986
1480618119431787,-0.261047,-0.547546,0.609009,0.510986
1480618119449333,-0.261108,-0.547607,0.609009,0.510925
1480618119478410,-0.261108,-0.547546,0.609009,0.510925
1480618119493449,-0.261108,-0.547546,0.609009,0.510925
1480618119508489,-0.261108,-0.547546,0.609009,0.510925
1480618119531051,-0.261108,-0.547607,0.609009,0.510925
1480618119559766,-0.261108,-0.547607,0.609009,0.510925
1480618119569293,-0.261108,-0.547607,0.609009,0.510925
1480618119591852,-0.261169,-0.547607,0.609009,0.510925
1480618119611906,-0.261108,-0.547607,0.609009,0.510925
1480618119628450,-0.261108,-0.547607,0.609009,0.510925
1480618119651010,-0.261108,-0.547607,0.609009,0.510925
1480618119673570,-0.261169,-0.547607,0.609009,0.510864
1480618119696631,-0.261169,-0.547607,0.609009,0.510864
1480618119712173,-0.26123,-0.547607,0.609009,0.510864
1480618119732226,-0.261169,-0.547607,0.609009,0.510864
1480618119755788,-0.261169,-0.547607,0.609009,0.510864
1480618119771330,-0.26123,-0.547607,0.609009,0.510864
1480618119808929,-0.26123,-0.547607,0.609009,0.510803
1480618119811436,-0.26123,-0.547607,0.609009,0.510803
1480618119837004,-0.261292,-0.547607,0.609009,0.510803
1480618119853548,-0.261292,-0.547607,0.609009,0.510803
1480618119870092,-0.261292,-0.547607,0.609009,0.510803
1480618119898669,-0.261292,-0.547607,0.609009,0.510803
1480618119914210,-0.261292,-0.547607,0.609009,0.510742
1480618119928748,-0.261353,-0.547607,0.60907,0.510742
1480618119950811,-0.261353,-0.547607,0.60907,0.510742
1480618119973368,-0.261353,-0.547607,0.60907,0.510742
1480618119995929,-0.261353,-0.547668,0.609009,0.510742
1480618120010968,-0.261353,-0.547668,0.609009,0.510742
1480618120033527,-0.261353,-0.547668,0.609009,0.510681
1480618120048073,-0.261414,-0.547668,0.609009,0.510681
1480618120077644,-0.261414,-0.547668,0.609009,0.510681
1480618120093687,-0.261414,-0.547668,0.609009,0.510681
1480618120115746,-0.261414,-0.547668,0.609009,0.510681
1480618120138306,-0.261414,-0.547668,0.609009,0.510681
1480618120160866,-0.261414,-0.547668,0.609009,0.510681
1480618120174403,-0.261475,-0.547668,0.609009,0.51062
1480618120191949,-0.261475,-0.547668,0.609009,0.51062
1480618120228547,-0.261475,-0.547668,0.609009,0.51062
1480618120231055,-0.261475,-0.547668,0.609009,0.51062
1480618120251106,-0.261475,-0.547729,0.609009,0.51062
1480618120281188,-0.261536,-0.547729,0.609009,0.51062
1480618120287703,-0.261536,-0.547729,0.609009,0.510559
1480618120316781,-0.261475,-0.547668,0.609131,0.510559
1480618120334328,-0.261475,-0.547668,0.609131,0.510559
1480618120354381,-0.261475,-0.547668,0.609131,0.510559
1480618120372429,-0.261475,-0.547668,0.609131,0.510559
1480618120394488,-0.261475,-0.547668,0.609131,0.510559
1480618120416045,-0.261536,-0.547668,0.60907,0.510498
1480618120438605,-0.261536,-0.547668,0.60907,0.510498
1480618120453645,-0.261536,-0.547668,0.60907,0.510498
1480618120474701,-0.261536,-0.547668,0.60907,0.510498
1480618120491245,-0.261536,-0.547668,0.60907,0.510498
1480618120514812,-0.261536,-0.547729,0.60907,0.510498
1480618120534861,-0.261597,-0.547668,0.60907,0.510498
1480618120565944,-0.261597,-0.547729,0.60907,0.510437
1480618120573463,-0.261597,-0.547729,0.60907,0.510437
1480618120594519,-0.261597,-0.547729,0.60907,0.510437
1480618120611066,-0.261658,-0.547729,0.60907,0.510437
1480618120633624,-0.261597,-0.547607,0.609192,0.510437
1480618120654680,-0.261536,-0.547424,0.609375,0.510437
1480618120671223,-0.261475,-0.547241,0.609497,0.510559
1480618120700301,-0.261475,-0.547241,0.609497,0.510559
1480618120714844,-0.261475,-0.547241,0.609497,0.510559
1480618120731887,-0.261414,-0.547241,0.609436,0.510559
1480618120754445,-0.261475,-0.547241,0.609436,0.510559
1480618120774499,-0.261475,-0.547241,0.609497,0.510559
1480618120798563,-0.261536,-0.547241,0.609497,0.510498
1480618120813610,-0.261536,-0.547241,0.609497,0.510498
1480618120836163,-0.261475,-0.547241,0.609497,0.510559
1480618120851206,-0.261475,-0.547302,0.609436,0.510559
1480618120873262,-0.261475,-0.547302,0.609436,0.510498
1480618120895822,-0.261536,-0.547302,0.609436,0.510498
1480618120910861,-0.261597,-0.547302,0.609497,0.510498
1480618120934428,-0.261597,-0.547302,0.609497,0.510437
1480618120962083,-0.261597,-0.547302,0.609436,0.510437
1480618120970101,-0.261597,-0.547302,0.609436,0.510437
1480618120994165,-0.261597,-0.547302,0.609436,0.510437
1480618121030764,-0.261597,-0.547302,0.609497,0.510437
1480618121033270,-0.261658,-0.547302,0.609497,0.510437
1480618121053323,-0.261658,-0.547302,0.609497,0.510437
1480618121075882,-0.261658,-0.547302,0.609436,0.510437
1480618121090421,-0.261658,-0.547302,0.609436,0.510437
1480618121113984,-0.261658,-0.547363,0.609436,0.510376
1480618121151590,-0.261658,-0.547363,0.609436,0.510376
1480618121160106,-0.261597,-0.547241,0.609558,0.510376
1480618121176149,-0.261597,-0.547241,0.609558,0.510376
1480618121196202,-0.261597,-0.54718,0.609619,0.510376
1480618121218763,-0.261597,-0.54718,0.609558,0.510376
1480618121233302,-0.261597,-0.547241,0.609558,0.510376
1480618121256864,-0.261658,-0.547241,0.609558,0.510376
1480618121284437,-0.261658,-0.547241,0.609558,0.510376
1480618121293461,-0.261658,-0.547241,0.609558,0.510376
1480618121316523,-0.261658,-0.547241,0.609558,0.510376
1480618121337077,-0.261658,-0.547241,0.609558,0.510376
1480618121360138,-0.261658,-0.547241,0.609558,0.510376
1480618121377183,-0.261719,-0.547241,0.609558,0.510315
1480618121397237,-0.261719,-0.547241,0.609558,0.510315
1480618121413280,-0.261719,-0.547241,0.609558,0.510315
1480618121451883,-0.261719,-0.547241,0.609558,0.510315
1480618121473940,-0.261719,-0.547302,0.609558,0.510315
1480618121479456,-0.261719,-0.547302,0.609558,0.510315
1480618121497504,-0.261719,-0.547302,0.609558,0.510254
1480618121517059,-0.26178,-0.547302,0.609558,0.510254
1480618121533600,-0.26178,-0.547302,0.609558,0.510254
1480618121556160,-0.26178,-0.547302,0.609558,0.510254
1480618121577216,-0.26178,-0.547302,0.609558,0.510254
1480618121593258,-0.26178,-0.547302,0.609558,0.510254
1480618121615823,-0.26178,-0.547302,0.609558,0.510254
1480618121638880,-0.261841,-0.547302,0.609558,0.510254
1480618121653419,-0.261841,-0.547302,0.609558,0.510254
1480618121675978,-0.261841,-0.547302,0.609558,0.510254
1480618121697036,-0.26178,-0.547302,0.609558,0.510254
1480618121727114,-0.26178,-0.547302,0.609558,0.510254
1480618121749676,-0.261841,-0.547302,0.609558,0.510254
1480618121758698,-0.261841,-0.547302,0.609558,0.510193
1480618121781760,-0.261841,-0.547302,0.609558,0.510193
1480618121810837,-0.261841,-0.547302,0.609558,0.510193
1480618121825877,-0.261841,-0.547302,0.609558,0.510193
1480618121833402,-0.261841,-0.547363,0.609558,0.510193
1480618121855957,-0.261841,-0.547363,0.609558,0.510193
1480618121878518,-0.261902,-0.547363,0.609558,0.510193
1480618121893057,-0.261902,-0.547363,0.609558,0.510193
1480618121916119,-0.261902,-0.547363,0.609558,0.510193
1480618121938678,-0.261902,-0.547363,0.609558,0.510132
1480618121959734,-0.261902,-0.547363,0.609558,0.510132
1480618121975776,-0.261902,-0.547363,0.609558,0.510132
1480618121999340,-0.261963,-0.547363,0.609558,0.510132
1480618122026912,-0.261963,-0.547363,0.609558,0.510132
1480618122035937,-0.261963,-0.547363,0.609558,0.510132
1480618122089078,-0.261963,-0.547363,0.609558,0.510132
1480618122091584,-0.261963,-0.547363,0.609558,0.510132
1480618122110134,-0.261963,-0.547424,0.609497,0.510071
1480618122120160,-0.262024,-0.547424,0.609497,0.510071
1480618122132695,-0.262024,-0.547424,0.609497,0.510071
1480618122157761,-0.262024,-0.547424,0.609497,0.510071
1480618122185835,-0.261963,-0.547424,0.609497,0.510071
1480618122192854,-0.261963,-0.547424,0.609497,0.510071
1480618122215917,-0.262024,-0.547424,0.609497,0.510071
1480618122238475,-0.262024,-0.547424,0.609497,0.510071
1480618122260534,-0.262024,-0.547424,0.609497,0.51001
1480618122282093,-0.262024,-0.547424,0.609497,0.51001
1480618122307158,-0.262024,-0.547424,0.609497,0.510071
1480618122319191,-0.262024,-0.547424,0.609497,0.510071
1480618122335733,-0.262024,-0.547424,0.609497,0.510071
1480618122365815,-0.262024,-0.547424,0.609497,0.51001
1480618122379351,-0.262085,-0.547424,0.609497,0.51001
1480618122395893,-0.262085,-0.547424,0.609497,0.51001
1480618122418455,-0.262024,-0.547424,0.609497,0.51001
1480618122439510,-0.262024,-0.547424,0.609497,0.51001
1480618122456054,-0.262085,-0.547424,0.609497,0.51001
1480618122478615,-0.262085,-0.547424,0.609497,0.51001
1480618122499672,-0.262085,-0.547424,0.609497,0.51001
1480618122529750,-0.262085,-0.547424,0.609497,0.51001
1480618122545793,-0.262085,-0.547485,0.609497,0.51001
1480618122560832,-0.262085,-0.547485,0.609497,0.51001
1480618122584898,-0.262085,-0.547485,0.609497,0.51001
1480618122598433,-0.262085,-0.547485,0.609497,0.51001
1480618122620993,-0.262085,-0.547485,0.609497,0.51001
1480618122643552,-0.262085,-0.547485,0.609497,0.51001
1480618122658592,-0.262085,-0.547485,0.609497,0.51001
1480618122681152,-0.262085,-0.547485,0.609497,0.51001
1480618122696194,-0.262085,-0.547485,0.609436,0.51001
1480618122720257,-0.262085,-0.547485,0.609497,0.51001
1480618122740811,-0.262085,-0.547485,0.609497,0.509949
1480618122755852,-0.262085,-0.547485,0.609497,0.509949
1480618122778412,-0.262085,-0.547485,0.609497,0.51001
1480618122800975,-0.262085,-0.547485,0.609436,0.51001
1480618122840076,-0.262085,-0.547485,0.609436,0.51001
1480618122853111,-0.262024,-0.547424,0.609558,0.51001
1480618122862636,-0.262024,-0.547424,0.609558,0.51001
1480618122889708,-0.262024,-0.547424,0.609558,0.51001
1480618122921794,-0.262024,-0.547424,0.609558,0.51001
1480618122923798,-0.262024,-0.547424,0.609558,0.51001
1480618122935830,-0.261963,-0.547424,0.609558,0.51001
1480618122958892,-0.261963,-0.547424,0.609558,0.51001
1480618122980951,-0.262024,-0.547424,0.609558,0.51001
1480618122996492,-0.262024,-0.547424,0.609558,0.51001
1480618123019054,-0.261963,-0.547424,0.609558,0.51001
1480618123041110,-0.261963,-0.547424,0.609558,0.51001
1480618123062168,-0.261963,-0.547424,0.609558,0.51001
1480618123078711,-0.261963,-0.547424,0.609558,0.51001
1480618123117314,-0.262024,-0.547424,0.609558,0.51001
1480618123121825,-0.262024,-0.547424,0.609558,0.51001
1480618123139873,-0.261963,-0.547424,0.609558,0.51001
1480618123168450,-0.261963,-0.547424,0.609558,0.51001
1480618123183490,-0.262024,-0.547424,0.609558,0.51001
1480618123198530,-0.262024,-0.547424,0.609558,0.51001
1480618123221088,-0.262024,-0.547424,0.609558,0.51001
1480618123249667,-0.262024,-0.547424,0.609558,0.51001
1480618123259191,-0.262024,-0.547424,0.609558,0.51001
1480618123298797,-0.261963,-0.547363,0.609558,0.51001
1480618123304812,-0.261963,-0.547668,0.609436,0.509888
1480618123318350,-0.261963,-0.547729,0.609436,0.509827
1480618123341409,-0.262024,-0.547729,0.609436,0.509827
1480618123361964,-0.261963,-0.547729,0.609436,0.509827
1480618123393548,-0.261963,-0.547791,0.609375,0.509827
1480618123416611,-0.261963,-0.547791,0.609375,0.509827
1480618123422627,-0.261963,-0.547791,0.609375,0.509888
1480618123438167,-0.261963,-0.547791,0.609375,0.509827
1480618123467244,-0.261963,-0.547791,0.609375,0.509827
1480618123482788,-0.261963,-0.547791,0.609375,0.509827
1480618123498328,-0.261963,-0.547791,0.609375,0.509888
1480618123522390,-0.261902,-0.547791,0.609375,0.509888
1480618123542945,-0.261902,-0.547791,0.609375,0.509888
1480618123558487,-0.261902,-0.547791,0.609314,0.509888
1480618123581047,-0.261841,-0.547729,0.609436,0.509949
1480618123601602,-0.261597,-0.547485,0.609619,0.510071
1480618123618648,-0.261597,-0.547485,0.609619,0.510071
1480618123641206,-0.261597,-0.547485,0.609619,0.510132
1480618123664271,-0.261658,-0.547668,0.609497,0.51001
1480618123678964,-0.261719,-0.547668,0.609497,0.51001
1480618123701023,-0.261719,-0.547668,0.609497,0.509949
1480618123724584,-0.261719,-0.547668,0.609497,0.51001
1480618123746141,-0.261719,-0.547668,0.609497,0.51001
1480618123767204,-0.261658,-0.547668,0.609436,0.51001
1480618123783742,-0.261658,-0.547668,0.609436,0.51001
1480618123797779,-0.261658,-0.547668,0.609436,0.51001
1480618123820840,-0.261719,-0.547668,0.609436,0.51001
1480618123850923,-0.261719,-0.547668,0.609436,0.51001
1480618123890024,-0.261719,-0.547668,0.609436,0.51001
1480618123894536,-0.261719,-0.547668,0.609436,0.51001
1480618123918098,-0.261658,-0.547668,0.609436,0.51001
1480618123920605,-0.261719,-0.547729,0.609436,0.51001
1480618123949682,-0.261719,-0.547729,0.609436,0.509949
1480618123969735,-0.261719,-0.547729,0.609436,0.509949
1480618123977757,-0.261719,-0.547729,0.609436,0.509949
1480618124000818,-0.261658,-0.547729,0.609436,0.51001
1480618124023378,-0.261658,-0.547729,0.609436,0.51001
1480618124051954,-0.261719,-0.547729,0.609436,0.51001
1480618124060980,-0.261719,-0.547729,0.609436,0.509949
1480618124083538,-0.261719,-0.547729,0.609436,0.509949
1480618124097577,-0.261719,-0.547729,0.609436,0.509949
1480618124128157,-0.261719,-0.547729,0.609436,0.51001
1480618124145704,-0.261658,-0.547791,0.609436,0.51001
1480618124164754,-0.261719,-0.547791,0.609375,0.509949
1480618124195837,-0.261719,-0.547791,0.609375,0.509949
1480618124217896,-0.261719,-0.547791,0.609436,0.509949
1480618124224413,-0.261719,-0.547791,0.609436,0.509949
1480618124246973,-0.261719,-0.547791,0.609436,0.509949
1480618124263520,-0.261719,-0.547791,0.609436,0.509949
1480618124285075,-0.261963,-0.548035,0.609253,0.509766
1480618124301117,-0.261963,-0.548035,0.609253,0.509766
1480618124329696,-0.261902,-0.547852,0.609375,0.509827
1480618124352253,-0.261902,-0.547852,0.609375,0.509827
1480618124362280,-0.261841,-0.547852,0.609375,0.509827
1480618124389853,-0.261841,-0.547852,0.609375,0.509827
1480618124421437,-0.261841,-0.547913,0.609375,0.509827
1480618124423944,-0.261902,-0.547913,0.609314,0.509827
1480618124443496,-0.261902,-0.547913,0.609314,0.509827
1480618124473210,-0.261902,-0.547913,0.609314,0.509827
1480618124487246,-0.261841,-0.547913,0.609314,0.509827
1480618124503289,-0.261841,-0.547913,0.609314,0.509827
1480618124524345,-0.261841,-0.547913,0.609314,0.509827
1480618124541891,-0.261902,-0.547913,0.609314,0.509827
1480618124563952,-0.261902,-0.547913,0.609314,0.509766
1480618124586009,-0.261902,-0.547913,0.609314,0.509766
1480618124602053,-0.261902,-0.547913,0.609314,0.509766
1480618124623610,-0.261902,-0.547913,0.609314,0.509766
1480618124648179,-0.261902,-0.547913,0.609314,0.509766
1480618124669231,-0.261963,-0.547913,0.609314,0.509766
1480618124683770,-0.261963,-0.547913,0.609314,0.509766
1480618124722372,-0.261963,-0.547974,0.609314,0.509766
1480618124727887,-0.261963,-0.547974,0.609314,0.509766
1480618124743428,-0.261902,-0.547974,0.609314,0.509766
1480618124773508,-0.261902,-0.547974,0.609314,0.509766
1480618124782032,-0.261963,-0.547974,0.609314,0.509766
1480618124804090,-0.261963,-0.547974,0.609314,0.509766
1480618124826148,-0.261963,-0.547974,0.609314,0.509705
1480618124841197,-0.261963,-0.547974,0.609314,0.509766
1480618124864250,-0.261963,-0.547974,0.609314,0.509766
1480618124885807,-0.261963,-0.547974,0.609314,0.509766
1480618124900345,-0.261963,-0.547974,0.609314,0.509705
1480618124923407,-0.261963,-0.547974,0.609253,0.509705
1480618124945968,-0.261963,-0.547974,0.609314,0.509705
1480618124976047,-0.261963,-0.547974,0.609314,0.509766
1480618124983066,-0.261963,-0.547974,0.609314,0.509766
1480618125006126,-0.261963,-0.547974,0.609314,0.509766
1480618125027183,-0.261963,-0.547974,0.609314,0.509705
1480618125043726,-0.261902,-0.547852,0.609436,0.509766
1480618125080826,-0.261902,-0.547852,0.609436,0.509766
1480618125088346,-0.261902,-0.547791,0.609436,0.509766
1480618125110910,-0.261902,-0.547791,0.609436,0.509766
1480618125125946,-0.261902,-0.547852,0.609436,0.509766
1480618125147003,-0.261902,-0.547852,0.609436,0.509766
1480618125163545,-0.261902,-0.547852,0.609436,0.509766
1480618125194628,-0.261902,-0.547852,0.609436,0.509766
1480618125216185,-0.261902,-0.547852,0.609436,0.509766
1480618125223706,-0.261902,-0.547852,0.609436,0.509766
1480618125252282,-0.261902,-0.547852,0.609436,0.509766
1480618125266821,-0.261902,-0.547852,0.609436,0.509766
1480618125284870,-0.261902,-0.547852,0.609436,0.509766
1480618125305924,-0.261902,-0.547852,0.609436,0.509766
1480618125326981,-0.261902,-0.547852,0.609436,0.509766
1480618125343524,-0.261902,-0.547852,0.609436,0.509766
1480618125366085,-0.261902,-0.547852,0.609436,0.509766
1480618125387140,-0.261963,-0.547852,0.609436,0.509705
1480618125403182,-0.261963,-0.547852,0.609436,0.509705
1480618125449808,-0.261963,-0.547852,0.609436,0.509705
1480618125463846,-0.261963,-0.547852,0.609436,0.509705
1480618125466352,-0.261963,-0.547852,0.609436,0.509705
1480618125499941,-0.261963,-0.547852,0.609436,0.509705
1480618125506960,-0.261963,-0.547852,0.609436,0.509705
1480618125525007,-0.261963,-0.547852,0.609436,0.509705
1480618125559599,-0.261963,-0.547852,0.609436,0.509705
1480618125568624,-0.261963,-0.547913,0.609436,0.509705
1480618125583664,-0.261963,-0.547913,0.609375,0.509705
1480618125605722,-0.261963,-0.547913,0.609436,0.509705
1480618125628785,-0.261963,-0.547913,0.609436,0.509705
1480618125643824,-0.262024,-0.547913,0.609436,0.509644
1480618125666383,-0.262024,-0.547913,0.609436,0.509644
1480618125688442,-0.261963,-0.547852,0.609436,0.509644
1480618125703482,-0.262024,-0.547913,0.609436,0.509644
1480618125726042,-0.262024,-0.547913,0.609436,0.509644
1480618125748602,-0.262024,-0.547913,0.609436,0.509644
1480618125763146,-0.262024,-0.547913,0.609436,0.509644
1480618125792218,-0.262085,-0.547913,0.609436,0.509644
1480618125808260,-0.262085,-0.547913,0.609436,0.509644
1480618125829821,-0.262024,-0.547913,0.609436,0.509644
1480618125853381,-0.262024,-0.547913,0.609436,0.509644
1480618125874437,-0.262024,-0.547913,0.609375,0.509644
1480618125889477,-0.262085,-0.547974,0.609375,0.509583
1480618125907525,-0.262085,-0.547974,0.609375,0.509583
1480618125930103,-0.262085,-0.547974,0.609375,0.509583
1480618125951159,-0.262024,-0.547974,0.609375,0.509644
1480618125967203,-0.262024,-0.547974,0.609375,0.509644
1480618126003800,-0.262024,-0.547974,0.609375,0.509644
1480618126016834,-0.262085,-0.547974,0.609375,0.509583
1480618126056439,-0.262085,-0.547913,0.609375,0.509583
1480618126061453,-0.262085,-0.547913,0.609436,0.509583
1480618126089027,-0.262146,-0.547913,0.609436,0.509583
1480618126109581,-0.262146,-0.547913,0.609436,0.509583
1480618126114595,-0.262146,-0.547913,0.609436,0.509521
1480618126137656,-0.262207,-0.547913,0.609436,0.509521
1480618126146179,-0.262207,-0.547913,0.609436,0.509521
1480618126168738,-0.262207,-0.547913,0.609436,0.509521
1480618126189293,-0.262207,-0.547913,0.609436,0.509521
1480618126205836,-0.262207,-0.547974,0.609436,0.509521
1480618126228398,-0.262207,-0.547974,0.609436,0.509521
1480618126281539,-0.262207,-0.547974,0.609375,0.50946
1480618126285047,-0.262207,-0.547974,0.609375,0.50946
1480618126303095,-0.262207,-0.547974,0.609375,0.50946
1480618126316633,-0.262207,-0.547974,0.609375,0.509521
1480618126327160,-0.262207,-0.548035,0.609375,0.509521
1480618126357239,-0.262207,-0.548035,0.609375,0.509521
1480618126370776,-0.262207,-0.548035,0.609375,0.50946
1480618126386818,-0.262268,-0.548035,0.609375,0.50946
1480618126408376,-0.262268,-0.548096,0.609314,0.50946
1480618126429433,-0.262268,-0.548096,0.609314,0.50946
1480618126446478,-0.262268,-0.548096,0.609314,0.50946
1480618126468536,-0.262268,-0.548096,0.609314,0.50946
1480618126492099,-0.262329,-0.548096,0.609314,0.509399
1480618126506136,-0.262329,-0.548096,0.609314,0.509338
1480618126528696,-0.262207,-0.547852,0.609558,0.50946
1480618126559778,-0.262207,-0.547852,0.609558,0.50946
1480618126565795,-0.262207,-0.547852,0.609558,0.50946
1480618126588354,-0.262207,-0.547852,0.609558,0.50946
1480618126611417,-0.262268,-0.547852,0.609558,0.509399
1480618126625453,-0.262268,-0.547852,0.609558,0.509399
1480618126648516,-0.262268,-0.547852,0.609558,0.509399
1480618126672579,-0.262268,-0.547852,0.609558,0.509399
1480618126686115,-0.262268,-0.547913,0.609558,0.509399
1480618126708173,-0.262268,-0.547852,0.609558,0.509399
1480618126730733,-0.262329,-0.547913,0.609558,0.509338
1480618126745272,-0.262329,-0.547913,0.609558,0.509338
1480618126774349,-0.262329,-0.547913,0.609558,0.509338
1480618126807438,-0.262329,-0.547913,0.609558,0.509338
1480618126812456,-0.262146,-0.547852,0.609619,0.509399
1480618126828494,-0.262207,-0.547852,0.609619,0.509399
1480618126851053,-0.262207,-0.547852,0.609619,0.509338
1480618126879635,-0.262085,-0.547913,0.609619,0.509338
1480618126888653,-0.26178,-0.547852,0.60968,0.509521
1480618126911715,-0.261292,-0.547668,0.609863,0.509766
1480618126925251,-0.260864,-0.547546,0.609985,0.509949
1480618126948314,-0.260559,-0.547485,0.610107,0.510071
1480618126971373,-0.26062,-0.547485,0.610107,0.51001
1480618126992931,-0.26062,-0.547485,0.610107,0.51001
1480618127008472,-0.26062,-0.547485,0.610046,0.51001
1480618127031032,-0.26062,-0.547546,0.610046,0.51001
1480618127053592,-0.26062,-0.547546,0.610046,0.51001
1480618127084174,-0.260559,-0.547546,0.609985,0.51001
1480618127114248,-0.260559,-0.547546,0.609985,0.51001
1480618127116252,-0.260498,-0.547424,0.610107,0.510132
1480618127135804,-0.260498,-0.547424,0.610107,0.510071
1480618127158364,-0.260498,-0.547424,0.610107,0.510071
1480618127171900,-0.260498,-0.547424,0.610107,0.510132
1480618127191953,-0.260498,-0.547424,0.610107,0.510132
1480618127212007,-0.260376,-0.547302,0.610229,0.510132
1480618127234065,-0.260315,-0.547241,0.610352,0.510132
1480618127250108,-0.260315,-0.547241,0.610352,0.510132
1480618127271665,-0.260315,-0.547241,0.610352,0.510071
1480618127291719,-0.260315,-0.547241,0.610352,0.510132
1480618127309266,-0.260071,-0.547241,0.610413,0.510193
1480618127330822,-0.259766,-0.547119,0.610596,0.510254
1480618127354886,-0.259399,-0.546936,0.610779,0.510376
1480618127376445,-0.259155,-0.546814,0.610901,0.510498
1480618127390983,-0.25885,-0.546814,0.610962,0.51062
1480618127412040,-0.258545,-0.546936,0.61084,0.510742
1480618127435601,-0.258179,-0.547058,0.610779,0.510864
1480618127456658,-0.257935,-0.547241,0.610718,0.510925
1480618127474205,-0.257629,-0.54718,0.610779,0.511047
1480618127488242,-0.257263,-0.547119,0.61084,0.511169
1480618127511804,-0.256958,-0.547241,0.610779,0.511292
1480618127533361,-0.256531,-0.547302,0.610718,0.511475
1480618127554418,-0.256165,-0.547302,0.610779,0.511658
1480618127573468,-0.255737,-0.54718,0.610901,0.511841
1480618127593522,-0.255371,-0.546997,0.611084,0.512024
1480618127607559,-0.255127,-0.546814,0.611206,0.512146
1480618127631122,-0.255066,-0.546814,0.611206,0.512146
1480618127653181,-0.255066,-0.546875,0.611206,0.512146
1480618127675740,-0.254822,-0.546814,0.611267,0.512268
1480618127691784,-0.254578,-0.546814,0.611328,0.512268
1480618127719356,-0.254395,-0.546753,0.61145,0.512268
1480618127729886,-0.254211,-0.546631,0.611633,0.512329
1480618127750941,-0.253967,-0.54657,0.611694,0.512451
1480618127773501,-0.253906,-0.54657,0.611694,0.512451
1480618127788040,-0.253906,-0.54657,0.611694,0.512451
1480618127811101,-0.254211,-0.546692,0.611511,0.512329
1480618127833661,-0.254517,-0.546875,0.611328,0.512207
1480618127847700,-0.254761,-0.547058,0.611206,0.512146
1480618127871261,-0.254944,-0.547241,0.610962,0.512085
1480618127899836,-0.254944,-0.547424,0.61084,0.512085
1480618127915880,-0.254944,-0.547424,0.610779,0.512085
1480618127938439,-0.254944,-0.547424,0.610779,0.512085
1480618127959496,-0.254944,-0.547485,0.610779,0.512085
1480618127974536,-0.254944,-0.547424,0.610779,0.512085
1480618127997098,-0.254944,-0.547424,0.610779,0.512085
1480618128021159,-0.254944,-0.547485,0.610779,0.512085
1480618128036200,-0.255066,-0.547607,0.610657,0.511963
1480618128058258,-0.255127,-0.547607,0.610657,0.511963
1480618128074301,-0.255005,-0.547546,0.610718,0.511963
1480618128094355,-0.254761,-0.547424,0.610901,0.512085
1480618128110899,-0.254761,-0.547424,0.610901,0.512085
1480618128133959,-0.254761,-0.547424,0.610901,0.512085
1480618128155015,-0.254761,-0.547424,0.610901,0.512085
1480618128178078,-0.254517,-0.547424,0.610962,0.512085
1480618128193619,-0.254272,-0.547363,0.611084,0.512146
1480618128214675,-0.254028,-0.547241,0.611206,0.512268
1480618128230716,-0.253662,-0.547119,0.611328,0.51239
1480618128253278,-0.253662,-0.54718,0.611328,0.51239
1480618128275336,-0.253662,-0.54718,0.611267,0.51239
1480618128290877,-0.253418,-0.54718,0.611328,0.512512
1480618128313438,-0.253174,-0.54718,0.611389,0.512512
1480618128334492,-0.25293,-0.547119,0.61145,0.512634
1480618128351037,-0.252563,-0.547119,0.611511,0.512756
1480618128379614,-0.252197,-0.546936,0.611633,0.512939
1480618128396159,-0.251831,-0.546875,0.611694,0.513184
1480618128411197,-0.251526,-0.546875,0.611694,0.513306
1480618128433256,-0.251404,-0.546875,0.611694,0.513367
1480618128456818,-0.251404,-0.546875,0.611694,0.513367
1480618128470855,-0.251404,-0.546875,0.611694,0.513367
1480618128501035,-0.251404,-0.546875,0.611694,0.513367
1480618128516075,-0.251404,-0.546875,0.611694,0.513367
1480618128530112,-0.251587,-0.547058,0.611572,0.513245
1480618128553675,-0.251831,-0.54718,0.611511,0.513062
1480618128575734,-0.251831,-0.54718,0.611511,0.513062
1480618128597291,-0.251831,-0.54718,0.611511,0.513062
1480618128613334,-0.251953,-0.547363,0.611389,0.512939
1480618128643414,-0.252014,-0.547607,0.611206,0.512878
1480618128650433,-0.252136,-0.547852,0.611023,0.512817
1480618128673496,-0.252136,-0.547852,0.611023,0.512817
1480618128696056,-0.252136,-0.547852,0.611023,0.512756
1480618128718614,-0.252136,-0.547852,0.611023,0.512756
1480618128740173,-0.252441,-0.548035,0.61084,0.512634
1480618128763734,-0.252563,-0.548218,0.610657,0.512573
1480618128770256,-0.252563,-0.548218,0.610657,0.512573
1480618128796823,-0.252625,-0.548218,0.610657,0.512573
1480618128815873,-0.252625,-0.548218,0.610657,0.512512
1480618128830412,-0.252869,-0.54834,0.610596,0.512329
1480618128860993,-0.253113,-0.548584,0.610474,0.512146
1480618128884054,-0.253418,-0.54895,0.610229,0.511902
1480618128897089,-0.253662,-0.549377,0.609985,0.511597
1480618128921153,-0.254028,-0.549561,0.609924,0.511292
1480618128936694,-0.254272,-0.549438,0.610107,0.511108
1480618128957249,-0.254761,-0.5495,0.610168,0.510742
1480618128975297,-0.25592,-0.549561,0.610107,0.510071
1480618129001867,-0.25708,-0.549561,0.610168,0.50946
1480618129024427,-0.25769,-0.549316,0.610352,0.509155
1480618129039467,-0.258118,-0.548828,0.610779,0.509033
1480618129055510,-0.258484,-0.548706,0.610779,0.508972
1480618129077068,-0.258911,-0.549011,0.610352,0.508911
1480618129094113,-0.259094,-0.549561,0.609863,0.508789
1480618129115670,-0.258789,-0.550049,0.609497,0.508911
1480618129137227,-0.258057,-0.550354,0.609436,0.508972
1480618129159287,-0.257202,-0.550476,0.609741,0.508972
1480618129181847,-0.25647,-0.550659,0.609924,0.508911
1480618129196887,-0.255676,-0.550842,0.610168,0.508789
1480618129226967,-0.254639,-0.550659,0.610901,0.508667
1480618129235990,-0.253418,-0.549988,0.612,0.508606
1480618129257548,-0.252563,-0.549805,0.612732,0.508362
1480618129279105,-0.252441,-0.5495,0.613464,0.507935
1480618129297654,-0.251709,-0.547485,0.615479,0.508057
1480618129324727,-0.250916,-0.54541,0.617493,0.508179
1480618129333250,-0.250671,-0.5448,0.618286,0.507996
1480618129362328,-0.249817,-0.543396,0.619385,0.508545
1480618129378871,-0.248535,-0.540771,0.621216,0.509766
1480618129394913,-0.247498,-0.538025,0.623169,0.510803
1480618129415970,-0.246582,-0.535339,0.625183,0.511597
1480618129446551,-0.245361,-0.533508,0.626648,0.512329
1480618129454572,-0.244934,-0.532593,0.627258,0.512756
1480618129483649,-0.245056,-0.532898,0.626831,0.512878
1480618129498689,-0.245422,-0.533081,0.626648,0.512695
1480618129519747,-0.2453,-0.532654,0.627136,0.512573
1480618129535788,-0.244995,-0.531982,0.627808,0.512634
1480618129564364,-0.244995,-0.532288,0.627808,0.512329
1480618129572888,-0.245239,-0.533447,0.627136,0.51178
1480618129603970,-0.245544,-0.534485,0.626648,0.51123
1480618129626028,-0.245789,-0.535095,0.626526,0.51062
1480618129633047,-0.246277,-0.535583,0.626404,0.51001
1480618129662126,-0.24707,-0.536194,0.625977,0.50946
1480618129684684,-0.24823,-0.537292,0.625061,0.50885
1480618129692706,-0.249146,-0.538696,0.62384,0.508545
1480618129716270,-0.249939,-0.540405,0.622192,0.508362
1480618129745848,-0.250916,-0.542053,0.620728,0.507813
1480618129752866,-0.252625,-0.543945,0.619629,0.506348
1480618129775927,-0.254211,-0.545105,0.618958,0.505066
1480618129806007,-0.255737,-0.54541,0.618774,0.504272
1480618129819543,-0.257263,-0.545227,0.618835,0.503601
1480618129836588,-0.258911,-0.545166,0.618774,0.502869
1480618129858647,-0.260864,-0.545532,0.618286,0.502014
1480618129887223,-0.262329,-0.545593,0.618164,0.501404
1480618129901766,-0.263428,-0.5448,0.618652,0.501038
1480618129918306,-0.264221,-0.543457,0.61969,0.500854
1480618129939361,-0.26532,-0.542297,0.620667,0.500244
1480618129956909,-0.266724,-0.541382,0.621643,0.499268
1480618129978469,-0.267822,-0.540771,0.622498,0.498352
1480618129999521,-0.26886,-0.540222,0.623352,0.497314
1480618130016567,-0.269653,-0.539734,0.624329,0.496216
1480618130052663,-0.270264,-0.53949,0.625183,0.495056
1480618130059181,-0.270874,-0.539795,0.625488,0.493958
1480618130076225,-0.271057,-0.540222,0.625488,0.493347
1480618130104300,-0.270874,-0.540771,0.625244,0.493225
1480618130119340,-0.270569,-0.541931,0.624268,0.493286
1480618130135885,-0.269043,-0.543335,0.622986,0.494263
1480618130164460,-0.266357,-0.544495,0.621765,0.495972
1480618130181005,-0.262756,-0.544861,0.621094,0.498352
1480618130196545,-0.259583,-0.544189,0.621216,0.500549
1480618130218605,-0.257446,-0.543152,0.621582,0.502258
1480618130247181,-0.256592,-0.542725,0.621521,0.503296
1480618130255703,-0.256714,-0.542603,0.621094,0.503906
1480618130279266,-0.25708,-0.542297,0.620605,0.504639
1480618130302327,-0.257996,-0.541992,0.620117,0.505066
1480618130317367,-0.259033,-0.541687,0.619507,0.505615
1480618130338423,-0.260254,-0.541809,0.618469,0.506104
1480618130360984,-0.261963,-0.542603,0.616882,0.506348
1480618130376023,-0.263,-0.542786,0.615967,0.506714
1480618130412119,-0.26416,-0.543152,0.61499,0.506958
1480618130427161,-0.265076,-0.543213,0.614319,0.507202
1480618130443204,-0.265686,-0.542969,0.614014,0.507507
1480618130458242,-0.266174,-0.542664,0.613892,0.507751
1480618130495845,-0.26709,-0.542725,0.613708,0.507385
1480618130498349,-0.268005,-0.542786,0.613647,0.506897
1480618130525922,-0.268616,-0.542908,0.613586,0.506531
1480618130540962,-0.269348,-0.543457,0.613342,0.50592
1480618130556002,-0.269836,-0.544067,0.613037,0.505371
1480618130578582,-0.270142,-0.5448,0.612671,0.504761
1480618130601684,-0.269836,-0.545471,0.612549,0.504395
1480618130630762,-0.269348,-0.546082,0.612671,0.503845
1480618130639285,-0.268799,-0.546631,0.612671,0.503601
1480618130661343,-0.268433,-0.547058,0.612488,0.50354
1480618130675381,-0.267822,-0.547302,0.612488,0.503601
1480618130721503,-0.267151,-0.547424,0.612488,0.503723
1480618130724010,-0.266724,-0.547607,0.612427,0.503906
1480618130742058,-0.266479,-0.547729,0.612244,0.504089
1480618130758602,-0.266296,-0.547363,0.612244,0.504578
1480618130789184,-0.266052,-0.546875,0.612305,0.505249
1480618130802218,-0.26593,-0.546448,0.612305,0.505737
1480618130818265,-0.265625,-0.545837,0.612549,0.506226
1480618130840821,-0.265259,-0.545166,0.612793,0.506836
1480618130861880,-0.265442,-0.544739,0.612915,0.507019
1480618130886944,-0.265808,-0.544312,0.613098,0.50708
1480618130908501,-0.266235,-0.543823,0.613281,0.507202
1480618130923040,-0.266602,-0.543335,0.613464,0.507263
1480618130938581,-0.267212,-0.54303,0.613586,0.507141
1480618130961141,-0.267761,-0.54248,0.613831,0.507202
1480618130998740,-0.26825,-0.541992,0.613953,0.507202
1480618131000746,-0.268921,-0.541748,0.614075,0.507019
1480618131005259,-0.269775,-0.541748,0.614014,0.506653
1480618131026314,-0.27063,-0.541992,0.61377,0.506165
1480618131048875,-0.271301,-0.542419,0.613464,0.505798
1480618131063915,-0.271851,-0.542664,0.61322,0.505493
1480618131086481,-0.272339,-0.542725,0.613098,0.505371
1480618131110539,-0.272766,-0.542664,0.613159,0.505188
1480618131140117,-0.272766,-0.542603,0.613159,0.505127
1480618131147640,-0.272827,-0.542603,0.613159,0.505127
1480618131177216,-0.272827,-0.542847,0.613037,0.505066
1480618131202283,-0.272766,-0.543152,0.612915,0.504944
1480618131206293,-0.272888,-0.543518,0.612732,0.5047
1480618131228856,-0.273071,-0.544006,0.612488,0.504333
1480618131244395,-0.273376,-0.544617,0.612183,0.503906
1480618131273973,-0.273682,-0.545166,0.611816,0.50354
1480618131289514,-0.273865,-0.545776,0.611511,0.503174
1480618131305056,-0.273987,-0.546448,0.611389,0.502502
1480618131326112,-0.274048,-0.546631,0.61145,0.502136
1480618131357696,-0.274414,-0.546875,0.611328,0.501892
1480618131363712,-0.27478,-0.546875,0.611206,0.501831
1480618131393792,-0.274841,-0.546753,0.611267,0.501831
1480618131408832,-0.27478,-0.546814,0.611267,0.501892
1480618131441419,-0.274353,-0.547302,0.610962,0.501892
1480618131463479,-0.273865,-0.547729,0.610657,0.502014
1480618131477516,-0.273376,-0.547791,0.610413,0.502563
1480618131508095,-0.273193,-0.547791,0.610168,0.50293
1480618131510604,-0.273132,-0.547607,0.610107,0.503296
1480618131530156,-0.272949,-0.547241,0.610046,0.503845
1480618131552715,-0.272949,-0.547302,0.60968,0.504211
1480618131566251,-0.273315,-0.547546,0.609192,0.504333
1480618131589814,-0.273743,-0.547485,0.60907,0.504272
1480618131605355,-0.27417,-0.547302,0.609131,0.504272
1480618131626411,-0.274231,-0.547241,0.609131,0.504211
1480618131649472,-0.27417,-0.546997,0.609436,0.504211
1480618131665514,-0.274048,-0.54657,0.609741,0.504333
1480618131686070,-0.273865,-0.546265,0.610107,0.504333
1480618131717154,-0.273926,-0.546265,0.610107,0.504272
1480618131742219,-0.273987,-0.546265,0.610168,0.504272
1480618131746229,-0.273987,-0.546387,0.610229,0.503967
1480618131770294,-0.274109,-0.546631,0.610168,0.503723
1480618131791349,-0.274109,-0.546631,0.610168,0.503723
1480618131806390,-0.27417,-0.546936,0.610046,0.503479
1480618131831960,-0.274475,-0.54718,0.609863,0.503235
1480618131846999,-0.274475,-0.547241,0.609863,0.503235
1480618131866549,-0.274475,-0.547241,0.609863,0.503235
1480618131893121,-0.274475,-0.547241,0.609863,0.503235
1480618131912673,-0.274231,-0.547302,0.609741,0.503418
1480618131926208,-0.274231,-0.547363,0.609741,0.503418
1480618131948769,-0.274109,-0.54718,0.60968,0.503662
1480618131965313,-0.27417,-0.54718,0.60968,0.503662
1480618131995394,-0.274231,-0.547485,0.609497,0.50354
1480618132018454,-0.273926,-0.547546,0.609497,0.503662
1480618132025473,-0.27356,-0.547485,0.609558,0.503845
1480618132046529,-0.273193,-0.547424,0.60968,0.503967
1480618132076608,-0.272949,-0.547363,0.609802,0.504028
1480618132109696,-0.272766,-0.547424,0.609863,0.504028
1480618132113707,-0.272278,-0.547485,0.609985,0.504028
1480618132128750,-0.271667,-0.547424,0.610229,0.504089
1480618132152811,-0.271057,-0.54718,0.610474,0.504395
1480618132166347,-0.27063,-0.546936,0.610657,0.504639
1480618132193921,-0.270447,-0.546692,0.610779,0.504883
1480618132206955,-0.270447,-0.54657,0.61084,0.504944
1480618132226507,-0.270508,-0.54657,0.61084,0.504944
1480618132248567,-0.270264,-0.546448,0.611023,0.505005
1480618132271627,-0.269958,-0.546265,0.611206,0.505127
1480618132302709,-0.269775,-0.546204,0.611206,0.505249
1480618132325270,-0.269531,-0.546082,0.611389,0.505371
1480618132331286,-0.269165,-0.545959,0.611511,0.505493
1480618132371393,-0.26886,-0.545898,0.611694,0.505493
1480618132385429,-0.268494,-0.545776,0.611816,0.505676
1480618132391446,-0.268066,-0.545654,0.612,0.505798
1480618132408993,-0.267639,-0.545593,0.612183,0.505859
1480618132430049,-0.267395,-0.545837,0.612244,0.505676
1480618132454113,-0.267029,-0.545959,0.612305,0.505615
1480618132469153,-0.266785,-0.546265,0.612244,0.505554
1480618132488705,-0.266602,-0.546631,0.611938,0.505554
1480618132512769,-0.266602,-0.546631,0.611938,0.505554
1480618132542347,-0.266602,-0.54657,0.611938,0.505676
1480618132551873,-0.266602,-0.546387,0.611938,0.505859
1480618132581487,-0.266479,-0.546143,0.612,0.506104
1480618132604013,-0.266479,-0.546143,0.612,0.506104
1480618132609025,-0.266479,-0.546143,0.612,0.506104
1480618132631083,-0.266235,-0.545898,0.612061,0.506409
1480618132665676,-0.266235,-0.545898,0.612061,0.506409
1480618132670187,-0.266235,-0.545959,0.612061,0.506409
1480618132691244,-0.266235,-0.545959,0.612061,0.506348
1480618132706785,-0.266113,-0.545898,0.612122,0.506409
1480618132728849,-0.26593,-0.545715,0.612305,0.506531
1480618132751403,-0.265869,-0.545715,0.612305,0.506531
1480618132766444,-0.265869,-0.545715,0.612244,0.506531
1480618132789004,-0.26593,-0.545715,0.612305,0.506531
1480618132811564,-0.26593,-0.545715,0.612244,0.506531
1480618132833623,-0.26593,-0.545654,0.612366,0.50647
1480618132857686,-0.265686,-0.545349,0.61261,0.506653
1480618132882252,-0.265442,-0.545166,0.612732,0.506897
1480618132912332,-0.265442,-0.545105,0.612732,0.506897
1480618132941409,-0.265381,-0.54541,0.61261,0.506714
1480618132943916,-0.265259,-0.54541,0.612671,0.506714
1480618132949431,-0.265076,-0.545471,0.612732,0.506653
1480618132968983,-0.264832,-0.545349,0.612915,0.506714
1480618132991543,-0.264832,-0.545349,0.612854,0.506775
1480618133009089,-0.264832,-0.54541,0.612854,0.506775
1480618133029146,-0.264648,-0.54541,0.612854,0.506775
1480618133051201,-0.264648,-0.54541,0.612854,0.506775
1480618133069249,-0.264587,-0.545471,0.612915,0.506714
1480618133105346,-0.264465,-0.545532,0.613037,0.506592
1480618133119382,-0.264282,-0.545715,0.612976,0.50647
1480618133144951,-0.264038,-0.546021,0.612915,0.506409
1480618133151468,-0.263855,-0.546387,0.612793,0.506226
1480618133171521,-0.263794,-0.546753,0.612793,0.50592
1480618133189069,-0.263611,-0.546997,0.612793,0.505737
1480618133217644,-0.263672,-0.547241,0.612549,0.505737
1480618133231181,-0.263367,-0.546814,0.612671,0.506165
1480618133253740,-0.263489,-0.546753,0.612671,0.506165
1480618133276301,-0.26355,-0.546631,0.612793,0.506165
1480618133294348,-0.26355,-0.546631,0.612793,0.506165
1480618133311396,-0.26355,-0.546631,0.612793,0.506165
1480618133328940,-0.26355,-0.546631,0.612793,0.506165
1480618133354508,-0.26355,-0.546631,0.612793,0.506165
1480618133385591,-0.26355,-0.546631,0.612793,0.506165
1480618133405644,-0.263489,-0.546692,0.612793,0.506165
1480618133411159,-0.26355,-0.546692,0.612793,0.506165
1480618133436727,-0.26355,-0.546692,0.612793,0.506165
1480618133448759,-0.26355,-0.546692,0.612793,0.506104
1480618133480344,-0.263428,-0.546448,0.612915,0.506226
1480618133493880,-0.263306,-0.546265,0.613037,0.506348
1480618133510424,-0.263306,-0.546265,0.613098,0.506348
1480618133531478,-0.263306,-0.546265,0.613098,0.506348
1480618133550029,-0.263306,-0.546265,0.613098,0.506348
1480618133568577,-0.263306,-0.546265,0.613098,0.506348
1480618133591138,-0.263306,-0.546265,0.613037,0.506348
1480618133633752,-0.263306,-0.546265,0.613037,0.506348
1480618133663331,-0.263306,-0.546265,0.613037,0.506348
1480618133683885,-0.263489,-0.546448,0.612976,0.506104
1480618133690903,-0.26355,-0.546448,0.612976,0.506104
1480618133693410,-0.26355,-0.546509,0.612976,0.506042
1480618133712963,-0.26355,-0.546448,0.612976,0.506042
1480618133729506,-0.26355,-0.546448,0.613037,0.506104
1480618133756077,-0.263611,-0.546692,0.612976,0.505798
1480618133771117,-0.263794,-0.546875,0.612976,0.505493
1480618133793677,-0.264038,-0.547058,0.612854,0.505371
1480618133810220,-0.264343,-0.547058,0.612671,0.505493
1480618133855842,-0.264282,-0.546692,0.612793,0.505737
1480618133858349,-0.264526,-0.546509,0.612793,0.505737
1480618133877903,-0.264526,-0.54657,0.612793,0.505737
1480618133907479,-0.264771,-0.54657,0.612671,0.505737
1480618133914999,-0.265137,-0.546448,0.61261,0.505737
1480618133939063,-0.265503,-0.54657,0.612488,0.505615
1480618133951596,-0.265808,-0.546753,0.612244,0.505493
1480618133973655,-0.265808,-0.546814,0.612244,0.505493
1480618133990199,-0.265808,-0.546814,0.612244,0.505493
1480618134011255,-0.265808,-0.546814,0.612244,0.505493
1480618134044345,-0.265808,-0.546814,0.612244,0.505432
1480618134051863,-0.265808,-0.546814,0.612244,0.505432
1480618134087458,-0.265869,-0.546814,0.612244,0.505432
1480618134093976,-0.265869,-0.546814,0.612244,0.505432
1480618134112526,-0.265869,-0.546814,0.612244,0.505432
1480618134155640,-0.265747,-0.546692,0.612366,0.505432
1480618134171181,-0.265747,-0.546692,0.612366,0.505432
1480618134176195,-0.265808,-0.546753,0.612366,0.505371
1480618134206776,-0.265808,-0.546753,0.612366,0.505371
1480618134216802,-0.265808,-0.546753,0.612366,0.505371
1480618134247885,-0.265808,-0.546753,0.612366,0.505371
1480618134254403,-0.265747,-0.546692,0.612427,0.505371
1480618134273954,-0.265747,-0.546753,0.612427,0.505371
1480618134296514,-0.265747,-0.546753,0.612427,0.505371
1480618134313561,-0.265747,-0.546753,0.612427,0.505371
1480618134352162,-0.265686,-0.54657,0.612549,0.505432
1480618134356173,-0.265442,-0.546387,0.612671,0.505615
1480618134371214,-0.265442,-0.546387,0.612671,0.505615
1480618134412825,-0.265503,-0.546387,0.612671,0.505554
1480618134417838,-0.265503,-0.546387,0.612671,0.505554
1480618134431373,-0.265259,-0.546448,0.612854,0.505432
1480618134469976,-0.265076,-0.546631,0.612793,0.505432
1480618134485016,-0.265015,-0.546753,0.612549,0.505554
1480618134492536,-0.265076,-0.54657,0.612549,0.505737
1480618134521112,-0.265076,-0.546265,0.612793,0.505798
1480618134531639,-0.265076,-0.546204,0.612793,0.505798
1480618134554701,-0.265076,-0.546265,0.612793,0.505798
1480618134573752,-0.265076,-0.546204,0.612793,0.505798
1480618134606338,-0.265076,-0.546265,0.612793,0.505798
1480618134611356,-0.265076,-0.546265,0.612793,0.505737
1480618134633911,-0.265137,-0.546265,0.612793,0.505737
1480618134680536,-0.265015,-0.546204,0.612854,0.505798
1480618134688056,-0.264954,-0.546204,0.612854,0.505798
1480618134701090,-0.264954,-0.546204,0.612854,0.505798
1480618134742201,-0.264954,-0.546265,0.612854,0.505798
1480618134747714,-0.265015,-0.546265,0.612854,0.505798
1480618134761254,-0.265015,-0.546265,0.612854,0.505798
1480618134772782,-0.265076,-0.546265,0.612854,0.505737
1480618134800354,-0.265076,-0.546265,0.612854,0.505737
1480618134813891,-0.265076,-0.546265,0.612854,0.505737
1480618134844476,-0.265015,-0.546265,0.612854,0.505737
1480618134860515,-0.265015,-0.546265,0.612793,0.505737
1480618134874051,-0.265076,-0.546265,0.612793,0.505737
1480618134891598,-0.265076,-0.546265,0.612793,0.505737
1480618134939224,-0.265076,-0.546326,0.612793,0.505676
1480618134957272,-0.265137,-0.546326,0.612793,0.505676
1480618134967801,-0.265137,-0.546326,0.612793,0.505676
1480618134978830,-0.265137,-0.546326,0.612793,0.505676
1480618134996878,-0.265137,-0.546326,0.612793,0.505676
1480618135012419,-0.265198,-0.546326,0.612793,0.505615
1480618135033976,-0.265198,-0.546326,0.612793,0.505615
1480618135055032,-0.265198,-0.546326,0.612793,0.505615
1480618135077593,-0.265442,-0.546448,0.612671,0.505554
1480618135094137,-0.265869,-0.546509,0.612549,0.505371
1480618135116696,-0.266357,-0.54657,0.612427,0.505249
1480618135131736,-0.266968,-0.546753,0.612244,0.504944
1480618135156301,-0.267212,-0.54657,0.612366,0.504822
1480618135175352,-0.267456,-0.54657,0.612305,0.504761
1480618135197912,-0.267883,-0.546631,0.612183,0.504578
1480618135214579,-0.268555,-0.546753,0.612,0.504333
1480618135242532,-0.268982,-0.546753,0.612,0.504089
1480618135259075,-0.26947,-0.546875,0.612,0.503723
1480618135274617,-0.26947,-0.546875,0.612,0.503723
1480618135293667,-0.269531,-0.546875,0.612061,0.503662
1480618135319235,-0.269531,-0.546814,0.612061,0.503723
1480618135334776,-0.269409,-0.546936,0.611877,0.503845
1480618135357337,-0.26947,-0.54718,0.611694,0.503784
1480618135384910,-0.269592,-0.547546,0.61145,0.503601
1480618135394438,-0.269592,-0.547546,0.61145,0.503601
1480618135421507,-0.269592,-0.547607,0.611389,0.503601
1480618135436548,-0.269348,-0.547607,0.61145,0.503723
1480618135478158,-0.269348,-0.547607,0.611389,0.503662
1480618135493198,-0.26947,-0.547913,0.611267,0.503479
1480618135505230,-0.26947,-0.547913,0.611267,0.503479
1480618135522776,-0.26947,-0.547913,0.611267,0.503479
1480618135533806,-0.269653,-0.548157,0.611084,0.503418
1480618135556366,-0.269592,-0.548157,0.611023,0.503418
1480618135574414,-0.269531,-0.548157,0.611145,0.503357
1480618135593967,-0.269348,-0.548157,0.611328,0.503235
1480618135633070,-0.269165,-0.548157,0.611511,0.503052
1480618135635577,-0.268921,-0.548096,0.611694,0.503052
1480618135661648,-0.268799,-0.548096,0.611938,0.502869
1480618135676185,-0.268677,-0.547852,0.612122,0.502869
1480618135715791,-0.268494,-0.547546,0.612305,0.503174
1480618135718297,-0.268494,-0.547546,0.612305,0.503113
1480618135755897,-0.26886,-0.547546,0.612366,0.502869
1480618135768430,-0.26886,-0.547363,0.61261,0.502808
1480618135789988,-0.268738,-0.547363,0.612732,0.502747
1480618135796505,-0.268738,-0.547363,0.612671,0.502747
1480618135814052,-0.268738,-0.547363,0.612732,0.502747
1480618135835107,-0.268738,-0.547363,0.612732,0.502747
1480618135865187,-0.268738,-0.547363,0.612732,0.502747
1480618135874212,-0.268799,-0.547363,0.612671,0.502747
1480618135895269,-0.268677,-0.547607,0.61261,0.502625
1480618135916323,-0.268433,-0.547913,0.612549,0.502502
1480618135949412,-0.268066,-0.548035,0.612549,0.502563
1480618135956932,-0.268127,-0.548523,0.612183,0.502441
1480618135994536,-0.268494,-0.549011,0.611694,0.502258
1480618136054692,-0.268494,-0.548889,0.611877,0.502258
1480618136061714,-0.268494,-0.548889,0.611816,0.502258
1480618136077251,-0.268555,-0.549072,0.611694,0.502136
1480618136113348,-0.268555,-0.549072,0.611694,0.502136
1480618136116857,-0.268494,-0.548889,0.611877,0.502197
1480618136144431,-0.268372,-0.548767,0.611938,0.50238
1480618136156463,-0.268311,-0.548767,0.611938,0.50238
1480618136174009,-0.268311,-0.548767,0.611938,0.50238
1480618136197071,-0.268555,-0.548645,0.611938,0.50238
1480618136234670,-0.268677,-0.54834,0.612061,0.502563
1480618136238683,-0.268799,-0.547974,0.612122,0.502686
1480618136273273,-0.26886,-0.547791,0.612244,0.502808
1480618136317391,-0.269104,-0.547913,0.612061,0.502747
1480618136321902,-0.269165,-0.547852,0.612,0.502808
1480618136353487,-0.269165,-0.547607,0.612122,0.50293
1480618136356495,-0.269165,-0.547607,0.612122,0.50293
1480618136382564,-0.269226,-0.547607,0.612183,0.50293
1480618136397603,-0.269226,-0.547607,0.612183,0.50293
1480618136418660,-0.269165,-0.547363,0.612183,0.503113
1480618136436708,-0.269165,-0.547363,0.612183,0.503113
1480618136456260,-0.269165,-0.547424,0.612183,0.503052
1480618136474308,-0.269226,-0.547424,0.612183,0.503052
1480618136504389,-0.269226,-0.547424,0.612244,0.503052
1480618136517925,-0.269226,-0.547424,0.612183,0.503052
1480618136541488,-0.269226,-0.547424,0.612183,0.503052
1480618136573071,-0.269226,-0.547424,0.612183,0.503052
1480618136593124,-0.269226,-0.547424,0.612183,0.502991
1480618136595631,-0.269287,-0.547424,0.612183,0.502991
1480618136624207,-0.269287,-0.547485,0.612183,0.502991
1480618136643764,-0.269287,-0.547485,0.612183,0.502991
1480618136661808,-0.269287,-0.547485,0.612183,0.502991
1480618136682863,-0.269226,-0.547485,0.612122,0.502991
1480618136705924,-0.269287,-0.547546,0.612122,0.502991
1480618136714447,-0.269287,-0.547546,0.612122,0.502991
1480618136736506,-0.269287,-0.547546,0.612122,0.502991
1480618136765081,-0.269287,-0.547546,0.612122,0.502991
1480618136795663,-0.269287,-0.547546,0.612122,0.502991
1480618136828751,-0.269287,-0.547546,0.612122,0.502991
1480618136833769,-0.269226,-0.547485,0.612183,0.50293
1480618136846298,-0.269104,-0.547363,0.612366,0.50293
1480618136869860,-0.269165,-0.547363,0.612366,0.50293
1480618136885402,-0.269165,-0.547424,0.612366,0.50293
1480618136898937,-0.269165,-0.547424,0.612305,0.50293
1480618136921498,-0.269104,-0.547424,0.612305,0.50293
1480618136940047,-0.269165,-0.547424,0.612305,0.50293
1480618136958597,-0.269165,-0.547485,0.612305,0.50293
1480618136976644,-0.269165,-0.547485,0.612305,0.50293
1480618137000208,-0.269165,-0.547485,0.612305,0.502869
1480618137043322,-0.268982,-0.547363,0.612366,0.502991
1480618137045829,-0.268982,-0.547363,0.612366,0.502991
1480618137075407,-0.269043,-0.547363,0.612366,0.502991
1480618137102980,-0.269043,-0.547363,0.612366,0.502991
1480618137108998,-0.269043,-0.547363,0.612366,0.50293
1480618137123535,-0.269043,-0.547363,0.612366,0.50293
1480618137141583,-0.269104,-0.547363,0.612366,0.50293
1480618137157125,-0.269104,-0.547424,0.612366,0.50293
1480618137180187,-0.269104,-0.547424,0.612366,0.50293
1480618137198735,-0.269104,-0.547424,0.612366,0.50293
1480618137216783,-0.269104,-0.547424,0.612366,0.50293
1480618137239343,-0.269104,-0.547424,0.612366,0.502869
1480618137261905,-0.269104,-0.547424,0.612366,0.502869
1480618137297498,-0.269104,-0.547424,0.612366,0.502869
1480618137305018,-0.269104,-0.547485,0.612305,0.502869
1480618137326076,-0.269165,-0.547485,0.612305,0.502869
1480618137348634,-0.269165,-0.547485,0.612305,0.502869
1480618137359163,-0.269165,-0.547485,0.612305,0.502869
1480618137378716,-0.269165,-0.547546,0.612244,0.502869
1480618137404282,-0.269165,-0.547546,0.612244,0.502869
1480618137419322,-0.269165,-0.547546,0.612244,0.502869
1480618137438874,-0.269165,-0.547546,0.612244,0.502808
1480618137462938,-0.269165,-0.547546,0.612244,0.502808
1480618137495526,-0.269226,-0.547546,0.612244,0.502808
1480618137516080,-0.269226,-0.547546,0.612244,0.502808
1480618137518085,-0.269226,-0.547546,0.612244,0.502808
1480618137546160,-0.269104,-0.547485,0.612366,0.502808
1480618137561701,-0.269043,-0.547424,0.612488,0.502808
1480618137578245,-0.269043,-0.547424,0.612488,0.502747
1480618137612335,-0.269043,-0.547424,0.612488,0.502747
1480618137634394,-0.269043,-0.547424,0.612488,0.502747
1480618137658459,-0.269043,-0.547424,0.612488,0.502808
1480618137660467,-0.269043,-0.547485,0.612427,0.502808
1480618137689040,-0.269043,-0.547485,0.612427,0.502747
1480618137696559,-0.269104,-0.547485,0.612427,0.502747
1480618137725146,-0.269104,-0.547485,0.612427,0.502747
1480618137739675,-0.269104,-0.547485,0.612427,0.502747
1480618137769755,-0.269104,-0.547485,0.612427,0.502747
1480618137784293,-0.269104,-0.547485,0.612427,0.502747
1480618137799333,-0.269104,-0.547485,0.612427,0.502686
1480618137817883,-0.269287,-0.547729,0.612183,0.502686
1480618137853979,-0.269287,-0.547729,0.612183,0.502686
1480618137859494,-0.269592,-0.548218,0.611755,0.502441
1480618137889573,-0.269775,-0.548462,0.611572,0.502319
1480618137898598,-0.269836,-0.548462,0.611572,0.502319
1480618137921158,-0.269836,-0.548462,0.611572,0.502258
1480618137941713,-0.269897,-0.548523,0.611572,0.502258
1480618137980816,-0.269897,-0.548523,0.611572,0.502258
1480618137990342,-0.269714,-0.548462,0.611694,0.502197
1480618138001871,-0.269714,-0.548462,0.611694,0.502258
1480618138018416,-0.269714,-0.548462,0.611694,0.502258
1480618138055017,-0.269714,-0.548523,0.611694,0.502258
1480618138061531,-0.269714,-0.548523,0.611694,0.502197
1480618138080581,-0.269775,-0.548523,0.611694,0.502197
1480618138101637,-0.269775,-0.548523,0.611633,0.502197
1480618138129210,-0.269775,-0.548584,0.611633,0.502197
1480618138138235,-0.269775,-0.548584,0.611633,0.502197
1480618138166810,-0.269775,-0.548584,0.611633,0.502197
1480618138181851,-0.269836,-0.548584,0.611633,0.502136
1480618138198394,-0.269836,-0.548584,0.611633,0.502136
1480618138221456,-0.269775,-0.548401,0.611755,0.502197
1480618138242512,-0.269714,-0.548218,0.611877,0.502319
1480618138264570,-0.269653,-0.547913,0.612061,0.502502
1480618138288133,-0.269653,-0.547607,0.612183,0.502625
1480618138302170,-0.269653,-0.547607,0.612183,0.502625
1480618138318214,-0.269958,-0.547668,0.612122,0.502502
1480618138340774,-0.269958,-0.547668,0.612122,0.502502
1480618138361829,-0.269958,-0.547668,0.612122,0.502502
1480618138378374,-0.269775,-0.547607,0.612183,0.502563
1480618138408453,-0.269775,-0.547607,0.612122,0.502563
1480618138432518,-0.269836,-0.547607,0.612183,0.502563
1480618138445054,-0.269836,-0.547607,0.612183,0.502502
1480618138462597,-0.269714,-0.547424,0.612305,0.502625
1480618138481648,-0.269714,-0.547424,0.612305,0.502625
1480618138498192,-0.269714,-0.547424,0.612305,0.502625
1480618138536795,-0.269714,-0.547485,0.612244,0.502625
1480618138541808,-0.269714,-0.547485,0.612244,0.502625
1480618138572390,-0.269775,-0.547485,0.612244,0.502625
1480618138596956,-0.269775,-0.547485,0.612244,0.502563
1480618138603473,-0.269775,-0.547485,0.612244,0.502563
1480618138620016,-0.269775,-0.547485,0.612244,0.502625
1480618138641575,-0.269775,-0.547485,0.612244,0.502625
1480618138662131,-0.269775,-0.547546,0.612244,0.502563
1480618138678174,-0.269775,-0.547546,0.612244,0.502563
1480618138700731,-0.269836,-0.547546,0.612244,0.502563
1480618138729307,-0.269775,-0.547546,0.612244,0.502563
1480618138738331,-0.269775,-0.547546,0.612244,0.502563
1480618138762395,-0.269592,-0.547485,0.612183,0.502747
1480618138781947,-0.26947,-0.547424,0.612305,0.502808
1480618138806011,-0.269348,-0.547485,0.612427,0.502625
1480618138836091,-0.269348,-0.547485,0.612427,0.502625
1480618138844112,-0.269165,-0.547363,0.612549,0.502686
1480618138858651,-0.268982,-0.547241,0.61261,0.502808
1480618138881212,-0.269043,-0.547241,0.61261,0.502808
1480618138903270,-0.269043,-0.547302,0.61261,0.502747
1480618138918311,-0.269104,-0.547302,0.61261,0.502747
1480618138940870,-0.269104,-0.547302,0.61261,0.502747
1480618138986491,-0.268799,-0.547119,0.612793,0.502869
1480618138988999,-0.268494,-0.547058,0.612915,0.502991
1480618139009052,-0.268494,-0.547058,0.612915,0.502991
1480618139024092,-0.268494,-0.547058,0.612854,0.50293
1480618139052166,-0.268555,-0.547119,0.612854,0.50293
1480618139067206,-0.268555,-0.547119,0.612854,0.50293
1480618139083249,-0.268372,-0.547119,0.612915,0.502991
1480618139097787,-0.268372,-0.547119,0.612854,0.502991
1480618139122353,-0.268372,-0.547119,0.612854,0.502991
1480618139149424,-0.268372,-0.547119,0.612854,0.502991
1480618139157446,-0.268372,-0.547119,0.612854,0.502991
1480618139181010,-0.268372,-0.547119,0.612854,0.502991
1480618139203568,-0.26825,-0.547058,0.612915,0.503052
1480618139217606,-0.26825,-0.547058,0.612915,0.503052
1480618139241169,-0.26825,-0.547058,0.612915,0.503052
1480618139277265,-0.26825,-0.547058,0.612915,0.503052
1480618139286289,-0.26825,-0.547058,0.612915,0.503052
1480618139300827,-0.268311,-0.547119,0.612915,0.503052
1480618139323388,-0.268311,-0.547119,0.612915,0.503052
1480618139361488,-0.26825,-0.547119,0.612915,0.503052
1480618139363995,-0.26825,-0.547119,0.612854,0.503052
1480618139389564,-0.26825,-0.547119,0.612854,0.503052
1480618139404604,-0.26825,-0.547119,0.612854,0.503052
1480618139435686,-0.268311,-0.547119,0.612854,0.503052
1480618139449223,-0.268311,-0.547119,0.612854,0.503052
1480618139481308,-0.268372,-0.547363,0.612671,0.502991
1480618139483814,-0.268311,-0.547363,0.612671,0.503052
1480618139518908,-0.268738,-0.548035,0.612122,0.502686
1480618139524423,-0.268921,-0.548035,0.611938,0.502808
1480618139540967,-0.268982,-0.547302,0.612488,0.50293
1480618139563527,-0.268982,-0.546875,0.612793,0.503052
1480618139585586,-0.268799,-0.546692,0.612915,0.503235
1480618139601126,-0.268799,-0.546448,0.613037,0.503357
1480618139631708,-0.268921,-0.546631,0.612854,0.503235
1480618139644241,-0.269226,-0.546936,0.61261,0.503052
1480618139668306,-0.269287,-0.546631,0.612732,0.503235
1480618139683346,-0.269287,-0.546631,0.612732,0.503235
1480618139712424,-0.269226,-0.546631,0.612732,0.503235
1480618139735985,-0.269226,-0.546631,0.612732,0.503235
1480618139743506,-0.269287,-0.546631,0.612732,0.503235
1480618139764060,-0.269287,-0.546692,0.612732,0.503174
1480618139794641,-0.269287,-0.546631,0.612732,0.503174
1480618139803164,-0.269226,-0.546509,0.612854,0.503235
1480618139841774,-0.269165,-0.546509,0.612854,0.503235
1480618139846780,-0.269287,-0.546753,0.612671,0.503174
1480618139871846,-0.269287,-0.546753,0.612671,0.503174
1480618139885885,-0.269287,-0.546692,0.612732,0.503113
1480618139903933,-0.269287,-0.546692,0.612732,0.503113
1480618139923985,-0.269287,-0.546692,0.612732,0.503113
1480618139953063,-0.269226,-0.54657,0.612793,0.503174
1480618139960588,-0.269226,-0.54657,0.612854,0.503235
1480618139998182,-0.269409,-0.546875,0.612366,0.503357
1480618140005703,-0.269592,-0.547119,0.612244,0.503113
1480618140028263,-0.269714,-0.546814,0.61261,0.502991
1480618140043307,-0.269714,-0.546448,0.612732,0.503174
1480618140071879,-0.269714,-0.546448,0.612732,0.503174
1480618140080403,-0.269775,-0.546448,0.61261,0.503296
1480618140110983,-0.269775,-0.546448,0.61261,0.503296
1480618140126023,-0.269714,-0.546509,0.612732,0.503113
1480618140140060,-0.269592,-0.546448,0.612854,0.503052
1480618140163623,-0.269592,-0.546448,0.612854,0.503052
1480618140202226,-0.269592,-0.546448,0.612854,0.503052
1480618140207740,-0.269592,-0.546509,0.612854,0.503113
1480618140236817,-0.269592,-0.546509,0.612793,0.503113
1480618140245842,-0.269531,-0.546387,0.612854,0.503174
1480618140274417,-0.269531,-0.546387,0.612854,0.503174
1480618140283442,-0.269531,-0.546387,0.612854,0.503113
1480618140313522,-0.269531,-0.546387,0.612854,0.503113
1480618140327059,-0.269531,-0.546448,0.612854,0.503113
1480618140351122,-0.269531,-0.546448,0.612854,0.503113
1480618140366162,-0.269592,-0.546448,0.612854,0.503113
1480618140386717,-0.269592,-0.546448,0.612854,0.503113
1480618140403260,-0.269409,-0.546326,0.612976,0.503113
1480618140426324,-0.269226,-0.546265,0.613037,0.503235
1480618140448882,-0.269226,-0.546265,0.613037,0.503235
1480618140463922,-0.269226,-0.546326,0.613037,0.503235
1480618140485981,-0.269226,-0.546326,0.612976,0.503235
1480618140507037,-0.269226,-0.546326,0.612976,0.503235
1480618140524082,-0.269226,-0.546326,0.612976,0.503235
1480618140546141,-0.269226,-0.546326,0.612976,0.503235
1480618140567197,-0.269226,-0.546387,0.612976,0.503235
1480618140589255,-0.269226,-0.546387,0.612976,0.503235
1480618140606802,-0.269226,-0.546387,0.612915,0.503235
1480618140636882,-0.269287,-0.546387,0.612915,0.503174
1480618140649916,-0.269287,-0.546387,0.612915,0.503174
1480618140666961,-0.269287,-0.546387,0.612976,0.503174
1480618140687517,-0.269287,-0.546387,0.612915,0.503235
1480618140709577,-0.269287,-0.546448,0.612915,0.503174
1480618140726630,-0.269287,-0.546448,0.612915,0.503174
1480618140748179,-0.269287,-0.546448,0.612915,0.503174
1480618140764221,-0.269348,-0.546448,0.612915,0.503113
1480618140792296,-0.269348,-0.546448,0.612915,0.503113
1480618140808338,-0.269348,-0.546509,0.612915,0.503113
1480618140823379,-0.269348,-0.546509,0.612915,0.503113
1480618140845939,-0.269348,-0.546509,0.612854,0.503113
1480618140876018,-0.269348,-0.546509,0.612915,0.503113
1480618140882537,-0.269409,-0.546509,0.612915,0.503113
1480618140908103,-0.269226,-0.546631,0.613037,0.502869
1480618140928157,-0.268616,-0.546448,0.613403,0.50293
1480618140950717,-0.268127,-0.546265,0.613586,0.503174
1480618140965757,-0.268433,-0.546509,0.612976,0.503479
1480618140990322,-0.268738,-0.547302,0.612305,0.503296
1480618141002855,-0.268738,-0.547363,0.612427,0.503113
1480618141025918,-0.268311,-0.546753,0.612976,0.503235
1480618141048978,-0.268127,-0.54657,0.613159,0.503296
1480618141063517,-0.268127,-0.54657,0.613159,0.503296
1480618141093599,-0.268127,-0.54657,0.613159,0.503296
1480618141109138,-0.268188,-0.546631,0.613159,0.503296
1480618141122674,-0.268188,-0.546631,0.613159,0.503235
1480618141145737,-0.268188,-0.546631,0.613159,0.503235
1480618141168797,-0.268066,-0.546692,0.613159,0.503235
1480618141184339,-0.267822,-0.546692,0.613281,0.503296
1480618141205896,-0.267639,-0.546631,0.613342,0.503357
1480618141234471,-0.267578,-0.546631,0.613342,0.503357
1480618141257533,-0.267639,-0.546631,0.613342,0.503357
1480618141267560,-0.267578,-0.546692,0.613281,0.503357
1480618141289619,-0.267578,-0.546509,0.613403,0.503418
1480618141310675,-0.267578,-0.54657,0.613403,0.503418
1480618141331730,-0.267578,-0.54657,0.613403,0.503418
1480618141348275,-0.267578,-0.54657,0.613403,0.503418
1480618141377355,-0.267578,-0.546448,0.613464,0.503418
1480618141393397,-0.267578,-0.546448,0.613464,0.503418
1480618141408435,-0.267578,-0.546509,0.613403,0.503418
1480618141430493,-0.267578,-0.546509,0.613403,0.503418
1480618141453556,-0.267578,-0.546509,0.613403,0.503418
1480618141490653,-0.2677,-0.546509,0.613403,0.503357
1480618141506696,-0.2677,-0.54657,0.613342,0.503357
1480618141509707,-0.267517,-0.54657,0.613525,0.503235
1480618141528254,-0.267517,-0.54657,0.613525,0.503296
1480618141549310,-0.267456,-0.54657,0.613525,0.503296
1480618141565352,-0.2677,-0.546814,0.613281,0.503174
1480618141588414,-0.267883,-0.547119,0.613098,0.50293
1480618141609470,-0.2677,-0.547302,0.613159,0.502808
1480618141626516,-0.267578,-0.547241,0.613281,0.502808
1480618141657597,-0.267578,-0.547241,0.613281,0.502808
1480618141672137,-0.267517,-0.547241,0.613281,0.502808
1480618141685672,-0.267578,-0.547241,0.613281,0.502808
1480618141708733,-0.267578,-0.547241,0.613281,0.502808
1480618141744329,-0.2677,-0.547546,0.613037,0.502625
1480618141771400,-0.267944,-0.547913,0.61261,0.502686
1480618141792456,-0.267151,-0.54718,0.612976,0.503479
1480618141805491,-0.267639,-0.54834,0.612061,0.503052
1480618141813011,-0.268738,-0.5495,0.611145,0.502319
1480618141834568,-0.26825,-0.548706,0.611755,0.502686
1480618141857128,-0.268188,-0.548401,0.612122,0.502563
1480618141865149,-0.268005,-0.54834,0.612488,0.50238
1480618141888211,-0.2677,-0.548157,0.612671,0.502441
1480618141910772,-0.267395,-0.547791,0.612976,0.502625
1480618141933331,-0.267456,-0.547791,0.612976,0.502625
1480618141948372,-0.26709,-0.547791,0.61322,0.502502
1480618141970937,-0.26709,-0.547607,0.613403,0.502441
1480618141991987,-0.26709,-0.547668,0.613159,0.502747
1480618142016054,-0.267273,-0.547729,0.613098,0.502686
1480618142030589,-0.267395,-0.547363,0.613342,0.502686
1480618142069694,-0.267456,-0.54718,0.613403,0.502747
1480618142074707,-0.267517,-0.54718,0.613403,0.502747
1480618142098270,-0.267517,-0.54718,0.613403,0.502686
1480618142105289,-0.267578,-0.54718,0.613403,0.502686
1480618142128350,-0.267578,-0.54718,0.613403,0.502686
1480618142150910,-0.267578,-0.54718,0.613403,0.502686
1480618142171965,-0.267517,-0.54718,0.613403,0.502686
1480618142188009,-0.267578,-0.547241,0.613403,0.502686
1480618142211070,-0.267578,-0.547241,0.613403,0.502686
1480618142232127,-0.267578,-0.54718,0.613403,0.502625
1480618142249171,-0.267639,-0.54718,0.613403,0.502625
1480618142270729,-0.267761,-0.547485,0.613281,0.502441
1480618142293292,-0.267517,-0.547302,0.613525,0.502502
1480618142308329,-0.267212,-0.547119,0.613708,0.502625
1480618142348937,-0.267212,-0.547119,0.613708,0.502625
1480618142359465,-0.267395,-0.547363,0.613525,0.502502
1480618142368990,-0.267395,-0.547363,0.613525,0.502502
1480618142391049,-0.267273,-0.547241,0.613647,0.502502
1480618142412106,-0.267456,-0.547485,0.613281,0.502563
1480618142434664,-0.267456,-0.547485,0.613281,0.502563
1480618142450708,-0.267456,-0.547302,0.613586,0.50238
1480618142471763,-0.267334,-0.546814,0.613953,0.502563
1480618142488809,-0.267334,-0.546753,0.614014,0.502563
1480618142510868,-0.267395,-0.547119,0.613647,0.502563
1480618142531924,-0.267273,-0.547363,0.613586,0.50238
1480618142570025,-0.267029,-0.547241,0.613831,0.50238
1480618142587573,-0.266907,-0.547058,0.614014,0.502441
1480618142599102,-0.267151,-0.547302,0.613831,0.502319
1480618142618153,-0.267334,-0.547546,0.613708,0.502136
1480618142656756,-0.267212,-0.547485,0.61377,0.502075
1480618142662271,-0.266846,-0.547302,0.614075,0.502197
1480618142668286,-0.266846,-0.547302,0.614075,0.502197
1480618142691348,-0.266846,-0.547302,0.614075,0.502197
1480618142712905,-0.266907,-0.547302,0.614075,0.502136
1480618142728446,-0.266907,-0.547302,0.614075,0.502136
1480618142751507,-0.266907,-0.547302,0.614075,0.502136
1480618142781588,-0.266846,-0.547302,0.614075,0.502197
1480618142788607,-0.266846,-0.547302,0.614075,0.502197
1480618142810665,-0.266907,-0.547302,0.614014,0.502136
1480618142848265,-0.266907,-0.547302,0.614014,0.502136
1480618142850772,-0.266846,-0.54718,0.614197,0.502136
1480618142872329,-0.266846,-0.54718,0.614197,0.502136
1480618142901406,-0.266846,-0.54718,0.614197,0.502136
1480618142929982,-0.266846,-0.54718,0.614197,0.502136
1480618142940009,-0.266846,-0.547241,0.614197,0.502136
1480618142954047,-0.266846,-0.547241,0.614197,0.502075
1480618142967582,-0.266846,-0.547241,0.614197,0.502075
1480618142992649,-0.266846,-0.547241,0.614197,0.502075
1480618143013204,-0.266846,-0.547241,0.614136,0.502075
1480618143027743,-0.266846,-0.547241,0.614136,0.502075
1480618143051305,-0.266846,-0.547241,0.614136,0.502075
1480618143073868,-0.266907,-0.547302,0.614136,0.502075
1480618143087903,-0.266907,-0.547302,0.614136,0.502075
1480618143149567,-0.266907,-0.547302,0.614136,0.502075
1480618143155582,-0.266907,-0.547302,0.614136,0.502075
1480618143171124,-0.266907,-0.547363,0.614075,0.502014
1480618143207723,-0.266907,-0.547363,0.614075,0.502014
1480618143214239,-0.266846,-0.547302,0.614136,0.502014
1480618143231786,-0.266846,-0.547302,0.614136,0.502014
1480618143259363,-0.266785,-0.547363,0.614136,0.502014
1480618143274400,-0.266785,-0.547363,0.614136,0.502014
1480618143290945,-0.266785,-0.547363,0.614136,0.502014
1480618143321023,-0.266846,-0.547363,0.614136,0.502014
1480618143358122,-0.266846,-0.547363,0.614136,0.502014
1480618143370153,-0.266846,-0.547363,0.614136,0.502014
1480618143376172,-0.266846,-0.547363,0.614136,0.502014
1480618143402740,-0.266846,-0.547363,0.614136,0.502014
1480618143426808,-0.266663,-0.547302,0.614258,0.502014
1480618143442848,-0.266541,-0.547119,0.61438,0.502075
1480618143454378,-0.266541,-0.547119,0.61438,0.502075
1480618143470922,-0.266541,-0.547119,0.61438,0.502075
1480618143499497,-0.266541,-0.547119,0.61438,0.502075
1480618143514538,-0.266541,-0.54718,0.61438,0.502075
1480618143532084,-0.266541,-0.54718,0.61438,0.502075
1480618143559662,-0.266357,-0.54718,0.614502,0.502014
1480618143576204,-0.266113,-0.547302,0.614563,0.501953
1480618143622325,-0.265869,-0.547241,0.614624,0.502075
1480618143642880,-0.265381,-0.547058,0.614746,0.50238
1480618143651402,-0.265503,-0.54718,0.614624,0.502319
1480618143653908,-0.265564,-0.547485,0.614319,0.502319
1480618143679477,-0.265625,-0.547729,0.614441,0.501892
1480618143696020,-0.265564,-0.547485,0.614685,0.501892
1480618143710058,-0.265564,-0.547485,0.614685,0.501892
1480618143733621,-0.265442,-0.547729,0.614563,0.501831
1480618143755679,-0.26532,-0.548035,0.61438,0.50177
1480618143770218,-0.265137,-0.548462,0.614319,0.501465
1480618143793783,-0.264771,-0.548767,0.614502,0.501099
1480618143815839,-0.264526,-0.549316,0.614258,0.500916
1480618143830378,-0.264832,-0.55011,0.613708,0.50061
1480618143859457,-0.264771,-0.549927,0.613892,0.50061
1480618143885525,-0.264587,-0.549744,0.614075,0.50061
1480618143898560,-0.264587,-0.549805,0.614075,0.50061
1480618143927138,-0.264587,-0.549805,0.614075,0.50061
1480618143943179,-0.264648,-0.549805,0.614075,0.50061
1480618143959223,-0.264648,-0.549805,0.614075,0.50061
1480618143973759,-0.264648,-0.549805,0.614014,0.50061
1480618143997322,-0.264648,-0.549866,0.614014,0.50061
1480618144010859,-0.264648,-0.549866,0.614014,0.50061
1480618144033418,-0.264648,-0.549927,0.613953,0.50061
1480618144055978,-0.264648,-0.549927,0.613953,0.500549
1480618144084554,-0.264648,-0.549927,0.614014,0.500549
1480618144093582,-0.264648,-0.549927,0.614014,0.500549
1480618144122153,-0.264648,-0.549927,0.614014,0.500549
1480618144160757,-0.264771,-0.549744,0.614014,0.50061
1480618144175800,-0.264771,-0.549316,0.614258,0.500854
1480618144181813,-0.264771,-0.548706,0.614502,0.50116
1480618144206378,-0.265015,-0.548523,0.614502,0.501221
1480618144214901,-0.265015,-0.548523,0.614502,0.501221
1480618144236458,-0.265015,-0.548523,0.614502,0.501221
1480618144257013,-0.264954,-0.54834,0.614563,0.501404
1480618144273557,-0.265137,-0.548523,0.61438,0.501404
1480618144304141,-0.265137,-0.548523,0.61438,0.501343
1480618144316672,-0.265198,-0.548523,0.61438,0.501343
1480618144333215,-0.265198,-0.548523,0.614319,0.501343
1480618144355776,-0.265198,-0.548523,0.614319,0.501343
1480618144377333,-0.265137,-0.548401,0.614441,0.501404
1480618144393377,-0.265137,-0.548401,0.614441,0.501404
1480618144423958,-0.265137,-0.548401,0.614441,0.501404
1480618144469578,-0.265198,-0.548401,0.614441,0.501343
1480618144471082,-0.265198,-0.548401,0.614441,0.501343
1480618144477098,-0.265198,-0.548401,0.614441,0.501343
1480618144497151,-0.265198,-0.548462,0.61438,0.501343
1480618144513697,-0.265198,-0.548462,0.61438,0.501343
1480618144535755,-0.265259,-0.548462,0.61438,0.501343
1480618144564331,-0.265259,-0.548523,0.61438,0.501282
1480618144579371,-0.265259,-0.548523,0.61438,0.501282
1480618144595914,-0.265259,-0.548523,0.61438,0.501282
1480618144619477,-0.265259,-0.548523,0.61438,0.501282
1480618144639530,-0.265198,-0.548401,0.614441,0.501343
1480618144669612,-0.265259,-0.548401,0.614441,0.501343
1480618144692675,-0.265259,-0.548401,0.614441,0.501343
1480618144700693,-0.265259,-0.548401,0.614441,0.501343
1480618144731775,-0.265259,-0.548401,0.614441,0.501343
1480618144738295,-0.265076,-0.548279,0.614502,0.501465
1480618144752832,-0.265076,-0.54834,0.614502,0.501465
1480618144776896,-0.265137,-0.54834,0.614502,0.501404
1480618144798454,-0.265137,-0.54834,0.614502,0.501404
1480618144821013,-0.265076,-0.548218,0.614624,0.501465
1480618144836053,-0.265076,-0.548218,0.614624,0.501465
1480618144858618,-0.265015,-0.548218,0.614563,0.501465
1480618144872650,-0.265015,-0.548218,0.614563,0.501465
1480618144896213,-0.265076,-0.548218,0.614563,0.501465
1480618144927296,-0.265076,-0.548218,0.614563,0.501404
1480618144959383,-0.265076,-0.548157,0.614685,0.501404
1480618144969910,-0.264832,-0.547974,0.614868,0.501465
1480618144980438,-0.264832,-0.547974,0.614868,0.501465
1480618144993473,-0.264832,-0.548035,0.614868,0.501465
1480618145016534,-0.264832,-0.548035,0.614807,0.501465
1480618145038593,-0.264893,-0.548035,0.614807,0.501465
1480618145068171,-0.264893,-0.548035,0.614868,0.501465
1480618145075693,-0.264893,-0.548035,0.614807,0.501465
1480618145099254,-0.264893,-0.548035,0.614807,0.501465
1480618145119307,-0.264893,-0.548035,0.614807,0.501465
1480618145135851,-0.264893,-0.548096,0.614807,0.501404
1480618145158411,-0.264954,-0.548096,0.614807,0.501404
1480618145178977,-0.264954,-0.548096,0.614807,0.501404
1480618145205035,-0.264954,-0.548096,0.614807,0.501404
1480618145232608,-0.264954,-0.548096,0.614807,0.501404
1480618145256171,-0.264954,-0.548096,0.614807,0.501404
1480618145277227,-0.264954,-0.548096,0.614807,0.501404
1480618145287254,-0.265015,-0.548096,0.614807,0.501343
1480618145299285,-0.265015,-0.548096,0.614807,0.501343
1480618145315830,-0.265015,-0.548096,0.614807,0.501343
1480618145338391,-0.265015,-0.548157,0.614807,0.501343
1480618145359448,-0.265015,-0.548157,0.614746,0.501343
1480618145375490,-0.265015,-0.548157,0.614746,0.501343
1480618145413091,-0.265076,-0.548157,0.614746,0.501282
1480618145419606,-0.265076,-0.548157,0.614746,0.501282
1480618145449686,-0.265076,-0.548218,0.614746,0.501282
1480618145459212,-0.265076,-0.548218,0.614746,0.501282
1480618145480769,-0.265076,-0.548218,0.614746,0.501282
1480618145510849,-0.265076,-0.548218,0.614746,0.501221
1480618145525891,-0.265137,-0.548279,0.614746,0.501221
1480618145540428,-0.265137,-0.548279,0.614746,0.501221
1480618145555969,-0.265137,-0.548279,0.614685,0.501221
1480618145584545,-0.265137,-0.548279,0.614685,0.501221
1480618145600587,-0.265137,-0.54834,0.614685,0.501221
1480618145623148,-0.265015,-0.548218,0.614868,0.50116
1480618145638187,-0.264893,-0.548401,0.614807,0.501099
1480618145666763,-0.265137,-0.548889,0.614502,0.500793
1480618145676294,-0.265137,-0.548889,0.614502,0.500793
1480618145721408,-0.265198,-0.548889,0.614502,0.500732
1480618145723915,-0.265137,-0.54895,0.614502,0.500732
1480618145759513,-0.265198,-0.54895,0.614502,0.500732
1480618145786582,-0.265259,-0.548828,0.614563,0.500732
1480618145798112,-0.265259,-0.548645,0.614685,0.500732
1480618145803627,-0.265259,-0.548645,0.614685,0.500732
1480618145826689,-0.265198,-0.548462,0.614807,0.500916
1480618145840727,-0.265198,-0.548462,0.614807,0.500916
1480618145855265,-0.265137,-0.548462,0.614746,0.500916
1480618145878841,-0.265198,-0.548462,0.614746,0.500916
1480618145901388,-0.265198,-0.548462,0.614807,0.500916
1480618145929462,-0.265198,-0.548462,0.614807,0.500854
1480618145938487,-0.265076,-0.54834,0.614868,0.500977
1480618145984609,-0.264954,-0.548279,0.614868,0.501099
1480618145997142,-0.264954,-0.548279,0.614868,0.501099
1480618146037249,-0.265015,-0.548279,0.614868,0.501099
1480618146051286,-0.265015,-0.548279,0.614868,0.501038
1480618146053793,-0.265015,-0.548279,0.614868,0.501038
1480618146067329,-0.265015,-0.548279,0.614868,0.501038
1480618146080865,-0.265015,-0.548279,0.614868,0.501038
1480618146105932,-0.265076,-0.548279,0.614868,0.501038
1480618146118465,-0.265076,-0.54834,0.614868,0.500977
1480618146140525,-0.265076,-0.54834,0.614868,0.500977
1480618146162081,-0.265137,-0.54834,0.614868,0.500977
1480618146178626,-0.265137,-0.54834,0.614868,0.500916
1480618146201686,-0.265137,-0.54834,0.614868,0.500916
1480618146223244,-0.265137,-0.54834,0.614868,0.500916
1480618146261847,-0.265076,-0.548279,0.614929,0.500977
1480618146264855,-0.265076,-0.548279,0.614929,0.500977
1480618146282402,-0.265076,-0.548279,0.614929,0.500916
1480618146311980,-0.265076,-0.54834,0.614929,0.500916
1480618146328524,-0.265076,-0.54834,0.614929,0.500916
1480618146342062,-0.264893,-0.548279,0.61499,0.501038
1480618146359108,-0.264893,-0.548279,0.61499,0.501038
1480618146380663,-0.264954,-0.548279,0.61499,0.500977
1480618146401718,-0.264954,-0.548279,0.61499,0.500977
1480618146424279,-0.264954,-0.548279,0.61499,0.500977
1480618146441324,-0.264954,-0.548279,0.61499,0.500977
1480618146463382,-0.264954,-0.548279,0.614929,0.500977
1480618146479427,-0.264954,-0.548279,0.614929,0.500977
1480618146500481,-0.265015,-0.54834,0.614929,0.500916
1480618146539585,-0.265015,-0.54834,0.61499,0.500916
1480618146568662,-0.265015,-0.54834,0.614929,0.500916
1480618146582700,-0.265015,-0.54834,0.614929,0.500916
1480618146590721,-0.265015,-0.54834,0.614929,0.500916
1480618146597739,-0.264893,-0.548462,0.614807,0.500977
1480618146620802,-0.264954,-0.548462,0.614807,0.500977
1480618146643362,-0.264954,-0.548462,0.614807,0.500977
1480618146657900,-0.264954,-0.548462,0.614807,0.500977
1480618146682967,-0.264893,-0.548706,0.614746,0.500793
1480618146704023,-0.264832,-0.548706,0.614746,0.500793
1480618146717559,-0.264954,-0.549255,0.614441,0.500549
1480618146740620,-0.265015,-0.549255,0.614441,0.500549
1480618146786242,-0.265076,-0.548767,0.614868,0.500488
1480618146817324,-0.265015,-0.548584,0.61499,0.50061
1480618146822337,-0.265015,-0.548584,0.61499,0.50061
1480618146849911,-0.264893,-0.548401,0.615173,0.500671
1480618146853420,-0.264771,-0.548218,0.615295,0.500732
1480618146868460,-0.264771,-0.548218,0.615295,0.500732
1480618146899543,-0.264771,-0.548279,0.615295,0.500671
1480618146904557,-0.264771,-0.548279,0.615295,0.500671
1480618146928625,-0.264771,-0.548279,0.615234,0.500671
1480618146944162,-0.264771,-0.548279,0.615234,0.500671
1480618146965217,-0.264771,-0.548279,0.615234,0.500671
1480618146981261,-0.264832,-0.548279,0.615234,0.500671
1480618147011842,-0.264832,-0.548279,0.615234,0.500671
1480618147048941,-0.264832,-0.54834,0.615234,0.500671
1480618147051447,-0.264832,-0.54834,0.615234,0.500671
1480618147064983,-0.264832,-0.54834,0.615234,0.500671
1480618147084033,-0.264832,-0.54834,0.615234,0.500671
1480618147124142,-0.264832,-0.54834,0.615234,0.500671
1480618147126146,-0.264893,-0.54834,0.615234,0.50061
1480618147144194,-0.264893,-0.54834,0.615234,0.50061
1480618147160738,-0.264893,-0.54834,0.615234,0.50061
1480618147208366,-0.264648,-0.548279,0.615295,0.500732
1480618147211874,-0.264648,-0.548279,0.615295,0.500732
1480618147221901,-0.264648,-0.548279,0.615295,0.500732
1480618147259002,-0.264709,-0.548279,0.615295,0.500732
1480618147264513,-0.264709,-0.548279,0.615295,0.500732
1480618147289079,-0.264709,-0.548279,0.615295,0.500671
1480618147303618,-0.264709,-0.548279,0.615295,0.500732
1480618147324173,-0.264709,-0.54834,0.615295,0.500671
1480618147340717,-0.264587,-0.548218,0.615417,0.500732
1480618147363277,-0.264648,-0.548218,0.615417,0.500671
1480618147393356,-0.264648,-0.548218,0.615417,0.500671
1480618147400876,-0.264648,-0.548218,0.615417,0.500671
1480618147424945,-0.264648,-0.548218,0.615356,0.500671
1480618147453517,-0.264648,-0.548279,0.615356,0.500671
1480618147467052,-0.264648,-0.548279,0.615356,0.500671
1480618147483096,-0.264587,-0.548157,0.615479,0.500671
1480618147506156,-0.264587,-0.548157,0.615479,0.500671
1480618147520194,-0.264587,-0.548157,0.615479,0.500671
1480618147544258,-0.264587,-0.548218,0.615479,0.500671
1480618147566318,-0.264587,-0.548218,0.615417,0.500671
1480618147581357,-0.264587,-0.548218,0.615417,0.500671
1480618147618457,-0.264648,-0.548401,0.615479,0.500427
1480618147625479,-0.264709,-0.548462,0.61554,0.500244
1480618147640013,-0.264648,-0.548462,0.61554,0.500244
1480618147663074,-0.264709,-0.548889,0.615234,0.500061
1480618147686136,-0.264709,-0.548889,0.615234,0.500122
1480618147700173,-0.264771,-0.54895,0.615234,0.500061
1480618147729250,-0.264771,-0.54895,0.615234,0.500061
1480618147762338,-0.264832,-0.54895,0.615234,0.5
1480618147766850,-0.264832,-0.54895,0.615173,0.5
1480618147783394,-0.264771,-0.54895,0.615173,0.500061
1480618147814978,-0.264771,-0.549011,0.615173,0.500061
1480618147819991,-0.264771,-0.549011,0.615173,0.500061
1480618147843554,-0.264771,-0.548889,0.615234,0.500061
1480618147881658,-0.264771,-0.54895,0.615234,0.500061
1480618147887171,-0.264832,-0.54895,0.615234,0.5
1480618147903213,-0.265137,-0.549561,0.614746,0.499817
1480618147925776,-0.265015,-0.549133,0.61499,0.5
1480618147954349,-0.264954,-0.548889,0.615173,0.500061
1480618147963373,-0.264771,-0.548828,0.615601,0.499695
1480618147985432,-0.264038,-0.548828,0.616211,0.499329
1480618148008498,-0.263306,-0.548645,0.61676,0.499207
1480618148023534,-0.262634,-0.548279,0.617188,0.499451
1480618148054114,-0.262451,-0.549011,0.617004,0.498962
1480618148069154,-0.261963,-0.549805,0.617126,0.498291
1480618148084195,-0.26062,-0.550659,0.617615,0.497375
1480618148105752,-0.258606,-0.551208,0.618652,0.496582
1480618148126810,-0.255981,-0.551086,0.620117,0.496155
1480618148143853,-0.25354,-0.551025,0.621399,0.495911
1480618148173933,-0.251404,-0.551025,0.622131,0.496094
1480618148194488,-0.25116,-0.55188,0.621704,0.495728
1480618148203512,-0.251587,-0.552307,0.621094,0.495911
1480618148233091,-0.251831,-0.551758,0.62146,0.49585
1480618148257656,-0.252014,-0.551636,0.621582,0.495789
1480618148274207,-0.252014,-0.551514,0.621521,0.496033
1480618148286238,-0.251648,-0.550781,0.621643,0.496826
1480618148314314,-0.251831,-0.550171,0.621582,0.497437
1480618148323337,-0.252563,-0.549988,0.621216,0.497803
1480618148346399,-0.253296,-0.549805,0.62085,0.498047
1480618148376979,-0.253784,-0.549316,0.620667,0.498596
1480618148397033,-0.254395,-0.549133,0.620178,0.499146
1480618148406056,-0.255005,-0.549133,0.619568,0.499573
1480618148428117,-0.255859,-0.549072,0.619141,0.499756
1480618148450676,-0.256775,-0.548889,0.618835,0.499817
1480618148465716,-0.257507,-0.548767,0.618469,0.5
1480618148488276,-0.25824,-0.548645,0.618103,0.500244
1480618148510836,-0.259094,-0.548645,0.617615,0.500427
1480618148532393,-0.259705,-0.548645,0.617188,0.50061
1480618148563977,-0.260193,-0.548767,0.616882,0.500549
1480618148569492,-0.260254,-0.548767,0.616882,0.500549
1480618148593556,-0.26001,-0.548706,0.617188,0.500366
1480618148608597,-0.259827,-0.548706,0.617432,0.500183
1480618148623134,-0.259766,-0.548706,0.617432,0.500183
1480618148645694,-0.259766,-0.548706,0.617432,0.500244
1480618148675776,-0.259766,-0.548706,0.617432,0.500244
1480618148682794,-0.259766,-0.548767,0.617371,0.500183
1480618148705855,-0.259766,-0.548767,0.617371,0.500244
1480618148728915,-0.259888,-0.549438,0.617065,0.499756
1480618148749470,-0.260071,-0.549866,0.616821,0.499512
1480618148765513,-0.259827,-0.549683,0.617004,0.499634
1480618148788575,-0.259766,-0.549744,0.616943,0.499634
1480618148809130,-0.259949,-0.549622,0.617126,0.499512
1480618148839711,-0.259949,-0.549438,0.617249,0.499573
1480618148848233,-0.259949,-0.549438,0.617249,0.499573
1480618148879316,-0.259949,-0.549438,0.617249,0.499573
1480618148893354,-0.259949,-0.549438,0.617249,0.499573
1480618148908399,-0.259949,-0.549438,0.617188,0.499573
1480618148929449,-0.259949,-0.5495,0.617188,0.499512
1480618148954523,-0.26001,-0.5495,0.617188,0.499512
1480618148969055,-0.26001,-0.5495,0.617188,0.499512
1480618148990111,-0.260193,-0.549744,0.617004,0.49939
1480618149005652,-0.260315,-0.549988,0.616882,0.499207
1480618149028214,-0.260315,-0.549988,0.616821,0.499207
1480618149049769,-0.260498,-0.549805,0.616882,0.499329
1480618149067316,-0.260742,-0.549805,0.616821,0.499268
1480618149088372,-0.260742,-0.549805,0.616821,0.499268
1480618149109428,-0.260681,-0.549622,0.617004,0.499268
1480618149131988,-0.260254,-0.549316,0.61731,0.49939
1480618149163071,-0.260254,-0.549316,0.61731,0.499451
1480618149171593,-0.260254,-0.549316,0.61731,0.499451
1480618149186132,-0.260254,-0.549255,0.617371,0.49939
1480618149215711,-0.260193,-0.549133,0.617554,0.49939
1480618149230752,-0.260071,-0.54895,0.617676,0.499512
1480618149259327,-0.260071,-0.54895,0.617676,0.499512
1480618149268351,-0.260071,-0.54895,0.617676,0.499512
1480618149298431,-0.260071,-0.54895,0.617676,0.499512
1480618149307957,-0.260071,-0.54895,0.617615,0.499451
1480618149328511,-0.260132,-0.549011,0.617676,0.499451
1480618149351072,-0.260132,-0.549011,0.617615,0.499451
1480618149365610,-0.260132,-0.549011,0.617615,0.499451
1480618149388170,-0.260132,-0.549011,0.617615,0.499451
1480618149410730,-0.259888,-0.548828,0.617615,0.499756
1480618149425770,-0.259888,-0.548828,0.617615,0.499756
1480618149448834,-0.26001,-0.54895,0.617615,0.499573
1480618149470388,-0.26001,-0.54895,0.617615,0.499573
1480618149484927,-0.26001,-0.54895,0.617615,0.499573
1480618149508491,-0.26001,-0.54895,0.617615,0.499573
1480618149533054,-0.259827,-0.548889,0.617737,0.499573
1480618149560629,-0.259827,-0.548828,0.617859,0.499512
1480618149574669,-0.259827,-0.548828,0.617859,0.499512
1480618149591713,-0.259888,-0.548828,0.617859,0.499512
1480618149619786,-0.259827,-0.548828,0.617859,0.499512
1480618149637834,-0.259827,-0.548828,0.617859,0.499512
1480618149650869,-0.259827,-0.548828,0.617859,0.499512
1480618149665407,-0.259827,-0.548828,0.617859,0.499512
1480618149688469,-0.259888,-0.548828,0.617859,0.499451
1480618149711029,-0.259888,-0.548828,0.617859,0.499451
1480618149725567,-0.259705,-0.548767,0.61792,0.499512
1480618149754645,-0.259705,-0.548767,0.617981,0.499512
1480618149771189,-0.259766,-0.548767,0.617981,0.499512
1480618149792247,-0.259766,-0.548767,0.61792,0.499512
1480618149816309,-0.259766,-0.548828,0.61792,0.499451
1480618149830847,-0.259766,-0.548828,0.61792,0.499451
1480618149860929,-0.259766,-0.548828,0.61792,0.499451
1480618149868447,-0.259766,-0.548828,0.61792,0.499451
1480618149898528,-0.259766,-0.54895,0.617737,0.499512
1480618149912566,-0.26001,-0.549072,0.617554,0.499512
1480618149928106,-0.26001,-0.549072,0.617554,0.499512
1480618149950666,-0.260071,-0.549072,0.617554,0.499451
1480618149979242,-0.26001,-0.549072,0.617554,0.499451
1480618149988768,-0.26001,-0.549072,0.617554,0.499512
1480618150010827,-0.260071,-0.549072,0.617554,0.499451
1480618150033887,-0.259766,-0.549011,0.617737,0.499512
1480618150063466,-0.259766,-0.549011,0.617737,0.499512
1480618150072490,-0.259766,-0.549011,0.617737,0.499512
1480618150092043,-0.259766,-0.549011,0.617737,0.499512
1480618150115605,-0.259766,-0.549011,0.617676,0.499512
1480618150137162,-0.259766,-0.549011,0.617676,0.499512
1480618150153206,-0.259766,-0.549011,0.617676,0.499512
1480618150175765,-0.259705,-0.54895,0.617798,0.499512
1480618150196821,-0.259705,-0.54895,0.617798,0.499512
1480618150214869,-0.259705,-0.54895,0.617798,0.499512
1480618150229407,-0.259705,-0.54895,0.617737,0.499512
1480618150260992,-0.259705,-0.54895,0.617737,0.499512
1480618150273525,-0.259705,-0.549011,0.617737,0.499512
1480618150288064,-0.259705,-0.549011,0.617737,0.499512
1480618150310624,-0.259766,-0.549011,0.617737,0.499512
1480618150341210,-0.259766,-0.549011,0.617737,0.499512
1480618150350229,-0.259766,-0.549011,0.617737,0.499512
1480618150370784,-0.259705,-0.549011,0.617737,0.499512
1480618150395851,-0.259766,-0.549011,0.617737,0.499512
1480618150414901,-0.259766,-0.549011,0.617737,0.499451
1480618150431446,-0.259827,-0.549072,0.617737,0.499451
1480618150455008,-0.259827,-0.549011,0.617737,0.499451
1480618150475562,-0.259827,-0.549011,0.617737,0.499451
1480618150504139,-0.259827,-0.549255,0.617615,0.499329
1480618150513163,-0.259827,-0.549316,0.617737,0.499146
1480618150528203,-0.259766,-0.549194,0.617859,0.499084
1480618150551766,-0.259766,-0.549194,0.617859,0.499084
1480618150579339,-0.259766,-0.549194,0.617859,0.499084
1480618150589366,-0.259766,-0.549255,0.617859,0.499084
1480618150610923,-0.259766,-0.549255,0.617859,0.499084
1480618150634987,-0.259766,-0.549255,0.617859,0.499084
1480618150647522,-0.259766,-0.549255,0.617859,0.499084
1480618150671083,-0.259827,-0.549255,0.617859,0.499023
1480618150702166,-0.259827,-0.549255,0.618042,0.49884
1480618150714197,-0.259521,-0.549011,0.618286,0.498962
1480618150738261,-0.259399,-0.548889,0.618347,0.499023
1480618150755308,-0.259399,-0.548889,0.618347,0.499023
1480618150774861,-0.259399,-0.548889,0.618347,0.499023
1480618150790905,-0.25946,-0.54895,0.618347,0.499023
1480618150813462,-0.25946,-0.54895,0.618347,0.498962
1480618150836023,-0.25946,-0.54895,0.618347,0.498962
1480618150857078,-0.259521,-0.54895,0.618347,0.498962
1480618150881643,-0.259521,-0.54895,0.618347,0.498962
1480618150894176,-0.259521,-0.54895,0.618347,0.498962
1480618150916736,-0.259583,-0.54895,0.618347,0.498901
1480618150939296,-0.259583,-0.549316,0.618164,0.498779
1480618150954838,-0.259583,-0.549316,0.618164,0.498779
1480618150978902,-0.259583,-0.549316,0.618103,0.498779
1480618150999457,-0.259583,-0.549316,0.618103,0.498779
1480618151022016,-0.259583,-0.549316,0.618103,0.498718
1480618151038560,-0.259644,-0.549316,0.618103,0.498718
1480618151054102,-0.259644,-0.549316,0.618103,0.498718
1480618151074661,-0.259705,-0.549561,0.617981,0.498596
1480618151091209,-0.259705,-0.549622,0.617981,0.498596
1480618151113260,-0.259521,-0.5495,0.618042,0.498657
1480618151135822,-0.25946,-0.5495,0.618103,0.498657
1480618151150859,-0.259399,-0.549377,0.618225,0.498657
1480618151174925,-0.259338,-0.549072,0.618408,0.49884
1480618151195980,-0.259338,-0.549072,0.618408,0.49884
1480618151211019,-0.259277,-0.549072,0.618408,0.49884
1480618151233078,-0.259277,-0.549072,0.618408,0.49884
1480618151255638,-0.259338,-0.549072,0.618408,0.49884
1480618151270678,-0.259338,-0.549072,0.618408,0.498779
1480618151293238,-0.259277,-0.54895,0.61853,0.49884
1480618151331840,-0.259277,-0.54895,0.61853,0.49884
1480618151334347,-0.259277,-0.54895,0.61853,0.49884
1480618151352896,-0.259277,-0.54895,0.61853,0.49884
1480618151376460,-0.259583,-0.549194,0.618408,0.498535
1480618151389996,-0.259216,-0.549255,0.61853,0.498474
1480618151413559,-0.259033,-0.548706,0.618896,0.498779
1480618151444139,-0.25946,-0.549011,0.618469,0.498779
1480618151452662,-0.259644,-0.549377,0.618347,0.498352
1480618151474222,-0.25946,-0.549377,0.618469,0.498352
1480618151503297,-0.25946,-0.549377,0.618469,0.498352
1480618151526859,-0.259521,-0.5495,0.618408,0.49823
1480618151534881,-0.259766,-0.549744,0.618164,0.498108
1480618151555937,-0.259827,-0.549744,0.618164,0.498108
1480618151569974,-0.259827,-0.549744,0.618164,0.498108
1480618151593537,-0.259766,-0.549744,0.618164,0.498108
1480618151616097,-0.259766,-0.549744,0.618164,0.498108
1480618151636652,-0.259827,-0.549744,0.618164,0.498108
1480618151660715,-0.259827,-0.549744,0.618164,0.498108
1480618151684279,-0.259827,-0.549744,0.618164,0.498108
1480618151696811,-0.259827,-0.549988,0.617981,0.498047
1480618151720876,-0.259827,-0.549988,0.617981,0.498047
1480618151743938,-0.259827,-0.549988,0.617981,0.498047
1480618151756470,-0.259888,-0.549866,0.618042,0.498108
1480618151784043,-0.26001,-0.549622,0.618164,0.498169
1480618151810615,-0.260071,-0.549377,0.618286,0.498291
1480618151819137,-0.260071,-0.549377,0.618286,0.498291
1480618151848215,-0.260132,-0.549377,0.618286,0.498291
1480618151850220,-0.259888,-0.549133,0.618347,0.498535
1480618151877793,-0.259888,-0.549133,0.618347,0.498535
1480618151883810,-0.259949,-0.549133,0.618347,0.498474
1480618151898849,-0.259888,-0.54895,0.618469,0.498535
1480618151921409,-0.259827,-0.54895,0.618469,0.498535
1480618151943468,-0.259827,-0.54895,0.618469,0.498596
1480618151960012,-0.259827,-0.54895,0.618469,0.498596
1480618151998113,-0.259827,-0.548889,0.618591,0.498596
1480618152005132,-0.259827,-0.548889,0.618591,0.498535
1480618152027692,-0.259827,-0.548889,0.618591,0.498535
1480618152050252,-0.259827,-0.548889,0.618591,0.498535
1480618152090358,-0.259583,-0.548767,0.618652,0.498718
1480618152104396,-0.259338,-0.548706,0.618774,0.498718
1480618152111916,-0.258972,-0.548584,0.61908,0.498718
1480618152123446,-0.259216,-0.548889,0.618774,0.498657
1480618152138487,-0.259216,-0.549377,0.61853,0.498352
1480618152162560,-0.25946,-0.549316,0.618774,0.497986
1480618152183607,-0.259094,-0.54895,0.619019,0.498352
1480618152206167,-0.259094,-0.548889,0.61908,0.498352
1480618152221207,-0.259094,-0.548828,0.61908,0.498352
1480618152243766,-0.25946,-0.54895,0.618896,0.49823
1480618152276855,-0.259705,-0.549316,0.618713,0.498047
1480618152283874,-0.259705,-0.549316,0.618652,0.498047
1480618152303927,-0.25946,-0.549011,0.618958,0.498169
1480618152326487,-0.259094,-0.548706,0.619141,0.498413
1480618152349548,-0.259094,-0.548706,0.619141,0.498413
1480618152363585,-0.259338,-0.548889,0.619019,0.498291
1480618152378626,-0.259338,-0.548889,0.619019,0.498291
1480618152401185,-0.259338,-0.548889,0.619019,0.49823
1480618152431767,-0.259277,-0.548767,0.61908,0.498413
1480618152440290,-0.259277,-0.548767,0.61908,0.498413
1480618152461346,-0.259277,-0.548706,0.61908,0.498413
1480618152483905,-0.259338,-0.548706,0.61908,0.498352
1480618152499948,-0.259338,-0.548706,0.61908,0.498352
1480618152521004,-0.259399,-0.548706,0.619141,0.498291
1480618152556600,-0.259399,-0.548706,0.619141,0.498291
1480618152560108,-0.259399,-0.548706,0.619141,0.498291
1480618152584172,-0.259399,-0.548706,0.619141,0.498291
1480618152615256,-0.259399,-0.548706,0.619141,0.498291
1480618152643330,-0.259399,-0.548706,0.619141,0.498291
1480618152645837,-0.259399,-0.548706,0.61908,0.498291
1480618152663884,-0.259399,-0.548767,0.61908,0.498291
1480618152680429,-0.259399,-0.548767,0.61908,0.498291
1480618152708504,-0.259155,-0.548706,0.619141,0.498413
1480618152724049,-0.258972,-0.548645,0.619202,0.498535
1480618152740087,-0.258972,-0.548462,0.619324,0.498535
1480618152766156,-0.258972,-0.548462,0.619324,0.498535
1480618152783703,-0.258972,-0.548401,0.619324,0.498535
1480618152800248,-0.258972,-0.548462,0.619324,0.498535
1480618152831831,-0.258972,-0.548462,0.619324,0.498535
1480618152860910,-0.258972,-0.548462,0.619324,0.498535
1480618152862913,-0.258972,-0.54834,0.619446,0.498535
1480618152884973,-0.258789,-0.548157,0.619568,0.498596
1480618152920568,-0.258789,-0.548157,0.619568,0.498596
1480618152923075,-0.258789,-0.548157,0.619568,0.498596
1480618152941123,-0.258789,-0.548157,0.619568,0.498596
1480618152963682,-0.25885,-0.548157,0.619568,0.498596
1480618152981730,-0.25885,-0.548157,0.619568,0.498596
1480618153008802,-0.25885,-0.548157,0.619629,0.498596
1480618153031361,-0.25885,-0.548157,0.619629,0.498596
1480618153042392,-0.25885,-0.548096,0.619629,0.498596
1480618153060941,-0.258545,-0.548096,0.619873,0.498474
1480618153083501,-0.257874,-0.548157,0.619873,0.498779
1480618153118093,-0.258179,-0.549133,0.619263,0.498291
1480618153122605,-0.257935,-0.549011,0.619324,0.498474
1480618153161207,-0.257629,-0.548584,0.61969,0.498657
1480618153166221,-0.257629,-0.548584,0.61969,0.498657
1480618153184771,-0.257446,-0.548767,0.619568,0.498718
1480618153203820,-0.257263,-0.548889,0.619507,0.498779
1480618153234903,-0.257141,-0.549072,0.619446,0.498657
1480618153241424,-0.257019,-0.549011,0.619568,0.498657
1480618153270999,-0.256836,-0.54895,0.619751,0.498596
1480618153286039,-0.256531,-0.548706,0.620056,0.498596
1480618153301080,-0.25647,-0.549011,0.620178,0.498169
1480618153331159,-0.255981,-0.549011,0.620667,0.497803
1480618153346200,-0.255249,-0.549072,0.621216,0.497498
1480618153365753,-0.254517,-0.549561,0.621765,0.496643
1480618153393326,-0.253113,-0.549622,0.622681,0.496155
1480618153414882,-0.251648,-0.549805,0.623352,0.495728
1480618153421399,-0.250488,-0.550903,0.623657,0.494812
1480618153443459,-0.249329,-0.551636,0.624023,0.49408
1480618153466017,-0.248108,-0.552002,0.624512,0.493652
1480618153498104,-0.247131,-0.552246,0.62439,0.493958
1480618153505122,-0.247986,-0.553467,0.623291,0.493591
1480618153526179,-0.247986,-0.553345,0.623047,0.49408
1480618153544228,-0.248535,-0.552795,0.623169,0.494202
1480618153563778,-0.249329,-0.552612,0.623108,0.494141
1480618153586338,-0.249084,-0.551697,0.623596,0.49469
1480618153608899,-0.24884,-0.550903,0.623962,0.495178
1480618153644493,-0.24939,-0.551636,0.623474,0.494751
1480618153657530,-0.249695,-0.551514,0.623291,0.494934
1480618153662541,-0.249695,-0.55072,0.623291,0.495789
1480618153686605,-0.249939,-0.550476,0.622925,0.496399
1480618153706157,-0.250488,-0.550476,0.622253,0.497009
1480618153730221,-0.25116,-0.550171,0.621704,0.497681
1480618153743757,-0.252014,-0.549866,0.621399,0.497925
1480618153774340,-0.252686,-0.549866,0.621094,0.498047
1480618153788877,-0.252808,-0.549683,0.620972,0.498352
1480618153804920,-0.25293,-0.5495,0.621033,0.498413
1480618153825976,-0.25293,-0.549438,0.621033,0.498413
1480618153842520,-0.252991,-0.549438,0.621033,0.498352
1480618153864077,-0.25293,-0.549622,0.621155,0.498108
1480618153889144,-0.252563,-0.549927,0.621094,0.498047
1480618153917720,-0.25293,-0.55072,0.620422,0.497803
1480618153940281,-0.25293,-0.550537,0.620544,0.497864
1480618153954819,-0.253235,-0.550415,0.620667,0.497681
1480618153964344,-0.253235,-0.550415,0.620667,0.49762
1480618153983896,-0.253296,-0.550415,0.620667,0.49762
1480618154014979,-0.253235,-0.550415,0.620667,0.49762
1480618154024006,-0.253235,-0.550415,0.620667,0.49762
1480618154043554,-0.253235,-0.550415,0.620667,0.49762
1480618154074142,-0.253235,-0.550415,0.620667,0.49762
1480618154084163,-0.253296,-0.550476,0.620667,0.49762
1480618154103715,-0.253296,-0.550476,0.620667,0.497559
1480618154136301,-0.253296,-0.550476,0.620667,0.497559
1480618154162371,-0.253296,-0.550415,0.620667,0.497559
1480618154165383,-0.253296,-0.550415,0.620667,0.497559
1480618154188944,-0.253357,-0.550476,0.620667,0.497559
1480618154204984,-0.253296,-0.550354,0.62085,0.497498
1480618154223535,-0.253357,-0.550171,0.620972,0.497498
1480618154246095,-0.253357,-0.550171,0.620972,0.497498
1480618154264642,-0.253357,-0.550171,0.620972,0.497437
1480618154283694,-0.253296,-0.55011,0.621155,0.497437
1480618154307259,-0.253235,-0.549988,0.621216,0.497437
1480618154324303,-0.253235,-0.549988,0.621216,0.497437
1480618154343861,-0.253296,-0.549988,0.621216,0.497375
1480618154366413,-0.25354,-0.550049,0.621155,0.497314
1480618154390980,-0.253601,-0.550049,0.621155,0.497314
1480618154414041,-0.253601,-0.550049,0.621094,0.497314
1480618154433596,-0.253601,-0.550049,0.621094,0.497314
1480618154444624,-0.253601,-0.550049,0.621155,0.497314
1480618154472697,-0.253662,-0.550049,0.621155,0.497253
1480618154486232,-0.253662,-0.550049,0.621155,0.497253
1480618154508793,-0.253662,-0.550049,0.621155,0.497253
1480618154523836,-0.253662,-0.550049,0.621155,0.497253
1480618154546393,-0.253662,-0.550049,0.621155,0.497253
1480618154585496,-0.253662,-0.550049,0.621155,0.497253
1480618154588003,-0.253723,-0.550049,0.621155,0.497253
1480618154606051,-0.253723,-0.549988,0.621155,0.497253
1480618154624102,-0.253723,-0.550049,0.621155,0.497192
1480618154668216,-0.253723,-0.550049,0.621155,0.497253
1480618154670723,-0.253723,-0.550049,0.621155,0.497192
1480618154697294,-0.253662,-0.549927,0.621277,0.497192
1480618154722863,-0.253723,-0.549927,0.621277,0.497192
1480618154735897,-0.253723,-0.549927,0.621277,0.497192
1480618154748932,-0.253723,-0.549927,0.621277,0.497192
1480618154764974,-0.253723,-0.549927,0.621277,0.497192
1480618154786030,-0.253723,-0.549927,0.621277,0.497192
1480618154808590,-0.253784,-0.549927,0.621277,0.497131
1480618154826638,-0.253784,-0.549927,0.621277,0.497131
1480618154846191,-0.253845,-0.549927,0.621277,0.49707
1480618154868750,-0.253845,-0.549927,0.621277,0.49707
1480618154885294,-0.253662,-0.549866,0.62146,0.497009
1480618154906351,-0.253418,-0.549805,0.621582,0.497131
1480618154947460,-0.253418,-0.549805,0.621582,0.497131
1480618154958990,-0.253418,-0.549805,0.621582,0.497131
1480618154971023,-0.253662,-0.549927,0.621399,0.49707
1480618154996089,-0.253662,-0.549927,0.621399,0.49707
1480618155022158,-0.253662,-0.549927,0.621399,0.49707
1480618155027673,-0.253662,-0.549988,0.621338,0.49707
1480618155056249,-0.253723,-0.549988,0.621399,0.49707
1480618155066777,-0.253723,-0.549988,0.621399,0.497009
1480618155086329,-0.253723,-0.549988,0.621399,0.497009
1480618155108888,-0.253723,-0.549988,0.621338,0.497009
1480618155126937,-0.253723,-0.549988,0.621338,0.497009
1480618155145989,-0.253723,-0.549988,0.621338,0.497009
1480618155170052,-0.253967,-0.550171,0.621216,0.496826
1480618155194116,-0.253967,-0.550171,0.621277,0.496826
1480618155207652,-0.254028,-0.550171,0.621277,0.496826
1480618155246255,-0.254028,-0.550171,0.621216,0.496765
1480618155248762,-0.254028,-0.550232,0.621216,0.496765
1480618155266308,-0.254028,-0.550232,0.621216,0.496765
1480618155291876,-0.254089,-0.550232,0.621216,0.496765
1480618155306414,-0.254089,-0.550232,0.621216,0.496704
1480618155327470,-0.25415,-0.550232,0.621216,0.496704
1480618155348526,-0.25415,-0.550232,0.621216,0.496704
1480618155374098,-0.25415,-0.550293,0.621216,0.496704
1480618155389135,-0.25415,-0.550171,0.621216,0.496765
1480618155408686,-0.25415,-0.550171,0.621216,0.496765
1480618155426735,-0.254211,-0.550171,0.621216,0.496765
1480618155453806,-0.254211,-0.550171,0.621216,0.496704
1480618155471855,-0.254395,-0.550049,0.621277,0.496765
1480618155502938,-0.254395,-0.549988,0.621277,0.496765
1480618155507452,-0.254395,-0.549988,0.621277,0.496765
1480618155528506,-0.254456,-0.550049,0.621277,0.496765
1480618155552569,-0.254333,-0.549866,0.621399,0.496765
1480618155567610,-0.254395,-0.549866,0.621399,0.496765
1480618155596185,-0.254395,-0.549866,0.621399,0.496765
1480618155606716,-0.254395,-0.549866,0.621399,0.496765
1480618155627770,-0.254211,-0.549805,0.62146,0.496826
1480618155651833,-0.254211,-0.549805,0.62146,0.496826
1480618155667375,-0.254272,-0.549805,0.62146,0.496826
1480618155688933,-0.253845,-0.549561,0.622009,0.496582
1480618155709988,-0.253845,-0.549316,0.622253,0.496582
1480618155739567,-0.253662,-0.549438,0.622009,0.496826
1480618155747588,-0.253784,-0.549744,0.621826,0.496643
1480618155779173,-0.253845,-0.549805,0.621826,0.496582
1480618155799225,-0.253845,-0.549805,0.621826,0.496582
1480618155815268,-0.253845,-0.549805,0.621826,0.496582
1480618155831311,-0.253906,-0.549805,0.621826,0.496521
1480618155846852,-0.253723,-0.549866,0.621887,0.496521
1480618155868409,-0.253357,-0.549744,0.62207,0.496521
1480618155888463,-0.253174,-0.549683,0.622253,0.496521
1480618155911023,-0.253235,-0.549683,0.622253,0.496521
1480618155929071,-0.253235,-0.549683,0.622253,0.49646
1480618155948623,-0.253479,-0.549805,0.62207,0.49646
1480618155997753,-0.253418,-0.549866,0.622131,0.496338
1480618156009285,-0.253052,-0.549683,0.622375,0.496399
1480618156027834,-0.253052,-0.549744,0.622375,0.496399
1480618156032847,-0.253052,-0.549744,0.622375,0.496338
1480618156054906,-0.253113,-0.549744,0.622375,0.496338
1480618156068442,-0.253174,-0.549744,0.622375,0.496277
1480618156086490,-0.252747,-0.549805,0.62262,0.496155
1480618156122586,-0.252563,-0.549438,0.622986,0.496155
1480618156128602,-0.252563,-0.549438,0.622986,0.496155
1480618156168209,-0.252563,-0.5495,0.622986,0.496094
1480618156170714,-0.252625,-0.5495,0.622986,0.496094
1480618156188763,-0.252563,-0.549438,0.622986,0.496155
1480618156211322,-0.252563,-0.549438,0.622986,0.496155
1480618156242406,-0.252808,-0.549744,0.622864,0.49585
1480618156256966,-0.252563,-0.549805,0.622986,0.495728
1480618156288026,-0.252319,-0.5495,0.623169,0.496033
1480618156304571,-0.252563,-0.549744,0.622925,0.495972
1480618156308580,-0.252991,-0.55011,0.622559,0.495789
1480618156334650,-0.253174,-0.550293,0.622375,0.495667
